DTS Sentinel unit serial number:	SN413079Multiplexer serial number:	ORYXHardware model number:	OX4-SRSoftware version number:	ORYX F/W v4.00 Oryx Data Collector v3.7.2.0data status	okinstallation	princeton_trtdifferential loss correction	single-endedforward channel	channel 4reverse channel	N/Adate	2019/09/12time	18:33:19forward acquisition time	15.00reverse acquisition time	0.00gamma	496.2192k internal	0.2307k external	0.2307temperature offset calibration	1.0136default loss term (dB/km)	0.3790temperature slope calibration	1.0000multiplexer offset coefficient	1.0000multiplexer slope coefficient	1.0000fibre end	0.00T internal ref (°C)	33.19T ext. ref 1 (°C)	2.94T ext. ref 2 (°C)	27.79length (m)	temperature (°C)	Stokes	anti-Stokes-747.200	717.812	-0.260	0.702
-746.185	-200.000	0.081	-0.529
-745.171	-179.244	0.203	-0.005
-744.156	-200.000	-0.016	0.355
-743.142	-200.000	-0.022	-0.563
-742.127	-163.532	-0.946	0.046
-741.112	-115.630	0.787	-0.150
-740.098	-200.000	0.032	0.679
-739.083	591.621	-0.197	-0.494
-738.069	-147.666	-0.787	-0.067
-737.054	-200.000	0.102	0.626
-736.039	-58.996	-0.556	-0.244
-735.025	24.236	-0.401	0.337
-734.010	-200.000	0.094	-0.643
-732.996	117.368	-0.462	0.578
-731.981	-200.000	0.094	-0.498
-730.966	800.000	0.276	-1.205
-729.952	-87.840	0.334	0.102
-728.937	-86.103	0.336	-0.105
-727.923	164.286	-0.082	0.117
-726.908	131.182	-0.477	-0.622
-725.894	-53.677	0.681	0.316
-724.879	38.358	-0.784	0.710
-723.864	-3.159	-0.807	-0.572
-722.850	800.000	0.025	0.084
-721.835	165.105	-0.108	-0.155
-720.821	120.117	-0.243	-0.306
-719.806	-13.934	0.297	0.195
-718.791	80.776	-0.122	-0.133
-717.777	519.045	-0.208	0.494
-716.762	-102.180	0.156	0.038
-715.748	-35.063	0.675	0.374
-714.733	-200.000	0.039	0.430
-713.718	29.566	-1.088	-0.940
-712.704	-86.575	0.445	-0.139
-711.689	-71.480	-0.441	0.168
-710.675	341.305	0.031	0.062
-709.660	106.603	0.437	-0.526
-708.645	-23.914	0.508	0.309
-707.631	-142.283	0.671	-0.067
-706.616	72.868	-0.139	-0.147
-705.602	169.946	-0.186	0.270
-704.587	457.760	-0.090	0.202
-703.572	-47.399	-0.631	-0.311
-702.558	275.360	0.734	-1.321
-701.543	-200.000	0.067	-0.340
-700.529	-128.110	0.555	-0.081
-699.514	-41.453	-0.262	-0.137
-698.499	800.000	-0.273	0.970
-697.485	-200.000	0.033	-0.487
-696.470	139.769	0.163	-0.218
-695.456	-94.176	-0.185	-0.051
-694.441	-71.844	0.504	0.190
-693.426	190.755	-0.163	-0.248
-692.412	-173.858	-0.992	0.030
-691.397	-30.643	0.052	-0.030
-690.383	800.000	-0.036	-0.111
-689.368	459.990	-0.357	-0.806
-688.354	-69.790	0.141	-0.055
-687.339	291.966	-0.309	-0.571
-686.324	-200.000	0.014	0.150
-685.310	-61.667	-0.750	-0.319
-684.295	160.567	0.272	0.385
-683.281	-200.000	-0.135	-0.648
-682.266	-200.000	0.010	0.158
-681.251	-80.539	-0.412	0.139
-680.237	-87.807	-0.449	0.137
-679.222	706.346	-0.246	0.659
-678.208	44.117	0.053	-0.049
-677.193	-200.000	0.076	0.604
-676.178	124.468	0.306	-0.391
-675.164	263.170	0.310	-0.547
-674.149	87.935	-0.294	0.331
-673.135	-200.000	0.043	-0.750
-672.120	66.816	0.137	0.141
-671.105	358.257	0.457	-0.925
-670.091	-200.000	0.126	-0.891
-669.076	800.000	-0.070	0.297
-668.062	219.284	-0.334	-0.541
-667.047	56.719	0.394	-0.389
-666.032	-147.729	-0.776	0.066
-665.018	-200.000	-0.031	-0.243
-664.003	101.270	-0.312	-0.368
-662.989	-47.058	0.125	-0.062
-661.974	-54.799	0.399	-0.183
-660.959	800.000	0.130	-0.526
-659.945	609.289	0.320	0.810
-658.930	-67.360	0.275	-0.109
-657.916	586.406	-0.066	0.165
-656.901	-10.363	0.160	0.108
-655.886	232.921	-0.232	0.386
-654.872	102.042	0.821	-0.972
-653.857	800.000	0.227	-0.841
-652.843	-14.180	-0.285	-0.186
-651.828	-33.232	-0.220	0.124
-650.814	-200.000	0.170	-0.767
-649.799	-189.519	0.341	0.004
-648.784	264.893	0.212	0.375
-647.770	800.000	-0.084	0.353
-646.755	-164.832	-0.619	0.028
-645.741	193.253	-0.100	-0.154
-644.726	-101.742	-0.952	-0.234
-643.711	454.654	0.222	-0.499
-642.697	-200.000	0.106	-0.579
-641.682	-122.723	-0.570	-0.093
-640.668	136.304	0.853	-1.127
-639.653	-111.869	0.613	-0.125
-638.638	-200.000	0.094	0.450
-637.624	248.432	0.213	-0.365
-636.609	800.000	-0.059	-0.243
-635.595	136.249	-0.259	0.341
-634.580	153.458	-0.369	-0.512
-633.565	-88.049	0.722	0.220
-632.551	-103.909	-0.862	-0.204
-631.536	-107.652	-0.580	0.128
-630.522	-46.767	0.450	0.223
-629.507	-108.370	-0.567	-0.124
-628.492	252.672	0.249	-0.430
-627.478	-25.061	-0.736	0.442
-626.463	-155.522	-0.322	0.021
-625.449	-200.000	-0.072	0.462
-624.434	800.000	0.195	0.547
-623.419	-56.467	-0.660	-0.297
-622.405	-1.273	-0.805	-0.576
-621.390	330.571	-0.640	1.247
-620.376	21.134	-0.302	-0.248
-619.361	-24.663	-0.367	-0.221
-618.346	800.000	0.144	-0.540
-617.332	396.411	-0.227	-0.480
-616.317	63.569	-0.276	-0.280
-615.303	305.932	-0.140	-0.263
-614.288	66.706	0.451	-0.464
-613.273	56.188	-0.553	-0.543
-612.259	55.502	-0.221	0.217
-611.244	-165.315	-0.728	0.032
-610.230	-32.830	0.499	-0.280
-609.215	800.000	-0.217	-0.648
-608.201	-64.547	1.246	-0.512
-607.186	61.905	0.446	-0.450
-606.171	63.796	0.345	-0.350
-605.157	-122.462	0.286	-0.047
-604.142	-135.246	-0.722	0.088
-603.128	319.223	-0.205	-0.392
-602.113	-162.457	-0.158	-0.008
-601.098	-144.504	0.459	0.043
-600.084	-200.000	-0.026	-0.170
-599.069	282.536	-0.450	0.816
-598.055	-1.495	-0.285	-0.204
-597.040	-77.039	0.634	-0.224
-596.025	18.058	0.248	0.200
-595.011	-200.000	0.075	-0.942
-593.996	453.983	-0.296	-0.662
-592.982	-122.383	0.712	-0.117
-591.967	-135.399	-0.978	-0.118
-590.952	-4.576	-0.294	0.205
-589.938	-185.248	0.462	-0.007
-588.923	537.964	-0.377	0.905
-587.909	144.826	-0.093	-0.126
-586.894	141.841	0.521	0.698
-585.879	446.763	0.342	0.761
-584.865	800.000	-0.192	0.568
-583.850	800.000	-0.345	-1.004
-582.836	-58.180	-0.434	-0.191
-581.821	-200.000	0.060	0.452
-580.806	46.779	-0.444	-0.416
-579.792	180.580	-0.190	-0.282
-578.777	-121.516	-0.333	0.056
-577.763	800.000	-0.379	1.070
-576.748	345.382	0.091	0.180
-575.733	-136.240	0.303	-0.036
-574.719	-16.366	0.273	-0.175
-573.704	800.000	-0.399	-1.752
-572.690	449.974	-0.306	0.682
-571.675	97.655	0.338	0.392
-570.661	-200.000	-0.002	-0.452
-569.646	501.331	-0.306	-0.714
-568.631	-126.916	0.246	0.037
-567.617	-200.000	0.158	-0.898
-566.602	-200.000	-0.006	-0.827
-565.588	-11.171	0.176	-0.117
-564.573	800.000	0.122	-0.364
-563.558	-62.809	0.585	-0.245
-562.544	-200.000	-0.013	0.580
-561.529	800.000	0.263	0.891
-560.515	-0.601	0.824	0.590
-559.500	151.230	-0.349	0.479
-558.485	139.160	-0.328	-0.436
-557.471	-89.561	-0.763	-0.226
-556.456	128.230	-0.153	-0.197
-555.442	460.835	0.225	-0.506
-554.427	125.129	0.544	-0.692
-553.412	-132.148	-0.304	-0.040
-552.398	175.171	-0.234	0.342
-551.383	-200.000	0.030	-0.358
-550.369	-200.000	-0.050	0.491
-549.354	-200.000	0.101	-0.520
-548.339	23.772	-0.225	0.187
-547.325	397.962	-0.242	-0.511
-546.310	-200.000	-0.025	-0.118
-545.296	-55.937	0.096	-0.043
-544.281	152.399	-0.401	0.553
-543.266	-75.745	0.256	0.092
-542.252	-41.426	0.456	0.237
-541.237	-110.980	0.125	0.026
-540.223	-145.077	0.958	-0.088
-539.208	-27.175	0.823	0.484
-538.193	-108.817	0.401	0.087
-537.179	414.852	0.363	-0.780
-536.164	116.458	-0.472	-0.583
-535.150	-66.369	0.487	0.195
-534.135	-78.951	-0.337	-0.116
-533.121	179.728	-0.194	-0.286
-532.106	-8.743	-0.824	0.558
-531.091	316.375	-0.355	0.677
-530.077	800.000	0.059	0.227
-529.062	-200.000	0.026	-0.606
-528.048	-200.000	0.006	0.039
-527.033	-192.781	-0.458	-0.004
-526.018	42.722	-0.308	0.283
-525.004	250.631	0.505	-0.864
-523.989	120.072	0.340	-0.426
-522.975	-200.000	0.029	0.701
-521.960	-175.207	1.259	0.035
-520.945	204.586	-0.040	-0.062
-519.931	-14.423	0.475	-0.308
-518.916	-86.313	0.497	-0.154
-517.902	234.131	0.449	0.746
-516.887	318.964	0.298	-0.569
-515.872	800.000	-0.208	-0.714
-514.858	276.576	0.253	0.453
-513.843	749.251	-0.103	-0.281
-512.829	358.331	-0.233	0.470
-511.814	-92.332	-0.490	-0.139
-510.799	-47.148	0.193	-0.095
-509.785	-130.402	0.343	-0.047
-508.770	200.501	-0.162	0.252
-507.756	-39.438	-0.456	0.241
-506.741	-131.964	-0.748	-0.098
-505.726	195.648	0.300	0.460
-504.712	502.826	-0.178	0.414
-503.697	-97.294	-0.279	-0.073
-502.683	-85.858	0.368	0.115
-501.668	105.624	-0.258	0.307
-500.653	-200.000	0.022	0.758
-499.639	-5.386	-0.278	0.192
-498.624	800.000	-0.287	-0.906
-497.610	800.000	-0.252	-0.738
-496.595	18.845	-0.321	0.259
-495.581	403.926	-0.266	-0.564
-494.566	-64.767	0.343	-0.140
-493.551	44.300	0.492	-0.455
-492.537	-200.000	-0.089	1.013
-491.522	-5.787	-0.146	-0.101
-490.508	127.854	0.216	-0.276
-489.493	-7.988	0.238	0.162
-488.478	195.716	-0.217	-0.333
-487.464	-200.000	-0.026	0.143
-486.449	-97.039	-0.116	-0.030
-485.435	158.738	0.454	0.635
-484.420	-67.897	-0.156	0.061
-483.405	565.634	0.013	-0.031
-482.391	-2.921	-0.283	0.199
-481.376	-200.000	0.099	0.624
-480.362	-105.598	-0.282	0.064
-479.347	95.362	0.111	-0.127
-478.332	81.084	0.308	0.335
-477.318	-112.477	0.527	-0.106
-476.303	714.654	0.078	-0.208
-475.289	-124.288	0.921	-0.145
-474.274	-200.000	-0.105	-0.556
-473.259	-60.300	0.762	-0.326
-472.245	-72.996	-0.108	-0.040
-471.230	800.000	0.046	0.165
-470.216	144.540	-0.142	0.190
-469.201	66.476	-0.433	-0.443
-468.186	800.000	0.104	-0.316
-467.172	800.000	-0.084	0.287
-466.157	-200.000	0.062	-0.598
-465.143	-90.877	-0.499	-0.144
-464.128	-147.334	-0.586	0.050
-463.113	-200.000	-0.073	0.441
-462.099	217.429	-0.303	-0.485
-461.084	800.000	0.057	0.187
-460.070	472.175	-0.132	-0.299
-459.055	-93.793	-0.752	0.208
-458.040	800.000	-0.035	0.120
-457.026	382.803	-0.266	-0.551
-456.011	23.236	-0.220	0.182
-454.997	148.896	0.098	0.133
-453.982	-91.174	-0.861	0.248
-452.968	56.878	-0.267	-0.262
-451.953	285.763	-0.093	0.168
-450.938	-200.000	0.158	0.767
-449.924	379.018	-0.296	-0.610
-448.909	-41.723	-0.312	-0.161
-447.895	-76.189	-0.949	-0.337
-446.880	675.137	0.149	-0.390
-445.865	-124.770	-0.655	0.102
-444.851	800.000	0.266	-0.941
-443.836	41.631	-0.521	0.474
-442.822	800.000	0.131	-0.553
-441.807	56.339	-0.529	-0.517
-440.792	-200.000	0.031	1.055
-439.778	-200.000	-0.024	-0.538
-438.763	-200.000	-0.004	-0.092
-437.749	-156.081	0.707	0.045
-436.734	668.307	0.183	0.476
-435.719	-145.349	-0.181	0.016
-434.705	800.000	0.152	0.612
-433.690	60.760	0.401	0.399
-432.676	800.000	-0.134	0.385
-431.661	-200.000	0.045	0.437
-430.646	-11.588	0.032	0.021
-429.632	-200.000	-0.113	-0.655
-428.617	168.736	-0.169	-0.241
-427.603	-50.233	-0.320	0.152
-426.588	-103.418	1.094	0.259
-425.573	-106.487	0.297	0.067
-424.559	9.579	-0.171	0.130
-423.544	-111.416	-0.564	-0.115
-422.530	800.000	0.130	-0.389
-421.515	-114.337	0.600	-0.116
-420.500	800.000	-0.093	0.282
-419.486	-61.877	-1.164	-0.489
-418.471	-109.526	0.270	0.057
-417.457	-200.000	-0.685	-0.003
-416.442	210.803	-0.541	-0.854
-415.428	88.022	-0.060	0.067
-414.413	-139.243	0.896	0.097
-413.398	-121.440	0.783	0.131
-412.384	-200.000	-0.052	0.855
-411.369	228.318	0.438	0.717
-410.355	508.205	0.034	-0.080
-409.340	77.856	-0.317	0.339
-408.325	-44.845	0.611	0.306
-407.311	-19.437	0.211	0.131
-406.296	-68.436	-0.244	0.095
-405.282	148.289	0.274	0.371
-404.267	132.822	0.521	0.675
-403.252	-30.797	0.858	0.487
-402.238	-200.000	0.076	0.471
-401.223	-92.380	0.950	-0.268
-400.209	-1.369	-0.568	-0.402
-399.194	19.384	0.962	0.775
-398.179	104.665	0.166	-0.196
-397.165	800.000	-0.182	-0.572
-396.150	137.124	-0.282	0.370
-395.136	116.861	0.272	0.336
-394.121	-9.133	0.439	-0.294
-393.106	-97.131	-0.913	0.239
-392.092	-98.138	1.013	0.261
-391.077	-91.319	0.707	0.203
-390.063	127.858	0.344	-0.439
-389.048	-101.283	-0.626	-0.153
-388.033	-200.000	0.021	0.303
-387.019	-128.905	-0.156	0.022
-386.004	-17.163	-0.265	0.167
-384.990	97.073	0.379	0.436
-383.975	-200.000	-0.066	-0.647
-382.960	-137.421	-0.576	-0.065
-381.946	-89.693	-0.319	-0.094
-380.931	2.736	-0.502	0.365
-379.917	112.395	-0.175	0.212
-378.902	-98.887	0.487	0.124
-377.888	-57.873	0.446	0.195
-376.873	800.000	-0.369	1.125
-375.858	-200.000	-0.001	-0.177
-374.844	524.837	-0.222	-0.524
-373.829	107.437	-0.590	-0.703
-372.815	19.271	-0.578	0.465
-371.800	3.694	-0.426	-0.312
-370.785	-43.025	-0.365	-0.186
-369.771	157.063	-0.582	-0.807
-368.756	156.618	0.388	-0.537
-367.742	800.000	0.371	-1.348
-366.727	247.252	-0.120	-0.203
-365.712	800.000	-0.142	0.542
-364.698	184.109	-0.355	0.527
-363.683	121.332	-0.198	-0.247
-362.669	-74.727	0.618	0.223
-361.654	165.578	-0.241	-0.341
-360.639	-200.000	0.017	-0.421
-359.625	800.000	0.044	0.187
-358.610	-110.000	-0.527	-0.110
-357.596	-116.211	-0.323	-0.060
-356.581	-155.691	0.498	0.032
-355.566	-64.775	1.189	-0.482
-354.552	-200.000	-0.076	-0.779
-353.537	-132.798	0.297	-0.038
-352.523	39.936	-0.401	-0.361
-351.508	32.182	-0.459	0.397
-350.493	473.458	0.453	1.022
-349.479	-200.000	0.100	1.357
-348.464	-52.988	-0.870	0.401
-347.450	-200.000	-0.014	-0.381
-346.435	-200.000	0.138	0.668
-345.420	-134.833	-0.794	0.096
-344.406	800.000	-0.221	-0.892
-343.391	800.000	0.271	-0.848
-342.377	39.505	0.215	0.193
-341.362	-65.913	-0.904	-0.362
-340.348	192.260	-0.114	-0.172
-339.333	-200.000	-0.201	0.984
-338.318	-4.000	0.609	0.423
-337.304	800.000	0.075	-0.236
-336.289	-15.800	0.697	0.445
-335.275	602.128	0.199	-0.494
-334.260	60.855	0.197	0.196
-333.245	-63.950	-0.290	-0.119
-332.231	511.141	0.275	0.641
-331.216	-200.000	-0.011	0.169
-330.202	73.093	0.176	-0.184
-329.187	141.712	-0.118	0.156
-328.172	63.498	0.742	0.745
-327.158	-122.296	-0.394	0.064
-326.143	800.000	-0.160	-0.473
-325.129	3.726	0.390	-0.285
-324.114	4.411	-0.123	-0.090
-323.099	172.248	-0.354	0.509
-322.085	-91.668	0.527	0.150
-321.070	800.000	0.082	0.320
-320.056	737.983	0.075	0.202
-319.041	800.000	-0.123	0.515
-318.026	-200.000	0.047	-0.392
-317.012	-16.007	1.390	0.884
-315.997	-200.000	-0.006	0.174
-314.983	133.144	0.222	-0.287
-313.968	-200.000	0.005	1.810
-312.953	-3.900	0.348	-0.241
-311.939	-159.339	0.566	-0.032
-310.924	-196.579	-0.451	-0.003
-309.910	-200.000	-0.112	0.544
-308.895	-159.419	-0.318	-0.018
-307.880	-200.000	0.025	-0.215
-306.866	184.156	-0.337	0.499
-305.851	-20.535	0.500	0.307
-304.837	-105.810	0.787	-0.178
-303.822	-56.234	-1.015	0.451
-302.807	-200.000	-0.071	1.006
-301.793	800.000	0.283	0.974
-300.778	-200.000	-0.038	-0.572
-299.764	431.857	0.087	0.189
-298.749	-62.561	0.394	0.164
-297.735	78.642	-0.064	0.069
-296.720	16.798	-0.433	-0.342
-295.705	-102.412	0.534	0.128
-294.691	261.605	0.256	0.443
-293.676	800.000	0.140	0.557
-292.662	-101.374	-0.159	0.039
-291.647	-5.924	0.511	0.349
-290.632	428.721	-0.420	-0.906
-289.618	101.095	-0.511	0.594
-288.603	324.879	-0.133	-0.253
-287.589	-58.646	-0.390	-0.169
-286.574	-55.821	-0.552	0.246
-285.559	112.141	-0.446	0.539
-284.545	570.821	-0.071	0.173
-283.530	-2.863	0.341	0.238
-282.516	-200.000	0.197	-1.018
-281.501	-67.732	0.304	-0.119
-280.486	306.394	0.165	0.306
-279.472	-200.000	-0.081	0.377
-278.457	301.168	0.218	-0.402
-277.443	-159.396	-0.340	-0.019
-276.428	345.281	0.143	0.280
-275.413	800.000	0.056	-0.197
-274.399	-200.000	-0.089	0.421
-273.384	109.720	-0.348	0.416
-272.370	112.955	-0.483	-0.585
-271.355	-15.210	-0.314	0.201
-270.340	303.801	0.136	-0.253
-269.326	-86.472	-0.325	-0.099
-268.311	800.000	-0.232	0.732
-267.297	-68.559	0.124	0.048
-266.282	13.674	0.474	-0.368
-265.267	800.000	-0.146	0.425
-264.253	-129.284	0.498	0.069
-263.238	-64.975	0.610	-0.246
-262.224	4.098	0.062	-0.045
-261.209	212.343	0.191	0.301
-260.195	458.031	-0.118	0.261
-259.180	-81.642	0.945	-0.310
-258.165	-71.471	0.211	0.079
-257.151	-200.000	0.092	1.175
-256.136	800.000	0.247	0.962
-255.122	-19.849	0.365	-0.225
-254.107	-200.000	-0.161	-0.807
-253.092	91.670	-0.243	0.273
-252.078	181.252	-0.285	-0.418
-251.063	-164.546	0.468	-0.021
-250.049	800.000	0.321	-1.094
-249.034	-3.577	0.650	-0.451
-248.019	-30.433	0.300	-0.170
-247.005	777.035	-0.186	0.507
-245.990	-74.974	-0.248	0.089
-244.976	36.345	0.291	-0.256
-243.961	-200.000	0.016	0.625
-242.946	800.000	0.153	-0.558
-241.932	25.683	-0.114	-0.094
-240.917	-200.000	-0.114	0.603
-239.903	-200.000	-0.219	-1.164
-238.888	33.541	0.195	-0.169
-237.873	-200.000	0.006	0.252
-236.859	99.426	-0.070	-0.081
-235.844	-29.133	-0.491	-0.281
-234.830	-200.000	-0.023	0.192
-233.815	-3.036	0.677	0.471
-232.800	-2.408	-0.399	-0.279
-231.786	-18.757	0.567	-0.352
-230.771	-187.944	-0.677	0.009
-229.757	87.218	0.544	-0.599
-228.742	-144.992	0.425	0.039
-227.727	800.000	0.042	0.138
-226.713	8.918	0.021	0.016
-225.698	800.000	-0.169	-0.517
-224.684	-200.000	-0.013	-0.899
-223.669	546.491	0.140	0.334
-222.655	-200.000	0.155	-1.243
-221.640	328.901	-0.211	-0.404
-220.625	391.647	0.093	-0.194
-219.611	-105.037	0.463	0.106
-218.596	150.818	0.157	0.213
-217.582	-146.663	-0.083	0.007
-216.567	22.639	0.291	0.237
-215.552	800.000	0.148	-0.475
-214.538	-145.508	-0.374	-0.033
-213.523	800.000	0.159	-0.684
-212.509	800.000	0.222	-0.682
-211.494	-100.642	-0.462	-0.113
-210.479	138.844	0.197	-0.258
-209.465	-200.000	-0.124	-0.681
-208.450	-139.919	0.365	-0.038
-207.436	411.210	-0.435	0.919
-206.421	-200.000	0.007	0.946
-205.406	-177.752	-0.492	0.012
-204.392	800.000	0.263	-0.886
-203.377	-98.417	0.482	0.123
-202.363	-200.000	0.120	-0.680
-201.348	-200.000	-0.040	-0.229
-200.333	58.136	0.604	-0.589
-199.319	-86.518	-0.496	-0.151
-198.304	1.120	-0.226	-0.161
-197.290	-79.250	-1.357	0.458
-196.275	-200.000	-0.026	0.172
-195.260	529.717	-0.217	0.510
-194.246	-149.557	0.173	-0.014
-193.231	-200.000	-0.075	-0.354
-192.217	-134.491	0.218	-0.027
-191.202	-200.000	-0.058	-0.359
-190.187	724.297	-0.032	0.084
-189.173	-200.000	0.111	0.577
-188.158	-200.000	0.016	0.287
-187.144	38.261	-0.376	-0.333
-186.129	-0.931	0.223	-0.157
-185.114	45.768	0.812	0.747
-184.100	-10.851	0.293	0.193
-183.085	-113.768	0.717	-0.139
-182.071	-90.911	-0.356	0.102
-181.056	-85.841	0.270	-0.083
-180.042	143.033	-0.350	0.463
-179.027	108.573	-0.779	0.925
-178.012	35.732	0.455	0.398
-176.998	486.566	0.503	1.141
-175.983	20.911	0.334	0.270
-174.969	384.800	-0.440	-0.902
-173.954	-11.830	-0.517	0.337
-172.939	-142.571	0.510	0.050
-171.925	350.555	0.247	-0.485
-170.910	800.000	0.242	-0.675
-169.896	341.301	-0.279	-0.541
-168.881	-79.409	0.212	0.071
-167.866	800.000	0.264	-0.785
-166.852	-200.000	-0.114	1.622
-165.837	-183.007	-0.452	-0.008
-164.823	86.225	-0.232	0.255
-163.808	-145.465	-0.399	-0.036
-162.793	14.216	-0.690	-0.534
-161.779	-138.170	-0.310	0.034
-160.764	198.080	-0.058	-0.089
-159.750	783.947	0.250	0.681
-158.735	-118.374	0.783	0.138
-157.720	-10.859	-0.324	-0.213
-156.706	-78.458	-0.342	0.117
-155.691	75.182	0.329	0.345
-154.677	800.000	-0.149	0.625
-153.662	276.478	-0.206	0.364
-152.647	-147.776	0.271	0.023
-151.633	-200.000	0.040	-0.269
-150.618	338.794	0.171	0.331
-149.604	-88.857	0.839	0.247
-148.589	-13.687	0.182	0.117
-147.574	800.000	-0.140	-0.422
-146.560	-200.000	-0.026	0.440
-145.545	160.844	-0.417	0.579
-144.531	-57.670	-0.234	-0.102
-143.516	-45.982	0.286	-0.140
-142.502	100.099	0.237	-0.273
-141.487	-65.327	-0.552	0.221
-140.472	-184.822	0.275	0.004
-139.458	-50.281	0.431	-0.203
-138.443	-200.000	0.002	0.433
-137.429	171.001	0.197	0.280
-136.414	-59.711	1.171	0.498
-135.399	117.857	0.398	0.487
-134.385	800.000	-0.117	0.329
-133.370	688.673	0.649	-1.685
-132.356	-181.433	-0.631	0.012
-131.341	-200.000	-0.131	-1.052
-130.326	-81.910	-0.458	-0.149
-129.312	79.873	-0.639	-0.681
-128.297	-200.000	0.047	-0.314
-127.283	-144.006	-0.625	0.058
-126.268	-200.000	-0.004	-0.778
-125.253	26.405	-0.674	0.559
-124.239	-56.028	0.812	0.359
-123.224	-200.000	-0.030	0.417
-122.210	109.424	0.339	0.403
-121.195	-9.275	-0.274	0.182
-120.180	306.965	-0.193	-0.357
-119.166	-118.323	-1.216	0.214
-118.151	-11.507	0.587	-0.383
-117.137	23.518	0.517	-0.422
-116.122	800.000	0.135	0.411
-115.107	49.393	-0.866	-0.808
-114.093	-14.790	-0.273	0.174
-113.078	-200.000	0.018	0.603
-112.064	-73.660	0.878	-0.317
-111.049	-200.000	0.015	0.432
-110.034	-200.000	-0.093	-0.654
-109.020	-14.664	-0.368	-0.234
-108.005	45.726	0.605	-0.555
-106.991	-43.584	0.595	-0.298
-105.976	-200.000	0.143	-0.794
-104.962	-126.388	0.166	0.024
-103.947	-128.118	0.678	0.096
-102.932	249.090	-0.157	-0.264
-101.918	762.017	-0.082	-0.220
-100.903	110.099	-0.139	-0.166
-99.889	-56.169	0.377	-0.167
-98.874	-88.674	-0.410	-0.121
-97.859	-80.566	-0.766	0.253
-96.845	-33.149	0.488	-0.268
-95.830	99.009	0.308	-0.352
-94.816	-200.000	0.118	-0.923
-93.801	80.013	-0.166	0.177
-92.786	-23.835	0.719	-0.427
-91.772	228.079	-0.335	0.541
-90.757	-84.455	0.238	-0.075
-89.743	-200.000	0.061	-0.642
-88.728	-139.479	0.497	-0.053
-87.713	-200.000	-0.152	0.907
-86.699	142.779	0.558	-0.735
-85.684	800.000	-0.159	-0.446
-84.670	-183.678	0.114	0.002
-83.655	-200.000	-0.003	-0.016
-82.640	800.000	-0.083	0.269
-81.626	800.000	0.227	0.647
-80.611	-200.000	-0.001	-0.014
-79.597	-74.750	-0.362	0.129
-78.582	107.132	0.126	-0.148
-77.567	-200.000	0.037	0.295
-76.553	-151.494	0.696	-0.051
-75.538	-14.920	0.580	0.369
-74.524	571.670	0.158	0.381
-73.509	-200.000	-0.001	0.298
-72.494	-200.000	-0.115	0.745
-71.480	-53.753	0.632	0.286
-70.465	-33.750	-0.286	0.156
-69.451	99.916	-0.156	0.179
-68.436	8.096	0.368	-0.274
-67.422	-200.000	-0.043	0.518
-66.407	-50.422	-0.130	-0.061
-65.392	800.000	-0.089	-0.344
-64.378	-52.445	-0.315	-0.144
-63.363	-200.000	-0.008	-0.503
-62.349	-38.801	0.500	0.261
-61.334	-153.994	-0.433	-0.029
-60.319	218.331	0.382	0.604
-59.305	800.000	0.330	-1.015
-58.290	95.870	0.760	0.859
-57.276	-200.000	0.291	1.686
-56.261	-200.000	96.076	573.081
-55.246	635.026	1368.063	3436.268
-54.232	196.587	2544.615	3837.968
-53.217	108.282	2286.879	2700.811
-52.203	39.811	2047.869	1819.386
-51.188	34.907	1962.524	1700.039
-50.173	33.437	1944.984	1671.816
-49.159	49.105	1996.863	1856.862
-48.144	49.611	2016.103	1879.204
-47.130	35.516	1976.659	1717.458
-46.115	33.215	1965.800	1687.455
-45.100	33.033	1963.181	1683.525
-44.086	33.227	1960.110	1682.547
-43.071	33.026	1957.112	1678.124
-42.057	33.085	1955.757	1677.420
-41.042	33.061	1954.611	1676.151
-40.027	33.053	1952.607	1674.296
-39.013	33.276	1949.148	1673.235
-37.998	33.019	1948.565	1670.404
-36.984	32.995	1947.788	1669.453
-35.969	33.115	1944.737	1667.829
-34.954	33.161	1942.717	1666.443
-33.940	32.980	1943.258	1665.243
-32.925	33.237	1939.811	1664.484
-31.911	33.258	1938.318	1663.325
-30.896	33.205	1936.687	1661.386
-29.881	33.207	1935.863	1660.639
-28.867	33.237	1933.902	1659.154
-27.852	33.381	1931.813	1658.552
-26.838	33.062	1930.151	1654.266
-25.823	33.232	1928.092	1653.927
-24.809	33.256	1926.539	1652.739
-23.794	33.207	1925.379	1651.252
-22.779	33.241	1923.652	1649.999
-21.765	33.240	1921.309	1647.912
-20.750	33.181	1920.563	1646.696
-19.736	33.267	1918.569	1645.665
-18.721	33.071	1917.039	1642.584
-17.706	33.174	1915.828	1642.380
-16.692	33.170	1913.700	1640.458
-15.677	33.305	1911.691	1639.839
-14.663	33.238	1909.487	1637.299
-13.648	33.390	1908.293	1637.528
-12.633	33.275	1908.798	1636.898
-11.619	33.078	1907.490	1634.008
-10.604	33.150	1906.724	1633.914
-9.590	33.205	1904.805	1632.681
-8.575	33.240	1903.086	1631.437
-7.560	33.111	1902.343	1629.627
-6.546	33.311	1901.510	1630.576
-5.531	33.135	1900.044	1627.734
-4.517	33.229	1898.426	1627.090
-3.502	33.093	1897.098	1624.718
-2.487	33.126	1895.438	1623.515
-1.473	33.231	1894.234	1623.321
-0.458	33.203	1891.316	1620.520
0.556	34.068	1870.698	1591.000
1.571	29.757	1851.054	1538.383
2.586	25.705	1872.418	1521.821
3.600	24.567	1907.322	1540.241
4.615	23.996	1901.052	1530.138
5.629	18.174	1801.627	1402.387
6.644	8.452	1682.486	1234.748
7.659	3.464	1643.863	1168.570
8.673	2.933	1640.861	1162.312
9.688	2.979	1640.046	1161.983
10.702	2.901	1638.669	1160.314
11.717	2.946	1634.091	1157.310
12.731	3.515	1633.455	1161.035
13.746	10.025	1650.280	1222.268
14.761	19.942	1672.188	1314.028
15.775	24.865	1679.569	1357.143
16.790	25.587	1680.451	1363.210
17.804	25.644	1679.947	1363.112
18.819	25.682	1679.457	1362.884
19.834	26.069	1678.153	1364.629
20.848	26.110	1678.013	1364.704
21.863	26.147	1677.503	1364.449
22.877	26.128	1676.514	1363.385
23.892	26.161	1675.921	1363.030
24.907	26.172	1674.471	1361.809
25.921	26.010	1674.211	1360.255
26.936	26.225	1671.373	1359.447
27.950	26.230	1672.055	1359.918
28.965	25.900	1672.316	1357.531
29.980	26.162	1670.103	1357.584
30.994	26.263	1669.279	1357.549
32.009	26.168	1668.293	1355.916
33.023	26.032	1667.387	1354.041
34.038	26.064	1666.669	1353.574
35.053	25.962	1665.208	1351.508
36.067	26.096	1664.743	1352.010
37.082	26.069	1663.767	1350.895
38.096	26.101	1662.770	1350.207
39.111	26.064	1662.769	1349.812
40.126	26.090	1661.112	1348.541
41.140	25.867	1660.146	1345.973
42.155	26.177	1658.720	1347.009
43.169	25.933	1658.143	1344.600
44.184	26.391	1655.330	1345.608
45.199	26.200	1655.459	1344.173
46.213	26.257	1653.570	1342.946
47.228	26.221	1652.964	1342.065
48.242	26.301	1651.926	1341.702
49.257	26.194	1651.318	1340.294
50.271	26.332	1648.696	1339.070
51.286	26.151	1648.090	1337.121
52.301	26.238	1646.505	1336.359
53.315	26.336	1644.446	1335.289
54.330	26.309	1642.788	1333.627
55.344	26.190	1642.844	1332.677
56.359	26.151	1642.206	1331.753
57.374	26.423	1640.023	1331.868
58.388	26.317	1639.125	1330.241
59.403	26.449	1637.199	1329.531
60.417	26.405	1636.699	1328.686
61.432	26.301	1636.481	1327.625
62.447	26.424	1634.924	1327.151
63.461	26.320	1633.145	1324.828
64.476	26.437	1632.184	1324.781
65.490	26.291	1631.788	1323.275
66.505	26.389	1630.147	1322.548
67.520	26.348	1629.054	1321.241
68.534	26.239	1628.672	1320.019
69.549	26.209	1626.912	1318.256
70.563	26.431	1625.348	1318.495
71.578	26.436	1625.028	1318.149
72.593	26.349	1624.563	1317.024
73.607	26.098	1624.978	1315.415
74.622	26.249	1622.420	1314.326
75.636	26.182	1621.583	1313.049
76.651	26.239	1620.659	1312.597
77.666	26.358	1620.627	1313.317
78.680	26.319	1617.538	1310.416
79.695	26.418	1617.565	1311.041
80.709	26.267	1617.292	1309.610
81.724	26.355	1616.057	1309.129
82.739	26.412	1615.176	1308.711
83.753	26.661	1613.626	1309.141
84.768	26.307	1613.130	1306.065
85.782	26.441	1611.412	1305.523
86.797	26.400	1610.598	1304.453
87.812	26.238	1610.207	1302.852
88.826	26.512	1608.328	1303.192
89.841	26.492	1607.374	1302.156
90.855	26.397	1607.370	1301.358
91.870	26.489	1605.370	1300.284
92.884	26.682	1604.135	1300.557
93.899	26.648	1603.108	1299.365
94.914	26.344	1602.940	1296.927
95.928	26.642	1600.160	1296.700
96.943	26.501	1599.388	1294.949
97.957	26.545	1598.367	1294.326
98.972	26.458	1597.739	1293.078
99.987	26.620	1596.003	1292.718
101.001	26.593	1593.740	1290.579
102.016	26.640	1593.206	1290.368
103.030	26.617	1590.636	1288.009
104.045	26.581	1590.415	1287.458
105.060	26.612	1588.172	1285.750
106.074	26.588	1586.752	1284.315
107.089	26.485	1586.204	1283.028
108.103	26.588	1584.959	1282.633
109.118	26.748	1583.801	1282.716
110.133	26.493	1583.476	1280.537
111.147	26.574	1582.384	1280.112
112.162	26.513	1580.486	1278.032
113.176	26.480	1579.738	1277.085
114.191	26.547	1578.481	1276.422
115.206	26.553	1576.587	1274.824
116.220	26.815	1574.872	1275.168
117.235	26.513	1574.149	1272.348
118.249	26.576	1573.863	1272.444
119.264	26.629	1571.586	1270.866
120.279	26.774	1570.405	1270.809
121.293	26.808	1568.787	1269.629
122.308	26.752	1568.719	1269.068
123.322	26.886	1566.063	1267.746
124.337	26.773	1565.017	1265.996
125.352	26.725	1564.469	1265.109
126.366	26.748	1563.664	1264.505
127.381	26.939	1562.042	1264.414
128.395	26.754	1562.256	1263.183
129.410	26.503	1562.190	1261.271
130.424	26.832	1559.570	1261.331
131.439	26.889	1557.449	1259.898
132.454	26.931	1556.719	1259.487
133.468	26.721	1555.268	1256.751
134.483	26.875	1553.174	1256.009
135.497	26.638	1552.559	1253.761
136.512	26.886	1551.354	1254.393
137.527	26.721	1550.012	1252.055
138.541	26.820	1548.873	1251.711
139.556	26.720	1549.067	1251.062
140.570	26.694	1547.836	1249.783
141.585	26.830	1546.378	1249.433
142.600	26.816	1543.720	1247.073
143.614	26.732	1543.849	1246.492
144.629	26.809	1542.644	1245.936
145.643	26.941	1540.548	1245.040
146.658	26.979	1538.398	1243.455
147.673	26.840	1538.282	1242.298
148.687	26.811	1536.903	1240.873
149.702	26.857	1535.653	1240.067
150.716	26.714	1536.161	1239.389
151.731	26.814	1534.582	1238.690
152.746	26.807	1532.670	1236.990
153.760	27.056	1531.268	1237.447
154.775	27.044	1529.528	1235.852
155.789	26.867	1530.186	1235.067
156.804	26.783	1528.657	1233.151
157.819	26.926	1527.868	1233.381
158.833	26.911	1526.747	1232.264
159.848	26.959	1525.834	1231.745
160.862	26.868	1524.466	1229.914
161.877	26.827	1524.362	1229.441
162.892	27.023	1522.921	1229.498
163.906	27.115	1521.229	1228.645
164.921	26.897	1520.934	1226.824
165.935	26.872	1520.316	1226.049
166.950	26.976	1518.909	1225.507
167.964	26.982	1518.239	1224.896
168.979	26.965	1518.019	1224.500
169.994	26.921	1517.311	1223.522
171.008	26.818	1516.115	1221.757
172.023	27.121	1513.929	1221.924
173.037	27.068	1513.344	1220.991
174.052	27.000	1512.057	1219.383
175.067	27.131	1510.855	1219.184
176.081	27.143	1509.780	1218.293
177.096	27.031	1509.055	1216.848
178.110	27.111	1507.655	1216.149
179.125	27.149	1507.027	1215.789
180.140	27.003	1506.777	1214.499
181.154	27.073	1505.469	1213.808
182.169	27.202	1504.861	1214.069
183.183	27.198	1503.499	1212.840
184.198	26.880	1503.604	1210.695
185.213	27.010	1502.265	1210.378
186.227	27.182	1501.071	1210.452
187.242	27.215	1501.077	1210.569
188.256	27.075	1499.393	1208.176
189.271	27.188	1498.653	1208.223
190.286	27.216	1498.235	1207.963
191.300	27.322	1495.591	1206.428
192.315	27.252	1496.118	1206.284
193.329	27.319	1495.303	1205.964
194.344	27.258	1494.200	1204.559
195.359	27.084	1494.480	1203.528
196.373	27.114	1492.221	1201.803
197.388	27.230	1491.243	1201.676
198.402	27.023	1491.104	1200.087
199.417	27.144	1490.018	1199.903
200.432	27.108	1489.866	1199.437
201.446	27.044	1489.047	1198.249
202.461	27.151	1487.598	1197.682
203.475	27.060	1487.169	1196.635
204.490	27.023	1485.790	1195.173
205.504	26.978	1485.511	1194.546
206.519	27.096	1483.485	1193.589
207.534	27.264	1482.804	1194.040
208.548	27.108	1482.777	1192.888
209.563	27.323	1481.792	1193.401
210.577	27.189	1480.561	1191.421
211.592	27.241	1479.204	1190.566
212.607	27.198	1478.772	1189.834
213.621	27.287	1477.631	1189.392
214.636	27.287	1477.463	1189.153
215.650	26.958	1476.987	1186.510
216.665	27.188	1476.964	1187.892
217.680	27.202	1474.745	1186.096
218.694	27.256	1474.760	1186.351
219.709	27.410	1473.787	1186.472
220.723	27.309	1471.821	1184.126
221.738	27.335	1471.725	1184.113
222.753	27.570	1470.135	1184.251
223.767	27.088	1470.463	1181.279
224.782	27.289	1468.706	1181.072
225.796	27.519	1468.030	1181.916
226.811	27.230	1468.458	1180.278
227.826	27.500	1466.301	1180.192
228.840	27.236	1467.358	1179.225
229.855	27.133	1466.319	1177.617
230.869	27.355	1465.130	1177.994
231.884	27.264	1463.701	1176.153
232.899	27.426	1462.122	1175.830
233.913	27.159	1461.690	1173.654
234.928	27.219	1460.731	1173.165
235.942	27.382	1459.144	1172.834
236.957	27.387	1459.300	1172.891
237.972	27.484	1457.501	1171.969
238.986	27.415	1456.489	1170.608
240.001	27.465	1455.667	1170.164
241.015	27.541	1454.074	1169.267
242.030	27.513	1453.379	1168.426
243.045	27.501	1452.867	1167.829
244.059	27.477	1452.025	1166.894
245.074	27.600	1450.803	1166.600
246.088	27.425	1450.646	1165.247
247.103	27.467	1450.245	1165.096
248.117	27.459	1449.103	1164.023
249.132	27.578	1448.397	1164.108
250.147	27.268	1448.208	1161.877
251.161	27.525	1446.315	1161.892
252.176	27.577	1446.113	1161.960
253.190	27.686	1444.716	1161.432
254.205	27.428	1444.349	1159.389
255.220	27.388	1444.260	1158.964
256.234	27.493	1443.577	1158.980
257.249	27.513	1442.261	1157.946
258.263	27.432	1440.990	1156.310
259.278	27.392	1440.937	1155.909
260.293	27.571	1440.117	1156.282
261.307	27.636	1438.969	1155.676
262.322	27.204	1439.010	1152.869
263.336	27.699	1436.987	1154.280
264.351	27.717	1436.726	1154.080
265.366	27.612	1435.263	1152.138
266.380	27.507	1435.476	1151.541
267.395	27.475	1433.485	1149.639
268.409	27.739	1433.125	1150.915
269.424	27.502	1431.974	1148.398
270.439	27.510	1431.925	1148.305
271.453	27.483	1430.594	1146.969
272.468	27.549	1430.626	1147.310
273.482	27.451	1428.613	1144.973
274.497	27.253	1428.191	1143.294
275.512	27.433	1427.149	1143.487
276.526	27.596	1426.578	1143.953
277.541	27.622	1426.288	1143.783
278.555	27.774	1424.578	1143.261
279.570	27.524	1424.192	1141.280
280.585	27.955	1422.864	1142.817
281.599	27.736	1422.195	1140.807
282.614	27.768	1420.638	1139.654
283.628	27.738	1420.127	1138.956
284.643	27.565	1419.773	1137.496
285.657	27.734	1418.296	1137.261
286.672	27.688	1417.529	1136.259
287.687	27.591	1416.461	1134.702
288.701	27.542	1415.823	1133.786
289.716	27.869	1415.532	1135.487
290.730	27.817	1414.901	1134.554
291.745	27.434	1414.594	1131.831
292.760	27.775	1412.820	1132.422
293.774	27.712	1411.982	1131.261
294.789	27.469	1412.422	1130.009
295.803	27.638	1410.161	1129.148
296.818	27.845	1409.710	1129.964
297.833	27.607	1408.742	1127.619
298.847	27.649	1408.394	1127.497
299.862	27.596	1407.331	1126.223
300.876	27.911	1405.042	1126.230
301.891	27.413	1406.377	1124.126
302.906	27.455	1405.685	1123.732
303.920	27.665	1405.368	1124.675
304.935	27.711	1404.298	1124.004
305.949	27.557	1403.270	1122.135
306.964	27.731	1402.114	1122.178
307.979	27.636	1401.380	1120.912
308.993	27.541	1400.793	1119.759
310.008	27.544	1400.439	1119.396
311.022	27.710	1397.717	1118.137
312.037	27.688	1397.485	1117.716
313.052	27.767	1396.955	1117.676
314.066	27.764	1395.439	1116.348
315.081	27.873	1394.241	1115.960
316.095	27.553	1394.719	1114.285
317.110	27.706	1393.491	1114.139
318.125	27.817	1392.307	1113.772
319.139	27.888	1390.926	1113.002
320.154	27.712	1390.852	1111.772
321.168	27.507	1389.927	1109.686
322.183	27.683	1388.139	1109.232
323.197	27.760	1387.594	1109.165
324.212	27.619	1387.611	1108.225
325.227	27.656	1386.928	1107.804
326.241	27.670	1385.651	1106.773
327.256	27.818	1385.379	1107.355
328.270	27.608	1385.165	1105.809
329.285	27.877	1382.730	1105.399
330.300	27.690	1382.992	1104.375
331.314	27.736	1381.824	1103.627
332.329	27.747	1380.616	1102.627
333.343	27.780	1380.356	1102.522
334.358	27.824	1378.111	1100.899
335.373	27.619	1379.143	1100.386
336.387	27.943	1377.449	1100.891
337.402	27.945	1377.364	1100.737
338.416	27.974	1376.244	1099.920
339.431	27.748	1375.721	1098.043
340.446	27.717	1375.505	1097.586
341.460	27.553	1374.536	1095.731
342.475	27.906	1373.833	1097.197
343.489	27.797	1373.119	1095.873
344.504	27.750	1371.945	1094.561
345.519	27.800	1370.698	1093.765
346.533	27.599	1369.899	1091.827
347.548	27.914	1368.647	1092.619
348.562	27.758	1367.994	1091.066
349.577	28.023	1366.726	1091.543
350.592	27.760	1367.526	1090.510
351.606	27.651	1366.680	1089.091
352.621	27.849	1364.512	1088.445
353.635	27.979	1364.019	1088.731
354.650	27.950	1362.796	1087.487
355.665	27.912	1361.769	1086.346
356.679	27.523	1361.619	1083.815
357.694	27.917	1360.866	1085.463
358.708	27.675	1359.236	1082.627
359.723	27.989	1357.752	1083.211
360.738	27.886	1356.315	1081.361
361.752	27.941	1355.322	1080.797
362.767	27.812	1355.183	1079.833
363.781	27.670	1354.614	1078.444
364.796	27.668	1353.707	1077.612
365.810	27.881	1352.628	1077.912
366.825	27.596	1352.706	1076.202
367.840	28.072	1350.247	1076.953
368.854	27.633	1350.879	1074.771
369.869	27.776	1350.506	1075.226
370.883	27.857	1349.127	1074.509
371.898	27.850	1347.482	1073.064
372.913	27.573	1348.242	1071.940
373.927	27.647	1347.244	1071.490
374.942	27.773	1346.434	1071.491
375.956	27.548	1345.703	1069.494
376.971	27.791	1344.332	1069.734
377.986	27.758	1344.526	1069.602
379.000	27.839	1342.750	1068.567
380.015	27.662	1342.509	1067.242
381.029	27.610	1342.753	1067.042
382.044	27.835	1341.559	1067.313
383.059	27.705	1341.036	1066.042
384.073	27.910	1340.260	1066.530
385.088	27.775	1340.537	1065.866
386.102	27.662	1339.418	1064.224
387.117	27.744	1337.326	1062.944
388.132	27.695	1337.111	1062.393
389.146	27.770	1335.492	1061.448
390.161	27.800	1334.635	1060.850
391.175	27.997	1333.643	1061.109
392.190	27.745	1333.601	1059.522
393.205	27.671	1334.467	1059.683
394.219	27.952	1332.773	1059.872
395.234	27.914	1331.388	1058.459
396.248	27.575	1330.586	1055.767
397.263	27.803	1329.298	1055.967
398.278	27.864	1327.669	1054.933
399.292	27.920	1326.075	1053.896
400.307	27.812	1325.819	1052.977
401.321	27.839	1326.169	1053.318
402.336	27.726	1324.917	1051.576
403.350	27.792	1322.974	1050.322
404.365	27.918	1322.030	1050.207
405.380	27.668	1321.530	1048.277
406.394	27.803	1320.830	1048.408
407.409	27.581	1320.644	1046.889
408.423	27.804	1318.683	1046.523
409.438	27.753	1318.060	1045.645
410.453	27.736	1317.658	1045.132
411.467	27.808	1317.207	1045.096
412.482	27.703	1317.154	1044.357
413.496	27.815	1315.048	1043.241
414.511	27.643	1314.866	1042.019
415.526	27.519	1314.568	1040.981
416.540	27.643	1313.488	1040.741
417.555	27.529	1313.924	1040.344
418.569	27.603	1312.904	1039.867
419.584	27.817	1312.155	1040.404
420.599	27.650	1311.319	1038.694
421.613	142.215	1435.370	1791.892
422.628	137.949	1453.416	1791.911
