DTS Sentinel unit serial number:	SN413079Multiplexer serial number:	ORYXHardware model number:	OX4-SRSoftware version number:	ORYX F/W v4.00 Oryx Data Collector v3.7.2.0data status	okinstallation	princeton_trtdifferential loss correction	single-endedforward channel	channel 4reverse channel	N/Adate	2019/09/13time	14:45:35forward acquisition time	60.00reverse acquisition time	0.00gamma	496.2192k internal	0.2294k external	0.2294temperature offset calibration	1.0206default loss term (dB/km)	0.3790temperature slope calibration	1.0000multiplexer offset coefficient	1.0000multiplexer slope coefficient	1.0000fibre end	0.00T internal ref (°C)	35.50T ext. ref 1 (°C)	4.68T ext. ref 2 (°C)	32.42length (m)	temperature (°C)	Stokes	anti-Stokes-747.200	-57.586	-0.077	0.034
-746.185	-20.981	-0.238	0.149
-745.171	-99.729	-0.234	-0.060
-744.156	-125.412	-0.406	-0.063
-743.142	40.673	-0.132	-0.122
-742.127	-10.388	0.239	-0.162
-741.112	-34.240	-0.105	-0.059
-740.098	-195.568	0.107	-0.001
-739.083	12.679	0.271	-0.214
-738.069	89.322	0.076	0.086
-737.054	16.493	-0.269	-0.217
-736.039	494.093	-0.118	-0.276
-735.025	-49.787	0.317	0.154
-734.010	18.235	-0.301	-0.246
-732.996	-72.516	-0.315	-0.119
-731.981	457.022	0.032	-0.072
-730.966	23.132	-0.253	0.213
-729.952	14.655	0.333	0.266
-728.937	-86.721	0.276	0.086
-727.923	-122.059	-0.357	0.060
-726.908	-70.143	-0.302	-0.117
-725.894	-114.164	-0.265	0.052
-724.879	-127.206	-0.201	-0.030
-723.864	546.305	-0.142	-0.348
-722.850	226.148	-0.118	0.195
-721.835	800.000	-0.083	0.357
-720.821	-149.213	-0.261	0.021
-719.806	-120.055	-0.299	-0.052
-718.791	45.487	0.107	0.101
-717.777	-200.000	-0.036	0.189
-716.762	714.179	0.071	-0.192
-715.748	-83.840	-0.246	-0.080
-714.733	23.648	-0.087	-0.074
-713.718	-160.424	0.161	-0.009
-712.704	800.000	0.060	0.187
-711.689	-123.268	-0.088	-0.014
-710.675	352.349	-0.042	0.084
-709.660	159.230	-0.047	0.066
-708.645	28.391	-0.212	0.183
-707.631	89.696	0.237	-0.270
-706.616	67.956	-0.190	-0.199
-705.602	800.000	0.056	-0.240
-704.587	24.760	-0.449	-0.380
-703.572	-163.854	0.101	0.005
-702.558	-107.024	0.448	-0.101
-701.543	-200.000	-0.011	0.172
-700.529	-6.163	-0.159	0.111
-699.514	153.137	0.056	-0.079
-698.499	-98.272	0.241	-0.063
-697.485	32.462	0.249	-0.219
-696.470	10.937	-0.113	0.088
-695.456	-200.000	0.059	-0.268
-694.441	-200.000	0.004	-0.093
-693.426	-95.355	0.363	-0.100
-692.412	-200.000	0.430	0.000
-691.397	-34.255	-0.111	-0.062
-690.383	146.225	-0.141	-0.193
-689.368	-130.770	0.431	-0.059
-688.354	46.514	-0.083	-0.079
-687.339	-7.224	0.269	0.186
-686.324	26.736	0.194	0.166
-685.310	32.440	-0.274	-0.241
-684.295	48.605	-0.155	-0.148
-683.281	24.467	-0.119	0.101
-682.266	-54.574	-0.241	-0.111
-681.251	800.000	0.042	-0.172
-680.237	-200.000	-0.044	0.287
-679.222	-200.000	0.027	-0.162
-678.208	44.640	0.248	0.232
-677.193	597.288	0.056	0.142
-676.178	261.538	-0.146	-0.258
-675.164	800.000	-0.053	0.150
-674.149	137.435	0.130	0.173
-673.135	-35.483	-0.230	0.127
-672.120	74.050	-0.106	-0.113
-671.105	-200.000	0.005	0.159
-670.091	16.032	0.118	-0.095
-669.076	236.061	-0.143	-0.242
-668.062	28.000	0.048	0.041
-667.047	395.419	-0.132	-0.280
-666.032	-164.691	-0.228	0.011
-665.018	229.451	-0.082	-0.137
-664.003	-51.516	-0.159	0.076
-662.989	-200.000	0.001	-0.054
-661.974	-44.018	-0.181	0.092
-660.959	800.000	-0.033	-0.111
-659.945	-200.000	0.034	-0.187
-658.930	254.195	0.038	0.066
-657.916	139.214	0.074	0.099
-656.901	800.000	0.027	0.104
-655.886	-200.000	0.009	-0.096
-654.872	-30.918	-0.262	0.151
-653.857	-81.435	0.193	-0.065
-652.843	-146.654	-0.110	0.010
-651.828	181.441	-0.045	-0.068
-650.814	-200.000	-0.010	-0.352
-649.799	-161.972	0.145	-0.007
-648.784	30.023	0.217	-0.188
-647.770	800.000	-0.095	0.296
-646.755	-133.424	-0.056	0.007
-645.741	-116.372	-0.117	0.022
-644.726	667.462	0.142	-0.373
-643.711	467.401	0.103	-0.234
-642.697	367.991	-0.086	0.176
-641.682	114.072	0.252	-0.312
-640.668	800.000	0.073	0.259
-639.653	-162.732	0.350	0.017
-638.638	48.223	0.238	0.227
-637.624	800.000	-0.127	0.376
-636.609	-200.000	-0.004	0.332
-635.595	-91.061	0.406	-0.119
-634.580	-200.000	-0.031	-0.333
-633.565	800.000	0.083	-0.272
-632.551	312.098	0.074	-0.142
-631.536	310.309	0.166	-0.317
-630.522	-200.000	0.015	-0.096
-629.507	-52.863	0.320	0.150
-628.492	-85.419	0.132	0.042
-627.478	-19.762	-0.084	0.053
-626.463	-20.162	0.056	0.035
-625.449	-132.407	-0.208	-0.027
-624.434	3.939	-0.154	0.115
-623.419	7.905	0.081	0.062
-622.405	16.971	0.138	-0.111
-621.390	189.575	0.136	-0.207
-620.376	133.498	-0.072	0.095
-619.361	-180.306	0.243	0.005
-618.346	234.788	0.136	-0.228
-617.332	-200.000	-0.038	-0.173
-616.317	-200.000	0.022	0.150
-615.303	-42.400	0.240	0.125
-614.288	-21.037	0.192	0.119
-613.273	302.438	0.143	-0.270
-612.259	-78.290	-0.440	-0.154
-611.244	4.915	0.177	-0.132
-610.230	186.065	0.050	0.075
-609.215	-82.512	-0.083	0.028
-608.201	162.029	0.127	-0.181
-607.186	-126.161	0.138	0.021
-606.171	-200.000	-0.009	-0.050
-605.157	800.000	-0.040	0.118
-604.142	-92.962	-0.185	-0.052
-603.128	-2.379	-0.266	-0.190
-602.113	115.958	0.141	-0.176
-601.098	-46.814	0.125	0.062
-600.084	77.616	-0.249	-0.270
-599.069	9.383	-0.198	-0.153
-598.055	-200.000	0.026	0.383
-597.040	-67.255	-0.037	0.015
-596.025	-200.000	0.058	-0.307
-595.011	186.929	0.072	-0.109
-593.996	-64.505	-0.327	0.135
-592.982	-80.288	0.162	0.055
-591.967	250.327	0.205	-0.354
-590.952	-27.941	-0.249	-0.147
-589.938	-196.012	-0.216	-0.002
-588.923	800.000	0.061	0.241
-587.909	-51.010	-0.140	0.067
-586.894	63.053	-0.023	0.024
-585.879	-97.513	-0.079	0.021
-584.865	-140.741	-0.109	0.011
-583.850	-164.735	0.228	-0.010
-582.836	-197.665	-0.457	-0.003
-581.821	-135.895	0.340	-0.041
-580.806	-126.934	-0.050	0.008
-579.792	-135.730	0.019	0.002
-578.777	-19.648	0.079	-0.049
-577.763	-143.736	0.073	0.007
-576.748	-73.896	-0.231	-0.085
-575.733	-25.226	-0.307	0.185
-574.719	-111.985	-0.154	-0.031
-573.704	56.046	0.156	0.154
-572.690	-128.609	-0.449	0.064
-571.675	-165.194	-0.415	0.019
-570.661	-200.000	0.052	-0.299
-569.646	206.757	0.095	-0.150
-568.631	-181.944	-0.367	0.007
-567.617	63.202	0.041	-0.042
-566.602	704.038	-0.134	0.358
-565.588	164.025	0.051	-0.072
-564.573	-125.637	-0.099	0.015
-563.558	-200.000	0.014	-0.100
-562.544	-200.000	-0.025	-0.296
-561.529	-128.098	-0.113	-0.016
-560.515	800.000	-0.084	0.268
-559.500	161.021	0.039	-0.055
-558.485	150.222	-0.142	-0.195
-557.471	66.045	-0.183	-0.188
-556.456	-200.000	-0.015	0.171
-555.442	-174.463	-0.257	-0.007
-554.427	-158.030	0.208	0.012
-553.412	-84.447	-0.096	0.031
-552.398	497.659	-0.075	0.175
-551.383	-159.252	0.277	0.016
-550.369	-200.000	-0.004	0.153
-549.354	-200.000	0.019	0.350
-548.339	-145.132	0.094	-0.009
-547.325	378.189	0.187	-0.388
-546.310	38.687	-0.176	-0.159
-545.296	-114.180	-0.264	-0.052
-544.281	-163.350	0.389	-0.019
-543.266	800.000	0.014	-0.040
-542.252	800.000	0.079	-0.240
-541.237	-59.677	0.143	0.062
-540.223	-148.762	-0.129	0.011
-539.208	-200.000	-0.018	0.177
-538.193	-187.059	0.285	0.004
-537.179	-69.602	-0.045	0.018
-536.164	105.837	-0.043	0.051
-535.150	800.000	0.053	-0.196
-534.135	-151.226	0.043	-0.003
-533.121	566.055	0.022	-0.054
-532.106	9.252	-0.225	-0.173
-531.091	-200.000	-0.029	0.182
-530.077	21.631	-0.266	-0.220
-529.062	-200.000	-0.041	-0.244
-528.048	800.000	-0.061	0.243
-527.033	-200.000	0.010	-0.141
-526.018	158.124	-0.167	0.235
-525.004	69.566	0.134	0.140
-523.989	-17.294	-0.086	0.055
-522.975	134.121	0.197	-0.258
-521.960	-200.000	0.002	-0.022
-520.945	800.000	0.058	-0.203
-519.931	-200.000	-0.050	0.282
-518.916	577.841	0.084	-0.208
-517.902	-196.006	-0.107	-0.001
-516.887	-200.000	0.055	0.349
-515.872	502.145	-0.043	-0.102
-514.858	-144.047	0.437	-0.042
-513.843	115.068	0.180	-0.223
-512.829	-64.023	0.424	-0.176
-511.814	15.086	-0.198	-0.157
-510.799	500.196	-0.076	-0.177
-509.785	102.388	0.258	-0.306
-508.770	50.409	-0.218	-0.209
-507.756	130.649	-0.015	-0.020
-506.741	-82.923	-0.059	0.019
-505.726	800.000	0.072	0.233
-504.712	-200.000	-0.010	0.212
-503.697	-82.192	-0.194	0.064
-502.683	722.790	0.063	0.170
-501.668	445.198	0.102	0.226
-500.653	-196.899	-0.058	0.000
-499.639	96.599	-0.079	0.091
-498.624	800.000	0.040	0.132
-497.610	-74.924	0.222	0.081
-496.595	106.905	-0.108	0.129
-495.581	-200.000	-0.010	-0.044
-494.566	-71.737	-0.255	-0.096
-493.551	-68.490	-0.350	0.137
-492.537	38.340	-0.190	0.172
-491.522	-200.000	0.006	0.293
-490.508	448.720	-0.201	-0.449
-489.493	-66.352	-0.121	-0.049
-488.478	800.000	0.011	0.046
-487.464	-190.543	0.147	0.002
-486.449	-62.031	0.165	0.070
-485.435	-63.050	-0.386	-0.161
-484.420	7.583	-0.113	-0.086
-483.405	-66.831	0.030	0.012
-482.391	3.878	0.220	-0.163
-481.376	357.452	0.125	0.252
-480.362	216.389	-0.126	-0.202
-479.347	684.674	-0.066	0.175
-478.332	-107.799	-0.154	0.034
-477.318	800.000	0.087	-0.374
-476.303	236.341	-0.065	-0.109
-475.289	-117.869	-0.218	0.040
-474.274	39.507	-0.224	0.203
-473.259	15.855	0.230	-0.183
-472.245	746.932	0.083	0.225
-471.230	75.466	0.336	0.359
-470.216	-131.834	0.317	-0.042
-469.201	202.314	0.097	0.151
-468.186	23.456	-0.361	0.300
-467.172	-178.135	0.540	-0.013
-466.157	-74.441	-0.144	-0.053
-465.143	-2.109	0.237	-0.168
-464.128	659.420	-0.106	-0.276
-463.113	-72.773	-0.380	0.141
-462.099	11.943	-0.144	-0.112
-461.084	-200.000	-0.023	-0.142
-460.070	-200.000	0.033	0.173
-459.055	1.114	-0.164	-0.119
-458.040	-200.000	-0.010	0.113
-457.026	-200.000	-0.008	-0.298
-456.011	70.281	-0.026	-0.028
-454.997	137.350	0.084	0.112
-453.982	291.505	0.142	-0.261
-452.968	66.661	-0.098	0.101
-451.953	800.000	-0.107	0.326
-450.938	-13.417	0.042	-0.028
-449.924	-200.000	0.464	0.002
-448.909	149.704	0.312	0.428
-447.895	-51.339	0.141	-0.067
-446.880	573.736	-0.108	-0.266
-445.865	46.698	-0.162	-0.152
-444.851	194.110	-0.044	0.067
-443.836	800.000	-0.030	-0.088
-442.822	-81.439	-0.126	0.042
-441.807	800.000	0.062	0.203
-440.792	-5.057	-0.233	0.162
-439.778	215.458	0.031	-0.050
-438.763	27.529	0.082	-0.070
-437.749	-200.000	0.033	-0.183
-436.734	329.370	0.121	-0.236
-435.719	51.367	-0.278	-0.267
-434.705	-172.456	0.277	0.009
-433.690	-132.854	-0.379	0.049
-432.676	-200.000	0.039	-0.188
-431.661	184.639	0.204	-0.305
-430.646	209.899	0.056	0.089
-429.632	-36.716	-0.140	-0.076
-428.617	704.623	-0.078	-0.208
-427.603	800.000	0.115	0.371
-426.588	-111.816	0.250	-0.051
-425.573	-151.727	0.499	-0.037
-424.559	591.841	0.067	0.166
-423.544	-200.000	-0.008	0.488
-422.530	-66.396	0.353	0.142
-421.515	-156.457	0.462	-0.029
-420.500	-81.687	-0.088	-0.029
-419.486	725.894	0.115	0.310
-418.471	-200.000	0.033	-0.239
-417.457	21.407	-0.422	0.347
-416.442	-200.000	-0.000	-0.052
-415.428	-200.000	0.046	-0.367
-414.413	-93.798	0.294	0.082
-413.398	24.513	-0.145	-0.121
-412.384	-147.755	0.193	-0.016
-411.369	800.000	-0.061	0.201
-410.355	299.541	0.113	-0.209
-409.340	-28.764	-0.182	-0.105
-408.325	-200.000	0.016	-0.193
-407.311	-100.485	0.321	0.080
-406.296	-200.000	-0.122	-0.000
-405.282	-95.204	0.302	0.082
-404.267	166.402	0.040	0.058
-403.252	519.980	-0.094	0.223
-402.238	708.360	0.101	0.269
-401.223	-92.498	0.067	0.019
-400.209	-12.256	0.236	-0.156
-399.194	-200.000	0.024	-0.164
-398.179	176.028	-0.082	0.120
-397.165	86.101	0.070	0.077
-396.150	-33.937	-0.298	0.166
-395.136	-200.000	-0.002	0.173
-394.121	-54.592	0.166	-0.076
-393.106	-139.123	0.389	-0.042
-392.092	-103.107	-0.176	-0.042
-391.077	497.829	-0.026	-0.059
-390.063	90.866	-0.123	-0.139
-389.048	-200.000	0.025	0.157
-388.033	-32.095	-0.217	0.123
-387.019	-55.650	0.470	-0.212
-386.004	-49.645	-0.230	-0.110
-384.990	-50.475	0.038	0.018
-383.975	582.926	0.073	0.180
-382.960	267.059	0.149	0.263
-381.946	90.061	0.125	0.141
-380.931	18.559	-0.160	0.129
-379.917	-151.379	-0.281	-0.021
-378.902	-200.000	-0.002	0.072
-377.888	-3.328	-0.099	-0.070
-376.873	-163.471	0.162	-0.008
-375.858	626.217	0.067	-0.171
-374.844	-135.498	0.075	0.009
-373.829	-12.439	0.038	-0.025
-372.815	-200.000	0.027	0.208
-371.800	-59.804	0.075	0.032
-370.785	213.530	-0.178	-0.283
-369.771	444.968	-0.227	-0.502
-368.756	2.687	0.130	0.095
-367.742	98.095	-0.053	-0.061
-366.727	-41.460	-0.111	0.057
-365.712	800.000	-0.060	-0.192
-364.698	-200.000	0.014	0.182
-363.683	-9.771	-0.193	-0.129
-362.669	30.994	-0.133	-0.114
-361.654	-31.876	0.249	0.141
-360.639	-19.686	0.122	-0.076
-359.625	800.000	0.074	0.314
-358.610	54.101	-0.180	0.175
-357.596	400.080	-0.108	0.229
-356.581	729.842	-0.091	-0.245
-355.566	567.128	-0.087	-0.213
-354.552	-45.386	0.350	0.175
-353.537	-107.938	-0.158	-0.035
-352.523	227.820	-0.196	-0.322
-351.508	572.272	0.099	-0.243
-350.493	-113.290	0.166	-0.033
-349.479	800.000	-0.082	0.315
-348.464	-2.699	-0.194	0.137
-347.450	-25.265	-0.227	0.135
-346.435	-102.288	0.035	-0.009
-345.420	800.000	-0.147	-0.492
-344.406	800.000	0.057	0.224
-343.391	708.273	-0.085	0.226
-342.377	-53.956	0.272	0.125
-341.362	-145.485	0.303	-0.027
-340.348	123.355	-0.054	0.068
-339.333	-14.800	0.143	-0.092
-338.318	52.755	-0.262	-0.252
-337.304	-108.046	-0.236	0.052
-336.289	464.112	0.099	-0.224
-335.275	239.511	-0.061	-0.102
-334.260	800.000	-0.059	0.193
-333.245	8.936	0.118	0.090
-332.231	-92.436	0.096	-0.027
-331.216	-200.000	0.015	0.163
-330.202	-72.762	0.041	0.015
-329.187	-200.000	0.014	-0.063
-328.172	-156.407	-0.291	0.018
-327.158	-83.994	-0.255	-0.082
-326.143	6.964	-0.247	0.186
-325.129	-162.171	-0.526	0.027
-324.114	800.000	-0.057	-0.174
-323.099	2.873	-0.250	0.183
-322.085	-132.241	0.208	-0.027
-321.070	-148.972	-0.211	-0.017
-320.056	322.509	0.084	-0.161
-319.041	-129.455	0.539	0.075
-318.026	-4.978	0.186	0.129
-317.012	-157.841	-0.186	0.011
-315.997	-200.000	0.038	0.253
-314.983	800.000	0.076	0.243
-313.968	-172.785	-0.140	0.004
-312.953	-27.986	0.116	-0.067
-311.939	358.648	0.043	0.087
-310.924	-41.361	-0.097	-0.050
-309.910	-200.000	0.266	-0.000
-308.895	-176.268	-0.097	-0.003
-307.880	134.498	0.143	-0.186
-306.866	127.228	-0.101	-0.129
-305.851	122.764	0.164	-0.207
-304.837	206.369	-0.046	0.073
-303.822	-200.000	-0.062	0.298
-302.807	72.211	0.130	0.136
-301.793	-200.000	-0.006	-0.165
-300.778	90.701	-0.087	0.098
-299.764	650.637	-0.097	0.249
-298.749	-94.278	0.188	0.052
-297.735	56.483	0.137	-0.134
-296.720	288.402	0.090	0.165
-295.705	14.809	0.285	-0.224
-294.691	279.060	0.140	-0.251
-293.676	-113.697	-0.202	0.040
-292.662	182.122	-0.054	0.080
-291.647	-200.000	-0.029	-0.211
-290.632	-200.000	-0.034	-0.165
-289.618	-200.000	-0.001	-0.088
-288.603	-200.000	0.019	0.332
-287.589	-86.991	-0.144	-0.044
-286.574	459.339	-0.074	0.164
-285.559	-200.000	-0.016	0.114
-284.545	81.632	0.113	-0.123
-283.530	-31.222	0.054	-0.031
-282.516	138.221	-0.154	-0.203
-281.501	-200.000	0.010	0.173
-280.486	-200.000	-0.018	-0.192
-279.472	-200.000	-0.041	-0.197
-278.457	16.321	0.256	0.203
-277.443	264.155	-0.199	-0.348
-276.428	-42.112	-0.233	0.119
-275.413	-103.122	-0.206	-0.049
-274.399	664.104	0.200	-0.518
-273.384	-14.980	0.149	-0.096
-272.370	-15.005	0.379	0.244
-271.355	-200.000	0.033	0.397
-270.340	278.299	0.145	0.260
-269.326	-40.881	-0.032	-0.017
-268.311	-200.000	0.016	-0.102
-267.297	-200.000	-0.421	-0.000
-266.282	-200.000	-0.002	-0.058
-265.267	800.000	-0.038	-0.156
-264.253	211.592	0.122	0.193
-263.238	16.982	0.108	0.086
-262.224	93.820	-0.266	0.303
-261.209	-89.404	-0.333	-0.098
-260.195	800.000	-0.017	0.054
-259.180	-93.930	-0.210	-0.058
-258.165	-112.162	0.129	-0.026
-257.151	151.667	0.170	-0.233
-256.136	-141.168	0.383	0.039
-255.122	-116.638	0.175	-0.032
-254.107	145.927	-0.256	-0.345
-253.092	-200.000	0.001	0.018
-252.078	-103.129	-0.213	0.051
-251.063	-34.979	-0.304	0.167
-250.049	2.226	-0.160	-0.116
-249.034	-29.909	0.235	-0.134
-248.019	66.920	-0.195	-0.199
-247.005	-1.038	0.038	-0.027
-245.990	214.380	-0.113	0.180
-244.976	-38.088	0.323	-0.172
-243.961	-36.774	0.260	0.140
-242.946	203.664	-0.178	0.277
-241.932	74.529	-0.109	0.115
-240.917	165.756	-0.076	0.107
-239.903	800.000	0.070	0.253
-238.888	-66.357	-0.470	0.187
-237.873	-73.518	-0.243	-0.089
-236.859	-64.484	-0.142	0.058
-235.844	471.777	-0.153	0.344
-234.830	398.660	0.020	-0.042
-233.815	-20.790	-0.096	-0.059
-232.800	-0.641	0.124	0.088
-231.786	47.357	0.161	-0.150
-230.771	8.892	-0.049	0.037
-229.757	207.049	0.079	-0.123
-228.742	-120.551	0.330	-0.056
-227.727	352.074	0.062	0.123
-226.713	-41.719	-0.145	-0.075
-225.698	666.035	-0.067	-0.173
-224.684	276.709	0.064	-0.114
-223.669	699.722	-0.074	0.196
-222.655	-43.678	0.215	0.108
-221.640	-115.692	0.282	0.053
-220.625	-68.383	-0.454	0.177
-219.611	-77.509	0.209	0.072
-218.596	-63.159	-0.139	0.058
-217.582	92.627	0.039	0.044
-216.567	-200.000	0.013	0.459
-215.552	564.189	0.096	0.233
-214.538	-20.613	0.226	-0.139
-213.523	-200.000	0.045	-0.237
-212.509	-60.850	0.235	0.100
-211.494	636.514	0.074	0.187
-210.479	109.494	-0.261	0.313
-209.465	-51.020	0.310	-0.146
-208.450	-87.253	0.184	-0.056
-207.436	-21.663	0.263	0.161
-206.421	-174.577	-0.122	0.003
-205.406	-29.366	-0.065	-0.037
-204.392	-200.000	-0.040	0.242
-203.377	674.417	-0.064	0.167
-202.363	-200.000	0.009	-0.102
-201.348	-134.018	0.160	0.020
-200.333	128.972	-0.061	0.077
-199.319	800.000	-0.014	0.058
-198.304	3.255	-0.289	0.210
-197.290	-61.178	-0.192	-0.081
-196.275	-119.865	-0.120	0.021
-195.260	-200.000	-0.000	-0.039
-194.246	70.794	-0.176	-0.183
-193.231	76.385	0.045	-0.047
-192.217	-3.093	-0.363	-0.253
-191.202	-200.000	0.023	0.343
-190.187	-100.058	0.073	0.018
-189.173	-113.458	0.318	-0.062
-188.158	-16.508	-0.299	0.190
-187.144	-14.538	-0.349	0.225
-186.129	-128.712	0.108	0.015
-185.114	47.388	0.236	-0.220
-184.100	-71.063	0.171	0.064
-183.085	41.045	0.180	0.162
-182.071	61.206	0.190	-0.189
-181.056	-200.000	0.026	-0.232
-180.042	-15.691	-0.123	-0.078
-179.027	-200.000	0.040	-0.316
-178.012	-45.414	0.304	-0.151
-176.998	-82.306	-0.317	-0.103
-175.983	-50.482	0.065	-0.031
-174.969	-72.969	-0.159	0.058
-173.954	3.727	-0.174	0.127
-172.939	-147.812	0.270	-0.023
-171.925	61.175	0.111	-0.110
-170.910	-200.000	0.011	0.096
-169.896	31.413	-0.291	0.250
-168.881	29.790	-0.117	-0.099
-167.866	-164.301	-0.225	0.010
-166.852	800.000	0.068	0.248
-165.837	-102.184	0.182	-0.044
-164.823	3.890	-0.134	0.098
-163.808	692.022	0.097	0.253
-162.793	218.372	-0.077	-0.122
-161.779	-200.000	0.023	-0.164
-160.764	-136.689	0.171	-0.020
-159.750	-117.121	-0.316	-0.058
-158.735	419.415	-0.026	0.056
-157.720	303.239	-0.105	0.194
-156.706	-16.014	-0.275	-0.175
-155.691	-200.000	0.001	-0.145
-154.677	-92.626	-0.232	-0.065
-153.662	-12.687	0.108	0.071
-152.647	432.128	-0.044	-0.095
-151.633	-129.771	0.147	0.020
-150.618	-14.665	-0.207	-0.133
-149.604	593.715	0.048	-0.120
-148.589	800.000	-0.007	0.024
-147.574	633.791	-0.094	-0.239
-146.560	274.219	-0.149	-0.264
-145.545	361.192	-0.133	0.267
-144.531	217.474	0.089	0.141
-143.516	-27.996	-0.327	0.189
-142.502	-200.000	0.014	-0.081
-141.487	341.028	-0.025	0.049
-140.472	76.443	0.064	-0.068
-139.458	-42.480	0.168	0.086
-138.443	20.162	0.141	0.114
-137.429	84.657	0.097	0.106
-136.414	16.693	0.170	-0.135
-135.399	0.935	-0.164	0.117
-134.385	-163.456	-0.350	-0.017
-133.370	-200.000	0.031	-0.194
-132.356	470.829	0.072	0.163
-131.341	155.959	-0.082	0.112
-130.326	85.019	0.213	0.233
-129.312	245.582	-0.082	-0.138
-128.297	-11.775	-0.299	0.196
-127.283	-132.462	0.307	-0.039
-126.268	800.000	-0.050	0.185
-125.253	-129.392	-0.195	0.027
-124.239	-131.460	0.340	-0.045
-123.224	-142.714	0.261	0.025
-122.210	636.347	0.102	0.259
-121.195	-144.643	-0.186	0.017
-120.180	-106.200	0.398	-0.089
-119.166	91.373	-0.230	0.257
-118.151	86.254	-0.165	-0.181
-117.137	681.612	0.020	0.053
-116.122	-182.817	0.059	-0.001
-115.107	98.421	-0.140	0.160
-114.093	220.377	-0.080	-0.128
-113.078	486.706	0.132	0.301
-112.064	-200.000	-0.087	0.399
-111.049	-64.276	-0.113	0.046
-110.034	300.079	0.126	-0.232
-109.020	84.959	0.151	-0.165
-108.005	-110.309	0.204	-0.042
-106.991	42.701	0.047	0.042
-105.976	-6.286	-0.072	-0.049
-104.962	-70.343	-0.057	0.022
-103.947	120.358	-0.078	0.097
-102.932	-166.405	0.200	0.008
-101.918	602.018	0.091	-0.225
-100.903	11.447	-0.077	-0.059
-99.889	-200.000	-0.010	0.116
-98.874	142.619	0.102	0.136
-97.859	-200.000	-0.017	-0.424
-96.845	59.291	0.140	-0.138
-95.830	235.462	0.109	-0.180
-94.816	800.000	0.038	-0.161
-93.801	-200.000	0.062	-0.337
-92.786	84.160	0.098	0.107
-91.772	800.000	0.032	0.134
-90.757	93.329	-0.132	-0.149
-89.743	-144.100	-0.306	0.029
-88.728	685.692	0.074	0.192
-87.713	-135.023	0.218	0.026
-86.699	40.491	0.208	-0.187
-85.684	-69.649	0.143	0.055
-84.670	-26.690	-0.249	-0.145
-83.655	-136.445	0.153	0.018
-82.640	-154.735	-0.237	0.016
-81.626	-23.927	0.240	-0.143
-80.611	-65.146	-0.185	-0.074
-79.597	-128.964	0.096	0.013
-78.582	-24.207	-0.133	0.079
-77.567	18.266	-0.248	0.198
-76.553	-16.240	0.138	0.088
-75.538	-142.514	-0.239	0.023
-74.524	471.087	0.077	-0.172
-73.509	-50.365	0.094	0.044
-72.494	137.631	0.124	0.162
-71.480	187.302	-0.209	-0.310
-70.465	66.724	0.089	0.090
-69.451	800.000	-0.051	-0.169
-68.436	7.709	-0.146	0.109
-67.422	800.000	-0.099	0.348
-66.407	-96.476	0.054	-0.014
-65.392	-140.451	-0.130	-0.014
-64.378	-200.000	0.026	0.315
-63.363	232.601	0.181	-0.296
-62.349	228.575	0.018	0.029
-61.334	58.894	-0.839	-0.821
-60.319	173.205	0.305	0.437
-59.305	800.000	-0.222	-0.807
-58.290	129.191	0.497	0.631
-57.276	800.000	0.503	1.679
-56.261	-200.000	92.626	543.707
-55.246	595.006	1384.072	3408.400
-54.232	183.012	2609.701	3835.016
-53.217	111.812	2354.553	2829.373
-52.203	42.118	2100.515	1898.183
-51.188	37.254	2011.754	1773.608
-50.173	35.654	1992.922	1742.448
-49.159	49.402	2042.048	1911.885
-48.144	52.209	2061.811	1956.102
-47.130	37.986	2020.426	1787.687
-46.115	35.533	2008.750	1754.900
-45.100	35.504	2005.581	1751.794
-44.086	35.424	2003.417	1749.103
-43.071	35.384	2001.000	1746.558
-42.057	35.317	1998.632	1743.817
-41.042	35.258	1997.283	1742.038
-40.027	35.392	1994.800	1741.019
-39.013	35.384	1993.261	1739.531
-37.998	35.381	1991.112	1737.558
-36.984	35.381	1989.399	1736.000
-35.969	35.441	1987.191	1734.544
-34.954	35.420	1985.406	1732.724
-33.940	35.399	1984.235	1731.444
-32.925	35.574	1982.369	1731.331
-31.911	35.513	1980.774	1729.320
-30.896	35.454	1978.989	1727.159
-29.881	35.500	1977.297	1726.027
-28.867	35.495	1975.711	1724.529
-27.852	35.533	1974.190	1723.472
-26.838	35.575	1972.398	1722.220
-25.823	35.566	1970.112	1720.071
-24.809	35.517	1968.790	1718.410
-23.794	35.542	1966.442	1716.520
-22.779	35.524	1964.786	1714.842
-21.765	35.559	1963.071	1713.591
-20.750	35.552	1961.782	1712.334
-19.736	35.520	1960.156	1710.558
-18.721	35.544	1958.580	1709.334
-17.706	35.566	1957.068	1708.137
-16.692	35.590	1955.044	1706.520
-15.677	35.490	1953.750	1704.434
-14.663	35.481	1952.478	1703.175
-13.648	35.631	1950.970	1703.127
-12.633	35.472	1950.148	1700.933
-11.619	35.590	1948.077	1700.101
-10.604	35.479	1947.020	1698.130
-9.590	35.509	1945.954	1697.393
-8.575	35.504	1944.752	1696.239
-7.560	35.500	1943.304	1694.867
-6.546	35.506	1941.893	1693.630
-5.531	35.564	1940.242	1692.633
-4.517	35.580	1938.885	1691.523
-3.502	35.594	1938.084	1690.875
-2.487	35.525	1936.829	1689.107
-1.473	35.510	1935.958	1688.150
-0.458	35.623	1931.668	1685.333
0.556	38.320	1912.729	1660.505
1.571	34.055	1892.646	1606.985
2.586	29.455	1913.797	1585.389
3.600	27.919	1949.319	1601.221
4.615	26.487	1943.347	1583.656
5.629	20.266	1840.060	1447.619
6.644	10.254	1718.720	1273.624
7.659	5.060	1679.447	1204.393
8.673	4.610	1675.786	1198.196
9.688	4.684	1674.175	1197.509
10.702	4.707	1673.154	1196.848
11.717	4.718	1670.060	1194.610
12.731	5.427	1670.201	1200.052
13.746	12.197	1686.835	1264.206
14.761	20.611	1704.619	1342.659
15.775	23.108	1707.128	1363.794
16.790	22.352	1704.769	1355.966
17.804	21.330	1701.701	1345.542
18.819	20.462	1698.062	1335.874
19.834	19.750	1696.387	1328.971
20.848	19.553	1694.628	1325.960
21.863	19.427	1693.271	1323.813
22.877	19.327	1691.640	1321.658
23.892	19.090	1690.363	1318.725
24.907	19.023	1689.640	1317.534
25.921	18.962	1688.202	1315.827
26.936	19.049	1687.378	1315.734
27.950	18.966	1686.311	1314.152
28.965	19.057	1685.742	1314.290
29.980	19.115	1685.167	1314.164
30.994	19.187	1684.480	1314.064
32.009	19.275	1683.570	1313.911
33.023	19.381	1682.185	1313.520
34.038	19.319	1681.752	1312.589
35.053	19.332	1680.097	1311.282
36.067	19.320	1678.550	1309.869
37.082	19.208	1677.369	1307.977
38.096	19.172	1676.694	1307.065
39.111	19.232	1675.894	1306.783
40.126	19.337	1675.120	1306.857
41.140	19.302	1673.992	1305.594
42.155	19.031	1672.544	1302.302
43.169	18.854	1671.087	1299.711
44.184	18.698	1669.871	1297.471
45.199	18.756	1668.853	1297.006
46.213	18.833	1667.299	1296.264
47.228	18.806	1666.472	1295.304
48.242	18.897	1665.715	1295.288
49.257	19.155	1664.942	1296.508
50.271	19.141	1663.760	1295.367
51.286	19.139	1661.964	1293.845
52.301	19.040	1661.552	1292.663
53.315	19.083	1659.708	1291.434
54.330	18.997	1658.337	1289.613
55.344	18.936	1656.500	1287.610
56.359	18.891	1654.277	1285.438
57.374	18.898	1653.856	1285.045
58.388	18.872	1653.055	1284.117
59.403	18.773	1651.408	1281.981
60.417	18.717	1650.348	1280.632
61.432	18.680	1648.718	1278.978
62.447	18.695	1647.868	1278.316
63.461	18.632	1646.520	1276.685
64.476	18.582	1645.156	1275.145
65.490	18.574	1644.281	1274.290
66.505	18.525	1643.016	1272.840
67.520	18.568	1642.255	1272.453
68.534	18.625	1641.054	1271.834
69.549	18.581	1640.502	1270.969
70.563	18.611	1639.424	1270.242
71.578	18.524	1637.749	1268.191
72.593	18.490	1636.343	1266.737
73.607	18.384	1635.527	1265.207
74.622	18.347	1634.625	1264.128
75.636	18.488	1633.278	1264.009
76.651	18.419	1632.854	1263.064
77.666	18.438	1632.045	1262.463
78.680	18.519	1631.040	1262.172
79.695	18.496	1630.556	1261.517
80.709	18.641	1629.451	1261.617
81.724	18.751	1628.777	1261.790
82.739	18.819	1628.360	1261.860
83.753	18.874	1627.552	1261.520
84.768	19.049	1626.565	1261.928
85.782	19.158	1626.042	1262.214
86.797	19.185	1625.353	1261.759
87.812	19.261	1624.611	1261.634
88.826	19.252	1623.275	1260.418
89.841	19.112	1622.335	1258.553
90.855	19.130	1621.339	1257.803
91.870	19.207	1619.965	1257.183
92.884	19.329	1619.244	1257.401
93.899	19.305	1618.358	1256.429
94.914	19.303	1617.066	1255.298
95.928	19.311	1616.191	1254.570
96.943	19.379	1614.871	1253.927
97.957	19.363	1612.761	1252.064
98.972	19.259	1611.526	1250.241
99.987	19.217	1609.867	1248.535
101.001	19.214	1608.173	1247.092
102.016	19.216	1606.932	1246.031
103.030	19.249	1605.553	1245.087
104.045	19.244	1604.585	1244.192
105.060	19.288	1603.225	1243.348
106.074	19.225	1601.766	1241.652
107.089	19.107	1599.779	1239.150
108.103	18.774	1598.020	1235.281
109.118	18.568	1596.650	1232.633
110.133	18.521	1595.297	1231.147
111.147	18.606	1593.825	1230.509
112.162	18.623	1592.103	1229.190
113.176	18.585	1591.151	1228.074
114.191	18.604	1590.340	1227.480
115.206	18.678	1588.975	1226.848
116.220	18.722	1587.969	1226.278
117.235	18.691	1586.331	1224.676
118.249	18.747	1584.828	1223.813
119.264	18.666	1583.768	1222.304
120.279	18.608	1582.574	1220.865
121.293	18.593	1580.857	1219.324
122.308	18.554	1578.870	1217.407
123.322	18.562	1576.991	1215.908
124.337	18.386	1576.168	1213.918
125.352	18.361	1574.951	1212.694
126.366	18.321	1574.159	1211.697
127.381	18.334	1573.101	1210.869
128.395	18.341	1571.719	1209.747
129.410	18.329	1570.528	1208.640
130.424	18.391	1569.129	1207.893
131.439	18.491	1567.801	1207.469
132.454	18.519	1566.616	1206.641
133.468	18.702	1565.203	1206.735
134.483	18.704	1563.624	1205.427
135.497	18.730	1562.516	1204.646
136.512	18.819	1560.757	1203.805
137.527	18.748	1559.881	1202.527
138.541	18.885	1558.928	1202.644
139.556	18.838	1557.092	1200.793
140.570	18.983	1555.664	1200.602
141.585	19.005	1554.826	1200.003
142.600	19.018	1554.162	1199.473
143.614	19.194	1552.735	1199.492
144.629	19.203	1551.997	1198.878
145.643	19.342	1550.840	1198.843
146.658	19.379	1549.416	1197.893
147.673	19.266	1547.690	1195.670
148.687	19.166	1546.070	1193.618
149.702	19.005	1544.487	1191.176
150.716	18.927	1542.878	1189.288
151.731	18.909	1542.060	1188.431
152.746	18.889	1540.376	1186.892
153.760	18.818	1539.114	1185.321
154.775	18.890	1537.989	1184.850
155.789	19.055	1536.942	1185.070
156.804	19.002	1535.885	1183.790
157.819	19.126	1534.595	1183.539
158.833	19.227	1532.902	1182.824
159.848	19.214	1532.285	1182.153
160.862	19.338	1531.396	1182.217
161.877	19.343	1530.466	1181.428
162.892	19.319	1528.434	1179.589
163.906	18.953	1527.634	1176.363
164.921	18.763	1526.216	1173.868
165.935	18.895	1525.280	1173.944
166.950	18.969	1524.167	1173.491
167.964	19.030	1522.902	1172.831
168.979	19.106	1522.078	1172.612
169.994	19.141	1520.727	1171.702
171.008	18.942	1520.126	1169.783
172.023	19.067	1518.627	1169.376
173.037	19.100	1517.757	1168.827
174.052	19.190	1516.755	1168.562
175.067	19.357	1515.683	1168.766
176.081	19.124	1514.706	1166.327
177.096	18.950	1512.602	1163.429
178.110	18.914	1511.197	1161.997
179.125	18.893	1510.235	1161.016
180.140	18.985	1509.523	1160.985
181.154	18.984	1508.773	1160.301
182.169	19.072	1507.369	1159.712
183.183	19.146	1506.526	1159.457
184.198	19.385	1505.311	1160.030
185.213	19.329	1504.258	1158.741
186.227	19.424	1503.565	1158.742
187.242	19.448	1502.315	1157.834
188.256	19.437	1501.419	1156.967
189.271	19.511	1500.221	1156.443
190.286	19.572	1499.474	1156.172
191.300	19.515	1498.517	1154.948
192.315	19.197	1496.783	1151.387
193.329	18.882	1495.124	1147.902
194.344	18.941	1493.770	1147.156
195.359	18.957	1493.011	1146.574
196.373	19.117	1492.286	1146.983
197.388	19.187	1491.164	1146.489
198.402	19.308	1490.363	1146.572
199.417	19.384	1489.680	1146.456
200.432	19.504	1489.182	1146.764
201.446	19.684	1487.705	1146.725
202.461	19.702	1487.353	1146.466
203.475	19.744	1486.092	1145.672
204.490	19.896	1485.051	1145.772
205.504	19.789	1483.982	1144.139
206.519	19.587	1482.705	1141.718
207.534	19.473	1481.065	1139.602
208.548	19.441	1479.854	1138.358
209.563	19.412	1479.110	1137.495
210.577	19.427	1477.832	1136.513
211.592	19.515	1476.712	1136.130
212.607	19.533	1476.668	1136.114
213.621	19.618	1476.273	1136.266
214.636	19.811	1474.868	1136.353
215.650	19.663	1474.217	1134.781
216.665	19.623	1473.325	1133.731
217.680	19.725	1472.487	1133.652
218.694	19.880	1471.696	1133.958
219.709	19.947	1471.052	1133.802
220.723	19.960	1469.940	1132.931
221.738	19.889	1469.179	1131.779
222.753	19.864	1468.355	1130.883
223.767	19.821	1467.350	1129.725
224.782	19.805	1466.346	1128.745
225.796	19.893	1465.240	1128.368
226.811	20.057	1464.590	1128.838
227.826	20.040	1463.821	1128.035
228.840	19.910	1463.054	1126.497
229.855	19.825	1461.638	1124.759
230.869	19.825	1460.432	1123.730
231.884	19.777	1459.655	1122.722
232.899	19.737	1458.390	1121.388
233.913	19.740	1457.187	1120.385
234.928	19.650	1455.959	1118.760
235.942	19.548	1454.978	1117.242
236.957	19.530	1453.535	1115.924
237.972	19.502	1452.491	1114.843
238.986	19.547	1450.958	1113.857
240.001	19.612	1450.116	1113.527
241.015	19.642	1449.217	1112.931
242.030	19.674	1447.690	1111.867
243.045	19.657	1447.402	1111.437
244.059	19.808	1446.193	1111.386
245.074	19.891	1445.682	1111.428
246.088	19.830	1445.031	1110.435
247.103	19.904	1444.110	1110.101
248.117	19.999	1443.631	1110.249
249.132	20.088	1443.198	1110.384
250.147	20.205	1442.359	1110.387
251.161	20.413	1442.139	1111.451
252.176	20.640	1441.311	1112.167
253.190	20.641	1440.620	1111.544
254.205	20.642	1439.847	1110.855
255.220	20.734	1439.099	1110.764
256.234	20.766	1438.463	1110.379
257.249	20.815	1437.303	1109.698
258.263	20.700	1436.638	1108.355
259.278	20.666	1435.618	1107.255
260.293	20.720	1434.643	1106.751
261.307	20.667	1433.925	1105.760
262.322	20.631	1433.574	1105.162
263.336	20.857	1432.475	1105.654
264.351	20.840	1431.307	1104.545
265.366	20.918	1430.508	1104.326
266.380	20.847	1429.802	1103.232
267.395	20.953	1428.452	1102.764
268.409	20.856	1427.890	1101.619
269.424	20.699	1426.586	1099.523
270.439	20.681	1425.419	1098.413
271.453	20.752	1424.268	1097.874
272.468	20.661	1423.693	1096.763
273.482	20.595	1422.705	1095.489
274.497	20.512	1421.817	1094.188
275.512	20.563	1420.908	1093.709
276.526	20.569	1419.915	1092.887
277.541	20.568	1418.940	1092.033
278.555	20.616	1418.137	1091.621
279.570	20.626	1417.018	1090.726
280.585	20.674	1416.666	1090.658
281.599	20.736	1416.345	1090.706
282.614	20.990	1415.144	1091.274
283.628	20.914	1413.589	1089.504
284.643	20.749	1412.695	1087.685
285.657	20.569	1411.627	1085.641
286.672	20.683	1410.409	1085.319
287.687	20.760	1409.264	1084.825
288.701	20.754	1408.329	1083.973
289.716	20.664	1407.704	1082.834
290.730	20.783	1407.210	1083.099
291.745	20.782	1405.854	1081.949
292.760	20.827	1405.113	1081.565
293.774	20.781	1404.364	1080.607
294.789	20.854	1403.050	1079.957
295.803	21.006	1402.188	1080.139
296.818	21.095	1401.607	1080.146
297.833	21.019	1400.264	1078.547
298.847	20.768	1399.621	1076.400
299.862	20.734	1398.854	1075.505
300.876	20.816	1397.567	1074.927
301.891	20.928	1396.730	1074.880
302.906	20.853	1396.151	1073.874
303.920	20.909	1395.293	1073.468
304.935	21.124	1394.717	1074.250
305.949	21.232	1393.756	1074.083
306.964	21.306	1393.580	1074.308
307.979	21.337	1392.906	1073.884
308.993	21.335	1391.119	1072.397
310.008	21.151	1390.787	1070.917
311.022	21.123	1389.516	1069.669
312.037	21.216	1388.415	1069.301
313.052	21.365	1387.433	1069.357
314.066	21.316	1386.075	1067.921
315.081	21.086	1385.284	1065.809
316.095	20.918	1383.856	1063.594
317.110	20.800	1382.905	1062.047
318.125	20.820	1382.030	1061.403
319.139	20.900	1380.634	1060.724
320.154	20.909	1379.961	1060.168
321.168	20.953	1378.821	1059.464
322.183	20.889	1377.884	1058.260
323.197	20.942	1376.772	1057.635
324.212	20.949	1376.475	1057.358
325.227	21.006	1375.810	1057.099
326.241	20.986	1374.989	1056.252
327.256	20.987	1374.187	1055.551
328.270	21.037	1373.462	1055.200
329.285	21.088	1371.685	1054.054
330.300	21.024	1370.771	1052.869
331.314	20.982	1370.268	1052.138
332.329	20.902	1369.561	1051.017
333.343	21.087	1368.112	1050.931
334.358	21.013	1367.586	1049.987
335.373	21.182	1366.641	1050.183
336.387	21.213	1366.421	1050.108
337.402	21.327	1365.114	1049.693
338.416	21.342	1364.575	1049.276
339.431	21.328	1364.546	1049.077
340.446	21.564	1363.559	1049.640
341.460	21.513	1362.739	1048.615
342.475	21.687	1361.681	1048.748
343.489	21.689	1361.149	1048.259
344.504	21.737	1360.324	1047.817
345.519	21.707	1359.645	1047.019
346.533	21.780	1358.537	1046.514
347.548	21.888	1357.348	1046.144
348.562	21.928	1357.059	1046.068
349.577	21.986	1356.039	1045.534
350.592	21.878	1354.893	1043.918
351.606	21.657	1353.940	1041.778
352.621	21.586	1352.596	1040.227
353.635	21.409	1351.613	1038.329
354.650	21.419	1350.505	1037.446
355.665	21.471	1349.657	1037.011
356.679	21.502	1348.377	1036.119
357.694	21.526	1347.701	1035.649
358.708	21.564	1346.771	1035.066
359.723	21.593	1345.747	1034.364
360.738	21.627	1344.684	1033.657
361.752	21.558	1343.793	1032.471
362.767	21.702	1342.207	1032.007
363.781	21.683	1341.763	1031.465
364.796	21.597	1341.272	1030.490
365.810	21.768	1340.009	1030.433
366.825	21.925	1339.915	1031.190
367.840	21.960	1339.599	1031.061
368.854	22.141	1338.682	1031.326
369.869	22.257	1337.874	1031.295
370.883	22.191	1337.550	1030.566
371.898	22.180	1336.484	1029.590
372.913	22.058	1335.697	1028.178
373.927	21.894	1334.913	1026.527
374.942	21.992	1333.486	1025.909
375.956	22.101	1332.993	1026.077
376.971	22.171	1332.336	1025.886
377.986	22.078	1331.733	1024.788
379.000	22.112	1330.633	1024.049
380.015	22.184	1330.257	1024.089
381.029	22.353	1329.401	1024.325
382.044	22.374	1328.779	1023.879
383.059	22.307	1328.044	1022.832
384.073	22.336	1327.089	1022.171
385.088	22.263	1326.944	1021.546
386.102	22.331	1325.801	1020.970
387.117	22.427	1325.038	1020.850
388.132	22.248	1324.719	1019.479
389.146	22.159	1323.234	1017.727
390.161	22.089	1322.102	1016.362
391.175	22.076	1321.558	1015.777
392.190	22.012	1320.814	1014.747
393.205	22.113	1319.441	1014.186
394.219	22.204	1318.865	1014.177
395.234	22.497	1317.808	1014.963
396.248	22.262	1316.469	1012.490
397.263	22.184	1315.163	1010.948
398.278	22.168	1313.482	1009.472
399.292	22.153	1312.603	1008.625
400.307	21.981	1311.504	1006.705
401.321	21.973	1310.067	1005.468
402.336	21.912	1309.230	1004.383
403.350	21.926	1308.130	1003.535
404.365	21.858	1307.595	1002.647
405.380	21.889	1306.566	1001.944
406.394	22.080	1305.663	1002.252
407.409	22.102	1305.285	1002.000
408.423	22.211	1304.534	1001.958
409.438	22.356	1304.058	1002.328
410.453	22.440	1303.403	1002.211
411.467	22.517	1302.588	1001.933
412.482	22.578	1302.226	1001.915
413.496	22.531	1301.815	1001.243
414.511	22.627	1301.275	1001.285
415.526	22.681	1300.186	1000.664
416.540	22.721	1299.656	1000.395
417.555	22.881	1298.746	1000.514
418.569	22.934	1298.050	1000.188
419.584	22.891	1297.436	999.386
420.599	22.819	1296.509	998.173
421.613	142.912	1431.063	1787.400
422.628	138.266	1450.672	1787.492
