DTS Sentinel unit serial number:	SN413079Multiplexer serial number:	ORYXHardware model number:	OX4-SRSoftware version number:	ORYX F/W v4.00 Oryx Data Collector v3.7.2.0data status	okinstallation	princeton_trtdifferential loss correction	single-endedforward channel	channel 4reverse channel	N/Adate	2019/09/10time	23:19:10forward acquisition time	60.00reverse acquisition time	0.00gamma	496.2192k internal	0.2316k external	0.2316temperature offset calibration	0.9947default loss term (dB/km)	0.3790temperature slope calibration	1.0000multiplexer offset coefficient	1.0000multiplexer slope coefficient	1.0000fibre end	0.00T internal ref (°C)	29.81T ext. ref 1 (°C)	-0.31T ext. ref 2 (°C)	23.38length (m)	temperature (°C)	Stokes	anti-Stokes-747.200	135.488	0.094	0.123
-746.185	-134.503	-0.480	-0.059
-745.171	-38.647	0.220	0.117
-744.156	800.000	-0.092	0.325
-743.142	-200.000	0.251	-0.001
-742.127	-200.000	-0.010	0.074
-741.112	-4.770	0.138	0.097
-740.098	-200.000	-0.045	0.252
-739.083	754.231	-0.081	-0.222
-738.069	-200.000	-0.364	-0.001
-737.054	236.825	-0.126	-0.212
-736.039	-104.028	0.118	-0.028
-735.025	-102.485	0.069	-0.017
-734.010	76.387	-0.187	-0.201
-732.996	113.313	0.128	-0.157
-731.981	-52.007	0.327	-0.154
-730.966	16.235	0.156	-0.125
-729.952	-65.736	-0.089	0.036
-728.937	43.911	0.209	0.193
-727.923	800.000	-0.045	-0.145
-726.908	134.718	-0.141	-0.185
-725.894	323.912	0.097	-0.187
-724.879	-68.499	-0.280	-0.110
-723.864	-196.683	-0.373	0.003
-722.850	220.229	-0.149	0.242
-721.835	-67.294	-0.147	0.059
-720.821	347.562	0.018	-0.036
-719.806	-17.711	-0.312	0.198
-718.791	-200.000	-0.035	0.200
-717.777	800.000	0.001	-0.003
-716.762	21.931	0.088	-0.073
-715.748	631.172	-0.098	-0.252
-714.733	-200.000	0.008	-0.069
-713.718	-99.538	-0.529	0.135
-712.704	-19.793	-0.072	0.045
-711.689	-97.358	-0.203	0.053
-710.675	29.581	-0.112	-0.097
-709.660	626.940	0.124	-0.318
-708.645	347.180	0.136	-0.271
-707.631	485.996	0.181	-0.417
-706.616	-36.952	0.245	-0.133
-705.602	336.647	0.035	0.070
-704.587	-33.973	-0.055	-0.030
-703.572	800.000	-0.022	-0.067
-702.558	-58.990	0.219	0.096
-701.543	-90.924	0.295	0.086
-700.529	-200.000	0.030	-0.206
-699.514	458.229	-0.138	-0.310
-698.499	800.000	-0.061	0.223
-697.485	800.000	-0.031	0.118
-696.470	-200.000	0.066	-0.335
-695.456	219.910	-0.233	-0.377
-694.441	-72.145	0.076	0.029
-693.426	800.000	0.016	0.059
-692.412	-18.165	0.251	0.159
-691.397	89.696	-0.092	0.104
-690.383	-200.000	-0.001	0.085
-689.368	-54.653	0.198	-0.090
-688.354	-117.639	-0.367	-0.067
-687.339	800.000	-0.067	-0.290
-686.324	800.000	-0.032	-0.115
-685.310	41.524	-0.128	0.117
-684.295	568.010	-0.056	-0.138
-683.281	-40.315	0.390	-0.205
-682.266	78.603	0.105	-0.114
-681.251	203.540	-0.276	-0.431
-680.237	-89.715	0.393	0.116
-679.222	-3.900	0.092	-0.064
-678.208	-0.434	-0.144	-0.103
-677.193	-35.436	-0.083	-0.046
-676.178	425.861	-0.049	0.108
-675.164	-37.384	-0.161	-0.087
-674.149	-78.095	-0.086	0.030
-673.135	321.233	-0.227	0.435
-672.120	-51.376	0.272	-0.128
-671.105	-200.000	0.024	0.197
-670.091	-200.000	0.048	0.297
-669.076	-12.468	-0.175	-0.115
-668.062	-200.000	0.050	0.395
-667.047	-140.182	-0.284	-0.030
-666.032	-94.853	-0.178	0.049
-665.018	-48.554	-0.219	0.106
-664.003	-47.897	0.063	-0.031
-662.989	22.509	0.057	0.047
-661.974	-148.227	-0.435	0.036
-660.959	-149.754	0.047	-0.004
-659.945	-108.202	-0.146	-0.032
-658.930	-162.120	-0.120	0.006
-657.916	-44.096	-0.136	0.069
-656.901	94.490	0.160	0.183
-655.886	-76.631	-0.103	-0.037
-654.872	800.000	0.068	-0.240
-653.857	800.000	-0.060	0.190
-652.843	-153.456	0.265	0.019
-651.828	-5.819	0.398	0.275
-650.814	87.647	0.092	-0.103
-649.799	48.583	-0.224	0.211
-648.784	800.000	0.039	-0.160
-647.770	68.489	-0.061	-0.063
-646.755	-98.796	-0.289	0.074
-645.741	-140.355	-0.161	0.017
-644.726	67.627	0.223	0.230
-643.711	-200.000	0.116	0.590
-642.697	-53.914	-0.410	-0.189
-641.682	-58.008	0.250	-0.110
-640.668	-187.566	-0.353	0.005
-639.653	-16.548	0.213	-0.136
-638.638	-200.000	0.012	-0.150
-637.624	220.062	-0.059	-0.096
-636.609	-68.322	0.466	-0.182
-635.595	-80.474	-0.295	-0.099
-634.580	64.221	-0.153	0.156
-633.565	51.017	-0.094	0.090
-632.551	-39.401	-0.092	0.048
-631.536	-113.239	0.094	-0.019
-630.522	250.457	-0.085	-0.145
-629.507	216.685	0.109	0.175
-628.492	350.400	-0.077	-0.154
-627.478	-44.835	0.225	0.113
-626.463	-200.000	-0.011	0.104
-625.449	302.422	0.074	0.137
-624.434	-48.240	0.288	0.140
-623.419	51.043	-0.204	0.195
-622.405	800.000	0.093	-0.372
-621.390	-5.472	0.175	-0.121
-620.376	-90.258	-0.349	-0.102
-619.361	122.392	0.164	0.206
-618.346	45.044	-0.332	0.308
-617.332	800.000	-0.044	-0.135
-616.317	-200.000	0.022	-0.401
-615.303	800.000	0.070	0.269
-614.288	59.107	-0.361	0.358
-613.273	147.022	0.257	-0.349
-612.259	-200.000	-0.031	-0.264
-611.244	-134.461	-0.310	-0.038
-610.230	-66.030	0.144	-0.058
-609.215	-200.000	-0.041	-0.501
-608.201	276.150	-0.129	-0.230
-607.186	24.977	-0.121	0.101
-606.171	-200.000	0.070	0.367
-605.157	88.792	0.114	-0.128
-604.142	-144.641	0.108	0.010
-603.128	173.307	-0.135	-0.197
-602.113	228.351	-0.023	-0.038
-601.098	-56.639	0.113	-0.051
-600.084	154.760	0.111	-0.154
-599.069	-42.589	0.174	0.089
-598.055	-31.042	-0.219	0.124
-597.040	800.000	-0.061	0.172
-596.025	800.000	-0.027	-0.088
-595.011	-119.905	0.224	-0.039
-593.996	232.706	0.124	0.205
-592.982	-200.000	0.037	-0.173
-591.967	-1.876	-0.048	-0.034
-590.952	-200.000	-0.027	0.367
-589.938	-175.861	-0.348	-0.009
-588.923	-200.000	0.031	0.248
-587.909	-41.876	-0.313	-0.161
-586.894	193.599	-0.174	0.265
-585.879	-13.335	0.215	0.141
-584.865	17.269	0.108	0.087
-583.850	-99.631	-0.224	-0.057
-582.836	20.396	-0.251	-0.204
-581.821	163.562	-0.176	0.250
-580.806	-200.000	-0.032	0.193
-579.792	-116.267	0.266	0.050
-578.777	-40.810	-0.249	0.130
-577.763	-26.562	-0.309	-0.182
-576.748	-12.983	-0.248	0.162
-575.733	-23.473	-0.173	-0.104
-574.719	-92.463	0.259	-0.073
-573.704	-200.000	0.029	-0.217
-572.690	464.334	0.051	-0.114
-571.675	-24.679	-0.139	0.083
-570.661	-16.450	0.427	0.272
-569.646	-135.152	0.192	0.023
-568.631	-95.260	-0.138	0.037
-567.617	631.116	0.079	-0.201
-566.602	800.000	-0.084	-0.327
-565.588	-200.000	-0.010	0.044
-564.573	-134.538	0.167	-0.021
-563.558	-200.000	-0.006	-0.236
-562.544	-38.937	-0.181	0.096
-561.529	-65.590	-0.037	0.015
-560.515	-47.074	-0.177	-0.087
-559.500	313.987	-0.116	-0.220
-558.485	-65.561	0.150	0.060
-557.471	269.762	0.140	-0.247
-556.456	-47.940	-0.188	-0.092
-555.442	-41.465	0.376	0.194
-554.427	-45.927	-0.046	0.023
-553.412	5.229	-0.398	0.295
-552.398	-85.158	0.016	-0.005
-551.383	-82.811	-0.125	0.040
-550.369	-103.584	0.171	-0.040
-549.354	99.402	0.131	0.153
-548.339	-91.073	-0.203	0.059
-547.325	-84.488	-0.162	0.051
-546.310	-141.324	0.195	-0.020
-545.296	800.000	0.085	-0.376
-544.281	235.988	-0.175	-0.290
-543.266	50.202	0.186	-0.176
-542.252	622.919	-0.013	-0.033
-541.237	-39.823	-0.071	-0.037
-540.223	-78.640	-0.105	-0.036
-539.208	35.094	-0.397	0.350
-538.193	-100.711	0.137	-0.034
-537.179	94.639	0.059	-0.067
-536.164	-85.179	-0.182	-0.057
-535.150	-123.869	0.162	-0.026
-534.135	-2.956	0.461	-0.324
-533.121	-200.000	0.032	0.176
-532.106	151.727	0.131	-0.179
-531.091	-69.807	0.097	0.037
-530.077	102.444	-0.237	0.279
-529.062	103.722	0.069	-0.081
-528.048	-200.000	0.007	0.047
-527.033	124.151	-0.150	0.189
-526.018	-148.127	-0.293	-0.024
-525.004	-101.666	0.184	-0.045
-523.989	-187.753	-0.118	0.002
-522.975	75.884	-0.218	-0.232
-521.960	-152.287	-0.318	-0.023
-520.945	-64.224	-0.085	0.035
-519.931	800.000	0.020	0.058
-518.916	-104.478	0.060	0.014
-517.902	-200.000	-0.075	-0.449
-516.887	16.542	0.365	-0.289
-515.872	-200.000	-0.004	-0.065
-514.858	-52.182	-0.222	-0.103
-513.843	-194.583	0.178	-0.001
-512.829	-111.476	0.392	0.080
-511.814	-103.578	-0.063	-0.015
-510.799	800.000	-0.071	0.308
-509.785	1.642	0.042	0.031
-508.770	126.488	0.147	0.187
-507.756	271.940	-0.030	0.053
-506.741	-108.738	0.184	0.040
-505.726	-87.150	0.168	-0.051
-504.712	-147.844	-0.214	0.018
-503.697	403.788	-0.009	-0.019
-502.683	136.107	0.099	0.129
-501.668	-53.853	0.210	0.096
-500.653	14.217	-0.084	-0.066
-499.639	-130.066	-0.333	0.046
-498.624	68.024	-0.200	0.205
-497.610	-110.136	0.044	-0.009
-496.595	800.000	0.085	-0.340
-495.581	4.486	0.060	-0.044
-494.566	-128.909	0.130	0.018
-493.551	549.026	-0.100	0.241
-492.537	-8.306	0.160	-0.108
-491.522	143.510	-0.050	-0.067
-490.508	-161.681	0.223	-0.011
-489.493	590.961	-0.057	0.141
-488.478	-81.791	0.083	0.027
-487.464	-80.560	0.113	0.038
-486.449	159.391	-0.064	0.089
-485.435	31.383	0.184	-0.158
-484.420	800.000	0.128	0.470
-483.405	-153.894	0.159	-0.011
-482.391	-91.510	-0.250	-0.072
-481.376	-4.050	0.122	-0.084
-480.362	403.419	0.076	-0.161
-479.347	195.207	0.109	-0.166
-478.332	-200.000	0.041	-0.201
-477.318	-200.000	-0.002	0.030
-476.303	218.307	0.260	0.415
-475.289	-200.000	-0.076	0.414
-474.274	44.346	-0.223	-0.205
-473.259	449.944	-0.098	0.216
-472.245	800.000	-0.095	-0.265
-471.230	-27.690	0.127	0.074
-470.216	-150.777	-0.337	0.026
-469.201	-115.837	-0.145	0.027
-468.186	-18.112	0.193	-0.121
-467.172	-200.000	-0.009	-0.171
-466.157	-200.000	-0.012	0.182
-465.143	191.499	0.202	-0.304
-464.128	-200.000	-0.039	-0.352
-463.113	-76.101	-0.319	-0.113
-462.099	118.599	0.177	0.218
-461.084	-200.000	-0.027	-0.200
-460.070	-200.000	0.024	-0.185
-459.055	-200.000	-0.028	-0.336
-458.040	-200.000	0.004	0.063
-457.026	84.038	0.099	-0.109
-456.011	9.720	0.106	-0.081
-454.997	-168.204	0.434	-0.017
-453.982	153.957	-0.163	-0.224
-452.968	800.000	-0.039	-0.157
-451.953	-200.000	0.018	-0.352
-450.938	545.862	-0.122	0.292
-449.924	10.621	-0.129	-0.098
-448.909	-93.633	-0.268	0.074
-447.895	-200.000	0.054	0.259
-446.880	364.728	0.071	-0.143
-445.865	65.638	0.045	-0.046
-444.851	31.002	-0.258	0.221
-443.836	-17.010	-0.199	-0.126
-442.822	233.539	0.083	-0.137
-441.807	800.000	0.021	0.091
-440.792	-110.708	0.109	0.022
-439.778	109.874	0.224	0.269
-438.763	-38.954	0.122	-0.064
-437.749	-26.724	-0.071	0.041
-436.734	288.046	0.026	-0.047
-435.719	112.540	-0.048	-0.058
-434.705	193.192	0.131	0.199
-433.690	48.952	-0.179	0.168
-432.676	256.608	0.178	-0.306
-431.661	-84.232	-0.244	0.077
-430.646	-71.974	-0.167	0.062
-429.632	422.215	0.140	-0.301
-428.617	-200.000	0.017	-0.318
-427.603	6.978	-0.184	0.137
-426.588	-200.000	-0.024	-0.131
-425.573	-136.875	0.224	0.026
-424.559	-18.193	-0.208	0.130
-423.544	313.997	0.163	0.307
-422.530	30.880	-0.190	0.163
-421.515	800.000	-0.120	-0.372
-420.500	13.566	-0.118	0.092
-419.486	-200.000	0.060	0.286
-418.471	208.396	0.171	0.268
-417.457	-176.183	0.344	0.009
-416.442	-200.000	-0.011	-0.218
-415.428	528.938	-0.084	0.198
-414.413	-200.000	0.045	0.215
-413.398	-63.303	0.158	-0.065
-412.384	-200.000	0.009	0.050
-411.369	264.528	-0.131	0.227
-410.355	14.562	-0.134	0.104
-409.340	-66.681	-0.132	0.052
-408.325	-22.434	-0.330	0.200
-407.311	-9.035	0.232	-0.155
-406.296	-168.819	-0.419	-0.016
-405.282	-129.183	0.122	-0.017
-404.267	82.833	0.104	-0.113
-403.252	800.000	-0.003	-0.010
-402.238	-200.000	0.022	0.203
-401.223	-33.915	0.194	-0.107
-400.209	800.000	0.129	-0.435
-399.194	-162.759	0.349	0.017
-398.179	-144.944	0.230	0.021
-397.165	-72.007	0.140	-0.052
-396.150	800.000	-0.152	0.461
-395.136	107.595	-0.102	-0.121
-394.121	94.769	0.131	-0.149
-393.106	52.662	0.104	0.099
-392.092	800.000	-0.112	0.487
-391.077	510.156	-0.090	0.209
-390.063	-57.056	0.105	0.046
-389.048	-81.973	-0.247	-0.081
-388.033	374.724	-0.008	-0.016
-387.019	800.000	0.014	0.047
-386.004	12.528	-0.158	-0.122
-384.990	-200.000	0.064	0.290
-383.975	-58.638	-0.077	-0.033
-382.960	-3.164	0.254	-0.177
-381.946	-35.439	0.443	-0.240
-380.931	-55.539	-0.237	-0.106
-379.917	-200.000	-0.002	0.153
-378.902	-200.000	0.049	0.346
-377.888	571.655	-0.113	0.275
-376.873	-108.720	0.379	-0.081
-375.858	-29.187	-0.205	0.117
-374.844	534.953	0.114	0.271
-373.829	-11.327	0.269	-0.177
-372.815	-200.000	-0.015	-0.119
-371.800	-7.877	0.091	0.062
-370.785	-9.231	-0.229	-0.153
-369.771	-200.000	0.002	0.025
-368.756	-200.000	0.037	0.174
-367.742	-61.321	0.285	0.120
-366.727	256.421	0.087	-0.149
-365.712	800.000	-0.050	-0.183
-364.698	364.426	0.139	0.280
-363.683	-66.461	-0.222	0.088
-362.669	800.000	-0.026	-0.096
-361.654	-114.343	-0.172	-0.033
-360.639	-94.757	-0.134	-0.036
-359.625	-89.767	0.218	-0.064
-358.610	209.524	-0.060	0.093
-357.596	47.763	0.054	-0.050
-356.581	800.000	-0.091	0.318
-355.566	-158.699	-0.299	0.017
-354.552	-176.269	-0.040	-0.001
-353.537	-94.399	0.109	-0.030
-352.523	111.126	-0.127	0.153
-351.508	800.000	0.052	0.145
-350.493	108.267	-0.127	0.151
-349.479	-48.428	-0.181	-0.087
-348.464	-83.225	-0.193	0.062
-347.450	-200.000	0.029	0.285
-346.435	-43.774	0.370	0.186
-345.420	-152.554	0.147	-0.010
-344.406	94.761	-0.246	0.279
-343.391	-176.875	-0.168	-0.004
-342.377	87.609	0.200	-0.221
-341.362	-200.000	0.019	-0.201
-340.348	5.090	-0.199	0.146
-339.333	17.285	-0.145	0.115
-338.318	-200.000	0.025	0.205
-337.304	-86.366	-0.263	-0.081
-336.289	602.906	0.053	0.131
-335.275	-63.401	-0.125	-0.051
-334.260	11.965	-0.163	-0.125
-333.245	-88.914	-0.197	0.058
-332.231	-200.000	-0.016	-0.290
-331.216	-200.000	-0.014	-0.146
-330.202	-112.512	0.306	-0.061
-329.187	130.273	-0.195	0.249
-328.172	800.000	-0.049	0.196
-327.158	27.684	0.158	-0.132
-326.143	61.507	-0.171	0.170
-325.129	-52.424	0.201	0.093
-324.114	-200.000	-0.037	-0.308
-323.099	33.050	0.295	-0.255
-322.085	-21.508	0.236	0.143
-321.070	-119.172	0.150	0.026
-320.056	94.035	-0.196	0.221
-319.041	-80.173	-0.192	0.064
-318.026	-38.705	0.087	-0.046
-317.012	-12.008	0.320	-0.209
-315.997	-200.000	-0.041	0.271
-314.983	-164.226	0.257	0.012
-313.968	-139.018	-0.237	0.026
-312.953	-199.199	0.127	-0.001
-311.939	-31.620	-0.077	-0.043
-310.924	-59.426	-0.048	-0.020
-309.910	80.386	-0.172	0.185
-308.895	-27.891	-0.042	0.024
-307.880	-127.968	-0.324	0.046
-306.866	-102.888	-0.314	0.074
-305.851	800.000	-0.046	0.150
-304.837	289.979	-0.054	0.098
-303.822	-0.265	0.137	0.097
-302.807	48.958	-0.138	0.129
-301.793	58.972	0.182	-0.178
-300.778	-49.526	-0.314	0.149
-299.764	173.948	-0.159	0.228
-298.749	40.598	0.184	0.165
-297.735	646.432	0.042	0.107
-296.720	171.955	-0.143	-0.205
-295.705	-200.000	-0.027	-0.264
-294.691	271.402	-0.154	-0.271
-293.676	-200.000	-0.002	0.013
-292.662	58.305	0.221	-0.215
-291.647	-196.211	0.151	-0.001
-290.632	-102.034	-0.181	-0.043
-289.618	169.002	-0.174	0.247
-288.603	62.141	0.063	0.063
-287.589	-5.399	0.285	-0.195
-286.574	800.000	-0.077	0.242
-285.559	-200.000	-0.021	-0.170
-284.545	800.000	-0.026	0.109
-283.530	-200.000	0.041	0.251
-282.516	-66.078	-0.272	-0.108
-281.501	-116.600	0.237	0.043
-280.486	49.023	0.201	-0.187
-279.472	-200.000	0.024	-0.118
-278.457	-200.000	0.046	0.243
-277.443	-149.598	-0.151	0.012
-276.428	-158.243	-0.208	0.012
-275.413	100.721	0.167	0.193
-274.399	68.005	-0.172	-0.175
-273.384	246.362	0.078	-0.130
-272.370	125.547	0.124	-0.156
-271.355	0.967	-0.250	0.178
-270.340	-68.559	0.197	-0.076
-269.326	129.611	0.151	-0.192
-268.311	-74.288	0.270	0.097
-267.297	-200.000	0.048	-0.260
-266.282	109.422	-0.144	0.171
-265.267	-10.773	-0.107	0.071
-264.253	-3.229	0.237	-0.164
-263.238	8.656	0.032	-0.024
-262.224	143.594	-0.035	-0.047
-261.209	267.578	0.090	-0.156
-260.195	115.102	0.214	-0.260
-259.180	34.290	0.121	0.105
-258.165	-67.362	-0.075	-0.029
-257.151	150.248	0.106	-0.143
-256.136	-200.000	0.005	-0.163
-255.122	-200.000	0.003	-0.056
-254.107	800.000	0.032	0.100
-253.092	-200.000	0.089	-0.593
-252.078	174.032	-0.073	0.105
-251.063	800.000	-0.060	0.193
-250.049	800.000	0.065	-0.184
-249.034	375.957	0.141	0.287
-248.019	144.574	-0.093	0.123
-247.005	-125.769	0.336	-0.050
-245.990	800.000	0.030	-0.122
-244.976	144.905	0.254	0.338
-243.961	-19.159	0.073	-0.045
-242.946	800.000	0.150	-0.451
-241.932	-200.000	0.038	0.358
-240.917	173.502	0.054	-0.078
-239.903	-200.000	0.040	0.214
-238.888	-137.711	-0.274	-0.031
-237.873	111.514	0.266	0.319
-236.859	-89.604	-0.139	0.041
-235.844	-180.971	-0.182	-0.004
-234.830	70.103	0.162	-0.166
-233.815	-45.559	-0.410	0.202
-232.800	-200.000	0.019	-0.110
-231.786	-174.798	-0.320	0.009
-230.771	294.593	-0.064	-0.115
-229.757	198.455	-0.099	-0.151
-228.742	800.000	-0.046	0.163
-227.727	800.000	0.119	-0.383
-226.713	-4.163	-0.015	0.011
-225.698	112.565	0.149	-0.179
-224.684	51.178	-0.031	0.029
-223.669	512.326	-0.078	-0.180
-222.655	316.992	0.018	-0.035
-221.640	-83.542	0.104	0.033
-220.625	107.047	-0.061	0.072
-219.611	-49.753	0.112	0.053
-218.596	-39.705	0.138	-0.072
-217.582	326.564	0.089	-0.170
-216.567	800.000	0.045	-0.172
-215.552	-200.000	-0.015	0.187
-214.538	651.790	0.034	-0.086
-213.523	577.361	0.190	0.462
-212.509	-46.453	0.176	0.086
-211.494	387.160	-0.044	-0.090
-210.479	133.526	0.173	-0.221
-209.465	98.977	0.384	-0.440
-208.450	249.448	-0.109	0.183
-207.436	-200.000	-0.016	-0.163
-206.421	-200.000	-0.015	0.159
-205.406	191.807	-0.179	-0.267
-204.392	125.608	0.018	0.022
-203.377	-40.157	-0.133	0.069
-202.363	-146.241	-0.087	0.008
-201.348	173.520	0.136	0.194
-200.333	128.518	-0.108	-0.137
-199.319	222.219	-0.133	0.213
-198.304	146.918	0.083	0.110
-197.290	-112.551	0.353	0.070
-196.275	800.000	0.042	0.137
-195.260	-200.000	-0.024	0.185
-194.246	-200.000	-0.023	-0.138
-193.231	-82.821	-0.015	0.005
-192.217	56.291	0.473	-0.455
-191.202	-25.878	0.153	0.089
-190.187	-200.000	0.033	0.172
-189.173	109.802	0.045	-0.053
-188.158	-63.749	-0.229	-0.093
-187.144	-200.000	0.038	0.259
-186.129	-26.481	0.069	0.040
-185.114	-76.800	-0.283	-0.098
-184.100	-200.000	-0.003	0.051
-183.085	10.209	0.217	0.163
-182.071	800.000	-0.059	-0.247
-181.056	-200.000	0.070	0.488
-180.042	-72.330	-0.234	0.086
-179.027	-80.962	0.177	-0.058
-178.012	-200.000	0.024	0.214
-176.998	-200.000	-0.005	-0.267
-175.983	-53.117	0.015	0.007
-174.969	316.784	-0.074	-0.139
-173.954	-200.000	0.018	-0.387
-172.939	91.581	0.085	0.094
-171.925	-200.000	0.004	-0.070
-170.910	1.158	-0.150	-0.106
-169.896	38.739	0.039	0.035
-168.881	108.812	-0.081	0.096
-167.866	-75.605	0.104	-0.037
-166.852	670.335	-0.095	-0.244
-165.837	409.299	0.167	-0.351
-164.823	75.843	-0.070	-0.074
-163.808	12.099	-0.143	-0.109
-162.793	-38.495	-0.233	-0.122
-161.779	-159.761	-0.421	0.023
-160.764	51.640	-0.121	0.114
-159.750	11.976	0.099	0.075
-158.735	133.029	0.146	-0.186
-157.720	-200.000	0.020	0.246
-156.706	26.549	0.231	-0.192
-155.691	96.437	0.137	-0.155
-154.677	-129.472	0.218	0.030
-153.662	434.387	-0.099	0.213
-152.647	163.712	0.112	-0.157
-151.633	-59.637	-0.224	0.095
-150.618	800.000	-0.070	0.212
-149.604	191.541	0.041	-0.061
-148.589	339.734	-0.135	-0.260
-147.574	-200.000	-0.183	0.001
-146.560	-91.649	-0.212	-0.060
-145.545	53.596	0.102	0.097
-144.531	800.000	0.078	0.295
-143.516	765.156	0.089	0.241
-142.502	701.731	-0.013	-0.034
-141.487	800.000	0.031	0.129
-140.472	85.353	0.122	0.133
-139.458	87.573	-0.151	-0.165
-138.443	-200.000	-0.056	-0.262
-137.429	-200.000	-0.003	-0.043
-136.414	-200.000	-0.020	0.204
-135.399	244.597	-0.124	-0.206
-134.385	-200.000	0.025	-0.161
-133.370	-22.728	0.024	-0.014
-132.356	-200.000	0.019	0.096
-131.341	731.838	-0.093	0.247
-130.326	-200.000	-0.016	-0.343
-129.312	84.012	-0.354	-0.383
-128.297	211.085	0.163	0.254
-127.283	-5.514	0.098	0.067
-126.268	-45.399	0.234	-0.115
-125.253	7.116	-0.072	-0.053
-124.239	34.403	0.358	-0.309
-123.224	-54.014	0.152	-0.068
-122.210	-200.000	0.029	0.240
-121.195	-23.053	0.267	-0.159
-120.180	125.135	-0.035	0.044
-119.166	73.351	0.161	0.166
-118.151	-200.000	-0.008	-0.128
-117.137	136.853	0.152	0.196
-116.122	800.000	0.060	0.165
-115.107	-200.000	0.021	0.213
-114.093	-193.579	0.410	0.003
-113.078	-200.000	-0.020	0.123
-112.064	422.279	-0.077	-0.163
-111.049	800.000	0.031	-0.091
-110.034	138.535	0.110	-0.143
-109.020	-71.777	-0.169	0.062
-108.005	162.766	0.158	0.219
-106.991	-44.231	0.224	0.111
-105.976	-200.000	-0.004	-0.255
-104.962	-144.341	0.353	-0.032
-103.947	800.000	0.041	0.129
-102.932	162.659	0.180	-0.249
-101.918	-82.180	0.379	0.122
-100.903	-30.292	-0.158	-0.089
-99.889	-200.000	0.005	0.240
-98.874	-68.469	0.126	0.048
-97.859	-75.489	0.323	0.113
-96.845	116.382	-0.125	-0.151
-95.830	800.000	0.105	0.364
-94.816	-73.012	0.095	0.034
-93.801	138.012	0.218	0.282
-92.786	177.139	-0.231	0.332
-91.772	-50.500	-0.276	0.129
-90.757	-0.827	0.472	-0.330
-89.743	800.000	0.018	-0.074
-88.728	-200.000	0.012	0.372
-87.713	118.003	0.282	0.343
-86.699	-52.151	0.259	-0.119
-85.684	-91.798	0.441	0.124
-84.670	-126.844	-0.137	0.020
-83.655	102.992	0.170	0.196
-82.640	-43.415	0.111	0.056
-81.626	426.835	-0.101	-0.216
-80.611	146.995	-0.140	0.186
-79.597	-35.102	0.046	0.025
-78.582	-200.000	-0.009	-0.076
-77.567	800.000	-0.070	-0.229
-76.553	800.000	0.081	0.238
-75.538	595.853	0.075	-0.183
-74.524	-125.843	-0.317	-0.047
-73.509	-70.166	-0.108	-0.041
-72.494	151.942	-0.233	-0.313
-71.480	800.000	0.031	0.131
-70.465	-80.775	0.129	-0.042
-69.451	-90.611	0.126	0.036
-68.436	-83.410	0.232	-0.073
-67.422	-200.000	0.027	0.209
-66.407	-11.445	-0.124	0.081
-65.392	-34.189	0.150	-0.081
-64.378	98.603	-0.028	0.032
-63.363	-100.825	-0.006	-0.001
-62.349	800.000	-0.148	0.445
-61.334	27.516	-1.181	-0.979
-60.319	656.173	0.375	0.950
-59.305	800.000	-0.387	-1.085
-58.290	800.000	0.289	1.222
-57.276	443.072	0.658	1.422
-56.261	-200.000	105.555	615.270
-55.246	509.315	1496.225	3428.150
-54.232	174.536	2696.885	3845.485
-53.217	102.666	2322.943	2679.493
-52.203	36.254	2069.005	1797.518
-51.188	31.535	1981.966	1679.589
-50.173	30.082	1964.096	1651.444
-49.159	45.852	2020.480	1841.926
-48.144	46.350	2037.703	1862.061
-47.130	32.100	1995.675	1696.042
-46.115	29.878	1984.606	1666.583
-45.100	29.798	1982.378	1663.932
-44.086	29.700	1980.331	1661.267
-43.071	29.689	1977.482	1658.708
-42.057	29.656	1975.502	1656.689
-41.042	29.766	1973.139	1655.620
-40.027	29.688	1971.556	1653.535
-39.013	29.760	1969.498	1652.389
-37.998	29.727	1967.808	1650.603
-36.984	29.776	1965.474	1649.016
-35.969	29.704	1964.117	1647.173
-34.954	29.681	1962.300	1645.377
-33.940	29.805	1960.935	1645.274
-32.925	29.778	1959.557	1643.813
-31.911	29.826	1957.777	1642.677
-30.896	29.874	1955.741	1641.333
-29.881	29.842	1954.557	1639.988
-28.867	29.901	1952.812	1638.980
-27.852	29.791	1951.440	1636.795
-26.838	29.879	1948.828	1635.315
-25.823	29.895	1947.236	1634.053
-24.809	29.849	1946.077	1632.615
-23.794	29.841	1944.337	1631.017
-22.779	29.884	1942.573	1629.855
-21.765	29.784	1940.848	1627.457
-20.750	29.844	1939.235	1626.572
-19.736	29.849	1937.736	1625.291
-18.721	29.895	1935.477	1623.734
-17.706	29.829	1934.525	1622.298
-16.692	29.805	1932.616	1620.418
-15.677	29.822	1931.136	1619.265
-14.663	29.860	1929.776	1618.390
-13.648	29.819	1928.886	1617.224
-12.633	29.813	1927.305	1615.781
-11.619	29.766	1926.388	1614.534
-10.604	29.859	1924.791	1613.942
-9.590	29.784	1923.412	1612.067
-8.575	29.797	1922.023	1610.961
-7.560	29.822	1920.918	1610.182
-6.546	29.852	1919.563	1609.249
-5.531	29.844	1918.000	1607.800
-4.517	29.866	1916.869	1606.980
-3.502	29.821	1916.150	1605.923
-2.487	29.763	1914.575	1604.033
-1.473	29.862	1913.031	1603.539
-0.458	29.838	1908.823	1599.740
0.556	27.223	1888.645	1571.078
1.571	22.983	1869.836	1518.937
2.586	19.047	1893.201	1503.461
3.600	18.106	1928.391	1522.884
4.615	17.951	1923.829	1517.775
5.629	13.653	1824.258	1402.795
6.644	4.888	1705.871	1242.019
7.659	0.084	1669.178	1177.657
8.673	-0.257	1665.870	1172.554
9.688	-0.279	1664.265	1171.148
10.702	-0.308	1662.807	1169.792
11.717	-0.416	1659.427	1166.473
12.731	-0.144	1658.513	1167.844
13.746	5.779	1673.682	1224.787
14.761	15.305	1694.388	1314.853
15.775	20.120	1703.056	1359.324
16.790	20.834	1704.042	1365.584
17.804	20.992	1703.430	1366.211
18.819	20.985	1702.720	1365.467
19.834	21.216	1701.167	1365.911
20.848	21.352	1701.340	1366.992
21.863	21.471	1699.993	1366.719
22.877	21.380	1699.334	1365.353
23.892	21.421	1698.163	1364.611
24.907	21.407	1697.811	1364.101
25.921	21.436	1696.733	1363.338
26.936	21.415	1695.698	1362.225
27.950	21.408	1694.788	1361.321
28.965	21.426	1693.884	1360.610
29.980	21.415	1693.320	1359.954
30.994	21.415	1691.809	1358.622
32.009	21.393	1690.140	1356.992
33.023	21.378	1689.528	1356.262
34.038	21.425	1688.681	1355.825
35.053	21.466	1687.403	1354.994
36.067	21.387	1686.596	1353.619
37.082	21.442	1685.539	1353.072
38.096	21.481	1684.466	1352.394
39.111	21.500	1683.675	1351.788
40.126	21.409	1683.090	1350.497
41.140	21.467	1682.165	1350.079
42.155	21.431	1680.929	1348.692
43.169	21.418	1679.998	1347.725
44.184	21.409	1679.238	1346.927
45.199	21.498	1677.750	1346.297
46.213	21.428	1676.477	1344.619
47.228	21.387	1675.152	1343.126
48.242	21.371	1673.954	1341.924
49.257	21.405	1673.008	1341.305
50.271	21.349	1672.007	1339.953
51.286	21.365	1671.025	1339.175
52.301	21.385	1669.240	1337.777
53.315	21.381	1667.881	1336.536
54.330	21.318	1666.836	1335.099
55.344	21.473	1664.956	1334.657
56.359	21.397	1664.120	1333.292
57.374	21.388	1663.001	1332.206
58.388	21.439	1661.830	1331.543
59.403	21.467	1660.360	1330.458
60.417	21.389	1659.303	1328.901
61.432	21.377	1658.472	1328.030
62.447	21.467	1656.897	1327.333
63.461	21.551	1655.894	1327.044
64.476	21.529	1654.951	1326.009
65.490	21.461	1653.985	1324.597
66.505	21.410	1653.158	1323.438
67.520	21.410	1652.324	1322.654
68.534	21.521	1651.221	1322.488
69.549	21.394	1650.108	1320.519
70.563	21.383	1648.634	1319.146
71.578	21.427	1647.599	1318.529
72.593	21.470	1646.593	1317.933
73.607	21.546	1645.814	1317.764
74.622	21.542	1644.795	1316.804
75.636	21.482	1643.819	1315.453
76.651	21.459	1642.720	1314.283
77.666	21.498	1641.906	1313.811
78.680	21.423	1641.036	1312.433
79.695	21.513	1639.861	1312.050
80.709	21.447	1639.243	1310.944
81.724	21.445	1638.554	1310.268
82.739	21.437	1637.321	1309.101
83.753	21.503	1635.981	1308.407
84.768	21.483	1635.383	1307.668
85.782	21.403	1634.653	1306.370
86.797	21.413	1633.606	1305.488
87.812	21.416	1632.613	1304.602
88.826	21.467	1631.526	1303.999
89.841	21.457	1630.982	1303.378
90.855	21.507	1629.585	1302.517
91.870	21.473	1628.290	1301.115
92.884	21.500	1627.017	1300.184
93.899	21.474	1626.511	1299.470
94.914	21.524	1625.358	1298.804
95.928	21.528	1623.916	1297.566
96.943	21.502	1622.653	1296.249
97.957	21.572	1621.404	1295.655
98.972	21.498	1620.101	1293.956
99.987	21.559	1618.499	1293.008
101.001	21.521	1617.210	1291.583
102.016	21.438	1615.797	1289.728
103.030	21.491	1614.307	1288.815
104.045	21.489	1613.458	1288.009
105.060	21.517	1611.701	1286.703
106.074	21.506	1610.363	1285.437
107.089	21.521	1609.164	1284.475
108.103	21.496	1608.407	1283.574
109.118	21.559	1607.077	1282.861
110.133	21.531	1605.509	1281.292
111.147	21.562	1603.923	1280.138
112.162	21.550	1603.001	1279.206
113.176	21.550	1601.973	1278.270
114.191	21.561	1600.402	1276.982
115.206	21.597	1599.220	1276.188
116.220	21.506	1597.946	1274.394
117.235	21.510	1597.232	1273.747
118.249	21.508	1595.999	1272.634
119.264	21.497	1594.844	1271.518
120.279	21.421	1593.561	1269.835
121.293	21.557	1591.773	1269.281
122.308	21.607	1590.565	1268.565
123.322	21.632	1589.270	1267.602
124.337	21.607	1588.050	1266.340
125.352	21.620	1587.037	1265.512
126.366	21.539	1586.006	1263.995
127.381	21.635	1584.848	1263.648
128.395	21.651	1583.984	1262.964
129.410	21.657	1582.556	1261.757
130.424	21.629	1581.430	1260.551
131.439	21.579	1580.623	1259.431
132.454	21.623	1578.543	1257.981
133.468	21.578	1577.656	1256.843
134.483	21.691	1575.895	1256.136
135.497	21.601	1575.378	1254.969
136.512	21.586	1574.052	1253.691
137.527	21.577	1572.885	1252.586
138.541	21.612	1571.395	1251.543
139.556	21.682	1570.127	1250.922
140.570	21.685	1569.101	1250.011
141.585	21.709	1567.429	1248.739
142.600	21.613	1567.161	1247.732
143.614	21.699	1565.525	1246.930
144.629	21.608	1564.645	1245.475
145.643	21.604	1563.118	1244.117
146.658	21.562	1562.048	1242.861
147.673	21.476	1560.449	1240.864
148.687	21.610	1558.945	1240.512
149.702	21.609	1558.439	1239.992
150.716	21.658	1556.828	1238.944
151.731	21.531	1556.338	1237.546
152.746	21.650	1554.632	1236.924
153.760	21.594	1553.287	1235.352
154.775	21.757	1552.103	1235.449
155.789	21.612	1551.172	1233.576
156.804	21.718	1550.032	1233.304
157.819	21.652	1548.596	1231.589
158.833	21.663	1548.215	1231.258
159.848	21.620	1547.296	1230.116
160.862	21.701	1546.199	1229.703
161.877	21.808	1544.737	1229.177
162.892	21.687	1544.369	1227.932
163.906	21.714	1543.363	1227.209
164.921	21.753	1541.885	1226.202
165.935	21.788	1541.039	1225.664
166.950	21.774	1540.427	1224.974
167.964	21.726	1539.331	1223.655
168.979	21.777	1538.370	1223.140
169.994	21.784	1537.330	1222.256
171.008	21.722	1536.396	1220.971
172.023	21.824	1535.095	1220.540
173.037	21.823	1534.070	1219.610
174.052	21.754	1533.163	1218.296
175.067	21.819	1532.298	1217.957
176.081	21.843	1531.488	1217.370
177.096	21.786	1530.200	1215.843
178.110	21.732	1529.358	1214.696
179.125	21.762	1527.967	1213.690
180.140	21.781	1527.277	1213.163
181.154	21.807	1526.995	1213.015
182.169	21.848	1525.733	1212.188
183.183	21.848	1524.345	1210.979
184.198	21.824	1523.460	1209.998
185.213	21.809	1522.787	1209.256
186.227	21.815	1521.782	1208.390
187.242	21.727	1521.400	1207.375
188.256	21.890	1520.458	1207.643
189.271	21.923	1519.087	1206.672
190.286	21.786	1518.544	1205.192
191.300	21.865	1517.403	1204.725
192.315	21.864	1516.755	1204.095
193.329	21.821	1515.826	1202.961
194.344	21.823	1514.829	1202.077
195.359	21.877	1514.038	1201.712
196.373	21.878	1513.543	1201.214
197.388	21.859	1512.268	1199.971
198.402	21.794	1511.121	1198.511
199.417	21.886	1509.895	1198.056
200.432	21.714	1509.963	1196.833
201.446	21.802	1509.202	1196.724
202.461	21.829	1508.065	1195.900
203.475	21.841	1507.015	1195.044
204.490	21.800	1505.928	1193.797
205.504	21.836	1505.246	1193.397
206.519	21.812	1504.547	1192.569
207.534	21.822	1503.989	1192.093
208.548	21.919	1502.891	1191.773
209.563	21.914	1501.705	1190.698
210.577	21.842	1501.208	1189.709
211.592	22.008	1499.900	1189.693
212.607	21.914	1499.762	1188.838
213.621	21.926	1499.189	1188.364
214.636	21.932	1498.175	1187.495
215.650	22.038	1497.098	1187.252
216.665	21.965	1496.126	1185.883
217.680	21.895	1495.829	1185.065
218.694	21.973	1494.864	1184.725
219.709	22.052	1493.733	1184.260
220.723	21.976	1492.872	1182.960
221.738	22.013	1492.051	1182.448
222.753	22.034	1491.476	1182.033
223.767	21.946	1490.303	1180.408
224.782	21.926	1489.602	1179.615
225.796	21.969	1488.772	1179.137
226.811	22.048	1487.957	1178.919
227.826	22.055	1487.323	1178.360
228.840	22.043	1486.643	1177.636
229.855	21.919	1485.783	1176.020
230.869	21.975	1484.924	1175.613
231.884	22.005	1484.049	1175.019
232.899	22.030	1482.780	1174.072
233.913	21.953	1481.608	1172.529
234.928	21.938	1481.069	1171.900
235.942	22.050	1479.597	1171.379
236.957	22.158	1478.303	1170.967
237.972	22.133	1477.269	1169.880
238.986	22.116	1476.164	1168.784
240.001	22.012	1475.636	1167.577
241.015	22.136	1474.741	1167.588
242.030	22.234	1473.556	1167.196
243.045	22.238	1472.912	1166.609
244.059	22.264	1471.794	1165.791
245.074	22.158	1471.098	1164.437
246.088	22.187	1470.388	1163.961
247.103	22.198	1469.977	1163.605
248.117	22.211	1469.050	1162.855
249.132	22.180	1468.252	1161.915
250.147	22.211	1467.088	1161.094
251.161	22.217	1467.227	1161.147
252.176	22.326	1466.460	1161.154
253.190	22.295	1465.768	1160.296
254.205	22.216	1464.841	1158.941
255.220	22.275	1463.669	1158.297
256.234	22.272	1462.882	1157.556
257.249	22.362	1461.873	1157.246
258.263	22.343	1461.101	1156.410
259.278	22.298	1459.911	1155.071
260.293	22.401	1459.443	1155.269
261.307	22.291	1458.825	1153.956
262.322	22.335	1458.176	1153.632
263.336	22.394	1457.373	1153.283
264.351	22.538	1455.866	1152.927
265.366	22.370	1455.299	1151.280
266.380	22.383	1454.545	1150.662
267.395	22.368	1453.640	1149.746
268.409	22.371	1453.058	1149.210
269.424	22.372	1452.049	1148.312
270.439	22.332	1451.115	1147.215
271.453	22.400	1450.064	1146.721
272.468	22.396	1449.312	1146.004
273.482	22.411	1448.536	1145.381
274.497	22.382	1448.339	1144.940
275.512	22.447	1447.183	1144.343
276.526	22.347	1446.726	1143.235
277.541	22.457	1445.350	1142.759
278.555	22.440	1444.791	1142.105
279.570	22.423	1443.999	1141.268
280.585	22.562	1442.890	1141.192
281.599	22.577	1442.136	1140.592
282.614	22.483	1441.529	1139.399
283.628	22.453	1440.498	1138.294
284.643	22.420	1439.315	1137.042
285.657	22.550	1438.245	1136.935
286.672	22.493	1437.835	1136.142
287.687	22.488	1437.237	1135.537
288.701	22.457	1436.154	1134.383
289.716	22.535	1436.030	1134.686
290.730	22.606	1434.726	1134.009
291.745	22.595	1433.671	1133.004
292.760	22.617	1432.493	1132.117
293.774	22.592	1431.990	1131.462
294.789	22.664	1430.814	1130.890
295.803	22.629	1430.018	1129.937
296.818	22.651	1429.375	1129.468
297.833	22.605	1428.263	1128.195
298.847	22.652	1427.716	1127.965
299.862	22.621	1427.168	1127.237
300.876	22.643	1426.038	1126.386
301.891	22.687	1425.180	1125.887
302.906	22.692	1424.545	1125.319
303.920	22.728	1423.986	1125.006
304.935	22.703	1423.547	1124.401
305.949	22.724	1422.879	1123.907
306.964	22.783	1421.472	1123.074
307.979	22.733	1420.686	1122.034
308.993	22.827	1419.776	1121.814
310.008	22.724	1419.336	1120.713
311.022	22.867	1417.841	1120.341
312.037	22.779	1417.211	1119.187
313.052	22.880	1415.946	1118.724
314.066	22.907	1415.020	1118.067
315.081	22.751	1415.033	1116.988
316.095	22.834	1413.372	1116.105
317.110	22.847	1412.421	1115.335
318.125	22.843	1411.579	1114.552
319.139	22.841	1411.389	1114.289
320.154	22.818	1410.171	1113.081
321.168	22.884	1409.089	1112.547
322.183	22.922	1408.094	1111.900
323.197	22.919	1407.356	1111.203
324.212	22.837	1406.977	1110.290
325.227	22.946	1406.088	1110.172
326.241	23.068	1404.904	1109.905
327.256	22.968	1404.175	1108.604
328.270	22.975	1403.254	1107.820
329.285	22.930	1402.721	1107.020
330.300	22.954	1402.121	1106.600
331.314	23.004	1401.098	1106.007
332.329	23.040	1400.488	1105.654
333.343	23.002	1399.656	1104.662
334.358	23.072	1398.944	1104.443
335.373	23.055	1397.675	1103.235
336.387	23.022	1397.397	1102.712
337.402	23.035	1397.035	1102.411
338.416	23.142	1396.150	1102.278
339.431	23.110	1395.673	1101.608
340.446	23.076	1395.001	1100.768
341.460	23.129	1393.832	1100.076
342.475	23.050	1393.213	1099.002
343.489	23.136	1392.252	1098.680
344.504	23.232	1390.961	1098.160
345.519	23.210	1390.257	1097.368
346.533	23.194	1389.094	1096.254
347.548	23.178	1388.326	1095.451
348.562	23.105	1387.983	1094.632
349.577	23.229	1386.811	1094.379
350.592	23.130	1386.479	1093.408
351.606	23.116	1385.723	1092.626
352.621	23.176	1384.528	1091.956
353.635	23.167	1383.367	1090.892
354.650	23.226	1382.765	1090.687
355.665	23.283	1381.653	1090.063
356.679	23.222	1381.001	1089.074
357.694	23.208	1379.815	1087.955
358.708	23.339	1378.343	1087.506
359.723	23.320	1377.312	1086.481
360.738	23.372	1376.107	1085.752
361.752	23.272	1375.160	1084.294
362.767	23.290	1374.285	1083.617
363.781	23.302	1373.813	1083.224
364.796	23.350	1372.755	1082.588
365.810	23.437	1372.097	1082.502
366.825	23.402	1371.615	1081.817
367.840	23.274	1371.160	1080.577
368.854	23.308	1370.381	1080.076
369.869	23.489	1369.989	1080.774
370.883	23.439	1368.770	1079.416
371.898	23.536	1367.724	1079.086
372.913	23.430	1367.457	1078.132
373.927	23.450	1366.664	1077.536
374.942	23.541	1365.823	1077.325
375.956	23.579	1365.126	1076.914
376.971	23.478	1364.768	1075.923
377.986	23.398	1363.775	1074.558
379.000	23.491	1362.653	1074.144
380.015	23.402	1362.612	1073.477
381.029	23.511	1361.621	1073.261
382.044	23.512	1360.813	1072.538
383.059	23.511	1360.293	1072.027
384.073	23.586	1359.602	1071.840
385.088	23.595	1359.141	1071.432
386.102	23.557	1358.647	1070.718
387.117	23.503	1357.931	1069.738
388.132	23.665	1356.795	1069.721
389.146	23.560	1355.975	1068.349
390.161	23.629	1355.201	1068.063
391.175	23.625	1354.761	1067.595
392.190	23.649	1353.821	1066.903
393.205	23.567	1353.548	1066.100
394.219	23.653	1352.321	1065.558
395.234	23.700	1351.042	1064.739
396.248	23.734	1350.175	1064.160
397.263	23.826	1348.977	1063.674
398.278	23.726	1347.561	1061.868
399.292	23.691	1347.150	1061.238
400.307	23.735	1346.382	1060.803
401.321	23.707	1345.605	1059.932
402.336	23.775	1344.257	1059.183
403.350	23.780	1342.900	1058.046
404.365	23.718	1342.257	1057.078
405.380	23.744	1341.636	1056.648
406.394	23.816	1340.877	1056.385
407.409	23.841	1339.947	1055.709
408.423	23.834	1339.515	1055.236
409.438	23.846	1338.842	1054.683
410.453	23.938	1337.525	1054.096
411.467	23.974	1337.052	1053.842
412.482	24.019	1336.385	1053.490
413.496	23.856	1335.968	1052.104
414.511	23.897	1335.179	1051.635
415.526	23.909	1334.376	1050.978
416.540	23.868	1334.046	1050.383
417.555	23.970	1332.898	1049.987
418.569	23.793	1332.865	1048.826
419.584	23.940	1332.183	1049.059
420.599	23.836	1331.544	1047.854
421.613	139.101	1432.881	1798.890
422.628	135.677	1447.583	1798.959
