DTS Sentinel unit serial number:	SN413079Multiplexer serial number:	ORYXHardware model number:	OX4-SRSoftware version number:	ORYX F/W v4.00 Oryx Data Collector v3.7.2.0data status	okinstallation	princeton_trtdifferential loss correction	single-endedforward channel	channel 4reverse channel	N/Adate	2019/09/19time	01:57:34forward acquisition time	60.00reverse acquisition time	0.00gamma	496.2192k internal	0.2339k external	0.2339temperature offset calibration	1.0026default loss term (dB/km)	0.3790temperature slope calibration	1.0000multiplexer offset coefficient	1.0000multiplexer slope coefficient	1.0000fibre end	0.00T internal ref (°C)	21.30T ext. ref 1 (°C)	0.69T ext. ref 2 (°C)	14.90length (m)	temperature (°C)	Stokes	anti-Stokes-747.200	348.209	-0.060	0.118
-746.185	-4.711	0.051	0.035
-745.171	124.069	0.184	-0.232
-744.156	295.839	-0.089	-0.163
-743.142	-200.000	0.008	0.139
-742.127	47.520	-0.296	0.277
-741.112	-200.000	0.002	0.167
-740.098	-86.391	-0.175	-0.054
-739.083	-6.684	-0.159	0.109
-738.069	-72.117	0.296	0.110
-737.054	0.858	-0.077	-0.055
-736.039	-126.737	-0.213	0.032
-735.025	-14.519	0.227	0.146
-734.010	-200.000	0.055	-0.400
-732.996	206.899	-0.190	-0.297
-731.981	41.010	-0.191	-0.173
-730.966	-200.000	-0.010	0.111
-729.952	-13.906	-0.317	-0.205
-728.937	800.000	0.010	0.039
-727.923	800.000	0.095	-0.345
-726.908	13.683	-0.181	-0.141
-725.894	800.000	0.045	-0.151
-724.879	5.264	-0.253	0.187
-723.864	-148.385	-0.123	0.010
-722.850	20.632	-0.187	0.152
-721.835	209.034	-0.170	-0.267
-720.821	29.645	0.153	-0.131
-719.806	-200.000	0.004	0.052
-718.791	-200.000	0.003	-0.078
-717.777	-200.000	0.011	-0.098
-716.762	192.064	-0.141	0.214
-715.748	158.177	-0.092	-0.127
-714.733	-125.661	-0.250	-0.038
-713.718	561.619	-0.128	-0.310
-712.704	-200.000	-0.033	0.188
-711.689	-83.121	-0.066	-0.021
-710.675	800.000	0.035	-0.134
-709.660	-151.525	-0.259	-0.019
-708.645	-200.000	0.024	-0.334
-707.631	-69.285	-0.351	-0.135
-706.616	87.660	0.130	-0.144
-705.602	-52.574	-0.210	0.097
-704.587	305.651	0.158	0.295
-703.572	37.576	0.130	-0.115
-702.558	-200.000	0.059	0.269
-701.543	552.739	0.078	0.187
-700.529	797.478	0.119	0.329
-699.514	464.585	-0.020	0.044
-698.499	-66.268	-0.263	0.105
-697.485	-154.736	0.064	-0.004
-696.470	-1.789	0.385	0.271
-695.456	274.624	-0.049	0.086
-694.441	-82.825	-0.080	-0.026
-693.426	-42.581	-0.339	-0.173
-692.412	-63.242	0.121	-0.050
-691.397	162.105	0.109	-0.154
-690.383	-200.000	-0.016	-0.264
-689.368	-88.452	0.234	0.070
-688.354	-200.000	-0.045	-0.242
-687.339	-200.000	0.026	-0.129
-686.324	78.649	-0.071	-0.076
-685.310	-12.360	-0.147	0.096
-684.295	127.429	-0.024	0.030
-683.281	-200.000	-0.057	-0.278
-682.266	46.697	0.082	-0.076
-681.251	120.430	-0.014	-0.018
-680.237	-200.000	-0.024	-0.274
-679.222	-48.184	-0.128	-0.062
-678.208	95.648	0.106	-0.121
-677.193	727.194	0.045	0.119
-676.178	409.238	-0.128	-0.272
-675.164	800.000	-0.029	-0.103
-674.149	154.771	0.146	-0.200
-673.135	-53.624	-0.162	0.074
-672.120	-200.000	-0.076	-0.379
-671.105	-117.971	-0.153	0.027
-670.091	-121.649	0.184	-0.031
-669.076	314.947	0.061	-0.115
-668.062	800.000	0.062	-0.173
-667.047	576.926	0.101	0.248
-666.032	800.000	-0.030	0.103
-665.018	-90.336	-0.082	0.024
-664.003	-139.366	-0.241	-0.026
-662.989	39.687	-0.204	-0.183
-661.974	-200.000	0.010	-0.049
-660.959	-87.145	0.054	-0.016
-659.945	-6.349	0.154	-0.105
-658.930	60.938	-0.162	0.160
-657.916	-200.000	-0.039	0.392
-656.901	49.039	0.055	0.051
-655.886	-200.000	0.006	-0.189
-654.872	-7.961	0.095	-0.064
-653.857	-166.434	-0.237	0.010
-652.843	13.941	0.183	-0.142
-651.828	-178.496	-0.340	-0.008
-650.814	-28.556	0.205	-0.118
-649.799	-38.870	0.051	0.027
-648.784	-158.196	0.236	-0.014
-647.770	120.233	-0.114	0.141
-646.755	-111.329	0.156	-0.032
-645.741	104.257	-0.278	0.327
-644.726	-39.820	0.237	-0.124
-643.711	-200.000	0.042	-0.201
-642.697	-28.220	0.176	-0.102
-641.682	-4.372	-0.139	0.096
-640.668	-85.281	-0.218	-0.068
-639.653	683.437	-0.065	-0.170
-638.638	-4.166	-0.198	0.137
-637.624	-122.545	-0.112	0.018
-636.609	105.867	0.114	-0.134
-635.595	1.889	-0.077	0.056
-634.580	-117.967	0.242	-0.043
-633.565	-200.000	-0.037	-0.224
-632.551	26.631	0.167	0.139
-631.536	-200.000	0.021	0.103
-630.522	-185.708	0.041	0.001
-629.507	64.633	0.103	-0.103
-628.492	-174.779	0.241	-0.007
-627.478	-99.984	-0.163	0.041
-626.463	-43.021	-0.106	0.054
-625.449	-110.635	0.198	0.041
-624.434	47.055	-0.318	-0.295
-623.419	-42.779	-0.077	-0.039
-622.405	-52.528	0.140	-0.064
-621.390	622.632	0.085	-0.214
-620.376	800.000	-0.077	-0.230
-619.361	-200.000	-0.015	-0.121
-618.346	162.485	-0.110	0.155
-617.332	-90.461	0.386	-0.111
-616.317	-103.078	-0.127	0.030
-615.303	-200.000	0.018	0.091
-614.288	-59.528	0.126	0.054
-613.273	520.848	-0.035	-0.082
-612.259	225.401	0.058	-0.094
-611.244	-200.000	-0.018	0.527
-610.230	-164.644	0.076	0.003
-609.215	65.704	-0.176	-0.178
-608.201	54.250	0.122	-0.117
-607.186	-145.469	-0.167	-0.015
-606.171	252.362	0.082	0.139
-605.157	531.893	0.080	0.190
-604.142	-15.922	-0.432	-0.274
-603.128	281.550	-0.147	-0.263
-602.113	-99.522	-0.451	-0.113
-601.098	-142.592	-0.181	-0.018
-600.084	-132.665	-0.496	0.063
-599.069	-104.213	0.264	0.061
-598.055	369.668	0.058	-0.118
-597.040	-200.000	-0.042	0.236
-596.025	800.000	0.034	0.113
-595.011	-57.758	0.428	-0.187
-593.996	-200.000	-0.002	0.056
-592.982	0.787	-0.196	0.140
-591.967	-200.000	0.006	-0.344
-590.952	-98.819	0.178	0.045
-589.938	4.572	-0.123	0.090
-588.923	-13.866	-0.189	-0.122
-587.909	-39.179	0.075	-0.039
-586.894	-87.077	0.308	0.094
-585.879	-200.000	-0.006	0.151
-584.865	149.644	0.144	-0.195
-583.850	25.615	-0.279	0.232
-582.836	53.793	0.192	0.184
-581.821	-15.388	-0.244	0.155
-580.806	-75.243	0.158	-0.056
-579.792	207.531	-0.092	-0.142
-578.777	714.979	0.053	-0.140
-577.763	87.181	-0.098	0.108
-576.748	800.000	0.071	-0.221
-575.733	-137.351	0.425	0.048
-574.719	-200.000	0.050	0.266
-573.704	303.750	-0.040	0.074
-572.690	49.788	0.081	0.076
-571.675	-42.298	0.095	-0.048
-570.661	8.187	0.237	0.178
-569.646	71.631	0.171	-0.177
-568.631	106.193	0.031	-0.037
-567.617	800.000	0.105	-0.362
-566.602	-11.632	-0.241	0.158
-565.588	23.257	-0.006	0.005
-564.573	168.664	0.177	-0.251
-563.558	800.000	0.094	-0.292
-562.544	-200.000	0.015	-0.234
-561.529	302.051	0.099	-0.183
-560.515	237.289	-0.144	0.237
-559.500	-200.000	0.009	0.160
-558.485	-111.721	-0.175	-0.035
-557.471	-68.947	0.135	-0.052
-556.456	71.277	0.174	0.180
-555.442	24.612	-0.384	-0.317
-554.427	-61.036	-0.379	-0.159
-553.412	-92.319	0.364	-0.102
-552.398	-200.000	-0.048	0.413
-551.383	234.423	-0.049	0.081
-550.369	284.144	0.073	-0.131
-549.354	78.813	0.170	0.181
-548.339	107.026	-0.197	-0.232
-547.325	-200.000	-0.047	0.281
-546.310	-76.299	-0.290	-0.102
-545.296	330.713	0.063	-0.122
-544.281	-172.343	-0.205	0.007
-543.266	-91.642	0.336	0.095
-542.252	8.710	-0.105	-0.079
-541.237	73.656	-0.167	-0.174
-540.223	-137.008	-0.271	-0.031
-539.208	71.081	-0.361	0.372
-538.193	-200.000	0.004	-0.281
-537.179	-200.000	0.012	0.072
-536.164	21.532	-0.139	-0.112
-535.150	800.000	-0.007	0.029
-534.135	800.000	0.037	-0.142
-533.121	-200.000	0.010	0.063
-532.106	83.427	-0.162	-0.176
-531.091	-200.000	0.014	0.230
-530.077	56.429	-0.146	0.141
-529.062	-49.256	0.287	-0.136
-528.048	-8.881	0.198	0.132
-527.033	723.523	-0.037	0.098
-526.018	800.000	0.031	0.100
-525.004	771.462	0.095	-0.258
-523.989	289.071	-0.135	-0.243
-522.975	-24.414	0.181	-0.107
-521.960	690.102	0.125	-0.326
-520.945	85.473	-0.284	0.310
-519.931	-115.175	-0.145	0.027
-518.916	-127.272	-0.287	0.042
-517.902	-99.729	-0.483	-0.120
-516.887	129.395	-0.202	0.256
-515.872	-119.895	-0.199	-0.034
-514.858	149.737	0.282	-0.380
-513.843	-32.520	-0.099	-0.055
-512.829	-11.559	-0.082	0.053
-511.814	232.147	-0.045	0.074
-510.799	19.403	-0.333	0.266
-509.785	-174.194	-0.006	-0.000
-508.770	-23.741	-0.247	-0.147
-507.756	-61.709	-0.159	-0.066
-506.741	3.934	-0.222	-0.161
-505.726	-116.362	-0.256	-0.047
-504.712	-200.000	-0.047	-0.239
-503.697	337.675	-0.218	0.420
-502.683	-89.124	-0.396	-0.116
-501.668	88.609	0.284	0.313
-500.653	45.332	0.111	0.102
-499.639	-130.422	-0.110	0.015
-498.624	-51.274	0.244	0.113
-497.610	241.640	0.185	-0.306
-496.595	-160.696	-0.279	0.015
-495.581	-200.000	-0.053	0.261
-494.566	800.000	0.067	0.187
-493.551	67.203	0.230	0.233
-492.537	800.000	-0.054	-0.184
-491.522	492.235	0.119	-0.270
-490.508	-31.923	0.196	0.109
-489.493	800.000	-0.098	-0.287
-488.478	-137.665	-0.120	0.013
-487.464	-132.259	-0.363	0.047
-486.449	123.973	-0.127	0.158
-485.435	-131.306	-0.080	-0.011
-484.420	-137.372	0.187	-0.021
-483.405	61.343	-0.215	-0.212
-482.391	-168.343	0.435	0.017
-481.376	157.035	-0.172	-0.236
-480.362	800.000	-0.091	-0.346
-479.347	127.230	0.113	0.143
-478.332	-71.662	-0.097	0.036
-477.318	101.828	-0.233	0.269
-476.303	-120.215	-0.083	0.014
-475.289	800.000	0.038	0.106
-474.274	-200.000	-0.011	-0.176
-473.259	-147.684	0.335	-0.028
-472.245	-200.000	0.004	-0.175
-471.230	800.000	-0.072	0.276
-470.216	76.600	-0.065	0.069
-469.201	800.000	0.094	0.320
-468.186	10.682	0.259	0.196
-467.172	-116.869	-0.162	0.029
-466.157	5.752	-0.086	0.063
-465.143	73.734	-0.313	-0.326
-464.128	74.354	0.271	-0.283
-463.113	-200.000	0.014	-0.288
-462.099	-118.266	-0.546	0.096
-461.084	197.447	0.100	-0.152
-460.070	-51.491	-0.069	0.032
-459.055	-144.561	-0.272	-0.025
-458.040	-102.246	-0.481	-0.115
-457.026	-200.000	0.008	-0.048
-456.011	300.629	-0.062	0.114
-454.997	-90.143	-0.131	0.038
-453.982	-171.798	-0.238	0.008
-452.968	-200.000	-0.069	-0.430
-451.953	-48.296	0.314	-0.150
-450.938	141.235	-0.074	-0.098
-449.924	-125.064	0.375	-0.057
-448.909	36.590	-0.196	-0.172
-447.895	228.254	0.100	-0.162
-446.880	-114.783	0.259	-0.049
-445.865	-51.524	0.189	-0.088
-444.851	-200.000	-0.024	-0.320
-443.836	-66.717	0.287	-0.113
-442.822	-200.000	-0.034	-0.427
-441.807	265.079	0.070	-0.122
-440.792	-97.952	0.474	0.121
-439.778	-17.279	0.214	0.133
-438.763	-36.899	0.208	0.111
-437.749	-200.000	-0.007	0.122
-436.734	-18.450	-0.055	-0.034
-435.719	-157.833	-0.224	-0.013
-434.705	64.993	-0.142	-0.142
-433.690	-120.439	0.044	0.007
-432.676	76.172	-0.275	0.289
-431.661	-151.433	0.045	0.003
-430.646	-125.264	-0.136	-0.021
-429.632	-200.000	-0.002	-0.349
-428.617	60.870	-0.216	0.212
-427.603	-43.082	0.271	0.136
-426.588	800.000	-0.083	-0.236
-425.573	32.118	-0.244	0.208
-424.559	800.000	0.027	0.091
-423.544	-132.214	0.230	-0.029
-422.530	286.883	0.050	-0.089
-421.515	-150.737	-0.301	0.023
-420.500	9.412	-0.164	0.123
-419.486	461.178	-0.116	0.257
-418.471	-200.000	-0.042	0.201
-417.457	-6.494	0.241	-0.162
-416.442	-131.278	-0.125	0.016
-415.428	-175.984	0.108	0.003
-414.413	12.449	0.224	-0.171
-413.398	-93.681	-0.295	0.081
-412.384	440.691	0.222	-0.481
-411.369	12.203	0.390	0.297
-410.355	800.000	0.113	-0.350
-409.340	223.271	0.048	-0.076
-408.325	-200.000	0.023	-0.270
-407.311	-200.000	-0.006	-0.056
-406.296	364.126	-0.157	0.312
-405.282	800.000	0.081	0.251
-404.267	-200.000	0.022	0.193
-403.252	330.851	0.126	-0.241
-402.238	27.109	0.278	-0.231
-401.223	99.777	-0.187	-0.214
-400.209	542.469	-0.156	-0.367
-399.194	-200.000	-0.042	-0.211
-398.179	-173.054	0.252	0.008
-397.165	-200.000	-0.050	-0.311
-396.150	-103.859	-0.053	-0.012
-395.136	-200.000	0.037	0.318
-394.121	25.823	0.131	0.108
-393.106	-200.000	0.059	-0.368
-392.092	-100.736	-0.036	-0.009
-391.077	32.532	-0.319	0.272
-390.063	-112.543	-0.119	0.024
-389.048	690.149	-0.090	0.233
-388.033	87.773	-0.019	-0.021
-387.019	-7.297	0.357	0.239
-386.004	-200.000	-0.005	0.092
-384.990	281.449	0.117	-0.207
-383.975	-37.153	0.160	-0.085
-382.960	-3.877	0.163	0.112
-381.946	14.461	-0.021	0.016
-380.931	-148.649	0.499	0.040
-379.917	30.422	-0.154	0.130
-378.902	-27.373	-0.320	0.184
-377.888	800.000	0.019	0.066
-376.873	10.061	-0.306	0.230
-375.858	-75.399	-0.303	-0.107
-374.844	-4.473	-0.132	0.090
-373.829	-190.787	-0.352	0.004
-372.815	318.682	-0.167	0.312
-371.800	-88.144	0.232	0.069
-370.785	800.000	-0.094	-0.345
-369.771	-19.388	-0.325	-0.199
-368.756	-79.494	0.158	-0.053
-367.742	359.774	0.050	-0.099
-366.727	151.848	0.115	-0.155
-365.712	-200.000	0.019	0.332
-364.698	189.158	-0.015	-0.023
-363.683	42.706	0.101	-0.091
-362.669	316.696	-0.037	0.069
-361.654	214.014	0.113	-0.176
-360.639	345.342	-0.111	-0.216
-359.625	-111.685	-0.314	0.063
-358.610	-143.135	-0.294	-0.028
-357.596	-200.000	0.018	0.095
-356.581	362.195	0.027	0.053
-355.566	800.000	-0.061	-0.255
-354.552	294.167	0.048	0.087
-353.537	123.770	-0.107	0.132
-352.523	234.725	-0.129	0.210
-351.508	-76.780	0.188	0.065
-350.493	-200.000	0.031	-0.227
-349.479	-200.000	-0.060	0.364
-348.464	-145.614	0.567	-0.050
-347.450	256.265	0.141	0.238
-346.435	-39.589	-0.191	-0.099
-345.420	-81.681	0.480	0.156
-344.406	800.000	0.064	0.249
-343.391	800.000	0.053	-0.167
-342.377	166.107	0.199	-0.279
-341.362	-200.000	-0.008	-0.093
-340.348	180.120	0.195	0.282
-339.333	44.939	0.342	-0.311
-338.318	16.978	0.061	0.048
-337.304	15.048	0.258	-0.200
-336.289	-200.000	-0.046	0.465
-335.275	456.174	0.058	0.126
-334.260	-75.938	0.202	-0.070
-333.245	800.000	-0.120	0.422
-332.231	-200.000	0.019	-0.215
-331.216	-66.179	0.324	-0.127
-330.202	-24.545	-0.038	0.022
-329.187	-200.000	-0.050	-0.227
-328.172	-118.954	-0.189	-0.033
-327.158	-200.000	0.023	0.280
-326.143	-200.000	-0.025	0.208
-325.129	-200.000	-0.064	-0.319
-324.114	469.270	0.125	-0.277
-323.099	800.000	-0.033	0.133
-322.085	36.499	-0.397	-0.346
-321.070	123.684	-0.081	-0.101
-320.056	142.966	0.109	0.143
-319.041	331.581	-0.109	-0.207
-318.026	-56.369	0.237	0.104
-317.012	-152.570	0.412	0.029
-315.997	-200.000	0.011	-0.094
-314.983	-200.000	-0.040	0.204
-313.968	222.283	-0.108	0.171
-312.953	-32.228	0.022	0.012
-311.939	-200.000	0.007	-0.156
-310.924	311.680	-0.059	-0.109
-309.910	146.840	-0.198	0.262
-308.895	22.962	-0.103	0.083
-307.880	41.638	-0.225	-0.201
-306.866	-1.369	-0.297	-0.207
-305.851	398.033	-0.130	0.268
-304.837	-109.669	0.310	-0.064
-303.822	36.614	-0.192	-0.167
-302.807	-121.485	0.120	-0.020
-301.793	-145.532	-0.124	0.011
-300.778	800.000	0.090	0.368
-299.764	186.303	-0.180	0.264
-298.749	-200.000	0.065	0.379
-297.735	222.485	-0.131	0.208
-296.720	-5.531	0.141	0.095
-295.705	800.000	-0.051	0.147
-294.691	-192.406	-0.226	-0.002
-293.676	8.955	0.185	0.138
-292.662	-75.777	0.031	0.011
-291.647	-74.508	-0.103	0.036
-290.632	-49.873	0.062	-0.029
-289.618	164.891	0.106	0.148
-288.603	593.772	0.137	0.333
-287.589	-88.987	-0.282	0.082
-286.574	23.538	-0.286	-0.232
-285.559	76.757	0.235	0.245
-284.545	118.472	-0.051	-0.062
-283.530	220.619	-0.246	0.389
-282.516	55.476	0.195	0.186
-281.501	51.423	-0.136	0.127
-280.486	-84.669	-0.386	0.120
-279.472	493.168	0.107	-0.241
-278.457	-123.601	-0.124	0.019
-277.443	77.611	-0.263	0.276
-276.428	-20.665	0.094	-0.057
-275.413	214.872	-0.112	0.174
-274.399	-100.762	0.238	-0.058
-273.384	123.325	0.286	0.353
-272.370	57.502	-0.251	0.241
-271.355	-68.949	-0.229	0.087
-270.340	56.036	0.188	0.179
-269.326	-6.014	-0.340	-0.229
-268.311	-6.260	-0.129	0.087
-267.297	113.471	-0.148	-0.177
-266.282	-151.735	0.464	0.034
-265.267	-72.782	-0.124	0.045
-264.253	34.097	-0.077	-0.066
-263.238	175.131	-0.113	0.161
-262.224	97.797	0.165	0.187
-261.209	-200.000	0.002	0.204
-260.195	439.953	-0.075	-0.162
-259.180	-160.579	-0.288	0.015
-258.165	505.619	-0.092	-0.210
-257.151	690.601	-0.013	-0.033
-256.136	-98.445	0.440	0.111
-255.122	483.582	0.068	-0.151
-254.107	144.665	-0.226	0.296
-253.092	-75.581	0.240	0.084
-252.078	-124.325	0.123	-0.019
-251.063	-200.000	-0.014	0.240
-250.049	-147.286	0.220	-0.018
-249.034	-131.176	-0.237	0.031
-248.019	-106.884	0.351	0.076
-247.005	800.000	0.054	0.178
-245.990	800.000	-0.033	-0.130
-244.976	50.922	0.152	-0.142
-243.961	2.229	0.236	-0.168
-242.946	278.965	-0.005	0.009
-241.932	-200.000	0.006	-0.056
-240.917	800.000	0.068	0.229
-239.903	800.000	0.060	0.213
-238.888	-200.000	0.000	-0.404
-237.873	-34.312	0.167	-0.090
-236.859	-47.756	0.137	0.065
-235.844	800.000	-0.130	-0.414
-234.830	800.000	0.045	0.123
-233.815	174.094	0.335	-0.476
-232.800	28.017	-0.073	0.060
-231.786	-3.748	-0.070	0.048
-230.771	77.614	-0.127	0.133
-229.757	-200.000	0.025	-0.265
-228.742	101.954	0.267	-0.307
-227.727	-200.000	0.025	0.109
-226.713	601.442	0.021	-0.052
-225.698	56.920	0.480	0.459
-224.684	-133.466	0.134	-0.017
-223.669	-200.000	0.522	0.001
-222.655	-89.931	-0.269	0.077
-221.640	111.218	-0.093	0.110
-220.625	-146.326	0.191	0.016
-219.611	800.000	0.044	0.185
-218.596	-16.461	-0.250	-0.156
-217.582	182.772	0.016	0.023
-216.567	800.000	-0.031	-0.114
-215.552	125.756	0.129	0.160
-214.538	-3.141	0.331	0.227
-213.523	-200.000	-0.020	0.159
-212.509	-200.000	-0.033	0.199
-211.494	-184.533	-0.371	0.006
-210.479	-61.059	0.422	0.175
-209.465	-200.000	0.008	-0.173
-208.450	-124.095	0.260	-0.040
-207.436	711.117	-0.084	0.219
-206.421	-9.108	0.324	-0.213
-205.406	-37.165	-0.179	0.094
-204.392	-200.000	0.028	-0.282
-203.377	-43.581	0.250	0.124
-202.363	800.000	-0.100	0.429
-201.348	53.469	-0.217	0.204
-200.333	-17.096	-0.107	0.066
-199.319	-103.999	-0.089	-0.020
-198.304	-200.000	-0.014	-0.063
-197.290	-82.487	0.207	0.066
-196.275	800.000	0.042	0.154
-195.260	-158.514	-0.039	0.002
-194.246	-200.000	-0.021	-0.126
-193.231	-172.170	0.098	0.003
-192.217	-120.938	0.193	-0.032
-191.202	-55.520	0.291	0.128
-190.187	-74.902	0.292	0.103
-189.173	-61.527	0.279	0.115
-188.158	486.491	0.121	0.271
-187.144	-104.225	-0.164	-0.037
-186.129	160.632	-0.021	-0.029
-185.114	-118.887	0.266	0.046
-184.100	-40.269	-0.159	-0.081
-183.085	-99.662	0.238	-0.059
-182.071	375.069	0.047	0.094
-181.056	-200.000	-0.001	-0.226
-180.042	-200.000	0.055	-0.295
-179.027	800.000	-0.039	0.157
-178.012	-7.008	0.293	-0.195
-176.998	354.495	0.061	0.120
-175.983	192.916	0.140	-0.208
-174.969	-94.187	-0.134	0.036
-173.954	800.000	-0.096	-0.286
-172.939	-86.081	0.242	0.073
-171.925	170.389	-0.080	0.112
-170.910	254.735	0.061	0.102
-169.896	-78.507	0.273	-0.092
-168.881	185.852	-0.180	0.263
-167.866	22.413	0.184	-0.148
-166.852	628.069	-0.081	-0.202
-165.837	-200.000	0.032	-0.334
-164.823	-84.996	-0.154	-0.047
-163.808	199.920	0.217	-0.326
-162.793	10.209	-0.197	-0.147
-161.779	157.878	-0.243	-0.330
-160.764	-36.822	-0.377	-0.198
-159.750	1.982	0.084	-0.059
-158.735	800.000	-0.137	0.428
-157.720	800.000	0.015	0.051
-156.706	124.553	-0.145	0.178
-155.691	-110.552	-0.299	-0.061
-154.677	800.000	-0.045	-0.137
-153.662	-200.000	0.031	0.193
-152.647	152.123	0.185	0.247
-151.633	666.181	-0.060	-0.151
-150.618	95.430	-0.027	0.030
-149.604	-200.000	0.034	-0.261
-148.589	800.000	0.133	0.394
-147.574	800.000	-0.034	-0.095
-146.560	325.295	-0.061	-0.114
-145.545	23.833	0.173	-0.140
-144.531	-200.000	0.029	-0.142
-143.516	178.641	-0.211	0.302
-142.502	37.366	0.329	-0.285
-141.487	187.496	0.061	0.089
-140.472	-200.000	0.058	-0.255
-139.458	800.000	-0.033	-0.139
-138.443	79.574	-0.034	-0.035
-137.429	-94.872	-0.158	0.042
-136.414	-82.987	0.148	0.047
-135.399	344.459	-0.110	0.211
-134.385	220.711	-0.096	-0.151
-133.370	-101.931	-0.288	-0.068
-132.356	-137.501	0.271	-0.030
-131.341	12.802	-0.210	-0.159
-130.326	787.426	0.071	0.191
-129.312	-200.000	-0.042	0.263
-128.297	-96.824	-0.197	-0.051
-127.283	-200.000	0.014	0.073
-126.268	-49.437	-0.209	0.097
-125.253	-44.974	0.079	0.038
-124.239	-200.000	-0.030	0.276
-123.224	-128.002	-0.153	0.022
-122.210	714.520	0.076	0.198
-121.195	-122.017	0.129	-0.021
-120.180	171.393	-0.191	0.268
-119.166	-136.868	0.274	-0.031
-118.151	800.000	-0.102	-0.297
-117.137	97.833	0.187	-0.210
-116.122	-6.742	0.223	-0.149
-115.107	-120.613	0.195	-0.032
-114.093	-92.414	0.261	0.072
-113.078	-64.862	0.092	-0.037
-112.064	800.000	-0.139	0.492
-111.049	-154.010	-0.214	0.014
-110.034	82.469	-0.219	-0.233
-109.020	-84.837	0.301	-0.092
-108.005	-44.281	-0.078	-0.038
-106.991	270.672	0.157	0.270
-105.976	-200.000	0.022	-0.292
-104.962	64.068	0.161	0.158
-103.947	22.473	0.048	-0.038
-102.932	-200.000	0.030	-0.232
-101.918	-143.792	0.258	-0.024
-100.903	-200.000	-0.015	0.267
-99.889	-92.292	-0.064	-0.018
-98.874	-88.748	0.217	0.063
-97.859	43.197	0.114	-0.101
-96.845	-56.808	0.179	0.077
-95.830	-38.719	-0.157	-0.081
-94.816	93.155	0.064	-0.070
-93.801	800.000	-0.041	0.123
-92.786	735.625	-0.037	0.098
-91.772	-93.116	-0.126	0.034
-90.757	-178.809	0.154	0.003
-89.743	13.649	-0.146	0.111
-88.728	-91.819	0.372	-0.103
-87.713	64.545	0.106	0.104
-86.699	-90.112	-0.227	-0.065
-85.684	-156.639	0.257	-0.016
-84.670	542.766	-0.147	-0.342
-83.655	-148.402	-0.566	-0.045
-82.640	-23.321	0.189	-0.111
-81.626	-200.000	0.075	-0.410
-80.611	341.355	-0.099	-0.189
-79.597	-200.000	0.019	0.454
-78.582	-200.000	-0.037	0.258
-77.567	50.802	0.282	-0.261
-76.553	-32.294	-0.393	0.214
-75.538	-200.000	-0.002	0.294
-74.524	-200.000	0.030	0.314
-73.509	203.397	-0.243	-0.368
-72.494	142.338	-0.046	-0.060
-71.480	9.508	0.217	0.160
-70.465	-45.819	-0.089	0.043
-69.451	-200.000	0.021	0.208
-68.436	16.020	-0.253	0.194
-67.422	768.614	-0.014	0.036
-66.407	246.992	0.150	0.247
-65.392	-200.000	-0.019	0.159
-64.378	-200.000	0.032	0.377
-63.363	9.592	-0.177	-0.131
-62.349	67.349	0.139	0.139
-61.334	24.233	-1.242	-1.001
-60.319	6.935	0.653	0.475
-59.305	800.000	-0.519	-1.510
-58.290	276.641	0.921	1.597
-57.276	800.000	0.517	1.403
-56.261	-200.000	134.950	686.633
-55.246	338.911	1674.480	3183.604
-54.232	132.138	2813.653	3537.177
-53.217	80.698	2346.949	2469.297
-52.203	27.593	2084.269	1711.842
-51.188	23.008	2001.288	1602.165
-50.173	22.025	1986.498	1581.415
-49.159	40.915	2063.544	1817.468
-48.144	38.371	2074.643	1803.743
-47.130	23.444	2026.642	1626.210
-46.115	21.330	2015.223	1597.674
-45.100	21.225	2012.412	1594.424
-44.086	21.205	2010.431	1592.612
-43.071	21.199	2007.208	1589.936
-42.057	21.120	2005.169	1587.538
-41.042	21.145	2003.371	1586.279
-40.027	21.207	2001.632	1585.409
-39.013	21.179	1999.604	1583.485
-37.998	21.139	1998.184	1581.933
-36.984	21.203	1996.320	1580.975
-35.969	21.187	1994.085	1578.996
-34.954	21.275	1992.371	1578.368
-33.940	21.302	1991.330	1577.727
-32.925	21.319	1989.428	1576.308
-31.911	21.362	1987.448	1575.070
-30.896	21.224	1986.556	1573.051
-29.881	21.282	1984.650	1572.007
-28.867	21.474	1982.692	1572.121
-27.852	21.363	1980.848	1569.595
-26.838	21.312	1979.645	1568.120
-25.823	21.359	1977.596	1566.857
-24.809	21.394	1975.982	1565.831
-23.794	21.397	1974.125	1564.323
-22.779	21.327	1972.513	1562.361
-21.765	21.292	1971.011	1560.793
-20.750	21.368	1969.256	1560.026
-19.736	21.365	1967.827	1558.802
-18.721	21.372	1966.097	1557.433
-17.706	21.289	1964.637	1555.478
-16.692	21.315	1962.923	1554.288
-15.677	21.312	1961.288	1552.899
-14.663	21.291	1960.103	1551.714
-13.648	21.310	1958.768	1550.768
-12.633	21.342	1957.317	1549.839
-11.619	21.243	1956.568	1548.309
-10.604	21.250	1955.114	1547.159
-9.590	21.329	1953.266	1546.332
-8.575	21.257	1952.563	1545.077
-7.560	21.284	1950.934	1543.963
-6.546	21.297	1949.512	1542.897
-5.531	21.299	1948.411	1541.978
-4.517	21.260	1947.518	1540.866
-3.502	21.358	1946.132	1540.571
-2.487	21.307	1944.688	1538.919
-1.473	21.272	1944.084	1538.074
-0.458	21.335	1938.807	1534.393
0.556	19.999	1917.554	1504.247
1.571	15.635	1899.422	1452.264
2.586	11.829	1922.112	1436.136
3.600	10.923	1957.375	1454.263
4.615	10.915	1950.222	1448.746
5.629	8.707	1850.236	1355.667
6.644	3.725	1739.484	1234.667
7.659	0.933	1708.879	1190.897
8.673	0.745	1705.769	1187.150
9.688	0.735	1704.803	1186.290
10.702	0.695	1703.580	1185.022
11.717	0.566	1699.367	1180.976
12.731	0.935	1697.503	1182.464
13.746	5.139	1705.780	1221.063
14.761	11.945	1720.205	1284.831
15.775	16.285	1727.951	1324.625
16.790	17.178	1728.771	1332.137
17.804	16.260	1726.370	1322.983
18.819	15.310	1722.668	1312.592
19.834	14.721	1720.406	1306.150
20.848	14.486	1718.690	1302.897
21.863	14.343	1716.874	1300.286
22.877	14.013	1715.323	1296.420
23.892	13.783	1714.025	1293.532
24.907	13.709	1712.564	1291.737
25.921	13.642	1711.730	1290.473
26.936	13.664	1711.045	1290.019
27.950	13.669	1709.530	1288.801
28.965	13.699	1709.596	1288.969
29.980	13.732	1708.582	1288.348
30.994	13.858	1707.271	1288.218
32.009	13.868	1706.040	1287.253
33.023	13.894	1705.851	1287.201
34.038	13.876	1704.894	1286.225
35.053	13.872	1703.569	1285.080
36.067	13.811	1702.522	1283.707
37.082	13.857	1701.631	1283.278
38.096	13.765	1700.434	1281.545
39.111	13.860	1699.632	1281.563
40.126	13.877	1698.559	1280.774
41.140	13.811	1697.840	1279.611
42.155	13.772	1696.245	1277.992
43.169	13.750	1694.963	1276.743
44.184	13.730	1693.863	1275.647
45.199	13.701	1692.998	1274.660
46.213	13.616	1691.753	1272.956
47.228	13.722	1689.922	1272.284
48.242	13.771	1688.436	1271.426
49.257	13.730	1688.072	1270.721
50.271	13.824	1686.514	1270.159
51.286	13.748	1685.575	1268.759
52.301	13.846	1683.794	1268.057
53.315	13.737	1682.764	1266.334
54.330	13.828	1680.894	1265.512
55.344	13.677	1679.520	1263.210
56.359	13.701	1677.841	1262.016
57.374	13.743	1676.916	1261.535
58.388	13.730	1675.536	1260.282
59.403	13.783	1673.755	1259.231
60.417	13.642	1672.171	1256.859
61.432	13.575	1671.233	1255.541
62.447	13.651	1669.834	1254.951
63.461	13.621	1669.162	1254.105
64.476	13.642	1667.926	1253.231
65.490	13.585	1667.162	1252.110
66.505	13.581	1665.544	1250.755
67.520	13.656	1663.829	1249.925
68.534	13.614	1663.509	1249.255
69.549	13.637	1662.224	1248.355
70.563	13.662	1661.235	1247.686
71.578	13.633	1659.721	1246.220
72.593	13.673	1658.135	1245.221
73.607	13.675	1657.148	1244.387
74.622	13.544	1656.572	1242.863
75.636	13.571	1655.747	1242.332
76.651	13.594	1654.523	1241.478
77.666	13.550	1653.783	1240.486
78.680	13.600	1652.738	1239.961
79.695	13.543	1651.545	1238.535
80.709	13.544	1650.564	1237.698
81.724	13.582	1649.883	1237.355
82.739	13.721	1648.415	1237.184
83.753	13.628	1648.063	1236.121
84.768	13.747	1646.699	1235.871
85.782	13.729	1646.156	1235.222
86.797	13.821	1645.158	1235.047
87.812	13.767	1644.137	1233.767
88.826	13.737	1642.643	1232.317
89.841	13.730	1641.582	1231.358
90.855	13.643	1640.950	1230.132
91.870	13.728	1639.629	1229.661
92.884	13.766	1638.586	1229.054
93.899	13.825	1637.498	1228.566
94.914	13.879	1635.667	1227.478
95.928	13.834	1634.640	1226.266
96.943	13.771	1633.704	1224.991
97.957	13.833	1632.444	1224.395
98.972	13.846	1630.732	1223.098
99.987	13.873	1628.872	1221.799
101.001	13.786	1627.714	1220.180
102.016	13.821	1626.046	1219.081
103.030	13.783	1625.065	1217.958
104.045	13.829	1623.536	1217.038
105.060	13.745	1622.249	1215.354
106.074	13.783	1620.647	1214.322
107.089	13.724	1619.420	1212.865
108.103	13.681	1617.467	1210.980
109.118	13.626	1616.721	1209.912
110.133	13.599	1615.135	1208.421
111.147	13.682	1613.445	1207.654
112.162	13.611	1612.561	1206.369
113.176	13.650	1610.683	1205.146
114.191	13.734	1609.072	1204.438
115.206	13.764	1608.073	1203.805
116.220	13.784	1606.772	1202.869
117.235	13.772	1605.276	1201.558
118.249	13.802	1604.069	1200.761
119.264	13.770	1602.687	1199.390
120.279	13.674	1601.287	1197.546
121.293	13.665	1600.031	1196.430
122.308	13.746	1598.358	1195.661
123.322	13.695	1596.893	1194.095
124.337	13.708	1595.184	1192.800
125.352	13.631	1594.040	1191.285
126.366	13.650	1592.643	1190.272
127.381	13.720	1591.288	1189.659
128.395	13.677	1590.175	1188.416
129.410	13.755	1588.746	1187.801
130.424	13.698	1587.291	1186.200
131.439	13.709	1586.236	1185.380
132.454	13.636	1584.635	1183.558
133.468	13.686	1583.695	1183.110
134.483	13.722	1581.752	1181.812
135.497	13.779	1579.598	1180.503
136.512	13.784	1578.781	1179.822
137.527	13.713	1577.553	1178.294
138.541	13.722	1576.178	1177.229
139.556	13.829	1574.811	1176.859
140.570	13.853	1573.491	1175.944
141.585	13.820	1572.011	1174.500
142.600	13.857	1570.889	1173.818
143.614	13.958	1569.496	1173.387
144.629	13.934	1568.630	1172.463
145.643	13.991	1567.179	1171.678
146.658	13.987	1565.544	1170.326
147.673	14.031	1564.137	1169.482
148.687	13.917	1563.112	1167.809
149.702	13.942	1560.981	1166.289
150.716	13.936	1559.283	1164.874
151.731	13.935	1558.203	1163.958
152.746	13.919	1557.051	1162.885
153.760	14.005	1555.424	1162.168
154.775	13.959	1554.301	1160.903
155.789	14.001	1553.037	1160.145
156.804	13.982	1551.728	1158.932
157.819	14.007	1551.171	1158.592
158.833	14.055	1548.991	1157.193
159.848	14.011	1548.384	1156.334
160.862	14.155	1546.913	1156.134
161.877	14.170	1545.444	1155.036
162.892	14.102	1544.627	1153.853
163.906	14.010	1543.387	1152.185
164.921	14.034	1541.873	1151.118
165.935	13.988	1540.959	1150.017
166.950	14.136	1539.609	1149.931
167.964	14.115	1538.694	1149.002
168.979	14.126	1537.311	1147.943
169.994	14.064	1536.583	1146.867
171.008	14.185	1535.430	1146.740
172.023	14.159	1534.442	1145.721
173.037	14.177	1533.098	1144.743
174.052	14.186	1531.930	1143.834
175.067	14.242	1530.734	1143.219
176.081	14.219	1529.358	1141.934
177.096	14.154	1528.281	1140.582
178.110	14.152	1527.132	1139.612
179.125	14.197	1525.792	1138.822
180.140	14.240	1524.613	1138.131
181.154	14.225	1523.775	1137.305
182.169	14.153	1522.673	1135.887
183.183	14.263	1521.422	1135.609
184.198	14.265	1520.232	1134.630
185.213	14.336	1519.047	1134.126
186.227	14.356	1517.752	1133.197
187.242	14.430	1516.714	1132.827
188.256	14.324	1515.953	1131.438
189.271	14.368	1514.205	1130.329
190.286	14.452	1513.315	1130.136
191.300	14.460	1512.583	1129.543
192.315	14.286	1511.086	1127.149
193.329	14.183	1509.815	1125.403
194.344	14.225	1508.517	1124.621
195.359	14.242	1507.344	1123.763
196.373	14.358	1506.430	1123.763
197.388	14.380	1505.213	1122.900
198.402	14.513	1503.960	1122.764
199.417	14.561	1503.030	1122.294
200.432	14.541	1501.565	1120.969
201.446	14.501	1500.786	1120.019
202.461	14.628	1499.516	1119.825
203.475	14.593	1498.370	1118.632
204.490	14.621	1497.653	1118.184
205.504	14.677	1496.142	1117.332
206.519	14.617	1495.358	1116.248
207.534	14.625	1493.733	1114.990
208.548	14.523	1492.668	1113.417
209.563	14.605	1491.386	1112.907
210.577	14.610	1490.718	1112.344
211.592	14.623	1490.323	1112.036
212.607	14.666	1489.350	1111.498
213.621	14.769	1488.233	1111.251
214.636	14.751	1487.351	1110.377
215.650	14.730	1486.633	1109.603
216.665	14.754	1485.604	1108.895
217.680	14.743	1484.545	1107.932
218.694	14.796	1483.827	1107.651
219.709	14.821	1482.720	1106.893
220.723	14.830	1482.063	1106.362
221.738	14.788	1480.971	1105.174
222.753	14.822	1480.185	1104.710
223.767	14.859	1478.679	1103.734
224.782	14.782	1478.500	1102.998
225.796	14.896	1476.878	1102.438
226.811	14.884	1476.176	1101.737
227.826	14.916	1475.619	1101.440
228.840	15.014	1474.487	1101.139
229.855	14.824	1473.993	1099.420
230.869	14.929	1472.953	1099.243
231.884	14.912	1471.915	1098.256
232.899	14.930	1470.406	1097.151
233.913	14.843	1469.570	1095.864
234.928	14.844	1468.330	1094.844
235.942	14.976	1467.283	1094.832
236.957	14.877	1465.997	1093.131
237.972	14.932	1464.600	1092.348
238.986	14.956	1463.435	1091.543
240.001	14.934	1462.844	1090.860
241.015	15.035	1461.675	1090.550
242.030	14.994	1460.593	1089.379
243.045	15.008	1459.778	1088.763
244.059	15.022	1458.547	1087.841
245.074	15.061	1457.740	1087.395
246.088	15.081	1457.169	1087.002
247.103	15.216	1456.060	1086.959
248.117	15.167	1455.498	1086.127
249.132	15.171	1454.919	1085.622
250.147	15.215	1454.047	1085.158
251.161	15.250	1453.286	1084.720
252.176	15.281	1452.735	1084.418
253.190	15.289	1451.976	1083.802
254.205	15.328	1450.825	1083.101
255.220	15.345	1449.930	1082.448
256.234	15.394	1449.199	1082.123
257.249	15.384	1448.375	1081.345
258.263	15.353	1447.669	1080.522
259.278	15.388	1446.709	1079.939
260.293	15.555	1445.430	1079.959
261.307	15.547	1444.432	1079.069
262.322	15.433	1444.325	1078.163
263.336	15.526	1443.082	1077.732
264.351	15.561	1441.914	1076.989
265.366	15.571	1441.166	1076.402
266.380	15.723	1439.740	1076.213
267.395	15.554	1439.134	1074.585
268.409	15.594	1438.327	1074.140
269.424	15.635	1436.900	1073.242
270.439	15.553	1436.258	1072.146
271.453	15.675	1434.896	1071.812
272.468	15.640	1434.094	1070.895
273.482	15.600	1433.739	1070.278
274.497	15.619	1432.697	1069.527
275.512	15.643	1432.222	1069.231
276.526	15.615	1431.048	1068.084
277.541	15.630	1429.687	1067.070
278.555	15.766	1428.830	1067.195
279.570	15.645	1428.460	1066.060
280.585	15.762	1427.192	1065.762
281.599	15.814	1426.824	1065.720
282.614	15.799	1425.361	1064.439
283.628	15.872	1424.087	1063.854
284.643	15.777	1423.348	1062.604
285.657	15.708	1422.727	1061.613
286.672	15.762	1421.739	1061.125
287.687	15.904	1419.994	1060.620
288.701	15.697	1419.687	1058.998
289.716	15.903	1418.404	1059.242
290.730	15.930	1417.264	1058.466
291.745	15.922	1416.519	1057.766
292.760	15.895	1415.593	1056.811
293.774	15.874	1414.546	1055.805
294.789	15.946	1413.352	1055.268
295.803	16.013	1413.142	1055.437
296.818	15.961	1412.053	1054.209
297.833	15.982	1411.041	1053.487
298.847	15.910	1410.447	1052.504
299.862	15.938	1408.908	1051.436
300.876	15.981	1408.451	1051.271
301.891	15.930	1407.567	1050.200
302.906	16.054	1406.016	1049.722
303.920	16.209	1405.175	1049.962
304.935	16.221	1404.468	1049.421
305.949	16.082	1404.257	1048.307
306.964	16.227	1403.084	1048.235
307.979	16.188	1402.338	1047.342
308.993	16.205	1401.222	1046.525
310.008	16.163	1400.623	1045.725
311.022	16.284	1399.093	1045.238
312.037	16.193	1398.682	1044.274
313.052	16.256	1397.808	1043.922
314.066	16.199	1396.606	1042.575
315.081	16.263	1395.433	1042.005
316.095	16.193	1394.433	1040.734
317.110	16.239	1393.359	1040.122
318.125	16.267	1392.420	1039.504
319.139	16.271	1391.382	1038.658
320.154	16.204	1390.826	1037.743
321.168	16.311	1389.568	1037.366
322.183	16.323	1388.577	1036.609
323.197	16.279	1387.410	1035.378
324.212	16.364	1386.587	1035.193
325.227	16.322	1385.732	1034.206
326.241	16.368	1385.222	1034.017
327.256	16.363	1384.217	1033.145
328.270	16.319	1383.412	1032.183
329.285	16.313	1382.632	1031.471
330.300	16.375	1381.729	1031.086
331.314	16.401	1380.559	1030.280
332.329	16.372	1379.864	1029.491
333.343	16.432	1378.437	1028.704
334.358	16.403	1377.686	1027.875
335.373	16.416	1377.142	1027.458
336.387	16.476	1376.319	1027.117
337.402	16.546	1375.374	1026.746
338.416	16.494	1374.457	1025.655
339.431	16.671	1373.631	1026.020
340.446	16.682	1373.221	1025.687
341.460	16.613	1372.236	1024.447
342.475	16.622	1371.339	1023.741
343.489	16.663	1370.654	1023.388
344.504	16.671	1369.455	1022.446
345.519	16.699	1368.513	1021.822
346.533	16.722	1367.446	1021.075
347.548	16.855	1366.399	1021.001
348.562	16.748	1366.087	1020.035
349.577	16.835	1364.986	1019.646
350.592	16.837	1363.981	1018.820
351.606	16.767	1363.355	1017.843
352.621	16.666	1362.382	1016.418
353.635	16.774	1361.176	1016.073
354.650	16.733	1360.298	1015.081
355.665	16.709	1359.529	1014.276
356.679	16.789	1358.051	1013.563
357.694	16.778	1357.346	1012.883
358.708	16.816	1355.950	1011.975
359.723	16.834	1355.012	1011.297
360.738	16.851	1353.951	1010.514
361.752	16.904	1352.878	1009.938
362.767	16.905	1352.333	1009.448
363.781	16.892	1350.894	1008.212
364.796	16.887	1350.462	1007.768
365.810	16.913	1349.780	1007.323
366.825	16.982	1348.492	1006.687
367.840	16.977	1348.294	1006.419
368.854	17.049	1347.261	1005.985
369.869	17.158	1346.664	1006.095
370.883	17.069	1346.452	1005.320
371.898	17.110	1345.563	1004.809
372.913	17.110	1343.965	1003.528
373.927	17.129	1343.460	1003.175
374.942	17.187	1343.008	1003.093
375.956	17.175	1341.904	1002.107
376.971	17.119	1341.473	1001.368
377.986	17.117	1340.554	1000.579
379.000	17.085	1339.907	999.816
380.015	17.207	1338.682	999.537
381.029	17.250	1338.109	999.269
382.044	17.272	1337.295	998.703
383.059	17.355	1336.599	998.584
384.073	17.287	1336.309	997.880
385.088	17.365	1335.083	997.334
386.102	17.364	1334.602	996.879
387.117	17.410	1333.681	996.373
388.132	17.386	1332.916	995.570
389.146	17.340	1332.538	994.935
390.161	17.398	1331.737	994.585
391.175	17.301	1331.005	993.381
392.190	17.419	1329.758	993.052
393.205	17.396	1329.149	992.380
394.219	17.365	1328.090	991.321
395.234	17.448	1326.458	990.497
396.248	17.541	1325.379	990.141
397.263	17.473	1323.861	988.529
398.278	17.548	1322.528	987.878
399.292	17.490	1321.684	986.825
400.307	17.448	1320.590	985.677
401.321	17.474	1319.856	985.195
402.336	17.561	1318.810	984.828
403.350	17.502	1317.542	983.454
404.365	17.616	1316.136	982.972
405.380	17.556	1315.453	982.030
406.394	17.545	1315.089	981.610
407.409	17.508	1314.559	980.914
408.423	17.701	1313.326	981.017
409.438	17.701	1312.907	980.619
410.453	17.684	1312.144	979.861
411.467	17.769	1311.019	979.427
412.482	17.757	1310.564	978.928
413.496	17.704	1309.836	977.993
414.511	17.793	1309.122	977.883
415.526	17.744	1308.715	977.212
416.540	17.823	1307.653	976.788
417.555	17.894	1306.611	976.327
418.569	17.911	1306.789	976.474
419.584	17.907	1305.943	975.728
420.599	17.869	1305.164	974.845
421.613	101.686	1363.260	1490.729
422.628	100.000	1371.631	1490.803
