DTS Sentinel unit serial number:	SN413079Multiplexer serial number:	ORYXHardware model number:	OX4-SRSoftware version number:	ORYX F/W v4.00 Oryx Data Collector v3.7.2.0data status	okinstallation	princeton_trtdifferential loss correction	single-endedforward channel	channel 4reverse channel	N/Adate	2019/09/18time	10:13:35forward acquisition time	60.00reverse acquisition time	0.00gamma	496.2192k internal	0.2319k external	0.2319temperature offset calibration	0.9983default loss term (dB/km)	0.3790temperature slope calibration	1.0000multiplexer offset coefficient	1.0000multiplexer slope coefficient	1.0000fibre end	0.00T internal ref (°C)	27.87T ext. ref 1 (°C)	0.32T ext. ref 2 (°C)	24.19length (m)	temperature (°C)	Stokes	anti-Stokes-747.200	-200.000	-0.004	0.149
-746.185	-200.000	0.004	0.343
-745.171	-155.853	0.394	-0.025
-744.156	425.567	-0.095	0.207
-743.142	-73.115	-0.355	0.132
-742.127	212.595	0.076	0.121
-741.112	391.107	-0.070	-0.147
-740.098	64.444	0.144	0.147
-739.083	800.000	0.083	0.280
-738.069	264.313	0.028	0.050
-737.054	443.795	0.047	0.105
-736.039	128.481	0.314	-0.405
-735.025	-79.657	0.381	0.130
-734.010	-115.821	-0.258	-0.049
-732.996	-4.934	-0.316	-0.220
-731.981	97.791	0.191	-0.222
-730.966	106.493	0.070	0.084
-729.952	5.340	-0.283	-0.211
-728.937	371.308	-0.102	0.208
-727.923	-200.000	-0.032	-0.168
-726.908	105.279	-0.063	0.075
-725.894	52.596	0.201	-0.194
-724.879	-33.962	-0.395	-0.220
-723.864	-72.514	-0.408	-0.152
-722.850	-83.496	-0.197	0.064
-721.835	-31.705	-0.130	-0.074
-720.821	83.938	-0.132	-0.146
-719.806	79.383	-0.148	-0.161
-718.791	-78.899	-0.119	-0.041
-717.777	-66.570	-0.256	-0.103
-716.762	-69.816	-0.081	-0.031
-715.748	-180.763	-0.219	-0.004
-714.733	147.194	-0.161	0.219
-713.718	710.493	-0.131	-0.349
-712.704	-200.000	-0.000	-0.449
-711.689	-60.383	-0.373	-0.160
-710.675	-153.592	-0.139	0.010
-709.660	-31.543	0.179	-0.102
-708.645	81.366	-0.189	0.206
-707.631	-127.197	-0.268	-0.040
-706.616	230.535	-0.183	0.303
-705.602	140.869	-0.179	-0.239
-704.587	416.107	0.025	-0.055
-703.572	370.416	-0.018	-0.038
-702.558	-19.892	-0.313	-0.195
-701.543	800.000	-0.056	-0.195
-700.529	205.349	-0.093	-0.146
-699.514	-35.606	-0.168	0.092
-698.499	67.875	-0.074	-0.076
-697.485	-32.462	-0.100	-0.057
-696.470	800.000	-0.085	-0.287
-695.456	238.735	-0.095	-0.160
-694.441	38.111	-0.091	-0.082
-693.426	138.590	-0.152	0.201
-692.412	63.683	-0.310	0.314
-691.397	-160.502	-0.196	-0.011
-690.383	-15.785	0.056	0.036
-689.368	800.000	-0.068	0.218
-688.354	35.994	-0.186	-0.165
-687.339	-100.474	0.127	-0.032
-686.324	-85.919	-0.240	-0.075
-685.310	324.643	0.152	-0.293
-684.295	-39.709	-0.196	-0.104
-683.281	60.655	-0.065	-0.065
-682.266	-109.984	-0.294	-0.062
-681.251	-200.000	-0.002	0.214
-680.237	150.487	-0.044	-0.060
-679.222	-57.429	0.026	-0.012
-678.208	-152.721	0.038	0.003
-677.193	800.000	0.073	-0.244
-676.178	-200.000	0.023	-0.182
-675.164	-60.717	-0.123	0.053
-674.149	654.017	0.061	-0.158
-673.135	-140.204	-0.082	0.009
-672.120	-76.866	-0.067	0.024
-671.105	800.000	-0.019	0.062
-670.091	800.000	0.025	0.108
-669.076	-2.866	0.279	0.197
-668.062	65.928	-0.080	-0.082
-667.047	-35.117	-0.265	-0.146
-666.032	-16.593	-0.300	-0.192
-665.018	-200.000	0.004	0.289
-664.003	163.403	-0.072	0.102
-662.989	-200.000	-0.041	0.285
-661.974	800.000	-0.084	0.313
-660.959	-34.585	-0.109	-0.060
-659.945	-143.373	-0.177	-0.017
-658.930	-136.753	0.293	0.034
-657.916	-56.921	-0.079	-0.035
-656.901	-200.000	-0.037	0.315
-655.886	-200.000	-0.008	-0.316
-654.872	190.738	-0.135	-0.205
-653.857	-127.327	0.231	-0.034
-652.843	-200.000	-0.031	-0.138
-651.828	-200.000	0.014	-0.229
-650.814	-129.233	0.283	0.040
-649.799	-131.380	-0.321	-0.043
-648.784	-49.716	-0.242	-0.116
-647.770	34.450	0.323	-0.284
-646.755	-13.417	-0.086	0.056
-645.741	78.362	-0.057	0.061
-644.726	-146.247	0.116	-0.010
-643.711	97.692	-0.109	-0.126
-642.697	396.781	-0.167	-0.352
-641.682	-3.137	-0.171	-0.120
-640.668	-124.088	-0.159	0.025
-639.653	-124.490	-0.250	0.039
-638.638	-200.000	-0.006	-0.096
-637.624	284.880	0.129	-0.234
-636.609	258.946	-0.051	-0.088
-635.595	163.495	-0.199	0.282
-634.580	-112.249	0.085	-0.017
-633.565	-79.483	-0.183	0.062
-632.551	-1.209	0.220	0.157
-631.536	-26.100	0.420	-0.249
-630.522	156.961	0.114	0.159
-629.507	707.322	-0.035	-0.093
-628.492	376.184	-0.065	0.133
-627.478	-200.000	0.029	-0.436
-626.463	-200.000	-0.015	0.342
-625.449	191.727	-0.129	-0.196
-624.434	-180.222	0.206	-0.004
-623.419	21.002	-0.229	0.187
-622.405	-73.720	-0.128	0.047
-621.390	800.000	0.124	-0.354
-620.376	38.353	-0.105	0.094
-619.361	-48.585	0.158	0.077
-618.346	800.000	-0.069	-0.229
-617.332	16.656	0.093	0.074
-616.317	-200.000	-0.002	0.042
-615.303	-75.150	-0.379	0.136
-614.288	84.353	-0.149	0.164
-613.273	-2.172	-0.129	-0.091
-612.259	-74.990	0.198	-0.071
-611.244	-103.292	0.256	0.061
-610.230	-127.518	-0.093	0.014
-609.215	-97.588	0.335	0.088
-608.201	536.003	-0.028	-0.067
-607.186	-200.000	0.059	0.265
-606.171	283.492	-0.101	0.183
-605.157	-118.580	-0.409	-0.073
-604.142	-25.331	0.188	-0.112
-603.128	-200.000	0.011	-0.136
-602.113	-119.287	0.409	-0.072
-601.098	-41.603	-0.194	0.101
-600.084	471.035	0.052	0.119
-599.069	134.593	0.030	0.040
-598.055	-200.000	-0.009	-0.069
-597.040	-65.032	-0.045	0.018
-596.025	-42.106	-0.251	-0.129
-595.011	-81.792	-0.127	0.042
-593.996	-200.000	-0.093	-0.573
-592.982	94.969	-0.039	-0.045
-591.967	800.000	0.046	0.187
-590.952	278.220	0.133	0.239
-589.938	-55.252	0.147	-0.066
-588.923	26.167	0.130	0.109
-587.909	177.018	-0.060	0.087
-586.894	106.231	-0.213	-0.253
-585.879	-41.544	0.262	0.136
-584.865	-62.251	-0.116	0.049
-583.850	-4.712	0.221	0.154
-582.836	-200.000	0.061	-0.289
-581.821	14.268	0.349	0.274
-580.806	-200.000	0.014	0.170
-579.792	-113.699	0.378	-0.074
-578.777	-31.052	0.270	0.153
-577.763	-82.497	-0.155	-0.051
-576.748	453.911	-0.044	-0.098
-575.733	-200.000	-0.017	-0.107
-574.719	124.967	0.028	0.036
-573.704	187.938	-0.113	-0.169
-572.690	83.592	-0.038	0.041
-571.675	800.000	0.081	-0.331
-570.661	-60.766	0.144	-0.061
-569.646	191.171	-0.240	-0.362
-568.631	309.289	-0.110	-0.207
-567.617	107.663	-0.215	-0.257
-566.602	-61.141	-0.103	-0.044
-565.588	-157.366	0.109	0.007
-564.573	-57.182	0.175	-0.077
-563.558	-8.160	0.037	-0.025
-562.544	429.724	-0.163	-0.354
-561.529	179.589	0.193	0.283
-560.515	-101.957	-0.160	-0.039
-559.500	28.854	0.154	-0.131
-558.485	-200.000	0.008	0.109
-557.471	-44.709	-0.128	-0.064
-556.456	675.045	0.122	-0.318
-555.442	-155.512	0.239	0.016
-554.427	-31.016	-0.050	0.028
-553.412	-65.268	-0.022	-0.009
-552.398	-200.000	0.002	0.261
-551.383	-85.256	-0.315	0.099
-550.369	26.377	-0.239	0.200
-549.354	317.683	-0.052	-0.099
-548.339	-180.600	-0.119	0.002
-547.325	800.000	-0.044	-0.187
-546.310	229.067	-0.008	-0.014
-545.296	54.650	-0.046	-0.045
-544.281	247.284	-0.021	-0.035
-543.266	-200.000	0.025	0.140
-542.252	213.102	-0.051	-0.081
-541.237	126.421	-0.283	-0.359
-540.223	333.719	-0.080	-0.156
-539.208	800.000	0.086	-0.332
-538.193	173.495	0.146	-0.212
-537.179	144.214	0.222	-0.298
-536.164	800.000	0.073	0.244
-535.150	-44.623	0.134	0.067
-534.135	125.872	-0.227	0.287
-533.121	-200.000	-0.010	0.085
-532.106	-183.667	-0.143	0.002
-531.091	396.570	0.133	-0.278
-530.077	-100.391	0.339	0.084
-529.062	800.000	0.067	0.241
-528.048	-12.646	0.074	-0.048
-527.033	335.575	-0.133	0.258
-526.018	601.531	0.128	-0.320
-525.004	-200.000	0.012	-0.131
-523.989	-20.135	-0.074	-0.046
-522.975	-150.797	-0.262	0.020
-521.960	8.336	0.250	-0.189
-520.945	253.872	0.122	-0.209
-519.931	-125.539	-0.504	-0.077
-518.916	-86.340	-0.289	-0.089
-517.902	84.298	0.131	0.144
-516.887	-47.030	-0.178	0.087
-515.872	11.917	-0.046	0.036
-514.858	-120.841	-0.167	-0.028
-513.843	-55.596	0.375	0.168
-512.829	286.567	0.046	0.083
-511.814	60.739	0.108	0.107
-510.799	-130.660	-0.258	-0.035
-509.785	298.376	-0.131	-0.241
-508.770	-96.613	-0.222	0.059
-507.756	-98.852	-0.402	-0.102
-506.741	800.000	0.020	-0.082
-505.726	462.754	-0.107	0.239
-504.712	-200.000	-0.023	0.212
-503.697	99.082	-0.081	0.094
-502.683	219.838	0.128	0.205
-501.668	-134.382	0.304	-0.037
-500.653	181.229	0.088	-0.130
-499.639	-155.793	0.302	0.019
-498.624	46.657	0.093	-0.086
-497.610	451.436	-0.119	0.265
-496.595	9.541	-0.244	0.185
-495.581	-138.450	-0.202	-0.022
-494.566	800.000	-0.055	-0.186
-493.551	147.426	0.369	-0.497
-492.537	154.580	-0.193	-0.266
-491.522	610.458	0.029	0.072
-490.508	-53.528	0.032	-0.015
-489.493	89.886	-0.146	-0.164
-488.478	800.000	-0.040	0.114
-487.464	448.926	0.075	0.165
-486.449	800.000	-0.097	-0.320
-485.435	30.846	-0.106	-0.091
-484.420	515.309	0.084	0.198
-483.405	165.683	-0.059	-0.083
-482.391	128.552	-0.168	0.214
-481.376	143.802	-0.107	0.143
-480.362	-200.000	0.012	-0.256
-479.347	-122.396	-0.308	-0.050
-478.332	-126.546	-0.077	0.012
-477.318	-6.485	-0.229	-0.157
-476.303	800.000	0.049	0.198
-475.289	18.753	0.033	-0.027
-474.274	760.515	-0.016	0.042
-473.259	-187.856	-0.153	-0.002
-472.245	800.000	-0.036	-0.135
-471.230	-132.816	-0.272	-0.035
-470.216	160.424	-0.149	0.209
-469.201	-92.533	0.070	0.020
-468.186	-200.000	0.017	0.238
-467.172	108.049	-0.104	0.124
-466.157	687.141	0.079	0.207
-465.143	-200.000	0.026	-0.202
-464.128	-32.184	-0.287	0.161
-463.113	-48.630	0.090	-0.043
-462.099	250.197	-0.133	0.226
-461.084	425.464	0.120	-0.259
-460.070	607.407	-0.032	0.080
-459.055	-157.249	-0.097	0.006
-458.040	296.509	-0.094	-0.173
-457.026	88.310	-0.146	0.163
-456.011	-39.025	-0.290	-0.152
-454.997	-200.000	-0.027	0.156
-453.982	387.268	-0.110	0.227
-452.968	-178.848	0.134	0.003
-451.953	-21.457	-0.256	-0.156
-450.938	-71.407	0.268	-0.100
-449.924	81.150	0.331	0.357
-448.909	-94.358	-0.048	0.013
-447.895	-13.383	-0.223	0.144
-446.880	-200.000	-0.050	-0.364
-445.865	-128.281	-0.217	0.031
-444.851	-106.507	0.151	0.034
-443.836	154.941	0.060	-0.082
-442.822	-200.000	-0.017	0.161
-441.807	568.776	0.158	0.384
-440.792	54.574	-0.207	0.200
-439.778	4.478	0.171	0.126
-438.763	-88.276	-0.267	-0.080
-437.749	800.000	0.101	0.288
-436.734	597.203	-0.072	0.178
-435.719	-200.000	-0.024	0.218
-434.705	-60.544	-0.279	-0.118
-433.690	-87.615	-0.166	-0.050
-432.676	800.000	0.103	-0.318
-431.661	-78.216	-0.325	-0.112
-430.646	762.931	0.048	-0.131
-429.632	50.228	-0.053	-0.050
-428.617	169.609	-0.162	0.232
-427.603	-37.120	-0.132	0.070
-426.588	800.000	-0.091	-0.295
-425.573	-200.000	0.027	-0.676
-424.559	7.983	-0.166	-0.124
-423.544	72.267	-0.186	0.194
-422.530	104.277	0.135	0.159
-421.515	360.982	0.147	-0.293
-420.500	-82.857	0.145	0.047
-419.486	-128.682	0.184	-0.026
-418.471	176.501	-0.201	-0.292
-417.457	146.702	-0.086	0.116
-416.442	-7.175	0.099	0.067
-415.428	-35.995	-0.154	0.083
-414.413	703.751	-0.070	0.185
-413.398	311.961	0.055	0.104
-412.384	-81.038	0.155	-0.051
-411.369	800.000	0.030	-0.120
-410.355	-200.000	0.011	0.144
-409.340	-128.577	-0.256	0.036
-408.325	-98.815	-0.129	0.033
-407.311	-80.649	-0.295	-0.098
-406.296	-28.422	-0.158	-0.091
-405.282	800.000	-0.097	0.357
-404.267	2.471	0.208	-0.150
-403.252	-14.770	0.294	-0.189
-402.238	97.677	0.080	-0.092
-401.223	-77.851	0.205	-0.071
-400.209	-144.828	0.096	-0.009
-399.194	282.667	0.138	0.248
-398.179	795.372	-0.111	0.306
-397.165	50.158	0.217	0.205
-396.150	134.933	0.063	-0.082
-395.136	217.972	0.063	-0.100
-394.121	-24.253	0.131	-0.078
-393.106	71.567	-0.095	0.098
-392.092	-103.460	-0.337	0.079
-391.077	-60.130	0.109	-0.046
-390.063	800.000	0.051	0.208
-389.048	591.343	-0.185	0.456
-388.033	-178.130	-0.324	0.008
-387.019	-120.417	-0.127	0.022
-386.004	-97.993	0.128	-0.033
-384.990	328.755	0.089	0.171
-383.975	1.143	-0.133	0.096
-382.960	-63.672	0.261	-0.107
-381.946	338.044	-0.132	-0.256
-380.931	18.609	0.187	-0.149
-379.917	-60.719	-0.344	0.146
-378.902	409.493	0.170	0.359
-377.888	-54.904	0.278	-0.125
-376.873	-87.645	-0.266	0.080
-375.858	-78.926	-0.249	-0.084
-374.844	538.807	-0.063	0.151
-373.829	513.379	-0.097	0.226
-372.815	110.715	-0.264	-0.317
-371.800	-200.000	-0.012	0.130
-370.785	-151.241	-0.237	-0.018
-369.771	289.253	0.101	0.182
-368.756	-73.967	-0.080	-0.029
-367.742	800.000	0.102	0.314
-366.727	-110.097	0.041	0.009
-365.712	800.000	-0.022	0.062
-364.698	301.846	-0.248	-0.458
-363.683	-104.639	-0.164	0.038
-362.669	272.002	-0.071	0.126
-361.654	800.000	-0.034	0.147
-360.639	800.000	-0.080	0.303
-359.625	-178.489	-0.343	-0.008
-358.610	-78.301	0.388	0.133
-357.596	305.061	-0.084	0.156
-356.581	329.171	0.081	0.155
-355.566	482.691	-0.179	0.405
-354.552	-200.000	0.016	-0.197
-353.537	-200.000	-0.043	-0.257
-352.523	-200.000	0.037	0.240
-351.508	-200.000	-0.034	-0.231
-350.493	-200.000	0.031	-0.205
-349.479	702.872	0.062	-0.161
-348.464	-87.938	0.326	0.098
-347.450	-7.969	0.399	0.268
-346.435	98.188	0.055	-0.063
-345.420	-200.000	-0.044	0.387
-344.406	81.712	0.265	-0.286
-343.391	89.619	-0.079	-0.088
-342.377	-50.662	0.177	0.083
-341.362	110.575	0.181	0.217
-340.348	257.063	0.040	-0.068
-339.333	117.117	0.157	-0.193
-338.318	800.000	-0.088	-0.279
-337.304	-123.602	-0.135	0.021
-336.289	728.382	-0.030	0.080
-335.275	-112.379	0.128	0.026
-334.260	-88.639	0.141	-0.042
-333.245	264.022	-0.009	0.016
-332.231	2.030	0.298	-0.214
-331.216	176.173	-0.069	0.099
-330.202	800.000	0.028	-0.079
-329.187	96.893	0.286	0.327
-328.172	-29.694	0.089	0.050
-327.158	304.354	0.075	0.139
-326.143	19.924	0.250	0.200
-325.129	-4.492	0.146	0.101
-324.114	15.863	-0.128	0.100
-323.099	-200.000	0.021	-0.146
-322.085	-200.000	-0.007	-0.093
-321.070	16.164	-0.055	0.044
-320.056	23.583	-0.278	0.228
-319.041	-39.962	0.208	-0.108
-318.026	620.217	0.017	0.042
-317.012	-200.000	0.000	0.015
-315.997	489.624	-0.117	0.266
-314.983	80.103	0.135	0.144
-313.968	-42.216	0.297	-0.151
-312.953	-200.000	-0.015	-0.123
-311.939	47.775	-0.064	0.059
-310.924	-30.865	0.347	-0.195
-309.910	75.188	0.288	0.302
-308.895	374.781	-0.030	-0.060
-307.880	-34.922	0.173	-0.094
-306.866	17.900	-0.061	-0.048
-305.851	79.600	-0.134	-0.143
-304.837	-58.127	0.169	0.073
-303.822	620.510	-0.080	0.201
-302.807	-200.000	0.013	0.412
-301.793	-200.000	0.013	-0.343
-300.778	18.687	-0.236	-0.188
-299.764	-24.861	0.286	-0.169
-298.749	-200.000	0.009	0.197
-297.735	800.000	-0.070	-0.299
-296.720	100.705	-0.307	-0.354
-295.705	605.562	-0.030	-0.075
-294.691	800.000	0.022	0.091
-293.676	-44.707	0.440	-0.219
-292.662	800.000	0.178	0.507
-291.647	379.907	-0.146	-0.298
-290.632	116.631	-0.334	-0.407
-289.618	-51.194	0.102	-0.047
-288.603	-114.974	0.147	0.028
-287.589	155.554	-0.036	0.050
-286.574	283.724	0.052	-0.093
-285.559	418.110	0.127	-0.271
-284.545	-109.264	0.294	0.062
-283.530	800.000	0.084	-0.351
-282.516	21.539	-0.075	0.061
-281.501	359.871	0.115	-0.229
-280.486	-24.140	0.170	0.101
-279.472	11.820	0.079	-0.060
-278.457	-200.000	0.023	0.167
-277.443	160.012	0.067	0.093
-276.428	-200.000	0.000	-0.041
-275.413	-200.000	-0.006	0.031
-274.399	-87.646	-0.119	-0.036
-273.384	79.830	0.070	0.075
-272.370	-54.781	-0.149	0.067
-271.355	-105.021	-0.236	0.054
-270.340	317.238	-0.038	0.072
-269.326	7.150	0.074	-0.055
-268.311	-200.000	0.064	-0.391
-267.297	-200.000	-0.002	0.067
-266.282	-10.416	0.172	0.113
-265.267	652.947	0.115	-0.293
-264.253	15.739	-0.168	0.131
-263.238	-200.000	0.027	0.221
-262.224	518.271	0.096	0.224
-261.209	-152.403	-0.134	0.010
-260.195	-200.000	0.003	-0.184
-259.180	-28.925	0.237	-0.135
-258.165	-200.000	-0.033	0.162
-257.151	45.909	-0.086	0.079
-256.136	78.040	-0.109	-0.116
-255.122	-39.223	0.234	0.122
-254.107	-30.187	0.179	0.101
-253.092	578.816	0.156	-0.379
-252.078	-200.000	0.003	-0.068
-251.063	233.064	0.041	-0.066
-250.049	39.789	-0.138	-0.123
-249.034	39.616	0.036	-0.032
-248.019	178.184	-0.123	-0.179
-247.005	-141.229	0.173	0.017
-245.990	-46.530	0.212	0.103
-244.976	800.000	-0.043	0.187
-243.961	-200.000	-0.028	-0.155
-242.946	80.018	0.061	-0.065
-241.932	-11.355	0.071	-0.046
-240.917	-181.160	0.298	0.006
-239.903	70.581	0.145	-0.148
-238.888	800.000	0.144	-0.420
-237.873	-146.611	0.450	0.039
-236.859	65.298	0.133	0.134
-235.844	752.611	0.137	0.368
-234.830	-200.000	0.035	0.160
-233.815	-71.602	0.357	-0.132
-232.800	93.951	0.058	-0.065
-231.786	-154.450	-0.177	-0.012
-230.771	-133.531	0.124	0.015
-229.757	-37.038	-0.187	0.100
-228.742	-200.000	-0.019	-0.107
-227.727	-25.968	0.055	-0.032
-226.713	117.766	-0.170	0.208
-225.698	-200.000	0.012	-0.129
-224.684	47.902	0.083	0.076
-223.669	800.000	-0.069	-0.190
-222.655	102.570	-0.024	0.027
-221.640	-26.032	-0.060	-0.035
-220.625	-200.000	-0.072	0.414
-219.611	-67.618	0.178	-0.069
-218.596	140.830	-0.302	-0.395
-217.582	-116.699	0.201	-0.037
-216.567	99.349	0.118	0.135
-215.552	72.076	0.153	-0.157
-214.538	94.838	-0.259	0.292
-213.523	-33.386	0.294	0.161
-212.509	437.121	0.067	0.145
-211.494	-200.000	0.016	0.108
-210.479	225.026	-0.102	0.164
-209.465	125.515	0.223	-0.279
-208.450	725.009	0.071	0.188
-207.436	468.519	0.048	0.107
-206.421	-55.729	-0.129	0.057
-205.406	-200.000	0.032	-0.158
-204.392	-34.584	0.102	-0.055
-203.377	-78.435	0.125	-0.042
-202.363	674.321	0.059	-0.153
-201.348	335.916	0.160	0.307
-200.333	800.000	-0.128	0.451
-199.319	296.390	0.206	0.375
-198.304	-132.746	0.249	-0.031
-197.290	800.000	0.086	-0.241
-196.275	-118.507	0.180	0.032
-195.260	27.522	0.142	0.118
-194.246	21.497	-0.126	-0.101
-193.231	151.035	-0.110	-0.148
-192.217	800.000	-0.055	0.224
-191.202	-43.250	0.330	0.165
-190.187	292.351	-0.056	-0.101
-189.173	800.000	-0.067	0.186
-188.158	-200.000	0.013	-0.258
-187.144	39.418	0.142	-0.126
-186.129	800.000	0.088	0.265
-185.114	-200.000	-0.008	-0.072
-184.100	-200.000	-0.014	-0.088
-183.085	-134.848	0.443	0.053
-182.071	800.000	0.035	-0.111
-181.056	74.939	0.211	0.220
-180.042	-122.127	-0.366	0.059
-179.027	-83.557	0.234	-0.074
-178.012	51.226	-0.167	0.157
-176.998	-200.000	0.002	-0.099
-175.983	-200.000	0.019	-0.172
-174.969	545.634	-0.090	0.212
-173.954	-2.385	0.299	-0.208
-172.939	-64.704	-0.329	0.132
-171.925	88.619	0.184	0.202
-170.910	-200.000	-0.061	0.342
-169.896	-200.000	-0.011	-0.207
-168.881	89.063	0.110	-0.121
-167.866	-15.695	-0.239	0.151
-166.852	234.298	-0.068	0.110
-165.837	304.431	-0.076	0.139
-164.823	94.262	-0.107	-0.120
-163.808	3.931	-0.172	0.124
-162.793	56.625	-0.097	-0.093
-161.779	134.902	-0.062	-0.079
-160.764	404.629	-0.135	0.281
-159.750	-167.961	-0.147	-0.006
-158.735	142.827	0.194	-0.255
-157.720	-200.000	0.025	0.359
-156.706	-200.000	0.044	-0.255
-155.691	-26.940	-0.084	-0.048
-154.677	-46.406	-0.408	-0.198
-153.662	376.731	-0.188	-0.379
-152.647	210.252	-0.145	0.225
-151.633	66.397	-0.270	0.272
-150.618	800.000	0.036	-0.103
-149.604	800.000	0.050	0.150
-148.589	19.897	-0.110	0.088
-147.574	-69.273	-0.077	-0.029
-146.560	-25.926	0.183	0.106
-145.545	592.929	0.062	0.152
-144.531	-88.014	-0.185	-0.055
-143.516	-200.000	-0.004	0.038
-142.502	800.000	0.023	0.070
-141.487	-176.015	-0.519	0.014
-140.472	-73.817	0.345	0.124
-139.458	-87.120	0.217	-0.065
-138.443	-200.000	0.021	0.233
-137.429	-177.374	0.167	-0.004
-136.414	416.344	0.142	0.300
-135.399	-35.717	0.288	-0.154
-134.385	15.311	-0.302	0.234
-133.370	-200.000	0.116	-0.595
-132.356	-24.397	0.216	0.127
-131.341	763.637	0.182	-0.488
-130.326	-200.000	0.015	-0.158
-129.312	-94.006	-0.259	-0.070
-128.297	-130.761	0.070	-0.009
-127.283	-200.000	-0.023	-0.187
-126.268	-158.769	-0.332	-0.019
-125.253	2.170	-0.293	-0.209
-124.239	110.543	-0.166	-0.197
-123.224	112.709	-0.033	-0.040
-122.210	-68.295	0.153	0.059
-121.195	409.939	-0.152	0.319
-120.180	-10.615	0.084	0.055
-119.166	-37.867	-0.223	-0.117
-118.151	-188.562	0.127	-0.002
-117.137	800.000	0.022	0.076
-116.122	-200.000	-0.008	0.115
-115.107	-34.831	0.116	0.063
-114.093	800.000	-0.027	-0.087
-113.078	-200.000	-0.053	0.367
-112.064	281.577	0.038	0.067
-111.049	-82.535	-0.091	-0.029
-110.034	47.526	0.248	-0.228
-109.020	-20.633	0.453	0.275
-108.005	-125.642	-0.303	0.045
-106.991	198.687	-0.163	0.246
-105.976	-200.000	-0.044	0.215
-104.962	-200.000	0.038	-0.257
-103.947	-200.000	0.023	0.222
-102.932	-127.022	-0.251	0.036
-101.918	-67.810	0.159	0.061
-100.903	-9.769	-0.249	0.164
-99.889	-133.067	0.163	0.020
-98.874	12.501	0.130	0.099
-97.859	423.593	0.055	-0.116
-96.845	-82.733	0.149	-0.047
-95.830	2.331	-0.235	0.168
-94.816	-94.601	0.048	-0.013
-93.801	800.000	0.048	0.170
-92.786	800.000	0.019	-0.082
-91.772	-30.743	0.161	0.090
-90.757	-16.241	0.101	0.063
-89.743	330.947	-0.010	-0.019
-88.728	16.480	0.086	0.067
-87.713	-112.304	-0.117	0.023
-86.699	192.598	-0.056	0.084
-85.684	-200.000	0.044	0.320
-84.670	-73.491	0.274	0.099
-83.655	-56.521	0.501	0.219
-82.640	99.893	0.074	0.084
-81.626	6.574	-0.298	-0.219
-80.611	69.501	0.018	0.019
-79.597	-200.000	-0.012	0.068
-78.582	156.042	-0.173	0.235
-77.567	-49.538	-0.263	-0.124
-76.553	-19.104	0.313	0.191
-75.538	800.000	-0.047	-0.136
-74.524	18.930	0.099	0.078
-73.509	252.156	-0.115	0.193
-72.494	-200.000	-0.016	0.185
-71.480	-200.000	0.003	-0.230
-70.465	135.308	-0.399	0.511
-69.451	-72.486	0.294	0.107
-68.436	246.068	-0.048	-0.080
-67.422	-49.950	-0.221	0.103
-66.407	-31.338	0.342	-0.189
-65.392	405.020	-0.083	0.173
-64.378	236.985	-0.102	0.166
-63.363	-51.590	-0.315	0.145
-62.349	-200.000	0.004	0.042
-61.334	163.369	-0.859	-1.190
-60.319	189.616	0.595	0.879
-59.305	253.431	-0.511	-0.860
-58.290	132.915	0.826	1.051
-57.276	160.196	0.942	1.294
-56.261	-200.000	110.298	602.227
-55.246	422.433	1526.302	3227.499
-54.232	139.441	2718.582	3524.107
-53.217	92.813	2360.184	2624.727
-52.203	34.164	2105.057	1807.183
-51.188	29.541	2019.087	1691.092
-50.173	28.165	2001.615	1663.884
-49.159	44.747	2057.751	1863.917
-48.144	44.659	2074.673	1878.349
-47.130	30.150	2034.431	1709.291
-46.115	27.883	2023.482	1679.201
-45.100	27.823	2020.402	1676.031
-44.086	27.812	2018.089	1673.941
-43.071	27.746	2015.437	1671.072
-42.057	27.672	2013.571	1668.780
-41.042	27.668	2011.964	1667.353
-40.027	27.845	2009.570	1666.912
-39.013	27.776	2008.113	1665.011
-37.998	27.867	2006.108	1664.114
-36.984	27.759	2004.735	1661.921
-35.969	27.786	2002.957	1660.633
-34.954	27.742	2000.776	1658.358
-33.940	27.833	1999.280	1657.875
-32.925	27.902	1997.323	1656.813
-31.911	27.861	1996.054	1655.323
-30.896	27.904	1993.627	1653.637
-29.881	28.006	1992.153	1653.269
-28.867	27.978	1990.599	1651.655
-27.852	27.874	1989.881	1650.060
-26.838	27.987	1987.656	1649.167
-25.823	27.860	1985.786	1646.409
-24.809	27.900	1983.868	1645.110
-23.794	27.882	1982.199	1643.503
-22.779	27.884	1980.305	1641.886
-21.765	27.872	1978.854	1640.502
-20.750	27.817	1976.960	1638.377
-19.736	27.965	1975.011	1638.027
-18.721	27.902	1973.246	1635.934
-17.706	27.931	1972.384	1635.410
-16.692	27.931	1970.341	1633.651
-15.677	27.818	1969.034	1631.492
-14.663	27.852	1967.865	1630.760
-13.648	27.936	1966.681	1630.468
-12.633	27.873	1965.123	1628.548
-11.619	27.886	1963.512	1627.264
-10.604	27.866	1962.593	1626.258
-9.590	27.907	1960.763	1625.041
-8.575	27.896	1959.710	1624.013
-7.560	27.944	1958.143	1623.075
-6.546	27.890	1956.864	1621.470
-5.531	27.905	1955.595	1620.488
-4.517	27.949	1953.893	1619.406
-3.502	27.886	1953.079	1618.108
-2.487	27.969	1951.349	1617.338
-1.473	27.976	1950.453	1616.596
-0.458	28.127	1945.555	1613.803
0.556	26.447	1926.490	1588.410
1.571	22.659	1909.091	1540.896
2.586	18.947	1933.906	1527.860
3.600	17.948	1969.411	1546.734
4.615	17.688	1963.508	1539.611
5.629	13.806	1860.666	1425.552
6.644	5.470	1739.966	1265.756
7.659	0.736	1703.238	1201.364
8.673	0.362	1699.763	1195.844
9.688	0.371	1698.622	1195.010
10.702	0.350	1696.721	1193.394
11.717	0.217	1693.143	1189.725
12.731	0.735	1692.650	1193.362
13.746	6.689	1705.940	1249.889
14.761	14.258	1721.113	1321.177
15.775	16.898	1724.284	1344.456
16.790	16.785	1723.135	1342.543
17.804	15.866	1719.935	1332.662
18.819	15.066	1716.100	1323.250
19.834	14.345	1714.181	1315.958
20.848	14.067	1712.784	1312.576
21.863	13.925	1710.409	1309.519
22.877	13.526	1709.867	1305.846
23.892	13.364	1707.830	1302.893
24.907	13.243	1706.780	1301.028
25.921	13.227	1705.599	1299.889
26.936	13.171	1704.747	1298.681
27.950	13.246	1703.799	1298.436
28.965	13.214	1703.921	1298.160
29.980	13.320	1702.558	1297.842
30.994	13.383	1701.677	1297.545
32.009	13.404	1700.521	1296.711
33.023	13.481	1699.913	1296.739
34.038	13.470	1699.193	1295.991
35.053	13.403	1697.968	1294.418
36.067	13.417	1696.655	1293.407
37.082	13.394	1695.640	1292.344
38.096	13.451	1694.500	1291.808
39.111	13.422	1693.832	1290.957
40.126	13.377	1693.268	1290.056
41.140	13.374	1692.506	1289.338
42.155	13.309	1690.900	1287.498
43.169	13.250	1689.526	1285.875
44.184	13.251	1688.841	1285.254
45.199	13.223	1687.237	1283.703
46.213	13.239	1685.788	1282.608
47.228	13.220	1684.713	1281.531
48.242	13.295	1683.014	1280.701
49.257	13.412	1681.735	1280.525
50.271	13.315	1680.808	1278.954
51.286	13.282	1679.522	1277.610
52.301	13.311	1678.292	1276.781
53.315	13.249	1677.287	1275.424
54.330	13.297	1675.546	1274.361
55.344	13.203	1674.322	1272.594
56.359	13.190	1672.542	1271.027
57.374	13.296	1670.958	1270.527
58.388	13.250	1670.142	1269.438
59.403	13.186	1668.880	1267.880
60.417	13.245	1667.266	1266.987
61.432	13.197	1665.721	1265.339
62.447	13.076	1665.029	1263.771
63.461	13.132	1663.813	1263.165
64.476	13.110	1662.396	1261.808
65.490	13.109	1661.265	1260.834
66.505	13.122	1659.798	1259.707
67.520	13.177	1658.607	1259.108
68.534	13.101	1657.997	1257.955
69.549	13.200	1656.816	1257.705
70.563	13.168	1655.578	1256.408
71.578	13.210	1654.401	1255.724
72.593	13.202	1652.526	1254.131
73.607	13.037	1652.343	1252.626
74.622	13.077	1650.941	1251.756
75.636	13.055	1649.940	1250.723
76.651	13.139	1648.496	1250.150
77.666	13.199	1647.661	1249.858
78.680	13.128	1646.832	1248.581
79.695	13.035	1646.222	1247.308
80.709	13.103	1645.297	1247.010
81.724	13.154	1644.512	1246.689
82.739	13.167	1643.229	1245.703
83.753	13.189	1641.967	1244.802
84.768	13.160	1641.759	1244.321
85.782	13.223	1640.816	1243.969
86.797	13.312	1639.671	1243.661
87.812	13.382	1638.369	1243.088
88.826	13.280	1637.042	1241.201
89.841	13.216	1636.145	1239.936
90.855	13.203	1635.555	1239.279
91.870	13.217	1634.346	1238.362
92.884	13.314	1633.242	1238.142
93.899	13.333	1632.340	1237.487
94.914	13.351	1630.685	1236.258
95.928	13.485	1629.525	1236.272
96.943	13.499	1627.246	1234.538
97.957	13.412	1626.322	1233.081
98.972	13.378	1625.037	1231.740
99.987	13.376	1623.705	1230.611
101.001	13.382	1621.661	1228.996
102.016	13.360	1620.235	1227.645
103.030	13.319	1619.041	1226.327
104.045	13.376	1618.111	1225.931
105.060	13.322	1616.871	1224.487
106.074	13.351	1614.920	1223.115
107.089	13.274	1613.343	1221.243
108.103	13.203	1611.862	1219.493
109.118	13.206	1610.776	1218.582
110.133	13.207	1609.309	1217.374
111.147	13.181	1607.839	1215.960
112.162	13.229	1606.237	1214.994
113.176	13.209	1604.870	1213.707
114.191	13.171	1603.904	1212.591
115.206	13.288	1602.110	1211.985
116.220	13.286	1601.040	1211.051
117.235	13.231	1600.066	1209.809
118.249	13.230	1598.928	1208.831
119.264	13.244	1596.968	1207.347
120.279	13.197	1596.179	1206.300
121.293	13.240	1594.224	1205.027
122.308	13.257	1592.865	1204.017
123.322	13.273	1590.880	1202.530
124.337	13.181	1589.940	1201.039
125.352	13.242	1588.142	1200.023
126.366	13.179	1586.899	1198.515
127.381	13.234	1585.960	1198.103
128.395	13.225	1584.494	1196.820
129.410	13.188	1583.452	1195.662
130.424	13.240	1581.631	1194.554
131.439	13.217	1580.806	1193.662
132.454	13.208	1579.335	1192.381
133.468	13.244	1578.417	1191.840
134.483	13.250	1577.138	1190.812
135.497	13.341	1574.890	1189.666
136.512	13.267	1573.688	1188.119
137.527	13.365	1572.075	1187.502
138.541	13.399	1570.261	1186.273
139.556	13.382	1569.270	1185.295
140.570	13.307	1568.005	1183.698
141.585	13.335	1566.594	1182.727
142.600	13.415	1565.035	1182.020
143.614	13.400	1563.714	1180.810
144.629	13.469	1562.730	1180.450
145.643	13.558	1561.018	1179.692
146.658	13.546	1559.741	1178.531
147.673	13.515	1558.092	1176.961
148.687	13.487	1556.555	1175.503
149.702	13.462	1555.241	1174.223
150.716	13.474	1553.511	1172.899
151.731	13.482	1552.420	1172.029
152.746	13.483	1550.655	1170.601
153.760	13.560	1548.687	1169.558
154.775	13.537	1548.091	1168.843
155.789	13.510	1546.923	1167.666
156.804	13.457	1545.978	1166.477
157.819	13.502	1544.711	1165.732
158.833	13.583	1543.404	1165.211
159.848	13.616	1542.330	1164.527
160.862	13.691	1541.281	1164.159
161.877	13.701	1539.592	1162.855
162.892	13.635	1538.413	1161.399
163.906	13.545	1537.698	1160.121
164.921	13.553	1535.871	1158.702
165.935	13.594	1534.816	1158.091
166.950	13.641	1533.800	1157.543
167.964	13.591	1532.611	1156.196
168.979	13.596	1531.743	1155.473
169.994	13.654	1530.324	1154.706
171.008	13.662	1529.559	1154.086
172.023	13.581	1528.240	1152.420
173.037	13.635	1527.056	1151.801
174.052	13.750	1525.907	1151.635
175.067	13.778	1524.526	1150.680
176.081	13.683	1523.382	1149.058
177.096	13.701	1522.235	1148.219
178.110	13.594	1521.349	1146.704
179.125	13.646	1519.744	1145.758
180.140	13.689	1518.650	1145.127
181.154	13.678	1517.779	1144.294
182.169	13.740	1516.806	1143.882
183.183	13.749	1515.227	1142.658
184.198	13.791	1514.293	1142.136
185.213	13.880	1512.599	1141.372
186.227	13.774	1511.846	1139.973
187.242	13.803	1510.966	1139.405
188.256	13.854	1509.759	1138.749
189.271	13.922	1508.642	1138.268
190.286	13.893	1507.515	1137.120
191.300	13.950	1506.384	1136.557
192.315	13.875	1505.157	1135.015
193.329	13.752	1504.065	1133.255
194.344	13.716	1503.112	1132.188
195.359	13.851	1501.555	1131.841
196.373	13.750	1500.505	1130.261
197.388	13.783	1499.976	1129.987
198.402	13.898	1498.404	1129.485
199.417	13.902	1497.465	1128.701
200.432	14.053	1496.033	1128.549
201.446	14.094	1494.966	1127.919
202.461	14.009	1494.200	1126.664
203.475	14.167	1492.363	1126.252
204.490	14.254	1491.485	1126.078
205.504	14.020	1490.883	1123.942
206.519	14.174	1489.181	1123.598
207.534	14.001	1488.404	1121.745
208.548	14.045	1487.240	1121.065
209.563	14.106	1486.038	1120.471
210.577	14.103	1485.066	1119.617
211.592	14.144	1484.021	1119.007
212.607	14.180	1483.473	1118.736
213.621	14.134	1482.941	1117.931
214.636	14.225	1481.982	1117.719
215.650	14.235	1480.545	1116.603
216.665	14.167	1479.938	1115.592
217.680	14.277	1478.770	1115.346
218.694	14.155	1478.405	1114.159
219.709	14.325	1476.954	1114.100
220.723	14.315	1476.158	1113.339
221.738	14.299	1475.236	1112.432
222.753	14.380	1474.312	1112.183
223.767	14.363	1473.251	1111.169
224.782	14.368	1471.919	1110.097
225.796	14.234	1471.251	1108.604
226.811	14.309	1470.952	1108.783
227.826	14.418	1469.807	1108.547
228.840	14.440	1468.925	1107.925
229.855	14.442	1467.780	1106.980
230.869	14.358	1467.046	1105.773
231.884	14.381	1466.000	1105.039
232.899	14.388	1464.467	1103.826
233.913	14.303	1463.666	1102.568
234.928	14.421	1462.445	1102.328
235.942	14.357	1461.329	1100.967
236.957	14.337	1460.441	1100.071
237.972	14.415	1458.616	1099.114
238.986	14.379	1457.443	1097.893
240.001	14.352	1457.186	1097.425
241.015	14.422	1455.879	1096.800
242.030	14.539	1454.340	1096.318
243.045	14.550	1453.195	1095.427
244.059	14.514	1452.450	1094.530
245.074	14.462	1451.960	1093.726
246.088	14.605	1451.085	1093.910
247.103	14.607	1450.145	1093.114
248.117	14.682	1449.199	1092.795
249.132	14.658	1448.774	1092.221
250.147	14.768	1447.953	1092.228
251.161	14.848	1447.208	1092.091
252.176	14.792	1446.768	1091.298
253.190	14.866	1445.545	1090.759
254.205	14.825	1444.830	1089.853
255.220	14.883	1443.919	1089.449
256.234	14.943	1442.852	1088.938
257.249	14.860	1442.247	1087.845
258.263	14.870	1441.811	1087.489
259.278	14.853	1440.663	1086.416
260.293	14.989	1439.435	1086.271
261.307	14.947	1438.730	1085.374
262.322	14.960	1438.207	1084.965
263.336	14.972	1437.342	1084.293
264.351	15.059	1436.219	1083.918
265.366	15.111	1435.128	1083.332
266.380	15.148	1434.113	1082.711
267.395	15.062	1433.654	1081.715
268.409	15.046	1432.407	1080.574
269.424	15.052	1431.467	1079.810
270.439	15.103	1430.337	1079.191
271.453	15.016	1429.665	1078.023
272.468	15.097	1428.793	1077.791
273.482	15.161	1427.823	1077.381
274.497	15.177	1427.051	1076.801
275.512	15.144	1426.053	1075.742
276.526	15.024	1425.517	1074.472
277.541	15.194	1423.968	1074.302
278.555	15.118	1423.763	1073.566
279.570	15.122	1422.940	1072.874
280.585	15.164	1421.615	1072.049
281.599	15.243	1420.479	1071.599
282.614	15.215	1420.182	1071.105
283.628	15.300	1418.562	1070.332
284.643	15.202	1417.713	1068.971
285.657	15.301	1416.162	1068.338
286.672	15.237	1415.604	1067.413
287.687	15.306	1414.665	1067.049
288.701	15.348	1413.329	1066.214
289.716	15.362	1412.692	1065.730
290.730	15.280	1412.104	1064.668
291.745	15.315	1411.007	1063.970
292.760	15.295	1410.059	1063.037
293.774	15.268	1408.901	1061.899
294.789	15.356	1408.127	1061.779
295.803	15.461	1406.459	1061.091
296.818	15.465	1405.928	1060.618
297.833	15.533	1404.855	1060.146
298.847	15.540	1404.155	1059.565
299.862	15.521	1403.155	1058.601
300.876	15.508	1402.244	1057.739
301.891	15.490	1401.093	1056.661
302.906	15.574	1400.228	1056.441
303.920	15.596	1399.781	1056.153
304.935	15.619	1399.087	1055.678
305.949	15.576	1398.317	1054.732
306.964	15.634	1397.390	1054.305
307.979	15.770	1396.105	1054.094
308.993	15.649	1395.442	1052.741
310.008	15.688	1394.241	1051.990
311.022	15.691	1393.249	1051.167
312.037	15.717	1392.172	1050.424
313.052	15.740	1391.585	1050.030
314.066	15.812	1390.295	1049.411
315.081	15.629	1389.968	1047.935
316.095	15.794	1387.837	1047.257
317.110	15.705	1387.274	1046.189
318.125	15.719	1385.814	1045.081
319.139	15.731	1385.272	1044.658
320.154	15.710	1384.274	1043.678
321.168	15.788	1383.460	1043.457
322.183	15.767	1382.251	1042.326
323.197	15.797	1381.166	1041.601
324.212	15.752	1380.802	1040.953
325.227	15.822	1380.188	1040.833
326.241	15.744	1379.180	1039.499
327.256	15.852	1378.154	1039.299
328.270	15.827	1377.003	1038.186
329.285	15.958	1375.974	1038.124
330.300	15.824	1375.537	1036.880
331.314	15.923	1374.221	1036.400
332.329	15.963	1373.406	1035.940
333.343	15.878	1372.679	1034.782
334.358	15.858	1371.823	1033.920
335.373	15.920	1371.164	1033.712
336.387	15.888	1370.093	1032.618
337.402	15.971	1369.046	1032.245
338.416	16.060	1368.049	1031.950
339.431	16.016	1368.148	1031.663
340.446	16.045	1367.400	1031.182
341.460	16.037	1366.411	1030.297
342.475	16.091	1365.000	1029.471
343.489	16.059	1364.363	1028.706
344.504	16.142	1363.456	1028.436
345.519	16.139	1362.698	1027.759
346.533	16.230	1361.442	1027.273
347.548	16.260	1360.396	1026.573
348.562	16.285	1359.740	1026.141
349.577	16.238	1359.223	1025.376
350.592	16.200	1358.593	1024.580
351.606	16.253	1357.391	1023.903
352.621	16.227	1356.110	1022.689
353.635	16.232	1355.069	1021.841
354.650	16.221	1354.597	1021.328
355.665	16.257	1353.466	1020.605
356.679	16.308	1352.292	1019.937
357.694	16.355	1350.749	1018.965
358.708	16.268	1350.432	1018.110
359.723	16.393	1349.099	1017.772
360.738	16.426	1348.167	1017.172
361.752	16.444	1347.123	1016.407
362.767	16.378	1346.008	1015.075
363.781	16.430	1345.133	1014.638
364.796	16.406	1344.258	1013.750
365.810	16.445	1343.685	1013.460
366.825	16.362	1343.045	1012.388
367.840	16.424	1342.279	1012.092
368.854	16.500	1341.615	1011.958
369.869	16.601	1340.901	1011.936
370.883	16.580	1340.148	1011.151
371.898	16.536	1339.077	1009.992
372.913	16.627	1338.486	1009.996
373.927	16.583	1337.573	1008.958
374.942	16.707	1336.284	1008.633
375.956	16.629	1336.079	1007.927
376.971	16.696	1335.254	1007.615
377.986	16.639	1334.079	1006.298
379.000	16.719	1333.303	1006.101
380.015	16.776	1332.391	1005.664
381.029	16.775	1331.940	1005.224
382.044	16.791	1331.138	1004.625
383.059	16.780	1330.477	1003.973
384.073	16.831	1330.026	1003.845
385.088	16.873	1328.968	1003.210
386.102	16.869	1328.640	1002.845
387.117	16.760	1327.717	1001.420
388.132	16.800	1327.281	1001.238
389.146	16.808	1326.157	1000.349
390.161	16.844	1324.979	999.581
391.175	16.838	1324.580	999.158
392.190	16.884	1323.493	998.523
393.205	16.814	1322.808	997.503
394.219	16.857	1321.824	996.926
395.234	16.969	1320.407	996.424
396.248	16.995	1319.187	995.571
397.263	16.957	1317.658	994.103
398.278	16.970	1316.676	993.352
399.292	16.923	1315.748	992.292
400.307	16.909	1314.757	991.372
401.321	16.933	1313.428	990.423
402.336	16.864	1312.428	989.176
403.350	16.873	1311.535	988.474
404.365	16.987	1310.314	988.128
405.380	17.079	1309.523	987.977
406.394	16.987	1308.775	986.789
407.409	17.012	1308.072	986.323
408.423	17.070	1307.362	986.032
409.438	17.063	1306.566	985.306
410.453	17.128	1306.431	985.494
411.467	17.091	1305.159	984.235
412.482	17.132	1304.835	984.136
413.496	17.329	1304.233	984.736
414.511	17.265	1303.006	983.358
415.526	17.313	1302.279	982.995
416.540	17.218	1301.686	981.914
417.555	17.314	1300.669	981.615
418.569	17.312	1300.352	981.277
419.584	17.301	1299.993	980.857
420.599	17.414	1298.752	980.482
421.613	96.150	1358.838	1476.292
422.628	94.444	1367.553	1476.388
