DTS Sentinel unit serial number:	SN413079Multiplexer serial number:	ORYXHardware model number:	OX4-SRSoftware version number:	ORYX F/W v4.00 Oryx Data Collector v3.7.2.0data status	okinstallation	princeton_trtdifferential loss correction	single-endedforward channel	channel 4reverse channel	N/Adate	2019/09/18time	02:33:34forward acquisition time	60.00reverse acquisition time	0.00gamma	496.2192k internal	0.2335k external	0.2335temperature offset calibration	0.9993default loss term (dB/km)	0.3790temperature slope calibration	1.0000multiplexer offset coefficient	1.0000multiplexer slope coefficient	1.0000fibre end	0.00T internal ref (°C)	22.81T ext. ref 1 (°C)	0.17T ext. ref 2 (°C)	16.88length (m)	temperature (°C)	Stokes	anti-Stokes-747.200	82.070	0.067	0.073
-746.185	58.715	0.230	0.227
-745.171	433.417	-0.040	0.086
-744.156	-200.000	-0.011	0.073
-743.142	214.549	0.155	-0.246
-742.127	-200.000	0.027	0.247
-741.112	-3.423	0.245	-0.171
-740.098	-108.430	0.298	-0.065
-739.083	546.966	0.093	0.223
-738.069	-61.563	-0.319	0.134
-737.054	-112.213	0.122	0.025
-736.039	-200.000	-0.006	-0.082
-735.025	204.647	0.047	0.073
-734.010	-91.822	-0.116	-0.033
-732.996	800.000	-0.041	-0.131
-731.981	246.222	0.125	0.212
-730.966	-200.000	0.014	0.213
-729.952	33.165	0.058	0.051
-728.937	-119.960	-0.026	0.004
-727.923	-139.369	-0.302	-0.033
-726.908	337.806	0.213	0.417
-725.894	-200.000	-0.016	-0.084
-724.879	-200.000	-0.004	-0.196
-723.864	-31.266	0.104	0.059
-722.850	-52.788	0.146	0.068
-721.835	-67.100	-0.336	0.133
-720.821	-200.000	-0.013	-0.150
-719.806	89.268	-0.132	-0.148
-718.791	-5.013	-0.289	0.200
-717.777	-200.000	0.003	-0.109
-716.762	-69.238	0.171	-0.066
-715.748	405.524	0.070	-0.148
-714.733	243.253	0.126	-0.211
-713.718	-200.000	0.015	-0.319
-712.704	800.000	0.038	0.150
-711.689	800.000	0.108	0.450
-710.675	123.177	-0.082	-0.103
-709.660	-39.745	-0.234	0.123
-708.645	192.588	0.150	-0.227
-707.631	800.000	-0.053	-0.182
-706.616	800.000	-0.103	0.332
-705.602	-53.269	0.098	-0.045
-704.587	-1.258	-0.077	0.054
-703.572	323.712	-0.031	0.060
-702.558	7.569	0.021	0.016
-701.543	-80.357	0.211	-0.071
-700.529	-7.831	0.374	-0.253
-699.514	-200.000	-0.005	-0.027
-698.499	453.833	-0.082	0.181
-697.485	-200.000	-0.002	-0.012
-696.470	-10.763	0.126	0.083
-695.456	800.000	-0.039	-0.124
-694.441	390.778	0.081	0.168
-693.426	21.866	-0.174	-0.142
-692.412	-0.986	0.085	0.060
-691.397	-118.971	-0.092	0.016
-690.383	52.478	-0.165	0.158
-689.368	592.393	0.072	-0.179
-688.354	-77.021	-0.188	0.066
-687.339	-106.506	-0.298	-0.067
-686.324	8.147	-0.297	-0.224
-685.310	130.373	-0.209	-0.269
-684.295	-200.000	0.014	-0.134
-683.281	-200.000	-0.052	0.231
-682.266	-93.246	-0.159	0.044
-681.251	800.000	0.125	-0.517
-680.237	-23.595	-0.159	0.095
-679.222	324.203	0.148	0.284
-678.208	223.406	-0.060	-0.097
-677.193	-56.273	-0.394	-0.176
-676.178	800.000	0.099	0.282
-675.164	-67.755	-0.435	0.170
-674.149	-112.187	-0.104	-0.021
-673.135	161.684	0.023	-0.032
-672.120	-24.781	-0.281	-0.168
-671.105	800.000	0.075	-0.289
-670.091	9.145	-0.122	-0.092
-669.076	26.100	-0.211	-0.176
-668.062	-200.000	0.030	-0.146
-667.047	47.397	-0.058	-0.054
-666.032	800.000	-0.052	-0.217
-665.018	-104.639	-0.186	-0.043
-664.003	-116.515	0.579	0.107
-662.989	800.000	0.066	-0.231
-661.974	-200.000	-0.018	-0.198
-660.959	60.090	-0.086	0.085
-659.945	-45.564	0.186	0.092
-658.930	-106.100	0.073	0.016
-657.916	-69.806	-0.227	0.087
-656.901	286.422	0.131	0.238
-655.886	15.245	-0.203	-0.159
-654.872	800.000	-0.076	-0.291
-653.857	-200.000	-0.044	-0.518
-652.843	800.000	-0.043	0.184
-651.828	106.051	-0.063	0.074
-650.814	-146.410	-0.211	-0.018
-649.799	137.013	-0.061	-0.080
-648.784	-11.050	0.051	0.033
-647.770	-39.109	0.221	0.116
-646.755	-22.031	0.179	-0.109
-645.741	503.432	-0.064	-0.148
-644.726	-38.687	-0.185	0.098
-643.711	800.000	-0.064	-0.187
-642.697	-200.000	0.054	-0.258
-641.682	-154.466	0.399	0.027
-640.668	104.753	0.150	0.176
-639.653	-69.446	0.199	0.076
-638.638	-50.134	-0.046	0.022
-637.624	-73.795	-0.277	0.101
-636.609	800.000	0.122	0.340
-635.595	-200.000	0.005	0.209
-634.580	-200.000	0.032	0.198
-633.565	-200.000	0.022	-0.106
-632.551	800.000	0.062	-0.270
-631.536	30.695	-0.152	-0.130
-630.522	612.817	0.007	0.019
-629.507	133.961	0.085	0.110
-628.492	789.628	0.162	-0.445
-627.478	-200.000	-0.027	0.139
-626.463	131.861	0.032	0.041
-625.449	-123.565	-0.190	-0.030
-624.434	68.405	0.344	0.352
-623.419	433.741	0.056	0.122
-622.405	467.967	-0.181	-0.407
-621.390	800.000	-0.022	0.083
-620.376	105.395	-0.188	0.222
-619.361	90.740	-0.110	-0.124
-618.346	-4.041	-0.107	0.074
-617.332	153.858	-0.174	-0.239
-616.317	22.083	-0.158	-0.129
-615.303	-32.946	-0.127	0.071
-614.288	31.213	-0.176	0.151
-613.273	-200.000	-0.010	-0.205
-612.259	-100.627	-0.474	0.117
-611.244	-78.600	0.321	-0.110
-610.230	800.000	0.103	-0.367
-609.215	-101.976	0.295	0.071
-608.201	-108.146	-0.035	-0.008
-607.186	-0.002	-0.235	0.167
-606.171	-120.453	0.216	-0.037
-605.157	512.893	0.121	-0.283
-604.142	176.930	0.089	0.130
-603.128	-53.058	-0.212	0.097
-602.113	109.433	-0.024	-0.029
-601.098	800.000	0.074	-0.255
-600.084	151.017	-0.195	0.265
-599.069	-110.706	0.171	0.035
-598.055	-46.055	0.405	-0.199
-597.040	-185.400	0.055	-0.001
-596.025	800.000	-0.035	0.097
-595.011	199.135	-0.241	0.369
-593.996	39.263	-0.064	0.057
-592.982	800.000	0.055	0.190
-591.967	427.998	0.086	-0.186
-590.952	800.000	0.056	-0.230
-589.938	465.299	-0.045	0.101
-588.923	-200.000	-0.151	-0.001
-587.909	-23.751	-0.041	0.024
-586.894	-153.005	0.128	-0.009
-585.879	303.169	-0.154	0.285
-584.865	295.630	0.197	-0.360
-583.850	-200.000	-0.007	0.259
-582.836	-119.100	-0.246	-0.043
-581.821	-61.692	-0.115	0.048
-580.806	-150.532	-0.377	-0.029
-579.792	43.627	0.493	-0.450
-578.777	-6.070	0.148	0.101
-577.763	27.644	-0.296	0.249
-576.748	-5.219	-0.040	0.028
-575.733	-200.000	0.177	-0.000
-574.719	49.510	0.212	-0.199
-573.704	-200.000	0.043	0.204
-572.690	260.339	-0.156	0.270
-571.675	14.323	-0.083	-0.065
-570.661	46.679	-0.065	-0.061
-569.646	-155.592	0.251	0.016
-568.631	286.875	-0.062	-0.111
-567.617	-200.000	0.004	0.073
-566.602	-114.437	-0.182	0.035
-565.588	128.083	0.252	0.320
-564.573	213.704	-0.095	-0.150
-563.558	-61.295	-0.150	-0.063
-562.544	-75.842	-0.154	0.055
-561.529	800.000	0.025	-0.078
-560.515	-157.734	0.319	-0.019
-559.500	351.264	-0.148	-0.292
-558.485	575.942	-0.071	-0.172
-557.471	-90.554	-0.193	0.056
-556.456	-200.000	0.026	-0.132
-555.442	-101.887	0.254	0.061
-554.427	-23.651	0.312	0.187
-553.412	73.971	-0.170	0.178
-552.398	-120.501	-0.028	-0.005
-551.383	-200.000	-0.002	-0.253
-550.369	226.314	-0.182	0.295
-549.354	64.420	0.289	0.290
-548.339	800.000	0.065	-0.212
-547.325	114.558	-0.095	0.115
-546.310	122.233	0.165	-0.206
-545.296	347.384	-0.034	0.066
-544.281	-124.125	-0.168	0.026
-543.266	387.594	0.074	0.152
-542.252	-122.769	-0.371	0.060
-541.237	-20.178	0.175	0.107
-540.223	-93.744	-0.383	-0.105
-539.208	-200.000	0.008	0.127
-538.193	800.000	0.098	-0.310
-537.179	9.186	-0.154	-0.116
-536.164	-60.468	0.244	0.103
-535.150	-187.823	-0.223	0.003
-534.135	-42.824	0.355	0.180
-533.121	800.000	-0.062	-0.235
-532.106	247.010	0.103	-0.173
-531.091	-200.000	0.015	-0.095
-530.077	-19.465	0.325	-0.201
-529.062	-5.181	-0.090	0.062
-528.048	800.000	-0.051	0.204
-527.033	-24.126	0.170	-0.101
-526.018	168.101	-0.028	-0.039
-525.004	-133.216	-0.221	0.028
-523.989	346.302	0.003	0.005
-522.975	569.316	-0.161	-0.389
-521.960	-200.000	-0.058	-0.259
-520.945	2.552	-0.301	0.217
-519.931	800.000	-0.087	-0.243
-518.916	800.000	0.031	0.129
-517.902	-200.000	0.068	0.325
-516.887	-200.000	0.015	-0.151
-515.872	106.769	-0.071	-0.084
-514.858	-14.993	0.139	-0.089
-513.843	14.930	-0.180	-0.140
-512.829	-180.984	-0.010	-0.000
-511.814	374.761	-0.080	0.163
-510.799	266.163	0.028	0.048
-509.785	-167.819	0.256	-0.010
-508.770	-24.648	0.137	-0.081
-507.756	800.000	-0.026	-0.081
-506.741	800.000	-0.136	-0.390
-505.726	-200.000	-0.025	-0.301
-504.712	-15.164	-0.216	-0.138
-503.697	72.794	-0.154	-0.160
-502.683	-70.655	0.151	-0.057
-501.668	-110.369	-0.152	-0.032
-500.653	-154.244	0.090	0.006
-499.639	152.879	0.168	-0.229
-498.624	10.029	-0.174	-0.132
-497.610	-200.000	0.038	-0.325
-496.595	800.000	-0.089	0.289
-495.581	-200.000	0.013	0.128
-494.566	-89.594	0.093	-0.027
-493.551	673.820	-0.196	0.506
-492.537	60.823	-0.176	0.173
-491.522	144.835	-0.013	-0.017
-490.508	-88.069	-0.250	-0.075
-489.493	539.142	-0.045	-0.107
-488.478	-34.027	-0.238	-0.130
-487.464	131.576	-0.131	0.167
-486.449	-48.317	-0.102	0.049
-485.435	-200.000	0.063	-0.305
-484.420	-104.202	0.360	-0.083
-483.405	142.872	-0.172	-0.227
-482.391	-63.273	0.183	0.075
-481.376	572.551	0.186	-0.450
-480.362	800.000	0.101	-0.436
-479.347	112.667	-0.189	0.228
-478.332	-98.966	-0.096	0.024
-477.318	-18.692	-0.226	0.140
-476.303	-0.106	-0.044	-0.031
-475.289	800.000	-0.080	0.271
-474.274	182.640	0.151	-0.221
-473.259	90.091	-0.131	0.146
-472.245	800.000	-0.050	-0.147
-471.230	78.612	-0.147	0.157
-470.216	-88.542	-0.502	0.149
-469.201	-140.365	-0.253	0.026
-468.186	-141.794	0.303	0.030
-467.172	-10.813	-0.244	-0.160
-466.157	-74.337	0.191	0.069
-465.143	-27.188	0.070	-0.040
-464.128	338.109	-0.135	0.261
-463.113	241.758	0.109	0.181
-462.099	29.633	0.030	0.025
-461.084	146.406	0.094	0.126
-460.070	-4.469	-0.119	-0.082
-459.055	-120.382	0.230	-0.039
-458.040	-200.000	0.026	-0.413
-457.026	245.489	-0.028	0.047
-456.011	-51.418	-0.058	-0.027
-454.997	-125.015	-0.099	0.015
-453.982	-61.682	0.164	-0.068
-452.968	-200.000	-0.072	0.345
-451.953	-200.000	-0.013	0.219
-450.938	-112.414	0.123	-0.024
-449.924	800.000	0.079	0.259
-448.909	-169.939	0.131	0.005
-447.895	-43.477	-0.108	-0.054
-446.880	52.618	-0.041	-0.039
-445.865	-135.468	-0.199	0.024
-444.851	-90.660	-0.351	0.101
-443.836	46.827	0.129	0.119
-442.822	-76.777	-0.283	-0.098
-441.807	-113.668	0.365	0.071
-440.792	453.118	-0.028	0.062
-439.778	-19.163	-0.154	0.095
-438.763	-200.000	-0.009	-0.058
-437.749	-134.916	0.126	-0.015
-436.734	467.706	-0.093	-0.207
-435.719	-43.941	0.255	-0.128
-434.705	135.404	-0.054	0.069
-433.690	13.185	-0.083	-0.064
-432.676	138.972	0.199	-0.259
-431.661	-44.455	0.142	0.071
-430.646	800.000	0.074	-0.226
-429.632	107.973	0.143	-0.169
-428.617	73.721	-0.147	-0.153
-427.603	800.000	0.073	-0.277
-426.588	61.603	0.266	-0.263
-425.573	299.409	-0.128	0.235
-424.559	-107.467	0.028	0.006
-423.544	-119.399	-0.291	-0.050
-422.530	800.000	-0.028	0.114
-421.515	-107.596	-0.267	-0.058
-420.500	316.831	-0.088	-0.165
-419.486	226.512	-0.201	-0.323
-418.471	-37.605	-0.155	-0.082
-417.457	-174.230	-0.161	-0.005
-416.442	-92.791	-0.174	0.048
-415.428	515.994	0.207	-0.480
-414.413	-41.978	0.178	-0.090
-413.398	800.000	0.057	0.204
-412.384	-43.493	0.057	0.029
-411.369	-40.725	-0.191	0.098
-410.355	-28.343	0.195	-0.111
-409.340	-200.000	-0.000	-0.321
-408.325	-66.123	-0.134	-0.053
-407.311	-200.000	0.030	0.415
-406.296	-200.000	-0.056	-0.276
-405.282	800.000	0.121	-0.333
-404.267	-141.816	0.232	0.023
-403.252	-98.075	0.196	0.050
-402.238	142.219	-0.204	0.269
-401.223	285.591	-0.214	-0.383
-400.209	800.000	0.071	-0.232
-399.194	187.037	0.202	-0.298
-398.179	-200.000	0.017	0.320
-397.165	300.405	-0.239	0.436
-396.150	158.435	-0.216	0.297
-395.136	-98.304	0.428	-0.109
-394.121	-87.362	-0.051	-0.015
-393.106	177.113	0.174	-0.251
-392.092	-84.459	-0.307	-0.096
-391.077	245.345	0.163	0.271
-390.063	-53.098	0.353	0.161
-389.048	-116.042	-0.402	0.074
-388.033	276.687	-0.176	0.311
-387.019	-84.309	0.401	0.126
-386.004	-200.000	0.049	0.325
-384.990	35.253	-0.288	-0.250
-383.975	-191.560	0.114	-0.001
-382.960	-130.502	0.152	0.020
-381.946	-200.000	0.023	0.155
-380.931	-200.000	-0.044	0.338
-379.917	-138.838	-0.185	-0.020
-378.902	-17.096	-0.443	0.277
-377.888	15.498	0.154	-0.120
-376.873	380.228	0.099	0.201
-375.858	563.934	0.087	-0.209
-374.844	-135.804	0.391	0.046
-373.829	-84.086	0.270	-0.085
-372.815	194.027	0.052	-0.078
-371.800	-89.339	-0.196	0.057
-370.785	-139.854	-0.303	-0.032
-369.771	-38.625	-0.280	0.147
-368.756	293.313	0.122	0.221
-367.742	26.319	-0.186	-0.154
-366.727	241.053	-0.150	0.248
-365.712	215.150	-0.087	0.137
-364.698	-60.355	0.196	-0.083
-363.683	-131.382	-0.175	-0.023
-362.669	336.385	-0.063	0.121
-361.654	6.638	-0.079	0.058
-360.639	41.529	0.175	0.157
-359.625	-19.210	-0.095	-0.058
-358.610	-200.000	-0.033	-0.192
-357.596	-55.305	-0.012	-0.005
-356.581	4.038	0.142	0.103
-355.566	92.867	-0.118	-0.132
-354.552	124.807	-0.073	-0.091
-353.537	800.000	0.037	0.133
-352.523	-44.284	-0.242	0.120
-351.508	129.056	-0.118	-0.149
-350.493	30.367	0.082	-0.069
-349.479	-67.925	-0.073	-0.028
-348.464	-200.000	-0.001	0.126
-347.450	-200.000	-0.002	0.174
-346.435	-48.503	0.179	-0.085
-345.420	-200.000	-0.003	-0.029
-344.406	800.000	-0.039	-0.113
-343.391	31.259	0.429	0.364
-342.377	7.927	-0.043	0.032
-341.362	800.000	0.037	0.152
-340.348	800.000	0.037	0.162
-339.333	-57.378	-0.055	0.024
-338.318	-144.306	-0.083	0.008
-337.304	800.000	0.040	0.167
-336.289	-8.489	0.147	0.097
-335.275	267.601	0.113	-0.196
-334.260	-200.000	-0.040	-0.176
-333.245	387.264	-0.142	-0.289
-332.231	332.740	0.107	-0.204
-331.216	-200.000	-0.004	0.193
-330.202	200.377	-0.150	-0.227
-329.187	-158.751	0.244	0.014
-328.172	47.210	0.154	0.142
-327.158	-25.116	0.177	0.104
-326.143	-200.000	-0.001	0.274
-325.129	-93.696	0.275	0.075
-324.114	-11.778	-0.443	-0.287
-323.099	-41.389	0.233	-0.119
-322.085	-27.358	-0.100	0.058
-321.070	441.726	-0.072	-0.157
-320.056	-200.000	-0.057	-0.313
-319.041	-136.706	-0.343	-0.039
-318.026	302.669	-0.088	-0.161
-317.012	607.751	0.079	0.196
-315.997	105.709	0.197	-0.230
-314.983	800.000	0.099	-0.301
-313.968	687.965	-0.044	0.113
-312.953	-200.000	-0.139	0.000
-311.939	-200.000	0.049	-0.250
-310.924	-37.997	0.284	0.149
-309.910	-67.272	0.186	0.072
-308.895	220.863	0.092	-0.146
-307.880	-147.126	-0.022	0.002
-306.866	-200.000	0.011	0.140
-305.851	-200.000	0.042	-0.350
-304.837	23.189	0.230	0.187
-303.822	-46.515	0.093	0.045
-302.807	709.665	-0.042	-0.110
-301.793	140.984	0.133	0.174
-300.778	-157.850	-0.107	0.006
-299.764	143.601	-0.082	0.108
-298.749	-200.000	-0.027	0.139
-297.735	-30.639	-0.308	0.172
-296.720	10.286	-0.289	-0.217
-295.705	-63.890	0.221	0.089
-294.691	-16.084	-0.336	0.211
-293.676	800.000	-0.177	0.532
-292.662	-200.000	0.021	0.376
-291.647	-31.254	0.084	0.047
-290.632	-42.656	-0.166	-0.083
-289.618	800.000	-0.110	-0.476
-288.603	101.606	-0.098	0.113
-287.589	12.348	-0.057	0.043
-286.574	-87.267	-0.337	0.101
-285.559	-140.746	-0.167	0.017
-284.545	-0.678	0.380	0.266
-283.530	-1.219	0.237	0.165
-282.516	558.831	0.083	0.197
-281.501	221.566	0.068	0.108
-280.486	608.303	0.031	0.075
-279.472	-200.000	0.006	-0.160
-278.457	-21.472	-0.285	-0.172
-277.443	-61.616	-0.083	0.034
-276.428	-98.508	0.139	0.035
-275.413	146.562	-0.015	-0.021
-274.399	279.701	0.090	-0.158
-273.384	-159.567	0.302	0.017
-272.370	-28.034	0.373	-0.213
-271.355	-170.680	0.158	-0.005
-270.340	-200.000	0.040	0.331
-269.326	-200.000	-0.004	0.099
-268.311	-200.000	0.021	0.454
-267.297	-139.640	0.305	-0.032
-266.282	-91.035	0.225	0.064
-265.267	215.180	0.057	-0.089
-264.253	338.154	0.023	-0.044
-263.238	219.124	0.107	0.168
-262.224	84.826	0.007	-0.007
-261.209	800.000	-0.046	0.138
-260.195	-200.000	0.052	-0.357
-259.180	65.625	0.194	0.193
-258.165	-200.000	0.132	-0.581
-257.151	-66.809	0.107	0.042
-256.136	-3.778	0.097	0.066
-255.122	-134.451	-0.160	-0.019
-254.107	56.661	-0.236	0.226
-253.092	140.563	-0.099	0.129
-252.078	286.991	-0.117	0.209
-251.063	800.000	-0.036	0.129
-250.049	18.136	0.146	0.115
-249.034	-143.406	0.071	-0.007
-248.019	-86.089	-0.177	-0.054
-247.005	-87.270	0.119	-0.036
-245.990	-99.762	0.436	0.108
-244.976	139.817	-0.031	0.040
-243.961	800.000	-0.072	-0.252
-242.946	82.495	-0.060	-0.064
-241.932	800.000	0.044	-0.126
-240.917	-127.860	-0.326	0.046
-239.903	-68.467	-0.203	0.078
-238.888	-17.004	0.326	-0.203
-237.873	-200.000	-0.006	0.255
-236.859	-110.231	-0.200	0.041
-235.844	-200.000	-0.024	-0.293
-234.830	-187.875	0.030	0.000
-233.815	-121.544	0.235	0.038
-232.800	800.000	0.006	0.026
-231.786	-20.793	0.204	0.123
-230.771	458.570	0.079	0.173
-229.757	-30.133	-0.193	-0.108
-228.742	-200.000	0.018	0.090
-227.727	-73.282	-0.053	0.019
-226.713	-200.000	0.058	0.414
-225.698	-200.000	0.026	0.446
-224.684	-140.768	-0.088	0.009
-223.669	6.216	0.320	0.234
-222.655	419.714	0.105	0.222
-221.640	-11.467	0.267	0.173
-220.625	-200.000	0.050	-0.219
-219.611	-75.137	0.018	-0.006
-218.596	90.261	0.145	-0.160
-217.582	514.239	-0.049	-0.113
-216.567	133.569	-0.111	0.141
-215.552	213.143	-0.112	-0.174
-214.538	245.230	-0.117	-0.194
-213.523	-41.100	-0.112	-0.057
-212.509	158.341	-0.126	-0.172
-211.494	-101.912	0.162	-0.038
-210.479	34.536	-0.069	0.060
-209.465	226.567	0.163	-0.261
-208.450	-123.842	0.198	0.031
-207.436	-130.721	-0.039	-0.005
-206.421	42.427	0.076	0.068
-205.406	-200.000	-0.013	-0.065
-204.392	800.000	0.059	-0.203
-203.377	-200.000	0.038	-0.220
-202.363	800.000	0.074	0.221
-201.348	-121.648	-0.100	-0.016
-200.333	-13.680	0.030	0.019
-199.319	22.941	0.093	0.075
-198.304	618.017	-0.045	-0.110
-197.290	90.531	0.113	0.125
-196.275	32.897	0.164	-0.140
-195.260	-200.000	-0.026	-0.244
-194.246	-69.535	-0.152	-0.057
-193.231	-200.000	0.010	0.086
-192.217	-2.555	0.218	0.150
-191.202	108.647	-0.101	0.119
-190.187	-65.636	-0.102	0.040
-189.173	-79.922	0.268	-0.088
-188.158	-143.061	-0.143	0.014
-187.144	32.771	0.102	-0.087
-186.129	-174.693	0.092	-0.003
-185.114	-200.000	0.059	0.310
-184.100	800.000	0.006	0.018
-183.085	-73.199	-0.242	0.087
-182.071	-200.000	0.006	-0.045
-181.056	800.000	0.019	0.080
-180.042	-61.850	-0.162	-0.067
-179.027	800.000	0.020	0.058
-178.012	-24.243	-0.102	0.060
-176.998	688.376	0.147	-0.378
-175.983	343.174	-0.117	-0.226
-174.969	800.000	-0.072	0.222
-173.954	800.000	0.068	-0.203
-172.939	-173.822	0.098	0.003
-171.925	558.283	-0.044	0.104
-170.910	496.529	-0.051	0.114
-169.896	-200.000	0.016	-0.251
-168.881	-185.585	0.232	0.003
-167.866	-68.224	0.052	0.020
-166.852	-200.000	0.006	0.195
-165.837	174.965	-0.151	0.214
-164.823	-69.634	0.336	0.126
-163.808	-135.007	-0.224	-0.027
-162.793	433.145	0.137	0.291
-161.779	-117.111	-0.153	-0.027
-160.764	-200.000	0.013	-0.098
-159.750	-144.395	-0.311	-0.028
-158.735	-200.000	0.054	0.246
-157.720	74.261	0.127	-0.131
-156.706	-25.171	0.108	-0.063
-155.691	-200.000	-0.022	0.166
-154.677	-200.000	0.002	-0.252
-153.662	-149.699	-0.214	0.017
-152.647	20.124	-0.436	-0.345
-151.633	-78.134	0.242	-0.082
-150.618	-75.286	0.105	0.037
-149.604	36.615	-0.288	-0.250
-148.589	800.000	-0.023	-0.080
-147.574	-200.000	0.009	0.124
-146.560	800.000	0.113	0.335
-145.545	-200.000	-0.010	0.086
-144.531	306.998	0.091	0.167
-143.516	-99.472	0.186	0.046
-142.502	128.590	0.015	0.019
-141.487	-54.898	0.246	0.109
-140.472	-128.970	-0.140	0.019
-139.458	-100.875	0.272	-0.066
-138.443	-85.459	-0.203	0.062
-137.429	-200.000	0.006	0.131
-136.414	-57.858	-0.201	0.086
-135.399	-200.000	-0.016	-0.144
-134.385	-86.825	0.377	-0.113
-133.370	9.153	-0.143	0.106
-132.356	-71.635	0.263	-0.096
-131.341	-167.284	0.137	0.005
-130.326	-200.000	0.017	-0.100
-129.312	-35.577	-0.318	0.170
-128.297	34.297	0.112	0.096
-127.283	716.170	-0.155	0.404
-126.268	-200.000	-0.006	-0.057
-125.253	103.748	-0.031	-0.036
-124.239	32.753	-0.263	-0.223
-123.224	330.928	0.105	-0.198
-122.210	-45.965	-0.403	-0.195
-121.195	-14.792	-0.243	-0.153
-120.180	-49.530	-0.244	0.114
-119.166	-200.000	0.000	0.346
-118.151	51.496	0.111	-0.104
-117.137	-14.426	-0.045	-0.029
-116.122	-200.000	-0.011	0.198
-115.107	226.382	0.028	-0.044
-114.093	-36.423	0.324	0.171
-113.078	82.909	0.112	0.120
-112.064	-200.000	-0.033	-0.159
-111.049	210.680	0.272	-0.419
-110.034	-96.672	-0.414	-0.107
-109.020	12.838	-0.139	0.105
-108.005	641.139	-0.043	-0.108
-106.991	-119.426	0.300	0.051
-105.976	-183.167	0.192	0.003
-104.962	452.321	0.133	0.288
-103.947	99.809	-0.182	-0.206
-102.932	2.847	-0.065	-0.046
-101.918	-158.196	0.335	-0.019
-100.903	800.000	0.017	-0.062
-99.889	-200.000	-0.004	0.110
-98.874	800.000	-0.050	0.170
-97.859	-98.367	0.119	0.030
-96.845	-200.000	0.021	-0.106
-95.830	-200.000	0.034	0.168
-94.816	-153.386	0.371	0.025
-93.801	596.962	0.096	-0.232
-92.786	696.017	0.030	0.078
-91.772	-161.890	0.336	0.017
-90.757	158.435	0.060	0.082
-89.743	800.000	-0.007	-0.028
-88.728	800.000	-0.056	0.165
-87.713	-3.034	-0.218	0.149
-86.699	317.566	0.085	0.157
-85.684	50.879	0.361	0.335
-84.670	399.171	0.009	-0.019
-83.655	-75.690	0.290	-0.101
-82.640	800.000	-0.092	-0.341
-81.626	-155.980	0.230	0.014
-80.611	800.000	-0.034	0.104
-79.597	415.784	-0.052	0.108
-78.582	793.730	0.076	0.205
-77.567	210.877	0.171	-0.263
-76.553	-77.913	-0.481	-0.163
-75.538	307.023	0.106	0.194
-74.524	-144.145	-0.365	0.033
-73.509	-200.000	0.031	0.204
-72.494	166.178	0.119	0.164
-71.480	243.669	-0.237	0.390
-70.465	800.000	0.080	-0.340
-69.451	-200.000	0.031	0.316
-68.436	17.468	0.314	-0.244
-67.422	398.797	-0.108	0.220
-66.407	-109.870	0.165	-0.034
-65.392	800.000	-0.050	0.162
-64.378	28.073	0.252	-0.208
-63.363	-200.000	0.066	0.294
-62.349	-200.000	0.009	0.204
-61.334	63.053	-1.283	-1.257
-60.319	41.066	0.695	0.614
-59.305	-200.000	-0.193	-1.207
-58.290	448.633	0.754	1.625
-57.276	800.000	0.407	1.303
-56.261	-200.000	128.254	673.000
-55.246	404.030	1610.622	3317.149
-54.232	135.797	2776.133	3535.558
-53.217	86.548	2340.458	2524.343
-52.203	29.322	2079.596	1727.660
-51.188	24.589	1994.259	1614.054
-50.173	23.344	1978.952	1590.427
-49.159	41.915	2051.596	1819.682
-48.144	39.499	2064.548	1808.954
-47.130	24.990	2016.091	1635.124
-46.115	22.904	2005.394	1607.419
-45.100	22.752	2002.244	1603.446
-44.086	22.746	1999.486	1601.127
-43.071	22.665	1997.865	1599.031
-42.057	22.722	1995.043	1597.223
-41.042	22.703	1993.708	1595.919
-40.027	22.723	1991.580	1594.330
-39.013	22.794	1989.531	1593.268
-37.998	22.804	1987.844	1591.946
-36.984	22.778	1986.395	1590.487
-35.969	22.766	1984.424	1588.736
-34.954	22.760	1982.286	1586.907
-33.940	22.790	1981.172	1586.221
-32.925	22.776	1979.666	1584.829
-31.911	22.841	1977.672	1583.757
-30.896	22.854	1976.682	1583.018
-29.881	22.812	1975.119	1581.322
-28.867	22.816	1973.333	1579.866
-27.852	22.888	1971.044	1578.613
-26.838	22.891	1969.378	1577.240
-25.823	22.892	1967.985	1576.076
-24.809	22.846	1966.112	1574.105
-23.794	22.801	1964.408	1572.271
-22.779	22.791	1962.862	1570.890
-21.765	22.849	1961.225	1570.033
-20.750	22.805	1959.766	1568.406
-19.736	22.848	1958.131	1567.417
-18.721	22.874	1956.397	1566.198
-17.706	22.795	1954.924	1564.256
-16.692	22.808	1953.435	1563.116
-15.677	22.822	1951.684	1561.777
-14.663	22.837	1950.180	1560.648
-13.648	22.823	1948.988	1559.506
-12.633	22.830	1947.832	1558.583
-11.619	22.778	1946.419	1556.931
-10.604	22.787	1945.187	1555.963
-9.590	22.879	1943.467	1555.340
-8.575	22.753	1942.280	1553.213
-7.560	22.862	1940.745	1552.882
-6.546	22.821	1939.591	1551.542
-5.531	22.772	1938.695	1550.332
-4.517	22.911	1936.643	1549.851
-3.502	22.777	1936.552	1548.537
-2.487	22.775	1934.440	1546.772
-1.473	22.741	1934.046	1546.100
-0.458	22.858	1928.803	1542.869
0.556	21.061	1908.705	1514.504
1.571	16.877	1890.151	1463.604
2.586	13.157	1913.829	1449.226
3.600	12.369	1949.605	1469.146
4.615	12.433	1942.227	1464.031
5.629	9.526	1842.305	1363.990
6.644	3.649	1730.102	1233.950
7.659	0.602	1697.248	1186.498
8.673	0.218	1694.782	1181.652
9.688	0.165	1693.842	1180.480
10.702	0.236	1691.804	1179.514
11.717	0.051	1688.248	1175.479
12.731	0.478	1686.972	1177.819
13.746	5.126	1696.094	1220.504
14.761	12.221	1711.773	1287.505
15.775	16.164	1718.054	1323.106
16.790	16.718	1717.838	1327.165
17.804	15.868	1714.797	1318.043
18.819	14.893	1711.674	1307.909
19.834	14.336	1709.132	1301.499
20.848	14.013	1707.319	1297.483
21.863	13.856	1706.339	1295.391
22.877	13.554	1704.371	1291.431
23.892	13.380	1703.218	1289.093
24.907	13.234	1701.767	1286.742
25.921	13.189	1700.550	1285.357
26.936	13.178	1699.518	1284.376
27.950	13.279	1699.102	1284.734
28.965	13.271	1698.717	1284.268
29.980	13.393	1697.684	1284.316
30.994	13.398	1696.586	1283.409
32.009	13.433	1695.613	1282.832
33.023	13.475	1694.825	1282.448
34.038	13.499	1693.977	1281.883
35.053	13.480	1693.119	1280.974
36.067	13.456	1691.744	1279.635
37.082	13.378	1690.640	1278.081
38.096	13.387	1689.769	1277.381
39.111	13.509	1688.976	1277.607
40.126	13.483	1688.356	1276.825
41.140	13.475	1687.246	1275.812
42.155	13.408	1685.652	1273.981
43.169	13.400	1684.248	1272.742
44.184	13.294	1683.551	1271.291
45.199	13.278	1682.438	1270.212
46.213	13.285	1680.865	1268.963
47.228	13.232	1679.812	1267.653
48.242	13.317	1678.032	1266.846
49.257	13.324	1677.206	1266.166
50.271	13.389	1675.523	1265.280
51.286	13.398	1674.403	1264.391
52.301	13.306	1673.747	1263.084
53.315	13.382	1671.954	1262.197
54.330	13.414	1670.077	1260.909
55.344	13.290	1668.913	1258.980
56.359	13.306	1667.498	1257.919
57.374	13.288	1666.407	1256.846
58.388	13.388	1664.872	1256.340
59.403	13.275	1663.506	1254.343
60.417	13.227	1662.288	1252.943
61.432	13.247	1660.956	1251.981
62.447	13.189	1659.668	1250.466
63.461	13.235	1658.470	1249.795
64.476	13.185	1657.727	1248.752
65.490	13.181	1656.025	1247.328
66.505	13.162	1654.668	1246.051
67.520	13.151	1654.003	1245.354
68.534	13.171	1653.018	1244.656
69.549	13.231	1651.255	1243.670
70.563	13.253	1649.723	1242.573
71.578	13.240	1649.026	1241.836
72.593	13.252	1647.576	1240.728
73.607	13.102	1647.171	1239.189
74.622	13.163	1645.529	1238.297
75.636	13.039	1645.025	1236.877
76.651	13.126	1644.112	1236.735
77.666	13.129	1642.652	1235.548
78.680	13.116	1641.645	1234.584
79.695	13.162	1641.024	1234.351
80.709	13.047	1639.773	1232.448
81.724	13.121	1639.494	1232.676
82.739	13.291	1637.670	1232.469
83.753	13.295	1637.159	1232.003
84.768	13.270	1636.171	1230.961
85.782	13.342	1635.367	1230.787
86.797	13.407	1634.473	1230.487
87.812	13.324	1633.738	1229.209
88.826	13.361	1632.147	1228.180
89.841	13.290	1630.923	1226.617
90.855	13.310	1629.881	1225.873
91.870	13.313	1629.038	1225.158
92.884	13.368	1627.657	1224.418
93.899	13.390	1626.832	1223.851
94.914	13.375	1625.636	1222.732
95.928	13.459	1623.959	1221.983
96.943	13.467	1622.789	1221.050
97.957	13.438	1621.204	1219.536
98.972	13.390	1619.739	1217.975
99.987	13.392	1618.355	1216.840
101.001	13.364	1617.440	1215.838
102.016	13.404	1615.546	1214.603
103.030	13.412	1614.754	1213.956
104.045	13.362	1613.336	1212.417
105.060	13.408	1611.468	1211.242
106.074	13.341	1610.088	1209.612
107.089	13.330	1608.138	1207.955
108.103	13.223	1607.534	1206.615
109.118	13.164	1606.012	1204.937
110.133	13.221	1604.356	1203.999
111.147	13.197	1602.910	1202.634
112.162	13.257	1601.192	1201.678
113.176	13.255	1599.851	1200.550
114.191	13.285	1598.716	1199.809
115.206	13.298	1597.685	1199.024
116.220	13.348	1596.447	1198.347
117.235	13.299	1594.854	1196.696
118.249	13.303	1593.794	1195.824
119.264	13.342	1592.241	1194.830
120.279	13.280	1590.711	1193.133
121.293	13.231	1589.238	1191.564
122.308	13.180	1588.182	1190.301
123.322	13.271	1585.943	1189.174
124.337	13.169	1584.666	1187.376
125.352	13.266	1583.545	1187.128
126.366	13.358	1582.013	1186.535
127.381	13.213	1581.208	1184.786
128.395	13.247	1580.019	1184.037
129.410	13.172	1578.874	1182.536
130.424	13.270	1576.994	1181.723
131.439	13.187	1575.479	1179.892
132.454	13.199	1574.609	1179.220
133.468	13.293	1572.879	1178.492
134.483	13.315	1571.519	1177.526
135.497	13.325	1570.405	1176.654
136.512	13.325	1568.580	1175.185
137.527	13.386	1567.451	1174.666
138.541	13.391	1566.381	1173.800
139.556	13.300	1564.719	1171.803
140.570	13.399	1563.242	1171.298
141.585	13.564	1561.771	1171.259
142.600	13.518	1560.641	1169.981
143.614	13.515	1559.533	1169.024
144.629	13.533	1558.477	1168.255
145.643	13.582	1557.014	1167.401
146.658	13.533	1555.814	1166.050
147.673	13.518	1554.268	1164.690
148.687	13.563	1552.521	1163.591
149.702	13.455	1551.131	1161.686
150.716	13.445	1549.691	1160.439
151.731	13.447	1548.339	1159.339
152.746	13.467	1547.069	1158.419
153.760	13.503	1545.305	1157.250
154.775	13.484	1544.261	1156.231
155.789	13.618	1543.070	1156.172
156.804	13.681	1541.459	1155.301
157.819	13.608	1540.609	1154.060
158.833	13.654	1539.203	1153.220
159.848	13.617	1538.481	1152.318
160.862	13.661	1536.770	1151.240
161.877	13.731	1535.410	1150.606
162.892	13.609	1534.239	1148.786
163.906	13.603	1533.301	1147.938
164.921	13.582	1532.040	1146.746
165.935	13.570	1530.734	1145.583
166.950	13.581	1529.691	1144.778
167.964	13.633	1528.435	1144.094
168.979	13.732	1527.381	1143.892
169.994	13.700	1526.121	1142.621
171.008	13.702	1524.687	1141.462
172.023	13.723	1524.030	1141.017
173.037	13.716	1522.986	1140.085
174.052	13.787	1521.482	1139.342
175.067	13.814	1520.650	1138.807
176.081	13.789	1519.374	1137.580
177.096	13.702	1518.135	1135.956
178.110	13.725	1516.647	1134.900
179.125	13.792	1515.105	1134.103
180.140	13.700	1514.560	1132.968
181.154	13.757	1513.527	1132.479
182.169	13.844	1512.228	1132.004
183.183	13.797	1511.093	1130.733
184.198	13.837	1510.058	1130.130
185.213	13.917	1509.090	1129.849
186.227	13.925	1507.854	1128.882
187.242	13.847	1506.903	1127.537
188.256	14.011	1505.496	1127.499
189.271	14.025	1504.398	1126.672
190.286	13.989	1503.351	1125.544
191.300	13.918	1502.215	1124.109
192.315	13.801	1500.642	1122.042
193.329	13.808	1499.586	1121.202
194.344	13.729	1498.811	1119.988
195.359	13.759	1497.995	1119.485
196.373	13.811	1496.599	1118.693
197.388	13.915	1495.471	1118.451
198.402	13.957	1494.316	1117.769
199.417	14.006	1493.297	1117.237
200.432	14.015	1492.072	1116.281
201.446	14.089	1491.238	1116.060
202.461	14.135	1489.854	1115.233
203.475	14.157	1488.313	1114.125
204.490	14.294	1487.124	1114.052
205.504	14.227	1486.458	1113.012
206.519	14.164	1485.283	1111.607
207.534	14.108	1484.441	1110.507
208.548	14.166	1482.987	1109.708
209.563	14.134	1481.987	1108.650
210.577	14.181	1481.173	1108.255
211.592	14.191	1480.196	1107.492
212.607	14.183	1479.516	1106.832
213.621	14.298	1478.442	1106.695
214.636	14.294	1477.449	1105.826
215.650	14.265	1476.734	1105.003
216.665	14.354	1475.553	1104.607
217.680	14.372	1474.809	1104.076
218.694	14.323	1474.054	1103.086
219.709	14.419	1473.162	1102.956
220.723	14.451	1472.122	1102.295
221.738	14.415	1471.606	1101.574
222.753	14.336	1470.764	1100.319
223.767	14.316	1469.092	1098.843
224.782	14.357	1468.216	1098.361
225.796	14.486	1467.442	1098.537
226.811	14.516	1466.679	1098.062
227.826	14.467	1466.255	1097.323
228.840	14.365	1465.363	1095.891
229.855	14.380	1464.451	1095.206
230.869	14.512	1463.188	1095.036
231.884	14.435	1462.073	1093.598
232.899	14.514	1460.934	1093.167
233.913	14.422	1459.841	1091.650
234.928	14.466	1458.303	1090.690
235.942	14.452	1457.540	1089.935
236.957	14.409	1456.231	1088.574
237.972	14.462	1454.809	1087.765
238.986	14.501	1453.872	1087.220
240.001	14.511	1453.239	1086.717
241.015	14.564	1451.916	1085.977
242.030	14.530	1450.708	1084.758
243.045	14.471	1450.066	1083.793
244.059	14.551	1448.906	1083.352
245.074	14.622	1448.245	1083.222
246.088	14.536	1447.714	1082.172
247.103	14.675	1446.907	1082.372
248.117	14.786	1445.715	1082.103
249.132	14.718	1444.791	1080.880
250.147	14.754	1444.207	1080.577
251.161	14.730	1443.903	1080.101
252.176	14.865	1443.077	1080.262
253.190	14.876	1442.228	1079.597
254.205	14.848	1441.420	1078.720
255.220	14.924	1440.582	1078.488
256.234	14.933	1439.947	1077.972
257.249	14.979	1438.929	1077.411
258.263	15.015	1438.099	1076.924
259.278	15.016	1437.260	1076.209
260.293	14.987	1435.836	1074.860
261.307	15.147	1434.910	1075.099
262.322	15.043	1434.636	1074.130
263.336	15.042	1433.966	1073.529
264.351	15.092	1432.917	1072.971
265.366	15.132	1431.454	1072.037
266.380	15.129	1430.853	1071.470
267.395	15.256	1429.582	1071.236
268.409	15.149	1428.912	1069.958
269.424	15.206	1427.670	1069.292
270.439	15.127	1427.262	1068.392
271.453	15.164	1426.127	1067.681
272.468	15.122	1425.180	1066.610
273.482	15.197	1424.420	1066.427
274.497	15.207	1422.940	1065.284
275.512	15.184	1422.594	1064.788
276.526	15.132	1422.031	1063.940
277.541	15.302	1420.221	1063.573
278.555	15.238	1419.751	1062.721
279.570	15.263	1419.315	1062.461
280.585	15.258	1417.973	1061.330
281.599	15.255	1417.271	1060.692
282.614	15.346	1416.172	1060.350
283.628	15.322	1415.191	1059.369
284.643	15.368	1413.916	1058.611
285.657	15.413	1412.309	1057.597
286.672	15.358	1411.702	1056.701
287.687	15.457	1410.587	1056.396
288.701	15.294	1410.079	1054.900
289.716	15.455	1409.115	1055.097
290.730	15.439	1408.465	1054.414
291.745	15.455	1407.439	1053.654
292.760	15.390	1406.700	1052.599
293.774	15.434	1405.417	1051.823
294.789	15.463	1404.660	1051.342
295.803	15.508	1404.027	1051.057
296.818	15.495	1403.135	1050.219
297.833	15.455	1402.156	1049.139
298.847	15.477	1400.665	1048.069
299.862	15.524	1399.782	1047.609
300.876	15.614	1398.741	1047.302
301.891	15.637	1397.834	1046.668
302.906	15.528	1397.216	1045.440
303.920	15.701	1396.442	1045.841
304.935	15.673	1395.548	1044.904
305.949	15.619	1395.447	1044.402
306.964	15.725	1394.320	1044.127
307.979	15.803	1393.269	1043.726
308.993	15.802	1391.925	1042.623
310.008	15.757	1391.409	1041.865
311.022	15.830	1389.758	1040.986
312.037	15.742	1389.269	1039.986
313.052	15.847	1388.228	1039.762
314.066	16.006	1386.974	1039.712
315.081	15.805	1386.187	1037.794
316.095	15.770	1385.197	1036.743
317.110	15.740	1384.385	1035.862
318.125	15.893	1383.213	1035.833
319.139	15.809	1382.496	1034.685
320.154	15.867	1381.170	1033.960
321.168	15.903	1380.370	1033.492
322.183	15.767	1379.543	1031.947
323.197	15.859	1378.510	1031.647
324.212	15.957	1377.500	1031.395
325.227	15.906	1376.748	1030.434
326.241	15.938	1375.839	1029.856
327.256	15.886	1374.694	1028.592
328.270	15.949	1374.022	1028.381
329.285	15.920	1373.176	1027.477
330.300	15.911	1372.605	1026.909
331.314	16.027	1371.092	1026.391
332.329	16.043	1369.754	1025.394
333.343	15.984	1369.760	1024.951
334.358	15.951	1368.881	1024.000
335.373	15.888	1368.452	1023.206
336.387	16.019	1367.403	1023.124
337.402	16.035	1366.092	1022.149
338.416	16.075	1365.702	1022.015
339.431	16.125	1364.831	1021.571
340.446	16.149	1364.426	1021.326
341.460	16.230	1363.099	1020.730
342.475	16.306	1362.320	1020.517
343.489	16.275	1361.166	1019.377
344.504	16.320	1360.251	1018.868
345.519	16.305	1359.651	1018.241
346.533	16.365	1358.644	1017.757
347.548	16.399	1357.574	1017.073
348.562	16.353	1356.795	1016.122
349.577	16.413	1356.142	1015.901
350.592	16.385	1355.267	1014.992
351.606	16.371	1354.228	1014.038
352.621	16.398	1353.006	1013.193
353.635	16.304	1352.161	1011.907
354.650	16.316	1351.090	1011.092
355.665	16.304	1350.034	1010.138
356.679	16.505	1349.134	1010.577
357.694	16.418	1347.925	1009.060
358.708	16.354	1346.738	1007.703
359.723	16.420	1345.812	1007.314
360.738	16.499	1344.671	1006.841
361.752	16.373	1344.212	1005.656
362.767	16.446	1343.226	1005.266
363.781	16.525	1341.783	1004.567
364.796	16.516	1341.270	1004.043
365.810	16.574	1340.568	1003.769
366.825	16.596	1339.765	1003.210
367.840	16.507	1339.282	1002.231
368.854	16.677	1338.135	1002.292
369.869	16.651	1337.854	1001.837
370.883	16.703	1336.855	1001.308
371.898	16.557	1336.574	1000.150
372.913	16.637	1335.637	999.829
373.927	16.593	1334.587	998.695
374.942	16.620	1333.714	998.114
375.956	16.789	1333.130	998.582
376.971	16.687	1332.619	997.513
377.986	16.785	1331.024	996.807
379.000	16.814	1330.412	996.432
380.015	16.782	1330.269	996.045
381.029	16.856	1329.305	995.671
382.044	16.877	1328.697	995.250
383.059	16.783	1328.297	994.313
384.073	16.864	1327.241	993.909
385.088	16.901	1326.602	993.561
386.102	16.892	1325.929	992.916
387.117	17.080	1324.716	993.018
388.132	16.924	1324.426	991.799
389.146	16.986	1323.456	991.347
390.161	16.896	1322.672	990.147
391.175	16.801	1322.304	989.232
392.190	16.885	1321.015	988.670
393.205	16.910	1319.922	987.909
394.219	17.044	1318.783	987.747
395.234	17.040	1317.499	986.680
396.248	17.028	1316.573	985.828
397.263	17.041	1314.881	984.546
398.278	17.099	1313.723	983.930
399.292	16.950	1312.980	982.421
400.307	17.174	1311.382	982.436
401.321	17.068	1310.711	981.232
402.336	16.999	1309.715	980.003
403.350	17.053	1308.278	979.154
404.365	16.973	1307.820	978.259
405.380	17.003	1307.033	977.760
406.394	17.061	1306.003	977.238
407.409	17.078	1305.645	976.979
408.423	17.053	1305.137	976.367
409.438	17.175	1303.804	975.988
410.453	17.222	1303.307	975.799
411.467	17.333	1302.455	975.708
412.482	17.292	1302.297	975.272
413.496	17.344	1301.400	974.813
414.511	17.391	1300.316	974.180
415.526	17.397	1299.565	973.570
416.540	17.353	1299.067	972.858
417.555	17.437	1298.131	972.553
418.569	17.324	1298.086	971.783
419.584	17.540	1297.258	972.309
420.599	17.510	1296.521	971.504
421.613	99.897	1362.315	1488.154
422.628	97.989	1371.827	1488.203
