DTS Sentinel unit serial number:	SN413079Multiplexer serial number:	ORYXHardware model number:	OX4-SRSoftware version number:	ORYX F/W v4.00 Oryx Data Collector v3.7.2.0data status	okinstallation	princeton_trtdifferential loss correction	single-endedforward channel	channel 4reverse channel	N/Adate	2019/09/12time	19:29:19forward acquisition time	15.00reverse acquisition time	0.00gamma	496.2192k internal	0.2309k external	0.2309temperature offset calibration	1.0148default loss term (dB/km)	0.3790temperature slope calibration	1.0000multiplexer offset coefficient	1.0000multiplexer slope coefficient	1.0000fibre end	0.00T internal ref (°C)	32.25T ext. ref 1 (°C)	3.23T ext. ref 2 (°C)	26.83length (m)	temperature (°C)	Stokes	anti-Stokes-747.200	-200.000	0.099	-0.451
-746.185	75.532	0.761	0.817
-745.171	333.077	0.380	0.746
-744.156	-164.245	-1.226	-0.057
-743.142	102.514	-0.509	0.604
-742.127	244.576	0.358	0.611
-741.112	-96.924	-0.953	-0.254
-740.098	-121.151	-0.596	0.101
-739.083	-200.000	0.169	1.285
-738.069	616.677	0.128	0.327
-737.054	157.461	-0.064	0.089
-736.039	-108.471	-0.751	0.164
-735.025	229.521	0.281	0.466
-734.010	293.168	-0.212	0.393
-732.996	-200.000	-0.062	-0.616
-731.981	624.366	-0.048	-0.123
-730.966	-178.806	0.616	-0.014
-729.952	-200.000	0.010	-0.231
-728.937	800.000	-0.201	-0.594
-727.923	86.964	-0.438	-0.491
-726.908	-38.211	-0.022	-0.012
-725.894	110.818	0.532	0.650
-724.879	213.996	0.366	-0.587
-723.864	-133.710	-0.815	0.103
-722.850	800.000	-0.373	-1.079
-721.835	769.982	-0.148	-0.410
-720.821	-53.446	-0.294	0.136
-719.806	203.077	-0.165	-0.258
-718.791	-10.859	0.489	-0.328
-717.777	-200.000	-0.052	0.754
-716.762	-34.860	-0.459	0.254
-715.748	-16.109	0.476	-0.307
-714.733	-85.918	0.672	-0.211
-713.718	-200.000	0.008	-0.404
-712.704	-62.781	0.145	0.061
-711.689	507.368	-0.090	-0.212
-710.675	-142.522	-0.688	0.069
-709.660	-114.833	-0.302	0.058
-708.645	277.287	0.363	0.656
-707.631	43.848	-0.538	-0.500
-706.616	9.314	0.357	0.274
-705.602	53.180	0.252	0.245
-704.587	-200.000	-0.034	-0.257
-703.572	223.920	0.037	0.060
-702.558	574.978	0.111	-0.274
-701.543	143.802	0.454	-0.613
-700.529	267.806	-0.246	-0.436
-699.514	674.454	0.312	-0.822
-698.499	-154.531	-0.738	-0.050
-697.485	169.944	-0.811	-1.175
-696.470	40.950	0.224	-0.205
-695.456	-19.599	-0.624	0.392
-694.441	32.548	0.542	0.475
-693.426	-60.716	-0.697	0.300
-692.412	-60.356	-0.406	-0.175
-691.397	246.161	-0.471	-0.805
-690.383	61.253	-0.256	0.257
-689.368	-174.884	-0.870	-0.025
-688.354	37.199	-0.539	-0.484
-687.339	374.290	-0.124	0.257
-686.324	-200.000	-0.021	0.285
-685.310	-200.000	-0.104	1.093
-684.295	173.287	0.303	0.443
-683.281	-88.810	0.759	-0.228
-682.266	-1.637	0.162	-0.116
-681.251	-44.740	-0.361	0.182
-680.237	-93.567	0.573	-0.161
-679.222	800.000	-0.166	-0.593
-678.208	-200.000	-0.024	-0.619
-677.193	324.390	-0.160	0.309
-676.178	800.000	-0.096	0.362
-675.164	-200.000	-0.014	-0.273
-674.149	-200.000	0.014	-0.452
-673.135	-107.559	-0.396	-0.088
-672.120	-23.878	-0.185	-0.112
-671.105	106.637	-0.343	-0.412
-670.091	-43.781	-0.186	-0.095
-669.076	-165.830	-0.250	0.011
-668.062	800.000	0.080	0.254
-667.047	800.000	-0.134	-0.407
-666.032	-200.000	0.038	0.414
-665.018	-136.250	0.116	0.014
-664.003	-41.398	-0.837	-0.437
-662.989	-115.097	-0.266	0.051
-661.974	8.305	0.649	0.494
-660.959	-71.119	-1.063	0.405
-659.945	-56.148	-0.238	-0.107
-658.930	-200.000	0.033	-0.159
-657.916	52.419	0.417	-0.403
-656.901	106.122	0.466	0.559
-655.886	332.340	-0.380	-0.743
-654.872	-48.367	-0.730	0.356
-653.857	281.669	-0.358	-0.650
-652.843	261.723	0.185	-0.325
-651.828	-200.000	0.013	-1.002
-650.814	800.000	0.148	-0.441
-649.799	-86.658	0.767	-0.238
-648.784	409.739	0.141	0.302
-647.770	414.460	-0.040	-0.087
-646.755	-41.940	-0.430	0.223
-645.741	-162.898	0.257	-0.013
-644.726	-0.228	0.441	0.318
-643.711	-200.000	-0.047	0.491
-642.697	313.308	0.344	0.655
-641.682	461.195	0.071	-0.160
-640.668	65.377	0.263	-0.270
-639.653	-80.330	0.644	0.218
-638.638	-77.873	0.325	0.114
-637.624	-120.765	-0.026	-0.004
-636.609	-40.937	0.871	-0.456
-635.595	240.351	-0.071	-0.120
-634.580	155.375	-0.469	0.653
-633.565	191.749	-0.402	0.612
-632.551	-10.704	0.327	0.218
-631.536	-23.853	-0.142	0.086
-630.522	179.424	-0.150	0.222
-629.507	800.000	0.104	0.333
-628.492	210.963	0.237	-0.377
-627.478	-85.659	-0.684	-0.215
-626.463	-153.045	1.302	-0.093
-625.449	-200.000	-0.123	-0.690
-624.434	-100.709	0.633	-0.158
-623.419	32.163	0.340	0.296
-622.405	-146.865	0.605	-0.053
-621.390	703.173	0.074	-0.197
-620.376	-30.493	-0.493	-0.283
-619.361	-200.000	0.132	-0.632
-618.346	800.000	0.205	0.646
-617.332	93.902	-0.545	0.625
-616.317	-59.087	0.301	-0.131
-615.303	-200.000	-0.027	0.256
-614.288	233.901	0.386	0.643
-613.273	-56.683	-0.054	-0.024
-612.259	151.920	0.116	0.160
-611.244	5.687	-0.626	-0.468
-610.230	-106.713	-0.640	0.144
-609.215	-128.203	-1.054	-0.152
-608.201	-200.000	-0.984	-0.004
-607.186	-9.745	-0.056	-0.037
-606.171	39.205	0.211	0.190
-605.157	43.370	-0.258	-0.238
-604.142	-200.000	0.064	-0.826
-603.128	100.772	0.318	-0.373
-602.113	-50.707	-0.807	-0.384
-601.098	-86.693	-0.588	0.182
-600.084	225.431	-0.414	0.678
-599.069	-59.579	-1.358	0.589
-598.055	-75.072	-0.379	0.137
-597.040	-13.692	0.678	-0.443
-596.025	-200.000	-0.046	-0.240
-595.011	-176.810	-0.245	-0.006
-593.996	571.691	-0.278	-0.685
-592.982	-99.467	0.761	0.193
-591.967	-200.000	-0.225	1.480
-590.952	-73.623	0.843	0.310
-589.938	-16.748	-0.481	-0.307
-588.923	58.150	-0.356	0.352
-587.909	47.499	-0.230	0.216
-586.894	-109.757	0.057	0.012
-585.879	-142.788	0.481	-0.047
-584.865	-200.000	-0.133	-1.463
-583.850	-88.979	-0.885	-0.265
-582.836	-136.816	0.538	0.063
-581.821	-107.010	-0.090	-0.020
-580.806	-178.043	0.641	-0.015
-579.792	-170.262	-0.597	0.021
-578.777	327.074	0.318	-0.615
-577.763	99.588	-0.292	0.341
-576.748	-64.892	-0.868	0.354
-575.733	30.177	0.114	-0.098
-574.719	-80.061	-0.416	-0.141
-573.704	61.735	-0.765	-0.768
-572.690	-148.854	-0.496	-0.041
-571.675	119.283	-0.568	-0.709
-570.661	-44.383	-0.660	0.334
-569.646	774.400	-0.077	0.213
-568.631	303.829	-0.660	1.236
-567.617	2.978	0.563	0.413
-566.602	249.812	-0.184	-0.315
-565.588	-78.775	-0.250	0.086
-564.573	-11.439	0.407	-0.270
-563.558	270.309	-0.111	0.196
-562.544	259.137	0.295	0.514
-561.529	166.554	-0.441	0.630
-560.515	297.249	-0.356	-0.659
-559.500	253.599	-0.340	-0.585
-558.485	800.000	0.158	0.685
-557.471	427.836	-0.117	0.255
-556.456	118.374	-0.318	-0.396
-555.442	-1.140	0.401	0.286
-554.427	-71.994	0.725	0.272
-553.412	-100.698	-0.644	-0.160
-552.398	-131.711	-0.874	-0.116
-551.383	-200.000	0.035	0.359
-550.369	254.205	-0.486	0.838
-549.354	131.612	-0.546	0.708
-548.339	2.399	0.137	0.100
-547.325	411.251	-0.307	0.657
-546.310	296.663	-0.074	-0.137
-545.296	800.000	-0.292	1.217
-544.281	-136.849	-0.515	-0.060
-543.266	-200.000	-0.120	0.669
-542.252	703.935	0.130	-0.345
-541.237	800.000	-0.166	-0.503
-540.223	-192.008	0.586	-0.006
-539.208	-200.000	0.053	0.359
-538.193	13.502	-0.312	0.244
-537.179	-200.000	-0.008	-0.695
-536.164	0.428	-0.314	-0.226
-535.150	800.000	0.328	1.107
-534.135	171.042	0.201	-0.291
-533.121	-133.965	1.025	-0.128
-532.106	91.234	-0.524	-0.593
-531.091	-124.570	1.338	-0.209
-530.077	-149.146	-0.641	-0.052
-529.062	503.250	0.342	-0.797
-528.048	230.344	-0.203	-0.334
-527.033	-93.526	-0.341	0.095
-526.018	-200.000	0.001	0.108
-525.004	585.998	-0.101	0.251
-523.989	-200.000	0.038	-0.617
-522.975	60.466	0.534	0.533
-521.960	-200.000	-0.108	-0.545
-520.945	800.000	-0.112	-0.440
-519.931	-44.296	0.473	-0.239
-518.916	626.044	-0.139	-0.353
-517.902	-63.015	-0.476	0.198
-516.887	-45.862	0.470	-0.234
-515.872	-115.271	0.954	-0.182
-514.858	-87.535	-0.520	0.158
-513.843	800.000	-0.231	-0.645
-512.829	49.164	0.366	-0.346
-511.814	62.621	-0.519	0.523
-510.799	492.894	-0.170	-0.391
-509.785	-112.291	-0.186	-0.038
-508.770	-104.142	0.164	0.039
-507.756	800.000	-0.219	0.653
-506.741	-47.875	0.497	-0.242
-505.726	246.071	0.252	-0.428
-504.712	-109.971	-0.400	0.084
-503.697	-52.983	0.919	-0.426
-502.683	530.212	0.253	0.602
-501.668	-29.428	-0.248	0.143
-500.653	-54.033	-0.138	-0.063
-499.639	-45.707	-0.899	-0.447
-498.624	100.554	-0.281	0.328
-497.610	-200.000	-0.071	0.593
-496.595	-30.837	-0.696	0.396
-495.581	85.772	0.073	-0.081
-494.566	112.256	-0.611	-0.743
-493.551	411.548	0.182	0.389
-492.537	-127.479	-0.639	0.093
-491.522	-161.985	0.663	0.034
-490.508	13.532	0.329	-0.257
-489.493	-122.397	0.363	0.059
-488.478	44.915	-0.498	0.461
-487.464	21.752	-0.834	0.683
-486.449	33.072	0.265	0.231
-485.435	-200.000	-0.054	0.315
-484.420	-55.553	0.752	-0.339
-483.405	-169.996	-0.438	-0.016
-482.391	19.936	0.235	-0.190
-481.376	-14.005	0.587	0.382
-480.362	800.000	0.319	-1.027
-479.347	-124.834	-0.253	-0.039
-478.332	-200.000	0.091	-0.430
-477.318	-60.267	-0.767	-0.329
-476.303	800.000	0.142	0.564
-475.289	311.954	-0.386	0.728
-474.274	73.846	0.433	0.457
-473.259	48.483	0.219	0.206
-472.245	-63.041	0.418	-0.173
-471.230	490.582	0.250	-0.575
-470.216	4.464	-0.472	0.348
-469.201	-200.000	-0.029	-0.231
-468.186	-83.594	0.504	-0.162
-467.172	-200.000	0.101	-0.947
-466.157	-21.083	-0.592	0.364
-465.143	469.462	0.239	0.539
-464.128	213.902	0.170	0.271
-463.113	318.220	-0.422	-0.804
-462.099	-200.000	-0.047	-0.215
-461.084	212.776	0.462	0.732
-460.070	-87.010	0.752	-0.230
-459.055	-47.063	-0.083	-0.041
-458.040	-76.631	-0.564	-0.199
-457.026	-200.000	0.012	0.069
-456.011	-198.784	-0.802	-0.004
-454.997	8.851	0.377	-0.286
-453.982	1.046	-0.697	-0.502
-452.968	26.873	-0.511	0.431
-451.953	-139.553	-0.478	-0.051
-450.938	-200.000	0.008	-0.346
-449.924	-154.102	-0.122	-0.008
-448.909	-200.000	-0.085	0.379
-447.895	12.033	0.085	-0.066
-446.880	800.000	0.260	0.844
-445.865	190.137	0.315	0.476
-444.851	139.540	0.552	0.730
-443.836	54.950	0.580	0.563
-442.822	-134.181	0.163	-0.020
-441.807	800.000	-0.060	-0.182
-440.792	-119.820	0.865	0.150
-439.778	205.106	0.025	-0.040
-438.763	-5.465	-0.445	-0.307
-437.749	-93.693	0.626	0.173
-436.734	-193.695	0.868	0.007
-435.719	133.921	0.236	-0.306
-434.705	-76.295	0.081	-0.029
-433.690	-200.000	0.049	1.149
-432.676	15.098	-0.456	-0.359
-431.661	-39.499	0.490	0.258
-430.646	800.000	0.217	0.865
-429.632	-111.487	-0.364	0.074
-428.617	69.991	0.531	0.550
-427.603	56.416	0.786	0.766
-426.588	63.049	0.431	-0.433
-425.573	-158.564	-0.480	-0.028
-424.559	-200.000	-0.016	0.666
-423.544	185.764	0.212	0.316
-422.530	144.207	0.139	-0.186
-421.515	85.144	0.427	-0.470
-420.500	-200.000	0.098	1.459
-419.486	233.306	-0.346	-0.572
-418.471	-141.868	0.654	-0.066
-417.457	22.976	-0.744	-0.612
-416.442	-200.000	-0.043	-0.604
-415.428	-200.000	-0.032	-0.429
-414.413	163.278	-0.308	-0.434
-413.398	-192.471	0.333	-0.003
-412.384	-121.741	0.475	-0.079
-411.369	273.419	0.321	0.569
-410.355	-200.000	0.026	0.192
-409.340	-96.070	-0.324	-0.086
-408.325	800.000	0.089	0.329
-407.311	-181.930	0.466	0.009
-406.296	-82.279	0.426	-0.139
-405.282	80.108	-0.439	-0.474
-404.267	-200.000	0.120	-1.206
-403.252	-152.230	-1.100	0.080
-402.238	-200.000	-0.125	-0.704
-401.223	-200.000	0.090	0.579
-400.209	-128.672	0.309	-0.044
-399.194	-7.618	-0.331	0.224
-398.179	473.413	0.211	0.476
-397.165	180.800	0.140	0.205
-396.150	292.038	0.265	0.484
-395.136	-1.793	-0.235	-0.166
-394.121	31.836	-0.535	0.462
-393.106	8.414	0.640	0.483
-392.092	108.720	0.199	-0.238
-391.077	-200.000	0.048	0.342
-390.063	-149.487	0.305	-0.024
-389.048	-119.256	-0.889	-0.155
-388.033	-159.364	0.705	-0.039
-387.019	-200.000	0.206	-1.174
-386.004	224.189	0.124	-0.201
-384.990	122.714	0.707	0.887
-383.975	-162.541	0.184	0.009
-382.960	414.701	-0.111	-0.238
-381.946	632.132	0.215	-0.547
-380.931	-176.233	0.816	-0.021
-379.917	-87.125	0.406	0.124
-378.902	32.095	-0.261	-0.226
-377.888	584.851	0.160	0.393
-376.873	-166.351	-0.599	-0.025
-375.858	800.000	-0.268	0.781
-374.844	137.749	0.209	0.274
-373.829	69.600	0.696	0.718
-372.815	-180.885	-0.622	0.013
-371.800	-149.531	0.626	-0.050
-370.785	314.424	0.028	-0.052
-369.771	-67.180	0.293	0.116
-368.756	176.922	-0.288	0.420
-367.742	-78.089	0.060	-0.021
-366.727	405.409	-0.137	-0.289
-365.712	-135.783	-0.322	0.038
-364.698	217.469	-0.214	0.342
-363.683	-66.137	-0.383	-0.153
-362.669	-20.777	0.815	-0.500
-361.654	-57.602	0.719	0.316
-360.639	-200.000	0.075	0.385
-359.625	-81.371	0.759	0.250
-358.610	465.073	-0.089	0.200
-357.596	-200.000	-0.016	-0.309
-356.581	735.633	-0.159	-0.425
-355.566	40.162	0.343	0.309
-354.552	-101.584	0.151	0.037
-353.537	-200.000	-0.084	-0.702
-352.523	-200.000	0.034	-0.203
-351.508	-200.000	0.019	0.343
-350.493	-200.000	0.155	-0.892
-349.479	40.875	0.206	-0.186
-348.464	-147.872	-0.328	-0.027
-347.450	-200.000	-0.038	0.623
-346.435	800.000	0.195	0.642
-345.420	15.651	0.415	-0.326
-344.406	494.025	0.051	0.118
-343.391	-96.507	0.098	-0.026
-342.377	-13.842	1.282	-0.829
-341.362	800.000	0.069	-0.268
-340.348	800.000	0.254	-0.760
-339.333	-194.305	-0.720	-0.006
-338.318	-117.741	0.790	0.142
-337.304	-52.828	0.515	-0.237
-336.289	-72.364	-0.252	-0.093
-335.275	-59.287	0.852	-0.367
-334.260	-200.000	-0.129	-0.601
-333.245	-200.000	0.043	0.288
-332.231	-98.072	-0.238	-0.061
-331.216	-200.000	-0.049	-0.600
-330.202	-139.540	0.906	0.097
-329.187	-154.735	-0.543	0.036
-328.172	-113.621	0.152	-0.030
-327.158	-200.000	-0.016	0.607
-326.143	16.345	0.225	-0.177
-325.129	-98.231	-0.728	-0.187
-324.114	-115.823	-0.540	-0.101
-323.099	165.999	-0.454	-0.642
-322.085	244.262	0.150	0.252
-321.070	9.779	-0.173	0.132
-320.056	-136.478	0.322	0.037
-319.041	-96.443	-0.435	-0.115
-318.026	464.545	0.112	0.250
-317.012	524.954	0.313	0.737
-315.997	29.888	0.548	-0.467
-314.983	-137.714	0.853	-0.096
-313.968	177.705	0.355	0.517
-312.953	23.452	0.374	0.307
-311.939	218.282	-0.279	0.444
-310.924	-117.735	-0.786	0.141
-309.910	800.000	0.152	0.479
-308.895	-200.000	-0.045	0.493
-307.880	721.603	0.196	0.522
-306.866	-200.000	0.080	-0.545
-305.851	561.258	0.136	-0.329
-304.837	-68.509	-0.494	0.191
-303.822	-97.267	-0.253	0.066
-302.807	123.143	-0.309	-0.387
-301.793	-122.231	-0.229	0.037
-300.778	276.617	-0.444	-0.787
-299.764	-28.817	0.572	0.328
-298.749	-102.769	0.768	-0.183
-297.735	93.321	-0.081	0.091
-296.720	583.090	-0.165	-0.403
-295.705	618.816	0.040	-0.101
-294.691	45.891	0.183	0.169
-293.676	-36.608	-0.819	0.439
-292.662	-125.124	0.347	0.053
-291.647	82.195	-0.177	0.192
-290.632	-91.164	-0.490	0.140
-289.618	-125.298	-0.674	0.103
-288.603	539.689	-0.170	0.403
-287.589	24.582	0.408	-0.337
-286.574	211.855	-0.353	0.556
-285.559	800.000	-0.214	-0.770
-284.545	-63.077	0.079	-0.033
-283.530	-93.995	0.398	-0.109
-282.516	228.620	0.326	0.530
-281.501	-14.755	-0.596	0.382
-280.486	-200.000	-0.149	0.845
-279.472	-85.001	-0.912	-0.285
-278.457	51.508	-0.286	-0.271
-277.443	331.944	-0.074	-0.142
-276.428	-4.424	-0.550	0.379
-275.413	-200.000	0.043	-0.317
-274.399	55.824	-0.366	0.354
-273.384	800.000	-0.016	0.058
-272.370	-133.694	-1.010	0.126
-271.355	155.303	0.276	-0.379
-270.340	-200.000	0.001	0.378
-269.326	163.516	0.242	-0.339
-268.311	-61.310	-0.753	0.316
-267.297	800.000	0.168	-0.539
-266.282	-125.917	0.631	-0.095
-265.267	3.821	0.675	0.492
-264.253	-200.000	-0.071	0.312
-263.238	81.297	-0.460	0.495
-262.224	-61.237	-1.039	-0.436
-261.209	2.183	-0.273	0.197
-260.195	-88.808	-0.273	0.081
-259.180	-10.487	-0.717	-0.474
-258.165	-40.417	0.406	0.210
-257.151	234.857	-0.453	-0.745
-256.136	228.476	-0.064	-0.104
-255.122	-123.585	0.812	-0.129
-254.107	-1.800	-0.234	-0.164
-253.092	127.539	-0.572	-0.724
-252.078	156.696	0.177	-0.244
-251.063	-18.062	0.541	0.338
-250.049	-50.898	0.440	-0.206
-249.034	-174.232	0.592	-0.017
-248.019	784.075	-0.199	-0.542
-247.005	-87.279	-0.854	-0.258
-245.990	-200.000	-0.119	-0.986
-244.976	34.925	-0.490	-0.427
-243.961	-94.073	-0.520	-0.142
-242.946	-84.701	-0.207	-0.065
-241.932	-57.090	0.669	0.294
-240.917	800.000	0.115	0.431
-239.903	86.603	-0.426	-0.469
-238.888	-93.788	0.519	-0.142
-237.873	169.739	-0.086	-0.122
-236.859	97.646	0.621	-0.711
-235.844	3.291	0.618	0.448
-234.830	-200.000	0.019	-0.124
-233.815	-76.330	-1.215	-0.426
-232.800	-200.000	-0.010	-0.337
-231.786	291.723	-0.219	0.397
-230.771	219.592	0.548	0.874
-229.757	16.945	0.230	0.181
-228.742	800.000	-0.302	1.094
-227.727	418.110	-0.287	-0.610
-226.713	-200.000	0.004	-0.222
-225.698	-200.000	0.026	-0.515
-224.684	-200.000	0.124	-0.616
-223.669	532.251	0.109	0.256
-222.655	-62.839	-0.425	0.175
-221.640	-155.068	0.516	-0.034
-220.625	-30.050	0.790	-0.447
-219.611	-32.442	0.361	0.200
-218.596	-200.000	0.016	-0.519
-217.582	28.866	-0.131	-0.111
-216.567	800.000	0.164	-0.621
-215.552	42.098	-0.647	-0.585
-214.538	316.993	-0.463	-0.871
-213.523	74.915	0.192	0.201
-212.509	-163.186	0.752	-0.036
-211.494	-200.000	-0.040	0.290
-210.479	202.538	-0.321	-0.494
-209.465	-78.702	0.211	0.072
-208.450	-100.014	0.165	-0.041
-207.436	38.585	0.109	-0.097
-206.421	800.000	0.228	-0.722
-205.406	800.000	0.216	-0.841
-204.392	-80.830	-0.480	-0.159
-203.377	731.992	0.284	0.755
-202.363	40.268	0.405	0.363
-201.348	-200.000	0.037	-1.255
-200.333	25.711	0.527	0.436
-199.319	-155.525	0.164	0.011
-198.304	-179.622	-0.458	0.010
-197.290	-107.774	0.229	-0.050
-196.275	16.173	0.165	-0.130
-195.260	-101.936	0.351	-0.084
-194.246	-126.079	-0.847	0.126
-193.231	-48.822	0.700	-0.334
-192.217	-94.496	-0.606	0.164
-191.202	-8.124	-0.331	0.222
-190.187	-200.000	0.013	-0.365
-189.173	164.398	0.193	-0.270
-188.158	143.061	0.388	-0.514
-187.144	-77.025	-0.208	-0.072
-186.129	318.334	-0.075	0.142
-185.114	79.019	0.369	-0.393
-184.100	-100.967	-0.254	0.062
-183.085	257.815	-0.405	0.693
-182.071	107.988	0.344	0.408
-181.056	-200.000	-0.052	0.471
-180.042	-90.010	0.592	0.172
-179.027	0.167	-0.238	0.169
-178.012	151.351	-0.461	-0.623
-176.998	-200.000	-0.025	-1.188
-175.983	165.975	0.273	-0.383
-174.969	-41.593	-0.296	-0.151
-173.954	21.145	-0.443	-0.357
-172.939	-15.524	0.522	0.331
-171.925	-135.654	0.256	-0.030
-170.910	464.824	-0.101	-0.224
-169.896	-14.986	-0.835	0.532
-168.881	800.000	-0.238	-0.982
-167.866	335.717	0.205	-0.396
-166.852	15.653	-0.357	0.279
-165.837	298.713	0.024	0.044
-164.823	367.934	0.148	-0.298
-163.808	372.503	0.417	-0.841
-162.793	-49.859	-0.444	-0.210
-161.779	43.632	0.148	0.135
-160.764	-36.467	0.409	0.219
-159.750	800.000	-0.127	0.440
-158.735	39.235	-0.295	0.263
-157.720	235.014	0.284	0.466
-156.706	-200.000	0.063	0.725
-155.691	-76.109	-0.226	-0.079
-154.677	30.014	0.835	0.707
-153.662	451.655	-0.403	0.884
-152.647	-200.000	-0.045	-0.336
-151.633	139.360	-0.463	0.604
-150.618	800.000	-0.138	-0.556
-149.604	364.293	-0.070	0.139
-148.589	293.271	0.189	-0.342
-147.574	-46.089	0.375	0.183
-146.560	38.185	-0.258	-0.228
-145.545	-65.509	-0.680	-0.271
-144.531	-47.144	-0.260	0.126
-143.516	-122.101	-1.248	0.203
-142.502	94.693	0.472	-0.533
-141.487	-79.973	0.534	-0.178
-140.472	189.738	0.352	-0.525
-139.458	-62.627	-0.136	0.056
-138.443	607.905	0.207	-0.512
-137.429	-179.848	-0.394	-0.008
-136.414	790.041	-0.210	0.571
-135.399	-200.000	-0.105	0.460
-134.385	780.219	0.440	1.195
-133.370	322.752	-0.072	0.137
-132.356	573.386	-0.465	1.124
-131.341	2.239	0.427	0.306
-130.326	-200.000	0.084	-0.773
-129.312	47.475	0.062	0.057
-128.297	-150.809	0.484	-0.036
-127.283	585.001	0.208	0.507
-126.268	-14.771	0.263	-0.167
-125.253	36.918	0.200	0.175
-124.239	-133.698	0.265	-0.033
-123.224	39.066	-0.435	0.386
-122.210	131.314	0.457	0.582
-121.195	-48.870	-0.541	0.257
-120.180	113.898	-0.126	-0.152
-119.166	287.391	-0.252	0.452
-118.151	219.294	-0.267	-0.423
-117.137	-32.058	-0.354	-0.196
-116.122	-159.385	0.699	0.039
-115.107	-200.000	-0.081	0.625
-114.093	-200.000	0.067	0.614
-113.078	-1.708	-0.217	0.152
-112.064	-99.545	0.427	-0.106
-111.049	49.412	-0.273	-0.255
-110.034	-189.335	0.597	-0.007
-109.020	-200.000	-0.062	-0.376
-108.005	-126.848	0.637	-0.093
-106.991	-121.815	-0.383	-0.063
-105.976	73.540	0.330	0.343
-104.962	-200.000	-0.082	-0.548
-103.947	-32.488	-0.336	0.186
-102.932	53.402	-0.608	0.577
-101.918	-8.382	-0.647	-0.431
-100.903	433.161	-0.070	0.151
-99.889	128.436	-0.349	0.440
-98.874	-74.806	-0.729	0.259
-97.859	278.556	-0.367	0.649
-96.845	-154.212	0.624	0.042
-95.830	80.881	-0.551	-0.589
-94.816	89.696	0.593	0.656
-93.801	163.422	-0.214	0.298
-92.786	-106.310	0.294	-0.065
-91.772	176.329	-0.494	-0.711
-90.757	161.390	0.107	0.149
-89.743	-200.000	0.108	0.591
-88.728	-155.014	0.834	0.054
-87.713	39.324	-0.363	-0.322
-86.699	-200.000	0.142	1.108
-85.684	-101.487	-0.367	0.088
-84.670	-72.359	-1.010	0.370
-83.655	200.867	0.699	1.065
-82.640	-39.863	0.295	-0.152
-81.626	18.187	-0.385	-0.304
-80.611	-59.051	-0.307	-0.131
-79.597	704.818	0.033	-0.086
-78.582	-200.000	-0.063	0.730
-77.567	-76.167	1.019	0.356
-76.553	-200.000	-0.025	-0.545
-75.538	6.929	0.441	-0.325
-74.524	-200.000	-0.002	0.891
-73.509	-94.747	0.415	-0.112
-72.494	-200.000	-0.037	-1.667
-71.480	-83.925	-0.357	-0.112
-70.465	314.689	0.216	0.403
-69.451	6.758	0.718	0.529
-68.436	-87.512	-0.453	0.136
-67.422	612.403	0.054	-0.133
-66.407	-77.901	-0.516	0.176
-65.392	-112.864	-0.688	0.135
-64.378	-172.628	-0.520	0.016
-63.363	-200.000	-0.161	-0.821
-62.349	-150.245	0.597	-0.046
-61.334	-47.499	-1.702	-0.818
-60.319	-24.422	0.538	0.317
-59.305	222.028	-0.740	-1.177
-58.290	98.866	0.358	0.409
-57.276	-200.000	0.256	1.492
-56.261	-200.000	95.112	593.406
-55.246	668.749	1348.983	3451.919
-54.232	200.814	2524.470	3839.890
-53.217	109.940	2280.847	2706.260
-52.203	38.945	2047.499	1809.311
-51.188	34.120	1962.546	1691.408
-50.173	32.472	1944.733	1661.462
-49.159	47.671	1997.102	1842.545
-48.144	48.323	2015.383	1865.183
-47.130	34.523	1975.541	1705.948
-46.115	32.430	1964.705	1677.885
-45.100	32.204	1962.780	1674.154
-44.086	32.117	1961.449	1672.178
-43.071	32.164	1957.620	1669.269
-42.057	32.022	1956.246	1666.767
-41.042	32.315	1953.565	1667.018
-40.027	32.124	1952.216	1664.104
-39.013	32.134	1948.865	1661.269
-37.998	32.248	1947.605	1661.143
-36.984	32.241	1946.868	1660.387
-35.969	32.245	1944.782	1658.575
-34.954	32.070	1943.715	1656.056
-33.940	32.114	1941.770	1654.723
-32.925	32.132	1939.854	1653.181
-31.911	32.184	1938.525	1652.441
-30.896	32.388	1935.929	1651.956
-29.881	32.436	1935.363	1651.830
-28.867	32.358	1933.227	1649.257
-27.852	32.429	1931.527	1648.357
-26.838	32.174	1930.316	1645.027
-25.823	32.206	1928.456	1643.654
-24.809	32.270	1926.336	1642.348
-23.794	32.500	1923.820	1642.141
-22.779	32.221	1922.711	1638.697
-21.765	32.275	1921.182	1637.798
-20.750	32.358	1919.086	1636.669
-19.736	32.134	1918.378	1634.053
-18.721	32.148	1916.737	1632.709
-17.706	32.351	1914.535	1632.536
-16.692	32.238	1913.050	1630.224
-15.677	32.350	1910.527	1628.981
-14.663	32.291	1910.955	1628.770
-13.648	32.370	1909.531	1628.175
-12.633	32.232	1907.250	1624.970
-11.619	32.271	1906.666	1624.744
-10.604	32.289	1905.563	1623.894
-9.590	32.120	1904.176	1621.188
-8.575	32.382	1902.778	1622.195
-7.560	32.234	1901.637	1619.879
-6.546	32.196	1900.401	1618.434
-5.531	32.159	1898.687	1616.597
-4.517	32.251	1897.348	1616.184
-3.502	32.334	1895.848	1615.553
-2.487	32.273	1895.836	1614.958
-1.473	32.528	1894.260	1615.736
-0.458	32.577	1887.882	1610.655
0.556	33.495	1869.855	1582.062
1.571	28.965	1851.389	1528.748
2.586	24.968	1872.029	1511.992
3.600	23.812	1906.166	1529.483
4.615	23.096	1901.608	1519.544
5.629	17.898	1802.448	1397.731
6.644	8.293	1684.753	1232.506
7.659	3.834	1646.976	1171.048
8.673	3.291	1644.539	1165.108
9.688	3.345	1642.428	1163.915
10.702	3.053	1643.203	1162.153
11.717	3.231	1637.865	1159.614
12.731	3.720	1636.929	1162.532
13.746	10.119	1653.051	1222.375
14.761	19.646	1673.969	1310.335
15.775	24.262	1682.476	1351.975
16.790	24.952	1680.977	1355.876
17.804	24.856	1680.196	1354.402
18.819	24.544	1677.502	1349.752
19.834	24.540	1677.250	1349.400
20.848	24.426	1675.932	1347.360
21.863	24.381	1675.873	1346.858
22.877	24.572	1674.344	1346.943
23.892	24.516	1673.279	1345.547
24.907	24.206	1673.504	1343.271
25.921	24.537	1671.055	1343.678
26.936	24.446	1670.263	1342.240
27.950	24.451	1669.187	1341.295
28.965	24.417	1669.508	1341.178
29.980	24.328	1668.774	1339.802
30.994	24.540	1667.418	1340.183
32.009	24.449	1666.154	1338.368
33.023	24.706	1665.829	1339.918
34.038	24.641	1665.009	1338.652
35.053	24.441	1663.774	1336.043
36.067	24.505	1662.730	1335.566
37.082	24.334	1662.169	1333.719
38.096	24.283	1661.355	1332.560
39.111	24.494	1659.858	1332.817
40.126	24.496	1659.146	1332.147
41.140	24.488	1658.304	1331.291
42.155	24.200	1658.685	1329.334
43.169	23.965	1655.812	1325.160
44.184	23.827	1654.886	1323.278
45.199	23.806	1653.823	1322.156
46.213	23.817	1652.910	1321.389
47.228	24.147	1651.532	1322.622
48.242	23.999	1651.854	1321.665
49.257	24.464	1650.649	1324.032
50.271	24.443	1649.377	1322.738
51.286	24.520	1647.810	1321.936
52.301	24.416	1646.523	1320.015
53.315	24.331	1645.699	1318.609
54.330	24.201	1643.847	1316.050
55.344	24.287	1641.818	1314.943
56.359	24.302	1639.827	1313.340
57.374	24.356	1638.757	1312.768
58.388	24.231	1638.068	1311.175
59.403	24.252	1636.959	1310.331
60.417	24.172	1635.454	1308.420
61.432	24.129	1635.093	1307.702
62.447	23.907	1634.404	1305.402
63.461	23.996	1632.797	1304.662
64.476	23.901	1632.075	1303.266
65.490	23.861	1631.618	1302.497
66.505	24.110	1628.719	1301.884
67.520	23.953	1628.448	1300.410
68.534	23.966	1627.455	1299.591
69.549	24.217	1627.011	1300.956
70.563	23.795	1626.326	1297.218
71.578	23.795	1624.504	1295.646
72.593	23.730	1623.041	1293.890
73.607	23.847	1622.197	1293.958
74.622	23.584	1621.914	1291.704
75.636	23.891	1619.698	1292.054
76.651	23.628	1620.829	1290.929
77.666	23.889	1619.168	1291.387
78.680	23.792	1618.252	1289.836
79.695	23.911	1617.333	1289.854
80.709	24.072	1616.339	1290.117
81.724	23.831	1616.614	1288.472
82.739	24.132	1615.603	1289.737
83.753	24.089	1615.375	1289.128
84.768	24.362	1613.859	1289.779
85.782	24.477	1613.579	1290.272
86.797	24.681	1612.965	1291.139
87.812	24.743	1611.407	1290.226
88.826	24.512	1611.308	1288.363
89.841	24.434	1609.431	1286.188
90.855	24.458	1608.596	1285.581
91.870	24.422	1608.433	1285.078
92.884	24.662	1607.365	1285.833
93.899	24.737	1606.259	1285.376
94.914	24.793	1605.521	1285.075
95.928	24.612	1605.346	1283.521
96.943	24.708	1603.107	1282.303
97.957	24.554	1602.391	1280.515
98.972	24.595	1599.524	1278.401
99.987	24.756	1598.867	1278.916
101.001	24.618	1597.731	1276.908
102.016	24.588	1596.417	1275.530
103.030	24.482	1595.278	1273.752
104.045	24.594	1594.060	1273.470
105.060	24.652	1591.744	1271.918
106.074	24.606	1590.925	1270.821
107.089	24.226	1588.926	1266.415
108.103	24.202	1587.745	1265.191
109.118	23.919	1586.888	1262.383
110.133	23.858	1584.799	1260.178
111.147	23.758	1583.871	1258.625
112.162	23.688	1582.772	1257.141
113.176	24.057	1580.953	1258.192
114.191	24.198	1579.643	1258.037
115.206	24.098	1579.010	1256.717
116.220	23.993	1578.033	1255.088
117.235	24.049	1577.694	1255.098
118.249	24.220	1576.712	1255.412
119.264	23.716	1574.869	1250.287
120.279	23.733	1573.237	1249.003
121.293	23.584	1572.407	1247.187
122.308	24.030	1570.701	1248.853
123.322	24.119	1569.128	1248.111
124.337	23.541	1568.462	1243.421
125.352	23.614	1566.610	1242.353
126.366	23.561	1565.476	1240.976
127.381	23.703	1565.124	1241.583
128.395	23.816	1563.792	1241.204
129.410	23.540	1563.009	1238.541
130.424	23.358	1561.485	1235.961
131.439	23.380	1559.642	1234.542
132.454	23.683	1557.946	1235.200
133.468	23.694	1558.427	1235.548
134.483	23.889	1556.784	1235.490
135.497	23.905	1556.805	1235.513
136.512	24.256	1553.380	1235.116
137.527	24.119	1553.474	1234.132
138.541	24.116	1552.174	1232.969
139.556	23.908	1551.425	1230.828
140.570	24.278	1549.031	1231.370
141.585	24.109	1549.089	1230.142
142.600	24.201	1549.058	1230.645
143.614	24.360	1547.874	1230.696
144.629	24.522	1546.590	1230.678
145.643	24.589	1545.849	1230.440
146.658	24.813	1544.185	1230.546
147.673	24.432	1542.519	1226.495
148.687	24.517	1540.468	1225.337
149.702	24.393	1539.793	1223.843
150.716	24.554	1537.777	1223.238
151.731	24.085	1535.828	1218.370
152.746	23.949	1535.268	1216.886
153.760	24.159	1533.594	1216.884
154.775	23.904	1533.524	1214.981
155.789	24.178	1532.355	1215.817
156.804	24.375	1532.483	1217.156
157.819	24.275	1530.679	1214.932
158.833	24.218	1529.547	1213.541
159.848	24.372	1527.981	1213.238
160.862	24.578	1527.854	1214.432
161.877	24.481	1527.491	1213.377
162.892	24.234	1526.368	1210.696
163.906	24.119	1524.214	1208.099
164.921	24.120	1521.958	1206.212
165.935	23.880	1522.207	1204.681
166.950	24.099	1520.820	1204.958
167.964	24.342	1519.811	1205.696
168.979	24.294	1519.467	1204.992
169.994	24.139	1518.387	1202.979
171.008	24.192	1518.079	1202.987
172.023	23.903	1516.838	1199.948
173.037	24.153	1514.313	1199.528
174.052	24.279	1513.840	1199.896
175.067	24.400	1513.723	1200.507
176.081	24.306	1512.505	1198.804
177.096	24.083	1510.868	1195.906
178.110	23.974	1509.125	1193.687
179.125	24.077	1508.657	1193.903
180.140	24.144	1506.767	1192.749
181.154	24.203	1506.597	1192.907
182.169	24.307	1506.334	1193.290
183.183	24.289	1506.185	1192.941
184.198	24.215	1505.106	1191.487
185.213	24.298	1505.382	1192.156
186.227	24.327	1502.581	1190.029
187.242	24.605	1502.033	1191.341
188.256	24.720	1500.745	1190.979
189.271	24.552	1500.343	1189.437
190.286	24.580	1499.370	1188.744
191.300	24.433	1498.231	1186.761
192.315	24.320	1496.920	1184.868
193.329	24.217	1494.624	1182.264
194.344	24.243	1494.180	1181.980
195.359	24.145	1494.809	1181.720
196.373	23.855	1494.612	1179.537
197.388	23.962	1491.700	1177.840
198.402	23.784	1489.741	1175.012
199.417	23.976	1490.113	1176.471
200.432	24.348	1489.854	1178.620
201.446	24.796	1489.374	1181.099
202.461	24.510	1488.548	1178.453
203.475	24.637	1486.944	1177.914
204.490	24.553	1486.541	1176.935
205.504	24.499	1484.940	1175.208
206.519	24.135	1483.765	1171.785
207.534	24.254	1481.656	1170.795
208.548	24.003	1481.751	1169.116
209.563	23.835	1479.948	1166.489
210.577	24.087	1479.949	1168.042
211.592	24.027	1478.843	1166.668
212.607	23.847	1477.770	1164.540
213.621	24.101	1478.317	1166.533
214.636	24.408	1477.884	1168.100
215.650	24.473	1476.327	1167.192
216.665	24.045	1475.492	1163.629
217.680	24.250	1474.724	1164.261
218.694	24.486	1474.396	1165.438
219.709	24.484	1475.354	1166.077
220.723	24.427	1473.414	1164.073
221.738	24.385	1471.308	1162.030
222.753	24.484	1470.571	1161.989
223.767	24.469	1468.328	1160.019
224.782	24.156	1467.753	1157.425
225.796	24.400	1467.127	1158.418
226.811	24.782	1467.326	1160.950
227.826	24.754	1466.832	1160.271
228.840	24.637	1464.957	1157.930
229.855	24.229	1464.682	1154.965
230.869	24.128	1463.691	1153.430
231.884	24.257	1462.035	1152.859
232.899	24.300	1461.208	1152.381
233.913	24.250	1459.308	1150.456
234.928	24.076	1458.351	1148.479
235.942	23.955	1457.892	1147.233
236.957	23.850	1456.850	1145.635
237.972	24.123	1454.638	1145.550
238.986	23.774	1454.604	1143.182
240.001	23.813	1453.362	1142.353
241.015	24.055	1452.415	1143.062
242.030	24.131	1450.917	1142.268
243.045	23.904	1449.952	1139.957
244.059	24.068	1449.749	1140.746
245.074	24.356	1448.945	1141.853
246.088	24.280	1448.561	1140.964
247.103	24.396	1447.027	1140.395
248.117	24.357	1447.248	1140.222
249.132	24.632	1446.739	1141.478
250.147	24.722	1446.403	1141.687
251.161	24.767	1446.039	1141.586
252.176	25.120	1445.678	1143.448
253.190	25.361	1444.517	1143.968
254.205	25.227	1443.995	1142.594
255.220	25.371	1442.772	1142.447
256.234	25.239	1442.299	1141.130
257.249	25.442	1441.410	1141.617
258.263	25.317	1441.464	1140.760
259.278	25.241	1440.056	1139.066
260.293	25.120	1438.430	1136.910
261.307	25.211	1438.046	1137.082
262.322	25.295	1437.524	1137.102
263.336	25.617	1435.594	1137.513
264.351	25.333	1435.774	1135.754
265.366	25.135	1435.844	1134.459
266.380	25.099	1434.097	1132.749
267.395	25.268	1433.440	1133.202
268.409	25.463	1432.338	1133.459
269.424	25.276	1430.852	1131.000
270.439	25.036	1430.344	1128.990
271.453	24.961	1429.224	1127.534
272.468	24.809	1429.579	1126.759
273.482	24.915	1427.685	1125.832
274.497	24.695	1426.911	1123.735
275.512	24.800	1425.207	1122.955
276.526	24.904	1424.158	1122.684
277.541	24.850	1422.770	1121.149
278.555	25.100	1422.073	1122.066
279.570	24.831	1422.709	1120.785
280.585	25.213	1421.152	1121.845
281.599	25.253	1420.655	1121.610
282.614	25.293	1420.168	1121.375
283.628	25.247	1418.205	1119.434
284.643	24.926	1417.629	1116.882
285.657	24.964	1416.873	1116.425
286.672	24.863	1415.798	1114.846
287.687	24.840	1416.317	1115.016
288.701	24.959	1414.501	1114.228
289.716	24.973	1413.588	1113.498
290.730	25.047	1412.613	1113.092
291.745	24.853	1412.090	1111.373
292.760	25.025	1411.179	1111.624
293.774	25.093	1409.319	1110.484
294.789	25.135	1408.216	1109.778
295.803	24.854	1409.614	1109.040
296.818	25.187	1408.147	1109.847
297.833	25.195	1406.538	1108.530
298.847	25.033	1405.419	1106.552
299.862	24.987	1404.470	1105.423
300.876	24.662	1405.001	1103.736
301.891	24.907	1403.033	1103.604
302.906	25.009	1402.551	1103.755
303.920	25.183	1401.642	1104.013
304.935	25.406	1401.945	1105.527
305.949	25.453	1400.629	1104.681
306.964	25.471	1400.910	1104.914
307.979	25.561	1399.355	1104.140
308.993	25.514	1398.199	1102.844
310.008	25.466	1397.059	1101.551
311.022	25.229	1396.100	1099.248
312.037	25.451	1394.907	1099.569
313.052	25.524	1394.675	1099.735
314.066	25.350	1393.150	1097.373
315.081	25.466	1392.098	1097.155
316.095	25.029	1390.705	1093.296
317.110	24.943	1389.077	1091.395
318.125	24.762	1388.265	1089.557
319.139	24.757	1387.181	1088.580
320.154	24.758	1386.749	1088.152
321.168	24.867	1385.782	1087.956
322.183	24.741	1385.878	1087.173
323.197	24.528	1385.470	1085.457
324.212	24.810	1384.121	1086.016
325.227	24.963	1382.532	1085.602
326.241	24.973	1381.581	1084.818
327.256	25.030	1381.138	1084.722
328.270	24.898	1381.123	1083.817
329.285	24.858	1379.385	1082.111
330.300	24.841	1378.416	1081.152
331.314	24.997	1378.447	1082.023
332.329	25.051	1376.557	1080.773
333.343	25.018	1375.191	1079.408
334.358	25.107	1374.171	1079.043
335.373	25.081	1374.640	1079.162
336.387	25.043	1375.111	1079.210
337.402	25.185	1374.306	1079.337
338.416	25.163	1373.397	1078.390
339.431	25.183	1373.253	1078.307
340.446	25.504	1372.293	1079.384
341.460	25.628	1371.462	1079.379
342.475	25.403	1371.828	1078.223
343.489	25.884	1370.085	1079.639
344.504	25.924	1368.516	1078.542
345.519	25.824	1368.556	1077.885
346.533	25.693	1368.391	1076.873
347.548	25.794	1366.680	1076.032
348.562	26.085	1365.647	1076.866
349.577	25.585	1364.939	1073.227
350.592	25.725	1363.914	1073.159
351.606	25.549	1362.242	1070.700
352.621	25.373	1360.671	1068.325
353.635	25.387	1359.355	1067.282
354.650	25.126	1358.583	1065.033
355.665	25.180	1358.727	1065.372
356.679	25.343	1357.234	1065.071
357.694	25.207	1356.041	1063.235
358.708	25.259	1354.834	1062.504
359.723	25.549	1354.842	1064.129
360.738	25.561	1353.985	1063.437
361.752	25.523	1352.003	1061.558
362.767	25.313	1350.871	1059.338
363.781	25.581	1349.991	1060.135
364.796	25.360	1349.907	1058.670
365.810	25.415	1349.690	1058.733
366.825	25.806	1349.448	1060.749
367.840	25.905	1349.572	1061.339
368.854	25.711	1348.658	1059.385
369.869	26.120	1348.127	1061.278
370.883	26.207	1346.724	1060.592
371.898	25.997	1345.859	1058.584
372.913	25.860	1345.332	1057.270
373.927	25.789	1344.406	1056.033
374.942	25.794	1343.108	1054.949
375.956	25.913	1342.729	1055.259
376.971	26.188	1340.659	1055.142
377.986	25.883	1340.635	1053.249
379.000	25.601	1340.906	1051.718
380.015	25.973	1338.912	1052.235
381.029	26.226	1338.843	1053.560
382.044	26.250	1338.750	1053.539
383.059	26.247	1336.782	1051.877
384.073	26.084	1336.988	1050.998
385.088	26.156	1336.182	1050.690
386.102	25.915	1335.441	1048.613
387.117	26.247	1335.517	1050.510
388.132	25.821	1334.984	1047.522
389.146	25.938	1331.827	1045.632
390.161	25.516	1332.107	1043.307
391.175	25.480	1331.434	1042.477
392.190	25.740	1329.853	1042.656
393.205	25.817	1328.986	1042.331
394.219	26.145	1328.296	1043.594
395.234	26.156	1328.124	1043.430
396.248	26.191	1326.599	1042.337
397.263	25.811	1325.856	1039.470
398.278	25.653	1323.895	1036.932
399.292	25.788	1322.794	1036.753
400.307	25.742	1322.537	1036.194
401.321	25.700	1321.389	1034.964
402.336	25.965	1319.343	1034.791
403.350	25.750	1318.336	1032.675
404.365	25.161	1317.838	1028.820
405.380	25.427	1317.581	1030.054
406.394	25.863	1317.616	1032.486
407.409	25.778	1316.064	1030.694
408.423	25.869	1315.061	1030.337
409.438	26.221	1314.373	1031.721
410.453	26.382	1314.452	1032.610
411.467	26.229	1313.804	1031.132
412.482	26.209	1312.937	1030.245
413.496	26.062	1313.158	1029.490
414.511	26.329	1311.897	1029.936
415.526	26.560	1311.586	1030.913
416.540	26.493	1309.785	1029.025
417.555	26.614	1310.108	1029.877
418.569	26.690	1309.001	1029.347
419.584	26.361	1308.657	1027.116
420.599	26.583	1307.024	1027.003
421.613	143.109	1435.671	1792.983
422.628	138.686	1454.379	1793.085
