DTS Sentinel unit serial number:	SN413079Multiplexer serial number:	ORYXHardware model number:	OX4-SRSoftware version number:	ORYX F/W v4.00 Oryx Data Collector v3.7.2.0data status	okinstallation	princeton_trtdifferential loss correction	single-endedforward channel	channel 4reverse channel	N/Adate	2019/09/14time	19:57:34forward acquisition time	60.00reverse acquisition time	0.00gamma	496.2192k internal	0.2305k external	0.2305temperature offset calibration	1.0099default loss term (dB/km)	0.3790temperature slope calibration	1.0000multiplexer offset coefficient	1.0000multiplexer slope coefficient	1.0000fibre end	0.00T internal ref (°C)	34.16T ext. ref 1 (°C)	4.89T ext. ref 2 (°C)	28.42length (m)	temperature (°C)	Stokes	anti-Stokes-747.200	-68.708	0.368	-0.145
-746.185	-200.000	0.035	0.317
-745.171	800.000	-0.015	-0.043
-744.156	111.598	0.042	0.052
-743.142	-28.876	0.330	-0.193
-742.127	461.764	-0.118	0.269
-741.112	-168.620	-0.224	-0.009
-740.098	-98.751	0.097	-0.025
-739.083	206.358	0.077	0.123
-738.069	133.317	-0.265	0.348
-737.054	-110.268	-0.367	0.078
-736.039	-200.000	0.023	-0.125
-735.025	800.000	0.017	0.066
-734.010	-12.125	-0.277	-0.185
-732.996	-35.362	0.136	0.075
-731.981	70.271	-0.087	-0.091
-730.966	800.000	0.037	0.140
-729.952	63.759	-0.146	0.149
-728.937	-56.745	0.079	-0.035
-727.923	-97.528	-0.155	-0.041
-726.908	800.000	-0.103	0.448
-725.894	800.000	-0.044	0.156
-724.879	800.000	-0.105	-0.436
-723.864	155.945	-0.203	-0.285
-722.850	70.423	-0.041	-0.043
-721.835	-200.000	-0.020	-0.166
-720.821	-105.659	-0.267	-0.061
-719.806	50.600	0.247	0.238
-718.791	131.998	0.056	0.073
-717.777	-200.000	-0.001	-0.298
-716.762	800.000	-0.069	-0.256
-715.748	9.793	-0.072	0.056
-714.733	20.215	-0.193	0.158
-713.718	106.461	0.077	0.092
-712.704	41.267	-0.089	0.082
-711.689	71.040	0.023	-0.024
-710.675	-62.332	0.100	-0.042
-709.660	2.673	-0.087	0.064
-708.645	569.859	0.039	0.096
-707.631	800.000	-0.041	-0.115
-706.616	211.560	0.127	0.204
-705.602	77.009	-0.255	-0.275
-704.587	17.214	-0.242	-0.195
-703.572	800.000	0.049	0.154
-702.558	184.954	0.120	0.180
-701.543	-64.684	0.142	0.058
-700.529	-33.955	-0.160	0.089
-699.514	272.884	-0.198	-0.355
-698.499	-69.815	0.097	0.038
-697.485	-76.405	0.347	-0.124
-696.470	-200.000	-0.060	-0.422
-695.456	18.708	0.094	0.077
-694.441	-74.825	-0.145	-0.053
-693.426	56.942	-0.255	-0.253
-692.412	-110.095	-0.200	0.042
-691.397	-200.000	0.029	-0.192
-690.383	717.569	-0.047	0.127
-689.368	-200.000	-0.017	0.094
-688.354	-200.000	0.005	-0.294
-687.339	-114.935	0.104	-0.020
-686.324	-27.915	0.242	0.142
-685.310	-200.000	-0.037	0.190
-684.295	-0.780	0.093	0.067
-683.281	-79.916	-0.091	0.031
-682.266	-141.887	-0.300	-0.030
-681.251	-200.000	0.083	0.429
-680.237	-111.992	-0.163	0.033
-679.222	259.159	0.283	-0.497
-678.208	-200.000	0.012	-0.189
-677.193	136.794	0.030	-0.040
-676.178	-200.000	0.006	-0.219
-675.164	438.563	-0.053	-0.118
-674.149	-91.044	-0.235	-0.068
-673.135	55.138	-0.056	-0.055
-672.120	-132.510	0.359	0.047
-671.105	-160.587	0.146	0.008
-670.091	-39.887	-0.314	0.166
-669.076	169.171	0.010	-0.014
-668.062	-33.085	-0.515	-0.290
-667.047	-200.000	-0.026	0.279
-666.032	-49.931	-0.277	0.133
-665.018	167.559	-0.056	0.080
-664.003	50.025	-0.070	-0.067
-662.989	-73.029	-0.088	0.033
-661.974	83.011	-0.164	-0.181
-660.959	800.000	0.153	-0.533
-659.945	-156.675	0.306	-0.019
-658.930	132.260	-0.167	-0.218
-657.916	-200.000	0.015	-0.152
-656.901	275.892	0.130	-0.234
-655.886	-42.992	0.310	0.160
-654.872	-65.112	-0.258	-0.106
-653.857	168.337	0.159	-0.230
-652.843	65.346	-0.045	-0.046
-651.828	-123.271	-0.207	0.034
-650.814	800.000	0.138	0.508
-649.799	-175.108	-0.172	0.005
-648.784	-145.922	-0.182	0.016
-647.770	-200.000	0.013	0.115
-646.755	800.000	0.072	-0.304
-645.741	73.597	-0.177	-0.188
-644.726	280.822	0.009	-0.016
-643.711	-87.087	0.072	0.022
-642.697	154.426	-0.118	0.165
-641.682	800.000	0.051	0.178
-640.668	-189.696	-0.120	0.001
-639.653	-200.000	-0.013	-0.207
-638.638	107.862	-0.317	0.382
-637.624	18.247	0.293	-0.237
-636.609	-121.907	-0.219	0.037
-635.595	800.000	0.073	-0.234
-634.580	-126.821	-0.251	-0.038
-633.565	-99.105	-0.159	-0.041
-632.551	612.784	-0.027	0.069
-631.536	-18.833	-0.407	-0.257
-630.522	-82.440	0.280	-0.092
-629.507	-163.855	-0.393	0.019
-628.492	-30.700	0.158	0.090
-627.478	-89.630	0.060	0.018
-626.463	-200.000	-0.075	-0.351
-625.449	-65.627	-0.179	-0.073
-624.434	-34.838	-0.045	0.025
-623.419	-68.949	0.195	0.076
-622.405	99.928	0.196	-0.230
-621.390	-200.000	0.014	-0.095
-620.376	-76.335	0.229	-0.082
-619.361	-58.664	-0.283	0.124
-618.346	402.576	-0.162	0.346
-617.332	-24.503	0.152	0.092
-616.317	800.000	0.044	-0.183
-615.303	147.969	0.074	0.101
-614.288	-200.000	-0.003	-0.246
-613.273	800.000	-0.041	0.174
-612.259	110.016	-0.125	0.152
-611.244	-161.925	-0.279	0.014
-610.230	66.342	0.053	-0.054
-609.215	-83.960	-0.388	-0.125
-608.201	183.829	-0.152	0.228
-607.186	231.013	0.048	-0.079
-606.171	800.000	-0.048	-0.176
-605.157	-200.000	-0.046	-0.463
-604.142	101.404	0.085	-0.100
-603.128	-88.077	-0.345	0.105
-602.113	-200.000	-0.028	0.319
-601.098	224.539	-0.118	0.193
-600.084	368.895	0.096	-0.197
-599.069	179.916	0.068	-0.101
-598.055	61.502	0.046	0.046
-597.040	-173.491	0.318	-0.010
-596.025	169.833	0.104	-0.150
-595.011	-56.133	-0.296	0.133
-593.996	800.000	-0.048	0.187
-592.982	-100.096	-0.145	0.037
-591.967	-129.604	-0.123	0.017
-590.952	274.777	-0.023	0.041
-589.938	123.495	0.056	-0.072
-588.923	-152.524	-0.439	-0.032
-587.909	-167.869	0.396	0.016
-586.894	303.217	0.175	0.329
-585.879	361.234	0.231	-0.467
-584.865	-92.749	0.078	0.022
-583.850	-200.000	-0.065	0.298
-582.836	19.624	-0.110	0.090
-581.821	-55.726	-0.097	-0.044
-580.806	182.938	-0.077	-0.114
-579.792	557.590	-0.066	0.161
-578.777	-133.962	-0.068	0.009
-577.763	-134.746	-0.096	-0.012
-576.748	300.468	-0.131	0.245
-575.733	49.747	0.038	0.036
-574.719	-68.869	-0.213	-0.083
-573.704	38.491	-0.143	-0.129
-572.690	-200.000	-0.015	-0.097
-571.675	-200.000	-0.016	-0.169
-570.661	223.501	-0.074	0.120
-569.646	221.369	0.164	-0.266
-568.631	-200.000	0.070	-0.401
-567.617	133.073	0.166	-0.217
-566.602	177.876	-0.252	0.372
-565.588	-31.111	-0.260	0.148
-564.573	777.801	0.048	-0.132
-563.558	-90.253	-0.117	-0.034
-562.544	-200.000	0.002	-0.089
-561.529	20.612	-0.115	0.094
-560.515	549.561	0.058	0.140
-559.500	-200.000	-0.024	0.291
-558.485	-52.544	-0.053	-0.025
-557.471	95.185	-0.075	-0.087
-556.456	40.802	0.357	0.325
-555.442	-115.777	0.342	0.065
-554.427	-145.827	-0.164	0.015
-553.412	-54.897	0.077	-0.035
-552.398	-62.184	-0.055	0.023
-551.383	800.000	0.164	0.468
-550.369	-18.170	0.143	0.091
-549.354	746.878	0.039	0.105
-548.339	231.993	-0.141	-0.233
-547.325	172.050	0.045	0.065
-546.310	-200.000	0.091	-0.505
-545.296	161.099	0.134	-0.189
-544.281	486.218	-0.133	-0.306
-543.266	-61.036	0.602	0.257
-542.252	-130.969	-0.237	0.032
-541.237	-48.304	-0.215	0.105
-540.223	-114.490	0.370	0.072
-539.208	281.551	-0.211	0.381
-538.193	-88.860	0.036	-0.011
-537.179	800.000	0.038	-0.107
-536.164	101.694	0.118	-0.139
-535.150	-200.000	-0.016	0.276
-534.135	800.000	0.041	-0.161
-533.121	84.318	0.177	0.195
-532.106	61.132	-0.123	-0.123
-531.091	304.673	-0.037	-0.070
-530.077	-101.408	0.214	-0.053
-529.062	-64.727	0.080	-0.033
-528.048	-75.172	0.178	-0.064
-527.033	48.367	-0.245	-0.232
-526.018	-70.526	0.304	0.116
-525.004	-200.000	-0.012	0.212
-523.989	-96.675	-0.034	-0.009
-522.975	152.948	0.159	-0.219
-521.960	-28.819	0.178	-0.104
-520.945	800.000	0.089	0.328
-519.931	-200.000	0.020	0.088
-518.916	136.942	-0.249	-0.328
-517.902	-68.394	-0.103	-0.040
-516.887	139.939	-0.183	0.243
-515.872	-127.061	0.177	-0.026
-514.858	-98.259	-0.132	0.034
-513.843	11.049	-0.104	-0.080
-512.829	244.738	0.177	0.300
-511.814	-48.854	-0.133	0.064
-510.799	94.877	-0.135	0.155
-509.785	47.410	0.282	0.265
-508.770	-81.048	-0.146	0.049
-507.756	-130.148	0.081	0.011
-506.741	8.530	-0.124	-0.094
-505.726	41.281	0.103	0.094
-504.712	142.765	0.133	-0.179
-503.697	-200.000	0.041	0.209
-502.683	23.019	-0.089	0.074
-501.668	41.868	0.087	0.079
-500.653	-200.000	-0.006	-0.282
-499.639	40.929	0.157	0.143
-498.624	325.933	-0.103	0.199
-497.610	-118.053	0.451	0.081
-496.595	155.813	0.180	0.250
-495.581	154.824	-0.166	0.230
-494.566	-24.139	0.387	-0.233
-493.551	616.830	-0.073	0.184
-492.537	-72.249	0.381	0.143
-491.522	5.345	0.078	0.058
-490.508	800.000	0.037	-0.136
-489.493	65.863	-0.103	-0.105
-488.478	-200.000	0.001	-0.092
-487.464	38.689	0.126	-0.113
-486.449	-103.562	-0.299	0.071
-485.435	-62.897	-0.312	-0.130
-484.420	-200.000	-0.080	-0.511
-483.405	-47.945	0.140	0.068
-482.391	800.000	-0.006	-0.023
-481.376	127.189	0.258	0.330
-480.362	554.348	-0.072	-0.175
-479.347	-183.159	-0.197	0.003
-478.332	-71.647	0.298	-0.112
-477.318	77.694	0.099	0.107
-476.303	-195.059	-0.317	0.002
-475.289	-200.000	-0.071	-0.385
-474.274	-25.793	0.089	-0.053
-473.259	591.810	-0.021	-0.051
-472.245	800.000	0.070	-0.263
-471.230	-100.877	0.126	-0.031
-470.216	800.000	-0.090	-0.375
-469.201	5.206	-0.149	0.111
-468.186	199.621	0.111	0.171
-467.172	-79.237	-0.176	-0.060
-466.157	68.291	-0.145	-0.150
-465.143	154.361	-0.183	0.253
-464.128	547.076	-0.041	0.098
-463.113	-29.525	-0.068	0.039
-462.099	-75.169	0.144	0.052
-461.084	-108.929	0.185	0.040
-460.070	4.429	-0.341	0.252
-459.055	-200.000	0.025	-0.189
-458.040	357.532	0.104	0.209
-457.026	178.713	-0.188	0.276
-456.011	-125.346	-0.400	0.061
-454.997	-133.180	0.194	0.025
-453.982	66.925	-0.194	-0.199
-452.968	-1.764	0.134	-0.095
-451.953	49.811	-0.113	-0.107
-450.938	-148.722	0.200	-0.016
-449.924	-83.213	-0.272	0.088
-448.909	685.461	-0.106	-0.280
-447.895	101.713	-0.167	-0.195
-446.880	37.228	-0.327	0.291
-445.865	800.000	-0.031	0.124
-444.851	-45.335	0.153	0.076
-443.836	407.222	0.097	-0.205
-442.822	-79.646	-0.099	-0.034
-441.807	537.103	0.066	-0.157
-440.792	232.812	0.179	-0.297
-439.778	-200.000	0.003	-0.251
-438.763	-86.047	0.089	0.028
-437.749	18.365	-0.195	-0.156
-436.734	-200.000	-0.033	0.383
-435.719	-20.340	-0.188	-0.117
-434.705	-99.175	0.230	-0.058
-433.690	400.285	-0.087	0.183
-432.676	93.349	0.167	0.190
-431.661	800.000	-0.081	0.269
-430.646	220.936	0.209	-0.338
-429.632	417.772	-0.059	-0.127
-428.617	-118.926	-0.141	-0.025
-427.603	89.087	0.176	-0.197
-426.588	-126.017	0.267	-0.040
-425.573	19.730	0.151	-0.122
-424.559	521.567	-0.073	-0.171
-423.544	-48.968	-0.313	0.151
-422.530	-119.782	-0.367	0.064
-421.515	-38.791	0.541	0.287
-420.500	-200.000	0.012	0.061
-419.486	214.210	-0.088	-0.140
-418.471	-200.000	0.040	0.428
-417.457	-135.800	-0.096	-0.011
-416.442	447.802	0.062	-0.137
-415.428	161.909	0.079	0.111
-414.413	237.521	0.131	0.219
-413.398	46.510	-0.134	-0.125
-412.384	-60.221	0.476	-0.204
-411.369	277.228	-0.260	0.464
-410.355	800.000	-0.143	-0.401
-409.340	20.868	0.156	0.127
-408.325	112.664	0.113	0.137
-407.311	186.542	-0.092	0.137
-406.296	191.015	-0.058	-0.088
-405.282	393.186	-0.077	0.161
-404.267	198.556	0.211	0.324
-403.252	-56.685	-0.147	0.065
-402.238	117.976	-0.231	0.286
-401.223	-75.913	0.080	0.028
-400.209	-200.000	-0.030	-0.333
-399.194	-104.401	0.271	0.063
-398.179	103.507	-0.300	0.353
-397.165	-137.156	0.215	0.025
-396.150	800.000	-0.035	0.113
-395.136	15.104	0.231	0.181
-394.121	-106.778	0.361	0.081
-393.106	136.985	-0.025	0.032
-392.092	-39.133	0.129	0.068
-391.077	69.596	-0.125	-0.129
-390.063	507.238	0.135	0.314
-389.048	800.000	0.119	-0.356
-388.033	71.419	0.162	0.168
-387.019	189.156	0.125	-0.188
-386.004	52.790	-0.183	0.175
-384.990	-28.403	-0.321	-0.186
-383.975	369.182	0.171	-0.347
-382.960	800.000	0.045	0.175
-381.946	800.000	0.135	-0.378
-380.931	58.205	-0.148	0.145
-379.917	-97.840	0.264	0.068
-378.902	800.000	0.039	-0.111
-377.888	77.925	-0.035	0.037
-376.873	-200.000	-0.042	-0.263
-375.858	-200.000	-0.031	-0.220
-374.844	104.875	0.140	-0.166
-373.829	-48.336	-0.096	0.046
-372.815	340.517	0.168	0.329
-371.800	-200.000	0.025	0.125
-370.785	646.032	0.040	0.102
-369.771	-152.044	0.204	-0.015
-368.756	416.565	0.162	0.347
-367.742	-115.551	-0.339	-0.064
-366.727	17.451	-0.064	0.051
-365.712	-200.000	0.002	-0.491
-364.698	-2.227	-0.235	0.165
-363.683	-200.000	0.036	0.274
-362.669	-20.994	0.145	0.089
-361.654	316.428	-0.077	-0.146
-360.639	-116.901	-0.122	0.022
-359.625	-35.956	-0.141	-0.076
-358.610	35.706	-0.264	0.232
-357.596	-6.318	0.249	0.171
-356.581	210.224	-0.214	-0.337
-355.566	81.660	-0.248	-0.269
-354.552	-58.905	0.430	0.186
-353.537	-200.000	0.051	-0.240
-352.523	19.139	0.238	-0.192
-351.508	800.000	-0.057	-0.227
-350.493	76.201	0.163	-0.173
-349.479	11.308	-0.338	0.259
-348.464	-87.012	-0.071	-0.022
-347.450	-59.372	0.144	0.062
-346.435	-38.248	-0.115	-0.061
-345.420	-4.312	0.051	-0.036
-344.406	-200.000	-0.006	0.062
-343.391	192.040	-0.075	0.113
-342.377	117.415	0.079	-0.097
-341.362	-132.270	-0.198	-0.026
-340.348	24.770	0.085	-0.071
-339.333	-200.000	0.025	-0.141
-338.318	-200.000	0.050	0.260
-337.304	112.003	-0.097	-0.118
-336.289	78.751	-0.188	-0.202
-335.275	-200.000	-0.008	-0.223
-334.260	-148.206	-0.153	-0.013
-333.245	800.000	0.024	0.074
-332.231	137.930	-0.135	0.177
-331.216	-67.565	0.149	0.058
-330.202	26.327	-0.054	-0.045
-329.187	180.685	0.093	0.137
-328.172	291.517	-0.164	-0.300
-327.158	409.643	-0.085	0.181
-326.143	344.538	0.017	-0.034
-325.129	24.046	0.063	-0.052
-324.114	-106.240	-0.222	-0.050
-323.099	-62.313	0.414	0.172
-322.085	-19.086	0.189	-0.118
-321.070	-200.000	0.030	0.188
-320.056	-3.700	0.146	0.102
-319.041	84.488	-0.250	-0.274
-318.026	70.222	-0.121	0.125
-317.012	-112.127	0.100	0.020
-315.997	800.000	0.009	0.035
-314.983	268.588	-0.097	0.171
-313.968	-120.698	0.396	0.067
-312.953	86.407	-0.120	0.132
-311.939	-36.153	-0.221	-0.119
-310.924	584.563	0.065	-0.159
-309.910	40.202	-0.281	0.253
-308.895	-7.058	0.231	0.157
-307.880	-21.215	0.195	0.119
-306.866	84.130	0.169	-0.185
-305.851	-39.399	0.274	0.144
-304.837	-200.000	0.048	0.214
-303.822	-200.000	0.011	0.055
-302.807	-120.044	0.157	0.027
-301.793	-72.414	0.074	0.027
-300.778	-104.424	0.349	-0.081
-299.764	144.059	0.273	0.364
-298.749	-26.992	0.048	0.028
-297.735	-46.407	0.115	0.057
-296.720	800.000	0.020	-0.086
-295.705	-153.896	-0.174	0.012
-294.691	-200.000	-0.001	0.144
-293.676	-123.732	-0.095	0.015
-292.662	-200.000	0.070	-0.355
-291.647	-13.610	-0.244	-0.158
-290.632	-128.980	-0.335	-0.047
-289.618	800.000	0.010	0.031
-288.603	-84.697	-0.190	-0.060
-287.589	115.555	0.135	0.165
-286.574	-200.000	0.055	0.339
-285.559	800.000	0.047	0.165
-284.545	9.081	-0.193	0.146
-283.530	-108.899	-0.237	0.051
-282.516	800.000	-0.035	-0.102
-281.501	231.732	0.094	-0.154
-280.486	-23.599	0.209	0.125
-279.472	301.325	0.094	0.173
-278.457	-200.000	-0.034	0.163
-277.443	-101.913	0.265	0.064
-276.428	149.451	-0.107	-0.145
-275.413	58.398	0.104	-0.102
-274.399	-29.131	0.328	0.188
-273.384	-68.386	-0.384	0.149
-272.370	-107.611	0.106	-0.023
-271.355	-129.131	-0.220	-0.031
-270.340	15.986	0.226	-0.178
-269.326	-58.137	-0.286	-0.124
-268.311	-38.079	-0.243	-0.129
-267.297	-137.119	0.248	-0.028
-266.282	-147.465	-0.117	-0.010
-265.267	167.435	0.058	-0.082
-264.253	103.634	-0.120	0.141
-263.238	-130.472	0.269	-0.036
-262.224	-102.396	0.298	0.071
-261.209	61.226	-0.138	-0.137
-260.195	-200.000	0.001	0.278
-259.180	-200.000	-0.034	-0.308
-258.165	17.923	0.123	0.098
-257.151	54.551	0.425	0.409
-256.136	17.440	0.245	0.195
-255.122	125.500	0.029	0.037
-254.107	-200.000	0.002	-0.050
-253.092	-200.000	0.056	0.302
-252.078	-64.789	-0.147	-0.059
-251.063	-139.684	-0.122	0.013
-250.049	-200.000	0.016	-0.124
-249.034	-187.486	0.362	-0.005
-248.019	330.136	0.110	-0.212
-247.005	-167.786	-0.100	-0.004
-245.990	2.650	-0.059	-0.043
-244.976	-51.540	0.049	0.023
-243.961	-200.000	0.009	-0.237
-242.946	-87.510	0.240	0.072
-241.932	-200.000	0.057	-0.534
-240.917	634.869	-0.101	-0.255
-239.903	211.881	-0.164	0.257
-238.888	-200.000	0.005	0.215
-237.873	-30.371	0.074	0.042
-236.859	-102.295	-0.053	0.013
-235.844	6.246	0.262	-0.194
-234.830	-200.000	0.092	0.460
-233.815	24.190	-0.016	0.013
-232.800	-200.000	-0.042	-0.436
-231.786	-81.800	-0.204	0.067
-230.771	-200.000	0.008	-0.173
-229.757	201.072	0.178	-0.273
-228.742	271.447	0.051	0.090
-227.727	632.061	0.032	-0.080
-226.713	-200.000	-0.033	-0.356
-225.698	-27.628	-0.272	0.158
-224.684	24.568	0.066	0.055
-223.669	-32.135	-0.125	-0.070
-222.655	284.849	0.088	-0.158
-221.640	317.029	-0.088	0.166
-220.625	-140.898	0.300	0.031
-219.611	-197.605	-0.131	-0.001
-218.596	718.543	-0.131	-0.347
-217.582	145.820	0.171	0.228
-216.567	-29.570	-0.112	0.064
-215.552	-200.000	0.007	-0.041
-214.538	-200.000	0.035	0.294
-213.523	-104.159	-0.208	0.048
-212.509	-133.665	0.107	-0.013
-211.494	145.893	0.101	0.135
-210.479	-27.818	-0.176	-0.102
-209.465	332.946	0.072	-0.140
-208.450	-200.000	-0.017	-0.082
-207.436	-200.000	0.008	0.333
-206.421	-62.104	0.391	-0.163
-205.406	21.601	-0.245	-0.199
-204.392	-200.000	0.000	0.113
-203.377	-200.000	-0.016	-0.596
-202.363	16.425	-0.164	-0.129
-201.348	-66.059	-0.250	-0.099
-200.333	9.407	0.157	-0.118
-199.319	377.650	0.141	0.287
-198.304	800.000	-0.045	-0.145
-197.290	-56.632	0.091	-0.040
-196.275	-55.222	0.124	-0.056
-195.260	120.045	0.037	0.046
-194.246	536.868	0.088	0.209
-193.231	187.564	0.258	0.384
-192.217	-58.016	0.330	0.144
-191.202	-200.000	-0.008	0.053
-190.187	114.871	0.046	-0.056
-189.173	36.740	-0.288	-0.253
-188.158	27.601	-0.116	-0.097
-187.144	-44.144	0.333	0.166
-186.129	-200.000	-0.052	-0.249
-185.114	800.000	0.069	-0.208
-184.100	800.000	0.063	0.201
-183.085	87.992	-0.067	-0.074
-182.071	89.168	0.075	0.083
-181.056	-112.737	-0.269	0.053
-180.042	-4.387	-0.376	0.259
-179.027	-185.856	0.066	0.001
-178.012	194.122	-0.208	-0.314
-176.998	-30.775	0.092	-0.052
-175.983	-4.182	0.053	0.037
-174.969	-4.487	-0.316	0.217
-173.954	-47.012	-0.248	-0.120
-172.939	-200.000	-0.006	-0.284
-171.925	-130.987	-0.260	-0.035
-170.910	296.169	0.138	-0.252
-169.896	-71.013	0.286	-0.107
-168.881	27.845	-0.328	-0.275
-167.866	-22.946	-0.154	-0.092
-166.852	-34.359	-0.252	0.137
-165.837	147.497	-0.115	0.154
-164.823	-117.073	0.335	-0.061
-163.808	800.000	-0.055	-0.228
-162.793	238.021	-0.045	0.074
-161.779	136.314	-0.208	-0.270
-160.764	69.552	-0.168	-0.172
-159.750	-200.000	-0.148	0.000
-158.735	-161.558	-0.121	0.006
-157.720	-83.144	0.220	0.070
-156.706	-200.000	-0.055	0.328
-155.691	137.744	0.051	-0.066
-154.677	23.906	-0.176	0.144
-153.662	-101.960	-0.061	-0.015
-152.647	-200.000	0.022	0.131
-151.633	-182.635	0.209	-0.004
-150.618	-200.000	0.018	0.342
-149.604	-200.000	-0.014	0.064
-148.589	800.000	0.039	-0.113
-147.574	-200.000	0.042	-0.380
-146.560	-16.459	0.141	-0.089
-145.545	-8.766	0.110	0.073
-144.531	103.691	-0.254	-0.296
-143.516	-161.401	-0.158	-0.008
-142.502	-188.511	0.184	-0.002
-141.487	-20.117	-0.187	0.115
-140.472	-200.000	-0.007	-0.061
-139.458	-49.257	-0.076	0.036
-138.443	-70.549	0.206	-0.077
-137.429	117.595	0.122	0.149
-136.414	-130.328	0.281	-0.038
-135.399	-71.506	-0.077	-0.029
-134.385	-200.000	0.002	0.377
-133.370	800.000	0.086	-0.289
-132.356	-200.000	0.009	-0.039
-131.341	-148.758	0.194	0.016
-130.326	800.000	-0.075	0.216
-129.312	308.955	-0.045	0.084
-128.297	-123.398	-0.144	-0.023
-127.283	-200.000	0.021	-0.119
-126.268	639.107	-0.081	0.204
-125.253	-155.680	-0.315	-0.020
-124.239	14.254	0.268	0.208
-123.224	-181.958	0.373	0.007
-122.210	47.166	-0.311	-0.288
-121.195	-200.000	0.004	-0.153
-120.180	172.214	0.130	-0.186
-119.166	-129.955	0.232	0.032
-118.151	-60.261	-0.508	-0.215
-117.137	800.000	0.035	-0.107
-116.122	255.606	-0.043	-0.074
-115.107	-179.731	0.398	-0.009
-114.093	14.300	0.303	-0.235
-113.078	800.000	-0.067	0.194
-112.064	378.184	0.129	0.262
-111.049	-10.652	-0.288	-0.189
-110.034	-57.368	-0.073	-0.032
-109.020	22.207	-0.219	-0.177
-108.005	-200.000	0.028	0.202
-106.991	-156.513	0.388	-0.024
-105.976	-200.000	-0.089	0.390
-104.962	-166.751	-0.182	0.007
-103.947	180.264	-0.022	-0.032
-102.932	169.876	-0.233	0.331
-101.918	101.179	0.065	0.075
-100.903	-200.000	0.015	-0.197
-99.889	-56.140	0.172	-0.076
-98.874	-35.973	0.080	0.043
-97.859	17.970	-0.406	0.321
-96.845	28.808	0.006	0.005
-95.830	160.582	-0.120	-0.166
-94.816	79.352	-0.164	-0.174
-93.801	-65.263	-0.312	0.125
-92.786	547.837	-0.055	-0.129
-91.772	78.697	0.082	-0.087
-90.757	-53.748	-0.227	0.103
-89.743	-26.821	0.113	0.065
-88.728	704.556	0.086	-0.226
-87.713	-200.000	-0.006	-0.063
-86.699	-139.813	-0.164	0.017
-85.684	-200.000	0.057	0.364
-84.670	-90.713	0.179	-0.051
-83.655	-194.096	-0.247	0.002
-82.640	318.282	-0.078	0.146
-81.626	29.023	0.292	0.246
-80.611	429.458	0.211	0.452
-79.597	-2.795	0.132	0.092
-78.582	65.917	0.110	-0.111
-77.567	692.859	0.052	-0.136
-76.553	-200.000	-0.048	-0.238
-75.538	800.000	-0.007	-0.020
-74.524	637.615	-0.129	-0.326
-73.509	-17.753	-0.047	-0.030
-72.494	-185.014	0.234	-0.004
-71.480	-200.000	0.039	-0.264
-70.465	40.982	-0.221	0.198
-69.451	126.969	0.063	0.080
-68.436	330.066	0.031	0.059
-67.422	800.000	0.050	0.143
-66.407	-46.065	-0.141	0.069
-65.392	800.000	0.085	0.322
-64.378	-96.033	0.415	0.109
-63.363	-56.797	-0.114	0.050
-62.349	-19.698	-0.258	0.158
-61.334	70.788	-0.829	-0.851
-60.319	58.975	0.293	0.286
-59.305	333.674	-0.489	-0.938
-58.290	143.392	0.530	0.699
-57.276	347.276	0.702	1.370
-56.261	-200.000	96.539	572.547
-55.246	617.425	1392.675	3463.716
-54.232	187.636	2595.574	3838.860
-53.217	109.432	2317.326	2750.028
-52.203	40.602	2067.168	1845.590
-51.188	35.897	1981.274	1726.755
-50.173	34.378	1963.429	1697.611
-49.159	49.351	2013.256	1876.035
-48.144	51.446	2032.485	1912.780
-47.130	36.593	1991.849	1741.965
-46.115	34.088	1981.018	1709.944
-45.100	34.041	1978.230	1707.045
-44.086	34.055	1975.479	1704.728
-43.071	34.026	1972.896	1702.180
-42.057	33.936	1971.149	1699.794
-41.042	34.073	1968.778	1698.907
-40.027	33.969	1967.360	1696.689
-39.013	34.054	1964.987	1695.331
-37.998	34.051	1963.534	1693.990
-36.984	33.995	1961.695	1691.830
-35.969	34.071	1959.938	1690.924
-34.954	34.133	1958.007	1689.744
-33.940	34.056	1956.523	1687.715
-32.925	34.146	1954.716	1686.883
-31.911	34.195	1952.750	1685.553
-30.896	34.168	1951.328	1684.021
-29.881	34.209	1949.918	1683.103
-28.867	34.177	1948.366	1681.412
-27.852	34.275	1946.379	1680.491
-26.838	34.219	1944.663	1678.452
-25.823	34.194	1942.885	1676.633
-24.809	34.149	1941.158	1674.683
-23.794	34.120	1939.869	1673.242
-22.779	34.240	1937.491	1672.182
-21.765	34.188	1935.520	1669.955
-20.750	34.174	1934.716	1669.079
-19.736	34.133	1933.332	1667.452
-18.721	34.208	1931.050	1666.077
-17.706	34.193	1930.047	1665.019
-16.692	34.213	1928.199	1663.533
-15.677	34.233	1926.417	1662.100
-14.663	34.171	1925.167	1660.418
-13.648	34.184	1923.787	1659.275
-12.633	34.208	1922.372	1658.196
-11.619	34.171	1921.180	1656.784
-10.604	34.175	1920.239	1655.936
-9.590	34.158	1918.480	1654.203
-8.575	34.196	1917.453	1653.582
-7.560	34.196	1915.764	1652.065
-6.546	34.205	1914.739	1651.195
-5.531	34.102	1913.878	1649.495
-4.517	34.240	1912.557	1649.485
-3.502	34.209	1911.365	1648.124
-2.487	34.193	1910.033	1646.773
-1.473	34.151	1909.425	1645.814
-0.458	34.203	1904.568	1642.013
0.556	34.364	1884.479	1612.535
1.571	29.871	1864.838	1557.863
2.586	25.576	1885.953	1538.706
3.600	24.400	1921.746	1557.518
4.615	23.735	1916.038	1546.958
5.629	18.370	1814.962	1420.838
6.644	9.415	1696.928	1258.563
7.659	5.282	1659.857	1199.282
8.673	4.987	1656.874	1194.763
9.688	4.927	1655.503	1193.212
10.702	4.837	1654.252	1191.513
11.717	4.829	1651.328	1189.243
12.731	5.310	1650.571	1192.259
13.746	10.991	1663.983	1245.436
14.761	18.538	1679.643	1315.151
15.775	20.655	1681.326	1332.581
16.790	19.697	1678.584	1322.964
17.804	18.647	1675.632	1312.491
18.819	17.597	1671.827	1301.381
19.834	17.051	1669.635	1295.392
20.848	16.721	1668.077	1291.552
21.863	16.444	1666.822	1288.358
22.877	16.247	1664.993	1285.324
23.892	15.979	1664.086	1282.477
24.907	15.935	1662.580	1280.865
25.921	15.867	1661.724	1279.576
26.936	15.968	1660.359	1279.178
27.950	16.012	1659.520	1278.749
28.965	15.974	1659.023	1277.963
29.980	16.098	1657.918	1277.940
30.994	16.086	1657.805	1277.651
32.009	16.292	1655.670	1277.448
33.023	16.242	1655.462	1276.802
34.038	16.333	1654.362	1276.526
35.053	16.209	1653.323	1274.679
36.067	16.089	1652.346	1272.907
37.082	16.073	1651.287	1271.855
38.096	16.116	1650.276	1271.289
39.111	16.109	1649.568	1270.580
40.126	16.193	1648.427	1270.220
41.140	16.179	1647.514	1269.294
42.155	16.070	1645.925	1267.143
43.169	15.936	1644.683	1265.069
44.184	15.826	1643.692	1263.368
45.199	15.715	1642.627	1261.606
46.213	15.789	1641.423	1261.120
47.228	15.882	1640.085	1260.676
48.242	15.912	1638.943	1259.912
49.257	16.045	1637.795	1259.917
50.271	15.952	1637.121	1258.587
51.286	15.982	1635.924	1257.781
52.301	16.004	1634.223	1256.525
53.315	16.015	1632.837	1255.435
54.330	16.093	1631.071	1254.545
55.344	16.007	1629.419	1252.525
56.359	15.852	1628.077	1250.225
57.374	15.812	1627.371	1249.275
58.388	15.965	1625.780	1249.078
59.403	15.820	1624.886	1247.210
60.417	15.860	1623.280	1246.159
61.432	15.746	1622.295	1244.453
62.447	15.856	1620.997	1244.157
63.461	15.704	1620.074	1242.221
64.476	15.729	1618.631	1241.183
65.490	15.632	1617.716	1239.660
66.505	15.718	1616.650	1239.369
67.520	15.723	1615.332	1238.284
68.534	15.789	1614.683	1238.164
69.549	15.673	1613.777	1236.505
70.563	15.800	1611.988	1235.958
71.578	15.779	1610.873	1234.840
72.593	15.714	1610.072	1233.641
73.607	15.568	1609.377	1231.928
74.622	15.605	1607.868	1230.933
75.636	15.551	1607.224	1229.937
76.651	15.622	1606.176	1229.543
77.666	15.788	1605.341	1230.009
78.680	15.660	1604.705	1228.482
79.695	15.667	1604.399	1228.187
80.709	15.678	1603.011	1227.094
81.724	15.727	1602.727	1227.131
82.739	15.802	1601.529	1226.647
83.753	15.906	1600.378	1226.416
84.768	15.995	1599.317	1226.143
85.782	16.033	1599.265	1226.269
86.797	16.104	1598.575	1226.152
87.812	16.180	1597.203	1225.543
88.826	16.142	1595.813	1224.091
89.841	16.031	1594.821	1222.416
90.855	16.031	1593.775	1221.509
91.870	16.105	1592.968	1221.312
92.884	16.151	1591.485	1220.403
93.899	16.124	1591.438	1220.062
94.914	16.147	1589.777	1218.847
95.928	16.181	1588.856	1218.283
96.943	16.212	1587.569	1217.406
97.957	16.163	1585.828	1215.615
98.972	16.137	1584.708	1214.461
99.987	16.053	1583.189	1212.585
101.001	16.154	1580.680	1211.279
102.016	16.084	1579.984	1210.137
103.030	16.065	1578.802	1208.989
104.045	16.040	1577.641	1207.812
105.060	16.178	1575.779	1207.268
106.074	16.046	1574.605	1205.319
107.089	15.997	1572.447	1203.210
108.103	15.826	1571.696	1201.313
109.118	15.832	1569.553	1199.604
110.133	15.705	1568.554	1197.832
111.147	15.721	1567.115	1196.745
112.162	15.774	1566.001	1196.165
113.176	15.801	1564.548	1195.142
114.191	15.782	1563.220	1193.885
115.206	15.886	1562.076	1193.643
116.220	15.840	1560.758	1192.202
117.235	15.742	1559.918	1190.764
118.249	15.861	1558.043	1190.070
119.264	15.794	1557.042	1188.721
120.279	15.820	1555.311	1187.480
121.293	15.842	1553.877	1186.435
122.308	15.720	1552.568	1184.471
123.322	15.803	1550.674	1183.507
124.337	15.745	1549.146	1181.825
125.352	15.592	1548.364	1180.053
126.366	15.718	1547.500	1180.172
127.381	15.620	1546.516	1178.633
128.395	15.745	1545.149	1178.362
129.410	15.661	1544.033	1176.818
130.424	15.684	1542.613	1175.792
131.439	15.828	1541.181	1175.604
132.454	15.843	1539.716	1174.489
133.468	15.881	1538.727	1173.892
134.483	15.882	1537.104	1172.554
135.497	15.888	1536.044	1171.685
136.512	15.893	1534.551	1170.480
137.527	15.952	1533.356	1169.874
138.541	15.965	1532.537	1169.238
139.556	15.986	1530.663	1167.846
140.570	16.017	1529.365	1166.967
141.585	16.077	1527.997	1166.237
142.600	16.099	1527.190	1165.669
143.614	16.246	1525.759	1165.492
144.629	16.219	1524.929	1164.567
145.643	16.377	1523.248	1164.267
146.658	16.218	1522.181	1162.256
147.673	16.222	1520.413	1160.827
148.687	16.185	1518.924	1159.339
149.702	16.077	1517.721	1157.571
150.716	16.069	1515.691	1155.871
151.731	16.026	1514.643	1154.671
152.746	16.128	1513.308	1154.252
153.760	16.054	1511.795	1152.490
154.775	16.183	1510.385	1152.194
155.789	16.124	1509.124	1150.729
156.804	16.141	1508.611	1150.351
157.819	16.186	1507.469	1149.686
158.833	16.298	1505.645	1148.952
159.848	16.303	1504.770	1148.216
160.862	16.426	1503.543	1148.013
161.877	16.366	1502.486	1146.699
162.892	16.251	1501.229	1144.859
163.906	16.104	1500.398	1143.124
164.921	16.163	1498.587	1142.048
165.935	16.106	1498.101	1141.190
166.950	16.118	1497.251	1140.518
167.964	16.135	1495.736	1139.380
168.979	16.190	1494.789	1138.931
169.994	16.233	1493.473	1138.119
171.008	16.192	1492.493	1136.991
172.023	16.036	1491.810	1135.318
173.037	16.265	1490.368	1135.662
174.052	16.337	1489.421	1135.323
175.067	16.343	1488.432	1134.510
176.081	16.324	1486.982	1133.178
177.096	16.312	1485.257	1131.681
178.110	16.124	1484.632	1129.846
179.125	16.121	1483.298	1128.715
180.140	16.215	1482.345	1128.513
181.154	16.239	1481.204	1127.709
182.169	16.294	1480.281	1127.275
183.183	16.334	1479.109	1126.551
184.198	16.355	1478.180	1125.879
185.213	16.317	1477.651	1125.128
186.227	16.425	1476.498	1124.864
187.242	16.583	1475.098	1124.752
188.256	16.487	1474.444	1123.514
189.271	16.488	1473.265	1122.524
190.286	16.651	1472.216	1122.709
191.300	16.623	1471.224	1121.665
192.315	16.437	1469.618	1119.112
193.329	16.161	1468.570	1116.386
194.344	16.191	1467.073	1115.350
195.359	16.165	1466.555	1114.683
196.373	16.305	1465.414	1114.643
197.388	16.384	1464.388	1114.287
198.402	16.445	1463.467	1113.885
199.417	16.484	1462.820	1113.554
200.432	16.617	1461.933	1113.652
201.446	16.693	1461.141	1113.449
202.461	16.776	1459.732	1112.825
203.475	16.846	1458.318	1112.107
204.490	16.781	1457.815	1111.201
205.504	16.771	1456.785	1110.248
206.519	16.738	1455.122	1108.667
207.534	16.609	1454.162	1106.998
208.548	16.640	1453.004	1106.215
209.563	16.697	1451.786	1105.563
210.577	16.727	1450.405	1104.612
211.592	16.711	1449.800	1103.948
212.607	16.759	1449.259	1103.753
213.621	16.872	1448.548	1103.849
214.636	16.850	1448.069	1103.245
215.650	16.873	1446.900	1102.404
216.665	16.823	1446.171	1101.425
217.680	16.849	1445.325	1100.853
218.694	16.896	1444.234	1100.229
219.709	17.015	1443.225	1100.139
220.723	17.023	1442.192	1099.305
221.738	16.946	1442.027	1098.584
222.753	16.933	1440.934	1097.568
223.767	16.895	1439.842	1096.389
224.782	16.949	1438.560	1095.667
225.796	16.995	1437.563	1095.110
226.811	17.071	1436.966	1095.048
227.826	17.112	1436.192	1094.622
228.840	17.065	1435.661	1093.822
229.855	16.947	1434.559	1092.122
230.869	17.086	1433.122	1091.826
231.884	17.080	1431.970	1090.813
232.899	16.984	1431.261	1089.559
233.913	16.964	1429.772	1088.206
234.928	16.944	1428.609	1087.093
235.942	16.879	1427.002	1085.356
236.957	16.963	1425.942	1084.994
237.972	16.922	1425.010	1083.923
238.986	16.902	1424.341	1083.193
240.001	16.992	1423.155	1082.771
241.015	16.969	1422.100	1081.729
242.030	16.898	1421.118	1080.432
243.045	17.009	1420.243	1080.376
244.059	17.086	1419.347	1080.090
245.074	16.975	1418.940	1078.980
246.088	17.061	1417.870	1078.614
247.103	17.127	1416.739	1078.078
248.117	17.229	1416.422	1078.392
249.132	17.359	1415.127	1078.130
250.147	17.305	1414.953	1077.561
251.161	17.356	1414.487	1077.432
252.176	17.563	1413.861	1078.174
253.190	17.681	1412.824	1078.031
254.205	17.647	1412.211	1077.253
255.220	17.675	1411.556	1076.835
256.234	17.596	1410.739	1075.623
257.249	17.692	1410.132	1075.667
258.263	17.693	1408.708	1074.494
259.278	17.681	1408.084	1073.846
260.293	17.700	1406.969	1073.021
261.307	17.792	1406.236	1072.942
262.322	17.742	1405.853	1072.241
263.336	17.799	1404.520	1071.487
264.351	17.850	1403.713	1071.097
265.366	17.793	1402.867	1070.004
266.380	17.849	1401.962	1069.567
267.395	17.856	1400.956	1068.748
268.409	17.896	1399.962	1068.146
269.424	17.825	1398.917	1066.809
270.439	17.795	1397.826	1065.699
271.453	17.765	1397.059	1064.833
272.468	17.741	1396.349	1064.048
273.482	17.747	1395.567	1063.392
274.497	17.738	1394.602	1062.506
275.512	17.766	1393.487	1061.740
276.526	17.773	1392.647	1061.050
277.541	17.774	1391.732	1060.261
278.555	17.802	1390.415	1059.341
279.570	17.798	1390.216	1059.071
280.585	17.822	1389.203	1058.351
281.599	18.000	1388.320	1058.687
282.614	17.983	1387.456	1057.835
283.628	18.002	1386.287	1056.963
284.643	17.980	1384.936	1055.707
285.657	17.881	1383.811	1054.144
286.672	17.873	1383.000	1053.384
287.687	18.040	1382.100	1053.632
288.701	17.849	1381.249	1051.714
289.716	17.970	1380.472	1051.775
290.730	17.996	1379.232	1050.895
291.745	17.885	1378.322	1049.430
292.760	18.004	1378.098	1049.894
293.774	18.024	1376.468	1048.685
294.789	17.995	1376.149	1048.173
295.803	18.080	1375.527	1048.125
296.818	18.079	1374.619	1047.335
297.833	18.131	1373.232	1046.507
298.847	17.991	1372.498	1044.994
299.862	18.032	1371.423	1044.333
300.876	18.035	1370.391	1043.474
301.891	18.099	1369.402	1043.018
302.906	18.169	1368.587	1042.736
303.920	18.186	1368.142	1042.405
304.935	18.215	1367.380	1041.913
305.949	18.255	1366.909	1041.704
306.964	18.327	1366.154	1041.474
307.979	18.487	1364.584	1041.156
308.993	18.331	1363.966	1039.648
310.008	18.391	1362.534	1038.823
311.022	18.364	1361.447	1037.743
312.037	18.447	1360.915	1037.747
313.052	18.463	1359.671	1036.804
314.066	18.385	1358.978	1035.713
315.081	18.379	1357.572	1034.509
316.095	18.310	1356.496	1033.185
317.110	18.238	1355.604	1031.979
318.125	18.221	1354.461	1030.913
319.139	18.196	1353.679	1030.078
320.154	18.309	1352.818	1030.009
321.168	18.206	1352.097	1028.753
322.183	18.281	1350.941	1028.233
323.197	18.296	1350.395	1027.816
324.212	18.372	1349.059	1027.161
325.227	18.430	1348.314	1026.851
326.241	18.314	1347.674	1025.577
327.256	18.363	1346.907	1025.202
328.270	18.332	1346.372	1024.517
329.285	18.357	1344.899	1023.454
330.300	18.391	1343.634	1022.605
331.314	18.365	1342.825	1021.742
332.329	18.375	1342.300	1021.311
333.343	18.394	1341.324	1020.592
334.358	18.347	1340.477	1019.580
335.373	18.458	1339.918	1019.722
336.387	18.514	1339.281	1019.478
337.402	18.551	1338.326	1018.880
338.416	18.554	1337.532	1018.206
339.431	18.595	1337.016	1017.966
340.446	18.617	1336.661	1017.738
341.460	18.681	1335.479	1017.127
342.475	18.863	1334.049	1017.027
343.489	18.809	1333.568	1016.248
344.504	18.883	1332.703	1015.934
345.519	18.856	1331.878	1015.056
346.533	18.883	1331.126	1014.555
347.548	18.911	1330.270	1013.978
348.562	18.956	1329.279	1013.398
349.577	18.982	1328.422	1012.810
350.592	18.953	1327.871	1012.128
351.606	18.836	1326.799	1010.534
352.621	18.812	1325.463	1009.283
353.635	18.649	1324.942	1007.842
354.650	18.722	1324.014	1007.475
355.665	18.768	1322.826	1006.750
356.679	18.759	1321.473	1005.578
357.694	18.830	1320.325	1005.035
358.708	18.729	1319.987	1004.095
359.723	18.911	1318.465	1003.914
360.738	19.013	1316.982	1003.287
361.752	18.930	1316.311	1002.202
362.767	18.912	1315.479	1001.376
363.781	18.926	1314.506	1000.633
364.796	18.952	1313.632	1000.031
365.810	19.083	1312.996	1000.218
366.825	19.151	1312.496	1000.145
367.840	19.128	1311.980	999.529
368.854	19.260	1311.064	999.509
369.869	19.222	1311.025	999.167
370.883	19.372	1309.804	999.017
371.898	19.251	1309.334	997.870
372.913	19.241	1308.680	997.225
373.927	19.080	1307.499	995.306
374.942	19.251	1306.486	995.435
375.956	19.296	1305.896	995.155
376.971	19.377	1305.303	995.084
377.986	19.251	1304.277	993.486
379.000	19.293	1303.333	992.922
380.015	19.297	1302.859	992.495
381.029	19.418	1301.667	992.196
382.044	19.483	1301.253	992.169
383.059	19.467	1300.649	991.525
384.073	19.438	1299.978	990.759
385.088	19.382	1299.375	989.892
386.102	19.476	1298.876	989.966
387.117	19.471	1297.760	988.999
388.132	19.457	1296.867	988.151
389.146	19.463	1295.974	987.416
390.161	19.306	1295.112	985.776
391.175	19.383	1294.321	985.524
392.190	19.266	1293.598	984.217
393.205	19.338	1292.946	984.045
394.219	19.517	1291.716	984.043
395.234	19.581	1290.222	983.181
396.248	19.565	1289.141	982.181
397.263	19.428	1287.952	980.409
398.278	19.426	1286.773	979.416
399.292	19.317	1285.974	978.101
400.307	19.364	1284.759	977.355
401.321	19.338	1283.547	976.200
402.336	19.345	1282.574	975.413
403.350	19.396	1281.451	974.764
404.365	19.393	1280.394	973.858
405.380	19.438	1279.806	973.579
406.394	19.438	1278.985	972.864
407.409	19.540	1278.589	973.052
408.423	19.629	1277.817	972.883
409.438	19.728	1277.160	972.854
410.453	19.822	1276.327	972.658
411.467	19.732	1276.116	971.906
412.482	19.788	1275.567	971.715
413.496	19.827	1274.752	971.228
414.511	19.904	1273.847	970.889
415.526	20.006	1273.147	970.838
416.540	20.067	1272.464	970.576
417.555	19.973	1271.881	969.519
418.569	19.982	1271.644	969.297
419.584	19.999	1270.717	968.603
420.599	20.019	1270.116	968.171
421.613	141.563	1431.532	1791.887
422.628	136.036	1455.051	1791.972
