DTS Sentinel unit serial number:	SN413079Multiplexer serial number:	ORYXHardware model number:	OX4-SRSoftware version number:	ORYX F/W v4.00 Oryx Data Collector v3.7.2.0data status	okinstallation	princeton_trtdifferential loss correction	single-endedforward channel	channel 4reverse channel	N/Adate	2019/09/13time	17:05:35forward acquisition time	60.00reverse acquisition time	0.00gamma	496.2192k internal	0.2292k external	0.2292temperature offset calibration	1.0205default loss term (dB/km)	0.3790temperature slope calibration	1.0000multiplexer offset coefficient	1.0000multiplexer slope coefficient	1.0000fibre end	0.00T internal ref (°C)	35.14T ext. ref 1 (°C)	4.82T ext. ref 2 (°C)	34.64length (m)	temperature (°C)	Stokes	anti-Stokes-747.200	-88.455	0.165	-0.050
-746.185	374.995	-0.051	0.106
-745.171	-200.000	-0.090	0.000
-744.156	-200.000	0.066	0.590
-743.142	-142.086	0.308	-0.031
-742.127	-200.000	0.059	0.374
-741.112	-31.689	-0.143	-0.082
-740.098	-82.537	-0.220	-0.073
-739.083	800.000	0.016	-0.060
-738.069	263.091	0.179	0.318
-737.054	-103.827	-0.328	0.078
-736.039	-153.192	-0.198	0.014
-735.025	-68.849	0.292	0.115
-734.010	-134.552	-0.061	-0.008
-732.996	584.225	-0.121	-0.305
-731.981	-37.679	0.083	-0.045
-730.966	-151.241	-0.310	0.024
-729.952	96.274	0.094	-0.110
-728.937	800.000	-0.049	-0.150
-727.923	760.596	-0.028	-0.077
-726.908	318.492	0.210	-0.406
-725.894	418.736	0.092	0.200
-724.879	205.294	0.068	-0.109
-723.864	166.567	0.205	-0.297
-722.850	-47.217	-0.167	-0.083
-721.835	250.932	-0.077	-0.134
-720.821	-200.000	0.018	0.138
-719.806	10.351	0.288	-0.224
-718.791	-200.000	0.049	0.224
-717.777	53.559	-0.263	0.258
-716.762	-10.203	0.099	0.067
-715.748	-96.623	-0.195	-0.053
-714.733	-165.516	-0.169	0.008
-713.718	123.467	-0.076	0.098
-712.704	-200.000	0.021	0.095
-711.689	608.786	-0.018	0.045
-710.675	28.089	-0.074	-0.064
-709.660	778.856	0.194	-0.541
-708.645	-6.064	-0.135	-0.094
-707.631	-82.260	-0.070	0.023
-706.616	-200.000	-0.002	0.023
-705.602	174.309	-0.113	-0.167
-704.587	40.327	0.154	0.142
-703.572	87.930	0.150	0.170
-702.558	-54.297	0.203	-0.094
-701.543	58.425	0.203	0.203
-700.529	297.254	-0.022	-0.041
-699.514	-91.145	-0.241	0.071
-698.499	-95.931	-0.063	0.017
-697.485	-13.511	-0.276	-0.182
-696.470	358.373	-0.132	-0.269
-695.456	-109.421	-0.430	-0.093
-694.441	97.801	-0.151	0.177
-693.426	-4.467	0.346	-0.244
-692.412	-92.531	-0.315	-0.090
-691.397	800.000	-0.071	-0.211
-690.383	-200.000	0.011	0.134
-689.368	-78.681	-0.104	-0.036
-688.354	1.652	0.074	-0.054
-687.339	80.388	-0.223	-0.246
-686.324	534.171	-0.077	-0.186
-685.310	-104.984	0.144	0.034
-684.295	161.517	-0.158	-0.226
-683.281	-66.800	0.206	0.083
-682.266	-200.000	-0.011	0.210
-681.251	-20.233	0.195	-0.123
-680.237	-141.265	-0.249	0.026
-679.222	116.945	-0.249	-0.312
-678.208	16.877	-0.079	-0.064
-677.193	800.000	0.068	-0.281
-676.178	500.143	0.078	0.183
-675.164	292.528	0.135	0.251
-674.149	-81.368	0.279	-0.094
-673.135	48.361	0.013	-0.013
-672.120	66.607	-0.264	0.274
-671.105	-84.684	0.369	0.119
-670.091	44.026	-0.298	-0.279
-669.076	441.021	-0.061	0.136
-668.062	323.841	0.091	0.178
-667.047	290.232	-0.053	0.098
-666.032	800.000	-0.037	0.129
-665.018	-45.394	-0.144	0.073
-664.003	-119.576	0.051	-0.009
-662.989	-200.000	0.017	-0.193
-661.974	-134.839	-0.302	0.037
-660.959	-87.739	-0.276	0.085
-659.945	-200.000	-0.058	0.291
-658.930	142.609	-0.107	0.144
-657.916	-3.336	0.064	0.046
-656.901	17.955	-0.131	-0.106
-655.886	-200.000	0.054	-0.334
-654.872	301.371	0.170	0.320
-653.857	324.464	0.063	-0.122
-652.843	68.967	-0.280	-0.293
-651.828	-72.754	0.133	0.050
-650.814	-200.000	0.018	-0.223
-649.799	800.000	-0.007	-0.024
-648.784	15.041	-0.105	-0.084
-647.770	-61.640	-0.212	0.091
-646.755	-8.610	0.255	0.174
-645.741	-200.000	0.034	-0.193
-644.726	-144.885	0.085	0.008
-643.711	-80.696	0.102	0.035
-642.697	81.912	-0.144	-0.159
-641.682	414.673	-0.043	0.092
-640.668	-200.000	-0.030	0.159
-639.653	436.070	0.082	-0.182
-638.638	-200.000	0.002	-0.222
-637.624	-87.569	0.173	0.053
-636.609	-28.463	0.322	-0.189
-635.595	-87.578	-0.218	0.067
-634.580	800.000	-0.018	0.073
-633.565	-37.729	-0.381	0.206
-632.551	800.000	0.109	0.388
-631.536	-200.000	0.008	-0.195
-630.522	-200.000	0.003	0.336
-629.507	-109.290	-0.053	0.011
-628.492	14.543	-0.088	0.070
-627.478	198.413	0.181	0.282
-626.463	500.968	-0.044	-0.104
-625.449	-54.949	0.191	-0.088
-624.434	-71.141	-0.255	0.098
-623.419	-20.497	0.065	0.040
-622.405	-55.199	0.140	0.064
-621.390	171.115	-0.142	-0.207
-620.376	10.624	-0.032	-0.025
-619.361	-159.644	-0.315	0.018
-618.346	202.611	-0.054	0.084
-617.332	-200.000	0.017	-0.173
-616.317	777.393	-0.057	-0.158
-615.303	214.902	-0.116	0.187
-614.288	-200.000	0.020	-0.467
-613.273	800.000	-0.023	0.090
-612.259	-124.284	-0.132	-0.021
-611.244	-29.810	0.401	-0.233
-610.230	229.728	0.147	0.244
-609.215	284.902	0.158	-0.290
-608.201	278.048	0.195	-0.354
-607.186	-116.026	0.113	0.021
-606.171	-79.476	-0.123	-0.042
-605.157	-24.300	0.086	0.052
-604.142	-192.431	0.289	0.003
-603.128	-150.899	-0.109	0.008
-602.113	574.401	0.131	0.325
-601.098	-200.000	0.007	0.196
-600.084	334.048	0.243	-0.479
-599.069	162.656	-0.070	0.101
-598.055	-200.000	-0.021	0.143
-597.040	-200.000	0.031	0.191
-596.025	39.844	-0.151	0.137
-595.011	-176.629	0.294	0.008
-593.996	-200.000	0.034	0.171
-592.982	-9.694	0.133	0.090
-591.967	99.059	-0.140	-0.165
-590.952	35.205	-0.091	0.081
-589.938	-99.939	0.260	-0.066
-588.923	-200.000	-0.007	-0.050
-587.909	-200.000	0.015	-0.112
-586.894	800.000	0.139	0.392
-585.879	-137.753	0.051	-0.006
-584.865	134.581	-0.337	0.445
-583.850	3.135	0.164	-0.122
-582.836	-67.876	-0.202	-0.080
-581.821	80.118	0.101	-0.111
-580.806	29.663	0.127	-0.110
-579.792	-112.553	-0.422	0.086
-578.777	-73.234	-0.198	0.074
-577.763	-58.327	0.258	0.114
-576.748	478.147	0.120	-0.277
-575.733	-200.000	0.063	-0.331
-574.719	-33.964	0.249	0.139
-573.704	-81.288	-0.244	0.082
-572.690	-133.819	-0.267	-0.034
-571.675	-91.173	-0.219	0.064
-570.661	371.342	-0.133	0.275
-569.646	800.000	-0.044	0.177
-568.631	-96.698	0.227	-0.061
-567.617	-200.000	0.007	-0.043
-566.602	-108.280	-0.109	-0.024
-565.588	800.000	0.062	0.212
-564.573	-177.464	0.150	-0.004
-563.558	-200.000	0.007	0.059
-562.544	40.511	-0.253	0.231
-561.529	-97.277	0.208	-0.055
-560.515	-57.053	-0.219	0.098
-559.500	-76.395	-0.059	-0.021
-558.485	156.497	-0.221	0.310
-557.471	32.846	-0.180	0.158
-556.456	135.675	-0.026	-0.034
-555.442	-200.000	0.038	0.228
-554.427	-43.191	0.112	-0.058
-553.412	-92.870	-0.339	-0.096
-552.398	250.930	0.112	-0.194
-551.383	15.506	0.047	0.037
-550.369	268.585	0.101	-0.179
-549.354	253.401	-0.098	0.170
-548.339	-33.767	-0.126	0.071
-547.325	267.401	0.039	0.070
-546.310	-118.348	-0.151	-0.027
-545.296	189.804	-0.195	0.297
-544.281	800.000	0.069	0.218
-543.266	800.000	0.053	0.181
-542.252	527.026	-0.029	-0.070
-541.237	369.128	0.138	-0.283
-540.223	85.496	0.272	-0.304
-539.208	188.988	-0.155	-0.236
-538.193	-200.000	0.013	-0.285
-537.179	2.425	-0.064	0.047
-536.164	-200.000	-0.011	-0.078
-535.150	-183.918	0.317	0.005
-534.135	-169.256	-0.130	0.005
-533.121	341.605	0.096	-0.191
-532.106	25.713	0.104	0.088
-531.091	247.090	-0.125	-0.215
-530.077	-3.629	-0.135	0.095
-529.062	800.000	0.091	-0.310
-528.048	674.091	-0.042	-0.109
-527.033	-119.724	-0.265	-0.046
-526.018	-155.841	-0.215	0.014
-525.004	127.705	-0.099	-0.127
-523.989	743.247	-0.122	-0.332
-522.975	-102.506	0.091	0.022
-521.960	53.750	0.060	-0.058
-520.945	-21.792	-0.560	-0.346
-519.931	-20.963	-0.338	-0.210
-518.916	-109.166	0.157	-0.034
-517.902	-200.000	-0.274	-0.000
-516.887	157.389	-0.104	-0.146
-515.872	-38.058	-0.083	0.045
-514.858	-200.000	0.022	0.308
-513.843	-58.373	-0.232	0.102
-512.829	289.242	-0.280	-0.516
-511.814	-41.219	-0.193	0.101
-510.799	195.950	0.175	0.270
-509.785	1.690	0.265	0.194
-508.770	-12.023	0.181	-0.121
-507.756	-48.702	-0.135	0.066
-506.741	-133.817	0.195	0.025
-505.726	-200.000	0.004	0.043
-504.712	-64.572	0.281	-0.116
-503.697	-200.000	-0.038	0.210
-502.683	-114.453	-0.055	0.011
-501.668	-180.486	0.129	-0.003
-500.653	154.687	-0.214	0.298
-499.639	-150.632	0.241	0.019
-498.624	-138.590	0.294	0.033
-497.610	800.000	-0.087	0.249
-496.595	381.840	-0.116	-0.242
-495.581	164.256	0.053	0.076
-494.566	-145.457	0.170	0.016
-493.551	-57.423	-0.040	0.018
-492.537	-86.220	-0.381	-0.119
-491.522	-56.843	-0.252	0.113
-490.508	302.271	0.151	0.284
-489.493	254.057	0.078	0.135
-488.478	-200.000	0.028	0.161
-487.464	-200.000	0.022	-0.247
-486.449	249.472	-0.236	0.406
-485.435	99.178	-0.361	0.423
-484.420	-84.640	0.294	-0.094
-483.405	156.251	-0.141	0.197
-482.391	-47.020	-0.210	0.104
-481.376	-200.000	-0.010	0.393
-480.362	175.815	-0.196	0.289
-479.347	211.908	-0.142	-0.226
-478.332	-3.782	0.206	-0.145
-477.318	-71.625	0.348	-0.132
-476.303	-34.233	-0.241	0.134
-475.289	-35.073	0.268	0.148
-474.274	288.511	0.040	-0.073
-473.259	171.081	0.187	0.272
-472.245	-200.000	-0.077	0.348
-471.230	-200.000	-0.048	-0.468
-470.216	-41.084	0.038	0.020
-469.201	-200.000	-0.010	-0.176
-468.186	-200.000	0.007	0.045
-467.172	-200.000	-0.031	-0.216
-466.157	-176.404	0.094	0.002
-465.143	800.000	-0.021	-0.061
-464.128	204.693	0.150	-0.235
-463.113	-200.000	-0.006	-0.188
-462.099	-200.000	0.022	0.131
-461.084	-173.993	-0.121	-0.004
-460.070	-31.987	0.141	0.080
-459.055	-122.793	-0.055	-0.009
-458.040	800.000	-0.048	-0.154
-457.026	-68.846	0.285	-0.111
-456.011	-44.784	0.224	-0.113
-454.997	800.000	-0.118	-0.486
-453.982	-77.892	0.339	-0.118
-452.968	397.772	0.106	-0.224
-451.953	-77.044	0.312	0.110
-450.938	193.400	-0.018	-0.028
-449.924	-111.419	0.147	0.030
-448.909	132.146	-0.116	0.151
-447.895	30.670	-0.169	0.146
-446.880	-34.497	-0.264	0.147
-445.865	-87.955	0.113	-0.034
-444.851	-132.324	0.101	-0.013
-443.836	800.000	0.065	0.193
-442.822	212.749	0.107	0.171
-441.807	-94.494	-0.191	0.053
-440.792	9.820	0.153	0.117
-439.778	-152.249	-0.117	0.009
-438.763	52.471	0.151	-0.146
-437.749	-94.337	0.205	-0.057
-436.734	7.566	-0.231	-0.175
-435.719	-115.170	-0.266	0.051
-434.705	800.000	0.012	-0.053
-433.690	-170.501	-0.132	-0.005
-432.676	-146.162	-0.111	0.010
-431.661	743.677	-0.060	0.164
-430.646	-200.000	0.029	0.321
-429.632	-181.057	0.274	-0.006
-428.617	41.526	0.235	0.215
-427.603	441.797	-0.016	-0.034
-426.588	800.000	0.043	-0.166
-425.573	14.109	0.308	-0.242
-424.559	-92.541	-0.179	-0.051
-423.544	573.213	-0.084	0.206
-422.530	-149.111	0.114	-0.009
-421.515	194.738	0.086	-0.132
-420.500	-29.262	0.240	0.139
-419.486	3.984	-0.034	-0.025
-418.471	-200.000	-0.014	0.378
-417.457	-96.383	0.106	-0.028
-416.442	-80.514	0.071	-0.024
-415.428	170.192	-0.216	-0.312
-414.413	-28.095	-0.135	0.079
-413.398	-139.537	0.363	0.039
-412.384	-152.203	-0.070	0.005
-411.369	-200.000	0.018	-0.084
-410.355	107.414	-0.179	-0.215
-409.340	800.000	-0.019	-0.054
-408.325	-110.354	-0.290	-0.061
-407.311	800.000	0.110	0.424
-406.296	434.647	-0.128	0.280
-405.282	-83.308	0.232	-0.075
-404.267	190.555	0.024	0.036
-403.252	-200.000	0.000	0.017
-402.238	529.509	0.017	-0.039
-401.223	13.275	-0.164	-0.129
-400.209	160.455	-0.138	-0.195
-399.194	339.201	-0.194	-0.382
-398.179	-5.338	0.406	-0.282
-397.165	66.258	-0.058	-0.059
-396.150	-200.000	0.022	-0.182
-395.136	-110.042	-0.198	0.042
-394.121	259.078	-0.147	-0.257
-393.106	-43.521	-0.125	-0.064
-392.092	281.212	-0.118	0.214
-391.077	391.194	-0.064	-0.134
-390.063	-94.625	0.326	0.089
-389.048	63.299	0.150	-0.152
-388.033	67.776	0.078	-0.080
-387.019	-200.000	-0.032	0.152
-386.004	-82.892	0.234	-0.076
-384.990	52.604	-0.206	-0.198
-383.975	-90.936	0.222	0.064
-382.960	-18.113	-0.174	-0.110
-381.946	194.455	0.309	-0.473
-380.931	-167.492	-0.182	-0.007
-379.917	142.328	-0.095	0.127
-378.902	-147.106	0.075	0.006
-377.888	-200.000	-0.030	0.376
-376.873	345.240	0.082	-0.163
-375.858	-102.791	0.205	-0.049
-374.844	23.274	-0.087	0.072
-373.829	-200.000	0.008	0.051
-372.815	-9.995	0.158	-0.106
-371.800	-14.958	-0.064	-0.042
-370.785	-46.912	-0.123	-0.061
-369.771	-200.000	-0.008	0.205
-368.756	-111.411	-0.313	0.064
-367.742	517.786	-0.072	-0.171
-366.727	-28.262	-0.140	0.081
-365.712	436.681	0.121	-0.266
-364.698	800.000	-0.086	0.253
-363.683	150.007	0.183	0.250
-362.669	-115.617	0.362	0.069
-361.654	-38.321	0.127	0.068
-360.639	139.629	0.068	0.090
-359.625	-33.061	0.278	-0.155
-358.610	-200.000	-0.007	-0.059
-357.596	-51.909	0.231	0.108
-356.581	0.425	0.213	-0.154
-355.566	-65.674	-0.300	-0.121
-354.552	-75.161	0.179	0.064
-353.537	464.287	0.129	0.291
-352.523	-130.581	0.330	0.045
-351.508	98.067	-0.160	-0.186
-350.493	103.248	0.126	0.149
-349.479	48.360	-0.189	-0.178
-348.464	-200.000	-0.028	-0.207
-347.450	-200.000	0.004	-0.071
-346.435	47.670	0.161	-0.151
-345.420	108.366	0.078	-0.094
-344.406	800.000	-0.052	-0.172
-343.391	-153.914	0.414	-0.028
-342.377	725.914	-0.053	0.142
-341.362	53.051	0.277	0.267
-340.348	-124.824	-0.281	-0.044
-339.333	-78.252	-0.146	-0.050
-338.318	-115.499	0.161	0.030
-337.304	-200.000	-0.012	0.064
-336.289	-40.418	-0.177	0.092
-335.275	-28.640	-0.193	-0.112
-334.260	86.586	0.075	-0.083
-333.245	173.621	-0.102	0.148
-332.231	156.363	-0.093	0.129
-331.216	-63.543	0.111	0.046
-330.202	-5.166	-0.210	-0.145
-329.187	-47.777	0.143	-0.070
-328.172	800.000	-0.066	-0.202
-327.158	-68.037	0.148	-0.058
-326.143	127.635	-0.108	0.138
-325.129	-18.231	0.186	-0.117
-324.114	-78.367	-0.199	0.069
-323.099	462.120	-0.162	-0.365
-322.085	-106.501	-0.338	0.076
-321.070	232.710	-0.054	-0.089
-320.056	-24.119	-0.117	0.070
-319.041	631.110	-0.068	0.174
-318.026	-71.209	-0.165	0.062
-317.012	-200.000	-0.034	-0.235
-315.997	-200.000	0.003	0.036
-314.983	206.803	0.075	0.117
-313.968	242.346	-0.166	0.279
-312.953	-106.497	-0.126	-0.028
-311.939	-3.484	0.281	-0.197
-310.924	331.509	-0.031	-0.060
-309.910	-200.000	-0.027	-0.173
-308.895	361.508	0.130	-0.262
-307.880	-134.530	-0.408	0.050
-306.866	245.735	-0.082	0.139
-305.851	-37.947	-0.164	0.088
-304.837	57.953	0.082	-0.081
-303.822	-23.925	0.189	-0.114
-302.807	238.497	0.092	0.153
-301.793	-76.635	-0.332	-0.117
-300.778	-176.282	-0.295	-0.008
-299.764	-30.804	-0.313	-0.178
-298.749	27.946	-0.077	-0.065
-297.735	650.580	-0.094	-0.241
-296.720	-39.822	-0.129	0.068
-295.705	800.000	0.073	0.245
-294.691	734.781	-0.086	-0.232
-293.676	-89.614	0.167	-0.049
-292.662	-52.536	-0.130	-0.060
-291.647	-26.381	-0.211	0.124
-290.632	-200.000	0.001	-0.177
-289.618	-0.071	-0.058	0.041
-288.603	-1.026	-0.223	0.158
-287.589	-14.898	-0.182	0.117
-286.574	-200.000	0.015	0.149
-285.559	-114.809	0.349	0.067
-284.545	53.169	-0.203	-0.195
-283.530	-131.464	-0.176	0.023
-282.516	415.115	-0.168	0.359
-281.501	87.849	-0.300	-0.335
-280.486	285.483	0.029	-0.053
-279.472	124.610	-0.305	-0.385
-278.457	58.873	-0.117	0.115
-277.443	262.129	0.070	0.123
-276.428	-158.168	-0.186	0.011
-275.413	43.292	-0.216	0.198
-274.399	-111.581	0.278	-0.057
-273.384	-200.000	-0.026	0.170
-272.370	-200.000	-0.001	0.057
-271.355	-200.000	-0.007	0.118
-270.340	-26.221	0.229	-0.135
-269.326	-200.000	0.182	0.001
-268.311	-23.208	-0.094	-0.057
-267.297	32.268	-0.175	0.152
-266.282	800.000	-0.033	-0.140
-265.267	-200.000	-0.027	-0.121
-264.253	-126.275	0.067	0.010
-263.238	9.203	0.116	0.088
-262.224	329.195	-0.110	-0.212
-261.209	-92.408	-0.075	0.021
-260.195	505.030	0.096	0.224
-259.180	187.021	-0.036	0.054
-258.165	36.737	-0.073	0.065
-257.151	-137.056	0.252	-0.029
-256.136	-46.332	-0.078	-0.039
-255.122	-200.000	0.001	-0.070
-254.107	-200.000	-0.042	-0.248
-253.092	75.287	0.159	0.168
-252.078	-9.991	-0.173	0.116
-251.063	385.478	0.031	0.064
-250.049	-85.205	0.233	-0.073
-249.034	-73.125	-0.336	-0.124
-248.019	793.098	-0.101	-0.279
-247.005	-163.812	0.206	-0.010
-245.990	-94.345	0.274	-0.075
-244.976	-128.247	0.226	0.032
-243.961	179.992	0.093	0.137
-242.946	109.851	-0.167	0.202
-241.932	596.735	0.014	-0.036
-240.917	-49.647	0.061	-0.029
-239.903	-200.000	-0.002	0.010
-238.888	662.870	0.017	0.044
-237.873	-130.872	-0.240	0.032
-236.859	543.038	0.130	0.311
-235.844	-146.089	0.135	0.012
-234.830	-99.897	0.050	0.013
-233.815	36.038	0.364	0.321
-232.800	190.126	-0.163	-0.245
-231.786	211.110	-0.045	0.070
-230.771	279.264	-0.113	-0.202
-229.757	101.821	0.226	0.264
-228.742	-200.000	-0.068	-0.391
-227.727	-91.801	-0.193	0.055
-226.713	-96.554	0.335	0.089
-225.698	-131.854	-0.206	0.027
-224.684	-200.000	0.014	0.253
-223.669	-96.302	-0.353	0.094
-222.655	-108.896	0.256	-0.055
-221.640	-120.711	0.088	0.015
-220.625	-48.552	0.293	0.141
-219.611	-4.859	-0.219	-0.151
-218.596	169.530	0.106	-0.152
-217.582	-72.379	-0.245	-0.091
-216.567	7.674	-0.076	-0.057
-215.552	-59.674	0.214	-0.092
-214.538	800.000	0.040	0.146
-213.523	-200.000	-0.004	0.163
-212.509	-63.850	-0.285	-0.117
-211.494	42.569	-0.041	-0.037
-210.479	800.000	-0.038	-0.150
-209.465	-55.659	-0.282	0.126
-208.450	800.000	-0.015	-0.062
-207.436	-38.823	0.288	0.152
-206.421	523.941	0.028	0.066
-205.406	47.729	0.318	0.297
-204.392	313.896	0.132	-0.250
-203.377	-200.000	0.040	0.318
-202.363	-75.716	0.236	0.084
-201.348	-135.047	-0.112	-0.014
-200.333	-125.037	0.266	0.041
-199.319	-32.922	0.100	0.056
-198.304	142.857	0.179	-0.239
-197.290	800.000	0.117	-0.407
-196.275	800.000	0.028	-0.118
-195.260	800.000	-0.052	0.162
-194.246	-153.966	0.222	-0.015
-193.231	800.000	0.083	-0.246
-192.217	-90.126	0.402	0.117
-191.202	65.468	0.187	0.190
-190.187	439.606	0.164	0.360
-189.173	-72.509	-0.158	0.058
-188.158	800.000	-0.088	-0.296
-187.144	-143.239	-0.107	-0.010
-186.129	296.522	0.135	0.248
-185.114	209.285	0.097	-0.152
-184.100	80.197	-0.196	0.211
-183.085	-26.566	-0.022	-0.013
-182.071	6.865	0.064	-0.047
-181.056	59.296	-0.101	0.100
-180.042	190.121	0.130	0.196
-179.027	-183.382	0.228	0.004
-178.012	-30.355	0.281	-0.160
-176.998	-33.209	-0.177	-0.098
-175.983	-33.498	-0.402	0.222
-174.969	-31.428	-0.201	-0.113
-173.954	-200.000	0.005	0.094
-172.939	30.456	0.184	0.158
-171.925	-135.072	0.036	0.004
-170.910	31.590	-0.217	-0.187
-169.896	800.000	-0.071	0.196
-168.881	72.977	0.237	-0.248
-167.866	800.000	0.030	-0.110
-166.852	730.361	-0.046	0.123
-165.837	304.317	0.061	-0.114
-164.823	105.477	0.144	-0.170
-163.808	800.000	0.025	0.093
-162.793	308.021	0.076	0.142
-161.779	-25.242	-0.144	0.085
-160.764	-43.298	0.071	-0.036
-159.750	240.061	-0.149	0.249
-158.735	-131.067	0.292	0.039
-157.720	800.000	-0.056	-0.161
-156.706	23.895	-0.250	-0.206
-155.691	143.319	0.164	-0.219
-154.677	-62.140	0.251	0.105
-153.662	43.690	-0.162	0.149
-152.647	61.183	0.206	-0.204
-151.633	-88.415	-0.182	-0.054
-150.618	-200.000	-0.024	0.224
-149.604	-118.003	0.276	0.049
-148.589	152.656	-0.215	0.293
-147.574	-136.016	-0.188	-0.022
-146.560	-88.544	0.106	-0.032
-145.545	-141.878	-0.171	-0.017
-144.531	26.893	-0.237	-0.199
-143.516	-31.833	-0.304	-0.170
-142.502	-63.449	0.176	-0.072
-141.487	800.000	0.043	-0.187
-140.472	751.386	0.089	0.241
-139.458	-200.000	-0.027	-0.200
-138.443	337.579	-0.133	0.258
-137.429	-200.000	-0.021	-0.273
-136.414	220.663	-0.090	0.144
-135.399	-200.000	-0.086	0.450
-134.385	-130.937	-0.220	0.029
-133.370	-44.149	-0.131	0.066
-132.356	-82.011	0.107	-0.035
-131.341	-89.015	0.097	-0.029
-130.326	-30.839	0.325	0.183
-129.312	-200.000	-0.001	0.245
-128.297	-99.091	-0.009	0.002
-127.283	-51.519	-0.050	-0.023
-126.268	-40.321	-0.084	0.044
-125.253	800.000	0.090	0.272
-124.239	-163.909	-0.239	-0.011
-123.224	-200.000	-0.011	0.120
-122.210	800.000	0.047	-0.161
-121.195	-200.000	-0.021	0.232
-120.180	179.233	-0.131	0.191
-119.166	-76.006	0.232	-0.082
-118.151	800.000	0.011	0.036
-117.137	800.000	0.079	0.239
-116.122	312.062	0.165	0.310
-115.107	800.000	0.093	-0.266
-114.093	-28.888	0.139	-0.079
-113.078	355.174	-0.103	-0.205
-112.064	800.000	0.040	0.121
-111.049	164.629	-0.131	-0.184
-110.034	-200.000	0.032	-0.265
-109.020	-200.000	-0.023	-0.447
-108.005	800.000	0.014	0.042
-106.991	180.234	0.062	0.090
-105.976	-200.000	0.017	0.197
-104.962	631.677	-0.160	-0.405
-103.947	136.728	-0.112	0.146
-102.932	800.000	0.047	-0.201
-101.918	137.798	0.053	-0.069
-100.903	800.000	-0.070	0.264
-99.889	52.707	-0.119	-0.113
-98.874	19.514	-0.147	0.118
-97.859	-119.105	0.205	-0.036
-96.845	361.821	-0.050	0.100
-95.830	800.000	-0.083	0.348
-94.816	-37.673	0.070	0.037
-93.801	46.929	-0.117	-0.108
-92.786	192.736	0.084	-0.127
-91.772	192.080	0.109	-0.164
-90.757	-118.667	-0.113	0.020
-89.743	185.672	0.055	0.082
-88.728	248.224	-0.075	-0.126
-87.713	171.418	-0.202	-0.289
-86.699	-124.381	0.276	-0.043
-85.684	-172.277	-0.303	-0.010
-84.670	-17.604	-0.219	0.137
-83.655	-97.072	0.286	0.075
-82.640	800.000	-0.004	-0.011
-81.626	-200.000	0.018	-0.110
-80.611	23.366	-0.246	0.201
-79.597	-200.000	-0.036	0.176
-78.582	800.000	0.035	-0.110
-77.567	66.726	0.083	0.084
-76.553	-31.081	-0.384	0.216
-75.538	-1.779	0.210	-0.148
-74.524	327.932	0.062	0.118
-73.509	-200.000	0.020	-0.349
-72.494	-200.000	0.035	-0.267
-71.480	-121.521	-0.421	0.070
-70.465	33.072	-0.092	-0.079
-69.451	-95.158	-0.184	-0.050
-68.436	143.953	-0.007	0.010
-67.422	-35.423	-0.120	0.065
-66.407	-200.000	0.007	-0.303
-65.392	259.117	0.085	-0.147
-64.378	-115.836	0.144	-0.027
-63.363	-200.000	0.002	0.230
-62.349	-140.675	0.050	0.005
-61.334	-80.517	-1.114	-0.370
-60.319	800.000	0.115	0.426
-59.305	800.000	-0.211	-0.808
-58.290	352.336	0.474	0.936
-57.276	800.000	0.475	1.585
-56.261	-200.000	92.201	537.881
-55.246	581.883	1381.678	3375.445
-54.232	183.942	2602.445	3835.846
-53.217	111.317	2345.386	2815.904
-52.203	41.746	2091.907	1888.372
-51.188	36.877	2003.442	1764.235
-50.173	35.225	1985.149	1733.136
-49.159	49.024	2035.331	1903.657
-48.144	51.845	2055.102	1947.942
-47.130	37.605	2012.641	1778.716
-46.115	35.123	2001.267	1746.003
-45.100	35.149	1998.166	1743.464
-44.086	35.071	1996.117	1740.894
-43.071	34.943	1993.686	1737.547
-42.057	34.912	1991.835	1735.579
-41.042	34.982	1989.269	1733.910
-40.027	35.000	1987.418	1732.390
-39.013	35.119	1984.251	1730.636
-37.998	35.024	1983.337	1728.915
-36.984	35.065	1981.763	1727.839
-35.969	35.081	1979.100	1725.594
-34.954	35.114	1977.370	1724.319
-33.940	35.159	1975.967	1723.426
-32.925	35.107	1974.867	1721.935
-31.911	35.101	1973.589	1720.697
-30.896	35.187	1970.678	1718.859
-29.881	35.211	1969.703	1718.162
-28.867	35.171	1968.293	1716.507
-27.852	35.230	1966.339	1715.263
-26.838	35.138	1964.806	1713.027
-25.823	35.250	1962.552	1712.000
-24.809	35.175	1960.925	1709.839
-23.794	35.136	1958.913	1707.671
-22.779	35.102	1958.009	1706.516
-21.765	35.199	1955.488	1705.111
-20.750	35.179	1954.141	1703.694
-19.736	35.202	1952.345	1702.264
-18.721	35.214	1950.780	1700.936
-17.706	35.218	1949.359	1699.662
-16.692	35.096	1948.056	1697.383
-15.677	35.135	1946.207	1696.044
-14.663	35.149	1944.499	1694.612
-13.648	35.159	1943.759	1693.989
-12.633	35.175	1942.492	1692.964
-11.619	35.155	1941.009	1691.431
-10.604	35.159	1939.423	1690.013
-9.590	35.058	1938.426	1688.188
-8.575	35.157	1936.937	1687.697
-7.560	35.057	1935.848	1685.800
-6.546	35.150	1934.413	1685.302
-5.531	35.199	1932.702	1684.177
-4.517	35.190	1931.532	1683.010
-3.502	35.146	1930.373	1681.546
-2.487	35.119	1929.402	1680.398
-1.473	35.108	1928.858	1679.754
-0.458	35.327	1924.554	1677.857
0.556	38.573	1907.079	1659.298
1.571	35.116	1889.829	1615.052
2.586	30.676	1910.832	1594.887
3.600	28.819	1945.109	1607.136
4.615	26.942	1938.116	1584.841
5.629	20.524	1833.914	1446.277
6.644	10.378	1712.325	1271.045
7.659	5.179	1672.944	1201.768
8.673	4.785	1669.122	1195.891
9.688	4.774	1668.506	1195.257
10.702	4.838	1666.725	1194.368
11.717	4.892	1664.029	1192.744
12.731	5.611	1663.884	1198.035
13.746	12.126	1679.986	1259.705
14.761	20.330	1697.263	1335.950
15.775	22.755	1700.138	1356.769
16.790	22.151	1697.553	1349.949
17.804	21.249	1693.934	1340.030
18.819	20.066	1691.627	1329.022
19.834	19.570	1688.330	1322.518
20.848	19.320	1687.201	1319.597
21.863	19.190	1685.989	1317.542
22.877	18.966	1684.675	1314.684
23.892	18.735	1683.439	1311.843
24.907	18.706	1682.238	1310.569
25.921	18.655	1681.386	1309.401
26.936	18.721	1679.789	1308.544
27.950	18.726	1678.922	1307.785
28.965	18.727	1678.790	1307.577
29.980	18.838	1677.913	1307.623
30.994	18.962	1676.622	1307.443
32.009	18.989	1675.943	1307.001
33.023	19.093	1674.981	1306.928
34.038	19.177	1673.771	1306.503
35.053	19.118	1672.963	1305.311
36.067	19.008	1671.418	1303.156
37.082	18.909	1670.479	1301.564
38.096	18.936	1669.395	1300.801
39.111	18.948	1669.097	1300.546
40.126	19.049	1668.019	1300.356
41.140	19.049	1666.915	1299.378
42.155	18.772	1665.478	1296.055
43.169	18.665	1663.397	1293.513
44.184	18.422	1662.451	1290.836
45.199	18.487	1661.616	1290.559
46.213	18.577	1659.895	1289.789
47.228	18.562	1658.910	1288.795
48.242	18.694	1658.435	1289.306
49.257	18.880	1657.282	1289.688
50.271	18.907	1655.736	1288.577
51.286	18.854	1654.892	1287.404
52.301	18.835	1653.353	1285.951
53.315	18.883	1651.440	1284.714
54.330	18.797	1650.434	1283.171
55.344	18.805	1647.855	1281.111
56.359	18.674	1646.808	1279.207
57.374	18.595	1645.802	1277.724
58.388	18.626	1645.103	1277.300
59.403	18.567	1643.284	1275.340
60.417	18.435	1642.169	1273.374
61.432	18.537	1641.008	1273.122
62.447	18.569	1639.623	1272.172
63.461	18.416	1638.669	1270.188
64.476	18.365	1637.968	1269.155
65.490	18.394	1636.338	1267.992
66.505	18.296	1635.358	1266.393
67.520	18.269	1634.475	1265.397
68.534	18.280	1633.211	1264.390
69.549	18.460	1631.728	1264.455
70.563	18.481	1630.858	1263.827
71.578	18.349	1629.285	1261.523
72.593	18.244	1628.769	1260.242
73.607	18.117	1627.571	1258.267
74.622	18.095	1626.685	1257.312
75.636	18.099	1625.896	1256.613
76.651	18.206	1624.987	1256.592
77.666	18.191	1624.310	1255.846
78.680	18.181	1623.642	1255.144
79.695	18.254	1622.788	1254.909
80.709	18.376	1621.767	1254.903
81.724	18.463	1620.631	1254.546
82.739	18.540	1620.042	1254.546
83.753	18.617	1619.662	1254.704
84.768	18.684	1619.236	1254.751
85.782	18.889	1617.958	1255.143
86.797	18.973	1617.403	1255.215
87.812	18.987	1616.651	1254.627
88.826	19.011	1615.563	1253.843
89.841	18.866	1614.043	1251.496
90.855	18.841	1613.560	1250.830
91.870	18.839	1612.696	1250.037
92.884	19.040	1611.206	1250.230
93.899	19.065	1610.493	1249.752
94.914	19.008	1609.203	1248.222
95.928	19.207	1607.771	1248.446
96.943	19.107	1606.794	1246.854
97.957	19.015	1605.384	1244.984
98.972	19.006	1603.728	1243.520
99.987	18.919	1602.206	1241.602
101.001	18.940	1600.802	1240.557
102.016	18.988	1599.162	1239.521
103.030	18.878	1598.126	1237.816
104.045	18.916	1596.684	1236.865
105.060	18.971	1595.484	1236.224
106.074	18.869	1594.059	1234.277
107.089	18.683	1592.225	1231.410
108.103	18.425	1590.962	1228.475
109.118	18.289	1589.199	1226.034
110.133	18.315	1587.607	1224.882
111.147	18.329	1586.288	1223.856
112.162	18.361	1585.007	1222.990
113.176	18.462	1583.779	1222.652
114.191	18.468	1582.409	1221.532
115.206	18.448	1581.532	1220.602
116.220	18.528	1580.108	1219.967
117.235	18.473	1578.271	1218.044
118.249	18.483	1577.181	1217.170
119.264	18.479	1576.277	1216.332
120.279	18.401	1574.697	1214.455
121.293	18.360	1573.290	1212.975
122.308	18.310	1571.663	1211.257
123.322	18.283	1570.126	1209.774
124.337	18.220	1568.468	1207.947
125.352	18.212	1567.159	1206.775
126.366	18.223	1566.143	1205.964
127.381	18.145	1565.331	1204.679
128.395	18.079	1564.527	1203.493
129.410	18.087	1562.869	1202.163
130.424	18.200	1561.717	1201.964
131.439	18.312	1560.355	1201.601
132.454	18.422	1559.011	1201.232
133.468	18.513	1557.413	1200.526
134.483	18.489	1556.292	1199.387
135.497	18.501	1554.982	1198.358
136.512	18.572	1554.012	1197.999
137.527	18.435	1553.188	1196.302
138.541	18.519	1551.551	1195.524
139.556	18.600	1549.704	1194.558
140.570	18.637	1548.606	1193.865
141.585	18.768	1547.173	1193.562
142.600	18.775	1546.466	1192.963
143.614	18.856	1545.333	1192.541
144.629	19.003	1544.068	1192.477
145.643	18.980	1542.850	1191.277
146.658	19.099	1541.637	1191.056
147.673	19.031	1539.956	1189.184
148.687	18.810	1538.474	1186.406
149.702	18.752	1537.261	1184.964
150.716	18.766	1535.152	1183.332
151.731	18.656	1533.484	1181.184
152.746	18.619	1532.587	1180.136
153.760	18.631	1531.415	1179.213
154.775	18.645	1530.330	1178.367
155.789	18.763	1529.176	1178.184
156.804	18.873	1528.016	1177.936
157.819	18.965	1526.420	1177.236
158.833	18.925	1525.457	1176.111
159.848	18.909	1524.698	1175.316
160.862	19.110	1523.056	1175.321
161.877	19.162	1522.058	1174.798
162.892	19.021	1520.999	1172.914
163.906	18.811	1519.441	1170.181
164.921	18.668	1518.069	1168.046
165.935	18.690	1516.564	1166.935
166.950	18.674	1515.502	1165.906
167.964	18.777	1514.518	1165.748
168.979	18.843	1513.362	1165.203
169.994	18.748	1512.704	1163.945
171.008	18.647	1511.882	1162.527
172.023	18.755	1510.529	1162.116
173.037	18.827	1509.556	1161.747
174.052	18.935	1508.079	1161.237
175.067	19.088	1507.238	1161.520
176.081	18.900	1506.513	1159.592
177.096	18.721	1504.819	1156.980
178.110	18.689	1503.168	1155.393
179.125	18.744	1501.966	1154.734
180.140	18.812	1501.168	1154.478
181.154	18.866	1500.094	1153.914
182.169	18.922	1499.027	1153.368
183.183	19.041	1497.868	1153.168
184.198	19.108	1497.302	1153.082
185.213	19.179	1496.094	1152.520
186.227	19.116	1495.067	1151.211
187.242	19.186	1493.946	1150.711
188.256	19.201	1493.052	1150.018
189.271	19.252	1492.215	1149.612
190.286	19.342	1491.275	1149.391
191.300	19.201	1490.623	1147.845
192.315	18.913	1488.718	1144.362
193.329	18.697	1486.738	1141.299
194.344	18.649	1486.179	1140.449
195.359	18.724	1484.910	1139.874
196.373	18.910	1483.871	1140.208
197.388	18.926	1483.607	1140.011
198.402	18.954	1482.580	1139.309
199.417	19.169	1481.300	1139.646
200.432	19.266	1480.876	1139.864
201.446	19.458	1479.706	1140.130
202.461	19.511	1479.164	1139.961
203.475	19.570	1477.783	1139.182
204.490	19.651	1476.884	1138.927
205.504	19.548	1475.473	1137.056
206.519	19.341	1473.930	1134.408
207.534	19.332	1472.711	1133.306
208.548	19.278	1471.417	1131.855
209.563	19.227	1470.812	1130.958
210.577	19.284	1469.701	1130.376
211.592	19.184	1468.979	1129.065
212.607	19.221	1468.403	1128.764
213.621	19.455	1467.584	1129.566
214.636	19.577	1466.738	1129.618
215.650	19.461	1465.672	1127.938
216.665	19.479	1464.693	1127.202
217.680	19.444	1464.224	1126.513
218.694	19.578	1463.954	1127.079
219.709	19.705	1463.106	1127.155
220.723	19.714	1461.234	1125.671
221.738	19.582	1461.046	1124.567
222.753	19.597	1459.899	1123.681
223.767	19.694	1458.461	1123.104
224.782	19.621	1457.830	1122.048
225.796	19.587	1457.034	1121.112
226.811	19.888	1455.700	1121.941
227.826	19.786	1455.962	1121.383
228.840	19.813	1454.350	1120.217
229.855	19.676	1453.338	1118.449
230.869	19.531	1452.449	1116.731
231.884	19.519	1451.646	1115.935
232.899	19.505	1450.421	1114.807
233.913	19.413	1449.200	1113.175
234.928	19.358	1447.584	1111.476
235.942	19.391	1446.252	1110.572
236.957	19.359	1444.995	1109.301
237.972	19.300	1443.970	1108.035
238.986	19.390	1442.637	1107.496
240.001	19.374	1442.001	1106.808
241.015	19.390	1441.202	1106.196
242.030	19.453	1439.639	1105.300
243.045	19.552	1438.675	1105.100
244.059	19.605	1437.921	1104.761
245.074	19.755	1437.042	1104.944
246.088	19.739	1436.344	1104.209
247.103	19.621	1436.274	1103.308
248.117	19.831	1435.341	1103.828
249.132	19.806	1434.974	1103.289
250.147	20.026	1434.064	1103.896
251.161	20.157	1433.730	1104.374
252.176	20.338	1432.949	1104.829
253.190	20.403	1432.632	1104.902
254.205	20.360	1431.947	1104.002
255.220	20.452	1430.809	1103.612
256.234	20.446	1430.301	1103.083
257.249	20.542	1429.078	1102.648
258.263	20.501	1428.218	1101.628
259.278	20.453	1427.316	1100.535
260.293	20.400	1426.774	1099.684
261.307	20.443	1425.667	1099.003
262.322	20.579	1425.015	1099.261
263.336	20.593	1424.680	1098.995
264.351	20.598	1423.131	1097.734
265.366	20.604	1422.324	1097.051
266.380	20.633	1421.355	1096.391
267.395	20.669	1420.282	1095.691
268.409	20.668	1419.725	1095.162
269.424	20.626	1418.445	1093.811
270.439	20.487	1417.280	1091.944
271.453	20.503	1415.840	1090.835
272.468	20.403	1415.617	1089.940
273.482	20.412	1414.958	1089.392
274.497	20.389	1413.486	1088.020
275.512	20.261	1412.445	1086.321
276.526	20.315	1411.934	1086.168
277.541	20.321	1410.959	1085.362
278.555	20.409	1410.233	1085.257
279.570	20.378	1409.593	1084.475
280.585	20.423	1408.381	1083.728
281.599	20.588	1408.090	1084.438
282.614	20.724	1406.883	1084.256
283.628	20.652	1405.392	1082.563
284.643	20.472	1404.229	1080.454
285.657	20.522	1403.403	1080.035
286.672	20.471	1402.392	1078.845
287.687	20.479	1401.760	1078.313
288.701	20.519	1400.415	1077.429
289.716	20.564	1399.490	1076.898
290.730	20.496	1398.939	1075.961
291.745	20.502	1398.143	1075.290
292.760	20.521	1397.135	1074.535
293.774	20.681	1395.930	1074.507
294.789	20.628	1395.122	1073.462
295.803	20.691	1394.809	1073.514
296.818	20.851	1393.850	1073.664
297.833	20.723	1392.699	1071.896
298.847	20.633	1391.499	1070.324
299.862	20.648	1390.221	1069.341
300.876	20.585	1389.580	1068.365
301.891	20.656	1388.747	1068.064
302.906	20.754	1387.815	1067.853
303.920	20.863	1387.500	1068.188
304.935	20.865	1386.847	1067.599
305.949	20.921	1386.161	1067.324
306.964	21.088	1385.370	1067.638
307.979	21.175	1384.097	1067.099
308.993	20.940	1383.590	1065.177
310.008	20.898	1382.564	1064.034
311.022	21.035	1380.985	1063.561
312.037	21.046	1380.542	1063.193
313.052	21.101	1379.349	1062.517
314.066	21.091	1378.325	1061.572
315.081	20.879	1377.148	1059.280
316.095	20.708	1376.256	1057.465
317.110	20.635	1374.900	1055.887
318.125	20.698	1373.545	1055.133
319.139	20.718	1372.652	1054.477
320.154	20.668	1372.136	1053.683
321.168	20.791	1370.558	1053.122
322.183	20.764	1369.727	1052.223
323.197	20.769	1368.982	1051.591
324.212	20.809	1368.488	1051.362
325.227	20.856	1367.599	1050.869
326.241	20.908	1366.768	1050.450
327.256	20.926	1365.633	1049.592
328.270	20.940	1364.599	1048.790
329.285	20.874	1363.863	1047.732
330.300	20.899	1362.838	1047.005
331.314	20.886	1362.296	1046.419
332.329	20.831	1361.228	1045.171
333.343	20.812	1360.404	1044.335
334.358	20.919	1359.357	1044.078
335.373	20.958	1358.786	1043.785
336.387	21.088	1358.056	1043.906
337.402	21.106	1357.392	1043.409
338.416	21.149	1356.684	1043.033
339.431	21.204	1356.284	1042.958
340.446	21.234	1355.649	1042.557
341.460	21.227	1355.134	1042.030
342.475	21.408	1353.628	1041.857
343.489	21.460	1353.128	1041.689
344.504	21.516	1352.478	1041.429
345.519	21.606	1351.285	1040.954
346.533	21.718	1350.292	1040.766
347.548	21.629	1349.236	1039.330
348.562	21.628	1349.295	1039.275
349.577	21.729	1347.908	1038.715
350.592	21.579	1346.950	1036.998
351.606	21.315	1346.163	1034.737
352.621	21.284	1344.917	1033.505
353.635	21.131	1343.756	1031.616
354.650	21.202	1342.825	1031.227
355.665	21.170	1341.867	1030.215
356.679	21.255	1340.160	1029.311
357.694	21.286	1339.562	1028.944
358.708	21.298	1338.542	1028.141
359.723	21.464	1337.265	1028.043
360.738	21.495	1336.518	1027.562
361.752	21.498	1335.659	1026.826
362.767	21.521	1334.497	1025.978
363.781	21.499	1333.576	1025.051
364.796	21.537	1332.921	1024.680
365.810	21.639	1332.376	1024.765
366.825	21.712	1331.794	1024.656
367.840	21.866	1330.746	1024.659
368.854	21.770	1330.643	1023.925
369.869	21.914	1330.407	1024.493
370.883	22.054	1329.484	1024.511
371.898	21.899	1329.002	1023.147
372.913	21.948	1327.288	1022.017
373.927	21.773	1326.856	1020.579
374.942	21.874	1325.655	1020.149
375.956	21.780	1325.331	1019.264
376.971	21.934	1324.420	1019.367
377.986	21.935	1323.449	1018.537
379.000	21.943	1322.570	1017.815
380.015	21.933	1322.219	1017.401
381.029	22.117	1321.547	1017.857
382.044	22.126	1320.798	1017.246
383.059	22.227	1319.775	1016.948
384.073	22.151	1319.515	1016.219
385.088	22.064	1318.555	1014.887
386.102	22.168	1317.931	1014.919
387.117	22.219	1317.230	1014.583
388.132	22.038	1316.670	1013.020
389.146	22.001	1315.166	1011.556
390.161	21.780	1314.657	1009.806
391.175	21.857	1313.681	1009.408
392.190	21.918	1312.328	1008.630
393.205	21.912	1311.811	1008.107
394.219	22.035	1310.997	1008.099
395.234	22.163	1310.135	1008.080
396.248	22.055	1308.721	1006.284
397.263	21.899	1307.476	1004.348
398.278	21.941	1305.770	1003.186
399.292	21.985	1304.348	1002.257
400.307	21.869	1303.560	1000.901
401.321	21.793	1302.304	999.413
402.336	21.804	1300.886	998.302
403.350	21.813	1300.208	997.743
404.365	21.744	1299.408	996.649
405.380	21.861	1298.361	996.423
406.394	21.866	1297.815	995.942
407.409	21.862	1297.466	995.567
408.423	22.005	1296.928	995.878
409.438	22.119	1296.276	995.936
410.453	22.306	1295.468	996.286
411.467	22.323	1294.804	995.783
412.482	22.376	1294.531	995.783
413.496	22.468	1293.763	995.623
414.511	22.469	1293.107	995.034
415.526	22.511	1292.216	994.498
416.540	22.662	1291.386	994.625
417.555	22.702	1290.807	994.319
418.569	22.797	1290.187	994.289
419.584	22.660	1290.020	993.301
420.599	22.612	1288.985	992.145
421.613	142.960	1430.227	1788.266
422.628	138.092	1450.783	1788.387
