DTS Sentinel unit serial number:	SN413079Multiplexer serial number:	ORYXHardware model number:	OX4-SRSoftware version number:	ORYX F/W v4.00 Oryx Data Collector v3.7.2.0data status	okinstallation	princeton_trtdifferential loss correction	single-endedforward channel	channel 4reverse channel	N/Adate	2019/09/16time	04:57:34forward acquisition time	60.00reverse acquisition time	0.00gamma	496.2192k internal	0.2322k external	0.2322temperature offset calibration	0.9978default loss term (dB/km)	0.3790temperature slope calibration	1.0000multiplexer offset coefficient	1.0000multiplexer slope coefficient	1.0000fibre end	0.00T internal ref (°C)	27.19T ext. ref 1 (°C)	10.97T ext. ref 2 (°C)	21.85length (m)	temperature (°C)	Stokes	anti-Stokes-747.200	223.432	0.116	0.188
-746.185	90.964	-0.178	-0.201
-745.171	-41.930	-0.246	-0.127
-744.156	104.575	-0.260	0.310
-743.142	-42.030	0.268	0.138
-742.127	-200.000	-0.015	0.425
-741.112	108.816	-0.158	-0.190
-740.098	-112.355	-0.247	0.050
-739.083	26.411	0.267	0.225
-738.069	-200.000	0.018	0.254
-737.054	-177.995	-0.310	-0.007
-736.039	70.330	0.100	-0.104
-735.025	310.754	0.069	0.131
-734.010	73.344	-0.062	-0.065
-732.996	172.675	-0.046	0.066
-731.981	14.966	-0.172	0.136
-730.966	-200.000	-0.023	-0.257
-729.952	-200.000	-0.077	-0.378
-728.937	800.000	0.020	0.072
-727.923	-43.910	0.163	0.083
-726.908	-200.000	-0.067	-0.411
-725.894	6.787	-0.511	-0.384
-724.879	-144.105	-0.504	-0.048
-723.864	190.662	0.094	0.143
-722.850	-126.903	0.048	0.007
-721.835	-74.569	-0.261	-0.095
-720.821	-118.521	-0.118	-0.021
-719.806	-93.283	-0.216	-0.061
-718.791	-200.000	0.016	0.147
-717.777	800.000	0.151	-0.447
-716.762	455.247	-0.094	0.211
-715.748	405.746	0.209	-0.445
-714.733	-200.000	-0.076	-0.360
-713.718	37.326	-0.092	0.082
-712.704	800.000	-0.051	0.147
-711.689	-52.888	-0.314	-0.146
-710.675	245.228	0.148	-0.251
-709.660	-46.056	-0.010	-0.005
-708.645	-134.963	-0.310	0.038
-707.631	-200.000	-0.004	0.213
-706.616	-200.000	0.034	0.320
-705.602	715.140	-0.053	0.141
-704.587	800.000	-0.080	-0.327
-703.572	-103.609	-0.200	-0.047
-702.558	55.279	-0.197	-0.192
-701.543	166.709	-0.161	-0.230
-700.529	-61.199	-0.247	0.105
-699.514	464.755	0.068	0.154
-698.499	151.339	-0.115	0.158
-697.485	22.792	0.097	-0.080
-696.470	-2.720	0.088	-0.062
-695.456	-45.344	-0.126	-0.063
-694.441	688.630	0.103	-0.273
-693.426	800.000	-0.034	0.138
-692.412	26.486	-0.253	-0.214
-691.397	-80.209	-0.172	0.058
-690.383	97.675	-0.316	-0.366
-689.368	174.601	-0.234	-0.341
-688.354	800.000	-0.086	0.300
-687.339	160.575	-0.047	-0.066
-686.324	-13.770	-0.036	-0.023
-685.310	-89.939	-0.321	0.095
-684.295	324.330	-0.024	-0.047
-683.281	93.551	-0.017	-0.020
-682.266	-86.921	0.146	0.045
-681.251	-175.767	-0.115	0.003
-680.237	16.171	-0.057	0.045
-679.222	411.639	-0.036	0.078
-678.208	-175.607	0.020	0.001
-677.193	-200.000	-0.014	0.134
-676.178	86.584	-0.119	-0.132
-675.164	-162.290	0.378	-0.019
-674.149	78.970	0.193	0.208
-673.135	-117.799	-0.169	0.031
-672.120	-131.652	-0.309	0.041
-671.105	-96.464	0.281	-0.075
-670.091	-137.592	-0.283	-0.032
-669.076	-112.471	0.311	-0.063
-668.062	800.000	-0.095	0.309
-667.047	-132.851	-0.280	0.036
-666.032	-200.000	0.071	-0.326
-665.018	381.868	0.124	-0.257
-664.003	-175.061	-0.347	0.010
-662.989	-89.785	-0.086	0.025
-661.974	46.611	0.043	-0.040
-660.959	-78.384	0.170	0.059
-659.945	-113.833	0.094	0.018
-658.930	-112.485	-0.492	-0.099
-657.916	69.373	-0.145	-0.150
-656.901	-101.826	0.138	0.034
-655.886	800.000	0.105	-0.429
-654.872	100.319	-0.071	0.083
-653.857	-200.000	0.011	-0.132
-652.843	-40.054	0.219	0.115
-651.828	-200.000	-0.062	0.462
-650.814	170.211	-0.172	0.248
-649.799	260.058	0.132	-0.229
-648.784	72.685	-0.134	0.141
-647.770	-198.050	-0.358	-0.002
-646.755	216.034	-0.097	-0.155
-645.741	348.140	0.111	-0.221
-644.726	-184.406	0.126	0.002
-643.711	223.115	0.241	-0.390
-642.697	800.000	0.088	-0.247
-641.682	-200.000	0.061	0.273
-640.668	291.439	-0.107	-0.196
-639.653	65.014	-0.158	-0.161
-638.638	-99.957	0.449	-0.113
-637.624	-44.617	-0.038	0.019
-636.609	-200.000	0.018	0.175
-635.595	-200.000	-0.016	0.075
-634.580	783.127	0.084	-0.230
-633.565	151.948	-0.107	0.147
-632.551	421.670	-0.074	0.160
-631.536	-200.000	-0.012	-0.086
-630.522	-200.000	-0.038	0.237
-629.507	138.240	0.185	0.243
-628.492	800.000	0.107	-0.415
-627.478	23.123	-0.322	-0.266
-626.463	-200.000	0.054	-0.451
-625.449	800.000	0.065	-0.189
-624.434	200.895	-0.053	-0.082
-623.419	-166.633	-0.118	-0.005
-622.405	244.855	0.114	0.193
-621.390	555.262	0.085	0.206
-620.376	186.937	0.170	0.254
-619.361	-125.664	-0.254	0.039
-618.346	169.012	-0.239	-0.343
-617.332	17.479	-0.042	-0.033
-616.317	7.504	0.277	0.209
-615.303	3.188	-0.305	-0.223
-614.288	-27.737	-0.163	0.095
-613.273	4.883	-0.307	0.227
-612.259	354.722	-0.076	0.151
-611.244	316.845	0.153	0.290
-610.230	149.295	0.068	0.093
-609.215	-68.382	0.132	0.051
-608.201	-162.242	0.148	-0.007
-607.186	100.686	0.082	-0.095
-606.171	84.220	0.180	-0.198
-605.157	-55.136	0.155	0.070
-604.142	-104.737	0.359	-0.083
-603.128	82.092	-0.269	-0.293
-602.113	149.912	-0.143	0.195
-601.098	800.000	-0.064	-0.210
-600.084	-199.445	-0.169	0.001
-599.069	-86.827	-0.174	-0.053
-598.055	-0.007	-0.050	-0.036
-597.040	774.217	0.179	0.490
-596.025	539.145	0.177	0.423
-595.011	-81.497	-0.224	0.074
-593.996	800.000	0.034	-0.125
-592.982	-200.000	-0.016	0.071
-591.967	-179.541	-0.264	-0.006
-590.952	-85.342	-0.200	-0.063
-589.938	-70.279	0.273	0.104
-588.923	-100.221	0.157	0.039
-587.909	-75.788	-0.273	0.097
-586.894	800.000	0.121	-0.412
-585.879	800.000	-0.017	-0.070
-584.865	800.000	-0.032	-0.108
-583.850	203.737	-0.217	0.337
-582.836	-63.339	0.285	-0.118
-581.821	-78.424	0.209	-0.072
-580.806	96.693	0.194	0.223
-579.792	-0.099	-0.189	-0.135
-578.777	800.000	0.038	0.124
-577.763	12.867	-0.145	0.113
-576.748	-42.329	0.338	-0.173
-575.733	-46.988	-0.200	-0.098
-574.719	309.080	0.090	0.169
-573.704	-21.942	0.149	-0.091
-572.690	800.000	0.070	0.204
-571.675	-200.000	0.022	0.324
-570.661	55.521	-0.107	-0.104
-569.646	317.287	0.155	0.294
-568.631	-66.694	0.204	-0.081
-567.617	-79.623	-0.217	-0.073
-566.602	-44.234	-0.127	0.064
-565.588	13.776	-0.082	-0.064
-564.573	-200.000	0.067	0.322
-563.558	800.000	0.085	0.271
-562.544	-200.000	-0.023	-0.321
-561.529	327.651	0.169	-0.325
-560.515	-96.868	-0.077	-0.020
-559.500	-172.956	-0.177	-0.005
-558.485	-125.725	0.219	0.033
-557.471	203.073	0.219	-0.339
-556.456	81.933	-0.084	0.091
-555.442	-200.000	-0.042	0.272
-554.427	70.252	-0.183	-0.190
-553.412	-71.427	-0.200	-0.075
-552.398	-68.501	-0.346	-0.135
-551.383	146.405	0.131	-0.177
-550.369	0.241	0.146	0.104
-549.354	800.000	0.050	0.161
-548.339	71.524	-0.111	0.115
-547.325	-200.000	-0.004	0.188
-546.310	101.355	0.146	0.171
-545.296	800.000	-0.029	-0.100
-544.281	-49.080	-0.068	0.033
-543.266	4.682	-0.241	-0.177
-542.252	800.000	0.124	-0.417
-541.237	800.000	0.097	-0.277
-540.223	450.560	0.099	0.220
-539.208	800.000	-0.030	0.110
-538.193	157.417	-0.088	-0.122
-537.179	-200.000	0.029	-0.169
-536.164	44.440	-0.228	-0.210
-535.150	800.000	-0.043	0.135
-534.135	223.346	0.098	-0.159
-533.121	800.000	0.042	0.156
-532.106	-29.457	-0.354	0.203
-531.091	49.115	0.204	-0.192
-530.077	204.147	0.161	0.251
-529.062	693.474	-0.056	-0.147
-528.048	328.387	0.128	-0.247
-527.033	44.574	-0.251	-0.232
-526.018	278.805	0.096	-0.172
-525.004	-52.687	0.147	0.068
-523.989	-200.000	-0.023	-0.145
-522.975	63.249	0.089	0.089
-521.960	800.000	-0.150	-0.486
-520.945	-137.161	-0.195	0.022
-519.931	-78.005	0.197	-0.068
-518.916	-200.000	-0.003	-0.195
-517.902	-200.000	-0.021	-0.171
-516.887	-125.239	0.280	-0.043
-515.872	380.440	-0.177	0.363
-514.858	185.464	-0.179	0.266
-513.843	-72.639	0.145	-0.054
-512.829	-195.384	-0.179	0.001
-511.814	738.694	0.080	-0.215
-510.799	40.707	-0.250	0.226
-509.785	800.000	-0.079	0.258
-508.770	147.269	0.135	0.182
-507.756	19.476	-0.140	-0.113
-506.741	67.492	-0.219	0.224
-505.726	125.255	0.087	0.110
-504.712	-200.000	0.002	0.107
-503.697	-121.204	-0.236	0.040
-502.683	279.276	0.039	0.070
-501.668	-200.000	-0.097	0.497
-500.653	112.076	0.077	0.094
-499.639	-72.765	0.064	-0.024
-498.624	800.000	-0.035	-0.150
-497.610	-200.000	0.029	0.190
-496.595	206.187	0.067	-0.104
-495.581	800.000	0.042	0.167
-494.566	-113.634	0.189	-0.037
-493.551	-200.000	0.000	-0.319
-492.537	800.000	-0.077	0.311
-491.522	-200.000	-0.004	-0.057
-490.508	-77.408	-0.033	0.012
-489.493	73.554	-0.297	-0.311
-488.478	-37.419	0.138	-0.074
-487.464	203.099	0.115	-0.177
-486.449	163.180	0.128	0.181
-485.435	-16.802	0.194	0.123
-484.420	-200.000	-0.024	-0.289
-483.405	250.369	0.069	-0.118
-482.391	-34.617	0.128	0.070
-481.376	141.632	0.083	0.110
-480.362	242.283	0.109	-0.182
-479.347	-124.731	-0.361	0.056
-478.332	800.000	-0.043	-0.164
-477.318	458.109	-0.098	-0.218
-476.303	49.719	0.099	0.093
-475.289	69.757	0.196	0.202
-474.274	416.168	0.159	-0.338
-473.259	-88.527	0.229	-0.068
-472.245	80.708	-0.054	0.059
-471.230	328.511	0.114	0.219
-470.216	-200.000	0.043	0.355
-469.201	-127.556	-0.146	0.021
-468.186	-199.189	0.249	0.001
-467.172	-169.594	-0.148	-0.005
-466.157	-200.000	0.010	0.113
-465.143	-56.013	-0.242	0.108
-464.128	-200.000	-0.041	0.316
-463.113	-17.962	-0.061	-0.038
-462.099	-121.772	-0.301	-0.050
-461.084	-101.402	0.124	-0.030
-460.070	-200.000	0.013	-0.104
-459.055	-134.919	0.309	0.037
-458.040	-76.904	0.296	0.103
-457.026	-66.283	0.127	0.050
-456.011	6.295	0.210	0.155
-454.997	54.900	0.399	-0.385
-453.982	-136.107	-0.173	0.020
-452.968	28.319	0.143	-0.121
-451.953	30.191	0.113	0.096
-450.938	44.789	-0.121	0.111
-449.924	-146.629	0.405	0.035
-448.909	-93.212	-0.136	-0.038
-447.895	271.307	0.079	-0.139
-446.880	172.231	0.213	-0.306
-445.865	-128.663	0.077	-0.011
-444.851	-200.000	0.000	0.088
-443.836	-53.311	-0.286	-0.131
-442.822	-82.122	0.340	0.111
-441.807	-109.392	0.156	-0.033
-440.792	-200.000	0.008	0.209
-439.778	-20.471	-0.200	0.123
-438.763	-200.000	0.042	0.280
-437.749	246.088	-0.174	0.293
-436.734	98.734	-0.086	0.099
-435.719	-200.000	-0.011	-0.314
-434.705	800.000	-0.037	-0.153
-433.690	29.823	0.307	-0.261
-432.676	183.906	-0.172	-0.254
-431.661	-200.000	-0.016	-0.110
-430.646	-37.110	0.106	0.057
-429.632	-200.000	0.012	-0.221
-428.617	-200.000	-0.019	0.152
-427.603	412.773	0.155	0.329
-426.588	19.950	-0.160	0.129
-425.573	-113.911	-0.180	0.035
-424.559	697.110	-0.046	0.121
-423.544	69.157	-0.204	-0.209
-422.530	18.301	0.214	-0.171
-421.515	253.684	0.077	0.132
-420.500	80.607	0.058	0.063
-419.486	-125.729	-0.185	0.028
-418.471	203.604	0.047	0.073
-417.457	-85.343	0.010	-0.003
-416.442	6.432	-0.430	-0.319
-415.428	96.034	-0.099	0.113
-414.413	153.192	0.251	0.343
-413.398	-45.146	0.117	0.058
-412.384	-65.559	0.316	0.126
-411.369	800.000	0.137	0.378
-410.355	-200.000	-0.035	-0.200
-409.340	-200.000	-0.010	0.109
-408.325	24.592	0.057	-0.047
-407.311	198.758	0.246	-0.376
-406.296	251.487	0.022	0.037
-405.282	20.857	-0.079	0.064
-404.267	270.713	0.180	0.315
-403.252	-122.192	-0.331	-0.054
-402.238	-111.783	-0.169	-0.034
-401.223	-94.944	-0.082	-0.022
-400.209	211.728	-0.149	-0.234
-399.194	-105.474	0.245	-0.055
-398.179	631.366	-0.155	0.391
-397.165	57.129	0.040	0.039
-396.150	800.000	-0.065	-0.251
-395.136	21.160	0.233	0.188
-394.121	21.927	0.117	-0.095
-393.106	-71.342	0.067	-0.025
-392.092	272.830	-0.217	-0.381
-391.077	800.000	-0.089	-0.335
-390.063	523.101	0.132	-0.309
-389.048	800.000	-0.026	0.113
-388.033	-34.314	-0.300	-0.164
-387.019	-8.570	0.293	0.196
-386.004	-63.968	-0.068	0.028
-384.990	-86.467	-0.188	0.058
-383.975	40.187	-0.194	0.174
-382.960	-89.751	-0.193	-0.056
-381.946	-64.345	0.344	-0.140
-380.931	-200.000	0.065	0.452
-379.917	13.324	-0.236	-0.183
-378.902	-27.399	-0.231	0.134
-377.888	698.443	-0.093	-0.243
-376.873	800.000	-0.093	-0.291
-375.858	-71.526	0.045	0.017
-374.844	-24.016	0.327	-0.195
-373.829	-200.000	0.021	-0.165
-372.815	-105.871	-0.108	0.024
-371.800	124.901	0.042	-0.053
-370.785	98.933	0.245	0.282
-369.771	-58.136	-0.195	-0.085
-368.756	153.621	-0.046	-0.063
-367.742	73.987	-0.215	-0.224
-366.727	-133.470	-0.257	-0.032
-365.712	43.845	-0.157	-0.143
-364.698	-200.000	0.043	0.338
-363.683	-200.000	0.011	0.460
-362.669	-64.502	-0.272	0.110
-361.654	-144.315	0.177	-0.016
-360.639	800.000	-0.057	-0.190
-359.625	-169.170	-0.154	-0.006
-358.610	-200.000	-0.018	-0.320
-357.596	-66.774	-0.177	-0.070
-356.581	64.039	-0.084	0.084
-355.566	9.327	0.085	0.064
-354.552	-110.512	-0.325	-0.067
-353.537	-17.732	-0.319	0.199
-352.523	164.695	0.082	-0.115
-351.508	800.000	-0.015	-0.063
-350.493	-115.260	-0.101	-0.019
-349.479	164.550	-0.100	0.140
-348.464	-148.976	-0.139	0.011
-347.450	-77.520	0.195	-0.067
-346.435	800.000	-0.030	0.084
-345.420	276.952	-0.047	-0.083
-344.406	-10.900	-0.128	0.084
-343.391	-74.540	-0.032	0.011
-342.377	127.173	-0.157	0.198
-341.362	-80.964	0.328	-0.108
-340.348	-69.033	0.167	0.064
-339.333	800.000	-0.025	0.093
-338.318	2.587	0.137	-0.098
-337.304	-142.505	0.362	-0.035
-336.289	150.807	0.099	-0.134
-335.275	-200.000	-0.010	0.119
-334.260	-71.829	-0.045	-0.017
-333.245	-200.000	-0.072	0.326
-332.231	800.000	0.072	-0.204
-331.216	-200.000	0.014	0.295
-330.202	800.000	0.064	-0.182
-329.187	5.769	0.245	0.180
-328.172	800.000	0.043	-0.120
-327.158	74.675	-0.184	0.192
-326.143	-127.302	-0.459	-0.067
-325.129	-121.286	-0.627	-0.104
-324.114	32.990	0.150	-0.129
-323.099	144.099	-0.141	0.187
-322.085	-51.645	0.271	0.126
-321.070	-191.953	-0.159	-0.002
-320.056	800.000	0.048	0.174
-319.041	444.910	-0.062	0.135
-318.026	-200.000	0.022	-0.128
-317.012	-131.757	0.184	-0.024
-315.997	-85.376	-0.247	0.077
-314.983	-200.000	0.005	0.123
-313.968	-43.969	0.199	-0.099
-312.953	-141.715	0.369	0.037
-311.939	428.431	-0.138	-0.297
-310.924	8.909	0.239	0.179
-309.910	-66.901	-0.094	-0.037
-308.895	-91.956	0.271	0.076
-307.880	-200.000	-0.020	0.222
-306.866	-160.882	-0.545	0.029
-305.851	-107.280	0.121	0.026
-304.837	-200.000	-0.079	-0.375
-303.822	89.144	0.272	-0.300
-302.807	24.964	0.096	0.079
-301.793	535.724	0.102	0.241
-300.778	249.929	-0.094	-0.158
-299.764	-200.000	0.005	0.305
-298.749	-94.155	-0.159	-0.043
-297.735	-79.712	0.103	-0.034
-296.720	-48.453	-0.267	-0.127
-295.705	-132.944	0.024	-0.003
-294.691	-10.927	-0.138	0.090
-293.676	-55.331	0.107	0.048
-292.662	99.537	0.177	-0.203
-291.647	-156.447	0.144	0.009
-290.632	-200.000	-0.010	0.159
-289.618	-81.549	-0.088	0.029
-288.603	-200.000	0.018	-0.093
-287.589	-4.640	-0.137	-0.094
-286.574	211.482	0.087	-0.135
-285.559	-107.156	0.081	-0.018
-284.545	482.098	-0.070	0.158
-283.530	576.436	0.041	0.100
-282.516	-200.000	0.046	0.389
-281.501	-108.506	-0.126	0.027
-280.486	-85.693	0.203	-0.063
-279.472	39.270	0.178	-0.158
-278.457	-45.751	0.256	-0.126
-277.443	-200.000	0.027	-0.299
-276.428	112.641	-0.269	-0.323
-275.413	-112.333	-0.232	0.046
-274.399	-200.000	0.055	0.368
-273.384	220.611	-0.130	0.207
-272.370	340.331	-0.152	0.295
-271.355	-50.387	0.086	-0.040
-270.340	-78.311	0.279	-0.095
-269.326	212.849	-0.265	-0.415
-268.311	800.000	0.086	-0.260
-267.297	-200.000	-0.014	-0.128
-266.282	42.565	-0.187	0.169
-265.267	385.326	0.115	0.234
-264.253	-10.986	0.127	-0.083
-263.238	-82.754	0.252	0.081
-262.224	-93.447	-0.124	0.034
-261.209	-200.000	-0.019	-0.150
-260.195	229.270	0.038	0.062
-259.180	174.709	-0.212	-0.304
-258.165	438.978	0.017	0.036
-257.151	-18.440	0.138	0.086
-256.136	152.956	0.187	0.253
-255.122	-3.449	0.179	0.123
-254.107	-101.821	-0.220	0.053
-253.092	131.988	-0.076	-0.096
-252.078	-22.675	0.144	0.086
-251.063	-199.265	-0.226	-0.001
-250.049	-200.000	-0.025	0.290
-249.034	-200.000	-0.061	-0.312
-248.019	-85.260	0.287	-0.089
-247.005	-48.461	0.186	-0.088
-245.990	-200.000	-0.028	0.177
-244.976	336.785	-0.088	0.170
-243.961	800.000	-0.140	-0.596
-242.946	274.660	0.221	-0.388
-241.932	-139.001	0.111	-0.012
-240.917	477.695	0.071	0.159
-239.903	594.786	-0.145	-0.354
-238.888	-200.000	-0.017	0.093
-237.873	-68.315	0.038	-0.015
-236.859	530.354	0.070	0.163
-235.844	75.837	-0.207	0.217
-234.830	-46.309	-0.217	-0.106
-233.815	-102.250	-0.133	0.032
-232.800	-200.000	-0.065	0.425
-231.786	211.014	0.087	0.135
-230.771	800.000	-0.072	-0.305
-229.757	-64.386	-0.256	-0.103
-228.742	-153.415	-0.116	-0.008
-227.727	26.164	-0.041	-0.034
-226.713	-64.222	0.093	-0.038
-225.698	319.364	0.123	-0.232
-224.684	-200.000	0.014	-0.271
-223.669	-50.404	0.054	0.025
-222.655	-123.397	0.258	-0.041
-221.640	800.000	-0.075	0.220
-220.625	-119.309	-0.164	-0.028
-219.611	47.231	-0.044	-0.041
-218.596	-109.060	-0.347	0.073
-217.582	57.539	0.251	-0.243
-216.567	-59.369	0.275	-0.117
-215.552	-54.496	0.212	0.095
-214.538	800.000	-0.049	-0.202
-213.523	-200.000	0.027	0.135
-212.509	-17.086	0.226	0.141
-211.494	-186.623	0.462	0.006
-210.479	198.922	-0.095	-0.144
-209.465	579.741	0.029	-0.070
-208.450	-200.000	-0.011	0.274
-207.436	800.000	-0.058	-0.207
-206.421	-181.014	-0.082	0.002
-205.406	-63.067	-0.075	0.031
-204.392	-129.547	-0.226	-0.031
-203.377	-185.181	-0.122	0.002
-202.363	279.883	0.129	0.227
-201.348	-123.089	-0.083	-0.013
-200.333	-200.000	-0.100	-0.539
-199.319	800.000	0.076	-0.221
-198.304	-200.000	-0.020	0.125
-197.290	-11.638	-0.023	0.015
-196.275	27.332	0.124	-0.103
-195.260	-200.000	0.011	0.302
-194.246	-200.000	0.004	0.427
-193.231	-200.000	0.074	0.573
-192.217	109.684	-0.240	-0.285
-191.202	-24.643	0.222	-0.131
-190.187	668.569	-0.132	0.337
-189.173	47.830	-0.074	0.068
-188.158	-121.292	-0.129	0.021
-187.144	-200.000	-0.060	0.264
-186.129	42.449	-0.437	-0.393
-185.114	235.905	0.091	0.148
-184.100	-26.788	-0.151	0.087
-183.085	800.000	0.030	0.095
-182.071	-200.000	0.015	-0.247
-181.056	-86.655	0.242	0.073
-180.042	-102.888	-0.185	0.043
-179.027	-46.017	-0.331	-0.161
-178.012	671.204	-0.103	0.264
-176.998	88.722	-0.145	-0.159
-175.983	6.178	-0.389	-0.285
-174.969	-112.887	-0.110	0.022
-173.954	-71.678	0.395	-0.146
-172.939	800.000	-0.104	-0.315
-171.925	-78.789	0.384	0.129
-170.910	-47.046	0.333	0.161
-169.896	304.923	-0.111	0.204
-168.881	-43.168	0.326	-0.163
-167.866	193.046	0.092	-0.137
-166.852	293.530	0.145	0.261
-165.837	-109.505	-0.236	-0.049
-164.823	-61.120	-0.165	0.069
-163.808	108.993	0.269	0.317
-162.793	248.964	0.130	-0.217
-161.779	-200.000	-0.065	0.326
-160.764	-21.002	0.079	-0.048
-159.750	800.000	-0.082	-0.291
-158.735	-145.829	0.183	-0.016
-157.720	51.690	0.243	0.228
-156.706	-200.000	-0.047	0.231
-155.691	27.480	-0.111	0.092
-154.677	92.638	-0.135	0.150
-153.662	234.024	0.148	0.240
-152.647	800.000	0.019	-0.065
-151.633	-32.962	-0.035	-0.019
-150.618	-118.241	-0.283	0.050
-149.604	-200.000	-0.052	0.334
-148.589	-200.000	-0.025	0.201
-147.574	-93.013	-0.155	0.043
-146.560	171.806	0.077	0.109
-145.545	10.196	-0.178	0.134
-144.531	-29.047	-0.212	-0.120
-143.516	57.969	-0.182	-0.176
-142.502	189.455	-0.135	-0.200
-141.487	-44.005	-0.281	0.139
-140.472	6.978	-0.079	-0.058
-139.458	340.316	-0.053	-0.103
-138.443	134.432	-0.099	0.127
-137.429	-200.000	-0.086	0.486
-136.414	-165.413	-0.452	0.020
-135.399	18.001	-0.192	-0.151
-134.385	-28.466	-0.257	0.146
-133.370	-76.176	-0.167	-0.058
-132.356	45.527	0.295	0.269
-131.341	251.747	0.071	-0.120
-130.326	127.921	0.025	-0.032
-129.312	37.628	-0.255	-0.223
-128.297	168.270	-0.096	-0.135
-127.283	10.996	-0.288	-0.217
-126.268	104.617	-0.261	-0.303
-125.253	12.451	0.323	-0.245
-124.239	73.299	-0.200	0.206
-123.224	124.788	0.098	0.121
-122.210	38.117	-0.153	-0.134
-121.195	-28.897	0.178	-0.101
-120.180	-103.650	0.080	-0.019
-119.166	140.321	-0.044	0.057
-118.151	-23.980	0.311	-0.183
-117.137	52.169	0.090	-0.084
-116.122	800.000	-0.040	-0.151
-115.107	548.933	0.050	0.118
-114.093	178.430	0.053	-0.077
-113.078	-71.150	-0.265	0.098
-112.064	-147.093	-0.252	-0.021
-111.049	278.743	-0.174	0.306
-110.034	212.545	-0.066	0.103
-109.020	-12.367	0.140	-0.090
-108.005	-15.755	-0.051	-0.032
-106.991	185.807	0.044	0.064
-105.976	71.053	0.156	0.160
-104.962	35.320	-0.301	-0.260
-103.947	-62.008	-0.171	0.070
-102.932	-187.035	0.251	-0.003
-101.918	-30.256	0.123	0.069
-100.903	-200.000	0.080	0.371
-99.889	-191.197	-0.243	0.002
-98.874	-37.961	-0.182	-0.095
-97.859	-93.149	0.114	0.031
-96.845	-174.951	0.113	-0.003
-95.830	70.696	0.040	-0.041
-94.816	-200.000	-0.069	-0.418
-93.801	-65.677	0.212	-0.084
-92.786	102.982	0.349	-0.402
-91.772	115.257	0.185	0.223
-90.757	47.932	-0.179	-0.165
-89.743	170.702	-0.146	0.206
-88.728	-89.535	0.081	0.024
-87.713	286.809	-0.131	-0.233
-86.699	-195.510	0.267	-0.002
-85.684	182.262	0.196	0.284
-84.670	-177.266	0.140	0.003
-83.655	-156.047	0.201	0.013
-82.640	-103.101	0.159	-0.037
-81.626	-95.867	-0.193	0.051
-80.611	56.940	0.137	0.131
-79.597	662.654	-0.057	-0.144
-78.582	-200.000	-0.041	-0.240
-77.567	800.000	0.055	0.201
-76.553	616.100	-0.106	-0.262
-75.538	-84.301	-0.034	0.011
-74.524	27.253	0.207	-0.172
-73.509	800.000	0.103	0.323
-72.494	-6.471	0.131	-0.088
-71.480	260.640	-0.107	0.182
-70.465	-200.000	0.065	-0.375
-69.451	31.484	0.058	0.049
-68.436	-200.000	-0.024	-0.155
-67.422	-13.927	0.080	-0.051
-66.407	-78.260	-0.029	-0.010
-65.392	799.979	0.095	0.258
-64.378	41.455	-0.110	-0.098
-63.363	416.219	0.194	-0.407
-62.349	-22.262	-0.153	0.091
-61.334	52.131	-0.903	-0.847
-60.319	248.236	0.488	0.812
-59.305	800.000	-0.446	-1.507
-58.290	381.845	0.514	1.039
-57.276	759.998	0.638	1.701
-56.261	-200.000	115.192	649.764
-55.246	461.959	1514.455	3322.812
-54.232	143.567	2689.644	3523.206
-53.217	93.162	2325.816	2586.070
-52.203	33.538	2073.223	1771.413
-51.188	28.893	1988.302	1657.036
-50.173	27.596	1970.739	1630.734
-49.159	45.792	2029.107	1844.688
-48.144	44.548	2045.637	1848.354
-47.130	29.443	2004.524	1675.281
-46.115	27.208	1993.879	1646.109
-45.100	27.117	1991.125	1642.952
-44.086	27.082	1989.073	1640.877
-43.071	27.054	1986.557	1638.480
-42.057	27.022	1984.417	1636.363
-41.042	27.018	1982.761	1634.897
-40.027	27.000	1980.884	1633.125
-39.013	27.105	1978.644	1632.153
-37.998	27.023	1976.894	1629.912
-36.984	27.119	1974.990	1629.133
-35.969	27.062	1973.707	1627.503
-34.954	27.211	1971.237	1626.738
-33.940	27.187	1969.940	1625.385
-32.925	27.164	1968.169	1623.650
-31.911	27.208	1966.547	1622.642
-30.896	27.222	1964.841	1621.296
-29.881	27.183	1963.276	1619.596
-28.867	27.188	1962.195	1618.684
-27.852	27.255	1959.964	1617.377
-26.838	27.208	1958.452	1615.646
-25.823	27.249	1956.511	1614.338
-24.809	27.187	1955.223	1612.661
-23.794	27.257	1952.912	1611.319
-22.779	27.198	1951.377	1609.459
-21.765	27.279	1949.729	1608.755
-20.750	27.215	1948.133	1606.806
-19.736	27.240	1946.476	1605.597
-18.721	27.317	1944.272	1604.396
-17.706	27.268	1942.979	1602.832
-16.692	27.190	1941.467	1600.839
-15.677	27.186	1939.893	1599.442
-14.663	27.172	1938.787	1598.342
-13.648	27.273	1937.434	1598.051
-12.633	27.218	1935.879	1596.222
-11.619	27.179	1934.635	1594.787
-10.604	27.183	1933.353	1593.709
-9.590	27.119	1932.720	1592.562
-8.575	27.176	1930.435	1591.113
-7.560	27.152	1929.485	1590.051
-6.546	27.233	1927.869	1589.368
-5.531	27.175	1926.555	1587.717
-4.517	27.131	1925.891	1586.721
-3.502	27.119	1925.063	1585.870
-2.487	27.195	1923.143	1584.887
-1.473	27.249	1922.420	1584.704
-0.458	27.205	1917.560	1580.248
0.556	25.250	1897.831	1552.856
1.571	21.212	1879.220	1502.812
2.586	17.572	1902.338	1489.396
3.600	16.725	1938.214	1509.798
4.615	16.826	1931.921	1505.665
5.629	15.611	1839.685	1423.370
6.644	12.825	1736.785	1321.327
7.659	11.176	1706.468	1285.148
8.673	11.011	1703.584	1281.562
9.688	11.036	1701.819	1280.320
10.702	11.037	1700.728	1279.390
11.717	10.797	1697.454	1274.932
12.731	11.116	1695.721	1276.018
13.746	13.056	1699.368	1293.867
14.761	16.037	1705.640	1321.945
15.775	17.608	1706.958	1335.173
16.790	17.242	1705.543	1331.080
17.804	16.260	1701.899	1320.440
18.819	15.261	1698.317	1309.740
19.834	14.504	1696.113	1302.017
20.848	14.225	1694.024	1298.121
21.863	13.959	1692.690	1294.914
22.877	13.706	1690.865	1291.434
23.892	13.504	1689.831	1288.954
24.907	13.409	1688.442	1287.043
25.921	13.411	1687.460	1286.197
26.936	13.396	1686.450	1285.198
27.950	13.415	1686.023	1284.909
28.965	13.461	1685.173	1284.504
29.980	13.473	1684.381	1283.877
30.994	13.540	1683.105	1283.308
32.009	13.605	1681.822	1282.726
33.023	13.645	1681.443	1282.627
34.038	13.679	1679.986	1281.664
35.053	13.729	1678.484	1280.791
36.067	13.620	1677.461	1279.060
37.082	13.494	1676.562	1277.287
38.096	13.558	1675.648	1276.972
39.111	13.633	1674.004	1276.187
40.126	13.637	1673.600	1275.797
41.140	13.608	1672.764	1274.821
42.155	13.454	1671.280	1272.394
43.169	13.400	1669.917	1270.832
44.184	13.331	1668.834	1269.361
45.199	13.338	1667.648	1268.404
46.213	13.291	1666.785	1267.270
47.228	13.366	1665.326	1266.628
48.242	13.401	1663.839	1265.648
49.257	13.486	1662.721	1265.337
50.271	13.562	1661.467	1264.851
51.286	13.513	1660.218	1263.414
52.301	13.493	1659.211	1262.385
53.315	13.493	1657.836	1261.227
54.330	13.334	1656.183	1258.649
55.344	13.354	1654.199	1257.181
56.359	13.351	1652.942	1256.089
57.374	13.386	1651.674	1255.279
58.388	13.435	1650.357	1254.540
59.403	13.394	1648.899	1253.010
60.417	13.327	1647.685	1251.468
61.432	13.321	1646.648	1250.531
62.447	13.282	1645.953	1249.593
63.461	13.357	1644.218	1248.733
64.476	13.251	1643.371	1247.180
65.490	13.222	1642.164	1245.935
66.505	13.213	1641.379	1245.159
67.520	13.171	1640.722	1244.233
68.534	13.260	1639.157	1243.608
69.549	13.282	1637.687	1242.551
70.563	13.329	1636.563	1241.942
71.578	13.281	1635.291	1240.502
72.593	13.288	1634.017	1239.478
73.607	13.234	1633.040	1238.223
74.622	13.099	1632.409	1236.622
75.636	13.155	1631.151	1235.980
76.651	13.202	1630.582	1235.790
77.666	13.178	1629.463	1234.652
78.680	13.215	1628.547	1234.132
79.695	13.231	1627.784	1233.564
80.709	13.228	1626.519	1232.474
81.724	13.219	1626.083	1231.962
82.739	13.280	1625.195	1231.637
83.753	13.306	1624.337	1231.074
84.768	13.490	1622.947	1231.281
85.782	13.467	1622.632	1230.762
86.797	13.515	1621.696	1230.294
87.812	13.475	1620.775	1229.193
88.826	13.417	1619.422	1227.625
89.841	13.407	1618.566	1226.798
90.855	13.408	1617.332	1225.762
91.870	13.570	1616.420	1226.157
92.884	13.545	1615.446	1225.125
93.899	13.594	1614.086	1224.351
94.914	13.609	1612.724	1223.314
95.928	13.561	1612.136	1222.412
96.943	13.685	1610.302	1221.821
97.957	13.558	1609.003	1219.796
98.972	13.530	1607.458	1218.311
99.987	13.501	1605.762	1216.701
101.001	13.525	1604.441	1215.768
102.016	13.566	1602.525	1214.515
103.030	13.536	1601.801	1213.634
104.045	13.481	1600.474	1212.122
105.060	13.515	1599.276	1211.355
106.074	13.471	1597.597	1209.652
107.089	13.363	1596.134	1207.649
108.103	13.343	1594.215	1205.948
109.118	13.268	1592.609	1204.083
110.133	13.262	1591.249	1202.899
111.147	13.317	1589.675	1202.003
112.162	13.350	1588.446	1201.206
113.176	13.419	1586.778	1200.338
114.191	13.393	1585.844	1199.343
115.206	13.377	1584.046	1197.757
116.220	13.401	1582.707	1196.814
117.235	13.356	1581.484	1195.460
118.249	13.394	1580.293	1194.727
119.264	13.418	1578.756	1193.630
120.279	13.321	1577.943	1192.212
121.293	13.301	1576.114	1190.581
122.308	13.285	1574.572	1189.195
123.322	13.261	1573.064	1187.782
124.337	13.265	1571.194	1186.290
125.352	13.274	1569.946	1185.307
126.366	13.151	1569.261	1183.802
127.381	13.331	1567.782	1183.876
128.395	13.321	1566.745	1182.910
129.410	13.255	1565.423	1181.339
130.424	13.330	1563.708	1180.473
131.439	13.332	1562.909	1179.785
132.454	13.347	1560.986	1178.332
133.468	13.424	1559.441	1177.608
134.483	13.290	1558.821	1176.086
135.497	13.383	1557.251	1175.458
136.512	13.352	1555.950	1174.151
137.527	13.386	1554.752	1173.385
138.541	13.293	1553.609	1171.760
139.556	13.409	1552.147	1171.375
140.570	13.465	1550.277	1170.252
141.585	13.465	1549.182	1169.327
142.600	13.553	1547.851	1168.836
143.614	13.573	1546.623	1167.950
144.629	13.572	1545.688	1167.132
145.643	13.680	1543.710	1166.297
146.658	13.777	1542.142	1165.688
147.673	13.610	1541.236	1163.724
148.687	13.539	1539.489	1161.809
149.702	13.549	1538.081	1160.712
150.716	13.498	1536.697	1159.205
151.731	13.533	1535.346	1158.329
152.746	13.554	1533.887	1157.277
153.760	13.543	1532.425	1155.992
154.775	13.487	1531.459	1154.771
155.789	13.507	1530.300	1153.931
156.804	13.626	1528.942	1153.636
157.819	13.760	1527.424	1153.320
158.833	13.624	1526.604	1151.651
159.848	13.775	1525.805	1151.999
160.862	13.800	1524.669	1151.211
161.877	13.894	1522.805	1150.354
162.892	13.798	1521.863	1148.873
163.906	13.614	1520.727	1146.644
164.921	13.698	1519.163	1145.944
165.935	13.608	1518.448	1144.681
166.950	13.726	1517.202	1144.453
167.964	13.687	1516.757	1143.751
168.979	13.753	1515.295	1142.998
169.994	13.729	1514.135	1141.860
171.008	13.800	1512.855	1141.281
172.023	13.745	1512.038	1140.188
173.037	13.826	1510.581	1139.544
174.052	13.839	1509.823	1138.956
175.067	13.876	1508.789	1138.335
176.081	13.839	1507.191	1136.774
177.096	13.665	1506.365	1134.856
178.110	13.786	1504.608	1134.262
179.125	13.783	1503.897	1133.602
180.140	13.790	1502.354	1132.390
181.154	13.805	1501.369	1131.647
182.169	13.866	1500.419	1131.244
183.183	13.897	1499.438	1130.621
184.198	13.915	1498.164	1129.682
185.213	13.962	1496.991	1129.012
186.227	13.981	1496.039	1128.330
187.242	14.069	1494.494	1127.658
188.256	14.055	1493.653	1126.828
189.271	14.028	1492.898	1125.975
190.286	14.059	1491.341	1124.913
191.300	14.029	1490.531	1123.998
192.315	13.984	1488.773	1122.270
193.329	13.818	1487.813	1120.325
194.344	13.741	1486.796	1118.945
195.359	13.840	1485.608	1118.620
196.373	13.881	1484.483	1117.950
197.388	14.046	1483.592	1118.285
198.402	13.950	1483.126	1117.189
199.417	13.966	1481.804	1116.204
200.432	14.093	1481.005	1116.355
201.446	14.257	1479.696	1116.371
202.461	14.278	1478.364	1115.408
203.475	14.317	1477.510	1114.923
204.490	14.311	1476.365	1113.921
205.504	14.190	1475.848	1112.623
206.519	14.237	1474.284	1111.660
207.534	14.195	1473.149	1110.429
208.548	14.241	1471.666	1109.517
209.563	14.194	1470.619	1108.319
210.577	14.208	1469.817	1107.711
211.592	14.244	1468.732	1107.032
212.607	14.290	1468.141	1106.794
213.621	14.245	1467.735	1106.090
214.636	14.391	1466.675	1106.161
215.650	14.377	1465.635	1105.190
216.665	14.372	1464.533	1104.226
217.680	14.360	1463.865	1103.544
218.694	14.407	1463.479	1103.471
219.709	14.432	1462.534	1102.821
220.723	14.495	1461.249	1102.171
221.738	14.440	1460.376	1101.053
222.753	14.405	1459.671	1100.195
223.767	14.422	1458.545	1099.358
224.782	14.467	1457.151	1098.511
225.796	14.515	1456.380	1098.149
226.811	14.545	1455.973	1097.943
227.826	14.625	1454.985	1097.627
228.840	14.534	1454.240	1096.367
229.855	14.568	1452.926	1095.500
230.869	14.437	1452.344	1094.109
231.884	14.517	1450.974	1093.501
232.899	14.569	1449.824	1092.880
233.913	14.487	1448.944	1091.582
234.928	14.462	1447.156	1089.974
235.942	14.475	1445.960	1089.061
236.957	14.572	1444.883	1088.790
237.972	14.468	1444.331	1087.598
238.986	14.525	1442.923	1086.816
240.001	14.554	1441.857	1086.102
241.015	14.403	1440.800	1084.228
242.030	14.451	1440.150	1083.954
243.045	14.605	1439.124	1084.089
244.059	14.664	1437.969	1083.502
245.074	14.736	1436.908	1083.076
246.088	14.748	1435.887	1082.290
247.103	14.745	1435.731	1082.058
248.117	14.702	1435.319	1081.372
249.132	14.827	1433.776	1080.919
250.147	14.810	1433.879	1080.791
251.161	14.919	1432.703	1080.517
252.176	15.002	1431.912	1080.362
253.190	14.996	1431.214	1079.700
254.205	15.079	1430.029	1079.247
255.220	15.079	1429.251	1078.562
256.234	15.123	1428.866	1078.459
257.249	15.151	1427.515	1077.527
258.263	15.144	1427.120	1077.087
259.278	15.166	1426.023	1076.305
260.293	15.143	1425.013	1075.300
261.307	15.121	1424.107	1074.377
262.322	15.157	1423.533	1074.079
263.336	15.300	1422.223	1073.913
264.351	15.291	1421.508	1073.219
265.366	15.329	1420.834	1072.863
266.380	15.210	1420.073	1071.427
267.395	15.344	1419.146	1071.495
268.409	15.302	1417.853	1070.155
269.424	15.262	1417.403	1069.464
270.439	15.297	1415.925	1068.474
271.453	15.251	1415.075	1067.445
272.468	15.273	1414.185	1066.819
273.482	15.295	1412.862	1065.867
274.497	15.229	1412.444	1065.038
275.512	15.239	1411.728	1064.472
276.526	15.261	1410.803	1063.816
277.541	15.288	1409.839	1063.166
278.555	15.321	1408.610	1062.357
279.570	15.342	1407.933	1061.887
280.585	15.351	1407.117	1061.234
281.599	15.338	1406.671	1060.720
282.614	15.450	1405.293	1060.295
283.628	15.432	1404.309	1059.345
284.643	15.462	1403.146	1058.559
285.657	15.445	1401.984	1057.483
286.672	15.466	1400.811	1056.636
287.687	15.480	1400.073	1056.074
288.701	15.407	1399.191	1054.857
289.716	15.472	1398.399	1054.575
290.730	15.485	1397.487	1053.877
291.745	15.511	1396.521	1053.219
292.760	15.450	1395.577	1052.032
293.774	15.521	1394.295	1051.418
294.789	15.538	1393.652	1050.946
295.803	15.538	1392.726	1050.154
296.818	15.656	1391.897	1050.173
297.833	15.683	1390.645	1049.304
298.847	15.547	1389.897	1047.799
299.862	15.599	1388.967	1047.328
300.876	15.609	1387.737	1046.371
301.891	15.644	1386.955	1045.904
302.906	15.702	1386.323	1045.700
303.920	15.666	1386.184	1045.275
304.935	15.679	1385.213	1044.534
305.949	15.724	1384.356	1044.073
306.964	15.893	1383.065	1044.052
307.979	15.935	1381.938	1043.373
308.993	15.873	1380.978	1042.172
310.008	15.851	1380.145	1041.311
311.022	15.962	1379.142	1041.151
312.037	15.820	1378.534	1039.724
313.052	15.885	1377.691	1039.394
314.066	15.886	1376.851	1038.676
315.081	15.877	1375.224	1037.300
316.095	15.852	1374.152	1036.249
317.110	15.832	1373.304	1035.394
318.125	15.727	1372.633	1034.153
319.139	15.815	1371.569	1033.799
320.154	15.942	1370.409	1033.610
321.168	15.796	1369.501	1031.942
322.183	15.842	1368.654	1031.491
323.197	15.958	1367.368	1031.145
324.212	15.913	1366.890	1030.413
325.227	15.868	1366.182	1029.513
326.241	15.992	1364.810	1029.146
327.256	16.004	1363.960	1028.487
328.270	15.850	1363.668	1027.236
329.285	15.950	1362.562	1026.921
330.300	16.007	1361.328	1026.251
331.314	15.878	1361.013	1025.137
332.329	15.907	1360.088	1024.528
333.343	16.012	1358.913	1024.190
334.358	15.942	1357.977	1022.967
335.373	15.990	1357.071	1022.481
336.387	16.095	1356.419	1022.543
337.402	16.032	1356.347	1022.012
338.416	16.067	1355.293	1021.341
339.431	16.182	1354.568	1021.397
340.446	16.192	1353.732	1020.738
341.460	16.207	1352.913	1020.122
342.475	16.253	1351.704	1019.401
343.489	16.332	1350.855	1019.144
344.504	16.357	1349.870	1018.460
345.519	16.268	1349.354	1017.446
346.533	16.315	1347.957	1016.587
347.548	16.377	1347.505	1016.526
348.562	16.508	1346.412	1016.401
349.577	16.413	1345.799	1015.277
350.592	16.454	1344.974	1014.811
351.606	16.363	1344.091	1013.508
352.621	16.432	1342.858	1012.902
353.635	16.302	1341.882	1011.298
354.650	16.281	1341.231	1010.593
355.665	16.267	1339.957	1009.460
356.679	16.366	1338.622	1008.956
357.694	16.211	1337.939	1007.429
358.708	16.390	1336.712	1007.482
359.723	16.439	1335.790	1006.988
360.738	16.426	1334.793	1006.073
361.752	16.476	1333.704	1005.460
362.767	16.451	1332.496	1004.311
363.781	16.452	1331.692	1003.625
364.796	16.409	1331.509	1003.137
365.810	16.612	1329.934	1003.070
366.825	16.524	1329.787	1002.348
367.840	16.650	1329.063	1002.460
368.854	16.740	1328.124	1002.194
369.869	16.819	1327.622	1002.194
370.883	16.791	1326.980	1001.457
371.898	16.750	1326.298	1000.612
372.913	16.684	1325.419	999.471
373.927	16.731	1324.129	998.683
374.942	16.650	1323.887	997.939
375.956	16.720	1323.356	997.862
376.971	16.817	1321.935	997.272
377.986	16.742	1321.001	996.036
379.000	16.782	1320.772	996.010
380.015	16.872	1319.623	995.588
381.029	16.778	1319.302	994.702
382.044	16.886	1318.177	994.404
383.059	16.913	1317.854	994.229
384.073	17.011	1316.476	993.675
385.088	16.974	1316.274	993.217
386.102	16.950	1315.571	992.460
387.117	16.966	1315.013	992.042
388.132	17.017	1313.928	991.438
389.146	16.947	1313.346	990.501
390.161	16.842	1312.310	989.020
391.175	16.905	1311.307	988.542
392.190	16.956	1310.597	988.214
393.205	16.923	1309.894	987.405
394.219	17.052	1308.748	987.206
395.234	17.031	1307.632	986.153
396.248	17.053	1306.462	985.314
397.263	16.942	1304.949	983.438
398.278	17.032	1303.597	982.857
399.292	17.010	1302.858	982.085
400.307	17.019	1301.523	981.040
401.321	16.905	1300.535	979.551
402.336	17.079	1299.155	979.432
403.350	16.939	1298.573	978.101
404.365	16.929	1298.148	977.634
405.380	16.969	1297.052	976.954
406.394	17.090	1295.888	976.685
407.409	17.111	1295.634	976.528
408.423	17.124	1294.666	975.788
409.438	17.228	1294.107	975.879
410.453	17.270	1293.388	975.490
411.467	17.343	1292.392	975.069
412.482	17.247	1292.437	974.467
413.496	17.362	1291.531	974.360
414.511	17.342	1290.394	973.300
415.526	17.399	1289.907	973.173
416.540	17.431	1289.253	972.772
417.555	17.450	1288.625	972.324
418.569	17.503	1288.026	972.086
419.584	17.484	1287.343	971.377
420.599	17.554	1286.673	971.186
421.613	96.688	1356.827	1475.505
422.628	94.681	1367.006	1475.600
