DTS Sentinel unit serial number:	SN413079Multiplexer serial number:	ORYXHardware model number:	OX4-SRSoftware version number:	ORYX F/W v4.00 Oryx Data Collector v3.7.2.0data status	okinstallation	princeton_trtdifferential loss correction	single-endedforward channel	channel 4reverse channel	N/Adate	2019/09/12time	19:10:19forward acquisition time	15.00reverse acquisition time	0.00gamma	496.2192k internal	0.2309k external	0.2309temperature offset calibration	1.0141default loss term (dB/km)	0.3790temperature slope calibration	1.0000multiplexer offset coefficient	1.0000multiplexer slope coefficient	1.0000fibre end	0.00T internal ref (°C)	32.62T ext. ref 1 (°C)	3.18T ext. ref 2 (°C)	27.19length (m)	temperature (°C)	Stokes	anti-Stokes-747.200	-88.986	-1.143	0.344
-746.185	-97.022	-0.641	-0.170
-745.171	-91.847	-1.099	-0.317
-744.156	100.249	0.666	-0.786
-743.142	-71.588	0.420	0.160
-742.127	-46.958	-0.500	-0.248
-741.112	-126.718	1.206	-0.181
-740.098	-200.000	-0.032	-0.544
-739.083	-200.000	-0.173	-0.787
-738.069	18.267	-0.300	0.244
-737.054	-74.859	0.202	0.074
-736.039	800.000	-0.047	0.201
-735.025	98.902	0.531	0.622
-734.010	109.550	0.132	0.161
-732.996	-200.000	-0.037	0.555
-731.981	-30.878	0.319	-0.183
-730.966	764.387	-0.288	-0.796
-729.952	-32.580	-0.425	0.240
-728.937	800.000	0.193	-0.696
-727.923	-64.098	-1.040	-0.431
-726.908	800.000	0.247	-0.847
-725.894	74.224	-0.329	0.351
-724.879	-27.490	0.570	-0.337
-723.864	-110.173	0.258	-0.055
-722.850	-151.171	-0.769	0.059
-721.835	156.679	-0.397	-0.557
-720.821	800.000	0.237	-0.690
-719.806	306.720	-0.373	0.706
-718.791	344.258	-0.327	0.652
-717.777	276.818	-0.467	0.842
-716.762	156.796	0.306	0.430
-715.748	-78.758	-0.466	0.161
-714.733	-200.000	-0.109	0.836
-713.718	-181.794	-0.129	-0.003
-712.704	136.982	-0.358	-0.474
-711.689	-13.509	-0.405	-0.266
-710.675	-111.102	0.314	0.065
-709.660	-175.117	1.170	-0.033
-708.645	-200.000	0.169	-0.876
-707.631	800.000	-0.187	-0.669
-706.616	-9.423	0.060	0.040
-705.602	-67.319	0.413	0.165
-704.587	800.000	-0.338	0.950
-703.572	-200.000	0.040	0.282
-702.558	-33.202	0.715	0.402
-701.543	-58.034	-0.429	-0.190
-700.529	-200.000	-0.111	-0.721
-699.514	-61.104	0.327	0.140
-698.499	-70.389	0.510	0.196
-697.485	9.527	-0.646	0.496
-696.470	-58.933	0.301	-0.132
-695.456	280.576	0.669	-1.213
-694.441	340.829	-0.301	0.597
-693.426	362.287	0.249	0.507
-692.412	-170.116	0.187	0.007
-691.397	98.659	-0.237	-0.278
-690.383	-142.781	0.637	-0.063
-689.368	206.460	-0.266	-0.420
-688.354	800.000	0.182	-0.579
-687.339	-113.802	0.307	0.061
-686.324	-20.329	-0.354	0.221
-685.310	-193.889	-0.313	0.003
-684.295	41.264	0.809	0.742
-683.281	-200.000	0.067	-0.497
-682.266	5.591	0.244	0.183
-681.251	144.149	-0.279	0.378
-680.237	51.445	0.438	0.422
-679.222	800.000	-0.134	-0.494
-678.208	-172.391	-0.463	0.015
-677.193	-24.312	-0.746	-0.451
-676.178	-59.279	0.161	-0.070
-675.164	288.412	-0.177	0.324
-674.149	800.000	0.157	0.655
-673.135	-200.000	-0.087	0.922
-672.120	12.955	-0.472	-0.370
-671.105	-112.257	0.845	0.172
-670.091	-112.257	-0.247	0.050
-669.076	-200.000	-0.080	0.373
-668.062	-117.100	0.643	0.119
-667.047	-200.000	-0.056	0.513
-666.032	-191.312	0.500	0.005
-665.018	-96.346	-0.447	-0.120
-664.003	37.470	0.268	0.241
-662.989	-59.007	-0.533	-0.233
-661.974	-200.000	-0.018	-0.168
-660.959	374.884	0.123	-0.254
-659.945	326.897	-0.332	0.645
-658.930	527.382	0.171	-0.408
-657.916	19.005	0.432	-0.351
-656.901	9.731	-0.093	0.071
-655.886	55.788	-0.181	-0.178
-654.872	-104.987	-0.611	0.142
-653.857	189.930	-0.204	0.311
-652.843	-14.086	-0.078	-0.051
-651.828	53.463	-0.375	0.364
-650.814	-148.417	0.323	0.027
-649.799	-102.469	-0.822	0.199
-648.784	289.708	-0.265	0.486
-647.770	-129.466	-0.664	0.093
-646.755	752.020	0.245	0.670
-645.741	-45.481	-1.051	-0.527
-644.726	800.000	-0.122	0.470
-643.711	-200.000	-0.122	0.777
-642.697	333.945	-0.155	-0.303
-641.682	345.087	-0.271	0.539
-640.668	-200.000	0.141	0.859
-639.653	-28.233	-0.784	-0.458
-638.638	-142.139	-0.909	0.091
-637.624	-200.000	0.053	-0.646
-636.609	-200.000	-0.116	0.540
-635.595	-105.569	0.767	0.176
-634.580	147.100	0.457	0.623
-633.565	0.105	-0.322	0.232
-632.551	-200.000	-0.156	0.922
-631.536	-3.358	-0.251	-0.177
-630.522	-162.154	-1.007	-0.051
-629.507	800.000	-0.114	-0.384
-628.492	-200.000	-0.025	-0.491
-627.478	-105.770	-0.395	0.090
-626.463	-120.966	-0.526	-0.089
-625.449	-56.675	-1.043	-0.467
-624.434	123.093	0.126	-0.160
-623.419	147.018	-0.344	-0.468
-622.405	800.000	0.163	0.462
-621.390	-98.928	0.428	0.110
-620.376	-50.891	0.570	-0.271
-619.361	48.490	0.248	0.235
-618.346	99.069	-0.183	-0.213
-617.332	-179.717	0.868	0.019
-616.317	-200.000	-0.027	0.370
-615.303	-50.999	0.118	-0.056
-614.288	-200.000	-0.016	0.336
-613.273	-200.000	0.026	-0.215
-612.259	-53.133	0.954	-0.443
-611.244	39.070	-0.501	-0.453
-610.230	-61.310	-0.862	0.367
-609.215	-141.571	-0.115	0.012
-608.201	161.509	0.315	-0.446
-607.186	10.022	-0.423	0.325
-606.171	99.636	-0.156	-0.183
-605.157	-57.564	-0.223	0.099
-604.142	800.000	-0.258	0.749
-603.128	-121.440	-0.371	-0.062
-602.113	-36.243	0.311	-0.170
-601.098	-87.255	0.601	-0.184
-600.084	-62.222	-0.315	0.133
-599.069	264.596	0.091	0.160
-598.055	64.185	-0.607	-0.618
-597.040	104.278	0.185	0.220
-596.025	343.504	-0.223	0.441
-595.011	-200.000	0.075	-0.346
-593.996	203.935	-0.154	-0.241
-592.982	800.000	-0.148	0.510
-591.967	-43.313	0.336	-0.172
-590.952	178.797	0.174	-0.256
-589.938	514.979	-0.219	-0.515
-588.923	-200.000	-0.053	-0.236
-587.909	-158.217	-0.534	-0.032
-586.894	800.000	-0.153	0.428
-585.879	279.457	0.104	0.187
-584.865	-0.723	-0.689	0.493
-583.850	-16.066	0.726	-0.466
-582.836	-200.000	0.119	0.762
-581.821	-88.378	-0.596	0.180
-580.806	-36.468	0.510	0.277
-579.792	162.264	-0.145	0.205
-578.777	-137.364	0.359	-0.041
-577.763	-200.000	0.045	-0.970
-576.748	138.610	0.230	-0.304
-575.733	-84.225	0.713	-0.228
-574.719	173.506	-0.114	-0.166
-573.704	209.547	-0.297	-0.471
-572.690	174.384	0.469	-0.685
-571.675	-200.000	-0.642	-0.003
-570.661	99.743	0.095	0.111
-569.646	573.228	0.174	0.427
-568.631	-101.046	0.222	-0.055
-567.617	153.890	-0.146	-0.202
-566.602	-151.770	0.583	0.043
-565.588	768.940	0.180	0.493
-564.573	55.766	-0.813	0.795
-563.558	-65.322	-0.618	0.251
-562.544	-92.231	0.408	0.116
-561.529	-90.458	0.542	-0.158
-560.515	-43.001	0.107	0.055
-559.500	74.532	-0.288	0.305
-558.485	800.000	0.180	-0.627
-557.471	1.276	0.604	0.438
-556.456	132.939	0.015	0.020
-555.442	-141.978	-0.433	0.044
-554.427	-200.000	0.080	0.522
-553.412	206.919	-0.422	0.664
-552.398	-87.945	0.719	0.218
-551.383	8.372	0.840	0.637
-550.369	133.897	-0.149	-0.194
-549.354	104.996	0.558	-0.664
-548.339	42.684	0.123	-0.113
-547.325	-80.598	0.182	-0.061
-546.310	-52.547	-0.665	-0.310
-545.296	-39.922	0.793	-0.418
-544.281	27.218	0.732	0.620
-543.266	-98.398	-0.266	-0.069
-542.252	236.267	0.162	-0.270
-541.237	3.346	-0.330	-0.242
-540.223	-29.748	0.230	0.132
-539.208	-119.768	-0.405	0.070
-538.193	800.000	0.170	0.583
-537.179	-81.555	-0.584	-0.193
-536.164	-200.000	-0.076	-0.408
-535.150	-133.822	-0.036	0.005
-534.135	-200.000	-0.128	-1.630
-533.121	98.963	0.348	-0.405
-532.106	-88.091	-0.523	0.158
-531.091	-74.639	-0.475	0.172
-530.077	105.795	0.419	-0.499
-529.062	-34.665	-0.241	0.133
-528.048	114.002	-0.606	-0.743
-527.033	-71.135	-0.626	0.237
-526.018	-149.419	-1.127	0.090
-525.004	14.142	-0.319	-0.250
-523.989	800.000	0.462	1.302
-522.975	800.000	-0.051	-0.210
-521.960	-155.656	-0.512	0.033
-520.945	-200.000	0.002	0.184
-519.931	-200.000	-0.003	-0.167
-518.916	-137.767	-0.628	0.071
-517.902	-102.582	0.621	-0.149
-516.887	-1.875	0.915	-0.648
-515.872	208.064	0.300	-0.473
-514.858	222.282	-0.363	-0.588
-513.843	-125.483	0.346	0.053
-512.829	-104.836	-0.607	0.140
-511.814	-128.484	-0.292	-0.042
-510.799	-200.000	0.039	0.449
-509.785	-52.920	0.580	-0.269
-508.770	-80.457	-0.208	-0.070
-507.756	121.765	-0.146	0.183
-506.741	-102.282	-0.096	0.023
-505.726	-92.645	0.357	-0.101
-504.712	-138.524	-0.402	-0.044
-503.697	-128.717	-0.828	-0.118
-502.683	-121.272	0.483	-0.081
-501.668	187.063	0.313	0.470
-500.653	-26.735	-0.659	0.388
-499.639	-76.438	0.757	-0.268
-498.624	800.000	0.107	0.465
-497.610	-200.000	0.005	-0.936
-496.595	-30.280	0.374	-0.214
-495.581	308.414	0.240	-0.452
-494.566	-65.033	-0.136	0.055
-493.551	-200.000	0.165	0.829
-492.537	9.870	-0.265	0.203
-491.522	800.000	-0.054	0.227
-490.508	-126.336	0.819	-0.123
-489.493	-88.027	-1.375	-0.416
-488.478	-98.184	0.164	0.043
-487.464	-200.000	0.105	0.777
-486.449	-119.841	0.797	-0.138
-485.435	153.861	0.464	0.640
-484.420	342.203	0.140	-0.276
-483.405	800.000	-0.286	-1.208
-482.391	164.977	-0.306	0.434
-481.376	800.000	0.099	-0.396
-480.362	554.296	-0.116	-0.280
-479.347	-15.151	-0.296	-0.191
-478.332	136.537	-0.408	0.535
-477.318	-24.695	0.780	-0.467
-476.303	-200.000	-0.007	-0.123
-475.289	-102.134	0.641	0.155
-474.274	216.868	-0.176	-0.281
-473.259	-200.000	0.059	0.320
-472.245	-86.780	-0.364	0.112
-471.230	386.405	-0.298	0.619
-470.216	92.307	0.413	-0.468
-469.201	209.231	0.212	0.334
-468.186	-150.140	0.333	-0.026
-467.172	-40.714	-0.523	-0.272
-466.157	-99.871	-0.745	-0.187
-465.143	16.554	0.705	0.560
-464.128	-200.000	-0.003	0.325
-463.113	266.303	0.259	-0.454
-462.099	223.040	0.557	-0.902
-461.084	-30.405	0.917	0.523
-460.070	-200.000	0.001	0.433
-459.055	-90.998	0.621	-0.179
-458.040	-110.559	0.550	-0.114
-457.026	-126.347	-0.981	-0.147
-456.011	-200.000	-0.170	0.786
-454.997	800.000	0.217	0.682
-453.982	106.281	0.603	0.718
-452.968	45.431	-0.179	-0.166
-451.953	-156.553	-0.238	-0.015
-450.938	29.718	-0.613	-0.524
-449.924	-136.527	0.570	-0.066
-448.909	299.476	-0.332	0.614
-447.895	-11.292	-0.221	0.146
-446.880	-15.483	0.625	0.401
-445.865	-200.000	-0.003	0.165
-444.851	79.746	-0.362	0.391
-443.836	-200.000	0.020	-0.324
-442.822	232.708	-0.305	-0.504
-441.807	500.044	0.116	-0.269
-440.792	-25.761	-0.076	0.045
-439.778	-137.074	-0.153	0.018
-438.763	-82.766	0.813	-0.264
-437.749	1.863	0.419	0.303
-436.734	251.862	-0.379	-0.647
-435.719	-115.278	-0.538	-0.102
-434.705	-60.328	-0.180	0.077
-433.690	774.443	0.193	0.530
-432.676	-200.000	-0.044	-0.624
-431.661	-200.000	0.162	-0.924
-430.646	-91.969	-0.309	0.088
-429.632	652.070	-0.225	0.579
-428.617	800.000	0.132	0.486
-427.603	-200.000	-0.098	0.508
-426.588	760.279	0.112	-0.305
-425.573	-71.756	0.413	-0.155
-424.559	785.576	-0.153	-0.421
-423.544	352.581	-0.175	-0.348
-422.530	182.489	0.289	-0.427
-421.515	86.458	-0.298	0.330
-420.500	800.000	0.139	-0.467
-419.486	-54.212	0.654	-0.298
-418.471	608.866	-0.359	-0.900
-417.457	244.034	-0.189	-0.318
-416.442	800.000	0.108	0.304
-415.428	81.693	0.605	0.657
-414.413	154.177	-0.578	0.796
-413.398	-30.291	-0.455	-0.259
-412.384	-18.510	0.630	-0.394
-411.369	-76.691	0.490	0.172
-410.355	-140.465	-0.591	0.062
-409.340	483.845	-0.090	-0.206
-408.325	-55.218	-0.330	-0.149
-407.311	46.872	0.341	-0.318
-406.296	-172.520	-0.400	0.013
-405.282	177.373	0.533	-0.778
-404.267	-119.048	-1.000	0.176
-403.252	417.432	0.093	-0.200
-402.238	-125.387	0.408	-0.062
-401.223	-78.305	-0.223	-0.077
-400.209	-149.072	-0.477	-0.038
-399.194	442.289	0.410	-0.901
-398.179	-126.531	-0.284	0.042
-397.165	-61.166	-0.411	0.174
-396.150	-34.306	0.628	0.345
-395.136	177.975	0.330	0.482
-394.121	-159.069	-0.353	-0.020
-393.106	-200.000	0.007	0.109
-392.092	-31.142	0.162	-0.091
-391.077	-36.640	-0.826	0.445
-390.063	169.741	-0.274	0.393
-389.048	-125.978	0.961	0.145
-388.033	-80.819	0.520	0.173
-387.019	800.000	0.309	0.961
-386.004	411.127	0.211	0.449
-384.990	425.816	-0.148	-0.321
-383.975	-200.000	0.035	1.217
-382.960	800.000	-0.078	-0.263
-381.946	130.019	0.093	-0.119
-380.931	215.989	0.184	0.293
-379.917	-140.046	0.283	0.030
-378.902	-100.355	0.468	0.116
-377.888	-200.000	0.095	0.540
-376.873	799.743	-0.322	-0.889
-375.858	-174.202	-0.173	0.005
-374.844	-133.968	0.051	-0.006
-373.829	800.000	0.080	-0.242
-372.815	68.909	0.229	0.235
-371.800	301.263	-0.165	0.306
-370.785	-21.150	-0.634	0.389
-369.771	-147.531	0.618	0.052
-368.756	8.000	-0.612	-0.460
-367.742	-200.000	0.091	0.425
-366.727	22.163	-0.344	-0.281
-365.712	-102.399	0.782	-0.188
-364.698	-90.827	-0.130	0.037
-363.683	-53.736	1.107	0.506
-362.669	-109.512	-0.256	0.054
-361.654	95.222	0.344	-0.393
-360.639	-25.127	-0.385	0.229
-359.625	682.523	-0.140	-0.366
-358.610	28.332	-0.557	0.471
-357.596	800.000	-0.350	-0.982
-356.581	-80.712	0.758	-0.252
-355.566	84.421	-0.386	-0.422
-354.552	-200.000	-0.123	0.677
-353.537	12.064	-0.502	0.386
-352.523	39.124	0.849	0.760
-351.508	16.208	-0.194	0.153
-350.493	428.677	0.279	-0.604
-349.479	579.512	-0.238	0.584
-348.464	-81.359	0.365	0.120
-347.450	22.429	-0.609	-0.498
-346.435	153.565	0.388	0.532
-345.420	-178.533	0.243	0.006
-344.406	730.288	-0.116	-0.311
-343.391	151.350	0.299	-0.408
-342.377	37.482	0.272	0.241
-341.362	-171.860	-0.127	0.004
-340.348	-62.612	-0.334	-0.138
-339.333	800.000	-0.097	0.353
-338.318	378.250	0.041	-0.085
-337.304	-154.133	0.418	0.028
-336.289	419.666	-0.118	-0.254
-335.275	-50.608	0.337	-0.159
-334.260	-149.704	-0.633	-0.050
-333.245	69.532	-0.382	0.393
-332.231	-94.976	0.573	-0.155
-331.216	-65.116	0.522	0.210
-330.202	109.543	0.049	-0.059
-329.187	-200.000	0.119	-0.697
-328.172	-134.889	-1.150	-0.139
-327.158	209.997	0.453	0.711
-326.143	-89.791	-0.533	-0.156
-325.129	-65.086	-0.720	-0.290
-324.114	410.296	-0.288	0.609
-323.099	-56.220	0.314	-0.140
-322.085	-107.266	-0.423	-0.093
-321.070	-19.992	0.161	-0.100
-320.056	-100.741	0.717	-0.177
-319.041	145.150	0.358	0.479
-318.026	169.814	0.432	-0.617
-317.012	469.983	0.171	-0.384
-315.997	-49.326	0.306	-0.146
-314.983	-142.367	0.221	-0.022
-313.968	372.441	0.194	-0.395
-312.953	-52.287	-0.222	-0.103
-311.939	-101.913	0.221	-0.053
-310.924	-136.848	-0.872	0.100
-309.910	782.897	-0.120	-0.328
-308.895	52.852	-0.377	0.360
-307.880	125.648	-0.604	0.762
-306.866	67.455	-0.515	0.525
-305.851	-0.998	0.602	-0.425
-304.837	-158.428	-0.208	0.012
-303.822	29.828	-0.428	-0.364
-302.807	-100.910	0.328	-0.080
-301.793	27.203	0.232	-0.194
-300.778	-134.969	-0.923	-0.111
-299.764	800.000	0.091	-0.302
-298.749	-40.767	0.331	0.171
-297.735	-200.000	-0.032	0.501
-296.720	-200.000	0.024	-0.881
-295.705	-168.164	-0.089	0.003
-294.691	-133.737	-0.491	-0.061
-293.676	63.118	-0.423	0.423
-292.662	-200.000	-0.110	1.022
-291.647	-182.334	-0.506	-0.009
-290.632	742.459	-0.117	0.315
-289.618	-200.000	-0.098	-0.679
-288.603	272.882	-0.416	-0.734
-287.589	-49.839	0.320	0.152
-286.574	-167.602	0.297	0.012
-285.559	-1.322	-0.364	-0.256
-284.545	-200.000	-0.007	0.306
-283.530	85.179	0.175	-0.192
-282.516	416.298	-0.275	0.585
-281.501	-96.968	-0.322	0.084
-280.486	288.533	0.329	0.595
-279.472	2.638	0.692	0.501
-278.457	-71.609	-0.759	-0.283
-277.443	-21.302	-0.188	-0.114
-276.428	54.435	0.456	-0.438
-275.413	0.687	0.239	0.171
-274.399	-58.895	0.862	-0.372
-273.384	222.560	0.187	-0.301
-272.370	-200.000	0.055	-0.469
-271.355	800.000	0.005	-0.016
-270.340	58.106	-0.462	-0.451
-269.326	-135.818	0.653	0.077
-268.311	612.076	0.174	0.434
-267.297	-200.000	-0.163	-1.155
-266.282	114.774	-0.547	-0.665
-265.267	-51.001	-0.409	-0.192
-264.253	242.420	-0.187	0.312
-263.238	80.282	0.539	-0.578
-262.224	84.546	0.466	0.508
-261.209	-200.000	0.071	0.508
-260.195	-6.507	-0.362	-0.246
-259.180	604.306	-0.241	0.598
-258.165	-200.000	-0.129	0.733
-257.151	-200.000	-0.162	1.021
-256.136	-92.301	-0.422	-0.119
-255.122	-200.000	0.007	-1.554
-254.107	-200.000	-0.028	-0.356
-253.092	-200.000	-0.017	-0.361
-252.078	262.431	-0.290	-0.501
-251.063	107.950	0.132	0.157
-250.049	50.887	0.565	-0.533
-249.034	50.534	-0.523	0.493
-248.019	800.000	-0.193	0.571
-247.005	3.019	0.168	0.121
-245.990	-3.724	0.753	-0.521
-244.976	261.047	-0.198	0.341
-243.961	130.544	0.425	0.543
-242.946	-65.056	0.516	-0.207
-241.932	225.449	0.241	-0.389
-240.917	800.000	0.188	-0.654
-239.903	-122.328	0.770	-0.125
-238.888	247.522	0.221	0.372
-237.873	185.512	0.338	0.500
-236.859	800.000	-0.096	-0.267
-235.844	-200.000	0.071	-0.942
-234.830	-200.000	-0.055	0.364
-233.815	-110.618	0.750	-0.154
-232.800	133.744	0.574	0.740
-231.786	-158.835	-0.757	0.043
-230.771	-174.035	-0.272	0.008
-229.757	618.377	0.044	-0.111
-228.742	-134.982	0.555	0.067
-227.727	-200.000	0.095	-1.589
-226.713	19.531	0.376	-0.301
-225.698	347.120	-0.197	0.386
-224.684	509.000	0.423	-0.979
-223.669	-16.234	-0.201	-0.127
-222.655	60.345	0.434	-0.427
-221.640	-200.000	0.047	-0.269
-220.625	-164.427	1.067	0.048
-219.611	181.572	0.350	-0.513
-218.596	156.429	-0.398	0.547
-217.582	-1.113	-0.706	-0.497
-216.567	174.055	-0.221	-0.317
-215.552	-74.370	0.360	-0.129
-214.538	-13.350	-0.255	0.165
-213.523	-65.063	-0.908	0.365
-212.509	-21.238	-0.156	0.095
-211.494	-200.000	-0.066	0.425
-210.479	69.098	-0.185	0.189
-209.465	-21.846	0.767	-0.464
-208.450	-94.658	-0.008	0.002
-207.436	164.270	0.171	-0.240
-206.421	224.777	-0.204	0.328
-205.406	-33.190	-0.340	0.187
-204.392	57.415	0.213	-0.207
-203.377	157.261	0.513	0.706
-202.363	-200.000	0.058	-0.340
-201.348	8.271	0.242	0.181
-200.333	-122.007	-0.677	0.111
-199.319	175.181	0.257	0.370
-198.304	499.065	0.194	0.445
-197.290	38.652	0.891	-0.791
-196.275	296.442	-0.233	-0.424
-195.260	-200.000	0.119	-0.528
-194.246	-76.084	-0.425	-0.149
-193.231	79.747	-0.318	0.339
-192.217	-122.405	-0.114	0.018
-191.202	-200.000	0.020	-0.665
-190.187	-127.286	0.300	-0.044
-189.173	800.000	-0.134	-0.494
-188.158	-89.059	-0.352	0.104
-187.144	454.002	-0.586	1.291
-186.129	-46.838	-0.359	0.174
-185.114	43.243	0.258	0.234
-184.100	420.141	-0.056	0.118
-183.085	-200.000	-0.037	0.571
-182.071	-113.418	0.285	0.056
-181.056	800.000	-0.116	-0.365
-180.042	-200.000	0.008	0.173
-179.027	800.000	-0.416	1.142
-178.012	800.000	0.134	0.459
-176.998	62.470	-0.370	0.367
-175.983	800.000	-0.256	-0.864
-174.969	-200.000	-0.142	0.642
-173.954	-62.996	-0.374	0.154
-172.939	-200.000	0.288	-0.000
-171.925	41.585	0.852	-0.767
-170.910	586.899	0.304	0.744
-169.896	-24.894	-0.644	0.380
-168.881	798.300	-0.207	-0.566
-167.866	94.908	0.244	-0.275
-166.852	-94.407	-0.363	-0.098
-165.837	-14.473	-0.537	0.343
-164.823	194.798	0.472	0.712
-163.808	-93.431	0.413	-0.114
-162.793	-100.611	1.135	0.278
-161.779	800.000	-0.171	-0.503
-160.764	-106.269	0.554	-0.123
-159.750	-55.858	0.762	-0.338
-158.735	-101.339	-0.210	0.051
-157.720	-200.000	-0.079	0.760
-156.706	-139.534	-0.676	0.072
-155.691	-68.172	0.308	0.119
-154.677	-200.000	0.037	0.210
-153.662	67.888	0.284	-0.288
-152.647	72.195	0.111	0.114
-151.633	-88.233	0.499	-0.148
-150.618	-45.904	0.194	0.095
-149.604	97.599	-0.325	-0.371
-148.589	65.641	0.761	0.765
-147.574	800.000	-0.237	0.730
-146.560	472.096	-0.119	0.267
-145.545	325.374	0.254	0.482
-144.531	-200.000	-0.105	0.743
-143.516	800.000	0.265	-0.889
-142.502	-200.000	-0.041	0.232
-141.487	-11.051	-0.503	-0.329
-140.472	-64.775	0.304	0.122
-139.458	-172.888	0.604	0.019
-138.443	-60.315	-0.285	-0.120
-137.429	100.880	0.168	0.193
-136.414	101.519	0.329	-0.381
-135.399	-128.290	-0.320	-0.045
-134.385	6.005	0.270	0.198
-133.370	134.900	0.257	-0.332
-132.356	98.252	0.053	-0.061
-131.341	-155.593	0.452	0.029
-130.326	-7.714	-1.219	0.817
-129.312	-97.432	-0.433	0.112
-128.297	-200.000	-0.133	-0.694
-127.283	-149.194	-0.960	-0.076
-126.268	-83.392	-0.805	0.256
-125.253	-71.568	-0.096	-0.035
-124.239	-200.000	-0.024	-0.160
-123.224	-84.211	-0.081	0.025
-122.210	14.850	-0.308	-0.239
-121.195	-200.000	-0.057	0.325
-120.180	-113.631	0.044	-0.008
-119.166	-8.419	0.450	-0.300
-118.151	205.176	-0.245	0.377
-117.137	-200.000	0.027	-0.210
-116.122	-153.282	0.536	0.037
-115.107	-194.271	-1.027	0.008
-114.093	110.848	0.175	-0.209
-113.078	24.370	0.616	0.505
-112.064	-43.036	0.458	0.230
-111.049	-113.994	0.359	-0.069
-110.034	-64.595	-0.580	0.233
-109.020	91.160	-0.328	0.365
-108.005	-185.664	-0.391	0.006
-106.991	-108.366	0.409	0.087
-105.976	409.577	0.451	-0.946
-104.962	36.989	-0.783	-0.686
-103.947	800.000	-0.133	-0.489
-102.932	278.732	-0.329	0.581
-101.918	8.614	-0.207	0.154
-100.903	-200.000	-0.049	-0.279
-99.889	800.000	-0.206	-0.661
-98.874	128.801	0.212	-0.268
-97.859	-200.000	0.165	0.743
-96.845	-70.805	-0.722	-0.270
-95.830	-80.979	0.347	-0.114
-94.816	8.448	0.107	0.080
-93.801	8.293	-0.207	-0.154
-92.786	-200.000	0.029	0.349
-91.772	-163.397	-0.402	0.019
-90.757	453.714	0.078	-0.171
-89.743	20.515	0.723	-0.579
-88.728	193.087	-0.188	-0.281
-87.713	-200.000	-0.020	-1.109
-86.699	-166.123	1.139	-0.048
-85.684	-30.952	0.718	-0.401
-84.670	137.782	-0.244	-0.317
-83.655	-94.498	-0.177	0.048
-82.640	800.000	-0.183	0.688
-81.626	4.620	-0.388	0.282
-80.611	-200.000	0.088	0.679
-79.597	-200.000	0.025	-0.271
-78.582	366.613	0.087	-0.174
-77.567	108.139	-0.749	-0.884
-76.553	69.576	0.623	0.636
-75.538	221.553	0.292	0.464
-74.524	-200.000	-0.078	-0.585
-73.509	800.000	-0.184	-0.748
-72.494	-200.000	-0.183	0.851
-71.480	-200.000	0.034	0.391
-70.465	36.351	-0.230	-0.201
-69.451	428.233	-0.217	0.464
-68.436	19.852	0.208	0.166
-67.422	13.828	-0.638	-0.491
-66.407	-143.406	0.187	0.018
-65.392	-46.433	-0.365	0.177
-64.378	-200.000	0.055	0.325
-63.363	-82.895	0.735	0.235
-62.349	-93.521	-0.461	-0.126
-61.334	800.000	-0.223	-0.658
-60.319	61.351	0.553	0.544
-59.305	205.492	-0.899	-1.383
-58.290	-200.000	-0.218	1.514
-57.276	150.833	1.407	1.892
-56.261	-200.000	95.048	589.490
-55.246	668.108	1354.334	3464.868
-54.232	200.582	2525.528	3840.084
-53.217	109.648	2280.146	2703.144
-52.203	39.356	2046.531	1812.497
-51.188	34.291	1962.474	1693.113
-50.173	32.893	1943.990	1664.781
-49.159	48.525	1997.104	1850.401
-48.144	49.206	2014.865	1872.870
-47.130	34.957	1975.517	1710.046
-46.115	32.779	1966.431	1682.711
-45.100	32.617	1962.683	1678.000
-44.086	32.403	1961.177	1674.738
-43.071	32.458	1957.913	1672.372
-42.057	32.518	1955.524	1670.799
-41.042	32.504	1953.266	1668.677
-40.027	32.523	1951.210	1667.022
-39.013	32.597	1949.337	1666.007
-37.998	32.402	1948.421	1663.442
-36.984	32.618	1945.867	1663.101
-35.969	32.498	1944.630	1660.913
-34.954	32.765	1942.670	1661.533
-33.940	32.636	1941.783	1659.569
-32.925	32.780	1938.035	1657.564
-31.911	32.639	1937.809	1656.064
-30.896	32.543	1935.420	1653.121
-29.881	32.745	1934.495	1654.035
-28.867	32.648	1933.669	1652.412
-27.852	32.711	1931.502	1651.048
-26.838	32.719	1929.268	1649.137
-25.823	32.777	1927.065	1647.698
-24.809	32.575	1927.031	1645.836
-23.794	32.635	1924.983	1644.546
-22.779	32.466	1922.578	1640.953
-21.765	32.846	1920.946	1642.810
-20.750	32.659	1918.772	1639.257
-19.736	32.662	1917.651	1638.258
-18.721	32.545	1916.121	1635.874
-17.706	32.613	1915.227	1635.637
-16.692	32.531	1913.271	1633.190
-15.677	32.559	1911.970	1632.255
-14.663	32.748	1909.774	1631.946
-13.648	32.508	1909.578	1629.638
-12.633	32.800	1906.851	1629.770
-11.619	32.572	1907.021	1627.887
-10.604	32.605	1905.406	1626.724
-9.590	32.710	1903.003	1625.512
-8.575	32.584	1902.075	1623.569
-7.560	32.646	1900.870	1623.015
-6.546	32.692	1899.381	1622.070
-5.531	32.466	1898.944	1619.686
-4.517	32.693	1897.632	1620.456
-3.502	32.791	1895.627	1619.527
-2.487	32.707	1894.501	1617.778
-1.473	32.608	1893.587	1616.084
-0.458	32.697	1889.146	1612.985
0.556	33.380	1871.821	1584.062
1.571	29.336	1850.650	1532.477
2.586	25.222	1871.836	1515.218
3.600	24.041	1908.383	1534.493
4.615	23.342	1902.194	1523.370
5.629	17.944	1802.437	1399.246
6.644	8.326	1684.236	1233.397
7.659	3.460	1647.273	1169.383
8.673	3.161	1643.962	1164.668
9.688	3.350	1641.561	1164.294
10.702	3.234	1641.137	1163.013
11.717	2.976	1637.250	1158.208
12.731	3.546	1637.175	1162.349
13.746	9.969	1652.279	1221.679
14.761	19.751	1673.896	1312.155
15.775	24.302	1681.763	1352.817
16.790	24.988	1682.214	1358.264
17.804	24.895	1680.799	1356.297
18.819	24.505	1680.096	1352.655
19.834	24.572	1678.588	1351.833
20.848	24.779	1677.379	1352.300
21.863	24.779	1675.926	1351.014
22.877	24.831	1675.621	1351.041
23.892	25.080	1673.869	1351.381
24.907	24.950	1673.730	1350.168
25.921	24.897	1673.626	1349.569
26.936	24.882	1672.415	1348.357
27.950	25.128	1670.443	1348.497
28.965	25.032	1670.723	1347.884
29.980	25.132	1668.606	1346.811
30.994	24.943	1667.770	1344.595
32.009	25.005	1667.853	1345.013
33.023	25.088	1666.958	1344.789
34.038	24.982	1665.357	1342.588
35.053	25.016	1664.244	1341.822
36.067	25.146	1663.117	1341.770
37.082	24.917	1663.034	1339.874
38.096	24.647	1662.462	1337.276
39.111	24.798	1660.553	1336.743
40.126	25.024	1660.090	1337.941
41.140	25.115	1658.918	1337.561
42.155	24.839	1657.623	1334.338
43.169	24.785	1656.942	1333.270
44.184	24.505	1656.408	1330.634
45.199	24.694	1653.963	1329.963
46.213	24.583	1654.120	1329.143
47.228	24.430	1653.393	1327.303
48.242	24.789	1651.157	1328.061
49.257	25.012	1650.659	1329.191
50.271	25.039	1648.756	1327.743
51.286	24.842	1648.624	1326.060
52.301	24.690	1647.689	1324.065
53.315	25.061	1645.317	1324.787
54.330	24.840	1644.651	1322.501
55.344	24.920	1642.450	1321.201
56.359	24.878	1641.108	1319.698
57.374	24.820	1640.489	1318.653
58.388	24.854	1640.040	1318.426
59.403	24.843	1637.923	1316.527
60.417	24.878	1636.805	1315.770
61.432	24.743	1636.516	1314.426
62.447	24.612	1634.524	1311.751
63.461	24.719	1633.958	1311.965
64.476	24.452	1633.369	1309.415
65.490	24.777	1631.610	1310.275
66.505	24.718	1630.047	1308.470
67.520	24.535	1629.557	1306.625
68.534	24.488	1629.011	1305.725
69.549	24.694	1627.542	1305.939
70.563	24.861	1626.289	1306.032
71.578	24.535	1626.105	1303.396
72.593	24.540	1624.877	1302.329
73.607	24.516	1624.107	1301.423
74.622	24.380	1622.905	1299.352
75.636	24.409	1621.697	1298.483
76.651	24.460	1621.702	1298.744
77.666	24.463	1620.346	1297.565
78.680	24.653	1619.235	1297.936
79.695	24.386	1619.649	1296.213
80.709	24.370	1617.766	1294.482
81.724	24.560	1616.939	1295.083
82.739	24.848	1616.750	1296.899
83.753	24.938	1615.435	1296.387
84.768	24.915	1614.617	1295.444
85.782	24.909	1614.756	1295.397
86.797	25.120	1613.400	1295.722
87.812	25.217	1612.898	1295.907
88.826	25.030	1612.113	1293.807
89.841	24.986	1610.640	1292.198
90.855	24.952	1609.569	1290.979
91.870	24.964	1609.033	1290.520
92.884	25.161	1608.311	1291.247
93.899	25.204	1607.369	1290.682
94.914	25.341	1605.470	1290.029
95.928	25.185	1605.988	1289.206
96.943	25.316	1603.314	1287.889
97.957	25.242	1602.300	1286.431
98.972	25.302	1600.812	1285.553
99.987	25.170	1599.865	1283.731
101.001	24.877	1599.163	1280.958
102.016	25.074	1597.658	1281.049
103.030	25.032	1596.064	1279.353
104.045	25.090	1593.714	1277.775
105.060	25.062	1593.300	1277.132
106.074	25.041	1591.355	1275.306
107.089	24.955	1590.438	1273.851
108.103	24.875	1588.969	1271.987
109.118	24.690	1588.063	1269.836
110.133	24.470	1586.808	1267.161
111.147	24.633	1583.818	1265.820
112.162	24.519	1583.838	1264.914
113.176	24.670	1582.653	1264.920
114.191	24.759	1582.060	1264.968
115.206	24.803	1580.980	1264.301
116.220	24.651	1580.926	1263.069
117.235	24.671	1579.018	1261.576
118.249	25.036	1576.936	1262.375
119.264	24.465	1576.550	1257.930
120.279	24.356	1575.017	1255.829
121.293	24.520	1574.050	1256.101
122.308	24.701	1572.284	1255.853
123.322	24.550	1570.969	1253.631
124.337	24.442	1570.100	1252.070
125.352	24.322	1569.170	1250.372
126.366	24.403	1567.971	1249.876
127.381	24.503	1566.361	1249.181
128.395	24.373	1566.888	1248.585
129.410	24.496	1564.785	1247.659
130.424	24.330	1563.240	1245.153
131.439	24.301	1561.902	1243.780
132.454	24.191	1560.712	1241.950
133.468	24.470	1559.653	1242.946
134.483	24.571	1559.066	1243.069
135.497	24.803	1557.589	1243.394
136.512	24.571	1557.137	1241.312
137.527	24.771	1554.863	1240.777
138.541	24.705	1554.847	1240.194
139.556	24.477	1553.689	1237.577
140.570	24.902	1551.579	1238.728
141.585	24.686	1551.135	1236.772
142.600	24.715	1550.855	1236.643
143.614	25.032	1548.869	1237.137
144.629	25.210	1547.606	1237.244
145.643	25.336	1547.797	1238.160
146.658	25.163	1544.819	1234.474
147.673	25.070	1544.724	1233.652
148.687	24.958	1543.245	1231.593
149.702	24.967	1541.506	1230.154
150.716	24.878	1540.536	1228.662
151.731	24.547	1538.882	1224.962
152.746	24.508	1537.169	1223.227
153.760	24.448	1536.577	1222.238
154.775	24.681	1535.586	1222.932
155.789	24.932	1534.299	1223.513
156.804	25.066	1533.634	1223.793
157.819	25.065	1532.246	1222.572
158.833	25.071	1531.268	1221.718
159.848	24.729	1530.980	1219.050
160.862	24.909	1529.925	1219.331
161.877	24.954	1529.640	1219.305
162.892	25.052	1527.772	1218.372
163.906	24.854	1526.158	1215.629
164.921	24.808	1524.508	1213.900
165.935	24.644	1523.190	1211.628
166.950	24.494	1523.853	1211.035
167.964	24.577	1522.363	1210.305
168.979	24.975	1520.830	1211.673
169.994	24.867	1520.365	1210.459
171.008	24.770	1519.888	1209.318
172.023	24.785	1518.609	1208.298
173.037	25.055	1517.409	1209.055
174.052	24.755	1517.317	1206.849
175.067	25.100	1514.943	1207.178
176.081	25.103	1513.378	1205.849
177.096	24.823	1513.652	1204.073
178.110	24.631	1511.879	1201.267
179.125	24.639	1510.777	1200.338
180.140	24.749	1509.871	1200.252
181.154	24.595	1510.126	1199.316
182.169	24.939	1508.520	1200.236
183.183	24.476	1508.403	1196.934
184.198	24.660	1507.228	1197.127
185.213	24.939	1506.099	1197.997
186.227	25.054	1505.187	1197.933
187.242	25.102	1504.731	1197.784
188.256	25.183	1502.155	1196.164
189.271	25.320	1501.081	1196.118
190.286	25.112	1501.029	1194.584
191.300	25.108	1501.069	1194.482
192.315	24.953	1499.386	1192.005
193.329	24.529	1497.607	1187.669
194.344	24.973	1496.865	1189.928
195.359	24.801	1496.658	1188.511
196.373	24.654	1495.552	1186.552
197.388	24.596	1494.415	1185.161
198.402	24.526	1492.744	1183.272
199.417	24.391	1492.306	1181.924
200.432	25.059	1491.389	1185.514
201.446	24.792	1491.975	1184.110
202.461	25.228	1490.485	1185.698
203.475	24.981	1489.088	1182.853
204.490	25.152	1488.868	1183.706
205.504	24.956	1487.488	1181.210
206.519	24.600	1486.156	1177.703
207.534	24.617	1486.271	1177.798
208.548	24.646	1484.429	1176.429
209.563	24.356	1483.000	1173.282
210.577	24.411	1482.765	1173.352
211.592	24.450	1481.457	1172.474
212.607	24.328	1480.976	1171.186
213.621	24.943	1480.788	1174.967
214.636	25.190	1480.129	1175.961
215.650	24.980	1478.664	1173.318
216.665	24.781	1477.154	1170.716
217.680	24.821	1476.708	1170.523
218.694	25.228	1476.270	1172.728
219.709	25.135	1476.082	1171.866
220.723	25.157	1474.075	1170.319
221.738	24.941	1473.119	1168.042
222.753	24.802	1472.786	1166.772
223.767	24.851	1472.007	1166.372
224.782	24.765	1471.190	1165.057
225.796	24.799	1469.353	1163.721
226.811	25.241	1469.859	1166.893
227.826	25.207	1468.273	1165.313
228.840	25.055	1468.372	1164.299
229.855	24.957	1466.508	1162.085
230.869	24.873	1465.886	1160.942
231.884	24.872	1465.262	1160.339
232.899	24.976	1463.425	1159.454
233.913	24.417	1462.722	1155.177
234.928	24.668	1460.516	1154.953
235.942	24.708	1459.978	1154.688
236.957	24.740	1458.831	1153.885
237.972	24.624	1457.296	1151.822
238.986	24.329	1456.677	1149.328
240.001	24.258	1455.805	1148.083
241.015	24.361	1455.166	1148.139
242.030	24.561	1453.708	1148.172
243.045	24.426	1453.915	1147.367
244.059	24.610	1452.709	1147.498
245.074	24.795	1452.211	1148.190
246.088	24.976	1451.110	1148.379
247.103	24.855	1450.768	1147.229
248.117	24.864	1449.279	1146.007
249.132	25.169	1448.755	1147.444
250.147	25.135	1448.383	1146.829
251.161	25.189	1448.585	1147.233
252.176	25.442	1448.366	1148.572
253.190	25.786	1448.016	1150.391
254.205	25.490	1446.332	1147.066
255.220	25.769	1445.401	1148.005
256.234	25.733	1444.780	1147.182
257.249	25.823	1444.507	1147.434
258.263	25.857	1443.096	1146.432
259.278	25.584	1443.319	1144.768
260.293	25.742	1441.561	1144.277
261.307	25.859	1439.530	1143.308
262.322	25.470	1440.415	1141.437
263.336	25.761	1439.329	1142.319
264.351	26.096	1436.366	1141.990
265.366	25.771	1436.673	1140.076
266.380	25.671	1435.849	1138.684
267.395	25.558	1435.538	1137.626
268.409	25.532	1435.737	1137.521
269.424	25.678	1433.595	1136.640
270.439	25.439	1432.661	1134.293
271.453	25.421	1432.505	1133.956
272.468	25.416	1431.526	1133.049
273.482	25.443	1430.733	1132.491
274.497	25.355	1429.112	1130.554
275.512	25.192	1428.233	1128.734
276.526	25.218	1427.485	1128.207
277.541	25.171	1427.215	1127.596
278.555	25.430	1425.368	1127.660
279.570	25.137	1425.147	1125.546
280.585	25.485	1424.175	1126.862
281.599	25.611	1422.711	1126.396
282.614	25.850	1423.801	1128.653
283.628	25.413	1422.591	1124.859
284.643	25.529	1419.746	1123.235
285.657	25.572	1419.289	1123.047
286.672	25.436	1419.259	1122.074
287.687	25.477	1417.727	1121.016
288.701	25.244	1417.063	1118.940
289.716	25.569	1415.648	1119.746
290.730	25.486	1416.075	1119.469
291.745	25.506	1413.532	1117.487
292.760	25.424	1413.632	1116.956
293.774	25.683	1411.554	1116.822
294.789	25.474	1412.359	1116.059
295.803	25.519	1412.000	1115.957
296.818	25.591	1411.044	1115.549
297.833	25.726	1409.437	1115.018
298.847	25.415	1408.765	1112.463
299.862	25.641	1407.297	1112.606
300.876	25.556	1406.324	1111.209
301.891	25.423	1405.395	1109.554
302.906	25.345	1404.683	1108.417
303.920	25.592	1405.218	1110.267
304.935	25.664	1405.322	1110.694
305.949	26.011	1403.803	1111.534
306.964	25.928	1402.603	1109.972
307.979	25.796	1401.760	1108.393
308.993	25.706	1402.169	1108.067
310.008	25.690	1400.058	1106.200
311.022	25.874	1398.379	1105.906
312.037	25.643	1397.512	1103.708
313.052	25.799	1397.504	1104.560
314.066	25.606	1396.760	1102.689
315.081	25.465	1395.405	1100.657
316.095	25.386	1393.584	1098.644
317.110	25.144	1392.698	1096.366
318.125	25.372	1391.539	1096.751
319.139	25.214	1390.903	1095.185
320.154	25.151	1389.667	1093.734
321.168	25.454	1388.875	1094.859
322.183	25.717	1387.224	1095.060
323.197	25.304	1387.760	1092.874
324.212	25.443	1385.970	1092.215
325.227	25.469	1385.835	1092.166
326.241	25.308	1385.512	1090.841
327.256	25.667	1383.200	1091.095
328.270	25.520	1383.991	1090.734
329.285	25.184	1382.667	1087.558
330.300	25.505	1381.957	1088.845
331.314	25.336	1381.442	1087.325
332.329	25.432	1379.972	1086.650
333.343	25.536	1378.757	1086.222
334.358	25.625	1377.481	1085.660
335.373	25.505	1377.429	1084.799
336.387	25.650	1377.245	1085.436
337.402	25.895	1376.778	1086.444
338.416	25.987	1375.345	1085.772
339.431	25.939	1374.947	1085.074
340.446	25.817	1375.978	1085.058
341.460	26.094	1373.723	1084.847
342.475	26.145	1373.124	1084.588
343.489	26.144	1372.692	1084.142
344.504	26.359	1371.923	1084.729
345.519	26.290	1370.966	1083.462
346.533	26.447	1369.380	1083.054
347.548	26.358	1369.640	1082.631
348.562	26.140	1369.638	1081.228
349.577	26.201	1368.825	1080.858
350.592	26.007	1367.573	1078.612
351.606	25.881	1365.981	1076.507
352.621	25.751	1363.503	1073.685
353.635	25.706	1362.894	1072.843
354.650	25.559	1362.202	1071.324
355.665	25.740	1360.227	1070.754
356.679	25.581	1359.917	1069.471
357.694	25.823	1359.020	1070.109
358.708	25.762	1359.282	1069.860
359.723	25.862	1357.036	1068.588
360.738	25.855	1356.742	1068.218
361.752	26.206	1354.220	1068.216
362.767	25.876	1354.485	1066.378
363.781	25.878	1353.268	1065.336
364.796	25.754	1353.343	1064.570
365.810	26.043	1352.131	1065.230
366.825	26.064	1352.362	1065.441
367.840	26.480	1351.025	1066.748
368.854	26.333	1350.745	1065.563
369.869	26.516	1350.649	1066.471
370.883	26.387	1349.928	1065.051
371.898	26.340	1349.639	1064.450
372.913	26.361	1347.728	1062.972
373.927	26.085	1347.174	1060.818
374.942	26.087	1345.973	1059.794
375.956	26.309	1345.922	1060.961
376.971	26.407	1344.532	1060.343
377.986	26.387	1343.487	1059.309
379.000	26.101	1342.786	1056.990
380.015	26.419	1341.648	1057.860
381.029	26.564	1341.687	1058.645
382.044	26.583	1340.985	1058.109
383.059	26.514	1340.935	1057.570
384.073	26.576	1339.967	1057.078
385.088	26.449	1339.089	1055.553
386.102	26.404	1339.024	1055.143
387.117	26.297	1338.848	1054.285
388.132	26.639	1335.684	1053.691
389.146	26.229	1335.646	1051.186
390.161	26.101	1334.675	1049.580
391.175	26.140	1333.662	1048.917
392.190	25.977	1332.881	1047.267
393.205	25.925	1333.443	1047.315
394.219	26.174	1331.766	1047.348
395.234	26.514	1331.262	1048.826
396.248	26.382	1329.225	1046.369
397.263	26.098	1328.536	1044.090
398.278	25.897	1328.042	1042.444
399.292	26.019	1325.522	1041.078
400.307	26.229	1325.932	1042.521
401.321	26.236	1325.163	1041.868
402.336	26.382	1323.264	1041.121
403.350	25.926	1322.107	1037.494
404.365	25.780	1320.940	1035.647
405.380	25.836	1320.646	1035.650
406.394	26.189	1319.631	1036.787
407.409	26.192	1318.736	1036.012
408.423	26.366	1317.536	1035.971
409.438	26.674	1317.785	1037.840
410.453	26.641	1317.455	1037.303
411.467	26.468	1317.183	1036.002
412.482	26.696	1316.326	1036.544
413.496	26.410	1315.855	1034.447
414.511	26.528	1314.908	1034.286
415.526	26.732	1314.435	1034.982
416.540	26.333	1314.296	1032.505
417.555	26.754	1312.791	1033.631
418.569	26.541	1313.369	1032.779
419.584	26.500	1312.718	1031.941
420.599	26.676	1310.167	1030.848
421.613	142.967	1435.438	1793.439
422.628	138.653	1453.701	1793.547
