DTS Sentinel unit serial number:	SN413079Multiplexer serial number:	ORYXHardware model number:	OX4-SRSoftware version number:	ORYX F/W v4.00 Oryx Data Collector v3.7.2.0data status	okinstallation	princeton_trtdifferential loss correction	single-endedforward channel	channel 4reverse channel	N/Adate	2019/09/18time	11:57:35forward acquisition time	60.00reverse acquisition time	0.00gamma	496.2192k internal	0.2308k external	0.2308temperature offset calibration	0.9986default loss term (dB/km)	0.3790temperature slope calibration	1.0000multiplexer offset coefficient	1.0000multiplexer slope coefficient	1.0000fibre end	0.00T internal ref (°C)	31.47T ext. ref 1 (°C)	0.48T ext. ref 2 (°C)	27.64length (m)	temperature (°C)	Stokes	anti-Stokes-747.200	-200.000	0.008	-0.081
-746.185	205.358	-0.093	0.147
-745.171	-116.850	-0.192	-0.036
-744.156	-103.803	0.128	0.031
-743.142	-200.000	0.033	-0.438
-742.127	752.811	0.068	0.186
-741.112	187.361	-0.162	0.245
-740.098	25.410	-0.070	-0.060
-739.083	303.321	0.054	0.101
-738.069	-200.000	0.015	-0.112
-737.054	-112.134	-0.310	0.063
-736.039	-29.029	-0.338	-0.197
-735.025	-39.492	0.186	0.099
-734.010	-200.000	-0.018	0.137
-732.996	10.454	0.013	-0.010
-731.981	-200.000	0.034	-0.180
-730.966	46.714	0.285	-0.269
-729.952	800.000	-0.081	0.262
-728.937	24.357	0.184	0.155
-727.923	-57.648	-0.231	-0.103
-726.908	21.257	0.262	-0.216
-725.894	4.633	-0.135	-0.101
-724.879	-68.700	-0.393	-0.154
-723.864	-200.000	-0.008	0.256
-722.850	-200.000	-0.040	-0.217
-721.835	-106.159	0.138	0.032
-720.821	188.250	-0.078	-0.119
-719.806	-148.040	0.333	-0.028
-718.791	-9.417	0.061	-0.041
-717.777	-155.479	0.030	-0.002
-716.762	800.000	0.011	-0.033
-715.748	-26.257	-0.254	-0.151
-714.733	54.859	-0.106	0.104
-713.718	-19.267	-0.223	0.140
-712.704	113.691	0.087	-0.108
-711.689	800.000	-0.078	0.310
-710.675	-159.900	0.110	0.006
-709.660	480.182	-0.122	0.281
-708.645	444.352	0.193	0.429
-707.631	-165.954	0.350	-0.015
-706.616	248.415	0.088	-0.150
-705.602	21.316	0.165	-0.136
-704.587	428.165	-0.086	0.188
-703.572	94.016	-0.369	-0.425
-702.558	-200.000	-0.059	-0.291
-701.543	206.055	-0.165	0.260
-700.529	37.014	-0.194	-0.174
-699.514	112.152	-0.075	-0.092
-698.499	0.381	-0.082	-0.060
-697.485	-200.000	0.010	0.227
-696.470	34.175	-0.206	-0.182
-695.456	98.488	-0.196	-0.230
-694.441	-200.000	-0.017	-0.090
-693.426	24.768	0.064	0.054
-692.412	-200.000	0.020	-0.328
-691.397	-117.640	0.426	0.078
-690.383	-5.723	-0.193	0.134
-689.368	-64.478	0.373	-0.154
-688.354	39.109	-0.084	0.076
-687.339	800.000	-0.063	-0.199
-686.324	312.428	0.036	0.069
-685.310	-200.000	0.026	-0.287
-684.295	-200.000	0.007	-0.310
-683.281	-144.364	-0.323	-0.030
-682.266	-60.454	0.033	-0.014
-681.251	-161.675	-0.248	0.013
-680.237	678.643	0.105	-0.278
-679.222	-21.186	-0.302	-0.187
-678.208	-79.198	-0.369	-0.127
-677.193	-40.858	-0.253	-0.133
-676.178	130.082	-0.133	0.173
-675.164	39.624	-0.098	0.089
-674.149	167.831	0.098	0.142
-673.135	-131.511	-0.206	-0.028
-672.120	63.190	-0.243	0.247
-671.105	-200.000	-0.023	0.295
-670.091	-5.626	-0.182	0.126
-669.076	-67.358	0.151	0.060
-668.062	57.050	0.248	0.245
-667.047	800.000	-0.163	-0.460
-666.032	-92.609	0.157	-0.045
-665.018	-23.701	-0.114	0.069
-664.003	271.242	-0.122	0.217
-662.989	797.292	0.039	-0.109
-661.974	-195.321	-0.213	-0.002
-660.959	334.578	-0.119	-0.234
-659.945	119.654	-0.107	-0.135
-658.930	-136.983	-0.186	0.022
-657.916	-120.153	0.157	0.027
-656.901	101.542	-0.037	-0.044
-655.886	-200.000	-0.055	0.252
-654.872	-200.000	0.039	0.196
-653.857	201.282	0.202	0.315
-652.843	-22.041	0.571	0.351
-651.828	-118.657	-0.241	-0.043
-650.814	104.360	-0.097	-0.116
-649.799	-49.660	-0.280	-0.135
-648.784	145.513	-0.212	-0.288
-647.770	-199.967	-0.123	0.001
-646.755	38.464	0.308	-0.278
-645.741	-135.322	-0.412	-0.050
-644.726	711.274	-0.025	-0.067
-643.711	-89.449	0.353	-0.105
-642.697	46.218	0.096	0.090
-641.682	48.699	-0.218	-0.207
-640.668	-45.299	-0.202	-0.101
-639.653	190.381	0.154	-0.235
-638.638	172.055	0.105	-0.153
-637.624	-57.696	0.093	0.041
-636.609	-94.939	-0.173	-0.047
-635.595	-29.132	0.212	0.123
-634.580	484.018	-0.079	-0.182
-633.565	101.514	0.056	0.066
-632.551	-14.697	-0.077	-0.050
-631.536	135.040	-0.021	-0.028
-630.522	-134.940	-0.159	-0.019
-629.507	-1.464	-0.069	0.049
-628.492	800.000	0.059	0.169
-627.478	27.255	-0.239	-0.203
-626.463	800.000	0.062	0.179
-625.449	221.370	-0.067	0.109
-624.434	-98.952	0.047	0.012
-623.419	-82.744	0.128	0.042
-622.405	-200.000	-0.041	-0.293
-621.390	800.000	-0.096	-0.272
-620.376	325.005	0.034	0.065
-619.361	-194.329	-0.051	-0.000
-618.346	228.480	0.041	0.068
-617.332	800.000	-0.081	-0.318
-616.317	-164.974	0.282	0.013
-615.303	-200.000	-0.003	0.103
-614.288	129.146	-0.096	-0.124
-613.273	-75.735	-0.212	-0.076
-612.259	42.177	0.190	-0.174
-611.244	153.312	0.047	0.065
-610.230	-200.000	0.032	0.333
-609.215	91.672	-0.107	0.122
-608.201	317.929	0.031	0.060
-607.186	211.487	0.168	0.268
-606.171	278.069	0.124	-0.224
-605.157	-58.986	0.215	0.094
-604.142	-200.000	-0.026	0.210
-603.128	-23.337	-0.365	-0.222
-602.113	800.000	-0.025	-0.107
-601.098	168.218	0.072	0.104
-600.084	800.000	0.068	0.245
-599.069	59.595	-0.198	0.197
-598.055	396.571	0.122	0.257
-597.040	10.182	0.199	0.153
-596.025	800.000	-0.017	-0.074
-595.011	-89.285	0.146	-0.044
-593.996	-200.000	-0.024	0.109
-592.982	528.922	0.034	0.080
-591.967	-110.951	-0.062	0.013
-590.952	265.911	-0.028	-0.049
-589.938	800.000	-0.080	0.324
-588.923	54.375	0.165	0.161
-587.909	3.436	0.262	-0.193
-586.894	-200.000	-0.012	-0.104
-585.879	-51.343	-0.219	-0.104
-584.865	460.047	-0.148	0.332
-583.850	-200.000	-0.026	0.128
-582.836	-101.546	0.271	0.067
-581.821	-200.000	-0.030	0.169
-580.806	328.495	-0.096	0.186
-579.792	210.130	-0.134	-0.212
-578.777	-99.520	0.079	0.020
-577.763	800.000	0.025	0.101
-576.748	-86.350	-0.328	0.102
-575.733	79.029	-0.043	-0.046
-574.719	85.195	-0.090	-0.100
-573.704	792.326	0.102	0.284
-572.690	-49.968	-0.228	0.109
-571.675	41.643	-0.079	0.072
-570.661	800.000	0.076	-0.267
-569.646	268.768	0.075	-0.133
-568.631	194.918	-0.124	-0.191
-567.617	-200.000	-0.005	0.050
-566.602	-200.000	0.002	0.046
-565.588	-95.432	0.211	-0.057
-564.573	-200.000	-0.023	0.124
-563.558	98.261	0.369	-0.428
-562.544	299.436	-0.108	0.201
-561.529	-146.709	-0.369	-0.032
-560.515	-200.000	0.053	0.266
-559.500	-200.000	-0.037	0.323
-558.485	-19.790	0.100	0.062
-557.471	-200.000	-0.033	-0.153
-556.456	62.841	-0.129	-0.130
-555.442	-86.255	-0.311	-0.097
-554.427	-200.000	0.039	-0.204
-553.412	53.356	0.248	0.240
-552.398	-138.562	-0.338	-0.037
-551.383	-200.000	0.029	-0.161
-550.369	627.223	0.123	-0.313
-549.354	800.000	-0.028	0.112
-548.339	-128.824	-0.316	0.045
-547.325	800.000	-0.025	-0.084
-546.310	265.713	-0.083	0.147
-545.296	8.371	0.284	0.215
-544.281	46.551	-0.178	-0.166
-543.266	116.593	0.215	-0.265
-542.252	529.460	0.065	-0.156
-541.237	800.000	-0.081	-0.265
-540.223	-79.913	0.407	0.138
-539.208	-17.997	-0.261	-0.165
-538.193	-106.392	-0.381	-0.086
-537.179	800.000	0.098	0.277
-536.164	-94.322	0.282	0.078
-535.150	-200.000	-0.020	0.194
-534.135	585.402	-0.100	0.248
-533.121	218.437	0.129	-0.208
-532.106	800.000	-0.107	-0.316
-531.091	-12.431	0.076	-0.050
-530.077	-200.000	0.007	-0.055
-529.062	247.390	-0.199	-0.338
-528.048	197.268	0.119	-0.183
-527.033	800.000	-0.038	0.119
-526.018	-200.000	0.002	-0.127
-525.004	-27.404	0.295	-0.173
-523.989	269.986	-0.132	-0.234
-522.975	186.664	0.152	-0.228
-521.960	289.184	0.074	0.135
-520.945	388.996	-0.054	-0.112
-519.931	58.989	-0.159	-0.158
-518.916	41.114	-0.057	-0.052
-517.902	191.078	0.129	0.196
-516.887	-46.542	0.153	-0.075
-515.872	-11.175	-0.051	0.034
-514.858	664.179	0.037	0.096
-513.843	-9.485	-0.296	0.199
-512.829	496.341	-0.080	-0.184
-511.814	800.000	-0.048	-0.191
-510.799	-53.425	0.130	-0.060
-509.785	133.227	-0.097	0.127
-508.770	164.288	0.100	0.143
-507.756	21.080	-0.232	-0.189
-506.741	586.601	0.099	0.246
-505.726	124.470	0.033	0.042
-504.712	310.522	0.047	-0.089
-503.697	89.979	0.165	0.186
-502.683	-117.138	-0.187	-0.034
-501.668	36.629	0.162	-0.144
-500.653	-47.071	-0.075	0.037
-499.639	-111.835	-0.222	0.045
-498.624	-200.000	-0.034	-0.170
-497.610	-200.000	0.008	0.086
-496.595	-200.000	0.012	0.312
-495.581	-80.015	0.147	0.050
-494.566	-27.849	-0.020	-0.012
-493.551	-200.000	0.003	0.609
-492.537	227.259	-0.081	-0.132
-491.522	-38.875	-0.156	0.083
-490.508	35.071	0.086	-0.076
-489.493	202.069	-0.055	0.085
-488.478	-67.589	0.370	0.146
-487.464	-56.420	-0.113	0.050
-486.449	-128.939	0.552	0.078
-485.435	-69.685	-0.214	0.082
-484.420	158.227	-0.200	0.279
-483.405	370.892	-0.174	0.355
-482.391	800.000	0.005	0.017
-481.376	800.000	0.168	-0.488
-480.362	702.526	0.111	0.294
-479.347	-114.555	-0.283	0.055
-478.332	800.000	-0.078	-0.329
-477.318	256.551	-0.054	0.094
-476.303	39.689	0.128	0.115
-475.289	-88.871	-0.311	-0.093
-474.274	800.000	-0.069	-0.203
-473.259	-46.301	-0.251	-0.124
-472.245	-168.216	0.142	-0.006
-471.230	219.242	-0.068	-0.110
-470.216	800.000	-0.083	-0.277
-469.201	800.000	0.072	0.225
-468.186	-32.532	-0.273	-0.153
-467.172	60.530	0.212	0.211
-466.157	212.175	-0.155	-0.245
-465.143	-56.477	0.236	-0.105
-464.128	-130.903	0.233	-0.031
-463.113	-106.990	-0.076	0.017
-462.099	83.093	0.172	0.188
-461.084	80.963	0.147	0.159
-460.070	106.601	-0.222	0.265
-459.055	800.000	-0.095	0.317
-458.040	-112.793	0.231	-0.046
-457.026	-41.310	-0.182	-0.094
-456.011	17.104	0.043	-0.035
-454.997	-200.000	0.021	-0.145
-453.982	348.964	-0.103	-0.204
-452.968	-200.000	-0.011	-0.401
-451.953	-25.923	-0.223	-0.132
-450.938	-92.541	0.199	0.056
-449.924	204.209	-0.050	0.077
-448.909	-200.000	0.020	-0.336
-447.895	720.004	0.173	0.462
-446.880	-133.188	0.257	0.033
-445.865	76.882	0.093	0.099
-444.851	551.979	-0.092	-0.221
-443.836	412.236	-0.082	-0.176
-442.822	35.236	-0.064	0.056
-441.807	-71.996	-0.131	-0.049
-440.792	268.919	0.012	-0.021
-439.778	-128.337	-0.080	-0.011
-438.763	-38.009	0.191	0.102
-437.749	-4.340	-0.221	-0.153
-436.734	-56.908	0.165	0.073
-435.719	8.136	0.229	-0.172
-434.705	-177.214	0.100	-0.002
-433.690	-179.444	0.164	-0.004
-432.676	-200.000	-0.014	-0.114
-431.661	322.229	-0.057	-0.108
-430.646	-200.000	0.072	-0.356
-429.632	-200.000	-0.002	0.019
-428.617	-90.685	0.239	-0.069
-427.603	-154.704	0.328	-0.022
-426.588	10.095	0.343	0.262
-425.573	-46.134	-0.179	0.088
-424.559	-11.504	0.279	0.184
-423.544	-200.000	0.043	0.283
-422.530	48.426	0.200	0.188
-421.515	800.000	-0.015	0.056
-420.500	-93.725	-0.128	0.035
-419.486	274.493	-0.227	0.403
-418.471	-200.000	0.014	0.235
-417.457	206.832	-0.026	0.040
-416.442	5.431	0.099	0.073
-415.428	241.360	0.133	-0.222
-414.413	354.352	-0.056	-0.112
-413.398	-200.000	0.028	0.230
-412.384	-200.000	-0.029	-0.197
-411.369	-200.000	0.032	-0.283
-410.355	166.681	0.271	-0.385
-409.340	114.998	0.195	0.239
-408.325	-5.135	-0.132	-0.091
-407.311	37.390	0.125	-0.111
-406.296	351.262	0.019	-0.038
-405.282	-51.041	-0.128	0.060
-404.267	-94.302	0.146	-0.040
-403.252	-48.889	-0.306	-0.147
-402.238	800.000	0.037	-0.163
-401.223	800.000	-0.035	-0.126
-400.209	3.828	0.171	-0.125
-399.194	364.650	-0.029	0.058
-398.179	-4.504	0.202	-0.140
-397.165	127.693	0.127	-0.162
-396.150	29.169	0.324	-0.276
-395.136	-35.919	-0.170	0.092
-394.121	57.705	-0.026	0.026
-393.106	-50.845	-0.199	0.094
-392.092	53.998	0.193	0.186
-391.077	-19.318	-0.043	-0.027
-390.063	-200.000	-0.016	-0.171
-389.048	190.362	-0.154	-0.232
-388.033	-200.000	0.005	-0.097
-387.019	800.000	0.052	0.199
-386.004	-96.459	0.037	-0.010
-384.990	-112.546	0.166	0.033
-383.975	625.727	0.073	0.184
-382.960	-89.454	-0.095	0.028
-381.946	800.000	0.059	-0.213
-380.931	-200.000	0.040	-0.301
-379.917	44.615	-0.101	-0.093
-378.902	-20.957	0.163	-0.100
-377.888	170.823	0.038	0.054
-376.873	25.719	-0.188	-0.157
-375.858	350.018	-0.178	-0.353
-374.844	660.786	0.051	0.131
-373.829	-88.319	-0.310	0.093
-372.815	-54.966	-0.235	0.106
-371.800	-56.360	-0.144	0.064
-370.785	-200.000	0.059	0.395
-369.771	425.633	0.233	0.504
-368.756	240.969	0.046	-0.077
-367.742	319.233	-0.267	-0.508
-366.727	-153.602	-0.134	0.009
-365.712	269.568	0.103	-0.181
-364.698	57.011	0.152	-0.149
-363.683	800.000	-0.010	0.033
-362.669	-12.981	0.113	-0.073
-361.654	-200.000	-0.025	-0.216
-360.639	-30.878	0.161	-0.091
-359.625	-200.000	-0.002	-0.019
-358.610	-78.420	-0.208	-0.071
-357.596	-200.000	-0.111	-0.506
-356.581	-139.673	0.312	-0.033
-355.566	-99.774	0.053	-0.013
-354.552	231.127	0.077	-0.126
-353.537	290.908	-0.149	0.271
-352.523	231.469	0.039	-0.063
-351.508	-135.620	0.305	0.036
-350.493	-29.771	-0.174	0.099
-349.479	92.529	0.034	0.039
-348.464	-25.888	0.214	0.126
-347.450	80.312	-0.043	0.047
-346.435	166.462	0.052	0.074
-345.420	-148.951	-0.082	-0.007
-344.406	-200.000	-0.009	-0.168
-343.391	-85.127	0.266	-0.083
-342.377	-200.000	0.023	-0.101
-341.362	716.014	-0.055	-0.145
-340.348	-164.974	-0.400	-0.018
-339.333	-26.691	-0.084	-0.049
-338.318	232.746	0.046	-0.076
-337.304	110.945	-0.093	0.113
-336.289	407.010	-0.088	-0.187
-335.275	18.230	-0.028	0.022
-334.260	-10.591	-0.143	0.095
-333.245	442.814	0.101	-0.221
-332.231	-120.167	0.373	-0.064
-331.216	-200.000	-0.019	0.230
-330.202	35.139	-0.351	-0.307
-329.187	-88.542	-0.357	-0.107
-328.172	49.821	0.172	-0.162
-327.158	-69.589	0.207	-0.079
-326.143	18.904	-0.162	0.130
-325.129	-98.201	0.199	-0.051
-324.114	-200.000	-0.001	0.044
-323.099	-72.524	0.212	-0.078
-322.085	-104.757	-0.281	0.065
-321.070	800.000	0.092	0.385
-320.056	179.190	0.129	0.189
-319.041	800.000	0.081	0.256
-318.026	-142.627	0.055	-0.005
-317.012	-41.798	-0.297	-0.152
-315.997	-200.000	0.055	-0.252
-314.983	75.156	-0.095	-0.100
-313.968	439.231	-0.115	0.250
-312.953	-200.000	0.008	0.240
-311.939	800.000	-0.050	0.213
-310.924	515.285	0.069	0.161
-309.910	-20.859	-0.285	0.175
-308.895	-85.101	-0.422	0.132
-307.880	-200.000	-0.005	0.183
-306.866	-200.000	0.001	-0.194
-305.851	-55.718	-0.150	-0.067
-304.837	-75.866	-0.228	-0.081
-303.822	-121.197	-0.363	-0.061
-302.807	-176.778	0.151	-0.004
-301.793	-20.878	0.224	-0.137
-300.778	412.521	-0.102	-0.218
-299.764	-200.000	-0.035	0.182
-298.749	213.717	-0.107	-0.170
-297.735	171.554	0.152	0.218
-296.720	544.814	0.062	-0.149
-295.705	307.006	0.105	-0.195
-294.691	454.212	-0.188	0.417
-293.676	34.363	0.131	0.114
-292.662	160.000	-0.081	-0.112
-291.647	333.902	0.103	0.199
-290.632	287.275	-0.133	-0.241
-289.618	25.593	-0.177	-0.147
-288.603	800.000	-0.116	0.383
-287.589	49.924	0.118	-0.111
-286.574	75.299	0.179	0.188
-285.559	299.733	-0.080	0.147
-284.545	-101.009	-0.152	0.037
-283.530	705.801	0.079	0.209
-282.516	800.000	0.003	0.012
-281.501	-33.292	-0.351	-0.194
-280.486	-63.154	-0.228	-0.094
-279.472	800.000	-0.082	-0.239
-278.457	4.102	-0.027	0.019
-277.443	-119.840	-0.318	-0.055
-276.428	-172.827	0.228	-0.007
-275.413	800.000	0.036	0.102
-274.399	601.432	0.055	0.136
-273.384	-137.926	-0.280	-0.031
-272.370	202.602	0.206	-0.317
-271.355	-200.000	0.013	-0.102
-270.340	62.139	-0.116	-0.115
-269.326	-200.000	0.068	0.304
-268.311	800.000	0.036	-0.143
-267.297	60.049	-0.237	-0.234
-266.282	3.843	-0.232	-0.169
-265.267	-200.000	-0.056	0.259
-264.253	113.871	-0.191	-0.231
-263.238	-76.029	0.163	-0.057
-262.224	163.727	0.176	0.247
-261.209	-91.621	-0.313	-0.089
-260.195	-32.620	0.013	0.007
-259.180	628.432	-0.040	0.102
-258.165	-200.000	0.017	-0.114
-257.151	-147.299	-0.146	-0.012
-256.136	-37.796	-0.182	-0.097
-255.122	-200.000	-0.028	0.378
-254.107	-146.283	0.180	-0.016
-253.092	48.765	0.277	0.259
-252.078	-200.000	0.007	0.233
-251.063	-118.157	0.320	0.057
-250.049	-132.563	0.354	-0.045
-249.034	-200.000	-0.006	-0.216
-248.019	155.744	0.147	-0.202
-247.005	800.000	-0.023	-0.082
-245.990	100.919	-0.030	0.035
-244.976	-138.989	0.239	-0.026
-243.961	231.953	0.103	0.169
-242.946	-93.179	0.407	0.113
-241.932	-101.851	-0.107	0.026
-240.917	-72.608	-0.247	0.091
-239.903	140.701	-0.012	-0.016
-238.888	1.950	-0.177	0.127
-237.873	19.465	0.340	0.272
-236.859	-102.557	0.132	-0.032
-235.844	-45.859	0.110	0.054
-234.830	15.724	0.152	-0.119
-233.815	-200.000	0.022	-0.180
-232.800	102.004	0.125	-0.146
-231.786	-200.000	-0.033	0.225
-230.771	7.979	-0.315	-0.235
-229.757	29.335	0.273	0.231
-228.742	36.012	-0.148	-0.129
-227.727	-35.972	0.223	0.120
-226.713	-185.968	-0.198	0.003
-225.698	-55.462	-0.156	0.070
-224.684	2.489	-0.187	-0.135
-223.669	-200.000	-0.041	-0.213
-222.655	252.505	0.156	0.264
-221.640	-200.000	-0.056	-0.247
-220.625	-144.625	0.159	0.015
-219.611	-200.000	-0.033	-0.237
-218.596	-105.824	0.267	0.060
-217.582	90.374	0.214	0.239
-216.567	-200.000	-0.007	-0.274
-215.552	-90.267	0.531	-0.154
-214.538	800.000	0.024	0.068
-213.523	-76.860	-0.243	-0.085
-212.509	-200.000	0.035	0.367
-211.494	61.035	0.118	-0.116
-210.479	43.154	0.195	-0.177
-209.465	102.780	0.066	0.077
-208.450	-113.407	-0.076	-0.015
-207.436	110.422	-0.012	-0.015
-206.421	26.171	0.141	0.117
-205.406	-200.000	0.093	0.446
-204.392	-76.256	-0.153	0.054
-203.377	-139.801	-0.296	0.031
-202.363	49.084	-0.170	-0.159
-201.348	15.171	-0.179	0.140
-200.333	-125.574	-0.291	-0.044
-199.319	725.012	-0.018	0.048
-198.304	64.753	-0.419	0.421
-197.290	263.308	-0.056	0.097
-196.275	800.000	-0.110	0.402
-195.260	-110.806	0.173	0.035
-194.246	-47.425	0.169	-0.082
-193.231	-39.116	0.171	0.090
-192.217	44.682	0.185	0.169
-191.202	146.918	-0.160	0.214
-190.187	135.482	-0.152	-0.196
-189.173	758.675	-0.066	0.179
-188.158	800.000	0.057	0.184
-187.144	48.253	0.101	0.094
-186.129	13.498	0.258	-0.199
-185.114	800.000	0.056	-0.239
-184.100	-132.256	-0.145	0.019
-183.085	-200.000	-0.028	-0.165
-182.071	62.513	-0.304	-0.302
-181.056	-42.815	0.341	0.172
-180.042	31.916	0.168	0.144
-179.027	-53.131	-0.070	-0.032
-178.012	-43.432	0.110	0.055
-176.998	-75.332	0.246	-0.087
-175.983	182.065	0.075	-0.109
-174.969	-200.000	-0.079	0.440
-173.954	-158.834	-0.310	0.018
-172.939	800.000	0.053	-0.214
-171.925	41.549	-0.213	-0.191
-170.910	309.637	0.125	0.233
-169.896	-21.682	0.150	0.091
-168.881	-200.000	0.013	-0.188
-167.866	-200.000	-0.024	0.108
-166.852	-200.000	0.003	0.260
-165.837	33.066	-0.228	0.196
-164.823	-76.758	-0.284	-0.099
-163.808	784.246	0.055	0.150
-162.793	-200.000	0.014	0.380
-161.779	129.764	0.099	-0.125
-160.764	87.465	-0.125	0.137
-159.750	8.235	0.081	-0.060
-158.735	-200.000	0.003	-0.038
-157.720	-163.418	0.253	0.012
-156.706	166.156	0.113	-0.159
-155.691	160.031	0.124	0.171
-154.677	800.000	0.079	0.249
-153.662	-12.496	0.016	0.010
-152.647	-155.079	-0.132	-0.009
-151.633	36.714	0.179	0.157
-150.618	-89.266	0.094	0.027
-149.604	511.781	0.099	0.230
-148.589	83.721	0.101	-0.109
-147.574	-200.000	-0.000	0.039
-146.560	800.000	-0.134	-0.422
-145.545	-160.456	-0.104	-0.006
-144.531	-146.798	0.150	-0.013
-143.516	46.339	0.304	-0.280
-142.502	-200.000	0.017	0.104
-141.487	-155.676	-0.055	0.004
-140.472	-0.531	0.211	-0.149
-139.458	467.416	-0.075	0.168
-138.443	-200.000	0.046	0.237
-137.429	-10.174	0.210	-0.139
-136.414	191.082	-0.213	0.319
-135.399	-105.334	0.134	0.030
-134.385	-200.000	-0.010	-0.292
-133.370	-179.047	0.104	0.002
-132.356	-200.000	-0.005	0.309
-131.341	180.835	0.044	0.065
-130.326	-17.783	0.160	-0.100
-129.312	-99.601	0.281	-0.070
-128.297	448.587	-0.081	-0.177
-127.283	800.000	-0.064	0.208
-126.268	-109.660	-0.068	-0.014
-125.253	-200.000	-0.008	0.081
-124.239	-183.532	0.155	-0.003
-123.224	800.000	0.077	-0.306
-122.210	328.228	0.039	-0.074
-121.195	-153.041	-0.103	-0.007
-120.180	-3.770	0.147	0.102
-119.166	303.976	0.082	0.151
-118.151	115.244	0.131	0.158
-117.137	800.000	0.110	-0.450
-116.122	2.290	0.213	0.152
-115.107	54.002	0.196	-0.187
-114.093	-123.473	0.241	-0.038
-113.078	800.000	-0.141	0.554
-112.064	46.008	-0.111	0.102
-111.049	-104.974	0.255	-0.058
-110.034	-157.217	-0.083	-0.005
-109.020	800.000	-0.072	-0.291
-108.005	16.374	0.173	0.135
-106.991	-200.000	0.042	0.418
-105.976	800.000	-0.049	0.151
-104.962	-89.063	0.244	-0.071
-103.947	-28.101	-0.054	0.031
-102.932	800.000	-0.032	-0.109
-101.918	-98.925	0.231	0.058
-100.903	117.167	-0.123	-0.150
-99.889	-39.866	-0.136	-0.070
-98.874	800.000	-0.102	0.404
-97.859	-37.643	-0.162	-0.085
-96.845	-121.147	0.253	-0.042
-95.830	164.578	0.191	0.267
-94.816	-78.937	0.240	-0.081
-93.801	-200.000	0.046	-0.254
-92.786	72.412	0.166	-0.171
-91.772	-84.924	0.315	-0.098
-90.757	-200.000	0.040	0.196
-89.743	22.712	0.278	0.226
-88.728	499.655	-0.086	-0.197
-87.713	346.359	-0.090	-0.176
-86.699	231.509	-0.051	-0.082
-85.684	63.540	-0.161	0.160
-84.670	-49.354	0.198	-0.094
-83.655	179.937	0.209	-0.303
-82.640	727.160	-0.052	-0.137
-81.626	-75.903	0.166	-0.058
-80.611	-99.821	0.124	0.031
-79.597	-119.557	-0.017	0.003
-78.582	-200.000	0.049	-0.267
-77.567	800.000	0.065	-0.207
-76.553	800.000	-0.035	-0.140
-75.538	-157.258	0.269	-0.016
-74.524	-126.330	0.324	0.048
-73.509	-160.305	0.020	0.001
-72.494	140.696	0.082	-0.107
-71.480	4.019	0.162	-0.117
-70.465	-200.000	-0.015	0.125
-69.451	-200.000	-0.054	0.364
-68.436	-71.470	0.151	-0.056
-67.422	364.625	0.083	0.166
-66.407	-65.108	0.245	-0.098
-65.392	-52.832	0.315	-0.144
-64.378	175.467	-0.202	0.290
-63.363	51.243	0.257	0.241
-62.349	22.993	-0.165	0.134
-61.334	89.760	-0.902	-0.996
-60.319	-74.575	0.608	0.217
-59.305	471.844	-0.378	-0.842
-58.290	78.036	0.928	0.980
-57.276	800.000	0.477	1.324
-56.261	-200.000	95.170	566.786
-55.246	499.603	1407.387	3209.904
-54.232	150.363	2614.238	3511.030
-53.217	99.831	2358.189	2702.164
-52.203	37.933	2116.756	1861.308
-51.188	33.122	2029.809	1740.619
-50.173	31.630	2010.742	1710.580
-49.159	46.379	2060.444	1889.591
-48.144	47.424	2078.058	1915.343
-47.130	33.752	2041.211	1755.948
-46.115	31.537	2030.258	1726.050
-45.100	31.458	2026.797	1722.311
-44.086	31.418	2024.603	1720.015
-43.071	31.288	2022.057	1716.583
-42.057	31.230	2020.277	1714.473
-41.042	31.338	2017.775	1713.277
-40.027	31.349	2015.888	1711.703
-39.013	31.435	2013.730	1710.594
-37.998	31.434	2012.034	1709.076
-36.984	31.359	2010.655	1707.153
-35.969	31.368	2008.547	1705.377
-34.954	31.448	2006.438	1704.241
-33.940	31.428	2005.012	1702.779
-32.925	31.523	2003.379	1702.193
-31.911	31.504	2001.358	1700.241
-30.896	31.580	2000.033	1699.734
-29.881	31.456	1998.770	1697.466
-28.867	31.562	1996.699	1696.606
-27.852	31.568	1994.833	1695.002
-26.838	31.527	1992.964	1692.979
-25.823	31.536	1991.140	1691.438
-24.809	31.453	1989.092	1688.885
-23.794	31.500	1987.734	1688.089
-22.779	31.411	1985.954	1685.706
-21.765	31.372	1984.459	1684.019
-20.750	31.333	1982.845	1682.229
-19.736	31.479	1980.897	1681.830
-18.721	31.524	1979.256	1680.768
-17.706	31.482	1977.569	1678.893
-16.692	31.495	1975.785	1677.427
-15.677	31.456	1974.609	1676.012
-14.663	31.450	1973.328	1674.805
-13.648	31.561	1971.238	1673.965
-12.633	31.503	1970.364	1672.635
-11.619	31.448	1968.860	1670.803
-10.604	31.460	1967.677	1669.838
-9.590	31.536	1966.024	1669.042
-8.575	31.486	1964.515	1667.251
-7.560	31.470	1963.428	1666.120
-6.546	31.518	1962.273	1665.504
-5.531	31.514	1960.868	1664.206
-4.517	31.474	1959.878	1662.945
-3.502	31.537	1958.227	1662.040
-2.487	31.554	1956.894	1660.989
-1.473	31.487	1956.357	1659.873
-0.458	31.510	1951.951	1656.279
0.556	30.055	1931.935	1631.300
1.571	25.885	1913.318	1578.983
2.586	21.899	1935.899	1562.062
3.600	20.572	1972.139	1579.119
4.615	19.842	1966.193	1567.614
5.629	15.289	1862.583	1445.701
6.644	6.150	1739.803	1276.371
7.659	0.975	1700.443	1206.246
8.673	0.548	1696.956	1200.266
9.688	0.585	1695.033	1199.092
10.702	0.416	1694.196	1197.057
11.717	0.381	1690.821	1194.292
12.731	0.878	1689.890	1197.459
13.746	7.158	1704.516	1257.721
14.761	15.016	1719.968	1331.773
15.775	17.314	1722.398	1351.822
16.790	16.931	1720.589	1347.243
17.804	16.070	1717.309	1337.725
18.819	15.045	1714.366	1327.193
19.834	14.478	1711.673	1320.504
20.848	14.225	1709.731	1316.882
21.863	13.893	1708.383	1313.101
22.877	13.657	1706.719	1309.844
23.892	13.393	1705.330	1306.580
24.907	13.342	1704.010	1305.049
25.921	13.304	1702.660	1303.598
26.936	13.314	1701.982	1303.043
27.950	13.380	1701.085	1302.764
28.965	13.354	1700.595	1302.069
29.980	13.377	1699.774	1301.508
30.994	13.455	1698.563	1301.071
32.009	13.565	1697.453	1300.976
33.023	13.519	1696.572	1299.819
34.038	13.542	1696.007	1299.456
35.053	13.575	1694.319	1298.301
36.067	13.508	1693.353	1296.923
37.082	13.518	1692.407	1296.164
38.096	13.427	1691.939	1294.980
39.111	13.476	1691.045	1294.560
40.126	13.498	1690.123	1293.912
41.140	13.495	1688.864	1292.811
42.155	13.421	1687.675	1291.211
43.169	13.360	1686.082	1289.402
44.184	13.365	1685.053	1288.544
45.199	13.248	1684.141	1286.815
46.213	13.341	1682.677	1286.309
47.228	13.284	1681.540	1284.885
48.242	13.382	1680.414	1284.672
49.257	13.394	1679.283	1283.786
50.271	13.389	1677.840	1282.533
51.286	13.335	1676.849	1281.239
52.301	13.376	1675.400	1280.334
53.315	13.453	1673.312	1279.221
54.330	13.384	1672.431	1277.902
55.344	13.308	1670.456	1275.693
56.359	13.363	1668.691	1274.662
57.374	13.401	1667.811	1274.165
58.388	13.401	1666.472	1273.032
59.403	13.281	1665.254	1271.067
60.417	13.286	1663.524	1269.668
61.432	13.192	1662.759	1268.256
62.447	13.287	1661.487	1267.900
63.461	13.205	1660.567	1266.456
64.476	13.249	1658.894	1265.408
65.490	13.194	1657.829	1264.057
66.505	13.220	1656.602	1263.211
67.520	13.215	1655.579	1262.283
68.534	13.224	1654.739	1261.599
69.549	13.266	1653.459	1260.828
70.563	13.259	1652.222	1259.726
71.578	13.247	1650.720	1258.373
72.593	13.263	1649.927	1257.777
73.607	13.176	1648.877	1256.205
74.622	13.146	1647.832	1255.071
75.636	13.161	1647.102	1254.522
76.651	13.175	1645.882	1253.581
77.666	13.155	1644.880	1252.560
78.680	13.100	1643.948	1251.320
79.695	13.282	1642.335	1251.358
80.709	13.135	1641.800	1249.728
81.724	13.238	1640.677	1249.546
82.739	13.317	1640.004	1249.514
83.753	13.207	1639.248	1248.003
84.768	13.302	1637.887	1247.567
85.782	13.376	1637.484	1247.712
86.797	13.433	1635.893	1246.817
87.812	13.447	1635.292	1246.353
88.826	13.473	1633.353	1244.962
89.841	13.397	1632.433	1243.581
90.855	13.261	1631.890	1242.033
91.870	13.361	1630.620	1241.711
92.884	13.374	1629.425	1240.784
93.899	13.417	1628.359	1240.189
94.914	13.413	1627.157	1239.133
95.928	13.370	1625.985	1237.811
96.943	13.523	1624.260	1237.528
97.957	13.568	1622.513	1236.422
98.972	13.464	1621.445	1234.721
99.987	13.425	1619.757	1233.043
101.001	13.478	1618.137	1232.092
102.016	13.343	1617.048	1230.149
103.030	13.434	1615.754	1229.730
104.045	13.462	1614.284	1228.712
105.060	13.466	1612.676	1227.412
106.074	13.308	1611.499	1225.234
107.089	13.356	1609.533	1223.985
108.103	13.234	1608.333	1222.062
109.118	13.359	1606.317	1221.348
110.133	13.254	1605.217	1219.630
111.147	13.163	1603.885	1217.839
112.162	13.351	1602.325	1217.928
113.176	13.342	1601.257	1216.943
114.191	13.378	1599.588	1215.830
115.206	13.280	1598.376	1214.084
116.220	13.380	1596.936	1213.614
117.235	13.361	1595.524	1212.296
118.249	13.345	1594.375	1211.201
119.264	13.366	1593.144	1210.309
120.279	13.340	1591.422	1208.704
121.293	13.264	1589.952	1206.928
122.308	13.296	1588.414	1205.887
123.322	13.307	1587.399	1205.086
124.337	13.280	1585.905	1203.650
125.352	13.336	1584.269	1202.712
126.366	13.353	1582.749	1201.573
127.381	13.312	1581.845	1200.481
128.395	13.321	1580.586	1199.489
129.410	13.254	1579.348	1197.958
130.424	13.278	1577.910	1196.934
131.439	13.369	1576.102	1196.112
132.454	13.372	1575.094	1195.266
133.468	13.429	1573.405	1194.291
134.483	13.394	1571.919	1192.802
135.497	13.431	1570.308	1191.738
136.512	13.345	1569.475	1190.382
137.527	13.333	1568.268	1189.278
138.541	13.377	1566.705	1188.304
139.556	13.462	1565.144	1187.621
140.570	13.471	1563.777	1186.549
141.585	13.488	1562.542	1185.625
142.600	13.393	1561.537	1184.079
143.614	13.478	1560.074	1183.475
144.629	13.657	1558.562	1183.497
145.643	13.606	1557.352	1182.111
146.658	13.737	1556.000	1181.914
147.673	13.618	1554.282	1179.657
148.687	13.520	1553.376	1178.169
149.702	13.469	1551.533	1176.302
150.716	13.522	1549.593	1175.107
151.731	13.461	1548.379	1173.646
152.746	13.565	1546.617	1172.942
153.760	13.566	1544.952	1171.589
154.775	13.502	1543.768	1170.129
155.789	13.608	1543.148	1170.307
156.804	13.602	1541.818	1169.153
157.819	13.637	1540.044	1167.952
158.833	13.624	1539.201	1167.116
159.848	13.715	1538.271	1166.945
160.862	13.756	1537.356	1166.440
161.877	13.714	1535.693	1164.782
162.892	13.760	1534.671	1164.220
163.906	13.697	1533.598	1162.866
164.921	13.598	1532.216	1161.019
165.935	13.675	1531.092	1160.605
166.950	13.670	1530.413	1159.954
167.964	13.564	1529.177	1158.170
168.979	13.724	1527.905	1158.222
169.994	13.744	1526.804	1157.423
171.008	13.635	1525.917	1155.892
172.023	13.664	1525.261	1155.495
173.037	13.773	1523.316	1154.679
174.052	13.736	1522.515	1153.710
175.067	13.814	1521.413	1153.318
176.081	13.832	1519.866	1152.165
177.096	13.731	1518.732	1150.506
178.110	13.746	1517.408	1149.504
179.125	13.761	1515.953	1148.401
180.140	13.820	1515.070	1148.038
181.154	13.763	1514.265	1146.932
182.169	13.857	1513.036	1146.554
183.183	13.802	1511.592	1144.977
184.198	13.855	1510.604	1144.492
185.213	13.867	1509.537	1143.664
186.227	13.959	1508.158	1143.152
187.242	13.967	1507.247	1142.412
188.256	14.031	1506.042	1141.843
189.271	14.043	1505.304	1141.261
190.286	14.030	1503.886	1139.999
191.300	13.997	1502.819	1138.858
192.315	13.943	1501.523	1137.412
193.329	13.854	1500.502	1135.924
194.344	13.825	1499.105	1134.567
195.359	13.842	1498.208	1133.909
196.373	13.969	1496.758	1133.573
197.388	13.995	1496.032	1133.101
198.402	14.027	1494.833	1132.315
199.417	14.187	1493.530	1132.316
200.432	14.067	1492.985	1130.982
201.446	14.095	1491.841	1130.209
202.461	14.152	1490.412	1129.414
203.475	14.240	1489.157	1128.960
204.490	14.203	1488.510	1128.119
205.504	14.239	1487.560	1127.538
206.519	14.218	1486.474	1126.478
207.534	14.176	1484.832	1124.847
208.548	14.094	1484.416	1123.881
209.563	14.091	1483.246	1122.872
210.577	14.162	1482.151	1122.422
211.592	14.239	1481.192	1122.120
212.607	14.292	1480.229	1121.649
213.621	14.313	1479.496	1121.133
214.636	14.401	1477.990	1120.485
215.650	14.263	1477.579	1119.145
216.665	14.288	1476.857	1118.670
217.680	14.328	1475.644	1117.916
218.694	14.406	1474.498	1117.478
219.709	14.343	1474.076	1116.634
220.723	14.362	1473.199	1115.997
221.738	14.326	1472.022	1114.765
222.753	14.445	1470.993	1114.682
223.767	14.383	1470.323	1113.660
224.782	14.449	1468.954	1112.969
225.796	14.398	1467.860	1111.699
226.811	14.496	1467.065	1111.657
227.826	14.472	1466.802	1111.194
228.840	14.519	1465.900	1110.728
229.855	14.544	1464.421	1109.678
230.869	14.498	1463.813	1108.813
231.884	14.602	1462.293	1108.253
232.899	14.475	1461.500	1106.713
233.913	14.477	1460.402	1105.791
234.928	14.473	1459.188	1104.748
235.942	14.444	1457.902	1103.489
236.957	14.449	1456.409	1102.294
237.972	14.442	1455.224	1101.255
238.986	14.516	1454.148	1100.829
240.001	14.496	1453.496	1100.105
241.015	14.476	1452.504	1099.123
242.030	14.514	1451.255	1098.330
243.045	14.649	1450.059	1098.222
244.059	14.674	1449.227	1097.654
245.074	14.589	1448.960	1096.798
246.088	14.722	1447.567	1096.522
247.103	14.660	1446.949	1095.548
248.117	14.821	1445.941	1095.746
249.132	14.814	1445.125	1094.980
250.147	14.719	1444.891	1094.088
251.161	14.803	1443.844	1093.745
252.176	14.862	1443.548	1093.809
253.190	14.895	1442.628	1093.236
254.205	14.985	1441.429	1092.818
255.220	15.002	1440.356	1092.014
256.234	14.971	1439.614	1091.154
257.249	15.038	1438.937	1090.981
258.263	15.090	1438.270	1090.721
259.278	15.037	1436.841	1089.195
260.293	14.960	1436.080	1088.017
261.307	15.019	1435.407	1087.795
262.322	15.059	1434.950	1087.617
263.336	15.102	1434.209	1087.238
264.351	15.201	1432.977	1086.849
265.366	15.190	1431.674	1085.693
266.380	15.080	1431.105	1084.453
267.395	15.199	1429.835	1084.164
268.409	15.152	1429.387	1083.424
269.424	15.223	1427.675	1082.487
270.439	15.220	1426.819	1081.724
271.453	15.195	1425.792	1080.689
272.468	15.186	1425.553	1080.351
273.482	15.312	1424.566	1080.325
274.497	15.267	1423.455	1079.097
275.512	15.203	1422.656	1077.982
276.526	15.232	1421.816	1077.439
277.541	15.252	1420.729	1076.649
278.555	15.221	1419.923	1075.743
279.570	15.255	1419.109	1075.247
280.585	15.304	1417.920	1074.562
281.599	15.341	1417.217	1074.174
282.614	15.392	1416.249	1073.669
283.628	15.381	1415.473	1072.920
284.643	15.480	1413.786	1072.179
285.657	15.342	1412.895	1070.528
286.672	15.378	1412.284	1070.196
287.687	15.424	1411.063	1069.472
288.701	15.388	1409.676	1068.094
289.716	15.460	1408.680	1067.705
290.730	15.476	1408.250	1067.385
291.745	15.462	1407.061	1066.303
292.760	15.484	1406.068	1065.595
293.774	15.574	1404.894	1065.179
294.789	15.546	1403.868	1064.131
295.803	15.541	1403.490	1063.721
296.818	15.461	1402.812	1062.607
297.833	15.542	1401.771	1062.237
298.847	15.529	1400.790	1061.315
299.862	15.632	1399.300	1060.743
300.876	15.651	1398.698	1060.311
301.891	15.587	1397.979	1059.271
302.906	15.676	1396.768	1058.818
303.920	15.755	1396.117	1058.726
304.935	15.787	1395.167	1058.116
305.949	15.757	1394.540	1057.358
306.964	15.739	1393.961	1056.712
307.979	15.799	1393.112	1056.355
308.993	15.814	1391.886	1055.421
310.008	15.778	1390.996	1054.426
311.022	15.787	1389.893	1053.553
312.037	15.797	1388.988	1052.840
313.052	15.910	1388.252	1052.894
314.066	15.904	1387.276	1052.025
315.081	15.850	1386.218	1050.793
316.095	15.891	1384.788	1049.868
317.110	15.793	1383.938	1048.522
318.125	15.856	1382.981	1048.098
319.139	15.864	1382.024	1047.327
320.154	15.813	1380.690	1045.910
321.168	15.768	1379.976	1044.997
322.183	15.917	1379.005	1045.092
323.197	15.821	1378.555	1044.066
324.212	15.912	1377.622	1043.827
325.227	15.932	1376.570	1043.061
326.241	16.010	1375.325	1042.509
327.256	15.946	1374.759	1041.590
328.270	16.031	1373.723	1041.242
329.285	16.005	1372.634	1040.160
330.300	16.042	1371.658	1039.557
331.314	15.993	1371.226	1038.836
332.329	15.929	1370.188	1037.564
333.343	15.956	1369.423	1037.063
334.358	16.064	1368.079	1036.616
335.373	16.077	1367.408	1036.095
336.387	16.040	1366.965	1035.439
337.402	16.065	1365.823	1034.636
338.416	16.089	1365.392	1034.363
339.431	16.180	1364.550	1034.195
340.446	16.209	1364.034	1033.888
341.460	16.190	1362.698	1032.669
342.475	16.188	1361.945	1031.993
343.489	16.170	1361.184	1031.214
344.504	16.202	1360.241	1030.604
345.519	16.274	1359.478	1030.377
346.533	16.274	1358.465	1029.518
347.548	16.411	1357.272	1029.356
348.562	16.438	1356.095	1028.539
349.577	16.470	1355.547	1028.229
350.592	16.351	1354.941	1026.952
351.606	16.277	1354.474	1026.057
352.621	16.354	1353.044	1025.353
353.635	16.373	1351.483	1024.192
354.650	16.318	1350.974	1023.381
355.665	16.320	1350.108	1022.647
356.679	16.426	1348.628	1022.080
357.694	16.377	1347.950	1021.179
358.708	16.370	1346.721	1020.110
359.723	16.464	1345.637	1019.767
360.738	16.594	1344.388	1019.518
361.752	16.589	1343.227	1018.515
362.767	16.563	1342.361	1017.610
363.781	16.473	1341.916	1016.645
364.796	16.469	1340.947	1015.793
365.810	16.527	1340.369	1015.615
366.825	16.508	1339.874	1015.039
367.840	16.617	1338.603	1014.637
368.854	16.672	1338.294	1014.643
369.869	16.615	1337.506	1013.616
370.883	16.735	1336.770	1013.687
371.898	16.709	1336.023	1012.872
372.913	16.654	1334.914	1011.615
373.927	16.743	1334.145	1011.471
374.942	16.683	1333.959	1010.889
375.956	16.654	1332.944	1009.857
376.971	16.681	1332.232	1009.384
377.986	16.782	1331.179	1009.103
379.000	16.780	1330.182	1008.241
380.015	16.937	1329.217	1008.357
381.029	16.870	1328.935	1007.654
382.044	16.830	1328.100	1006.693
383.059	16.832	1327.188	1005.928
384.073	16.889	1326.828	1005.901
385.088	16.983	1325.898	1005.667
386.102	16.945	1325.482	1005.038
387.117	16.936	1324.799	1004.377
388.132	17.007	1323.538	1003.752
389.146	16.992	1322.835	1003.040
390.161	16.936	1321.950	1001.953
391.175	16.950	1321.248	1001.410
392.190	16.976	1320.599	1000.984
393.205	16.960	1319.879	1000.257
394.219	17.064	1318.294	999.578
395.234	17.025	1317.479	998.642
396.248	17.108	1315.893	997.842
397.263	17.041	1314.499	996.303
398.278	17.108	1313.137	995.577
399.292	17.034	1312.162	994.312
400.307	17.032	1311.001	993.332
401.321	17.054	1309.939	992.570
402.336	17.078	1309.019	991.928
403.350	16.989	1308.744	991.110
404.365	17.050	1307.556	990.477
405.380	17.062	1306.218	989.444
406.394	17.106	1305.357	988.963
407.409	17.241	1304.628	989.112
408.423	17.163	1304.003	988.094
409.438	17.227	1303.700	988.152
410.453	17.342	1302.743	988.004
411.467	17.204	1301.828	986.422
412.482	17.270	1301.318	986.333
413.496	17.322	1300.926	986.251
414.511	17.331	1300.247	985.700
415.526	17.342	1299.329	984.982
416.540	17.449	1298.156	984.624
417.555	17.460	1297.228	983.898
418.569	17.461	1296.666	983.386
419.584	17.405	1296.671	982.981
420.599	17.477	1295.701	982.572
421.613	93.658	1353.387	1463.009
422.628	92.039	1361.741	1463.110
