DTS Sentinel unit serial number:	SN413079Multiplexer serial number:	ORYXHardware model number:	OX4-SRSoftware version number:	ORYX F/W v4.00 Oryx Data Collector v3.7.2.0data status	okinstallation	princeton_trtdifferential loss correction	single-endedforward channel	channel 4reverse channel	N/Adate	2019/09/17time	16:49:35forward acquisition time	60.00reverse acquisition time	0.00gamma	496.2192k internal	0.2282k external	0.2282temperature offset calibration	0.9979default loss term (dB/km)	0.3790temperature slope calibration	1.0000multiplexer offset coefficient	1.0000multiplexer slope coefficient	1.0000fibre end	0.00T internal ref (°C)	42.25T ext. ref 1 (°C)	0.36T ext. ref 2 (°C)	38.35length (m)	temperature (°C)	Stokes	anti-Stokes-747.200	-108.236	0.288	0.064
-746.185	-174.176	-0.289	-0.009
-745.171	-200.000	0.017	0.188
-744.156	-200.000	-0.029	0.373
-743.142	-128.018	0.103	0.015
-742.127	-6.996	-0.150	-0.105
-741.112	-130.184	-0.235	0.033
-740.098	-200.000	-0.013	-0.059
-739.083	109.943	-0.269	-0.332
-738.069	15.117	0.154	-0.124
-737.054	385.981	-0.037	0.079
-736.039	-37.605	-0.077	0.042
-735.025	410.311	0.018	-0.039
-734.010	338.757	-0.078	-0.157
-732.996	-200.000	-0.034	-0.356
-731.981	-61.616	-0.157	-0.068
-730.966	-5.770	-0.134	0.094
-729.952	-200.000	0.019	-0.204
-728.937	-200.000	0.012	-0.441
-727.923	-142.098	-0.274	-0.028
-726.908	-71.398	-0.350	-0.135
-725.894	-107.169	-0.115	0.026
-724.879	-86.936	-0.077	0.024
-723.864	65.119	-0.090	0.094
-722.850	-59.487	-0.382	-0.169
-721.835	800.000	-0.098	-0.436
-720.821	-200.000	-0.052	-0.453
-719.806	-66.793	-0.163	0.066
-718.791	-200.000	0.026	-0.442
-717.777	180.023	0.179	-0.269
-716.762	-200.000	-0.034	0.375
-715.748	690.825	-0.067	-0.179
-714.733	-200.000	-0.030	0.280
-713.718	190.849	-0.184	0.285
-712.704	800.000	-0.045	-0.142
-711.689	348.941	-0.106	0.215
-710.675	800.000	0.165	0.502
-709.660	87.600	-0.040	0.046
-708.645	97.398	-0.162	-0.191
-707.631	800.000	-0.022	-0.091
-706.616	-200.000	-0.015	-0.096
-705.602	-200.000	-0.062	0.287
-704.587	720.242	-0.102	0.278
-703.572	-200.000	0.019	-0.182
-702.558	-11.654	-0.421	-0.284
-701.543	-50.947	-0.125	0.060
-700.529	424.939	-0.067	-0.147
-699.514	428.800	0.065	-0.143
-698.499	800.000	0.065	0.214
-697.485	-95.338	0.128	-0.035
-696.470	800.000	-0.095	-0.321
-695.456	-200.000	-0.000	0.166
-694.441	-200.000	0.006	-0.135
-693.426	-200.000	0.048	0.319
-692.412	330.847	0.059	0.116
-691.397	-54.009	-0.352	0.165
-690.383	-114.945	0.175	0.034
-689.368	-200.000	-0.018	0.169
-688.354	-200.000	-0.005	0.214
-687.339	800.000	-0.064	-0.271
-686.324	-91.234	0.149	-0.044
-685.310	54.829	-0.118	-0.116
-684.295	800.000	-0.100	0.389
-683.281	304.505	0.165	0.314
-682.266	-94.911	0.132	-0.037
-681.251	-177.354	-0.397	0.010
-680.237	-92.527	0.138	0.040
-679.222	-200.000	0.002	0.037
-678.208	-24.825	0.156	-0.095
-677.193	800.000	0.035	-0.106
-676.178	-102.634	-0.374	-0.092
-675.164	83.487	0.113	-0.126
-674.149	-55.635	0.243	-0.112
-673.135	176.963	0.082	0.122
-672.120	-200.000	0.038	0.183
-671.105	-28.773	-0.132	0.078
-670.091	800.000	-0.024	-0.070
-669.076	73.783	0.121	-0.130
-668.062	31.718	0.036	0.032
-667.047	-41.846	-0.118	0.062
-666.032	-66.381	-0.336	-0.137
-665.018	101.886	-0.210	0.251
-664.003	-200.000	-0.027	-0.132
-662.989	-126.350	-0.338	0.052
-661.974	67.018	-0.228	-0.238
-660.959	-49.788	-0.245	0.119
-659.945	-200.000	-0.025	0.348
-658.930	-20.317	-0.309	0.195
-657.916	63.804	-0.230	-0.236
-656.901	-133.261	-0.056	-0.007
-655.886	800.000	0.077	0.222
-654.872	282.566	-0.092	0.169
-653.857	8.594	0.160	0.124
-652.843	-96.357	0.159	0.043
-651.828	-120.595	-0.142	-0.025
-650.814	387.070	0.067	-0.142
-649.799	-71.056	-0.060	-0.023
-648.784	-161.336	-0.026	-0.001
-647.770	800.000	-0.039	-0.144
-646.755	-51.906	0.178	0.085
-645.741	625.569	0.103	-0.265
-644.726	800.000	-0.045	-0.183
-643.711	94.711	0.042	0.048
-642.697	156.291	0.181	0.256
-641.682	-176.254	0.084	0.002
-640.668	-80.886	0.187	0.064
-639.653	197.631	0.075	0.117
-638.638	683.887	0.042	0.112
-637.624	-70.149	-0.079	0.031
-636.609	-115.219	0.329	0.064
-635.595	800.000	-0.045	0.186
-634.580	-200.000	0.042	-0.248
-633.565	800.000	-0.090	-0.313
-632.551	198.428	0.138	-0.215
-631.536	-141.950	0.120	-0.012
-630.522	250.856	-0.065	0.113
-629.507	800.000	0.037	-0.124
-628.492	-170.082	-0.337	0.012
-627.478	-89.051	-0.206	0.062
-626.463	-1.219	0.063	-0.045
-625.449	-119.314	-0.244	0.044
-624.434	279.902	-0.173	-0.316
-623.419	-200.000	0.008	0.192
-622.405	19.066	-0.037	-0.030
-621.390	26.124	-0.218	0.187
-620.376	136.441	-0.198	0.265
-619.361	-115.741	0.284	0.054
-618.346	800.000	0.097	-0.373
-617.332	215.909	-0.200	-0.324
-616.317	99.428	-0.166	-0.196
-615.303	32.880	-0.144	0.127
-614.288	800.000	-0.147	-0.434
-613.273	-35.776	0.257	-0.142
-612.259	39.370	-0.065	-0.060
-611.244	-110.501	-0.356	-0.075
-610.230	-175.839	0.117	0.003
-609.215	33.776	-0.184	0.164
-608.201	122.779	-0.130	-0.166
-607.186	430.061	-0.061	-0.134
-606.171	511.694	0.075	0.179
-605.157	-177.116	0.184	-0.005
-604.142	800.000	-0.111	-0.360
-603.128	-70.100	0.210	-0.082
-602.113	-83.657	0.085	-0.028
-601.098	800.000	-0.088	-0.293
-600.084	800.000	0.049	0.186
-599.069	0.184	0.111	0.081
-598.055	-56.033	0.164	-0.075
-597.040	44.648	-0.151	-0.142
-596.025	800.000	0.085	0.301
-595.011	-190.249	-0.174	0.002
-593.996	468.809	-0.149	-0.343
-592.982	176.430	0.080	0.119
-591.967	142.716	-0.339	0.460
-590.952	28.116	-0.033	0.029
-589.938	30.483	-0.257	0.224
-588.923	800.000	-0.108	-0.421
-587.909	-72.541	0.358	0.135
-586.894	10.343	-0.034	0.026
-585.879	112.195	-0.200	0.247
-584.865	-64.387	-0.197	-0.082
-583.850	-153.794	-0.355	0.025
-582.836	-161.861	0.288	-0.015
-581.821	-23.922	0.256	0.157
-580.806	-200.000	0.032	0.235
-579.792	-33.727	-0.120	-0.068
-578.777	-52.612	0.330	0.156
-577.763	-200.000	-0.043	-0.195
-576.748	66.993	-0.173	0.180
-575.733	-200.000	-0.011	0.263
-574.719	178.372	0.016	-0.024
-573.704	628.175	0.108	-0.278
-572.690	-10.614	0.117	-0.079
-571.675	17.277	-0.138	0.112
-570.661	-77.997	0.141	-0.050
-569.646	27.069	0.010	0.009
-568.631	-103.338	-0.278	-0.067
-567.617	21.097	0.130	0.108
-566.602	-31.456	0.166	-0.096
-565.588	57.629	-0.134	0.134
-564.573	60.877	-0.086	0.087
-563.558	224.620	-0.088	-0.146
-562.544	-200.000	0.034	0.266
-561.529	154.942	-0.085	-0.119
-560.515	-44.525	0.102	-0.052
-559.500	101.653	0.143	-0.170
-558.485	134.118	0.215	0.285
-557.471	-60.019	0.239	0.104
-556.456	198.721	0.135	0.211
-555.442	18.295	0.158	0.129
-554.427	-113.101	-0.322	-0.065
-553.412	-200.000	0.004	-0.189
-552.398	118.451	-0.097	0.123
-551.383	-135.325	0.414	0.051
-550.369	-22.156	-0.036	0.023
-549.354	757.341	-0.051	0.142
-548.339	-200.000	0.003	-0.073
-547.325	107.563	-0.256	0.311
-546.310	-2.801	-0.234	0.167
-545.296	-59.572	0.040	-0.018
-544.281	-200.000	-0.011	-0.083
-543.266	61.745	0.072	-0.073
-542.252	-200.000	-0.059	-0.365
-541.237	800.000	-0.034	0.100
-540.223	-103.756	-0.235	0.056
-539.208	77.359	-0.201	0.219
-538.193	14.697	-0.128	0.102
-537.179	129.974	0.040	0.053
-536.164	185.962	-0.163	-0.247
-535.150	3.473	-0.182	-0.135
-534.135	157.064	-0.101	0.142
-533.121	-137.481	-0.152	-0.018
-532.106	46.104	0.133	0.125
-531.091	-98.333	-0.374	-0.098
-530.077	378.950	-0.036	0.076
-529.062	-35.155	-0.335	0.186
-528.048	29.685	0.206	0.179
-527.033	109.784	-0.060	0.073
-526.018	-51.032	0.195	0.093
-525.004	-77.439	0.348	-0.123
-523.989	266.212	-0.162	0.288
-522.975	-200.000	-0.055	-0.251
-521.960	-95.318	-0.181	0.050
-520.945	21.414	0.307	-0.254
-519.931	354.909	0.078	0.158
-518.916	34.911	-0.200	-0.179
-517.902	800.000	-0.028	-0.089
-516.887	-15.009	-0.122	-0.080
-515.872	29.338	-0.123	-0.106
-514.858	-103.834	0.134	0.032
-513.843	-63.394	-0.220	-0.092
-512.829	-165.940	0.135	0.006
-511.814	57.795	0.179	0.178
-510.799	-122.292	-0.076	0.013
-509.785	-15.539	-0.152	0.099
-508.770	-53.778	-0.051	0.024
-507.756	-200.000	0.011	-0.148
-506.741	800.000	-0.078	0.251
-505.726	-52.642	-0.141	0.066
-504.712	-200.000	-0.017	0.088
-503.697	131.477	-0.123	0.161
-502.683	-63.652	0.173	0.072
-501.668	-102.657	-0.190	-0.046
-500.653	645.877	0.069	0.179
-499.639	800.000	0.080	0.255
-498.624	669.760	0.067	0.176
-497.610	785.581	0.065	0.182
-496.595	-200.000	-0.026	-0.211
-495.581	-200.000	-0.013	-0.170
-494.566	800.000	-0.044	-0.157
-493.551	125.828	0.102	0.131
-492.537	-74.891	0.114	0.041
-491.522	668.819	0.154	-0.405
-490.508	-54.278	-0.236	0.109
-489.493	-42.128	-0.218	0.113
-488.478	-168.524	0.262	0.010
-487.464	621.706	-0.075	0.191
-486.449	800.000	0.052	0.210
-485.435	30.851	0.304	0.265
-484.420	-200.000	-0.069	0.401
-483.405	224.842	0.067	-0.110
-482.391	800.000	0.046	-0.182
-481.376	220.277	0.097	-0.158
-480.362	234.448	0.130	-0.218
-479.347	257.629	0.165	0.289
-478.332	-19.736	-0.388	0.244
-477.318	262.706	0.056	-0.098
-476.303	-28.894	-0.239	0.140
-475.289	-144.571	0.291	0.027
-474.274	4.731	0.189	0.142
-473.259	-71.764	-0.392	-0.149
-472.245	-148.438	0.345	0.029
-471.230	-84.062	0.264	0.085
-470.216	-60.598	-0.178	0.077
-469.201	-117.433	0.182	-0.034
-468.186	-108.249	0.299	-0.066
-467.172	370.185	0.072	-0.148
-466.157	-20.820	-0.299	0.186
-465.143	-87.177	0.569	-0.176
-464.128	258.732	-0.138	0.242
-463.113	-120.347	-0.402	-0.070
-462.099	-200.000	-0.011	-0.286
-461.084	-79.451	0.088	0.030
-460.070	-200.000	-0.030	0.233
-459.055	-29.025	-0.084	0.049
-458.040	-110.504	-0.090	0.019
-457.026	-44.809	0.088	0.045
-456.011	-121.583	-0.378	0.064
-454.997	237.505	-0.077	-0.131
-453.982	90.782	0.184	-0.210
-452.968	24.514	-0.081	-0.068
-451.953	-84.542	-0.253	0.081
-450.938	-106.016	-0.092	0.021
-449.924	351.580	0.012	-0.023
-448.909	-128.510	-0.306	-0.044
-447.895	-200.000	-0.017	-0.220
-446.880	432.909	-0.092	-0.203
-445.865	58.907	-0.166	-0.166
-444.851	-200.000	0.007	-0.225
-443.836	36.321	0.247	-0.221
-442.822	-157.335	0.131	0.008
-441.807	84.147	0.095	0.106
-440.792	66.468	0.134	-0.138
-439.778	800.000	0.029	-0.086
-438.763	84.287	0.068	-0.075
-437.749	-42.719	-0.216	0.112
-436.734	-200.000	0.009	0.202
-435.719	594.599	-0.037	-0.094
-434.705	-170.660	-0.071	-0.002
-433.690	-154.312	-0.302	-0.021
-432.676	-166.428	-0.139	-0.006
-431.661	-154.349	0.281	-0.019
-430.646	387.108	0.101	-0.212
-429.632	-130.304	0.228	-0.032
-428.617	-124.641	-0.386	-0.061
-427.603	75.790	-0.291	-0.313
-426.588	-142.221	0.036	0.004
-425.573	-156.612	0.136	0.009
-424.559	26.789	-0.142	-0.121
-423.544	800.000	0.160	-0.483
-422.530	720.337	-0.019	0.051
-421.515	93.156	0.258	-0.297
-420.500	-105.613	-0.438	-0.101
-419.486	-69.140	0.260	0.102
-418.471	656.937	0.084	0.218
-417.457	114.014	0.448	-0.553
-416.442	-200.000	-0.005	0.141
-415.428	-26.563	0.061	0.036
-414.413	-187.765	0.387	-0.005
-413.398	-85.752	0.114	-0.036
-412.384	-138.738	-0.266	-0.029
-411.369	-169.360	0.173	0.006
-410.355	284.386	0.075	-0.136
-409.340	-200.000	-0.023	-0.188
-408.325	-33.790	-0.202	-0.113
-407.311	417.147	0.050	-0.108
-406.296	-113.859	0.119	0.023
-405.282	40.305	0.102	0.094
-404.267	-130.526	-0.152	-0.021
-403.252	215.470	0.073	0.118
-402.238	218.589	-0.119	0.192
-401.223	36.476	-0.169	0.152
-400.209	-71.280	-0.228	-0.087
-399.194	-200.000	-0.001	0.033
-398.179	61.926	0.220	0.222
-397.165	337.555	0.171	-0.337
-396.150	-75.298	0.227	-0.082
-395.136	-131.663	0.059	0.008
-394.121	-71.543	-0.291	-0.110
-393.106	417.627	-0.164	0.355
-392.092	-200.000	0.045	0.270
-391.077	126.274	-0.208	-0.267
-390.063	265.884	-0.105	-0.186
-389.048	341.603	-0.058	0.115
-388.033	237.347	-0.228	0.383
-387.019	41.009	-0.248	-0.227
-386.004	176.589	0.073	-0.108
-384.990	800.000	0.110	0.310
-383.975	-84.017	0.066	-0.021
-382.960	104.109	0.081	-0.096
-381.946	-104.018	0.494	0.117
-380.931	-200.000	0.020	0.107
-379.917	111.791	0.069	-0.084
-378.902	-104.256	-0.278	-0.066
-377.888	-54.076	-0.340	0.157
-376.873	-57.880	0.153	0.068
-375.858	-78.068	-0.066	0.023
-374.844	17.729	0.286	0.231
-373.829	319.881	-0.020	0.039
-372.815	-200.000	-0.011	-0.108
-371.800	172.026	0.157	0.228
-370.785	-200.000	-0.098	0.000
-369.771	-168.672	0.144	0.006
-368.756	616.314	-0.071	-0.180
-367.742	511.083	-0.047	0.112
-366.727	249.700	0.113	-0.195
-365.712	-36.846	0.152	-0.083
-364.698	-38.016	-0.294	-0.158
-363.683	-140.745	-0.332	0.035
-362.669	-70.817	-0.071	0.027
-361.654	-17.868	0.063	-0.040
-360.639	71.041	0.115	-0.121
-359.625	-131.847	-0.102	0.014
-358.610	11.623	0.222	0.172
-357.596	196.735	0.089	0.137
-356.581	800.000	0.047	-0.157
-355.566	800.000	-0.059	0.205
-354.552	169.009	-0.235	0.339
-353.537	34.948	0.087	-0.077
-352.523	-18.955	-0.258	0.163
-351.508	239.494	0.099	0.166
-350.493	-44.128	0.145	-0.074
-349.479	-200.000	-0.036	-0.169
-348.464	-126.625	-0.367	-0.055
-347.450	165.850	0.033	-0.047
-346.435	-18.911	0.062	-0.039
-345.420	55.993	0.287	-0.282
-344.406	800.000	-0.009	-0.029
-343.391	-88.002	0.095	0.029
-342.377	-29.883	0.321	0.185
-341.362	69.555	0.119	0.124
-340.348	-8.885	-0.354	-0.240
-339.333	-135.527	-0.213	0.026
-338.318	2.443	-0.216	0.158
-337.304	271.219	0.058	0.103
-336.289	179.383	0.180	0.267
-335.275	318.260	0.104	0.200
-334.260	-200.000	-0.011	0.138
-333.245	64.407	-0.064	0.065
-332.231	-33.558	0.138	-0.077
-331.216	61.734	-0.098	-0.099
-330.202	199.073	0.129	0.200
-329.187	-200.000	-0.017	0.270
-328.172	-99.002	0.412	0.106
-327.158	-63.563	0.117	-0.049
-326.143	87.842	-0.118	0.132
-325.129	486.097	0.094	-0.216
-324.114	211.685	-0.077	0.123
-323.099	-200.000	-0.053	0.411
-322.085	232.407	-0.030	0.050
-321.070	-200.000	-0.005	0.196
-320.056	45.941	0.079	-0.074
-319.041	800.000	-0.059	0.230
-318.026	577.493	-0.053	-0.131
-317.012	434.925	0.107	-0.234
-315.997	-95.070	0.130	0.035
-314.983	200.604	-0.060	-0.093
-313.968	-130.726	-0.120	0.016
-312.953	0.236	0.182	0.131
-311.939	186.262	0.101	-0.153
-310.924	277.631	0.195	0.351
-309.910	-82.690	-0.271	0.089
-308.895	592.187	-0.156	0.389
-307.880	-29.384	0.315	-0.182
-306.866	-135.351	0.159	0.019
-305.851	1.932	0.165	-0.120
-304.837	-200.000	-0.010	-0.210
-303.822	70.366	0.050	0.052
-302.807	251.322	0.040	0.068
-301.793	-200.000	-0.008	0.102
-300.778	-112.757	-0.245	-0.049
-299.764	209.982	0.183	-0.290
-298.749	21.029	-0.104	0.085
-297.735	-86.248	0.311	0.097
-296.720	-33.924	0.121	-0.067
-295.705	172.526	0.165	-0.240
-294.691	-111.636	-0.236	-0.048
-293.676	261.329	0.192	0.336
-292.662	-7.147	-0.037	0.025
-291.647	800.000	-0.057	0.174
-290.632	87.977	0.019	-0.022
-289.618	-200.000	0.036	-0.199
-288.603	25.756	-0.074	-0.062
-287.589	365.706	-0.129	-0.263
-286.574	-116.171	0.090	0.017
-285.559	-108.349	-0.427	-0.093
-284.545	367.601	0.069	-0.141
-283.530	-56.637	-0.213	0.095
-282.516	-98.055	-0.192	-0.050
-281.501	-135.807	0.391	-0.047
-280.486	-83.219	-0.258	0.084
-279.472	14.692	0.158	0.124
-278.457	-200.000	-0.018	0.088
-277.443	63.168	-0.017	0.017
-276.428	348.747	-0.163	-0.325
-275.413	-78.748	-0.108	0.037
-274.399	35.637	-0.086	0.076
-273.384	-71.910	0.109	-0.041
-272.370	76.737	0.102	-0.109
-271.355	84.195	-0.152	0.167
-270.340	-96.343	0.518	-0.138
-269.326	-200.000	0.005	-0.294
-268.311	-112.567	-0.445	-0.089
-267.297	330.175	-0.094	-0.182
-266.282	94.769	0.067	0.077
-265.267	166.136	0.106	-0.151
-264.253	33.265	0.079	-0.069
-263.238	355.353	-0.193	-0.388
-262.224	155.555	0.178	-0.247
-261.209	27.952	0.160	-0.136
-260.195	222.374	0.050	-0.082
-259.180	-102.738	0.140	0.034
-258.165	63.837	-0.256	-0.260
-257.151	546.584	-0.038	0.091
-256.136	-198.118	0.231	0.001
-255.122	96.415	-0.235	0.271
-254.107	-193.840	0.223	-0.002
-253.092	800.000	0.101	0.424
-252.078	-200.000	0.017	-0.127
-251.063	-146.005	-0.465	0.041
-250.049	800.000	0.022	-0.090
-249.034	174.151	0.061	-0.089
-248.019	-15.582	0.048	0.031
-247.005	31.680	-0.186	0.161
-245.990	0.246	0.123	0.089
-244.976	-200.000	0.018	0.196
-243.961	487.321	-0.060	-0.139
-242.946	-147.145	0.082	-0.007
-241.932	306.318	0.120	0.225
-240.917	-23.947	0.170	0.103
-239.903	800.000	0.024	-0.080
-238.888	-200.000	-0.028	-0.677
-237.873	-144.625	0.510	-0.047
-236.859	-117.969	0.197	0.036
-235.844	-127.924	-0.244	0.035
-234.830	298.396	-0.033	0.062
-233.815	-35.770	-0.251	0.137
-232.800	78.050	0.120	0.129
-231.786	-200.000	-0.001	0.150
-230.771	-61.658	0.033	-0.014
-229.757	57.649	0.234	-0.231
-228.742	408.575	-0.167	0.356
-227.727	800.000	0.142	-0.468
-226.713	173.265	0.037	-0.053
-225.698	-116.578	-0.296	-0.055
-224.684	800.000	-0.048	0.143
-223.669	-200.000	0.006	-0.248
-222.655	353.007	0.079	0.158
-221.640	-200.000	-0.061	0.387
-220.625	-20.684	-0.534	0.330
-219.611	-12.924	0.170	-0.112
-218.596	149.208	0.063	0.086
-217.582	119.903	-0.197	0.246
-216.567	102.258	0.123	-0.145
-215.552	26.493	0.244	-0.206
-214.538	-136.540	0.158	-0.018
-213.523	-63.430	-0.264	0.109
-212.509	-200.000	0.006	-0.118
-211.494	409.151	0.046	0.098
-210.479	492.137	0.143	-0.329
-209.465	-200.000	-0.043	-0.393
-208.450	-132.042	-0.300	0.039
-207.436	-200.000	0.038	0.172
-206.421	-73.056	0.073	-0.027
-205.406	-74.523	-0.108	-0.039
-204.392	800.000	-0.088	0.270
-203.377	-200.000	-0.055	0.355
-202.363	-31.952	0.391	0.220
-201.348	800.000	-0.007	-0.030
-200.333	-75.336	-0.083	-0.030
-199.319	-42.593	0.197	0.101
-198.304	300.962	-0.264	0.490
-197.290	800.000	-0.084	0.277
-196.275	107.670	-0.092	-0.110
-195.260	-200.000	-0.026	-0.132
-194.246	-27.518	0.172	-0.101
-193.231	93.060	0.216	0.246
-192.217	-70.521	0.027	0.010
-191.202	-47.643	-0.123	-0.060
-190.187	-25.978	0.042	-0.025
-189.173	49.339	0.208	-0.197
-188.158	-36.497	0.106	0.058
-187.144	-193.580	0.228	0.002
-186.129	116.672	-0.113	-0.139
-185.114	-27.199	-0.197	-0.115
-184.100	25.799	-0.241	0.202
-183.085	800.000	-0.008	-0.032
-182.071	158.791	0.094	-0.131
-181.056	-200.000	-0.015	-0.102
-180.042	-200.000	0.043	0.278
-179.027	-110.275	0.378	-0.079
-178.012	-37.671	0.034	0.018
-176.998	-21.026	-0.142	0.087
-175.983	-6.045	0.097	-0.067
-174.969	252.559	-0.116	-0.199
-173.954	220.615	0.059	0.094
-172.939	-200.000	0.006	-0.068
-171.925	800.000	-0.079	-0.253
-170.910	-200.000	-0.031	-0.503
-169.896	-200.000	-0.023	-0.158
-168.881	-12.671	0.196	-0.128
-167.866	-146.895	-0.217	-0.019
-166.852	676.690	-0.071	-0.185
-165.837	-101.131	0.146	0.036
-164.823	200.929	0.186	-0.288
-163.808	56.365	0.073	-0.071
-162.793	-200.000	-0.011	0.087
-161.779	-175.805	-0.373	0.010
-160.764	-200.000	0.081	0.431
-159.750	-200.000	0.009	-0.097
-158.735	40.059	0.065	-0.059
-157.720	-169.411	0.192	0.007
-156.706	-84.807	0.327	0.103
-155.691	-200.000	-0.022	-0.218
-154.677	-133.400	-0.192	-0.024
-153.662	800.000	-0.079	0.223
-152.647	-15.210	0.144	-0.093
-151.633	4.102	0.099	0.073
-150.618	-152.603	-0.017	0.001
-149.604	232.350	-0.082	0.135
-148.589	200.887	-0.065	0.101
-147.574	104.129	0.051	-0.061
-146.560	583.276	-0.060	-0.149
-145.545	63.041	0.043	-0.043
-144.531	173.278	0.007	0.010
-143.516	138.729	0.086	-0.113
-142.502	-96.981	-0.229	-0.060
-141.487	-200.000	0.010	-0.172
-140.472	368.743	0.098	-0.199
-139.458	-124.547	-0.144	-0.022
-138.443	398.683	-0.063	0.133
-137.429	-200.000	-0.008	-0.089
-136.414	19.074	-0.185	0.149
-135.399	-172.428	0.095	-0.003
-134.385	-200.000	-0.027	-0.125
-133.370	-200.000	0.067	0.340
-132.356	-64.465	-0.264	-0.108
-131.341	37.662	0.197	-0.175
-130.326	567.673	-0.036	-0.087
-129.312	733.977	-0.026	-0.071
-128.297	50.056	0.180	0.170
-127.283	-140.837	-0.060	0.006
-126.268	0.774	0.167	0.120
-125.253	284.057	0.052	-0.095
-124.239	240.803	0.121	0.202
-123.224	800.000	0.056	-0.175
-122.210	-66.847	0.336	-0.133
-121.195	-63.720	0.054	-0.022
-120.180	58.617	0.150	0.148
-119.166	-10.475	0.032	-0.021
-118.151	-182.225	-0.275	-0.005
-117.137	0.809	0.047	-0.033
-116.122	181.303	0.140	-0.207
-115.107	-60.455	-0.438	0.187
-114.093	113.906	0.265	0.323
-113.078	234.425	-0.188	0.310
-112.064	53.706	-0.193	-0.186
-111.049	-200.000	-0.014	0.240
-110.034	720.392	-0.030	-0.080
-109.020	141.618	0.057	-0.076
-108.005	48.415	-0.117	-0.110
-106.991	800.000	0.090	0.272
-105.976	462.238	0.058	-0.131
-104.962	-136.016	0.305	-0.036
-103.947	74.766	0.065	0.068
-102.932	-51.108	0.124	-0.058
-101.918	1.373	0.370	0.267
-100.903	-89.835	0.230	-0.067
-99.889	141.059	0.131	0.173
-98.874	-156.376	0.268	-0.017
-97.859	-200.000	0.037	-0.165
-96.845	278.298	0.110	-0.197
-95.830	-150.748	0.200	-0.015
-94.816	-200.000	-0.007	-0.108
-93.801	-200.000	-0.015	0.133
-92.786	335.668	0.052	0.102
-91.772	420.032	0.153	0.328
-90.757	-59.834	0.320	0.137
-89.743	7.884	0.170	-0.128
-88.728	122.931	-0.357	0.448
-87.713	-200.000	-0.034	0.296
-86.699	-83.139	-0.314	0.101
-85.684	31.340	-0.276	0.238
-84.670	-27.924	-0.142	0.082
-83.655	-200.000	-0.000	-0.088
-82.640	112.582	0.106	0.128
-81.626	-200.000	0.029	0.171
-80.611	-20.453	0.412	-0.254
-79.597	-38.336	-0.123	-0.065
-78.582	-178.505	0.592	0.014
-77.567	39.647	0.077	0.069
-76.553	-78.329	0.143	0.049
-75.538	-200.000	0.017	0.292
-74.524	69.704	-0.249	-0.257
-73.509	130.701	-0.132	0.170
-72.494	-200.000	-0.022	0.221
-71.480	-151.982	0.189	0.014
-70.465	3.627	-0.103	-0.076
-69.451	-45.530	0.253	-0.125
-68.436	-75.364	-0.214	0.077
-67.422	117.290	0.209	-0.257
-66.407	-116.675	0.037	0.007
-65.392	317.199	0.071	-0.135
-64.378	151.911	0.053	0.072
-63.363	-200.000	-0.011	0.122
-62.349	64.049	-0.197	0.198
-61.334	54.519	-0.763	-0.736
-60.319	69.570	-0.216	0.223
-59.305	322.283	-0.326	-0.621
-58.290	57.441	0.572	0.559
-57.276	335.568	0.754	1.464
-56.261	-200.000	75.328	548.919
-55.246	507.248	1355.946	3148.563
-54.232	133.251	2617.389	3385.252
-53.217	107.618	2416.254	2878.395
-52.203	49.152	2147.455	2019.509
-51.188	44.115	2054.267	1885.147
-50.173	42.327	2036.124	1851.939
-49.159	54.436	2073.615	1998.864
-48.144	59.794	2093.428	2067.678
-47.130	45.107	2058.039	1897.543
-46.115	42.250	2046.766	1860.609
-45.100	42.255	2043.336	1857.467
-44.086	42.144	2041.409	1854.606
-43.071	42.123	2038.788	1851.960
-42.057	42.113	2037.076	1850.236
-41.042	42.130	2034.901	1848.349
-40.027	42.204	2032.615	1846.879
-39.013	42.182	2030.723	1844.889
-37.998	42.074	2029.348	1842.570
-36.984	42.146	2027.429	1841.413
-35.969	42.224	2025.176	1840.012
-34.954	42.231	2023.253	1838.256
-33.940	42.260	2021.883	1837.204
-32.925	42.260	2019.977	1835.395
-31.911	42.261	2018.826	1834.288
-30.896	42.230	2016.879	1832.166
-29.881	42.252	2015.168	1830.738
-28.867	42.242	2013.651	1829.197
-27.852	42.300	2011.413	1827.615
-26.838	42.299	2009.547	1825.840
-25.823	42.327	2007.366	1824.046
-24.809	42.295	2005.654	1822.126
-23.794	42.385	2003.892	1821.272
-22.779	42.348	2002.181	1819.308
-21.765	42.245	2001.249	1817.457
-20.750	42.295	1999.348	1816.106
-19.736	42.241	1998.065	1814.380
-18.721	42.246	1996.678	1813.098
-17.706	42.295	1994.082	1811.109
-16.692	42.268	1992.425	1809.290
-15.677	42.232	1990.898	1807.502
-14.663	42.283	1989.358	1806.491
-13.648	42.370	1987.927	1805.906
-12.633	42.262	1986.601	1803.654
-11.619	42.229	1985.797	1802.557
-10.604	42.233	1984.147	1801.025
-9.590	42.271	1982.307	1799.627
-8.575	42.206	1981.194	1797.962
-7.560	42.202	1979.802	1796.587
-6.546	42.319	1978.428	1796.317
-5.531	42.254	1977.014	1794.385
-4.517	42.280	1975.886	1793.521
-3.502	42.236	1975.205	1792.441
-2.487	42.351	1973.428	1791.777
-1.473	42.312	1972.575	1790.586
-0.458	42.518	1968.058	1788.252
0.556	41.129	1949.445	1765.356
1.571	36.795	1928.898	1708.456
2.586	31.074	1946.106	1672.426
3.600	28.063	1980.066	1673.940
4.615	26.550	1975.006	1655.691
5.629	20.363	1869.711	1513.518
6.644	8.426	1737.864	1309.382
7.659	1.233	1691.444	1216.758
8.673	0.501	1686.702	1207.383
9.688	0.310	1685.746	1205.065
10.702	0.367	1684.061	1204.211
11.717	0.263	1680.949	1201.050
12.731	0.811	1681.173	1205.474
13.746	8.003	1697.916	1275.105
14.761	16.507	1715.487	1356.694
15.775	18.356	1715.612	1371.496
16.790	17.231	1712.065	1359.543
17.804	16.143	1708.871	1348.194
18.819	15.150	1705.493	1337.481
19.834	14.568	1702.398	1330.301
20.848	14.246	1700.885	1326.435
21.863	13.890	1699.145	1322.120
22.877	13.651	1697.365	1318.722
23.892	13.452	1696.795	1316.577
24.907	13.333	1695.449	1314.468
25.921	13.301	1694.091	1313.046
26.936	13.303	1693.001	1312.101
27.950	13.360	1692.550	1312.094
28.965	13.436	1691.882	1312.056
29.980	13.409	1691.281	1311.260
30.994	13.461	1689.931	1310.507
32.009	13.466	1689.110	1309.799
33.023	13.553	1688.331	1309.762
34.038	13.547	1687.529	1308.984
35.053	13.529	1686.701	1308.079
36.067	13.513	1685.211	1306.686
37.082	13.493	1684.045	1305.504
38.096	13.447	1683.160	1304.341
39.111	13.503	1682.513	1304.167
40.126	13.496	1682.177	1303.735
41.140	13.489	1680.805	1302.503
42.155	13.414	1679.281	1300.618
43.169	13.390	1677.909	1299.252
44.184	13.327	1676.650	1297.667
45.199	13.342	1675.462	1296.748
46.213	13.336	1674.138	1295.562
47.228	13.326	1673.169	1294.621
48.242	13.357	1672.181	1293.983
49.257	13.448	1670.396	1293.197
50.271	13.399	1669.718	1292.176
51.286	13.465	1667.976	1291.226
52.301	13.380	1666.578	1289.367
53.315	13.392	1665.654	1288.634
54.330	13.433	1664.111	1287.644
55.344	13.363	1662.526	1285.758
56.359	13.359	1660.547	1284.089
57.374	13.324	1660.006	1283.278
58.388	13.311	1658.847	1282.171
59.403	13.245	1657.422	1280.449
60.417	13.382	1655.569	1279.959
61.432	13.252	1654.922	1278.340
62.447	13.288	1653.149	1277.137
63.461	13.261	1652.555	1276.359
64.476	13.285	1651.226	1275.404
65.490	13.247	1649.763	1273.864
66.505	13.213	1648.737	1272.703
67.520	13.214	1648.195	1272.180
68.534	13.328	1646.977	1272.000
69.549	13.252	1645.895	1270.466
70.563	13.313	1644.372	1269.651
71.578	13.318	1643.225	1268.688
72.593	13.153	1642.592	1266.827
73.607	13.133	1641.446	1265.672
74.622	13.217	1640.044	1265.128
75.636	13.186	1638.654	1263.700
76.651	13.134	1638.133	1262.792
77.666	13.187	1637.254	1262.408
78.680	13.154	1636.086	1261.141
79.695	13.123	1635.538	1260.372
80.709	13.184	1634.396	1259.845
81.724	13.251	1633.254	1259.367
82.739	13.307	1632.240	1258.899
83.753	13.328	1631.468	1258.349
84.768	13.341	1630.605	1257.672
85.782	13.365	1629.809	1257.128
86.797	13.448	1628.609	1256.726
87.812	13.496	1627.716	1256.287
88.826	13.328	1626.470	1253.943
89.841	13.388	1625.273	1253.358
90.855	13.324	1624.511	1252.177
91.870	13.328	1623.188	1251.076
92.884	13.439	1621.874	1250.793
93.899	13.461	1620.934	1250.125
94.914	13.464	1619.782	1249.146
95.928	13.534	1618.083	1248.257
96.943	13.485	1617.632	1247.426
97.957	13.466	1616.288	1246.138
98.972	13.490	1614.147	1244.555
99.987	13.484	1612.851	1243.405
101.001	13.490	1611.281	1242.123
102.016	13.463	1609.561	1240.486
103.030	13.431	1608.429	1239.269
104.045	13.417	1607.278	1238.164
105.060	13.443	1606.021	1237.280
106.074	13.383	1604.559	1235.600
107.089	13.393	1602.892	1234.279
108.103	13.292	1601.522	1232.365
109.118	13.317	1600.152	1231.389
110.133	13.314	1598.125	1229.695
111.147	13.248	1597.429	1228.563
112.162	13.239	1596.143	1227.393
113.176	13.249	1594.902	1226.408
114.191	13.351	1593.016	1225.602
115.206	13.386	1591.811	1224.830
116.220	13.359	1590.810	1223.749
117.235	13.338	1589.284	1222.314
118.249	13.366	1588.084	1221.488
119.264	13.292	1587.017	1220.013
120.279	13.297	1585.457	1218.745
121.293	13.370	1583.708	1217.829
122.308	13.370	1582.523	1216.809
123.322	13.374	1580.700	1215.326
124.337	13.347	1579.609	1214.182
125.352	13.251	1578.790	1212.742
126.366	13.376	1577.332	1212.434
127.381	13.341	1575.991	1211.036
128.395	13.297	1575.019	1209.857
129.410	13.330	1573.575	1208.884
130.424	13.281	1572.254	1207.404
131.439	13.402	1570.838	1207.092
132.454	13.402	1569.644	1206.073
133.468	13.506	1567.879	1205.366
134.483	13.464	1566.946	1204.233
135.497	13.418	1565.790	1202.903
136.512	13.435	1564.347	1201.813
137.527	13.454	1562.631	1200.530
138.541	13.460	1561.636	1199.703
139.556	13.547	1560.093	1199.041
140.570	13.389	1559.392	1197.251
141.585	13.538	1557.715	1196.933
142.600	13.535	1556.275	1195.703
143.614	13.619	1554.870	1195.122
144.629	13.611	1554.132	1194.393
145.643	13.644	1552.648	1193.384
146.658	13.704	1551.174	1192.577
147.673	13.692	1549.338	1190.969
148.687	13.618	1548.038	1189.335
149.702	13.710	1545.930	1188.273
150.716	13.550	1544.536	1185.946
151.731	13.630	1543.204	1185.395
152.746	13.484	1542.034	1183.345
153.760	13.639	1540.576	1183.226
154.775	13.519	1539.507	1181.448
155.789	13.573	1538.023	1180.585
156.804	13.671	1536.533	1180.037
157.819	13.621	1535.434	1178.731
158.833	13.587	1534.474	1177.653
159.848	13.689	1533.449	1177.488
160.862	13.700	1532.191	1176.494
161.877	13.697	1530.779	1175.282
162.892	13.743	1529.413	1174.457
163.906	13.718	1528.020	1173.103
164.921	13.720	1527.004	1172.234
165.935	13.646	1526.049	1170.877
166.950	13.689	1524.631	1169.988
167.964	13.666	1523.919	1169.179
168.979	13.740	1523.074	1168.945
169.994	13.776	1521.514	1167.896
171.008	13.757	1520.506	1166.891
172.023	13.722	1519.630	1165.868
173.037	13.725	1518.245	1164.720
174.052	13.881	1516.981	1164.746
175.067	13.877	1516.276	1164.073
176.081	13.790	1514.950	1162.342
177.096	13.703	1513.888	1160.814
178.110	13.779	1512.107	1159.873
179.125	13.753	1510.965	1158.714
180.140	13.822	1510.080	1158.416
181.154	13.862	1508.722	1157.554
182.169	13.794	1507.729	1156.211
183.183	13.851	1506.585	1155.630
184.198	13.898	1505.871	1155.305
185.213	13.989	1504.222	1154.573
186.227	14.005	1503.060	1153.688
187.242	13.977	1501.677	1152.333
188.256	14.026	1500.802	1151.897
189.271	14.095	1499.853	1151.547
190.286	14.032	1498.866	1150.247
191.300	14.071	1497.363	1149.265
192.315	13.922	1496.029	1147.111
193.329	13.837	1494.965	1145.607
194.344	13.907	1493.704	1145.021
195.359	13.964	1493.056	1144.817
196.373	13.901	1492.136	1143.578
197.388	13.972	1490.969	1143.068
198.402	14.079	1489.550	1142.615
199.417	14.111	1488.934	1142.263
200.432	14.111	1487.628	1141.157
201.446	14.202	1486.710	1140.975
202.461	14.270	1485.288	1140.252
203.475	14.174	1484.384	1138.801
204.490	14.290	1483.030	1138.449
205.504	14.262	1482.090	1137.436
206.519	14.218	1481.228	1136.376
207.534	14.204	1479.820	1135.099
208.548	14.171	1478.848	1134.031
209.563	14.241	1477.874	1133.655
210.577	14.164	1477.036	1132.394
211.592	14.244	1475.821	1131.902
212.607	14.276	1474.819	1131.251
213.621	14.325	1474.361	1131.132
214.636	14.393	1473.338	1130.711
215.650	14.327	1472.539	1129.549
216.665	14.355	1471.341	1128.719
217.680	14.453	1470.370	1128.536
218.694	14.435	1470.184	1128.177
219.709	14.469	1469.192	1127.540
220.723	14.401	1468.187	1126.216
221.738	14.411	1467.200	1125.421
222.753	14.413	1466.119	1124.507
223.767	14.452	1465.339	1124.073
224.782	14.388	1464.475	1122.882
225.796	14.496	1463.340	1122.641
226.811	14.527	1462.437	1122.055
227.826	14.511	1462.123	1121.606
228.840	14.632	1461.037	1121.487
229.855	14.488	1460.357	1119.896
230.869	14.484	1459.371	1119.016
231.884	14.439	1458.117	1117.657
232.899	14.612	1456.501	1117.476
233.913	14.440	1455.909	1115.773
234.928	14.414	1454.245	1114.226
235.942	14.442	1453.373	1113.641
236.957	14.453	1452.274	1112.778
237.972	14.623	1450.435	1112.403
238.986	14.563	1449.934	1111.518
240.001	14.551	1448.929	1110.571
241.015	14.587	1447.844	1109.878
242.030	14.501	1446.639	1108.286
243.045	14.588	1445.638	1107.998
244.059	14.655	1444.668	1107.606
245.074	14.633	1443.789	1106.685
246.088	14.682	1443.239	1106.488
247.103	14.725	1442.245	1105.916
248.117	14.702	1441.764	1105.296
249.132	14.838	1440.728	1105.302
250.147	14.823	1439.759	1104.364
251.161	14.938	1439.451	1104.792
252.176	14.945	1438.750	1104.200
253.190	14.963	1437.858	1103.538
254.205	14.910	1437.299	1102.663
255.220	15.022	1435.945	1102.264
256.234	15.073	1434.838	1101.647
257.249	15.052	1434.257	1100.967
258.263	15.076	1433.778	1100.663
259.278	15.109	1433.109	1100.265
260.293	15.095	1431.960	1099.198
261.307	15.149	1430.870	1098.615
262.322	15.120	1430.344	1097.923
263.336	15.196	1429.530	1097.698
264.351	15.169	1428.317	1096.497
265.366	15.142	1427.439	1095.548
266.380	15.256	1426.625	1095.574
267.395	15.272	1425.484	1094.699
268.409	15.253	1424.637	1093.831
269.424	15.269	1423.314	1092.820
270.439	15.295	1422.509	1092.276
271.453	15.286	1421.959	1091.697
272.468	15.276	1420.722	1090.586
273.482	15.229	1420.359	1089.904
274.497	15.189	1419.477	1088.872
275.512	15.222	1418.380	1088.149
276.526	15.311	1417.138	1087.675
277.541	15.300	1416.027	1086.657
278.555	15.286	1415.265	1085.884
279.570	15.323	1414.539	1085.470
280.585	15.296	1413.536	1084.432
281.599	15.345	1412.810	1084.098
282.614	15.392	1412.012	1083.694
283.628	15.398	1410.744	1082.662
284.643	15.417	1409.680	1081.873
285.657	15.395	1408.298	1080.571
286.672	15.351	1408.012	1079.977
287.687	15.400	1407.011	1079.430
288.701	15.379	1405.571	1078.090
289.716	15.465	1404.972	1078.089
290.730	15.388	1404.319	1076.996
291.745	15.540	1403.034	1076.896
292.760	15.463	1402.454	1075.857
293.774	15.497	1401.435	1075.199
294.789	15.509	1400.424	1074.407
295.803	15.497	1399.450	1073.484
296.818	15.662	1397.998	1073.332
297.833	15.587	1397.902	1072.686
298.847	15.643	1396.239	1071.667
299.862	15.605	1395.513	1070.778
300.876	15.642	1394.311	1069.997
301.891	15.584	1393.760	1069.105
302.906	15.680	1392.739	1068.840
303.920	15.689	1391.959	1068.207
304.935	15.745	1391.236	1067.911
305.949	15.773	1390.647	1067.538
306.964	15.799	1389.581	1066.792
307.979	15.771	1388.888	1065.993
308.993	15.854	1387.833	1065.613
310.008	15.732	1387.206	1064.262
311.022	15.831	1385.990	1063.862
312.037	15.829	1384.947	1062.956
313.052	15.916	1383.842	1062.563
314.066	15.938	1382.886	1061.870
315.081	15.828	1381.719	1060.190
316.095	15.847	1380.673	1059.414
317.110	15.825	1379.480	1058.265
318.125	15.750	1379.170	1057.464
319.139	15.810	1377.939	1056.803
320.154	15.834	1377.103	1056.218
321.168	15.775	1376.264	1055.113
322.183	15.867	1375.050	1054.663
323.197	15.852	1374.035	1053.695
324.212	15.871	1373.481	1053.295
325.227	15.986	1371.940	1052.744
326.241	15.971	1371.440	1052.173
327.256	15.939	1370.717	1051.323
328.270	15.984	1369.912	1050.897
329.285	16.001	1368.882	1050.116
330.300	15.893	1368.427	1049.002
331.314	15.917	1367.392	1048.264
332.329	15.950	1366.089	1047.378
333.343	15.971	1365.215	1046.749
334.358	16.074	1364.173	1046.496
335.373	16.047	1363.566	1045.767
336.387	16.015	1362.808	1044.893
337.402	16.135	1361.953	1044.890
338.416	16.228	1361.003	1044.644
339.431	16.134	1360.425	1043.528
340.446	16.167	1360.094	1043.384
341.460	16.123	1359.085	1042.247
342.475	16.171	1358.112	1041.708
343.489	16.222	1357.462	1041.432
344.504	16.349	1355.897	1040.918
345.519	16.284	1355.588	1040.189
346.533	16.372	1354.326	1039.669
347.548	16.322	1353.734	1038.815
348.562	16.395	1352.416	1038.164
349.577	16.511	1351.552	1038.123
350.592	16.399	1350.792	1036.759
351.606	16.306	1350.689	1036.015
352.621	16.397	1349.066	1035.237
353.635	16.380	1347.653	1033.955
354.650	16.363	1346.955	1033.223
355.665	16.314	1346.500	1032.485
356.679	16.335	1344.987	1031.364
357.694	16.392	1344.059	1030.909
358.708	16.430	1342.979	1030.219
359.723	16.507	1341.628	1029.560
360.738	16.522	1340.993	1029.071
361.752	16.461	1339.696	1027.614
362.767	16.413	1338.696	1026.469
363.781	16.488	1337.774	1026.123
364.796	16.609	1337.158	1026.295
365.810	16.592	1336.549	1025.633
366.825	16.538	1335.635	1024.515
367.840	16.551	1335.108	1024.100
368.854	16.684	1334.143	1024.071
369.869	16.794	1333.439	1024.105
370.883	16.700	1333.099	1023.185
371.898	16.785	1331.709	1022.543
372.913	16.686	1331.381	1021.600
373.927	16.750	1330.812	1021.461
374.942	16.779	1329.510	1020.544
375.956	16.708	1329.424	1019.963
376.971	16.785	1328.039	1019.270
377.986	16.814	1327.023	1018.576
379.000	16.704	1326.619	1017.514
380.015	16.760	1325.769	1017.109
381.029	16.885	1324.882	1017.092
382.044	16.950	1324.264	1016.912
383.059	16.817	1323.881	1015.736
384.073	16.849	1323.348	1015.429
385.088	16.914	1322.059	1014.737
386.102	16.979	1321.435	1014.559
387.117	16.950	1320.664	1013.700
388.132	17.077	1319.395	1013.395
389.146	16.955	1319.149	1012.389
390.161	16.904	1318.290	1011.338
391.175	16.978	1317.367	1010.981
392.190	16.983	1316.513	1010.267
393.205	16.997	1316.026	1009.887
394.219	17.003	1314.684	1008.802
395.234	17.115	1313.383	1008.377
396.248	17.005	1312.489	1006.950
397.263	16.976	1311.019	1005.560
398.278	17.072	1309.363	1004.771
399.292	17.092	1308.398	1004.061
400.307	17.030	1307.697	1003.066
401.321	17.014	1306.378	1001.872
402.336	17.045	1305.132	1001.010
403.350	17.098	1304.248	1000.554
404.365	17.080	1303.353	999.677
405.380	17.100	1302.508	999.054
406.394	17.065	1301.885	998.285
407.409	17.101	1301.216	997.894
408.423	17.122	1300.802	997.614
409.438	17.267	1299.829	997.630
410.453	17.344	1299.056	997.397
411.467	17.257	1298.465	996.349
412.482	17.354	1297.634	996.189
413.496	17.341	1297.216	995.706
414.511	17.389	1296.445	995.304
415.526	17.444	1295.301	994.658
416.540	17.473	1294.437	994.080
417.555	17.377	1293.967	993.070
418.569	17.419	1293.686	993.010
419.584	17.603	1292.467	993.059
420.599	17.516	1292.203	992.261
421.613	74.290	1317.582	1337.170
422.628	73.658	1321.256	1337.295
