DTS Sentinel unit serial number:	SN413079Multiplexer serial number:	ORYXHardware model number:	OX4-SRSoftware version number:	ORYX F/W v4.00 Oryx Data Collector v3.7.2.0data status	okinstallation	princeton_trtdifferential loss correction	single-endedforward channel	channel 4reverse channel	N/Adate	2019/09/17time	22:05:34forward acquisition time	60.00reverse acquisition time	0.00gamma	496.2192k internal	0.2329k external	0.2329temperature offset calibration	0.9992default loss term (dB/km)	0.3790temperature slope calibration	1.0000multiplexer offset coefficient	1.0000multiplexer slope coefficient	1.0000fibre end	0.00T internal ref (°C)	25.94T ext. ref 1 (°C)	0.18T ext. ref 2 (°C)	18.80length (m)	temperature (°C)	Stokes	anti-Stokes-747.200	-114.614	-0.334	-0.064
-746.185	800.000	0.024	0.073
-745.171	-173.704	0.365	0.011
-744.156	-200.000	0.020	0.325
-743.142	13.531	-0.068	0.053
-742.127	117.506	0.072	-0.090
-741.112	229.010	0.105	-0.172
-740.098	131.668	0.165	0.214
-739.083	-200.000	0.095	0.432
-738.069	-41.786	-0.059	-0.030
-737.054	-41.421	0.102	0.053
-736.039	-200.000	0.005	0.064
-735.025	-83.846	0.393	0.126
-734.010	800.000	-0.085	-0.260
-732.996	800.000	0.032	-0.105
-731.981	-113.782	-0.107	0.021
-730.966	800.000	-0.071	0.218
-729.952	-17.857	-0.311	0.196
-728.937	-65.986	-0.397	-0.160
-727.923	25.464	0.135	0.113
-726.908	126.503	0.147	-0.188
-725.894	-200.000	0.004	-0.350
-724.879	-151.788	-0.265	-0.020
-723.864	-200.000	0.013	0.065
-722.850	10.672	-0.042	-0.032
-721.835	138.466	-0.040	-0.053
-720.821	-200.000	-0.022	-0.146
-719.806	-102.448	-0.199	0.048
-718.791	-200.000	0.003	-0.092
-717.777	800.000	-0.122	0.401
-716.762	509.463	-0.102	-0.239
-715.748	615.665	-0.153	0.386
-714.733	-200.000	-0.024	-0.265
-713.718	173.965	-0.101	-0.146
-712.704	800.000	0.046	0.174
-711.689	98.681	0.156	0.181
-710.675	63.332	-0.232	-0.234
-709.660	155.117	0.307	0.425
-708.645	-200.000	-0.031	-0.223
-707.631	-200.000	-0.035	-0.223
-706.616	-99.998	-0.133	0.033
-705.602	-94.593	-0.040	0.011
-704.587	187.588	-0.113	0.170
-703.572	185.442	0.086	-0.128
-702.558	157.056	0.068	0.095
-701.543	-92.666	-0.014	0.004
-700.529	417.618	0.118	0.253
-699.514	-101.141	-0.147	-0.036
-698.499	-147.111	0.203	0.017
-697.485	-76.056	-0.234	-0.083
-696.470	-200.000	-0.013	0.137
-695.456	-67.199	-0.114	-0.045
-694.441	800.000	0.010	0.036
-693.426	-128.143	-0.144	0.021
-692.412	35.627	-0.079	0.070
-691.397	167.736	0.060	-0.086
-690.383	278.451	-0.079	-0.141
-689.368	800.000	0.035	-0.149
-688.354	167.688	0.073	-0.105
-687.339	143.533	-0.161	0.215
-686.324	-200.000	-0.019	-0.240
-685.310	23.515	-0.117	-0.096
-684.295	56.772	-0.073	0.071
-683.281	800.000	0.033	0.098
-682.266	-151.160	-0.322	0.024
-681.251	129.840	-0.061	-0.078
-680.237	-95.739	0.065	0.017
-679.222	800.000	0.040	0.114
-678.208	185.907	-0.052	0.077
-677.193	33.800	0.127	0.111
-676.178	800.000	0.054	0.227
-675.164	-200.000	-0.469	-0.002
-674.149	394.537	-0.083	0.173
-673.135	-200.000	0.055	0.290
-672.120	-200.000	-0.022	0.111
-671.105	275.282	0.052	0.093
-670.091	-105.907	-0.401	0.091
-669.076	-77.352	0.091	0.032
-668.062	-67.947	-0.110	-0.043
-667.047	127.537	-0.274	-0.349
-666.032	83.016	0.099	-0.108
-665.018	-112.821	0.382	0.076
-664.003	-51.737	0.333	-0.156
-662.989	48.003	-0.299	-0.281
-661.974	800.000	0.026	-0.098
-660.959	109.853	-0.243	0.293
-659.945	-41.746	0.250	-0.129
-658.930	-200.000	-0.011	-0.386
-657.916	-142.036	0.206	-0.021
-656.901	-52.118	-0.123	-0.057
-655.886	-137.648	-0.215	-0.024
-654.872	-200.000	-0.045	0.220
-653.857	566.897	0.095	-0.231
-652.843	152.164	-0.153	-0.210
-651.828	-80.408	0.296	0.099
-650.814	-32.992	-0.205	0.114
-649.799	-129.722	-0.382	-0.053
-648.784	258.625	0.075	0.129
-647.770	800.000	-0.076	0.216
-646.755	800.000	-0.017	-0.054
-645.741	-54.055	0.540	-0.247
-644.726	-94.619	0.230	0.063
-643.711	-110.700	-0.537	0.111
-642.697	38.297	-0.117	0.104
-641.682	-200.000	0.045	-0.240
-640.668	709.586	-0.106	-0.280
-639.653	-97.678	-0.398	-0.103
-638.638	-85.723	-0.090	0.028
-637.624	771.522	-0.129	-0.351
-636.609	-44.084	0.476	0.240
-635.595	-31.111	-0.127	-0.072
-634.580	-200.000	0.021	0.221
-633.565	122.782	0.167	0.210
-632.551	344.563	-0.119	0.234
-631.536	24.040	-0.254	0.210
-630.522	-200.000	0.020	-0.124
-629.507	486.032	-0.154	0.352
-628.492	-54.624	0.301	-0.137
-627.478	800.000	-0.054	0.159
-626.463	800.000	0.003	0.011
-625.449	-200.000	0.033	-0.344
-624.434	-103.354	-0.207	-0.049
-623.419	-129.945	0.292	0.040
-622.405	453.147	-0.142	-0.314
-621.390	22.463	0.133	0.109
-620.376	-48.238	-0.327	0.158
-619.361	-102.544	-0.279	-0.067
-618.346	101.888	-0.185	-0.216
-617.332	30.913	-0.279	-0.239
-616.317	249.319	-0.207	-0.352
-615.303	-123.306	0.210	0.034
-614.288	278.893	0.149	-0.266
-613.273	800.000	0.013	0.046
-612.259	-150.168	0.300	0.023
-611.244	-107.852	-0.372	-0.081
-610.230	-85.984	-0.174	0.054
-609.215	-121.261	0.112	0.019
-608.201	-62.798	0.386	-0.160
-607.186	-199.288	-0.141	-0.001
-606.171	193.892	0.246	0.373
-605.157	-40.633	-0.154	-0.080
-604.142	-38.292	0.239	0.127
-603.128	20.481	0.145	0.117
-602.113	800.000	-0.039	-0.110
-601.098	-200.000	-0.012	-0.082
-600.084	800.000	-0.058	-0.206
-599.069	-131.094	0.204	0.027
-598.055	468.178	-0.044	-0.099
-597.040	114.262	-0.258	-0.314
-596.025	-140.848	0.112	-0.012
-595.011	-136.168	-0.167	-0.020
-593.996	-49.702	-0.082	0.039
-592.982	-14.197	-0.232	-0.150
-591.967	-47.018	0.024	-0.012
-590.952	-53.180	-0.133	0.061
-589.938	-83.055	-0.159	0.051
-588.923	-123.615	0.314	-0.050
-587.909	800.000	-0.080	0.267
-586.894	151.441	-0.197	0.268
-585.879	-200.000	-0.010	0.081
-584.865	50.072	-0.138	-0.130
-583.850	-200.000	-0.039	-0.329
-582.836	277.093	-0.102	-0.181
-581.821	-39.117	0.173	-0.091
-580.806	-3.508	0.248	0.173
-579.792	76.529	0.302	0.321
-578.777	-5.872	0.292	-0.200
-577.763	52.810	0.102	0.097
-576.748	-200.000	0.018	0.163
-575.733	141.272	0.133	0.176
-574.719	800.000	0.116	0.439
-573.704	547.225	-0.109	0.261
-572.690	-104.935	-0.319	0.073
-571.675	32.078	-0.331	0.285
-570.661	33.340	0.101	0.088
-569.646	124.551	-0.183	0.230
-568.631	643.932	-0.084	0.215
-567.617	800.000	-0.031	-0.107
-566.602	-200.000	0.006	0.089
-565.588	-200.000	0.033	-0.362
-564.573	-30.417	0.041	-0.023
-563.558	667.594	0.017	0.044
-562.544	-200.000	-0.003	-0.026
-561.529	-200.000	0.008	-0.138
-560.515	412.794	0.125	0.265
-559.500	464.682	-0.079	0.177
-558.485	21.522	0.166	-0.135
-557.471	-101.702	-0.151	0.037
-556.456	-152.329	0.255	-0.018
-555.442	-68.251	0.098	-0.038
-554.427	-45.467	0.304	-0.151
-553.412	-149.746	-0.282	0.022
-552.398	-25.585	0.323	-0.191
-551.383	772.876	-0.079	0.216
-550.369	-147.274	-0.488	-0.042
-549.354	66.293	-0.025	-0.026
-548.339	-200.000	0.048	-0.283
-547.325	-116.109	0.260	0.048
-546.310	-89.920	0.290	-0.085
-545.296	-200.000	-0.045	-0.258
-544.281	-200.000	-0.035	0.460
-543.266	-149.232	-0.146	-0.012
-542.252	-41.026	0.101	0.052
-541.237	149.635	-0.096	0.129
-540.223	-187.228	-0.164	-0.002
-539.208	181.292	-0.100	0.146
-538.193	797.898	0.049	-0.136
-537.179	102.398	-0.322	0.377
-536.164	-114.643	-0.116	-0.022
-535.150	-62.200	0.245	0.102
-534.135	143.399	0.094	0.125
-533.121	91.614	0.123	0.138
-532.106	800.000	0.063	0.247
-531.091	-94.640	0.259	-0.070
-530.077	519.893	-0.070	-0.164
-529.062	-7.314	-0.282	-0.191
-528.048	-33.661	0.209	0.115
-527.033	-98.580	0.040	0.010
-526.018	360.210	-0.138	-0.275
-525.004	800.000	0.045	-0.182
-523.989	-46.494	-0.085	-0.042
-522.975	45.814	-0.080	-0.074
-521.960	291.497	0.037	0.066
-520.945	-32.992	-0.026	-0.015
-519.931	-17.357	-0.308	0.193
-518.916	-65.190	-0.174	-0.070
-517.902	2.172	0.148	0.107
-516.887	505.721	-0.042	0.098
-515.872	-200.000	0.029	-0.153
-514.858	-27.106	-0.155	-0.091
-513.843	-200.000	0.001	0.047
-512.829	-60.550	0.221	0.094
-511.814	106.901	-0.156	0.185
-510.799	-89.622	-0.055	0.016
-509.785	168.712	0.092	-0.131
-508.770	-77.088	-0.366	0.128
-507.756	-39.357	0.288	-0.151
-506.741	800.000	0.016	0.069
-505.726	443.317	-0.013	0.028
-504.712	61.317	-0.150	-0.149
-503.697	-200.000	0.021	-0.180
-502.683	281.150	-0.081	-0.144
-501.668	55.813	-0.320	0.309
-500.653	800.000	-0.020	0.066
-499.639	-172.166	-0.093	-0.003
-498.624	73.596	-0.015	-0.016
-497.610	312.853	0.149	0.279
-496.595	-153.912	0.036	0.002
-495.581	-59.314	-0.319	-0.137
-494.566	12.906	0.279	-0.215
-493.551	305.299	0.042	0.077
-492.537	-120.835	-0.150	-0.025
-491.522	731.815	-0.107	0.286
-490.508	-200.000	0.081	-0.417
-489.493	800.000	-0.028	0.092
-488.478	35.000	-0.245	0.214
-487.464	-99.800	0.124	-0.031
-486.449	-200.000	0.021	-0.167
-485.435	800.000	0.046	-0.142
-484.420	-200.000	0.063	-0.285
-483.405	80.024	-0.116	0.125
-482.391	112.587	0.166	-0.200
-481.376	-95.131	-0.292	-0.079
-480.362	-88.568	-0.142	-0.042
-479.347	63.584	0.088	0.088
-478.332	234.431	0.103	-0.170
-477.318	-200.000	0.002	0.143
-476.303	31.592	-0.277	0.237
-475.289	800.000	-0.074	-0.269
-474.274	229.386	-0.106	-0.172
-473.259	-18.138	0.318	0.198
-472.245	800.000	-0.004	-0.016
-471.230	-49.391	-0.249	0.118
-470.216	-51.478	0.241	0.112
-469.201	69.773	0.084	0.086
-468.186	-2.728	-0.065	-0.045
-467.172	259.927	0.074	-0.127
-466.157	800.000	-0.019	-0.072
-465.143	-9.990	-0.195	-0.129
-464.128	76.127	0.137	0.145
-463.113	-139.011	-0.063	0.007
-462.099	-116.535	-0.400	-0.073
-461.084	800.000	0.023	-0.064
-460.070	-43.215	0.149	0.075
-459.055	226.896	0.068	-0.109
-458.040	-9.396	-0.061	0.041
-457.026	-75.363	-0.087	0.031
-456.011	800.000	-0.040	-0.159
-454.997	800.000	-0.050	0.218
-453.982	-94.875	0.289	0.078
-452.968	-191.315	0.175	0.002
-451.953	-120.021	-0.222	0.038
-450.938	-200.000	-0.002	-0.228
-449.924	70.162	0.088	-0.090
-448.909	-38.510	-0.383	0.202
-447.895	-144.124	0.244	0.023
-446.880	-200.000	-0.011	-0.062
-445.865	138.925	0.141	-0.184
-444.851	145.871	0.166	0.221
-443.836	-14.950	-0.255	-0.163
-442.822	139.725	-0.248	-0.326
-441.807	217.784	0.057	0.090
-440.792	66.460	0.334	0.338
-439.778	75.553	-0.170	0.178
-438.763	-200.000	0.019	0.277
-437.749	170.763	0.092	-0.131
-436.734	-200.000	-0.000	-0.078
-435.719	800.000	0.119	0.398
-434.705	-200.000	-0.057	0.273
-433.690	-37.818	0.229	0.121
-432.676	-200.000	0.057	-0.338
-431.661	221.695	0.062	0.100
-430.646	167.104	0.109	-0.154
-429.632	341.248	-0.049	-0.095
-428.617	-18.187	0.155	-0.096
-427.603	-110.603	0.079	0.016
-426.588	-77.969	0.157	-0.054
-425.573	-118.827	-0.105	0.018
-424.559	800.000	0.057	-0.207
-423.544	-108.750	0.249	0.053
-422.530	26.030	-0.235	-0.195
-421.515	-200.000	0.010	0.331
-420.500	113.422	0.128	0.155
-419.486	800.000	-0.129	0.363
-418.471	8.109	0.242	0.181
-417.457	-200.000	0.013	-0.116
-416.442	800.000	0.061	0.214
-415.428	800.000	-0.017	-0.060
-414.413	384.618	0.078	0.160
-413.398	-53.179	-0.245	-0.112
-412.384	93.135	-0.236	-0.265
-411.369	-113.949	0.351	0.068
-410.355	-133.421	0.093	-0.012
-409.340	800.000	0.056	0.183
-408.325	23.489	-0.156	-0.128
-407.311	-84.162	0.140	-0.044
-406.296	-124.223	0.341	0.053
-405.282	-200.000	0.028	-0.162
-404.267	82.094	0.120	0.129
-403.252	209.868	-0.130	0.203
-402.238	-39.309	-0.385	0.201
-401.223	-24.340	-0.088	-0.052
-400.209	263.372	0.064	-0.110
-399.194	97.262	-0.249	0.284
-398.179	4.079	0.326	0.237
-397.165	588.408	-0.039	0.095
-396.150	124.428	0.139	0.174
-395.136	-163.138	-0.052	-0.002
-394.121	49.702	0.134	0.125
-393.106	-118.510	0.131	-0.023
-392.092	-47.255	0.215	0.104
-391.077	-2.833	0.259	0.180
-390.063	433.576	0.064	0.138
-389.048	-200.000	-0.007	-0.137
-388.033	-46.156	-0.192	-0.094
-387.019	456.199	0.085	0.188
-386.004	358.589	-0.036	-0.072
-384.990	29.908	-0.145	-0.123
-383.975	-77.263	-0.175	0.061
-382.960	33.591	-0.083	-0.071
-381.946	788.896	0.122	0.333
-380.931	800.000	0.078	0.254
-379.917	90.270	0.252	-0.280
-378.902	-126.865	0.416	-0.061
-377.888	179.090	-0.168	0.244
-376.873	186.014	-0.106	-0.156
-375.858	800.000	0.050	-0.192
-374.844	800.000	0.081	0.343
-373.829	162.055	0.098	0.137
-372.815	240.552	-0.247	0.408
-371.800	-82.716	-0.349	0.112
-370.785	76.088	-0.110	0.115
-369.771	178.126	-0.107	-0.154
-368.756	-111.845	-0.080	0.016
-367.742	-84.181	0.406	0.128
-366.727	-131.047	-0.238	0.031
-365.712	57.971	-0.113	0.109
-364.698	-116.337	0.064	0.012
-363.683	-32.739	0.180	-0.100
-362.669	-42.508	-0.150	0.076
-361.654	-26.737	0.228	0.132
-360.639	-200.000	-0.034	0.365
-359.625	-200.000	-0.044	0.386
-358.610	-73.382	0.277	-0.100
-357.596	34.562	0.344	0.298
-356.581	9.689	0.204	0.153
-355.566	443.215	-0.078	0.170
-354.552	-109.898	0.216	-0.045
-353.537	-83.229	-0.191	-0.061
-352.523	-32.322	-0.430	-0.238
-351.508	29.420	-0.246	-0.207
-350.493	-173.244	-0.057	-0.002
-349.479	55.641	0.032	-0.031
-348.464	418.917	-0.056	-0.118
-347.450	-109.098	-0.296	0.062
-346.435	64.782	0.076	0.076
-345.420	211.178	-0.114	-0.177
-344.406	80.511	0.181	0.194
-343.391	-200.000	0.053	-0.326
-342.377	188.815	-0.176	-0.261
-341.362	-200.000	0.033	0.154
-340.348	-59.447	-0.208	-0.089
-339.333	-200.000	0.104	-0.538
-338.318	800.000	-0.078	-0.326
-337.304	-159.253	0.205	-0.011
-336.289	53.745	0.235	-0.224
-335.275	-17.211	-0.204	-0.128
-334.260	-16.169	-0.345	0.217
-333.245	156.848	0.159	0.217
-332.231	-200.000	-0.007	0.174
-331.216	340.215	0.014	0.027
-330.202	19.709	0.196	-0.156
-329.187	167.925	-0.027	-0.039
-328.172	-200.000	-0.006	-0.235
-327.158	-49.853	0.079	-0.037
-326.143	800.000	-0.091	0.267
-325.129	123.609	0.144	0.179
-324.114	-11.501	0.332	-0.216
-323.099	-200.000	-0.052	-0.283
-322.085	165.660	0.144	0.202
-321.070	-122.493	-0.255	-0.041
-320.056	-107.733	-0.106	0.023
-319.041	-200.000	0.037	0.316
-318.026	-200.000	0.008	0.131
-317.012	110.862	0.149	0.178
-315.997	159.828	0.130	0.180
-314.983	-200.000	-0.015	-0.101
-313.968	121.773	0.099	-0.123
-312.953	7.186	0.090	-0.067
-311.939	-122.638	0.037	-0.006
-310.924	446.065	0.157	-0.342
-309.910	-200.000	-0.011	-0.271
-308.895	-171.748	0.164	-0.005
-307.880	-200.000	0.057	-0.279
-306.866	-200.000	-0.037	0.214
-305.851	95.165	0.252	0.284
-304.837	-157.736	-0.521	-0.031
-303.822	-200.000	-0.007	-0.224
-302.807	-16.328	-0.147	-0.092
-301.793	477.334	0.106	0.236
-300.778	27.383	-0.161	-0.134
-299.764	800.000	0.066	-0.243
-298.749	-101.321	0.182	-0.044
-297.735	424.470	0.072	-0.153
-296.720	800.000	-0.052	-0.159
-295.705	-165.550	0.212	-0.009
-294.691	-96.741	0.049	-0.013
-293.676	-165.479	-0.269	0.012
-292.662	21.855	-0.102	-0.082
-291.647	75.682	0.112	0.117
-290.632	721.050	-0.022	-0.059
-289.618	143.787	0.034	0.044
-288.603	-44.471	0.069	0.034
-287.589	-104.233	0.456	0.105
-286.574	800.000	0.056	-0.176
-285.559	102.388	0.016	0.019
-284.545	402.647	-0.169	-0.351
-283.530	-200.000	-0.015	-0.137
-282.516	-200.000	-0.012	0.065
-281.501	35.957	0.187	0.163
-280.486	-200.000	-0.017	0.342
-279.472	-200.000	-0.073	-0.428
-278.457	-35.354	0.172	-0.092
-277.443	244.255	-0.207	-0.344
-276.428	-53.463	-0.066	-0.030
-275.413	33.716	-0.061	-0.052
-274.399	118.070	-0.208	-0.254
-273.384	-200.000	0.023	-0.171
-272.370	-115.334	-0.092	-0.017
-271.355	799.660	-0.047	0.129
-270.340	-93.135	0.188	-0.052
-269.326	509.194	-0.173	0.396
-268.311	-168.690	-0.087	-0.003
-267.297	99.483	0.039	-0.044
-266.282	269.498	-0.070	0.121
-265.267	800.000	-0.080	0.225
-264.253	-200.000	0.018	0.134
-263.238	198.854	-0.122	0.185
-262.224	3.823	0.297	0.215
-261.209	-8.683	0.308	0.204
-260.195	220.095	0.097	0.153
-259.180	-59.770	0.185	0.078
-258.165	800.000	-0.025	-0.070
-257.151	-46.450	-0.326	0.158
-256.136	-35.291	0.271	-0.146
-255.122	-56.679	0.318	0.139
-254.107	800.000	-0.102	-0.304
-253.092	-200.000	-0.080	-0.346
-252.078	550.808	0.016	-0.039
-251.063	-174.589	0.149	0.004
-250.049	-68.639	0.377	-0.144
-249.034	597.292	-0.217	-0.532
-248.019	800.000	0.066	-0.200
-247.005	193.638	-0.071	-0.107
-245.990	800.000	-0.008	-0.034
-244.976	-16.993	0.105	0.065
-243.961	175.887	-0.075	0.108
-242.946	-86.505	-0.290	0.088
-241.932	-2.613	0.070	-0.049
-240.917	10.891	-0.118	-0.089
-239.903	-66.033	-0.502	0.198
-238.888	-50.983	-0.121	0.056
-237.873	-60.082	-0.122	-0.051
-236.859	-200.000	0.002	-0.253
-235.844	-167.593	0.577	0.023
-234.830	-200.000	0.035	-0.316
-233.815	800.000	0.062	-0.173
-232.800	800.000	-0.038	-0.163
-231.786	55.305	0.071	-0.067
-230.771	-49.168	-0.044	-0.021
-229.757	-200.000	-0.084	-0.425
-228.742	581.277	0.074	0.180
-227.727	-21.764	-0.320	-0.192
-226.713	800.000	-0.038	0.147
-225.698	-200.000	0.031	-0.222
-224.684	123.120	-0.107	0.133
-223.669	-107.981	0.299	0.064
-222.655	281.717	-0.290	-0.513
-221.640	-156.931	0.130	0.008
-220.625	-40.675	-0.188	-0.096
-219.611	111.179	0.127	0.151
-218.596	-139.755	0.107	-0.011
-217.582	800.000	0.044	-0.170
-216.567	-71.677	-0.301	0.111
-215.552	-200.000	-0.021	-0.147
-214.538	800.000	0.042	-0.133
-213.523	-17.864	-0.196	-0.121
-212.509	-61.965	0.061	-0.025
-211.494	271.616	0.139	-0.241
-210.479	-125.583	0.248	-0.037
-209.465	-200.000	0.041	0.294
-208.450	-200.000	0.017	-0.169
-207.436	265.408	-0.113	0.194
-206.421	-17.445	0.148	-0.092
-205.406	800.000	0.092	0.372
-204.392	4.554	-0.151	0.109
-203.377	800.000	0.051	0.141
-202.363	-30.502	0.209	0.117
-201.348	54.466	-0.096	-0.091
-200.333	-76.348	0.301	0.104
-199.319	174.891	-0.215	-0.306
-198.304	215.034	-0.239	-0.373
-197.290	-83.237	-0.163	0.052
-196.275	-52.999	-0.076	-0.034
-195.260	-200.000	0.036	0.218
-194.246	-37.939	0.176	0.092
-193.231	-124.903	-0.221	0.034
-192.217	-200.000	-0.062	-0.390
-191.202	-200.000	-0.004	-0.082
-190.187	-133.311	-0.055	0.007
-189.173	-77.362	0.241	-0.082
-188.158	-55.905	0.119	0.052
-187.144	-200.000	0.021	0.303
-186.129	-123.618	0.139	-0.022
-185.114	-68.700	0.204	0.078
-184.100	800.000	0.049	-0.207
-183.085	63.954	-0.135	-0.134
-182.071	-60.505	-0.037	-0.016
-181.056	119.139	-0.213	-0.259
-180.042	-70.118	-0.230	-0.086
-179.027	-72.539	-0.100	-0.036
-178.012	270.899	0.165	-0.286
-176.998	291.001	0.142	0.255
-175.983	124.818	-0.191	0.237
-174.969	-127.963	0.239	-0.034
-173.954	800.000	-0.060	0.239
-172.939	-155.787	-0.146	0.009
-171.925	-181.806	0.333	0.006
-170.910	-73.933	0.439	-0.157
-169.896	-200.000	-0.073	0.365
-168.881	-200.000	0.023	-0.146
-167.866	-130.498	0.105	-0.014
-166.852	56.718	-0.206	0.198
-165.837	-200.000	0.000	0.002
-164.823	-70.081	0.272	-0.102
-163.808	-200.000	-0.046	-0.239
-162.793	-144.590	-0.404	0.037
-161.779	7.562	-0.112	0.082
-160.764	-15.291	-0.143	-0.090
-159.750	-94.665	-0.121	0.032
-158.735	-18.580	0.291	0.179
-157.720	-15.314	-0.157	-0.099
-156.706	61.748	-0.094	0.092
-155.691	72.427	-0.167	0.171
-154.677	-71.855	0.089	-0.032
-153.662	110.998	-0.088	0.105
-152.647	-52.475	-0.225	-0.103
-151.633	-31.987	0.346	0.191
-150.618	-200.000	0.011	0.062
-149.604	-191.378	0.129	-0.001
-148.589	-200.000	-0.315	-0.001
-147.574	-101.675	0.090	-0.021
-146.560	-200.000	-0.032	0.239
-145.545	-153.490	-0.149	-0.010
-144.531	-95.391	-0.333	0.088
-143.516	800.000	0.084	-0.298
-142.502	-38.982	-0.284	-0.147
-141.487	-63.225	0.202	-0.082
-140.472	-161.116	0.516	-0.027
-139.458	150.184	0.131	0.175
-138.443	-66.484	0.181	0.071
-137.429	-200.000	0.038	0.271
-136.414	59.152	-0.044	-0.042
-135.399	-200.000	0.033	-0.263
-134.385	21.934	-0.133	-0.106
-133.370	81.294	0.157	0.167
-132.356	111.849	0.181	0.215
-131.341	-200.000	-0.004	-0.108
-130.326	-200.000	0.017	0.439
-129.312	103.809	0.172	-0.198
-128.297	-77.362	-0.164	-0.056
-127.283	800.000	0.079	0.290
-126.268	-112.125	0.310	-0.061
-125.253	-200.000	0.008	-0.268
-124.239	-3.330	-0.410	-0.281
-123.224	-89.322	-0.147	-0.043
-122.210	-200.000	-0.022	-0.157
-121.195	-200.000	0.028	-0.348
-120.180	-200.000	-0.027	-0.249
-119.166	-123.037	-0.284	-0.045
-118.151	39.840	-0.250	0.221
-117.137	-200.000	-0.026	-0.218
-116.122	-95.484	-0.320	0.084
-115.107	-200.000	-0.043	-0.225
-114.093	-65.281	0.229	0.090
-113.078	-143.430	-0.165	0.015
-112.064	22.699	0.096	-0.077
-111.049	-82.857	-0.322	-0.102
-110.034	800.000	-0.079	-0.265
-109.020	-200.000	0.044	-0.281
-108.005	-6.526	0.319	0.213
-106.991	-99.810	-0.336	-0.083
-105.976	-40.672	-0.357	-0.182
-104.962	55.280	0.051	-0.049
-103.947	382.817	0.088	0.177
-102.932	-200.000	-0.044	0.232
-101.918	438.676	0.054	0.115
-100.903	-78.808	-0.153	-0.051
-99.889	800.000	-0.041	0.130
-98.874	-152.302	0.152	-0.011
-97.859	-200.000	-0.074	-0.350
-96.845	-200.000	0.014	0.098
-95.830	-146.033	-0.104	-0.009
-94.816	800.000	0.029	-0.091
-93.801	-158.749	0.090	-0.005
-92.786	-124.527	0.405	0.062
-91.772	-24.315	0.051	0.030
-90.757	-57.827	-0.221	0.095
-89.743	770.463	-0.021	0.056
-88.728	-200.000	0.037	0.328
-87.713	-42.227	0.160	-0.080
-86.699	79.785	0.070	-0.074
-85.684	13.613	0.184	-0.140
-84.670	-200.000	-0.064	-0.341
-83.655	275.539	0.175	-0.305
-82.640	87.537	0.093	0.101
-81.626	77.774	-0.157	-0.165
-80.611	800.000	-0.085	0.317
-79.597	-200.000	0.013	-0.138
-78.582	85.152	-0.156	0.168
-77.567	800.000	-0.122	0.334
-76.553	-48.699	0.371	-0.175
-75.538	33.384	0.047	0.040
-74.524	44.520	0.174	-0.157
-73.509	-200.000	-0.036	-0.448
-72.494	96.916	-0.082	0.093
-71.480	-110.571	0.379	0.077
-70.465	-78.903	-0.248	-0.083
-69.451	81.734	-0.282	0.299
-68.436	140.530	-0.118	0.153
-67.422	800.000	0.097	0.305
-66.407	-38.204	-0.162	0.084
-65.392	-200.000	0.002	-0.143
-64.378	79.903	-0.199	0.209
-63.363	-122.242	-0.315	-0.051
-62.349	-200.000	-0.010	0.186
-61.334	159.134	-0.939	-1.280
-60.319	139.492	0.565	0.730
-59.305	273.124	-0.415	-0.719
-58.290	397.309	0.540	1.108
-57.276	309.707	0.834	1.529
-56.261	-200.000	117.980	609.296
-55.246	412.614	1521.330	3169.908
-54.232	146.150	2683.849	3530.649
-53.217	87.958	2295.929	2495.818
-52.203	31.902	2042.547	1724.824
-51.188	27.801	1957.786	1616.944
-50.173	26.464	1941.352	1591.553
-49.159	42.001	2007.282	1785.535
-48.144	41.151	2022.426	1791.289
-47.130	28.135	1977.123	1635.636
-46.115	25.958	1966.198	1607.156
-45.100	25.948	1963.237	1604.578
-44.086	25.882	1961.295	1602.340
-43.071	25.836	1958.609	1599.673
-42.057	25.778	1956.661	1597.504
-41.042	25.846	1954.569	1596.339
-40.027	25.797	1953.127	1594.662
-39.013	25.924	1950.516	1593.592
-37.998	25.822	1948.959	1591.352
-36.984	25.818	1947.330	1589.931
-35.969	25.827	1945.493	1588.443
-34.954	25.825	1943.721	1586.920
-33.940	25.943	1942.112	1586.574
-32.925	25.967	1940.918	1585.748
-31.911	25.963	1939.389	1584.400
-30.896	25.946	1937.843	1582.925
-29.881	25.931	1936.362	1581.524
-28.867	25.983	1934.935	1580.751
-27.852	25.974	1933.339	1579.310
-26.838	26.018	1931.504	1578.130
-25.823	26.030	1929.314	1576.385
-24.809	25.972	1927.677	1574.479
-23.794	26.020	1925.633	1573.163
-22.779	26.091	1923.632	1572.083
-21.765	26.008	1922.397	1570.292
-20.750	26.020	1920.282	1568.601
-19.736	25.958	1919.422	1567.300
-18.721	25.950	1917.691	1565.751
-17.706	25.944	1916.162	1564.392
-16.692	25.985	1914.471	1563.304
-15.677	25.964	1912.917	1561.791
-14.663	25.898	1912.617	1560.917
-13.648	25.967	1910.299	1559.554
-12.633	25.853	1910.092	1558.340
-11.619	25.892	1908.710	1557.484
-10.604	25.968	1906.960	1556.656
-9.590	25.933	1905.358	1554.980
-8.575	25.979	1903.719	1553.978
-7.560	25.880	1902.808	1552.320
-6.546	25.949	1901.311	1551.638
-5.531	25.898	1900.774	1550.698
-4.517	25.968	1898.760	1549.594
-3.502	25.962	1897.814	1548.710
-2.487	25.908	1896.806	1547.363
-1.473	25.968	1895.562	1546.798
-0.458	25.957	1890.848	1542.800
0.556	23.955	1870.275	1512.517
1.571	19.181	1851.498	1456.916
2.586	15.101	1872.122	1438.043
3.600	14.013	1906.005	1454.420
4.615	13.780	1899.606	1447.376
5.629	10.725	1802.746	1348.129
6.644	4.255	1691.068	1213.988
7.659	0.543	1657.104	1160.989
8.673	0.224	1654.144	1156.359
9.688	0.262	1652.904	1155.681
10.702	0.182	1651.657	1154.099
11.717	0.043	1648.138	1150.470
12.731	0.514	1646.407	1152.761
13.746	5.582	1656.994	1198.955
14.761	12.925	1671.258	1265.704
15.775	16.609	1677.424	1298.583
16.790	16.808	1676.705	1299.440
17.804	15.902	1673.859	1290.179
18.819	14.924	1670.719	1280.169
19.834	14.381	1668.401	1274.125
20.848	14.022	1666.931	1270.142
21.863	13.904	1664.775	1267.493
22.877	13.579	1664.044	1264.345
23.892	13.388	1662.244	1261.404
24.907	13.249	1661.142	1259.400
25.921	13.255	1660.220	1258.632
26.936	13.256	1658.991	1257.596
27.950	13.257	1658.270	1256.947
28.965	13.328	1657.886	1257.083
29.980	13.395	1656.867	1256.709
30.994	13.467	1656.131	1256.590
32.009	13.397	1655.314	1255.324
33.023	13.463	1654.044	1254.753
34.038	13.478	1653.230	1254.135
35.053	13.497	1652.087	1253.301
36.067	13.473	1651.277	1252.397
37.082	13.360	1650.389	1250.756
38.096	13.360	1648.977	1249.573
39.111	13.479	1647.839	1249.502
40.126	13.400	1647.723	1248.707
41.140	13.430	1646.353	1247.782
42.155	13.309	1645.145	1245.850
43.169	13.284	1643.667	1244.427
44.184	13.280	1642.523	1243.421
45.199	13.287	1641.400	1242.513
46.213	13.286	1640.417	1241.657
47.228	13.233	1639.485	1240.437
48.242	13.345	1637.907	1239.976
49.257	13.355	1636.827	1239.123
50.271	13.347	1635.651	1238.065
51.286	13.288	1634.710	1236.802
52.301	13.294	1632.892	1235.359
53.315	13.316	1631.758	1234.556
54.330	13.341	1630.023	1233.321
55.344	13.335	1628.131	1231.734
56.359	13.197	1627.471	1230.101
57.374	13.308	1625.881	1229.615
58.388	13.329	1624.729	1228.795
59.403	13.208	1623.895	1227.154
60.417	13.328	1621.954	1226.471
61.432	13.225	1620.942	1224.829
62.447	13.309	1619.529	1224.275
63.461	13.172	1619.246	1222.942
64.476	13.152	1617.866	1221.645
65.490	13.289	1616.305	1221.367
66.505	13.208	1615.390	1219.970
67.520	13.191	1614.578	1219.121
68.534	13.275	1613.282	1218.660
69.549	13.227	1612.101	1217.304
70.563	13.244	1610.737	1216.291
71.578	13.218	1609.403	1214.982
72.593	13.135	1608.809	1213.822
73.607	13.228	1607.551	1213.447
74.622	13.150	1606.465	1211.943
75.636	13.125	1605.511	1210.938
76.651	13.162	1604.540	1210.365
77.666	13.146	1603.662	1209.485
78.680	13.147	1602.380	1208.415
79.695	13.081	1601.458	1207.132
80.709	13.124	1600.328	1206.489
81.724	13.185	1599.864	1206.474
82.739	13.268	1598.672	1206.078
83.753	13.205	1597.808	1204.854
84.768	13.230	1596.898	1204.246
85.782	13.313	1596.113	1204.148
86.797	13.381	1595.201	1203.849
87.812	13.444	1593.802	1203.147
88.826	13.341	1592.765	1201.510
89.841	13.291	1591.587	1200.153
90.855	13.314	1590.543	1199.426
91.870	13.300	1589.850	1198.695
92.884	13.458	1588.814	1198.952
93.899	13.399	1587.552	1197.464
94.914	13.511	1585.821	1196.865
95.928	13.532	1585.029	1196.315
96.943	13.470	1583.596	1194.675
97.957	13.430	1582.221	1193.250
98.972	13.428	1580.897	1192.131
99.987	13.449	1579.140	1190.851
101.001	13.373	1578.288	1189.552
102.016	13.394	1576.327	1188.125
103.030	13.345	1575.655	1187.162
104.045	13.440	1574.194	1186.633
105.060	13.416	1572.562	1185.130
106.074	13.452	1571.224	1184.269
107.089	13.292	1570.022	1182.119
108.103	13.215	1568.080	1180.001
109.118	13.160	1566.850	1178.581
110.133	13.262	1565.513	1178.195
111.147	13.230	1564.073	1176.783
112.162	13.280	1562.736	1176.023
113.176	13.202	1561.186	1174.198
114.191	13.279	1560.251	1173.937
115.206	13.266	1559.128	1172.899
116.220	13.373	1557.728	1172.498
117.235	13.357	1556.210	1171.139
118.249	13.263	1555.449	1169.802
119.264	13.280	1553.905	1168.658
120.279	13.285	1552.894	1167.823
121.293	13.257	1550.807	1165.953
122.308	13.317	1549.253	1165.111
123.322	13.278	1548.004	1163.792
124.337	13.284	1546.575	1162.655
125.352	13.305	1545.023	1161.536
126.366	13.214	1544.813	1160.636
127.381	13.276	1542.910	1159.538
128.395	13.262	1541.887	1158.565
129.410	13.299	1540.719	1157.844
130.424	13.320	1539.083	1156.659
131.439	13.203	1538.183	1155.061
132.454	13.207	1536.813	1153.958
133.468	13.323	1535.396	1153.604
134.483	13.269	1534.198	1152.225
135.497	13.278	1532.726	1151.084
136.512	13.261	1531.488	1149.932
137.527	13.312	1529.765	1148.891
138.541	13.356	1528.328	1148.012
139.556	13.370	1526.394	1146.554
140.570	13.461	1524.965	1146.015
141.585	13.465	1524.102	1145.288
142.600	13.468	1523.094	1144.450
143.614	13.526	1521.929	1143.874
144.629	13.562	1520.848	1143.210
145.643	13.563	1519.312	1141.964
146.658	13.551	1517.956	1140.761
147.673	13.483	1516.775	1139.302
148.687	13.485	1515.266	1138.081
149.702	13.467	1513.833	1136.779
150.716	13.527	1511.622	1135.433
151.731	13.467	1510.735	1134.253
152.746	13.532	1509.682	1133.812
153.760	13.498	1508.090	1132.282
154.775	13.644	1506.739	1132.164
155.789	13.592	1505.642	1130.882
156.804	13.618	1504.321	1129.968
157.819	13.601	1503.165	1128.882
158.833	13.582	1501.966	1127.756
159.848	13.633	1500.934	1127.225
160.862	13.648	1499.868	1126.430
161.877	13.665	1498.629	1125.513
162.892	13.671	1497.402	1124.536
163.906	13.619	1496.096	1123.104
164.921	13.601	1494.711	1121.838
165.935	13.541	1494.369	1121.076
166.950	13.624	1492.904	1120.443
167.964	13.684	1491.666	1119.820
168.979	13.710	1490.593	1119.092
169.994	13.728	1489.699	1118.440
171.008	13.740	1488.622	1117.610
172.023	13.754	1487.368	1116.667
173.037	13.693	1486.787	1115.724
174.052	13.797	1485.217	1115.141
175.067	13.832	1484.631	1114.839
176.081	13.778	1482.627	1112.874
177.096	13.648	1481.922	1111.376
178.110	13.715	1480.813	1110.891
179.125	13.689	1479.655	1109.755
180.140	13.687	1478.551	1108.815
181.154	13.730	1477.431	1108.160
182.169	13.764	1476.111	1107.299
183.183	13.840	1474.502	1106.503
184.198	13.899	1473.400	1105.975
185.213	13.907	1472.639	1105.358
186.227	13.934	1471.738	1104.761
187.242	13.936	1470.365	1103.649
188.256	13.929	1469.741	1103.034
189.271	14.013	1468.219	1102.354
190.286	13.996	1467.494	1101.599
191.300	13.940	1466.448	1100.346
192.315	13.929	1465.160	1099.205
193.329	13.887	1464.284	1098.176
194.344	13.830	1462.950	1096.701
195.359	13.856	1461.963	1096.033
196.373	13.815	1461.333	1095.195
197.388	13.950	1459.912	1094.923
198.402	13.898	1458.741	1093.606
199.417	13.999	1457.630	1093.341
200.432	14.063	1456.839	1093.070
201.446	14.179	1455.438	1092.685
202.461	14.139	1454.762	1091.818
203.475	14.158	1453.638	1091.000
204.490	14.230	1452.354	1090.412
205.504	14.257	1450.950	1089.437
206.519	14.161	1449.966	1087.979
207.534	14.089	1449.358	1086.954
208.548	14.133	1447.661	1085.875
209.563	14.120	1447.013	1085.206
210.577	14.164	1446.045	1084.668
211.592	14.145	1445.179	1083.799
212.607	14.191	1444.489	1083.489
213.621	14.211	1443.787	1082.993
214.636	14.301	1442.279	1082.354
215.650	14.344	1441.400	1081.875
216.665	14.331	1440.810	1081.254
217.680	14.228	1440.025	1079.902
218.694	14.281	1438.988	1079.370
219.709	14.359	1438.390	1079.334
220.723	14.387	1436.927	1078.320
221.738	14.356	1436.261	1077.526
222.753	14.398	1435.219	1076.922
223.767	14.415	1434.535	1076.418
224.782	14.385	1433.377	1075.261
225.796	14.329	1432.639	1074.249
226.811	14.343	1432.048	1073.804
227.826	14.431	1430.754	1073.306
228.840	14.554	1429.300	1072.911
229.855	14.442	1429.071	1071.928
230.869	14.528	1428.235	1071.752
231.884	14.546	1426.651	1070.590
232.899	14.495	1425.904	1069.602
233.913	14.407	1425.030	1068.292
234.928	14.430	1423.597	1067.270
235.942	14.467	1422.295	1066.432
236.957	14.415	1421.574	1065.469
237.972	14.566	1419.688	1064.923
238.986	14.395	1418.889	1063.140
240.001	14.532	1418.023	1063.268
241.015	14.522	1417.109	1062.426
242.030	14.500	1416.366	1061.637
243.045	14.563	1415.072	1060.974
244.059	14.633	1413.967	1060.494
245.074	14.488	1413.596	1059.202
246.088	14.550	1413.157	1059.172
247.103	14.632	1412.074	1058.784
248.117	14.687	1410.947	1058.197
249.132	14.711	1410.022	1057.561
250.147	14.817	1409.722	1057.915
251.161	14.761	1409.335	1057.175
252.176	14.808	1408.656	1056.873
253.190	14.925	1407.475	1056.632
254.205	14.902	1406.729	1055.830
255.220	14.964	1405.779	1055.413
256.234	15.014	1405.017	1055.065
257.249	14.991	1403.905	1053.992
258.263	15.012	1402.798	1053.202
259.278	15.001	1402.066	1052.489
260.293	15.026	1401.378	1052.033
261.307	15.059	1400.844	1051.750
262.322	15.023	1400.143	1050.901
263.336	15.035	1399.782	1050.615
264.351	15.142	1398.104	1049.937
265.366	15.183	1396.951	1049.235
266.380	15.200	1396.591	1048.973
267.395	15.171	1395.448	1047.842
268.409	15.156	1394.557	1046.987
269.424	15.121	1393.698	1046.030
270.439	15.196	1392.205	1045.286
271.453	15.218	1391.197	1044.575
272.468	15.180	1390.843	1043.978
273.482	15.106	1390.240	1042.970
274.497	15.112	1389.236	1042.165
275.512	15.155	1388.591	1041.853
276.526	15.158	1387.639	1041.069
277.541	15.195	1386.308	1040.207
278.555	15.207	1385.782	1039.797
279.570	15.200	1384.678	1038.831
280.585	15.287	1383.849	1038.655
281.599	15.310	1383.219	1038.231
282.614	15.312	1382.090	1037.306
283.628	15.373	1380.949	1036.733
284.643	15.378	1379.660	1035.707
285.657	15.302	1378.911	1034.583
286.672	15.461	1377.547	1034.449
287.687	15.448	1377.159	1033.985
288.701	15.401	1376.309	1032.967
289.716	15.399	1375.621	1032.348
290.730	15.434	1375.144	1032.113
291.745	15.416	1373.698	1030.828
292.760	15.470	1372.331	1030.037
293.774	15.443	1371.265	1028.983
294.789	15.450	1370.271	1028.190
295.803	15.500	1369.878	1028.112
296.818	15.623	1368.915	1028.046
297.833	15.496	1368.134	1026.594
298.847	15.574	1366.848	1026.017
299.862	15.524	1365.961	1024.950
300.876	15.525	1365.195	1024.295
301.891	15.655	1364.051	1024.139
302.906	15.561	1363.378	1022.969
303.920	15.599	1363.231	1022.998
304.935	15.648	1361.829	1022.154
305.949	15.717	1361.180	1021.998
306.964	15.773	1360.100	1021.436
307.979	15.780	1359.209	1020.720
308.993	15.819	1358.128	1020.054
310.008	15.786	1357.125	1019.008
311.022	15.763	1356.861	1018.580
312.037	15.915	1355.320	1018.255
313.052	15.838	1354.284	1016.921
314.066	15.855	1353.622	1016.438
315.081	15.837	1352.493	1015.387
316.095	15.838	1351.375	1014.464
317.110	15.757	1350.473	1013.213
318.125	15.870	1349.478	1013.053
319.139	15.743	1349.067	1011.891
320.154	15.757	1347.963	1011.058
321.168	15.789	1346.763	1010.260
322.183	15.897	1345.764	1010.072
323.197	15.887	1344.718	1009.134
324.212	15.820	1344.381	1008.395
325.227	15.872	1343.353	1007.843
326.241	15.867	1342.521	1007.102
327.256	15.873	1341.787	1006.496
328.270	15.882	1340.948	1005.832
329.285	15.916	1339.650	1004.973
330.300	15.931	1338.822	1004.352
331.314	15.956	1338.116	1003.881
332.329	15.908	1337.071	1002.726
333.343	15.880	1336.088	1001.732
334.358	15.943	1335.520	1001.592
335.373	15.979	1334.900	1001.254
336.387	15.977	1333.696	1000.249
337.402	16.035	1333.225	1000.151
338.416	16.181	1332.258	1000.203
339.431	16.142	1331.913	999.621
340.446	16.052	1331.676	998.824
341.460	16.151	1330.110	998.150
342.475	16.129	1329.203	997.248
343.489	16.207	1328.586	997.161
344.504	16.275	1327.362	996.552
345.519	16.203	1327.056	995.812
346.533	16.228	1325.802	994.930
347.548	16.363	1324.370	994.563
348.562	16.330	1323.902	993.924
349.577	16.290	1323.097	992.997
350.592	16.322	1322.331	992.523
351.606	16.259	1322.002	991.818
352.621	16.302	1320.350	990.743
353.635	16.276	1319.115	989.577
354.650	16.304	1318.449	989.153
355.665	16.330	1317.565	988.555
356.679	16.300	1316.612	987.579
357.694	16.404	1315.306	987.118
358.708	16.275	1314.629	985.772
359.723	16.453	1313.143	985.608
360.738	16.481	1311.962	984.797
361.752	16.407	1311.297	983.780
362.767	16.501	1310.013	983.276
363.781	16.425	1309.676	982.497
364.796	16.445	1308.741	981.821
365.810	16.489	1307.724	981.226
366.825	16.595	1307.019	981.224
367.840	16.548	1306.729	980.648
368.854	16.609	1305.598	980.066
369.869	16.674	1305.114	979.992
370.883	16.578	1304.621	978.982
371.898	16.684	1303.886	978.958
372.913	16.598	1302.987	977.697
373.927	16.595	1302.061	976.900
374.942	16.725	1301.179	976.903
375.956	16.691	1300.725	976.280
376.971	16.772	1299.771	975.943
377.986	16.700	1298.807	974.716
379.000	16.771	1298.310	974.665
380.015	16.774	1297.176	973.747
381.029	16.855	1296.833	973.866
382.044	16.743	1296.353	972.775
383.059	16.815	1295.493	972.458
384.073	16.813	1294.870	971.892
385.088	16.912	1294.136	971.823
386.102	16.908	1293.329	971.112
387.117	16.977	1292.613	970.882
388.132	16.832	1291.968	969.484
389.146	16.805	1290.825	968.382
390.161	16.896	1289.975	968.178
391.175	16.850	1289.651	967.587
392.190	16.953	1288.017	966.863
393.205	16.904	1287.768	966.314
394.219	17.027	1286.520	965.993
395.234	16.954	1285.597	964.799
396.248	17.020	1283.544	963.545
397.263	16.995	1282.887	962.824
398.278	17.007	1281.596	961.838
399.292	16.942	1280.503	960.565
400.307	17.012	1279.555	960.167
401.321	17.056	1278.218	959.329
402.336	16.992	1277.441	958.294
403.350	17.059	1276.567	957.935
404.365	17.009	1275.564	956.817
405.380	17.089	1274.810	956.616
406.394	17.091	1273.895	955.855
407.409	17.142	1273.149	955.500
408.423	17.091	1272.853	954.907
409.438	17.270	1271.607	954.891
410.453	17.303	1270.772	954.366
411.467	17.237	1270.322	953.574
412.482	17.211	1269.743	952.905
413.496	17.275	1269.045	952.655
414.511	17.308	1268.343	952.234
415.526	17.430	1267.928	952.519
416.540	17.325	1267.171	951.281
417.555	17.341	1266.149	950.514
418.569	17.466	1265.573	950.700
419.584	17.346	1265.476	949.870
420.599	17.374	1264.551	949.252
421.613	99.528	1356.660	1483.872
422.628	96.849	1370.006	1483.960
