DTS Sentinel unit serial number:	SN413079Multiplexer serial number:	ORYXHardware model number:	OX4-SRSoftware version number:	ORYX F/W v4.00 Oryx Data Collector v3.7.2.0data status	okinstallation	princeton_trtdifferential loss correction	single-endedforward channel	channel 4reverse channel	N/Adate	2019/09/15time	03:05:34forward acquisition time	60.00reverse acquisition time	0.00gamma	496.2192k internal	0.2310k external	0.2310temperature offset calibration	1.0033default loss term (dB/km)	0.3790temperature slope calibration	1.0000multiplexer offset coefficient	1.0000multiplexer slope coefficient	1.0000fibre end	0.00T internal ref (°C)	31.19T ext. ref 1 (°C)	4.58T ext. ref 2 (°C)	25.77length (m)	temperature (°C)	Stokes	anti-Stokes-747.200	230.735	0.102	0.170
-746.185	-92.298	-0.219	-0.063
-745.171	119.707	-0.030	-0.038
-744.156	-85.101	-0.303	-0.096
-743.142	138.775	-0.166	-0.221
-742.127	-72.240	0.080	0.030
-741.112	-200.000	0.016	-0.243
-740.098	56.196	-0.037	-0.037
-739.083	-31.923	0.198	0.112
-738.069	1.228	-0.258	0.188
-737.054	-92.596	-0.048	0.014
-736.039	623.229	0.061	0.157
-735.025	-136.091	0.248	-0.030
-734.010	-156.014	-0.117	0.008
-732.996	-200.000	-0.025	0.275
-731.981	-36.246	0.089	0.049
-730.966	100.340	0.116	0.137
-729.952	444.656	0.098	0.219
-728.937	59.487	-0.254	-0.255
-727.923	781.151	-0.075	-0.209
-726.908	-20.808	-0.398	-0.248
-725.894	83.447	-0.039	0.044
-724.879	454.163	0.080	0.180
-723.864	-80.187	-0.189	0.064
-722.850	-200.000	-0.307	0.001
-721.835	800.000	0.086	0.263
-720.821	-38.227	-0.144	-0.077
-719.806	-151.311	-0.067	-0.005
-718.791	-200.000	0.026	-0.207
-717.777	-77.808	-0.353	0.124
-716.762	-200.000	0.001	0.246
-715.748	-36.709	0.086	0.047
-714.733	-124.204	0.166	0.026
-713.718	53.213	-0.115	0.111
-712.704	-54.346	0.154	-0.071
-711.689	-46.340	-0.265	-0.132
-710.675	-200.000	0.013	-0.156
-709.660	-200.000	0.017	-0.125
-708.645	-62.355	-0.313	-0.132
-707.631	800.000	0.069	0.249
-706.616	800.000	-0.084	-0.239
-705.602	-200.000	-0.028	0.146
-704.587	-51.782	0.160	-0.076
-703.572	-93.613	0.229	-0.064
-702.558	-200.000	0.011	-0.374
-701.543	65.294	0.049	0.050
-700.529	518.520	0.044	0.105
-699.514	-140.524	-0.175	-0.018
-698.499	-99.137	-0.019	-0.005
-697.485	800.000	-0.052	0.190
-696.470	-128.430	0.385	-0.056
-695.456	-200.000	0.023	-0.220
-694.441	-25.289	0.308	-0.185
-693.426	800.000	-0.037	-0.144
-692.412	-111.633	-0.199	0.041
-691.397	507.068	0.163	-0.384
-690.383	80.984	0.158	-0.172
-689.368	-62.023	-0.076	-0.032
-688.354	-67.985	-0.197	-0.078
-687.339	393.788	-0.119	0.251
-686.324	109.714	-0.013	0.016
-685.310	-82.601	-0.182	-0.060
-684.295	-200.000	0.003	0.242
-683.281	-200.000	0.035	0.219
-682.266	-116.960	0.176	0.033
-681.251	-200.000	-0.048	-0.325
-680.237	-200.000	-0.011	-0.241
-679.222	-200.000	0.054	-0.306
-678.208	-124.601	0.158	0.025
-677.193	40.413	-0.323	0.295
-676.178	145.315	0.167	-0.227
-675.164	-24.279	-0.123	-0.074
-674.149	-54.466	0.241	-0.111
-673.135	613.553	-0.130	-0.330
-672.120	-37.571	0.299	-0.161
-671.105	30.212	-0.126	0.109
-670.091	-34.694	0.263	-0.146
-669.076	89.275	-0.146	0.164
-668.062	114.283	0.127	0.156
-667.047	39.726	-0.247	0.225
-666.032	755.804	0.112	-0.306
-665.018	229.000	-0.113	-0.187
-664.003	162.656	0.210	0.298
-662.989	86.082	0.055	0.061
-661.974	263.390	0.122	0.214
-660.959	800.000	-0.056	0.167
-659.945	393.785	0.083	0.175
-658.930	86.982	-0.131	0.146
-657.916	-200.000	0.001	-0.121
-656.901	134.710	0.051	0.067
-655.886	-85.044	0.265	0.084
-654.872	-133.365	-0.131	-0.017
-653.857	-200.000	-0.054	-0.388
-652.843	-200.000	-0.055	-0.298
-651.828	28.998	-0.099	-0.085
-650.814	150.573	-0.114	0.157
-649.799	800.000	-0.055	0.202
-648.784	-35.422	-0.238	0.131
-647.770	153.009	-0.149	-0.206
-646.755	245.105	-0.097	0.165
-645.741	697.658	0.124	-0.330
-644.726	-170.352	0.326	-0.012
-643.711	-85.096	-0.197	-0.062
-642.697	-87.312	0.058	-0.018
-641.682	108.653	-0.088	-0.107
-640.668	281.901	-0.046	0.084
-639.653	654.835	0.152	0.394
-638.638	800.000	-0.052	-0.146
-637.624	291.231	-0.127	-0.234
-636.609	-10.634	0.366	-0.245
-635.595	-68.729	-0.360	-0.141
-634.580	-200.000	0.000	0.006
-633.565	-94.178	0.300	-0.083
-632.551	51.593	0.158	-0.152
-631.536	-38.497	-0.070	0.037
-630.522	359.773	-0.077	-0.156
-629.507	220.412	-0.285	0.461
-628.492	-131.763	-0.098	0.013
-627.478	73.136	0.244	0.258
-626.463	-101.741	0.230	0.056
-625.449	-56.856	-0.055	-0.025
-624.434	-109.539	0.010	0.002
-623.419	-135.839	0.346	0.041
-622.405	3.434	0.360	-0.265
-621.390	91.096	-0.286	-0.325
-620.376	-72.094	-0.248	-0.093
-619.361	11.269	-0.067	-0.052
-618.346	-151.625	0.223	-0.017
-617.332	-116.962	0.285	0.053
-616.317	-52.149	-0.103	-0.048
-615.303	-64.151	0.212	-0.087
-614.288	800.000	-0.083	0.326
-613.273	98.769	0.096	0.112
-612.259	-200.000	-0.065	-0.441
-611.244	-200.000	-0.074	-0.425
-610.230	-200.000	0.240	0.001
-609.215	79.072	0.160	-0.173
-608.201	153.433	-0.178	0.246
-607.186	-59.245	0.133	-0.058
-606.171	148.618	0.111	0.152
-605.157	-48.581	-0.084	0.041
-604.142	104.867	0.060	0.072
-603.128	-36.028	-0.287	0.156
-602.113	-143.975	0.223	0.021
-601.098	153.080	-0.084	-0.116
-600.084	190.579	-0.098	0.149
-599.069	-70.372	-0.184	0.071
-598.055	800.000	0.060	-0.177
-597.040	128.380	0.339	-0.435
-596.025	429.933	-0.173	-0.379
-595.011	800.000	0.081	-0.227
-593.996	-87.269	-0.218	0.067
-592.982	121.197	-0.081	0.102
-591.967	632.074	-0.111	0.283
-590.952	494.128	-0.127	0.293
-589.938	800.000	-0.015	0.061
-588.923	-200.000	0.031	-0.270
-587.909	68.895	0.227	0.236
-586.894	-101.774	0.237	0.058
-585.879	287.871	-0.210	0.383
-584.865	2.080	-0.107	0.078
-583.850	-94.742	0.033	-0.009
-582.836	-6.342	-0.367	-0.253
-581.821	-82.398	0.053	-0.018
-580.806	50.869	0.112	0.107
-579.792	156.088	-0.145	0.201
-578.777	800.000	-0.077	-0.260
-577.763	-113.396	-0.360	-0.071
-576.748	-118.560	-0.231	-0.041
-575.733	311.204	-0.160	-0.302
-574.719	-1.656	0.219	-0.156
-573.704	356.209	-0.077	-0.154
-572.690	-200.000	-0.028	0.332
-571.675	-200.000	0.001	0.014
-570.661	800.000	-0.029	-0.087
-569.646	-200.000	-0.029	0.169
-568.631	-9.309	-0.074	0.050
-567.617	110.088	0.181	-0.219
-566.602	-200.000	-0.003	0.291
-565.588	-83.259	-0.312	0.101
-564.573	800.000	0.116	0.376
-563.558	282.895	0.111	0.201
-562.544	338.717	0.122	-0.240
-561.529	-142.643	-0.256	-0.025
-560.515	-22.106	-0.274	-0.168
-559.500	-15.507	-0.112	-0.072
-558.485	527.246	0.124	-0.294
-557.471	-55.036	-0.367	-0.167
-556.456	-62.603	-0.285	-0.119
-555.442	-13.138	0.380	0.249
-554.427	-119.731	0.446	-0.078
-553.412	-99.771	-0.219	0.055
-552.398	278.698	0.123	0.221
-551.383	-39.872	-0.166	0.087
-550.369	729.499	-0.032	0.086
-549.354	-40.674	-0.091	-0.048
-548.339	-133.012	0.275	0.035
-547.325	-81.155	0.227	0.076
-546.310	800.000	-0.018	0.058
-545.296	-8.951	0.111	-0.075
-544.281	-19.339	-0.177	0.111
-543.266	-163.966	-0.222	-0.010
-542.252	5.597	0.088	-0.066
-541.237	89.565	0.121	0.136
-540.223	160.820	-0.082	-0.115
-539.208	72.306	-0.079	-0.083
-538.193	-127.683	0.093	-0.014
-537.179	-135.777	0.113	-0.014
-536.164	-24.113	-0.247	0.149
-535.150	121.575	-0.234	0.293
-534.135	62.166	0.057	0.058
-533.121	-200.000	-0.010	-0.158
-532.106	-200.000	-0.022	0.356
-531.091	-161.652	0.242	-0.012
-530.077	117.239	-0.076	0.094
-529.062	-200.000	0.007	0.083
-528.048	800.000	0.014	0.047
-527.033	68.140	0.071	-0.073
-526.018	-200.000	0.025	0.130
-525.004	-109.735	0.140	0.030
-523.989	-200.000	-0.062	-0.446
-522.975	-134.266	0.113	0.014
-521.960	-27.613	-0.173	0.101
-520.945	-200.000	-0.080	-0.363
-519.931	205.395	0.023	-0.036
-518.916	-69.388	0.272	0.105
-517.902	-86.916	-0.321	-0.099
-516.887	-200.000	-0.013	-0.096
-515.872	385.407	-0.023	0.048
-514.858	57.718	-0.141	0.139
-513.843	210.935	-0.095	-0.151
-512.829	-200.000	-0.014	-0.120
-511.814	800.000	-0.027	0.091
-510.799	-115.194	-0.286	-0.054
-509.785	-182.370	0.187	0.003
-508.770	74.214	0.160	0.169
-507.756	-200.000	-0.021	0.126
-506.741	42.138	-0.196	0.179
-505.726	41.520	-0.126	-0.115
-504.712	161.752	-0.135	-0.190
-503.697	-163.537	-0.182	0.009
-502.683	-200.000	-0.018	0.174
-501.668	800.000	-0.096	-0.282
-500.653	1.896	-0.163	0.118
-499.639	-44.539	-0.241	0.121
-498.624	-121.255	-0.145	0.024
-497.610	-200.000	-0.095	-0.449
-496.595	800.000	0.065	0.207
-495.581	680.367	-0.041	-0.108
-494.566	81.487	0.215	-0.233
-493.551	60.955	0.235	-0.235
-492.537	722.954	0.105	-0.282
-491.522	-72.349	0.236	0.088
-490.508	82.978	0.087	-0.095
-489.493	-200.000	-0.022	0.279
-488.478	-143.259	0.514	-0.050
-487.464	4.713	0.171	-0.126
-486.449	-200.000	0.000	0.195
-485.435	-53.438	-0.111	0.051
-484.420	800.000	-0.149	0.469
-483.405	-42.664	0.199	-0.102
-482.391	59.931	0.033	0.033
-481.376	-200.000	-0.018	0.430
-480.362	-200.000	-0.030	-0.352
-479.347	134.879	0.033	0.044
-478.332	349.846	0.157	0.312
-477.318	-200.000	0.025	-0.160
-476.303	-54.045	-0.223	-0.102
-475.289	34.506	0.170	-0.149
-474.274	-75.167	-0.143	-0.051
-473.259	-200.000	0.005	0.233
-472.245	-23.443	0.065	0.039
-471.230	209.575	0.095	0.149
-470.216	-69.578	0.201	0.077
-469.201	209.657	-0.282	0.445
-468.186	28.322	0.035	0.030
-467.172	35.720	0.192	-0.169
-466.157	-60.715	-0.272	0.116
-465.143	49.199	0.187	-0.176
-464.128	-84.592	0.190	-0.060
-463.113	291.716	-0.115	-0.211
-462.099	672.138	-0.133	-0.346
-461.084	-116.295	-0.280	0.052
-460.070	404.445	-0.048	-0.102
-459.055	140.425	0.113	-0.150
-458.040	54.880	0.122	-0.119
-457.026	16.163	0.039	0.031
-456.011	-200.000	-0.007	0.207
-454.997	-67.555	0.235	-0.093
-453.982	156.159	0.089	0.123
-452.968	-200.000	-0.034	0.324
-451.953	-200.000	0.030	-0.207
-450.938	102.804	-0.130	-0.153
-449.924	-176.859	0.092	0.002
-448.909	800.000	-0.028	0.119
-447.895	800.000	-0.020	-0.085
-446.880	800.000	-0.100	0.366
-445.865	431.417	-0.164	0.356
-444.851	-200.000	0.065	0.310
-443.836	-200.000	-0.012	-0.130
-442.822	800.000	0.043	-0.179
-441.807	497.117	0.019	0.043
-440.792	-170.494	0.375	-0.013
-439.778	-127.246	0.373	0.055
-438.763	-200.000	-0.012	0.118
-437.749	-194.854	0.404	-0.003
-436.734	-200.000	0.014	0.217
-435.719	634.471	-0.041	-0.105
-434.705	169.948	0.105	-0.150
-433.690	367.654	0.050	0.102
-432.676	800.000	-0.025	0.077
-431.661	-33.775	-0.164	-0.091
-430.646	800.000	0.088	-0.330
-429.632	-145.419	0.297	0.027
-428.617	31.828	0.220	-0.190
-427.603	800.000	0.054	0.193
-426.588	-75.884	-0.318	-0.113
-425.573	-155.998	-0.131	-0.008
-424.559	800.000	-0.107	0.356
-423.544	70.586	-0.127	0.132
-422.530	-200.000	-0.008	0.108
-421.515	-66.073	0.258	-0.103
-420.500	-136.361	0.400	0.047
-419.486	56.494	-0.191	0.186
-418.471	-99.701	0.093	0.024
-417.457	-200.000	-0.067	0.354
-416.442	308.464	0.088	0.164
-415.428	718.248	-0.008	-0.022
-414.413	452.094	0.054	0.119
-413.398	-69.392	0.325	0.125
-412.384	74.048	-0.117	-0.123
-411.369	-75.301	-0.128	-0.046
-410.355	-153.545	0.275	-0.019
-409.340	800.000	0.037	-0.148
-408.325	-86.134	-0.371	0.115
-407.311	71.857	-0.151	0.157
-406.296	800.000	0.069	0.289
-405.282	-4.269	-0.308	-0.214
-404.267	31.469	0.037	-0.031
-403.252	-131.220	0.122	-0.016
-402.238	-100.902	-0.311	0.077
-401.223	-47.535	0.067	-0.033
-400.209	-95.738	-0.274	0.073
-399.194	239.077	0.162	0.270
-398.179	-192.517	0.690	-0.006
-397.165	673.567	0.129	-0.335
-396.150	-195.836	0.177	0.001
-395.136	194.549	-0.208	0.316
-394.121	-200.000	-0.058	-0.332
-393.106	87.126	-0.079	0.087
-392.092	343.353	-0.152	0.298
-391.077	14.608	0.135	0.105
-390.063	-188.094	0.306	0.004
-389.048	-20.457	0.203	-0.125
-388.033	-6.799	-0.164	0.111
-387.019	-200.000	-0.018	0.193
-386.004	-24.769	0.137	0.082
-384.990	-2.010	-0.121	0.085
-383.975	-11.455	0.086	0.057
-382.960	168.319	-0.090	-0.128
-381.946	128.339	-0.254	0.323
-380.931	-23.350	-0.158	0.095
-379.917	-12.570	-0.139	-0.091
-378.902	275.919	0.091	-0.161
-377.888	-20.413	0.351	0.216
-376.873	75.437	0.072	0.076
-375.858	-79.089	-0.162	0.055
-374.844	-200.000	0.022	-0.175
-373.829	-148.900	0.228	0.018
-372.815	280.886	0.077	0.138
-371.800	-112.407	-0.152	-0.030
-370.785	-200.000	-0.035	-0.188
-369.771	566.299	0.215	-0.521
-368.756	31.059	0.197	-0.169
-367.742	-75.235	0.160	0.057
-366.727	76.076	0.212	0.225
-365.712	-200.000	-0.006	-0.115
-364.698	-29.547	0.249	0.142
-363.683	-174.801	-0.197	-0.006
-362.669	64.863	-0.252	0.255
-361.654	-186.459	-0.098	-0.001
-360.639	-200.000	-0.022	0.130
-359.625	-30.621	-0.301	-0.171
-358.610	181.252	0.170	-0.250
-357.596	-47.900	-0.105	0.051
-356.581	-200.000	0.003	-0.369
-355.566	800.000	-0.094	-0.292
-354.552	-0.736	0.321	0.228
-353.537	128.696	0.174	0.222
-352.523	-79.857	0.147	0.049
-351.508	-200.000	0.001	0.106
-350.493	-94.624	-0.132	0.036
-349.479	-200.000	-0.010	0.128
-348.464	-90.372	0.142	-0.041
-347.450	241.780	-0.174	-0.291
-346.435	-200.000	-0.019	-0.153
-345.420	-13.775	0.243	-0.157
-344.406	-43.007	-0.061	0.031
-343.391	111.763	-0.307	0.371
-342.377	-200.000	-0.022	-0.153
-341.362	-200.000	0.015	0.082
-340.348	-46.847	-0.122	-0.060
-339.333	-200.000	-0.038	0.482
-338.318	157.488	-0.169	0.234
-337.304	584.478	0.098	0.240
-336.289	-14.154	-0.221	0.142
-335.275	91.922	0.320	0.360
-334.260	-200.000	0.017	0.171
-333.245	247.440	0.018	-0.031
-332.231	296.331	-0.064	-0.117
-331.216	529.461	0.102	-0.241
-330.202	-189.317	-0.212	0.002
-329.187	-37.486	-0.454	-0.242
-328.172	-116.000	-0.264	-0.049
-327.158	6.544	-0.126	0.094
-326.143	-92.595	0.218	0.061
-325.129	108.013	0.077	-0.092
-324.114	-200.000	-0.031	0.208
-323.099	89.312	-0.301	0.335
-322.085	-173.618	-0.158	0.005
-321.070	-39.057	0.041	-0.022
-320.056	47.550	-0.111	-0.104
-319.041	184.834	-0.096	-0.141
-318.026	-85.567	-0.271	0.084
-317.012	-104.355	0.127	0.029
-315.997	-200.000	-0.017	-0.176
-314.983	58.475	-0.208	-0.204
-313.968	-107.888	0.238	-0.052
-312.953	-6.097	-0.218	0.149
-311.939	800.000	0.057	0.206
-310.924	-164.140	-0.185	0.009
-309.910	283.310	0.118	-0.212
-308.895	-104.846	0.075	-0.017
-307.880	-131.807	-0.325	-0.042
-306.866	25.726	-0.106	0.088
-305.851	-200.000	0.041	-0.369
-304.837	68.960	0.351	-0.360
-303.822	-73.644	-0.066	0.024
-302.807	-27.270	0.154	0.090
-301.793	256.034	-0.111	0.190
-300.778	56.110	0.135	-0.131
-299.764	-60.207	-0.392	0.167
-298.749	-181.092	-0.413	0.008
-297.735	-200.000	0.020	-0.162
-296.720	-119.897	-0.455	-0.078
-295.705	-131.969	-0.173	0.023
-294.691	3.318	-0.206	-0.150
-293.676	800.000	-0.073	0.242
-292.662	-91.451	-0.169	-0.048
-291.647	800.000	0.032	-0.099
-290.632	86.422	-0.052	0.057
-289.618	697.833	-0.055	0.143
-288.603	36.221	-0.040	-0.035
-287.589	-200.000	-0.005	-0.081
-286.574	-11.736	0.309	-0.202
-285.559	13.851	-0.367	0.285
-284.545	-76.126	-0.161	0.057
-283.530	-71.293	-0.167	-0.063
-282.516	661.899	-0.164	-0.422
-281.501	-33.007	0.276	-0.153
-280.486	-39.401	0.120	0.063
-279.472	-78.522	0.081	-0.028
-278.457	-23.358	0.061	0.037
-277.443	800.000	0.106	-0.297
-276.428	-51.965	0.166	-0.077
-275.413	242.341	-0.126	0.211
-274.399	800.000	-0.136	0.384
-273.384	107.178	-0.024	-0.028
-272.370	657.966	0.135	0.347
-271.355	-126.609	0.167	0.025
-270.340	114.951	-0.062	-0.075
-269.326	51.095	-0.084	0.079
-268.311	-200.000	-0.077	0.343
-267.297	163.869	-0.171	-0.241
-266.282	60.100	0.154	-0.152
-265.267	120.190	-0.201	-0.249
-264.253	57.463	0.260	-0.253
-263.238	-108.043	-0.283	-0.061
-262.224	-16.448	0.355	-0.224
-261.209	-0.524	0.241	-0.170
-260.195	528.388	0.094	0.221
-259.180	44.686	0.227	-0.208
-258.165	727.486	-0.055	0.146
-257.151	42.616	0.232	0.211
-256.136	-60.456	-0.294	-0.125
-255.122	-127.686	-0.086	0.012
-254.107	482.687	-0.046	0.105
-253.092	26.637	-0.170	-0.142
-252.078	-10.850	-0.109	-0.072
-251.063	-133.517	0.236	0.029
-250.049	-92.280	-0.214	0.060
-249.034	51.481	-0.088	0.084
-248.019	-12.973	-0.369	-0.239
-247.005	285.238	0.052	-0.094
-245.990	-50.301	-0.217	0.102
-244.976	43.384	-0.125	0.114
-243.961	339.658	0.084	-0.163
-242.946	800.000	0.031	-0.094
-241.932	-75.077	-0.379	0.135
-240.917	-43.415	0.142	0.072
-239.903	-92.078	0.265	-0.075
-238.888	78.876	-0.073	-0.078
-237.873	-111.842	-0.148	0.030
-236.859	430.440	0.098	-0.211
-235.844	47.020	0.109	-0.101
-234.830	-81.760	0.306	0.100
-233.815	-42.200	-0.148	0.076
-232.800	106.789	0.245	-0.289
-231.786	-200.000	0.010	0.567
-230.771	31.733	-0.397	0.340
-229.757	466.476	-0.047	-0.105
-228.742	556.182	0.054	0.131
-227.727	-200.000	0.015	-0.106
-226.713	-115.267	0.119	-0.022
-225.698	-13.810	-0.051	0.033
-224.684	-106.243	0.141	-0.031
-223.669	-200.000	-0.004	-0.143
-222.655	-129.725	0.106	-0.015
-221.640	-88.202	0.065	-0.019
-220.625	190.931	0.235	0.352
-219.611	-145.178	0.367	-0.033
-218.596	-79.083	-0.093	-0.032
-217.582	-125.869	-0.294	-0.044
-216.567	-182.083	-0.120	-0.002
-215.552	284.555	-0.098	-0.175
-214.538	4.970	-0.031	-0.023
-213.523	800.000	0.049	-0.146
-212.509	606.894	0.084	-0.208
-211.494	-46.191	0.217	0.106
-210.479	-43.315	0.077	0.039
-209.465	34.753	-0.152	0.132
-208.450	800.000	-0.041	0.121
-207.436	40.933	-0.153	0.138
-206.421	698.876	0.135	-0.352
-205.406	163.686	0.246	0.345
-204.392	-100.117	0.188	0.047
-203.377	124.177	0.149	0.186
-202.363	-90.973	0.091	0.026
-201.348	-63.519	0.108	-0.044
-200.333	-78.162	-0.263	0.090
-199.319	800.000	-0.068	-0.221
-198.304	-48.548	-0.255	0.122
-197.290	800.000	-0.028	-0.116
-196.275	83.706	0.034	0.037
-195.260	-200.000	-0.053	-0.244
-194.246	-110.253	-0.245	-0.051
-193.231	-200.000	-0.052	-0.395
-192.217	800.000	0.038	0.107
-191.202	800.000	-0.089	0.308
-190.187	-138.184	0.076	0.008
-189.173	-138.963	0.203	-0.022
-188.158	-28.099	-0.168	-0.097
-187.144	-38.165	0.045	0.024
-186.129	674.183	-0.085	-0.219
-185.114	-200.000	-0.032	-0.163
-184.100	-97.988	-0.177	0.045
-183.085	346.767	-0.057	0.111
-182.071	-74.326	0.277	0.099
-181.056	-200.000	-0.044	0.338
-180.042	-200.000	0.013	-0.169
-179.027	28.791	0.369	0.310
-178.012	146.493	-0.164	-0.219
-176.998	-167.679	0.096	0.004
-175.983	-200.000	0.003	-0.201
-174.969	83.748	-0.098	-0.106
-173.954	800.000	0.058	-0.221
-172.939	442.903	-0.125	-0.272
-171.925	98.890	-0.074	-0.085
-170.910	195.625	0.037	-0.056
-169.896	800.000	0.063	-0.192
-168.881	-5.204	0.279	0.190
-167.866	800.000	0.157	0.459
-166.852	-10.184	0.134	-0.088
-165.837	-113.288	-0.394	0.077
-164.823	-151.228	0.480	0.036
-163.808	800.000	0.109	-0.353
-162.793	160.353	-0.286	-0.396
-161.779	18.060	0.187	-0.148
-160.764	243.165	0.135	-0.225
-159.750	-58.849	0.241	-0.104
-158.735	46.474	0.276	-0.254
-157.720	-79.684	0.080	0.027
-156.706	800.000	0.043	0.169
-155.691	-8.040	0.235	0.157
-154.677	-25.212	0.304	-0.179
-153.662	334.270	0.101	-0.193
-152.647	40.012	0.059	0.053
-151.633	-42.912	-0.229	0.115
-150.618	55.590	0.073	0.070
-149.604	-200.000	-0.004	-0.179
-148.589	-141.588	0.539	0.054
-147.574	800.000	-0.107	0.369
-146.560	-93.348	0.309	0.085
-145.545	-130.839	-0.318	0.042
-144.531	-200.000	0.025	-0.129
-143.516	-92.251	-0.359	-0.101
-142.502	124.837	0.348	0.434
-141.487	-200.000	0.053	0.292
-140.472	-90.175	0.245	-0.071
-139.458	800.000	0.021	-0.086
-138.443	64.816	0.129	0.129
-137.429	99.861	0.081	0.093
-136.414	-200.000	0.035	0.178
-135.399	487.265	-0.056	0.127
-134.385	17.180	0.197	0.155
-133.370	-200.000	-0.016	-0.092
-132.356	177.730	-0.182	0.264
-131.341	49.251	-0.122	0.114
-130.326	-200.000	0.007	0.162
-129.312	-11.070	0.135	0.088
-128.297	23.931	0.109	-0.089
-127.283	-200.000	0.060	0.358
-126.268	-50.038	-0.203	-0.095
-125.253	-165.905	-0.186	-0.008
-124.239	159.265	-0.171	-0.235
-123.224	104.064	0.061	0.071
-122.210	417.156	0.083	-0.175
-121.195	-200.000	0.016	0.106
-120.180	-200.000	0.002	-0.101
-119.166	-183.338	-0.379	-0.007
-118.151	-89.599	-0.244	0.071
-117.137	28.262	0.102	-0.085
-116.122	30.277	0.163	0.138
-115.107	144.196	-0.010	0.013
-114.093	-119.157	0.274	-0.047
-113.078	-200.000	0.028	-0.225
-112.064	-200.000	0.012	-0.121
-111.049	412.047	0.144	0.302
-110.034	-148.474	-0.162	-0.013
-109.020	352.938	0.017	0.033
-108.005	6.443	0.296	0.218
-106.991	-84.592	-0.095	0.030
-105.976	327.150	0.050	-0.094
-104.962	-200.000	-0.040	0.229
-103.947	-200.000	-0.038	0.183
-102.932	800.000	-0.061	0.200
-101.918	-153.222	0.048	0.003
-100.903	136.464	-0.096	0.125
-99.889	-200.000	0.006	-0.054
-98.874	-33.090	-0.328	0.180
-97.859	-200.000	-0.028	-0.138
-96.845	-75.290	-0.473	0.167
-95.830	-200.000	-0.029	-0.255
-94.816	127.827	0.224	0.282
-93.801	800.000	0.077	0.314
-92.786	166.276	0.112	0.157
-91.772	306.318	-0.060	0.111
-90.757	-187.878	-0.055	0.001
-89.743	340.619	-0.060	0.116
-88.728	-179.372	-0.212	-0.005
-87.713	-142.596	-0.155	-0.015
-86.699	-162.491	0.299	0.015
-85.684	-200.000	0.028	0.129
-84.670	87.772	0.122	0.134
-83.655	-85.508	0.318	-0.098
-82.640	800.000	0.102	-0.330
-81.626	-200.000	-0.005	-0.139
-80.611	-16.706	0.184	0.115
-79.597	-200.000	0.002	-0.042
-78.582	-118.305	-0.316	-0.056
-77.567	69.739	0.177	-0.180
-76.553	-200.000	-0.022	0.249
-75.538	-200.000	-0.002	0.155
-74.524	232.840	0.053	0.086
-73.509	127.698	0.296	0.372
-72.494	-32.470	-0.281	-0.155
-71.480	-112.571	0.132	-0.026
-70.465	-84.637	-0.195	0.061
-69.451	193.713	-0.146	-0.219
-68.436	800.000	0.038	-0.163
-67.422	53.251	0.289	-0.274
-66.407	-11.820	0.093	-0.060
-65.392	-113.054	0.240	0.047
-64.378	148.179	0.121	-0.162
-63.363	164.042	-0.096	-0.134
-62.349	87.769	0.104	0.114
-61.334	5.315	-0.875	-0.638
-60.319	5.969	0.343	0.251
-59.305	430.091	-0.528	-1.129
-58.290	740.139	0.413	1.097
-57.276	764.668	0.696	1.868
-56.261	-200.000	100.441	601.581
-55.246	577.952	1408.161	3405.161
-54.232	188.620	2598.979	3844.008
-53.217	107.792	2307.219	2716.635
-52.203	37.832	2064.132	1812.988
-51.188	32.915	1978.431	1693.674
-50.173	31.323	1960.192	1663.825
-49.159	46.211	2012.929	1843.386
-48.144	47.613	2030.588	1872.153
-47.130	33.492	1990.799	1709.197
-46.115	31.154	1980.101	1678.939
-45.100	31.100	1977.400	1676.092
-44.086	31.060	1975.042	1673.669
-43.071	30.965	1972.902	1670.936
-42.057	31.060	1970.143	1669.385
-41.042	31.005	1968.113	1667.113
-40.027	31.043	1966.607	1666.110
-39.013	31.039	1964.660	1664.351
-37.998	31.155	1962.529	1663.514
-36.984	31.145	1960.960	1662.037
-35.969	31.165	1958.492	1660.055
-34.954	31.112	1957.052	1658.295
-33.940	31.237	1955.283	1657.843
-32.925	31.183	1954.225	1656.403
-31.911	31.223	1952.227	1654.991
-30.896	31.172	1951.197	1653.605
-29.881	31.141	1949.907	1652.170
-28.867	31.252	1947.520	1651.061
-27.852	31.250	1945.999	1649.687
-26.838	31.283	1944.093	1648.303
-25.823	31.233	1942.408	1646.365
-24.809	31.195	1940.307	1644.187
-23.794	31.163	1938.933	1642.678
-22.779	31.179	1937.304	1641.370
-21.765	31.136	1935.669	1639.537
-20.750	31.201	1933.870	1638.520
-19.736	31.227	1932.471	1637.505
-18.721	31.157	1930.943	1635.530
-17.706	31.216	1929.086	1634.403
-16.692	31.139	1927.712	1632.503
-15.677	31.197	1925.980	1631.479
-14.663	31.240	1924.039	1630.146
-13.648	31.275	1923.089	1629.578
-12.633	31.217	1921.930	1628.027
-11.619	31.169	1920.943	1626.713
-10.604	31.165	1919.445	1625.344
-9.590	31.255	1917.511	1624.424
-8.575	31.233	1915.997	1622.888
-7.560	31.217	1915.566	1622.320
-6.546	31.232	1913.354	1620.510
-5.531	31.202	1912.675	1619.610
-4.517	31.210	1911.660	1618.758
-3.502	31.202	1910.065	1617.274
-2.487	31.132	1909.601	1616.208
-1.473	31.233	1908.386	1615.986
-0.458	31.197	1903.773	1611.708
0.556	30.275	1883.358	1583.743
1.571	26.025	1865.045	1532.188
2.586	22.154	1887.700	1517.313
3.600	21.194	1923.328	1537.365
4.615	20.793	1917.429	1528.993
5.629	16.088	1817.863	1410.204
6.644	8.371	1702.397	1259.853
7.659	4.890	1668.070	1207.398
8.673	4.619	1664.861	1202.874
9.688	4.523	1663.359	1200.937
10.702	4.607	1662.353	1200.757
11.717	4.571	1658.989	1197.945
12.731	5.014	1658.112	1200.612
13.746	10.094	1670.542	1248.829
14.761	17.018	1685.190	1313.446
15.775	19.053	1687.903	1331.201
16.790	18.401	1684.859	1323.652
17.804	17.342	1681.349	1312.607
18.819	16.394	1678.068	1302.626
19.834	15.749	1675.360	1295.436
20.848	15.409	1674.003	1291.658
21.863	15.316	1672.434	1289.622
22.877	14.950	1670.962	1285.556
23.892	14.779	1669.736	1283.191
24.907	14.657	1668.962	1281.538
25.921	14.647	1667.761	1280.429
26.936	14.555	1667.099	1279.102
27.950	14.654	1665.621	1278.612
28.965	14.666	1665.671	1278.632
29.980	14.825	1664.351	1278.724
30.994	14.928	1663.167	1278.488
32.009	14.944	1662.405	1277.912
33.023	15.151	1661.354	1278.566
34.038	14.973	1660.695	1276.593
35.053	14.986	1659.595	1275.728
36.067	14.959	1658.249	1274.376
37.082	14.864	1657.215	1272.748
38.096	14.826	1655.994	1271.408
39.111	14.909	1655.313	1271.400
40.126	14.889	1654.964	1270.869
41.140	14.854	1653.766	1269.573
42.155	14.765	1652.382	1267.719
43.169	14.663	1650.482	1265.376
44.184	14.573	1649.658	1263.954
45.199	14.660	1648.651	1263.728
46.213	14.609	1647.526	1262.369
47.228	14.749	1645.750	1261.957
48.242	14.692	1644.434	1260.400
49.257	14.819	1643.878	1260.820
50.271	14.761	1642.653	1259.336
51.286	14.746	1641.335	1258.100
52.301	14.794	1640.169	1257.454
53.315	14.789	1638.599	1256.107
54.330	14.819	1636.938	1254.944
55.344	14.685	1635.443	1252.679
56.359	14.717	1633.593	1251.398
57.374	14.681	1632.802	1250.410
58.388	14.655	1631.731	1249.281
59.403	14.705	1630.605	1248.686
60.417	14.677	1629.253	1247.330
61.432	14.663	1627.772	1245.982
62.447	14.489	1626.802	1243.827
63.461	14.576	1625.644	1243.479
64.476	14.499	1624.458	1241.894
65.490	14.388	1623.906	1240.535
66.505	14.483	1622.372	1239.957
67.520	14.491	1621.324	1239.104
68.534	14.521	1620.242	1238.397
69.549	14.497	1619.388	1237.451
70.563	14.527	1617.998	1236.505
71.578	14.601	1616.523	1235.815
72.593	14.473	1615.641	1234.080
73.607	14.392	1615.094	1232.955
74.622	14.399	1613.717	1231.850
75.636	14.401	1612.594	1230.897
76.651	14.526	1611.684	1231.016
77.666	14.375	1611.074	1229.326
78.680	14.387	1610.397	1228.792
79.695	14.493	1609.357	1228.667
80.709	14.511	1608.253	1227.851
81.724	14.512	1607.800	1227.400
82.739	14.578	1606.585	1226.850
83.753	14.629	1606.193	1226.823
84.768	14.715	1604.966	1226.404
85.782	14.892	1604.232	1227.037
86.797	14.840	1603.401	1225.913
87.812	14.883	1602.635	1225.532
88.826	14.878	1600.757	1223.948
89.841	14.742	1600.104	1222.346
90.855	14.816	1599.181	1222.074
91.870	14.819	1597.944	1221.045
92.884	14.830	1596.963	1220.267
93.899	14.832	1595.839	1219.313
94.914	14.856	1594.608	1218.440
95.928	14.918	1593.507	1217.947
96.943	14.974	1592.457	1217.439
97.957	14.894	1590.700	1215.406
98.972	14.893	1588.673	1213.742
99.987	14.870	1587.744	1212.761
101.001	14.903	1585.591	1211.244
102.016	14.895	1584.495	1210.244
103.030	14.874	1582.812	1208.702
104.045	14.855	1582.076	1207.893
105.060	14.840	1580.888	1206.771
106.074	14.787	1579.189	1204.990
107.089	14.774	1577.503	1203.503
108.103	14.673	1575.832	1201.390
109.118	14.523	1574.499	1199.192
110.133	14.538	1573.313	1198.289
111.147	14.511	1572.093	1197.056
112.162	14.545	1570.716	1196.147
113.176	14.556	1569.393	1195.113
114.191	14.652	1568.044	1194.669
115.206	14.584	1566.758	1193.097
116.220	14.682	1565.624	1192.831
117.235	14.649	1563.901	1191.173
118.249	14.651	1562.906	1190.327
119.264	14.629	1561.633	1189.097
120.279	14.704	1560.096	1188.350
121.293	14.524	1559.205	1186.291
122.308	14.486	1557.687	1184.755
123.322	14.562	1555.459	1183.495
124.337	14.527	1554.384	1182.329
125.352	14.443	1553.293	1180.799
126.366	14.455	1552.076	1179.856
127.381	14.519	1550.806	1179.236
128.395	14.536	1549.959	1178.607
129.410	14.498	1547.997	1176.741
130.424	14.583	1546.812	1176.340
131.439	14.649	1545.626	1175.795
132.454	14.702	1543.914	1174.764
133.468	14.658	1542.624	1173.370
134.483	14.697	1541.466	1172.661
135.497	14.756	1540.043	1171.887
136.512	14.698	1539.249	1170.768
137.527	14.707	1537.486	1169.391
138.541	14.690	1536.358	1168.308
139.556	14.759	1534.973	1167.635
140.570	14.875	1533.194	1166.985
141.585	14.821	1532.430	1165.929
142.600	14.842	1531.123	1164.976
143.614	14.869	1530.310	1164.445
144.629	15.010	1528.910	1164.252
145.643	14.953	1527.823	1162.927
146.658	14.921	1526.627	1161.690
147.673	15.033	1524.711	1160.906
148.687	14.960	1523.277	1159.211
149.702	14.914	1521.763	1157.633
150.716	14.796	1520.211	1155.539
151.731	14.790	1519.515	1154.864
152.746	14.805	1517.764	1153.532
153.760	14.885	1516.183	1152.778
154.775	14.932	1515.049	1152.139
155.789	14.848	1514.207	1150.820
156.804	14.958	1512.891	1150.473
157.819	14.975	1511.609	1149.517
158.833	14.859	1510.736	1147.952
159.848	15.031	1509.415	1148.026
160.862	15.078	1508.209	1147.331
161.877	15.036	1506.921	1145.965
162.892	14.984	1505.644	1144.534
163.906	14.972	1504.906	1143.790
164.921	14.896	1503.169	1141.848
165.935	14.956	1502.253	1141.462
166.950	14.830	1501.058	1139.591
167.964	15.036	1499.774	1139.921
168.979	14.976	1499.206	1138.983
169.994	15.029	1498.016	1138.336
171.008	14.984	1497.295	1137.382
172.023	14.960	1496.028	1136.154
173.037	15.092	1494.301	1135.637
174.052	15.063	1493.591	1134.801
175.067	15.165	1492.574	1134.618
176.081	15.049	1491.342	1132.800
177.096	15.071	1489.789	1131.666
178.110	15.078	1488.336	1130.509
179.125	15.034	1487.262	1129.295
180.140	15.113	1486.425	1129.092
181.154	15.070	1485.566	1128.050
182.169	15.089	1484.433	1127.222
183.183	15.177	1483.306	1126.853
184.198	15.236	1481.690	1125.925
185.213	15.195	1480.945	1124.985
186.227	15.306	1480.199	1125.061
187.242	15.328	1479.062	1124.248
188.256	15.353	1478.113	1123.595
189.271	15.270	1476.766	1121.914
190.286	15.366	1475.727	1121.671
191.300	15.284	1474.600	1120.166
192.315	15.181	1472.867	1118.064
193.329	15.066	1471.415	1116.093
194.344	14.965	1470.508	1114.636
195.359	14.970	1469.722	1113.975
196.373	15.126	1468.918	1114.304
197.388	15.223	1467.830	1114.024
198.402	15.262	1466.480	1113.161
199.417	15.393	1465.540	1113.214
200.432	15.540	1464.247	1113.108
201.446	15.501	1464.077	1112.625
202.461	15.622	1462.705	1112.284
203.475	15.581	1461.452	1110.963
204.490	15.658	1460.657	1110.771
205.504	15.590	1459.416	1109.280
206.519	15.568	1458.498	1108.333
207.534	15.399	1457.235	1106.162
208.548	15.463	1455.987	1105.538
209.563	15.438	1454.795	1104.374
210.577	15.459	1454.186	1103.950
211.592	15.421	1452.942	1102.657
212.607	15.550	1452.551	1103.114
213.621	15.623	1451.951	1103.039
214.636	15.620	1450.754	1102.012
215.650	15.631	1450.013	1101.426
216.665	15.651	1448.853	1100.578
217.680	15.608	1448.699	1100.082
218.694	15.824	1447.422	1100.429
219.709	15.771	1446.937	1099.611
220.723	15.692	1446.014	1098.299
221.738	15.748	1444.907	1097.727
222.753	15.803	1443.965	1097.271
223.767	15.743	1443.002	1096.051
224.782	15.785	1441.737	1095.266
225.796	15.802	1440.995	1094.718
226.811	15.865	1440.384	1094.567
227.826	15.892	1439.664	1094.099
228.840	15.919	1438.332	1093.165
229.855	15.746	1437.800	1091.543
230.869	15.738	1436.663	1090.530
231.884	15.755	1435.404	1089.586
232.899	15.837	1434.558	1089.377
233.913	15.695	1433.150	1087.294
234.928	15.597	1432.275	1085.900
235.942	15.759	1430.462	1085.475
236.957	15.736	1429.967	1084.856
237.972	15.695	1428.912	1083.695
238.986	15.749	1427.588	1082.943
240.001	15.696	1426.615	1081.771
241.015	15.764	1425.547	1081.299
242.030	15.781	1424.361	1080.412
243.045	15.813	1423.483	1079.859
244.059	15.959	1422.179	1079.709
245.074	15.850	1422.113	1078.866
246.088	15.898	1420.963	1078.202
247.103	15.925	1420.243	1077.735
248.117	15.973	1419.478	1077.366
249.132	16.085	1418.311	1077.098
250.147	16.000	1418.309	1076.463
251.161	16.199	1417.424	1076.962
252.176	16.323	1416.781	1077.173
253.190	16.357	1416.079	1076.757
254.205	16.406	1415.093	1076.224
255.220	16.431	1414.403	1075.769
256.234	16.327	1414.372	1074.984
257.249	16.431	1413.408	1074.818
258.263	16.491	1412.171	1074.164
259.278	16.446	1410.965	1072.869
260.293	16.403	1410.416	1072.081
261.307	16.468	1409.195	1071.473
262.322	16.470	1408.719	1071.024
263.336	16.579	1407.998	1071.073
264.351	16.562	1407.006	1070.115
265.366	16.610	1405.999	1069.561
266.380	16.597	1405.071	1068.675
267.395	16.602	1404.656	1068.298
268.409	16.607	1403.627	1067.449
269.424	16.648	1402.185	1066.520
270.439	16.534	1401.116	1064.895
271.453	16.445	1400.409	1063.706
272.468	16.525	1399.373	1063.327
273.482	16.550	1398.610	1062.806
274.497	16.444	1397.896	1061.504
275.512	16.451	1397.135	1060.876
276.526	16.495	1395.729	1059.991
277.541	16.602	1395.029	1060.034
278.555	16.621	1393.587	1058.965
279.570	16.593	1393.036	1058.276
280.585	16.552	1392.472	1057.503
281.599	16.617	1391.621	1057.163
282.614	16.800	1390.494	1057.359
283.628	16.769	1389.571	1056.369
284.643	16.683	1388.659	1055.050
285.657	16.658	1387.492	1053.910
286.672	16.639	1386.916	1053.265
287.687	16.630	1385.792	1052.262
288.701	16.723	1384.387	1051.679
289.716	16.691	1383.832	1050.965
290.730	16.694	1383.059	1050.303
291.745	16.807	1381.844	1049.987
292.760	16.768	1381.428	1049.338
293.774	16.714	1380.216	1047.989
294.789	16.802	1379.347	1047.781
295.803	16.948	1378.354	1047.836
296.818	16.919	1377.255	1046.726
297.833	16.866	1376.500	1045.736
298.847	16.807	1375.706	1044.674
299.862	16.779	1374.332	1043.370
300.876	16.871	1373.426	1043.153
301.891	16.919	1372.510	1042.663
302.906	16.884	1372.035	1041.990
303.920	16.914	1371.642	1041.786
304.935	17.057	1370.556	1041.746
305.949	17.059	1369.737	1041.046
306.964	17.071	1369.013	1040.476
307.979	17.121	1368.290	1040.143
308.993	17.143	1366.973	1039.180
310.008	16.980	1366.303	1037.586
311.022	17.172	1365.001	1037.675
312.037	17.035	1364.170	1036.119
313.052	17.135	1363.441	1036.082
314.066	17.163	1362.380	1035.355
315.081	17.104	1361.013	1033.864
316.095	16.974	1360.261	1032.411
317.110	16.999	1359.148	1031.625
318.125	16.996	1358.081	1030.704
319.139	17.090	1357.284	1030.583
320.154	17.020	1356.291	1029.313
321.168	16.969	1355.412	1028.243
322.183	17.112	1353.962	1027.922
323.197	17.066	1353.403	1027.124
324.212	17.132	1352.632	1026.850
325.227	17.011	1351.652	1025.285
326.241	17.080	1350.789	1024.956
327.256	17.193	1349.596	1024.638
328.270	17.212	1348.474	1023.809
329.285	17.173	1347.794	1022.969
330.300	17.198	1347.145	1022.540
331.314	17.124	1346.167	1021.259
332.329	17.188	1345.166	1020.795
333.343	17.140	1344.124	1019.627
334.358	17.207	1343.398	1019.388
335.373	17.235	1343.007	1019.170
336.387	17.246	1342.240	1018.564
337.402	17.321	1341.479	1018.340
338.416	17.353	1340.777	1017.914
339.431	17.389	1340.052	1017.488
340.446	17.430	1339.084	1016.909
341.460	17.457	1338.303	1016.385
342.475	17.568	1337.384	1016.259
343.489	17.634	1336.694	1016.039
344.504	17.578	1335.822	1014.951
345.519	17.644	1334.720	1014.416
346.533	17.608	1333.928	1013.514
347.548	17.681	1333.300	1013.377
348.562	17.685	1332.428	1012.651
349.577	17.801	1331.192	1012.307
350.592	17.657	1331.304	1011.452
351.606	17.519	1329.961	1009.520
352.621	17.478	1329.105	1008.538
353.635	17.574	1327.369	1007.699
354.650	17.512	1326.925	1006.909
355.665	17.515	1326.207	1006.294
356.679	17.593	1324.743	1005.556
357.694	17.532	1323.750	1004.352
358.708	17.648	1322.303	1003.847
359.723	17.765	1321.582	1003.901
360.738	17.679	1320.293	1002.327
361.752	17.737	1319.649	1002.088
362.767	17.673	1318.698	1000.906
363.781	17.696	1317.858	1000.314
364.796	17.736	1316.970	999.783
365.810	17.859	1316.335	999.934
366.825	17.806	1316.083	999.345
367.840	17.951	1314.987	999.274
368.854	18.004	1314.226	998.913
369.869	17.952	1314.116	998.436
370.883	17.964	1313.486	997.942
371.898	17.949	1312.572	997.074
372.913	17.951	1311.835	996.437
373.927	17.921	1310.816	995.397
374.942	17.986	1309.796	994.916
375.956	17.996	1309.096	994.353
376.971	18.112	1308.257	994.301
377.986	18.062	1307.168	993.093
379.000	18.087	1306.745	992.833
380.015	18.211	1305.616	992.607
381.029	18.186	1304.716	991.688
382.044	18.180	1304.338	991.277
383.059	18.275	1303.820	991.348
384.073	18.263	1303.118	990.656
385.088	18.172	1302.319	989.437
386.102	18.301	1301.584	989.536
387.117	18.322	1300.879	989.031
388.132	18.275	1300.174	988.140
389.146	18.164	1299.077	986.577
390.161	18.187	1298.104	985.883
391.175	18.064	1297.696	984.780
392.190	18.131	1296.833	984.421
393.205	18.140	1295.956	983.718
394.219	18.231	1295.122	983.522
395.234	18.323	1293.812	982.971
396.248	18.349	1292.093	981.725
397.263	18.287	1290.965	980.429
398.278	18.160	1289.711	978.660
399.292	18.219	1288.580	978.053
400.307	18.253	1287.560	977.386
401.321	18.118	1286.510	975.735
402.336	18.187	1285.580	975.333
403.350	18.070	1284.864	974.036
404.365	18.180	1283.421	973.484
405.380	18.267	1282.755	973.387
406.394	18.183	1282.002	972.255
407.409	18.240	1281.852	972.375
408.423	18.381	1280.970	972.422
409.438	18.393	1280.627	972.146
410.453	18.507	1279.364	971.746
411.467	18.606	1278.618	971.654
412.482	18.514	1278.480	970.944
413.496	18.525	1277.907	970.485
414.511	18.633	1276.703	970.095
415.526	18.779	1275.584	969.981
416.540	18.701	1275.451	969.352
417.555	18.781	1274.717	969.163
418.569	18.763	1274.223	968.601
419.584	18.758	1273.740	968.118
420.599	18.652	1273.116	966.963
421.613	140.669	1432.868	1796.674
422.628	135.244	1456.088	1796.780
