DTS Sentinel unit serial number:	SN413079Multiplexer serial number:	ORYXHardware model number:	OX4-SRSoftware version number:	ORYX F/W v4.00 Oryx Data Collector v3.7.2.0data status	okinstallation	princeton_trtdifferential loss correction	single-endedforward channel	channel 4reverse channel	N/Adate	2019/09/19time	14:53:35forward acquisition time	60.00reverse acquisition time	0.00gamma	496.2192k internal	0.2304k external	0.2304temperature offset calibration	1.0022default loss term (dB/km)	0.3790temperature slope calibration	1.0000multiplexer offset coefficient	1.0000multiplexer slope coefficient	1.0000fibre end	0.00T internal ref (°C)	32.94T ext. ref 1 (°C)	1.12T ext. ref 2 (°C)	29.86length (m)	temperature (°C)	Stokes	anti-Stokes-747.200	800.000	-0.091	-0.344
-746.185	-72.163	0.271	-0.102
-745.171	-46.721	0.030	0.015
-744.156	136.022	-0.069	0.092
-743.142	62.561	0.233	-0.237
-742.127	238.516	0.019	-0.032
-741.112	261.508	-0.261	-0.460
-740.098	338.007	0.212	-0.419
-739.083	-87.987	0.108	-0.033
-738.069	-13.253	-0.312	0.206
-737.054	95.908	0.057	-0.066
-736.039	404.211	-0.083	-0.179
-735.025	92.239	0.473	0.543
-734.010	-0.872	-0.179	0.129
-732.996	134.647	0.030	-0.040
-731.981	200.092	0.089	0.139
-730.966	657.818	0.107	0.281
-729.952	-4.981	-0.305	0.214
-728.937	-126.865	-0.185	-0.028
-727.923	261.573	0.049	0.087
-726.908	-68.932	0.120	-0.047
-725.894	331.634	-0.060	0.118
-724.879	-149.788	-0.265	0.021
-723.864	29.631	0.085	-0.074
-722.850	-200.000	0.061	-0.271
-721.835	105.137	0.220	-0.264
-720.821	-166.426	-0.388	0.017
-719.806	109.490	0.030	0.036
-718.791	1.327	0.166	0.121
-717.777	-74.055	-0.484	-0.179
-716.762	-14.012	-0.031	-0.020
-715.748	-200.000	-0.008	0.433
-714.733	-64.409	0.158	0.066
-713.718	489.269	-0.167	-0.389
-712.704	3.907	-0.198	0.147
-711.689	-57.692	-0.209	-0.093
-710.675	15.391	0.170	0.136
-709.660	-200.000	-0.027	0.259
-708.645	-162.518	0.155	-0.008
-707.631	127.371	-0.295	0.381
-706.616	122.778	-0.200	-0.254
-705.602	-200.000	-0.050	-0.243
-704.587	800.000	-0.105	0.323
-703.572	8.943	-0.132	0.102
-702.558	-18.468	0.015	-0.010
-701.543	-7.120	0.352	-0.243
-700.529	800.000	0.034	-0.134
-699.514	45.862	0.166	0.156
-698.499	-16.111	-0.228	-0.147
-697.485	-30.204	-0.185	0.107
-696.470	86.244	-0.168	-0.188
-695.456	158.211	0.012	0.017
-694.441	121.660	0.074	-0.093
-693.426	1.445	-0.110	0.081
-692.412	41.157	-0.213	-0.196
-691.397	-57.909	0.066	-0.029
-690.383	83.225	-0.073	-0.081
-689.368	183.907	-0.084	-0.127
-688.354	-200.000	-0.009	0.365
-687.339	254.193	0.197	-0.343
-686.324	-12.368	-0.127	-0.085
-685.310	-14.432	0.165	0.108
-684.295	-131.123	0.224	-0.030
-683.281	62.538	0.060	-0.061
-682.266	45.193	0.120	-0.113
-681.251	-186.249	-0.221	-0.003
-680.237	12.344	0.194	-0.152
-679.222	-106.663	-0.121	0.027
-678.208	97.882	0.024	-0.028
-677.193	-15.093	-0.150	-0.098
-676.178	218.479	0.096	-0.156
-675.164	800.000	0.064	0.250
-674.149	800.000	0.004	-0.013
-673.135	-154.437	-0.357	0.024
-672.120	-48.154	0.192	-0.094
-671.105	-96.214	-0.117	-0.031
-670.091	-200.000	-0.006	0.140
-669.076	-200.000	-0.038	-0.343
-668.062	30.429	0.159	-0.138
-667.047	-78.881	0.120	0.041
-666.032	-200.000	0.087	0.389
-665.018	64.005	0.065	-0.066
-664.003	800.000	-0.131	0.450
-662.989	-71.259	-0.325	0.124
-661.974	-138.093	0.520	-0.059
-660.959	-157.299	-0.312	0.019
-659.945	158.051	-0.177	0.249
-658.930	-200.000	-0.007	0.326
-657.916	-200.000	0.052	0.440
-656.901	-200.000	0.044	0.313
-655.886	-44.756	-0.074	0.037
-654.872	408.684	0.064	-0.137
-653.857	-110.986	-0.433	0.090
-652.843	-200.000	0.000	-0.202
-651.828	235.204	-0.132	0.220
-650.814	-200.000	-0.003	0.523
-649.799	2.514	0.124	-0.091
-648.784	210.436	-0.113	-0.180
-647.770	182.605	-0.164	-0.245
-646.755	465.532	0.139	-0.315
-645.741	22.871	-0.030	-0.025
-644.726	613.914	0.042	-0.105
-643.711	98.678	0.191	-0.224
-642.697	29.101	-0.208	0.179
-641.682	-119.359	0.033	0.006
-640.668	-200.000	-0.009	0.317
-639.653	23.605	-0.071	-0.059
-638.638	-45.896	-0.137	-0.068
-637.624	26.980	0.231	0.197
-636.609	796.794	0.052	0.144
-635.595	-17.000	0.106	0.068
-634.580	306.633	-0.137	0.259
-633.565	-79.353	0.135	-0.046
-632.551	40.285	0.172	0.157
-631.536	266.828	-0.144	0.255
-630.522	-88.924	0.057	0.017
-629.507	659.807	0.133	-0.347
-628.492	-43.057	-0.228	-0.117
-627.478	-200.000	0.022	-0.270
-626.463	-140.793	-0.244	-0.026
-625.449	-173.575	-0.115	0.004
-624.434	800.000	-0.131	0.410
-623.419	-200.000	-0.006	-0.158
-622.405	-200.000	-0.017	-0.318
-621.390	-42.568	0.466	0.241
-620.376	116.599	0.118	-0.147
-619.361	-200.000	-0.010	-0.479
-618.346	-17.003	-0.197	-0.126
-617.332	-87.882	0.101	0.031
-616.317	-105.246	0.239	-0.055
-615.303	-54.905	-0.207	-0.095
-614.288	29.312	0.191	-0.165
-613.273	-200.000	0.028	-0.419
-612.259	174.144	-0.143	-0.210
-611.244	-68.201	0.375	0.148
-610.230	-125.309	0.262	0.041
-609.215	-67.545	0.112	0.044
-608.201	-200.000	0.038	0.189
-607.186	-60.195	-0.021	-0.009
-606.171	-81.233	0.252	0.084
-605.157	800.000	0.089	0.257
-604.142	-60.534	-0.131	0.057
-603.128	168.431	-0.044	-0.064
-602.113	122.026	0.247	0.313
-601.098	113.964	0.168	-0.207
-600.084	220.809	-0.058	-0.094
-599.069	-37.630	-0.009	-0.005
-598.055	800.000	-0.069	0.198
-597.040	305.126	-0.018	-0.035
-596.025	210.722	0.048	0.076
-595.011	138.773	-0.099	0.132
-593.996	36.911	-0.106	-0.095
-592.982	62.681	-0.077	-0.078
-591.967	-182.989	-0.304	-0.005
-590.952	800.000	-0.021	0.075
-589.938	-200.000	0.017	-0.195
-588.923	-83.982	-0.142	0.046
-587.909	-69.803	-0.220	0.085
-586.894	-200.000	0.016	0.225
-585.879	45.584	-0.025	0.023
-584.865	-155.154	0.055	-0.004
-583.850	-157.031	-0.278	-0.017
-582.836	665.072	0.086	-0.224
-581.821	28.407	-0.063	-0.054
-580.806	800.000	0.077	-0.293
-579.792	-10.622	0.379	-0.254
-578.777	514.718	0.019	-0.044
-577.763	633.071	-0.067	0.173
-576.748	21.802	0.199	-0.164
-575.733	76.581	-0.072	0.077
-574.719	152.762	-0.091	0.125
-573.704	180.988	-0.124	-0.184
-572.690	-56.254	-0.230	0.103
-571.675	-15.622	0.055	-0.036
-570.661	-31.403	-0.102	-0.058
-569.646	-196.386	-0.343	-0.002
-568.631	-112.034	-0.345	-0.070
-567.617	123.712	-0.131	0.166
-566.602	-120.586	-0.163	0.028
-565.588	-121.810	0.251	0.042
-564.573	164.407	0.082	-0.118
-563.558	-94.159	-0.096	0.027
-562.544	101.560	-0.039	-0.046
-561.529	-112.297	-0.139	0.028
-560.515	-66.011	0.369	-0.149
-559.500	-200.000	0.052	-0.349
-558.485	-200.000	-0.048	0.472
-557.471	-15.612	0.193	-0.124
-556.456	800.000	0.058	0.230
-555.442	567.061	-0.101	-0.248
-554.427	-200.000	0.002	0.161
-553.412	-200.000	-0.048	-0.303
-552.398	792.167	0.035	0.097
-551.383	93.924	0.146	0.167
-550.369	-30.812	-0.135	0.077
-549.354	231.174	-0.182	0.301
-548.339	-200.000	-0.053	-0.308
-547.325	-105.917	-0.132	0.030
-546.310	-108.797	-0.146	-0.031
-545.296	-11.429	0.205	-0.136
-544.281	-157.315	-0.269	0.016
-543.266	626.978	-0.067	-0.170
-542.252	91.181	0.172	0.195
-541.237	25.324	0.127	-0.106
-540.223	-200.000	0.015	0.170
-539.208	-190.204	0.332	-0.004
-538.193	-73.623	-0.084	-0.031
-537.179	800.000	0.082	-0.250
-536.164	-200.000	-0.011	-0.124
-535.150	-79.447	0.323	0.110
-534.135	-200.000	-0.012	0.127
-533.121	311.150	-0.149	-0.283
-532.106	800.000	0.031	0.125
-531.091	324.957	-0.157	0.303
-530.077	-28.205	0.142	-0.083
-529.062	-75.271	-0.086	0.031
-528.048	29.711	0.328	-0.282
-527.033	-200.000	0.003	0.091
-526.018	1.291	0.167	-0.121
-525.004	171.181	-0.167	-0.242
-523.989	78.655	-0.209	0.225
-522.975	-51.456	0.141	-0.067
-521.960	-200.000	-0.009	0.200
-520.945	-200.000	0.054	0.452
-519.931	418.704	0.094	0.204
-518.916	62.753	-0.141	0.143
-517.902	86.352	-0.068	-0.075
-516.887	-200.000	-0.001	-0.131
-515.872	288.863	0.143	0.261
-514.858	-13.169	-0.090	0.059
-513.843	-200.000	-0.024	0.322
-512.829	-109.234	-0.087	-0.019
-511.814	401.880	0.076	-0.162
-510.799	-131.801	-0.076	0.010
-509.785	43.845	0.102	0.094
-508.770	-73.841	0.072	0.026
-507.756	-29.897	0.208	0.119
-506.741	800.000	-0.102	0.310
-505.726	-200.000	-0.069	0.698
-504.712	-61.452	0.231	0.098
-503.697	-56.450	-0.281	0.126
-502.683	83.207	-0.177	0.194
-501.668	-120.445	-0.207	-0.036
-500.653	-200.000	0.025	0.172
-499.639	159.537	-0.073	0.102
-498.624	-72.054	-0.107	0.040
-497.610	-131.212	-0.141	0.019
-496.595	-200.000	-0.012	0.410
-495.581	26.984	0.107	0.090
-494.566	5.648	0.310	0.231
-493.551	-37.948	-0.250	0.134
-492.537	-200.000	0.014	-0.093
-491.522	-12.401	-0.181	0.119
-490.508	-61.124	0.249	-0.106
-489.493	-173.621	0.404	-0.012
-488.478	-22.577	0.148	-0.090
-487.464	-119.206	-0.421	0.074
-486.449	-200.000	-0.003	-0.088
-485.435	162.911	0.126	-0.179
-484.420	-200.000	-0.054	0.261
-483.405	16.510	0.238	0.190
-482.391	-70.256	-0.154	0.059
-481.376	800.000	0.037	0.151
-480.362	-160.117	0.393	0.022
-479.347	800.000	0.016	0.061
-478.332	34.799	-0.194	-0.171
-477.318	73.898	-0.211	0.223
-476.303	-156.191	0.522	0.033
-475.289	800.000	0.115	-0.379
-474.274	-161.970	0.350	-0.018
-473.259	223.834	-0.246	-0.400
-472.245	-70.160	0.134	0.051
-471.230	800.000	-0.083	-0.328
-470.216	80.105	-0.219	-0.237
-469.201	86.636	-0.177	0.196
-468.186	-6.603	-0.195	-0.133
-467.172	-200.000	0.003	-0.319
-466.157	-136.857	0.172	0.020
-465.143	800.000	0.065	-0.249
-464.128	-40.935	-0.150	0.078
-463.113	800.000	-0.064	-0.270
-462.099	-200.000	0.037	0.176
-461.084	-64.966	0.118	0.048
-460.070	-125.996	-0.340	0.051
-459.055	-110.943	-0.390	0.081
-458.040	-200.000	-0.029	0.139
-457.026	107.227	-0.332	-0.397
-456.011	-103.339	0.361	0.086
-454.997	462.573	0.143	-0.320
-453.982	565.523	-0.104	0.253
-452.968	-5.931	-0.298	0.205
-451.953	-106.249	-0.116	-0.026
-450.938	10.688	-0.093	0.071
-449.924	11.322	-0.181	0.139
-448.909	127.656	-0.185	-0.236
-447.895	71.876	0.219	-0.230
-446.880	128.805	-0.236	0.302
-445.865	45.900	0.176	-0.164
-444.851	-3.314	0.205	-0.143
-443.836	433.283	-0.052	0.114
-442.822	-200.000	0.037	0.196
-441.807	26.850	0.121	0.102
-440.792	-118.517	-0.162	0.029
-439.778	-62.565	-0.272	0.114
-438.763	-14.244	-0.120	0.078
-437.749	-200.000	0.009	0.097
-436.734	800.000	0.075	-0.261
-435.719	-200.000	-0.008	0.191
-434.705	-145.226	0.431	0.039
-433.690	3.655	0.025	-0.018
-432.676	116.171	-0.091	-0.112
-431.661	-161.003	0.171	-0.009
-430.646	36.389	0.290	-0.257
-429.632	321.696	0.103	-0.196
-428.617	-117.889	-0.495	-0.089
-427.603	19.451	-0.360	-0.291
-426.588	132.467	-0.078	-0.101
-425.573	-200.000	-0.056	-0.338
-424.559	-38.879	-0.356	0.189
-423.544	-200.000	-0.032	-0.211
-422.530	-200.000	0.007	0.047
-421.515	-12.689	-0.280	-0.184
-420.500	302.095	0.095	-0.177
-419.486	78.883	0.102	-0.109
-418.471	151.223	-0.121	-0.165
-417.457	-28.808	0.071	-0.041
-416.442	-44.975	0.205	0.103
-415.428	-67.976	0.204	0.080
-414.413	113.062	0.046	-0.057
-413.398	-137.492	-0.277	0.031
-412.384	-120.208	-0.319	0.055
-411.369	-101.322	0.157	-0.038
-410.355	-134.000	0.159	0.020
-409.340	181.062	-0.112	0.166
-408.325	158.819	-0.210	-0.293
-407.311	463.428	0.240	-0.539
-406.296	443.913	0.063	0.139
-405.282	78.850	-0.140	-0.150
-404.267	-194.456	-0.283	-0.002
-403.252	-113.485	0.193	-0.038
-402.238	367.488	-0.100	0.203
-401.223	-26.476	-0.218	0.128
-400.209	800.000	0.088	0.282
-399.194	-99.493	-0.028	0.007
-398.179	132.990	-0.074	-0.096
-397.165	758.315	0.064	-0.174
-396.150	390.300	0.073	0.152
-395.136	800.000	-0.025	0.085
-394.121	-45.564	0.097	0.048
-393.106	28.028	0.110	0.094
-392.092	800.000	-0.067	0.249
-391.077	-53.483	0.167	0.077
-390.063	-200.000	-0.037	0.445
-389.048	800.000	0.034	0.108
-388.033	-67.656	-0.368	-0.145
-387.019	-0.662	-0.167	-0.119
-386.004	-86.257	0.027	-0.008
-384.990	-108.208	0.425	-0.092
-383.975	487.288	0.061	0.139
-382.960	-94.270	-0.228	-0.063
-381.946	34.966	-0.231	0.203
-380.931	226.630	0.024	-0.038
-379.917	-148.065	-0.471	-0.039
-378.902	-200.000	0.054	0.404
-377.888	-200.000	-0.019	0.240
-376.873	-8.494	0.148	0.100
-375.858	350.798	-0.078	-0.156
-374.844	246.046	-0.224	0.379
-373.829	-14.507	0.382	0.246
-372.815	336.130	-0.200	0.390
-371.800	-49.374	0.515	0.246
-370.785	139.913	0.148	0.196
-369.771	800.000	-0.057	0.230
-368.756	-200.000	-0.020	-0.321
-367.742	104.764	0.068	-0.080
-366.727	-200.000	0.007	-0.050
-365.712	-120.641	-0.361	0.061
-364.698	800.000	-0.044	0.143
-363.683	159.167	0.044	-0.062
-362.669	-200.000	0.001	0.025
-361.654	287.760	-0.109	-0.197
-360.639	-69.369	0.067	-0.026
-359.625	-200.000	-0.020	0.374
-358.610	-10.362	-0.218	-0.145
-357.596	-8.502	0.049	-0.033
-356.581	85.244	-0.252	0.278
-355.566	97.311	0.202	-0.232
-354.552	97.496	0.151	-0.174
-353.537	309.159	0.132	-0.248
-352.523	800.000	-0.075	-0.251
-351.508	-125.788	0.068	0.010
-350.493	800.000	-0.048	0.183
-349.479	21.099	0.094	-0.077
-348.464	333.239	0.045	-0.087
-347.450	-153.003	-0.197	0.014
-346.435	-40.816	-0.097	-0.050
-345.420	-200.000	-0.000	0.176
-344.406	-109.034	-0.233	-0.050
-343.391	-152.608	0.378	-0.027
-342.377	9.996	0.262	0.200
-341.362	289.307	0.151	0.275
-340.348	-90.683	-0.269	0.078
-339.333	800.000	0.036	-0.114
-338.318	-115.152	0.114	0.022
-337.304	144.079	-0.114	0.152
-336.289	22.541	-0.082	-0.067
-335.275	-32.775	-0.326	-0.182
-334.260	-61.733	-0.023	-0.010
-333.245	543.683	0.070	-0.168
-332.231	-200.000	-0.032	0.201
-331.216	-81.462	0.275	-0.091
-330.202	-42.792	0.122	0.062
-329.187	513.645	-0.061	0.143
-328.172	-84.243	0.226	0.072
-327.158	-125.381	-0.108	0.017
-326.143	-200.000	-0.008	-0.063
-325.129	-21.158	-0.175	0.107
-324.114	94.095	0.172	0.196
-323.099	-59.171	0.394	0.170
-322.085	-55.882	0.156	-0.070
-321.070	115.347	-0.076	0.093
-320.056	97.308	-0.167	0.192
-319.041	-200.000	-0.042	-0.343
-318.026	76.467	0.177	-0.188
-317.012	-108.497	0.151	0.032
-315.997	322.815	0.116	-0.221
-314.983	793.857	-0.060	0.166
-313.968	-184.222	-0.385	-0.006
-312.953	-124.238	0.104	-0.016
-311.939	-84.536	-0.238	0.075
-310.924	264.606	0.137	-0.239
-309.910	-87.749	0.279	0.084
-308.895	92.351	-0.076	0.086
-307.880	289.932	0.120	0.217
-306.866	79.432	0.029	-0.031
-305.851	-148.747	-0.332	0.027
-304.837	268.003	0.054	0.094
-303.822	766.197	0.210	-0.573
-302.807	-134.044	0.144	-0.018
-301.793	88.257	0.159	0.177
-300.778	398.002	-0.091	-0.190
-299.764	8.294	0.140	0.106
-298.749	-200.000	0.011	0.272
-297.735	47.315	-0.098	0.092
-296.720	81.604	-0.116	-0.125
-295.705	3.915	-0.369	-0.270
-294.691	46.082	0.072	-0.066
-293.676	55.124	0.272	0.263
-292.662	-87.424	-0.277	-0.084
-291.647	-117.551	-0.177	0.032
-290.632	-200.000	0.016	-0.251
-289.618	-45.605	0.299	-0.148
-288.603	-200.000	0.038	0.186
-287.589	-78.408	-0.281	0.096
-286.574	-116.396	-0.129	0.024
-285.559	-200.000	0.052	-0.293
-284.545	457.270	-0.255	-0.566
-283.530	15.037	0.096	-0.075
-282.516	-34.629	0.199	-0.109
-281.501	-200.000	0.041	0.209
-280.486	84.046	0.063	-0.069
-279.472	-200.000	-0.077	0.445
-278.457	-200.000	-0.013	-0.097
-277.443	794.395	0.051	-0.141
-276.428	151.943	-0.193	0.264
-275.413	142.064	0.188	-0.249
-274.399	172.526	0.056	0.081
-273.384	-127.685	0.314	-0.045
-272.370	-59.575	0.142	-0.061
-271.355	-168.167	-0.245	0.009
-270.340	24.969	0.307	0.255
-269.326	214.020	-0.107	0.170
-268.311	169.133	0.234	0.334
-267.297	800.000	0.037	0.162
-266.282	338.024	-0.150	0.292
-265.267	-17.534	-0.154	-0.097
-264.253	-98.979	-0.225	-0.057
-263.238	-200.000	-0.027	0.254
-262.224	-150.478	-0.098	0.008
-261.209	114.656	-0.046	0.056
-260.195	800.000	0.032	-0.093
-259.180	-131.673	0.076	0.010
-258.165	249.774	0.101	-0.172
-257.151	83.474	-0.224	-0.244
-256.136	30.972	0.189	0.162
-255.122	506.594	0.091	-0.210
-254.107	206.303	0.116	-0.181
-253.092	74.034	0.201	0.211
-252.078	-18.036	-0.116	-0.073
-251.063	398.016	0.077	0.161
-250.049	602.554	-0.090	-0.224
-249.034	-200.000	0.010	0.102
-248.019	-109.349	0.028	-0.006
-247.005	-200.000	-0.062	0.382
-245.990	184.392	0.252	-0.373
-244.976	800.000	0.074	0.317
-243.961	50.111	0.094	0.088
-242.946	35.214	0.185	-0.162
-241.932	157.501	0.150	-0.207
-240.917	180.311	-0.063	0.092
-239.903	-200.000	0.049	0.374
-238.888	79.259	-0.076	-0.081
-237.873	-139.139	0.251	-0.027
-236.859	190.965	0.063	-0.094
-235.844	-200.000	0.012	-0.077
-234.830	46.835	-0.086	-0.080
-233.815	-56.409	-0.258	0.114
-232.800	234.069	0.130	-0.214
-231.786	-200.000	0.029	0.181
-230.771	235.955	-0.045	0.074
-229.757	-86.073	0.177	0.054
-228.742	105.468	-0.293	-0.346
-227.727	-102.568	0.279	0.067
-226.713	29.604	-0.211	0.179
-225.698	679.407	-0.049	0.128
-224.684	-187.861	0.525	0.007
-223.669	800.000	-0.090	-0.272
-222.655	-128.449	-0.328	-0.046
-221.640	655.740	0.066	-0.169
-220.625	-118.157	-0.428	0.076
-219.611	-200.000	0.030	-0.359
-218.596	289.213	-0.116	-0.209
-217.582	74.141	0.187	-0.196
-216.567	-103.778	-0.490	-0.114
-215.552	-124.197	0.274	-0.043
-214.538	-101.053	-0.049	-0.012
-213.523	-159.718	-0.330	-0.018
-212.509	-200.000	0.037	0.173
-211.494	800.000	0.045	0.137
-210.479	85.671	0.159	-0.175
-209.465	-133.331	-0.309	0.039
-208.450	-4.446	-0.162	-0.112
-207.436	-8.406	0.175	0.117
-206.421	-200.000	-0.004	-0.040
-205.406	82.503	-0.123	-0.133
-204.392	-130.408	0.233	0.031
-203.377	167.711	-0.171	-0.242
-202.363	633.838	0.099	-0.250
-201.348	800.000	0.038	-0.117
-200.333	26.983	-0.290	0.243
-199.319	-105.836	-0.237	-0.053
-198.304	-88.658	0.245	-0.073
-197.290	26.639	0.141	-0.118
-196.275	-83.774	0.150	-0.048
-195.260	526.858	0.021	-0.050
-194.246	800.000	0.027	0.103
-193.231	748.110	-0.068	0.183
-192.217	-120.694	0.232	-0.039
-191.202	-200.000	0.000	0.054
-190.187	-200.000	0.260	-0.001
-189.173	-101.334	0.127	-0.031
-188.158	29.609	-0.066	-0.056
-187.144	-110.513	-0.312	0.064
-186.129	-65.169	0.130	-0.052
-185.114	9.408	-0.205	-0.155
-184.100	-61.454	-0.072	-0.030
-183.085	-4.318	-0.178	0.123
-182.071	800.000	-0.062	-0.245
-181.056	13.852	0.286	0.222
-180.042	-33.147	0.371	-0.205
-179.027	-90.793	0.163	0.047
-178.012	800.000	0.017	0.059
-176.998	-84.181	0.462	-0.146
-175.983	0.617	-0.115	0.082
-174.969	10.326	-0.102	0.077
-173.954	248.355	-0.037	-0.062
-172.939	63.177	-0.281	0.280
-171.925	-120.198	0.207	-0.035
-170.910	-200.000	0.042	-0.312
-169.896	-22.790	-0.268	-0.161
-168.881	176.789	-0.030	0.043
-167.866	-200.000	0.011	0.072
-166.852	102.786	0.192	0.224
-165.837	-96.498	0.142	0.037
-164.823	125.034	0.139	0.175
-163.808	291.474	0.129	-0.233
-162.793	-62.274	0.117	-0.049
-161.779	-200.000	-0.026	-0.299
-160.764	51.314	-0.163	-0.154
-159.750	500.287	0.065	-0.149
-158.735	-59.374	0.159	-0.068
-157.720	-200.000	-0.401	-0.001
-156.706	800.000	0.054	0.175
-155.691	800.000	-0.031	0.091
-154.677	-22.248	-0.173	0.105
-153.662	-200.000	0.013	-0.295
-152.647	-114.841	0.232	-0.044
-151.633	45.130	0.169	0.155
-150.618	-42.055	-0.327	0.167
-149.604	-75.434	0.116	0.041
-148.589	-117.725	-0.130	-0.023
-147.574	-7.225	0.205	-0.138
-146.560	-136.509	0.305	-0.035
-145.545	-8.854	-0.114	0.076
-144.531	-200.000	-0.051	0.324
-143.516	-200.000	-0.001	0.268
-142.502	-76.264	-0.308	0.108
-141.487	-138.357	0.319	-0.035
-140.472	685.030	-0.096	-0.250
-139.458	90.951	0.182	-0.203
-138.443	-200.000	-0.033	-0.382
-137.429	-91.347	0.128	0.036
-136.414	-122.289	0.116	0.019
-135.399	27.712	-0.099	-0.082
-134.385	323.578	-0.045	0.086
-133.370	-200.000	-0.012	-0.237
-132.356	654.596	0.111	-0.284
-131.341	85.167	-0.190	-0.207
-130.326	-15.051	0.214	-0.136
-129.312	67.136	-0.212	-0.215
-128.297	-200.000	-0.047	0.298
-127.283	-200.000	0.000	0.066
-126.268	146.912	-0.093	0.125
-125.253	-174.484	-0.531	0.015
-124.239	193.011	-0.058	-0.087
-123.224	-78.245	0.111	-0.038
-122.210	-55.612	-0.221	-0.098
-121.195	-110.074	0.256	0.053
-120.180	-200.000	-0.022	-0.357
-119.166	-191.785	-0.183	0.002
-118.151	-200.000	0.022	-0.206
-117.137	-44.923	-0.190	0.094
-116.122	-69.304	0.165	0.063
-115.107	-200.000	0.032	0.174
-114.093	43.692	0.245	0.223
-113.078	213.273	-0.036	0.057
-112.064	237.949	-0.177	0.292
-111.049	497.234	-0.077	0.176
-110.034	52.747	-0.250	0.237
-109.020	-173.927	0.350	0.010
-108.005	-30.345	0.164	-0.092
-106.991	-121.313	0.232	-0.038
-105.976	-42.796	0.053	0.027
-104.962	800.000	-0.077	-0.241
-103.947	-83.936	0.290	0.092
-102.932	-109.856	-0.134	-0.028
-101.918	-200.000	-0.216	0.001
-100.903	44.173	0.101	0.092
-99.889	-106.886	-0.176	0.039
-98.874	800.000	-0.117	-0.324
-97.859	476.176	0.047	0.106
-96.845	-200.000	-0.026	-0.309
-95.830	25.187	0.166	-0.137
-94.816	-200.000	-0.012	-0.270
-93.801	158.599	0.082	-0.113
-92.786	-8.054	-0.165	0.110
-91.772	61.079	0.198	-0.195
-90.757	-161.121	-0.361	0.019
-89.743	95.634	0.193	-0.219
-88.728	-31.062	0.271	0.152
-87.713	16.814	-0.278	0.218
-86.699	800.000	0.033	0.144
-85.684	800.000	-0.052	0.210
-84.670	32.265	0.057	0.049
-83.655	148.354	-0.189	0.253
-82.640	65.411	0.155	-0.156
-81.626	-83.279	0.679	-0.216
-80.611	-104.488	0.191	0.044
-79.597	-200.000	-0.023	-0.103
-78.582	-200.000	-0.012	0.162
-77.567	-200.000	0.012	-0.109
-76.553	-64.633	-0.337	-0.136
-75.538	-88.045	0.122	-0.036
-74.524	-128.804	-0.487	-0.068
-73.509	-4.031	0.081	-0.056
-72.494	117.289	-0.090	-0.110
-71.480	149.929	0.075	0.101
-70.465	-108.702	-0.292	-0.062
-69.451	517.242	0.051	0.117
-68.436	800.000	-0.084	-0.273
-67.422	-200.000	-0.016	-0.096
-66.407	634.252	0.043	-0.108
-65.392	800.000	-0.038	-0.155
-64.378	782.621	0.065	-0.176
-63.363	154.986	0.167	0.227
-62.349	-200.000	0.004	0.046
-61.334	169.167	-0.677	-0.958
-60.319	-98.514	0.776	0.197
-59.305	-200.000	0.030	-1.057
-58.290	76.636	0.857	0.901
-57.276	800.000	0.545	1.651
-56.261	-200.000	95.006	540.218
-55.246	470.592	1434.208	3195.975
-54.232	143.209	2656.218	3502.684
-53.217	99.361	2379.477	2726.936
-52.203	39.355	2126.336	1886.790
-51.188	34.583	2039.450	1765.600
-50.173	33.021	2021.433	1735.599
-49.159	47.499	2069.709	1911.893
-48.144	48.893	2087.887	1941.569
-47.130	35.283	2050.115	1781.060
-46.115	32.917	2039.563	1749.923
-45.100	32.848	2036.494	1746.583
-44.086	32.813	2033.995	1744.047
-43.071	32.706	2031.397	1740.762
-42.057	32.699	2028.992	1738.568
-41.042	32.735	2026.775	1736.930
-40.027	32.838	2025.019	1736.306
-39.013	32.761	2022.975	1733.773
-37.998	32.821	2021.013	1732.577
-36.984	32.844	2019.196	1731.162
-35.969	32.898	2017.109	1729.797
-34.954	32.897	2015.531	1728.372
-33.940	32.911	2014.201	1727.290
-32.925	32.949	2012.489	1726.097
-31.911	32.927	2010.610	1724.218
-30.896	32.940	2009.445	1723.268
-29.881	32.928	2008.140	1721.972
-28.867	32.939	2006.353	1720.472
-27.852	33.032	2004.560	1719.712
-26.838	32.993	2002.060	1717.141
-25.823	32.968	1999.958	1715.044
-24.809	32.964	1998.443	1713.645
-23.794	32.911	1997.239	1712.060
-22.779	32.926	1994.856	1710.089
-21.765	32.928	1993.059	1708.493
-20.750	32.973	1991.217	1707.253
-19.736	32.983	1989.752	1706.024
-18.721	33.002	1987.878	1704.520
-17.706	33.050	1986.292	1703.526
-16.692	32.953	1985.064	1701.531
-15.677	32.972	1983.103	1699.956
-14.663	32.925	1982.038	1698.548
-13.648	33.009	1980.040	1697.525
-12.633	32.987	1979.187	1696.530
-11.619	32.981	1977.875	1695.280
-10.604	32.966	1976.535	1693.928
-9.590	32.974	1974.959	1692.587
-8.575	32.984	1973.377	1691.250
-7.560	32.946	1972.524	1690.110
-6.546	33.010	1971.097	1689.397
-5.531	32.860	1970.316	1687.319
-4.517	32.984	1968.508	1686.815
-3.502	32.977	1967.406	1685.737
-2.487	32.991	1966.033	1684.614
-1.473	33.026	1965.233	1684.181
-0.458	33.089	1960.621	1680.722
0.556	32.398	1941.317	1656.887
1.571	28.380	1921.079	1604.372
2.586	23.749	1942.068	1580.655
3.600	21.918	1977.309	1592.594
4.615	20.811	1970.698	1577.113
5.629	15.853	1866.637	1451.067
6.644	6.735	1743.012	1281.138
7.659	1.573	1703.956	1211.292
8.673	1.261	1700.076	1205.947
9.688	1.175	1699.094	1204.462
10.702	1.122	1698.113	1203.235
11.717	0.902	1694.572	1198.880
12.731	1.355	1693.530	1201.621
13.746	7.095	1705.976	1255.995
14.761	14.524	1720.490	1325.832
15.775	17.293	1724.538	1350.863
16.790	17.450	1723.860	1351.465
17.804	16.531	1720.136	1341.143
18.819	15.574	1717.400	1331.304
19.834	15.004	1714.929	1324.764
20.848	14.693	1713.380	1320.990
21.863	14.367	1711.438	1316.797
22.877	14.133	1709.671	1313.471
23.892	13.978	1707.954	1310.815
24.907	13.769	1707.707	1308.863
25.921	13.811	1706.184	1307.906
26.936	13.740	1704.885	1306.235
27.950	13.783	1704.732	1306.343
28.965	13.862	1703.661	1306.032
29.980	13.825	1703.292	1305.340
30.994	13.946	1702.130	1305.285
32.009	14.018	1700.915	1304.804
33.023	14.063	1699.995	1304.333
34.038	14.016	1699.424	1303.415
35.053	13.946	1698.205	1301.817
36.067	13.952	1697.171	1300.954
37.082	13.929	1695.746	1299.569
38.096	13.948	1694.888	1298.939
39.111	14.025	1694.007	1298.754
40.126	14.043	1693.260	1298.203
41.140	13.966	1692.784	1297.124
42.155	13.860	1691.305	1295.053
43.169	13.829	1689.990	1293.684
44.184	13.873	1688.635	1292.877
45.199	13.789	1687.779	1291.451
46.213	13.822	1686.323	1290.480
47.228	13.819	1684.703	1289.107
48.242	13.886	1683.599	1288.669
49.257	13.902	1682.413	1287.765
50.271	13.942	1681.087	1286.949
51.286	13.803	1680.372	1285.211
52.301	13.881	1678.188	1284.029
53.315	13.915	1677.007	1283.278
54.330	13.885	1675.357	1281.667
55.344	13.851	1674.504	1280.644
56.359	13.858	1672.501	1279.048
57.374	13.803	1671.429	1277.692
58.388	13.839	1670.156	1276.884
59.403	13.773	1668.770	1275.208
60.417	13.772	1667.471	1274.095
61.432	13.828	1665.950	1273.248
62.447	13.766	1664.780	1271.765
63.461	13.791	1663.422	1270.804
64.476	13.723	1662.377	1269.375
65.490	13.845	1661.195	1269.291
66.505	13.713	1659.951	1267.222
67.520	13.749	1658.888	1266.570
68.534	13.796	1657.733	1265.940
69.549	13.775	1657.183	1265.248
70.563	13.779	1655.624	1263.976
71.578	13.798	1654.107	1262.845
72.593	13.762	1652.869	1261.518
73.607	13.671	1652.271	1260.261
74.622	13.670	1650.906	1259.098
75.636	13.639	1650.245	1258.247
76.651	13.643	1649.318	1257.458
77.666	13.585	1648.122	1255.992
78.680	13.673	1647.376	1255.982
79.695	13.754	1646.297	1255.663
80.709	13.757	1644.828	1254.453
81.724	13.759	1644.436	1254.061
82.739	13.819	1643.221	1253.475
83.753	13.743	1642.375	1252.147
84.768	13.909	1640.903	1252.163
85.782	13.884	1640.219	1251.340
86.797	13.861	1639.431	1250.459
87.812	13.944	1638.038	1249.907
88.826	13.860	1637.299	1248.601
89.841	13.871	1635.726	1247.375
90.855	13.762	1635.055	1245.932
91.870	13.861	1633.857	1245.656
92.884	13.898	1633.184	1245.304
93.899	13.968	1631.688	1244.580
94.914	13.960	1630.748	1243.692
95.928	13.993	1629.545	1242.914
96.943	13.950	1628.262	1241.504
97.957	13.887	1626.627	1239.680
98.972	13.931	1625.260	1238.857
99.987	13.941	1623.053	1237.136
101.001	13.908	1621.812	1235.831
102.016	13.879	1620.484	1234.495
103.030	13.865	1619.147	1233.269
104.045	13.970	1617.595	1232.756
105.060	13.921	1615.983	1231.050
106.074	13.923	1614.782	1230.044
107.089	13.968	1612.758	1228.727
108.103	13.801	1611.615	1226.513
109.118	13.863	1610.278	1225.847
110.133	13.756	1609.108	1224.053
111.147	13.748	1607.834	1222.920
112.162	13.779	1606.558	1222.069
113.176	13.824	1604.697	1220.879
114.191	13.898	1603.395	1220.324
115.206	13.880	1602.457	1219.365
116.220	13.974	1600.444	1218.421
117.235	13.921	1599.613	1217.292
118.249	13.903	1598.617	1216.292
119.264	13.860	1597.089	1214.708
120.279	13.835	1595.587	1213.272
121.293	13.809	1594.634	1212.251
122.308	13.823	1592.875	1210.910
123.322	13.861	1591.074	1209.709
124.337	13.862	1589.569	1208.463
125.352	13.830	1588.245	1207.121
126.366	13.850	1586.977	1206.195
127.381	13.886	1585.851	1205.493
128.395	13.921	1584.512	1204.622
129.410	13.863	1583.694	1203.471
130.424	13.832	1581.983	1201.846
131.439	13.891	1580.922	1201.360
132.454	13.918	1579.301	1200.214
133.468	13.940	1577.598	1198.970
134.483	14.040	1575.950	1198.334
135.497	13.941	1575.213	1196.958
136.512	13.890	1573.912	1195.494
137.527	13.999	1572.126	1194.815
138.541	13.967	1570.960	1193.593
139.556	13.915	1569.696	1192.154
140.570	13.831	1568.037	1190.186
141.585	13.930	1567.025	1190.025
142.600	13.923	1565.606	1188.789
143.614	14.001	1564.183	1188.160
144.629	14.069	1562.813	1187.504
145.643	14.109	1561.762	1186.886
146.658	14.168	1560.082	1185.922
147.673	14.157	1558.180	1184.295
148.687	14.044	1557.452	1182.831
149.702	14.160	1555.364	1181.966
150.716	14.143	1553.827	1180.574
151.731	14.030	1552.982	1179.022
152.746	14.087	1551.077	1177.874
153.760	14.064	1549.728	1176.588
154.775	14.151	1548.673	1176.297
155.789	14.094	1547.492	1174.892
156.804	14.118	1546.327	1174.074
157.819	14.122	1544.635	1172.712
158.833	14.210	1543.332	1172.243
159.848	14.196	1542.384	1171.319
160.862	14.304	1540.740	1170.728
161.877	14.241	1539.638	1169.342
162.892	14.205	1538.471	1168.098
163.906	14.204	1537.021	1166.885
164.921	14.155	1535.565	1165.335
165.935	14.209	1534.395	1164.719
166.950	14.168	1534.221	1164.201
167.964	14.287	1532.529	1163.642
168.979	14.262	1532.127	1163.059
169.994	14.332	1530.785	1162.428
171.008	14.260	1529.330	1160.722
172.023	14.221	1528.477	1159.695
173.037	14.290	1527.500	1159.332
174.052	14.320	1526.156	1158.420
175.067	14.377	1524.849	1157.722
176.081	14.414	1523.920	1157.172
177.096	14.392	1522.545	1155.875
178.110	14.274	1521.634	1154.263
179.125	14.376	1520.140	1153.733
180.140	14.275	1519.316	1152.307
181.154	14.331	1518.574	1152.029
182.169	14.377	1516.948	1151.013
183.183	14.338	1516.010	1149.923
184.198	14.457	1514.804	1149.733
185.213	14.574	1513.270	1149.272
186.227	14.516	1512.416	1148.124
187.242	14.493	1511.525	1147.187
188.256	14.451	1510.934	1146.350
189.271	14.485	1509.385	1145.301
190.286	14.500	1508.643	1144.743
191.300	14.588	1506.899	1143.920
192.315	14.430	1506.227	1142.225
193.329	14.414	1504.938	1141.041
194.344	14.433	1503.728	1140.149
195.359	14.419	1502.653	1139.141
196.373	14.587	1501.375	1139.219
197.388	14.495	1500.875	1138.109
198.402	14.562	1499.450	1137.385
199.417	14.633	1498.229	1136.842
200.432	14.586	1497.357	1135.757
201.446	14.696	1495.945	1135.333
202.461	14.681	1495.183	1134.557
203.475	14.700	1494.142	1133.793
204.490	14.759	1492.822	1133.093
205.504	14.773	1491.509	1132.086
206.519	14.776	1490.444	1131.199
207.534	14.680	1489.151	1129.469
208.548	14.715	1488.536	1129.143
209.563	14.793	1486.989	1128.395
210.577	14.809	1486.055	1127.695
211.592	14.743	1485.665	1126.851
212.607	14.820	1484.575	1126.445
213.621	14.809	1483.897	1125.753
214.636	14.924	1482.651	1125.484
215.650	14.840	1481.761	1124.148
216.665	14.878	1480.499	1123.346
217.680	14.901	1479.719	1122.805
218.694	14.865	1479.324	1122.164
219.709	15.005	1477.982	1121.985
220.723	14.922	1477.459	1120.934
221.738	14.978	1475.869	1120.005
222.753	14.886	1475.638	1119.114
223.767	14.912	1474.549	1118.361
224.782	14.881	1473.311	1117.117
225.796	14.989	1472.196	1116.892
226.811	15.053	1471.503	1116.696
227.826	15.097	1470.652	1116.245
228.840	15.048	1469.541	1114.981
229.855	14.982	1469.239	1114.210
230.869	15.030	1467.785	1113.330
231.884	15.106	1466.491	1112.756
232.899	15.118	1465.066	1111.654
233.913	15.113	1464.209	1110.870
234.928	15.070	1463.435	1109.902
235.942	15.024	1461.805	1108.264
236.957	15.020	1461.030	1107.548
237.972	15.072	1459.397	1106.559
238.986	15.095	1458.645	1106.043
240.001	15.085	1457.423	1104.950
241.015	15.159	1456.127	1104.360
242.030	15.141	1455.107	1103.370
243.045	15.110	1454.332	1102.479
244.059	15.146	1453.398	1101.909
245.074	15.173	1452.216	1101.098
246.088	15.215	1451.696	1100.877
247.103	15.182	1451.338	1100.292
248.117	15.193	1450.429	1099.579
249.132	15.334	1449.427	1099.645
250.147	15.309	1448.778	1098.891
251.161	15.438	1447.703	1098.826
252.176	15.445	1446.902	1098.164
253.190	15.449	1446.558	1097.830
254.205	15.383	1445.674	1096.635
255.220	15.447	1444.821	1096.306
256.234	15.450	1443.612	1095.316
257.249	15.486	1443.323	1095.235
258.263	15.428	1442.515	1094.142
259.278	15.537	1440.966	1093.581
260.293	15.605	1439.925	1093.140
261.307	15.676	1438.732	1092.595
262.322	15.587	1438.852	1092.010
263.336	15.647	1437.569	1091.334
264.351	15.778	1436.273	1091.104
265.366	15.733	1434.863	1089.644
266.380	15.696	1434.507	1089.035
267.395	15.733	1433.723	1088.584
268.409	15.758	1432.963	1088.069
269.424	15.689	1431.755	1086.609
270.439	15.687	1430.990	1085.923
271.453	15.698	1429.858	1085.040
272.468	15.669	1429.385	1084.398
273.482	15.753	1428.177	1083.925
274.497	15.691	1427.351	1082.806
275.512	15.835	1426.692	1083.137
276.526	15.776	1425.757	1081.947
277.541	15.799	1424.493	1081.045
278.555	15.813	1423.573	1080.339
279.570	15.842	1422.525	1079.633
280.585	15.794	1421.857	1078.721
281.599	15.867	1421.062	1078.492
282.614	15.966	1420.084	1078.288
283.628	16.019	1418.233	1077.128
284.643	16.005	1417.985	1076.756
285.657	15.899	1416.698	1075.003
286.672	15.856	1416.151	1074.219
287.687	16.019	1414.864	1074.186
288.701	16.069	1413.639	1073.482
289.716	16.015	1413.091	1072.628
290.730	15.986	1412.306	1071.750
291.745	16.026	1410.794	1070.759
292.760	15.984	1410.209	1069.958
293.774	16.071	1409.127	1069.592
294.789	16.077	1408.119	1068.774
295.803	16.017	1407.782	1068.039
296.818	16.089	1406.583	1067.494
297.833	16.231	1405.375	1067.380
298.847	16.067	1404.719	1065.748
299.862	16.088	1403.613	1064.947
300.876	16.168	1402.342	1064.392
301.891	16.225	1401.705	1064.174
302.906	16.190	1400.833	1063.200
303.920	16.342	1400.219	1063.595
304.935	16.198	1399.962	1062.400
305.949	16.178	1398.781	1061.286
306.964	16.322	1397.851	1061.394
307.979	16.410	1396.853	1061.092
308.993	16.266	1395.777	1059.275
310.008	16.357	1395.057	1059.210
311.022	16.388	1393.697	1058.273
312.037	16.321	1393.027	1057.253
313.052	16.475	1391.677	1057.097
314.066	16.428	1390.954	1056.160
315.081	16.359	1390.119	1055.003
316.095	16.354	1388.981	1054.019
317.110	16.365	1387.868	1053.149
318.125	16.347	1387.007	1052.289
319.139	16.372	1385.841	1051.467
320.154	16.359	1384.971	1050.632
321.168	16.479	1384.023	1050.568
322.183	16.509	1382.811	1049.740
323.197	16.471	1381.901	1048.719
324.212	16.372	1381.571	1047.763
325.227	16.476	1380.191	1047.268
326.241	16.543	1379.413	1047.000
327.256	16.552	1378.571	1046.324
328.270	16.521	1377.378	1045.134
329.285	16.536	1376.749	1044.656
330.300	16.603	1375.676	1044.163
331.314	16.472	1375.154	1042.866
332.329	16.513	1374.221	1042.321
333.343	16.484	1373.458	1041.472
334.358	16.518	1372.752	1041.049
335.373	16.569	1371.715	1040.485
336.387	16.598	1370.957	1039.997
337.402	16.593	1369.934	1039.098
338.416	16.618	1369.277	1038.660
339.431	16.699	1368.373	1038.382
340.446	16.791	1367.535	1038.215
341.460	16.778	1366.625	1037.354
342.475	16.778	1365.740	1036.593
343.489	16.753	1365.464	1036.135
344.504	16.741	1364.102	1034.940
345.519	16.890	1362.999	1034.920
346.533	16.873	1362.218	1034.129
347.548	16.814	1361.297	1032.980
348.562	16.804	1360.409	1032.156
349.577	16.930	1359.489	1032.136
350.592	16.925	1358.888	1031.556
351.606	16.884	1358.278	1030.749
352.621	16.842	1356.930	1029.379
353.635	16.848	1355.659	1028.363
354.650	16.793	1354.990	1027.433
355.665	16.828	1354.014	1026.810
356.679	16.939	1352.902	1026.551
357.694	17.021	1351.686	1026.033
358.708	17.024	1350.240	1024.865
359.723	17.077	1349.503	1024.534
360.738	17.067	1348.506	1023.625
361.752	17.037	1347.663	1022.712
362.767	17.058	1346.188	1021.626
363.781	16.986	1345.969	1020.937
364.796	17.032	1345.073	1020.447
365.810	17.055	1344.229	1019.853
366.825	17.091	1343.347	1019.309
367.840	17.164	1342.825	1019.261
368.854	17.237	1341.508	1018.610
369.869	17.244	1341.291	1018.399
370.883	17.208	1340.819	1017.733
371.898	17.248	1340.000	1017.260
372.913	17.222	1339.193	1016.402
373.927	17.128	1338.384	1015.138
374.942	17.265	1337.234	1014.994
375.956	17.262	1336.630	1014.429
376.971	17.192	1335.428	1013.005
377.986	17.382	1334.416	1013.282
379.000	17.374	1333.547	1012.484
380.015	17.340	1333.158	1011.896
381.029	17.404	1332.480	1011.673
382.044	17.411	1331.470	1010.856
383.059	17.392	1330.685	1010.059
384.073	17.406	1330.482	1009.899
385.088	17.453	1329.920	1009.662
386.102	17.495	1328.906	1009.052
387.117	17.512	1328.190	1008.523
388.132	17.537	1327.141	1007.781
389.146	17.497	1326.666	1007.095
390.161	17.521	1325.762	1006.461
391.175	17.476	1325.030	1005.550
392.190	17.425	1324.236	1004.560
393.205	17.661	1322.885	1004.837
394.219	17.705	1321.873	1004.239
395.234	17.577	1321.169	1002.862
396.248	17.612	1319.505	1001.719
397.263	17.652	1318.242	1000.902
398.278	17.693	1316.695	999.880
399.292	17.599	1316.110	998.795
400.307	17.632	1315.101	998.136
401.321	17.598	1313.875	996.916
402.336	17.718	1312.477	996.469
403.350	17.655	1311.657	995.392
404.365	17.658	1311.208	994.980
405.380	17.666	1310.061	994.069
406.394	17.688	1309.089	993.372
407.409	17.799	1308.254	993.297
408.423	17.755	1307.739	992.563
409.438	17.705	1307.362	991.898
410.453	17.769	1306.439	991.484
411.467	17.771	1306.056	991.114
412.482	17.907	1304.700	990.789
413.496	17.912	1304.219	990.364
414.511	17.908	1303.314	989.565
415.526	17.990	1302.962	989.683
416.540	17.944	1302.143	988.706
417.555	17.986	1301.184	988.139
418.569	18.053	1300.659	988.037
419.584	18.000	1300.558	987.569
420.599	18.016	1299.715	986.933
421.613	93.227	1350.333	1454.724
422.628	91.811	1357.663	1454.826
