DTS Sentinel unit serial number:	SN413079Multiplexer serial number:	ORYXHardware model number:	OX4-SRSoftware version number:	ORYX F/W v4.00 Oryx Data Collector v3.7.2.0data status	okinstallation	princeton_trtdifferential loss correction	single-endedforward channel	channel 4reverse channel	N/Adate	2019/09/12time	19:40:19forward acquisition time	15.00reverse acquisition time	0.00gamma	496.2192k internal	0.2309k external	0.2309temperature offset calibration	1.0158default loss term (dB/km)	0.3790temperature slope calibration	1.0000multiplexer offset coefficient	1.0000multiplexer slope coefficient	1.0000fibre end	0.00T internal ref (°C)	32.06T ext. ref 1 (°C)	3.36T ext. ref 2 (°C)	26.63length (m)	temperature (°C)	Stokes	anti-Stokes-747.200	800.000	-0.131	0.402
-746.185	-200.000	0.036	0.282
-745.171	800.000	-0.111	-0.486
-744.156	71.448	-0.568	-0.599
-743.142	186.555	0.435	-0.657
-742.127	-47.978	-0.600	-0.295
-741.112	-117.323	-0.503	-0.093
-740.098	51.030	0.318	0.306
-739.083	26.251	-0.061	0.052
-738.069	-20.684	0.724	0.451
-737.054	68.643	0.224	0.233
-736.039	-200.000	0.141	0.906
-735.025	174.465	0.207	-0.304
-734.010	55.916	0.249	-0.245
-732.996	122.012	-0.270	0.343
-731.981	-49.218	0.394	0.191
-730.966	158.626	0.101	-0.143
-729.952	121.568	-0.529	0.669
-728.937	-48.876	0.607	0.296
-727.923	-200.000	-0.046	0.319
-726.908	-114.073	-0.628	-0.124
-725.894	-0.594	-0.264	-0.190
-724.879	58.918	-0.243	-0.242
-723.864	-18.624	-0.711	-0.450
-722.850	-29.965	-0.451	0.261
-721.835	414.652	-0.204	-0.441
-720.821	-200.000	0.038	0.204
-719.806	-69.078	0.341	-0.133
-718.791	-60.960	-0.227	0.097
-717.777	85.039	-0.264	0.293
-716.762	-59.035	0.364	0.160
-715.748	137.045	0.700	0.928
-714.733	-87.936	-0.754	0.230
-713.718	-200.000	0.097	-0.563
-712.704	11.219	-0.213	-0.165
-711.689	28.848	-0.820	-0.705
-710.675	-200.000	-0.029	-0.300
-709.660	322.230	-0.143	0.276
-708.645	81.521	-0.178	-0.196
-707.631	-200.000	-0.190	-1.003
-706.616	-9.662	0.016	-0.011
-705.602	-200.000	-0.096	1.114
-704.587	800.000	0.137	0.396
-703.572	-32.947	-0.259	-0.146
-702.558	800.000	-0.300	0.928
-701.543	194.400	-0.964	1.481
-700.529	-200.000	0.137	-0.768
-699.514	-126.524	0.614	0.093
-698.499	-111.069	-0.415	0.086
-697.485	800.000	-0.090	-0.378
-696.470	-114.667	0.700	-0.136
-695.456	-200.000	0.082	0.714
-694.441	-41.042	-0.228	0.119
-693.426	388.693	0.054	-0.113
-692.412	66.184	-0.338	-0.348
-691.397	-152.725	-0.760	-0.055
-690.383	227.151	0.089	0.147
-689.368	21.787	0.363	0.300
-688.354	-200.000	0.059	0.999
-687.339	39.708	0.155	0.141
-686.324	800.000	-0.102	-0.362
-685.310	181.395	0.222	-0.331
-684.295	193.159	-0.261	0.400
-683.281	-113.218	-0.883	0.176
-682.266	-200.000	0.026	0.760
-681.251	-65.738	-0.109	-0.044
-680.237	-200.000	-0.030	-0.359
-679.222	-200.000	0.005	-0.093
-678.208	355.088	0.183	-0.368
-677.193	-46.726	0.510	0.253
-676.178	262.018	0.158	-0.277
-675.164	6.543	-0.446	-0.336
-674.149	-200.000	0.035	0.499
-673.135	-200.000	-0.080	0.442
-672.120	800.000	-0.125	-0.462
-671.105	14.583	-0.628	-0.496
-670.091	-79.791	0.389	-0.133
-669.076	485.392	0.108	0.248
-668.062	-200.000	0.007	-0.246
-667.047	-200.000	-0.072	-0.349
-666.032	-50.140	1.072	-0.514
-665.018	6.359	-0.569	-0.428
-664.003	73.880	0.851	-0.903
-662.989	-200.000	-0.169	-0.883
-661.974	-60.993	0.070	-0.030
-660.959	-88.429	0.594	0.180
-659.945	-200.000	-0.056	-0.379
-658.930	-200.000	0.001	-0.258
-657.916	-200.000	-0.025	0.274
-656.901	-85.755	-0.421	0.132
-655.886	-81.306	0.826	-0.276
-654.872	-38.446	0.668	0.358
-653.857	-47.964	0.423	-0.207
-652.843	-200.000	0.001	0.076
-651.828	114.955	-0.118	0.145
-650.814	227.005	0.343	-0.565
-649.799	-200.000	-0.030	-0.183
-648.784	-200.000	-0.076	0.576
-647.770	-200.000	-0.161	-1.176
-646.755	-145.576	1.231	0.112
-645.741	62.698	0.709	0.717
-644.726	315.192	-0.090	-0.172
-643.711	-6.110	-0.345	0.238
-642.697	32.543	0.196	-0.171
-641.682	-14.056	-0.267	0.174
-640.668	-9.315	-0.755	-0.510
-639.653	250.721	0.292	0.503
-638.638	-115.730	-0.742	0.141
-637.624	73.738	0.405	0.430
-636.609	-200.000	-0.001	-0.205
-635.595	-79.616	-0.243	-0.083
-634.580	-33.632	0.163	0.091
-633.565	505.234	-0.177	-0.416
-632.551	-200.000	0.088	0.534
-631.536	-200.000	0.037	0.370
-630.522	426.266	-0.165	-0.359
-629.507	-84.933	-0.720	0.229
-628.492	-70.739	-0.305	0.116
-627.478	86.497	0.098	-0.109
-626.463	6.338	0.227	0.171
-625.449	-154.254	-0.610	0.042
-624.434	800.000	-0.076	0.222
-623.419	800.000	-0.115	0.499
-622.405	800.000	0.119	0.432
-621.390	-104.032	-0.937	0.221
-620.376	-186.599	-0.889	0.013
-619.361	-200.000	0.037	-0.402
-618.346	342.450	-0.178	-0.352
-617.332	-57.453	0.485	0.215
-616.317	-121.142	-0.936	-0.158
-615.303	139.399	-0.457	0.608
-614.288	44.399	0.341	0.317
-613.273	-63.652	0.365	0.151
-612.259	289.431	0.610	1.118
-611.244	417.477	0.115	0.248
-610.230	210.225	0.119	0.189
-609.215	-45.105	0.602	0.302
-608.201	-158.219	-0.121	-0.007
-607.186	631.527	-0.205	0.524
-606.171	57.867	-0.555	-0.549
-605.157	-45.943	1.068	-0.532
-604.142	797.185	-0.129	0.360
-603.128	-128.651	-0.361	-0.052
-602.113	4.066	-0.778	-0.575
-601.098	12.585	0.738	0.576
-600.084	108.938	-0.585	0.707
-599.069	-200.000	0.008	1.118
-598.055	-151.162	-0.371	-0.028
-597.040	-200.000	-0.029	0.239
-596.025	800.000	0.087	0.268
-595.011	86.297	-0.130	0.145
-593.996	609.279	-0.047	0.119
-592.982	-94.597	0.747	0.205
-591.967	89.184	0.061	-0.068
-590.952	86.762	-0.331	0.369
-589.938	800.000	0.302	-0.963
-588.923	80.298	-0.310	-0.337
-587.909	800.000	0.148	-0.606
-586.894	-200.000	-0.105	-0.565
-585.879	-200.000	-0.039	-0.352
-584.865	316.833	-0.200	0.381
-583.850	-57.769	0.509	-0.225
-582.836	-177.104	-1.164	-0.029
-581.821	-56.010	0.375	-0.169
-580.806	235.344	-0.235	-0.392
-579.792	-96.083	0.801	-0.215
-578.777	119.239	0.498	-0.622
-577.763	384.964	0.159	-0.331
-576.748	67.473	-0.020	0.021
-575.733	-24.875	0.139	0.083
-574.719	182.494	-0.079	-0.117
-573.704	800.000	-0.216	-0.640
-572.690	800.000	0.101	-0.369
-571.675	388.011	-0.501	1.046
-570.661	-5.096	0.580	-0.403
-569.646	761.383	-0.490	1.340
-568.631	146.241	-0.205	0.278
-567.617	-146.369	-0.626	0.055
-566.602	150.861	0.257	0.353
-565.588	77.612	0.406	0.436
-564.573	137.394	0.270	-0.356
-563.558	-34.528	-0.258	0.143
-562.544	193.891	0.574	-0.877
-561.529	-30.276	-0.113	-0.065
-560.515	108.441	-0.134	-0.161
-559.500	-200.000	0.056	0.666
-558.485	115.612	-0.810	-0.999
-557.471	102.875	-0.462	-0.546
-556.456	-160.266	-0.541	-0.029
-555.442	420.589	0.556	1.201
-554.427	-69.244	0.232	-0.090
-553.412	51.509	0.403	0.386
-552.398	230.387	0.424	0.699
-551.383	-30.500	0.605	-0.346
-550.369	800.000	-0.109	0.470
-549.354	-37.310	0.133	-0.072
-548.339	93.857	-0.431	0.492
-547.325	-99.751	0.849	-0.214
-546.310	-27.488	0.548	0.321
-545.296	76.196	0.070	-0.075
-544.281	412.444	0.296	0.634
-543.266	200.558	0.368	0.570
-542.252	99.421	0.584	0.680
-541.237	-150.916	0.065	-0.005
-540.223	21.851	0.563	-0.462
-539.208	214.724	0.371	-0.593
-538.193	419.130	0.285	-0.615
-537.179	800.000	-0.307	-0.921
-536.164	-11.230	-0.564	-0.374
-535.150	152.393	-0.257	0.354
-534.135	800.000	-0.032	-0.140
-533.121	-127.780	0.829	-0.121
-532.106	321.153	0.042	-0.081
-531.091	298.566	0.362	0.670
-530.077	307.683	-0.054	-0.101
-529.062	550.220	0.222	-0.535
-528.048	-200.000	0.089	-0.637
-527.033	21.523	-0.600	0.492
-526.018	79.385	-0.457	0.493
-525.004	126.548	-0.363	0.463
-523.989	-100.448	-0.483	0.120
-522.975	-48.660	-0.685	-0.332
-521.960	800.000	0.083	0.315
-520.945	800.000	-0.101	-0.371
-519.931	-176.372	0.353	-0.009
-518.916	304.123	0.147	0.275
-517.902	-47.522	-0.532	0.260
-516.887	-56.931	-0.503	0.224
-515.872	498.203	-0.167	-0.388
-514.858	-58.065	-0.860	-0.378
-513.843	89.786	0.242	-0.272
-512.829	562.075	0.266	0.648
-511.814	211.339	-0.439	0.696
-510.799	-200.000	0.047	0.756
-509.785	564.545	0.197	-0.480
-508.770	-49.705	-0.372	-0.178
-507.756	-200.000	-0.057	-0.278
-506.741	121.074	-0.170	-0.213
-505.726	326.255	-0.527	1.015
-504.712	-200.000	-0.100	1.089
-503.697	-180.938	-0.477	0.010
-502.683	277.996	-0.317	0.567
-501.668	-16.402	0.435	-0.278
-500.653	224.063	-0.531	-0.862
-499.639	-100.468	0.748	-0.186
-498.624	-200.000	0.015	-0.276
-497.610	70.648	-0.200	0.208
-496.595	-18.871	-0.371	0.232
-495.581	-200.000	-0.112	0.560
-494.566	-200.000	0.081	0.783
-493.551	-200.000	-0.000	0.397
-492.537	-122.918	0.446	-0.072
-491.522	84.571	0.349	-0.384
-490.508	-200.000	0.050	-0.349
-489.493	-200.000	-0.023	0.148
-488.478	-83.476	-0.533	0.172
-487.464	-70.412	0.615	-0.235
-486.449	305.800	0.358	-0.669
-485.435	50.375	0.329	-0.313
-484.420	7.584	-0.291	0.219
-483.405	-148.625	-0.594	-0.049
-482.391	10.165	0.924	-0.707
-481.376	-74.561	0.484	0.175
-480.362	800.000	0.093	-0.279
-479.347	606.733	0.255	0.639
-478.332	-200.000	0.003	0.472
-477.318	453.903	0.122	-0.271
-476.303	196.336	0.420	-0.642
-475.289	23.174	0.732	-0.604
-474.274	54.475	-0.336	-0.326
-473.259	-200.000	-0.045	0.200
-472.245	-99.252	-0.174	-0.044
-471.230	169.876	0.464	0.667
-470.216	-28.425	0.339	-0.197
-469.201	121.595	0.274	0.344
-468.186	124.471	-0.275	0.348
-467.172	-95.966	-0.718	0.192
-466.157	365.438	0.170	0.345
-465.143	259.703	-0.399	0.693
-464.128	699.213	-0.240	0.634
-463.113	800.000	-0.144	0.596
-462.099	-19.425	0.315	0.196
-461.084	-200.000	-0.138	0.788
-460.070	482.312	0.434	0.991
-459.055	-89.947	-0.629	0.185
-458.040	34.012	0.057	-0.050
-457.026	-72.698	0.556	0.206
-456.011	46.802	0.466	0.435
-454.997	-184.125	0.773	-0.013
-453.982	-200.000	-0.118	0.562
-452.968	214.118	-0.263	-0.418
-451.953	220.233	-0.375	-0.603
-450.938	-53.912	-0.320	-0.147
-449.924	-200.000	-0.019	-0.429
-448.909	628.705	0.120	0.304
-447.895	117.335	0.287	0.354
-446.880	-158.826	-0.143	0.008
-445.865	15.118	0.534	-0.420
-444.851	800.000	0.234	-0.857
-443.836	374.090	0.105	-0.214
-442.822	-128.546	0.771	-0.110
-441.807	-42.694	0.062	0.031
-440.792	-13.833	-0.536	-0.348
-439.778	-161.222	0.676	-0.035
-438.763	5.893	0.195	-0.145
-437.749	-32.843	-0.925	-0.516
-436.734	-185.490	-0.778	-0.012
-435.719	800.000	0.118	-0.381
-434.705	-49.006	0.373	-0.179
-433.690	-193.041	0.613	-0.006
-432.676	-2.270	-0.533	0.375
-431.661	-118.018	0.470	-0.084
-430.646	-200.000	-0.070	0.415
-429.632	-152.144	-0.424	-0.031
-428.617	800.000	0.114	-0.438
-427.603	-84.575	0.345	0.109
-426.588	224.669	-0.081	-0.131
-425.573	-112.748	-0.349	0.069
-424.559	107.008	0.303	-0.361
-423.544	-200.000	-0.119	-0.591
-422.530	800.000	0.135	-0.520
-421.515	800.000	-0.137	0.498
-420.500	-200.000	0.085	-0.422
-419.486	344.858	-0.290	-0.571
-418.471	-89.409	-0.798	-0.236
-417.457	500.880	-0.224	-0.518
-416.442	-200.000	0.048	-0.432
-415.428	72.944	-0.514	0.538
-414.413	-155.327	0.135	0.009
-413.398	52.844	0.200	-0.191
-412.384	44.189	0.699	-0.643
-411.369	-77.115	-1.119	-0.391
-410.355	127.388	0.269	0.342
-409.340	580.906	-0.306	-0.752
-408.325	800.000	0.071	-0.209
-407.311	15.186	-0.407	-0.320
-406.296	15.750	-0.146	0.115
-405.282	800.000	-0.128	0.379
-404.267	-85.139	-0.881	0.276
-403.252	-200.000	-0.074	0.505
-402.238	-200.000	-0.000	-0.589
-401.223	117.516	-0.248	-0.306
-400.209	223.210	0.058	-0.093
-399.194	-113.708	0.541	0.106
-398.179	0.574	-0.283	-0.203
-397.165	-184.072	0.595	-0.010
-396.150	24.326	-0.751	-0.622
-395.136	-200.000	0.061	0.725
-394.121	438.274	0.047	-0.103
-393.106	49.447	0.346	0.326
-392.092	-43.222	-0.499	-0.253
-391.077	277.419	0.131	0.234
-390.063	86.919	0.133	-0.147
-389.048	-200.000	-0.182	0.900
-388.033	800.000	-0.121	-0.381
-387.019	-132.031	-0.396	-0.052
-386.004	-124.538	-0.392	0.061
-384.990	-200.000	0.014	-0.403
-383.975	-200.000	-0.008	-0.281
-382.960	-3.984	0.746	0.518
-381.946	166.172	-0.645	0.914
-380.931	55.850	-0.166	0.161
-379.917	325.645	0.312	0.599
-378.902	75.325	-0.268	0.283
-377.888	-200.000	-0.127	-0.633
-376.873	-79.133	-0.589	-0.200
-375.858	43.753	-0.407	-0.373
-374.844	238.592	-0.152	-0.252
-373.829	-93.606	-0.033	-0.009
-372.815	739.616	0.183	0.491
-371.800	288.146	0.350	0.633
-370.785	-200.000	0.058	-0.423
-369.771	-73.908	-0.091	-0.033
-368.756	-90.980	0.310	-0.089
-367.742	-17.510	-0.521	-0.328
-366.727	241.354	-0.203	0.339
-365.712	-200.000	-0.012	-1.032
-364.698	30.705	0.520	0.446
-363.683	-200.000	0.034	-0.260
-362.669	-116.314	-0.381	-0.071
-361.654	-200.000	0.035	-0.826
-360.639	800.000	0.096	-0.406
-359.625	534.532	0.243	-0.577
-358.610	2.637	-0.218	0.158
-357.596	-59.804	-0.105	0.045
-356.581	169.220	-0.356	0.508
-355.566	10.489	-0.740	-0.564
-354.552	19.062	0.367	0.294
-353.537	44.173	0.660	0.606
-352.523	-121.859	1.065	-0.176
-351.508	-200.000	-0.133	-0.841
-350.493	-200.000	-0.040	0.302
-349.479	20.199	0.892	0.721
-348.464	53.060	-0.416	0.398
-347.450	800.000	-0.294	-1.131
-346.435	-200.000	0.027	-0.414
-345.420	264.509	0.500	-0.871
-344.406	794.626	0.089	-0.245
-343.391	-200.000	-0.025	0.407
-342.377	-200.000	0.101	-0.901
-341.362	25.175	-0.245	0.203
-340.348	63.231	-0.301	0.302
-339.333	800.000	-0.146	-0.618
-338.318	-200.000	-0.180	-1.006
-337.304	-77.445	0.615	0.213
-336.289	-48.144	-0.323	-0.156
-335.275	7.007	0.806	0.601
-334.260	-200.000	0.118	-0.865
-333.245	800.000	0.177	0.535
-332.231	119.741	0.434	-0.537
-331.216	-79.835	0.615	0.207
-330.202	-200.000	0.064	0.741
-329.187	800.000	-0.093	0.273
-328.172	800.000	-0.060	0.233
-327.158	800.000	0.015	0.061
-326.143	258.103	0.202	0.348
-325.129	-47.663	-0.602	-0.292
-324.114	-34.578	0.463	-0.253
-323.099	-175.231	0.158	-0.004
-322.085	-105.246	0.685	0.156
-321.070	128.425	-0.366	-0.466
-320.056	-200.000	0.110	-0.597
-319.041	-200.000	-0.028	0.145
-318.026	-90.564	-1.117	-0.323
-317.012	663.738	-0.083	0.213
-315.997	-200.000	0.012	0.141
-314.983	-59.338	0.311	0.134
-313.968	-58.882	-0.849	-0.367
-312.953	-200.000	0.204	1.222
-311.939	800.000	-0.278	1.039
-310.924	800.000	0.213	0.769
-309.910	-77.179	0.659	-0.229
-308.895	-48.255	0.584	0.281
-307.880	28.311	0.470	-0.396
-306.866	-182.896	0.353	0.006
-305.851	-2.203	-0.395	-0.277
-304.837	193.584	-0.440	0.665
-303.822	-58.657	-0.269	-0.116
-302.807	-131.167	-0.782	-0.104
-301.793	-53.157	0.463	-0.212
-300.778	-200.000	-0.068	0.653
-299.764	-200.000	0.011	0.402
-298.749	-114.087	-0.987	-0.191
-297.735	115.672	0.275	-0.335
-296.720	184.147	-0.076	0.112
-295.705	-200.000	0.100	-0.594
-294.691	-200.000	-0.026	-0.384
-293.676	25.454	0.362	0.301
-292.662	135.698	0.620	0.805
-291.647	-76.720	-0.518	0.181
-290.632	-68.199	0.212	-0.082
-289.618	-102.091	-0.289	-0.069
-288.603	170.205	0.299	0.427
-287.589	284.044	-0.175	0.315
-286.574	73.102	-0.444	0.463
-285.559	-17.448	-0.257	-0.161
-284.545	169.199	0.190	-0.270
-283.530	-95.440	-0.472	0.126
-282.516	70.193	0.182	-0.187
-281.501	-132.942	-0.309	-0.039
-280.486	800.000	-0.129	0.502
-279.472	530.989	0.061	-0.144
-278.457	-200.000	-0.027	0.561
-277.443	88.907	0.464	-0.515
-276.428	-33.313	0.216	0.119
-275.413	-19.969	-0.339	0.209
-274.399	153.369	-0.220	-0.300
-273.384	469.880	0.407	0.913
-272.370	-43.340	-0.707	0.356
-271.355	-109.035	0.674	0.143
-270.340	48.595	0.246	0.230
-269.326	-126.232	1.169	0.174
-268.311	800.000	-0.215	-0.666
-267.297	-22.924	0.677	0.407
-266.282	312.144	-0.223	0.417
-265.267	137.866	-0.366	0.478
-264.253	-182.692	0.595	0.011
-263.238	-29.086	-0.224	-0.128
-262.224	535.924	0.091	-0.216
-261.209	672.112	-0.299	-0.772
-260.195	-187.871	0.584	-0.008
-259.180	-200.000	-0.011	0.240
-258.165	-69.194	-0.753	-0.289
-257.151	-39.163	-0.571	0.299
-256.136	-146.550	0.195	-0.017
-255.122	-40.276	0.571	-0.296
-254.107	248.627	-0.217	0.367
-253.092	23.451	0.572	-0.469
-252.078	148.948	0.337	-0.454
-251.063	7.577	0.276	0.206
-250.049	-141.420	-0.276	-0.028
-249.034	800.000	0.140	-0.443
-248.019	-91.920	-0.830	-0.234
-247.005	407.138	-0.209	0.440
-245.990	-200.000	0.022	1.329
-244.976	-111.261	-0.223	0.045
-243.961	-13.824	-0.141	0.091
-242.946	-117.720	0.637	-0.114
-241.932	32.285	-0.580	-0.499
-240.917	622.963	-0.015	0.038
-239.903	-38.520	-0.606	-0.319
-238.888	800.000	0.127	0.397
-237.873	-63.455	0.564	-0.231
-236.859	-126.076	-0.768	-0.115
-235.844	13.063	-0.201	-0.155
-234.830	-200.000	-0.005	-0.060
-233.815	76.074	-0.240	-0.253
-232.800	224.201	-0.141	0.227
-231.786	800.000	0.051	-0.208
-230.771	-34.213	0.448	0.245
-229.757	-148.202	0.769	0.063
-228.742	-118.502	0.300	0.053
-227.727	800.000	-0.069	-0.293
-226.713	660.416	-0.108	0.277
-225.698	204.783	-0.393	0.607
-224.684	-58.715	0.339	0.146
-223.669	800.000	0.088	-0.365
-222.655	197.849	-0.166	-0.252
-221.640	-173.610	-0.728	-0.022
-220.625	-60.197	-0.524	0.222
-219.611	-82.112	0.139	-0.045
-218.596	-60.326	-0.360	0.152
-217.582	394.571	0.467	0.969
-216.567	-200.000	0.154	-0.941
-215.552	-46.135	0.241	-0.118
-214.538	-98.949	1.037	0.262
-213.523	92.344	-0.322	-0.361
-212.509	264.332	0.215	-0.373
-211.494	-200.000	-0.024	-0.390
-210.479	-70.249	0.580	0.219
-209.465	24.613	-0.705	-0.581
-208.450	22.238	0.688	-0.559
-207.436	27.572	-0.623	-0.521
-206.421	-169.728	-0.754	-0.027
-205.406	-13.314	0.615	-0.397
-204.392	-82.920	-0.773	-0.248
-203.377	-164.332	0.095	0.004
-202.363	-157.257	0.363	-0.022
-201.348	237.359	-0.264	-0.436
-200.333	-32.757	0.395	-0.219
-199.319	24.734	-0.364	-0.300
-198.304	486.866	-0.016	0.037
-197.290	487.848	0.176	-0.400
-196.275	74.582	0.193	-0.202
-195.260	193.910	0.138	0.208
-194.246	800.000	0.173	-0.749
-193.231	-52.060	0.355	0.164
-192.217	-97.017	-1.308	-0.340
-191.202	145.303	0.078	0.104
-190.187	131.812	-0.450	-0.575
-189.173	20.545	-0.353	0.284
-188.158	69.342	0.261	0.267
-187.144	-200.000	0.100	-0.477
-186.129	800.000	-0.105	0.413
-185.114	-77.605	0.836	0.288
-184.100	-49.066	-0.607	0.289
-183.085	-125.185	0.783	0.119
-182.071	-121.860	0.326	-0.053
-181.056	112.434	0.577	0.693
-180.042	124.916	0.465	-0.582
-179.027	-175.071	0.173	-0.005
-178.012	149.256	-0.342	-0.460
-176.998	12.328	-0.425	-0.325
-175.983	277.232	-0.193	0.341
-174.969	296.901	0.308	0.561
-173.954	-60.839	0.432	0.182
-172.939	-92.998	0.432	-0.120
-171.925	273.642	0.495	-0.869
-170.910	186.743	0.285	0.421
-169.896	-18.262	0.379	0.235
-168.881	800.000	-0.305	-0.891
-167.866	238.473	0.276	0.456
-166.852	102.285	0.217	0.252
-165.837	154.680	-0.384	-0.524
-164.823	-105.679	0.581	0.131
-163.808	223.674	-0.291	0.466
-162.793	79.395	-0.507	-0.540
-161.779	-200.000	-0.043	0.622
-160.764	-99.599	-0.170	-0.043
-159.750	470.955	-0.074	-0.165
-158.735	-200.000	-0.052	-0.545
-157.720	127.005	0.369	-0.464
-156.706	336.105	-0.216	-0.415
-155.691	-150.729	-0.371	0.028
-154.677	106.379	-0.268	0.316
-153.662	120.321	-0.466	-0.575
-152.647	-153.376	0.735	-0.051
-151.633	-200.000	-0.028	-0.550
-150.618	45.406	0.469	0.430
-149.604	-24.928	0.878	0.517
-148.589	59.989	-0.550	0.539
-147.574	-200.000	0.075	0.590
-146.560	-200.000	-0.015	0.213
-145.545	-173.350	-0.567	-0.017
-144.531	176.981	0.236	0.341
-143.516	243.530	-0.456	0.758
-142.502	56.650	0.157	0.152
-141.487	-66.435	-0.808	0.319
-140.472	-105.271	0.039	-0.009
-139.458	-80.395	-0.942	0.312
-138.443	-11.413	-0.373	-0.244
-137.429	-200.000	-0.033	0.778
-136.414	461.117	0.200	-0.442
-135.399	31.994	-0.782	-0.668
-134.385	90.176	0.399	-0.443
-133.370	26.804	0.127	0.105
-132.356	18.558	-0.443	-0.351
-131.341	-182.222	0.357	-0.007
-130.326	247.756	-0.227	0.380
-129.312	-83.531	0.867	0.275
-128.297	-107.619	0.451	-0.098
-127.283	-152.913	0.639	-0.045
-126.268	-115.324	-0.304	-0.057
-125.253	254.987	0.119	-0.203
-124.239	-108.447	0.508	0.108
-123.224	-200.000	0.053	-0.350
-122.210	187.896	-0.241	-0.357
-121.195	-96.764	0.576	0.150
-120.180	-47.381	-0.619	-0.299
-119.166	-82.235	-1.124	0.363
-118.151	77.379	-0.144	0.152
-117.137	-75.966	-0.684	-0.240
-116.122	800.000	0.268	0.943
-115.107	123.733	0.519	0.646
-114.093	800.000	-0.379	1.186
-113.078	48.809	-0.289	0.268
-112.064	-200.000	-0.085	0.499
-111.049	13.577	-0.200	-0.154
-110.034	-6.744	-0.027	-0.018
-109.020	-45.472	0.504	0.247
-108.005	119.183	-0.165	0.203
-106.991	452.225	0.161	-0.353
-105.976	-181.939	-0.627	-0.012
-104.962	-114.617	0.750	-0.142
-103.947	65.527	-0.636	0.638
-102.932	77.968	0.550	0.581
-101.918	-136.170	-0.530	-0.061
-100.903	175.092	0.209	-0.300
-99.889	117.261	-0.311	-0.379
-98.874	545.124	0.228	0.539
-97.859	190.988	-0.478	-0.712
-96.845	87.234	0.128	0.140
-95.830	-149.194	-0.671	-0.053
-94.816	0.060	-0.759	0.536
-93.801	52.525	-0.278	-0.263
-92.786	-200.000	0.120	-0.919
-91.772	25.462	0.192	-0.158
-90.757	-105.077	-0.497	0.113
-89.743	406.604	-0.178	0.372
-88.728	-200.000	-0.087	0.533
-87.713	68.919	0.391	-0.398
-86.699	-200.000	0.013	0.420
-85.684	-94.328	-0.140	-0.038
-84.670	714.409	-0.393	1.031
-83.655	-162.532	0.781	-0.038
-82.640	276.093	0.109	0.192
-81.626	0.263	-0.414	-0.292
-80.611	441.289	0.220	-0.476
-79.597	105.060	0.325	0.380
-78.582	-200.000	0.044	0.547
-77.567	86.861	-0.642	-0.701
-76.553	530.592	-0.141	0.329
-75.538	-200.000	0.130	0.592
-74.524	257.425	0.205	-0.349
-73.509	-200.000	0.043	-1.033
-72.494	800.000	0.222	-0.763
-71.480	263.574	0.435	0.748
-70.465	-124.324	-0.285	-0.044
-69.451	113.588	0.355	0.427
-68.436	-43.353	0.925	-0.463
-67.422	-200.000	-0.081	0.387
-66.407	-200.000	0.032	-0.604
-65.392	-17.911	0.361	-0.224
-64.378	98.197	0.491	0.560
-63.363	54.363	-0.104	0.099
-62.349	431.123	0.397	0.850
-61.334	14.311	-1.779	-1.372
-60.319	-28.372	0.846	0.483
-59.305	800.000	0.388	-1.582
-58.290	-200.000	-0.103	1.429
-57.276	766.902	0.781	2.101
-56.261	-200.000	97.146	599.798
-55.246	652.440	1355.320	3435.208
-54.232	200.177	2528.762	3840.016
-53.217	109.611	2279.489	2700.951
-52.203	38.728	2047.121	1806.513
-51.188	33.724	1963.406	1688.194
-50.173	32.392	1943.993	1659.692
-49.159	47.999	1997.729	1845.565
-48.144	48.752	2014.725	1867.934
-47.130	34.622	1975.726	1706.548
-46.115	32.078	1965.782	1675.230
-45.100	31.841	1963.357	1670.987
-44.086	31.982	1961.151	1670.293
-43.071	31.818	1958.086	1666.162
-42.057	31.740	1956.215	1663.811
-41.042	31.806	1953.671	1662.169
-40.027	31.752	1952.169	1660.345
-39.013	32.092	1948.708	1660.339
-37.998	31.869	1948.563	1658.179
-36.984	31.935	1947.536	1657.826
-35.969	31.865	1945.135	1655.096
-34.954	32.157	1941.043	1654.117
-33.940	32.009	1941.428	1653.077
-32.925	32.121	1940.390	1653.115
-31.911	31.915	1938.485	1649.618
-30.896	32.300	1935.351	1650.263
-29.881	32.200	1934.551	1648.643
-28.867	32.078	1933.244	1646.387
-27.852	32.273	1931.251	1646.332
-26.838	31.989	1928.736	1641.637
-25.823	32.030	1927.320	1640.727
-24.809	32.111	1926.220	1640.435
-23.794	32.045	1924.965	1638.726
-22.779	32.212	1921.121	1636.848
-21.765	31.998	1922.050	1635.707
-20.750	31.997	1919.389	1633.363
-19.736	31.860	1918.889	1631.688
-18.721	31.918	1916.390	1629.994
-17.706	32.014	1914.763	1629.380
-16.692	32.079	1911.812	1627.367
-15.677	32.076	1911.374	1626.909
-14.663	32.000	1910.364	1625.328
-13.648	31.994	1908.786	1623.865
-12.633	32.055	1907.680	1623.387
-11.619	32.224	1905.369	1622.816
-10.604	32.089	1904.530	1620.868
-9.590	32.174	1903.920	1621.021
-8.575	32.192	1901.451	1619.014
-7.560	32.190	1901.115	1618.647
-6.546	32.239	1898.533	1616.802
-5.531	32.064	1898.151	1614.904
-4.517	31.985	1898.864	1614.772
-3.502	32.048	1895.880	1612.714
-2.487	31.973	1895.013	1611.268
-1.473	32.135	1893.344	1611.169
-0.458	32.021	1889.185	1606.590
0.556	33.383	1870.173	1579.361
1.571	29.024	1850.824	1526.810
2.586	24.874	1872.340	1509.503
3.600	23.782	1906.226	1527.307
4.615	23.176	1901.653	1518.309
5.629	17.860	1801.810	1395.127
6.644	8.424	1683.800	1231.234
7.659	3.720	1647.705	1169.200
8.673	3.312	1644.724	1163.898
9.688	3.745	1640.761	1164.249
10.702	3.367	1641.272	1161.662
11.717	3.018	1639.310	1157.544
12.731	3.793	1637.618	1162.076
13.746	10.388	1651.768	1221.890
14.761	19.940	1673.583	1310.578
15.775	24.509	1679.717	1349.895
16.790	24.901	1680.654	1353.492
17.804	24.883	1678.688	1351.648
18.819	24.327	1678.541	1347.212
19.834	24.161	1676.483	1344.189
20.848	24.395	1675.287	1344.877
21.863	24.304	1674.686	1343.588
22.877	24.183	1673.563	1341.657
23.892	24.347	1672.793	1342.157
24.907	24.291	1671.996	1340.980
25.921	24.163	1670.929	1339.040
26.936	24.212	1670.374	1338.848
27.950	24.256	1668.472	1337.533
28.965	24.550	1667.684	1338.985
29.980	24.344	1667.428	1337.117
30.994	24.283	1667.547	1336.638
32.009	24.395	1666.058	1336.168
33.023	24.432	1665.082	1335.542
34.038	24.419	1664.197	1334.618
35.053	24.310	1663.435	1333.072
36.067	24.342	1662.245	1332.243
37.082	24.293	1661.020	1330.776
38.096	24.317	1660.294	1330.256
39.111	24.214	1660.257	1329.338
40.126	24.207	1659.381	1328.470
41.140	24.425	1657.974	1328.847
42.155	23.966	1657.000	1324.532
43.169	23.937	1655.688	1323.148
44.184	23.690	1654.356	1320.134
45.199	23.762	1652.651	1319.192
46.213	23.865	1652.297	1319.554
47.228	23.900	1650.486	1318.253
48.242	23.983	1649.800	1318.199
49.257	24.391	1648.611	1320.152
50.271	24.448	1646.802	1319.011
51.286	24.329	1646.407	1317.696
52.301	24.289	1645.553	1316.601
53.315	24.323	1643.772	1315.311
54.330	24.203	1641.925	1312.837
55.344	24.207	1640.986	1312.000
56.359	24.178	1639.138	1310.187
57.374	23.903	1638.667	1307.674
58.388	23.960	1637.651	1307.164
59.403	24.083	1634.897	1305.754
60.417	24.122	1634.727	1305.791
61.432	24.059	1634.042	1304.666
62.447	24.000	1632.428	1302.829
63.461	24.006	1631.036	1301.647
64.476	23.813	1630.654	1299.818
65.490	23.705	1629.597	1298.066
66.505	23.706	1628.338	1296.961
67.520	23.868	1627.868	1297.652
68.534	23.720	1627.650	1296.280
69.549	24.012	1625.505	1296.588
70.563	23.863	1624.366	1294.482
71.578	23.775	1623.890	1293.343
72.593	23.773	1621.942	1291.669
73.607	23.759	1620.497	1290.299
74.622	23.514	1620.599	1288.488
75.636	23.569	1619.118	1287.594
76.651	23.931	1618.338	1289.483
77.666	23.745	1616.993	1286.952
78.680	23.387	1618.481	1285.423
79.695	23.509	1617.616	1285.506
80.709	23.772	1615.319	1285.471
81.724	23.647	1614.824	1284.060
82.739	23.856	1614.471	1285.178
83.753	23.834	1614.765	1285.139
84.768	24.187	1612.536	1285.803
85.782	24.334	1612.290	1286.548
86.797	24.591	1611.812	1287.905
87.812	24.552	1611.077	1286.928
88.826	24.564	1610.377	1286.336
89.841	24.120	1609.596	1282.404
90.855	24.444	1607.918	1283.287
91.870	24.299	1608.447	1282.548
92.884	24.346	1606.698	1281.378
93.899	24.587	1604.766	1281.455
94.914	24.646	1603.897	1281.071
95.928	24.652	1602.657	1280.011
96.943	24.565	1601.761	1278.556
97.957	24.479	1600.830	1277.090
98.972	24.449	1600.340	1276.367
99.987	24.491	1598.422	1275.024
101.001	24.437	1596.336	1272.862
102.016	24.285	1595.496	1270.994
103.030	24.221	1594.238	1269.430
104.045	24.457	1593.280	1270.229
105.060	24.294	1592.096	1268.018
106.074	24.307	1590.262	1266.540
107.089	24.359	1586.870	1264.089
108.103	23.924	1586.260	1260.409
109.118	23.664	1584.881	1257.362
110.133	23.638	1584.181	1256.514
111.147	23.848	1581.786	1255.983
112.162	23.628	1580.797	1253.533
113.176	23.679	1580.432	1253.498
114.191	23.893	1578.292	1253.195
115.206	23.909	1578.094	1253.042
116.220	23.926	1576.680	1251.925
117.235	23.945	1575.251	1250.818
118.249	24.234	1573.581	1251.410
119.264	23.860	1572.958	1248.177
120.279	23.553	1571.545	1244.789
121.293	23.755	1570.180	1245.012
122.308	23.539	1569.552	1242.894
123.322	23.656	1567.388	1241.890
124.337	23.689	1565.732	1240.696
125.352	23.236	1565.807	1237.482
126.366	23.420	1564.785	1237.846
127.381	23.477	1563.911	1237.445
128.395	23.433	1562.764	1236.124
129.410	23.259	1561.812	1234.044
130.424	23.285	1559.703	1232.453
131.439	23.345	1558.326	1231.674
132.454	23.500	1556.719	1231.368
133.468	23.583	1556.341	1231.541
134.483	23.773	1556.015	1232.491
135.497	23.801	1554.810	1231.623
136.512	23.899	1553.088	1230.824
137.527	23.783	1551.752	1228.855
138.541	23.806	1550.777	1228.134
139.556	23.839	1549.546	1227.274
140.570	23.884	1548.721	1226.826
141.585	23.919	1547.534	1226.016
142.600	24.191	1546.106	1226.655
143.614	24.282	1546.084	1227.151
144.629	24.655	1545.928	1229.489
145.643	24.553	1544.361	1227.429
146.658	24.321	1544.072	1225.500
147.673	24.334	1541.179	1223.183
148.687	24.079	1540.688	1220.937
149.702	24.190	1539.751	1220.847
150.716	24.089	1537.424	1218.204
151.731	23.816	1536.806	1215.739
152.746	23.748	1534.006	1212.951
153.760	23.636	1533.075	1211.342
154.775	23.778	1533.215	1212.313
155.789	24.207	1530.861	1213.267
156.804	24.231	1530.217	1212.812
157.819	24.392	1529.614	1213.322
158.833	24.341	1526.866	1210.692
159.848	24.158	1527.262	1209.652
160.862	24.309	1526.334	1209.837
161.877	24.672	1525.349	1211.409
162.892	24.063	1525.006	1206.903
163.906	23.963	1523.489	1204.919
164.921	23.993	1520.175	1202.395
165.935	23.772	1520.484	1201.041
166.950	23.704	1520.515	1200.495
167.964	24.084	1517.913	1200.897
168.979	24.093	1518.068	1200.977
169.994	23.967	1517.054	1199.219
171.008	23.973	1516.331	1198.583
172.023	23.948	1515.400	1197.569
173.037	23.892	1513.638	1195.694
174.052	23.991	1513.375	1196.046
175.067	24.325	1511.774	1196.922
176.081	24.270	1510.773	1195.651
177.096	23.848	1510.367	1192.391
178.110	23.707	1508.242	1189.669
179.125	23.882	1507.469	1190.122
180.140	23.851	1506.076	1188.712
181.154	23.833	1505.598	1188.110
182.169	24.123	1504.754	1189.273
183.183	24.071	1504.806	1188.862
184.198	24.332	1502.840	1188.945
185.213	24.329	1502.026	1188.173
186.227	24.495	1501.034	1188.390
187.242	24.512	1500.410	1187.905
188.256	24.128	1500.323	1185.178
189.271	24.419	1498.292	1185.399
190.286	24.377	1498.766	1185.391
191.300	24.565	1497.672	1185.669
192.315	24.215	1495.430	1181.472
193.329	23.552	1495.324	1176.887
194.344	23.967	1494.104	1178.568
195.359	24.066	1492.382	1177.766
196.373	23.826	1492.071	1175.827
197.388	23.558	1490.553	1172.756
198.402	23.508	1489.177	1171.236
199.417	23.872	1488.660	1173.129
200.432	24.069	1489.764	1175.198
201.446	24.566	1487.944	1176.932
202.461	24.447	1487.754	1175.895
203.475	24.796	1485.009	1175.916
204.490	24.604	1484.796	1174.382
205.504	24.218	1485.390	1172.209
206.519	24.034	1482.818	1168.861
207.534	23.951	1481.317	1167.036
208.548	23.901	1480.655	1166.083
209.563	23.769	1478.677	1163.556
210.577	23.618	1478.329	1162.191
211.592	23.634	1478.404	1162.249
212.607	23.905	1476.644	1162.534
213.621	23.972	1477.268	1163.367
214.636	24.608	1475.993	1166.411
215.650	24.473	1474.360	1164.133
216.665	24.193	1474.549	1162.356
217.680	24.276	1473.010	1161.579
218.694	24.528	1472.332	1162.585
219.709	24.741	1471.602	1163.292
220.723	24.475	1471.143	1161.097
221.738	24.146	1470.407	1158.274
222.753	24.268	1469.043	1157.889
223.767	24.237	1468.170	1156.896
224.782	24.215	1466.874	1155.630
225.796	24.032	1466.396	1153.966
226.811	24.314	1466.064	1155.431
227.826	24.490	1465.798	1156.259
228.840	24.463	1464.247	1154.754
229.855	24.163	1463.790	1152.354
230.869	24.234	1461.720	1151.078
231.884	23.972	1461.047	1148.755
232.899	24.057	1460.147	1148.495
233.913	23.665	1459.120	1145.062
234.928	23.455	1457.773	1142.546
235.942	23.677	1456.302	1142.724
236.957	23.959	1454.533	1143.044
237.972	23.454	1454.323	1139.534
238.986	23.646	1452.272	1139.060
240.001	23.592	1451.050	1137.655
241.015	23.761	1450.910	1138.529
242.030	23.983	1448.967	1138.318
243.045	23.742	1449.012	1136.715
244.059	23.938	1449.121	1137.955
245.074	24.332	1446.750	1138.509
246.088	24.224	1446.850	1137.795
247.103	24.271	1446.340	1137.593
248.117	24.250	1445.423	1136.638
249.132	24.423	1445.412	1137.631
250.147	24.737	1443.345	1137.901
251.161	25.073	1443.173	1139.799
252.176	25.130	1443.421	1140.258
253.190	25.124	1443.074	1139.844
254.205	24.981	1441.735	1137.778
255.220	25.222	1441.514	1139.035
256.234	25.388	1440.306	1139.034
257.249	25.243	1440.213	1137.941
258.263	25.415	1439.314	1138.219
259.278	25.083	1438.210	1135.142
260.293	24.887	1437.636	1133.350
261.307	24.852	1437.499	1132.916
262.322	24.890	1436.704	1132.428
263.336	25.028	1436.384	1132.950
264.351	25.349	1434.122	1133.094
265.366	25.130	1433.151	1130.841
266.380	25.069	1432.371	1129.742
267.395	25.131	1432.248	1129.935
268.409	25.075	1431.227	1128.678
269.424	25.022	1429.583	1126.952
270.439	24.958	1428.503	1125.599
271.453	24.857	1427.612	1124.162
272.468	25.221	1426.557	1125.512
273.482	24.959	1426.342	1123.599
274.497	24.630	1425.027	1120.406
275.512	24.535	1423.731	1118.692
276.526	24.742	1422.210	1118.690
277.541	24.751	1421.594	1118.163
278.555	24.723	1421.139	1117.531
279.570	24.989	1419.873	1118.101
280.585	24.776	1420.338	1117.035
281.599	25.094	1420.166	1118.785
282.614	25.160	1419.285	1118.406
283.628	25.124	1416.515	1115.902
284.643	24.884	1415.912	1113.831
285.657	24.822	1415.817	1113.272
286.672	24.791	1413.491	1111.151
287.687	24.559	1413.508	1109.629
288.701	24.893	1412.174	1110.555
289.716	24.747	1412.182	1109.558
290.730	24.918	1410.992	1109.585
291.745	24.965	1409.520	1108.618
292.760	24.679	1409.730	1106.914
293.774	24.658	1409.057	1106.157
294.789	24.703	1407.333	1104.988
295.803	25.041	1407.845	1107.378
296.818	25.117	1406.579	1106.752
297.833	25.092	1405.032	1105.285
298.847	24.736	1404.224	1102.355
299.862	25.010	1403.215	1103.158
300.876	24.917	1402.062	1101.581
301.891	24.895	1401.119	1100.609
302.906	24.933	1400.967	1100.625
303.920	25.083	1400.565	1101.132
304.935	25.234	1400.107	1101.604
305.949	25.472	1399.568	1102.539
306.964	25.399	1398.499	1101.153
307.979	25.350	1397.897	1100.278
308.993	25.491	1396.513	1099.959
310.008	25.220	1395.050	1097.052
311.022	25.049	1395.356	1096.148
312.037	25.465	1393.571	1097.190
313.052	25.376	1393.226	1096.280
314.066	25.336	1392.186	1095.116
315.081	25.015	1390.597	1091.813
316.095	24.671	1390.220	1089.330
317.110	24.742	1387.835	1087.792
318.125	24.756	1386.882	1087.034
319.139	24.820	1386.044	1086.671
320.154	24.569	1386.345	1085.287
321.168	24.698	1384.756	1084.729
322.183	24.748	1383.762	1084.160
323.197	24.706	1382.664	1082.948
324.212	24.892	1382.328	1083.713
325.227	24.837	1382.039	1083.061
326.241	24.982	1380.836	1082.898
327.256	24.845	1379.898	1081.237
328.270	24.782	1379.088	1080.129
329.285	24.733	1377.567	1078.547
330.300	24.720	1376.634	1077.642
331.314	24.750	1376.634	1077.722
332.329	25.045	1375.220	1078.296
333.343	24.873	1374.492	1076.598
334.358	24.712	1373.720	1074.929
335.373	24.745	1373.368	1074.759
336.387	25.088	1372.926	1076.379
337.402	25.311	1372.134	1076.999
338.416	25.325	1371.637	1076.595
339.431	25.270	1371.970	1076.432
340.446	25.449	1369.970	1075.839
341.460	25.428	1369.804	1075.488
342.475	25.555	1369.246	1075.718
343.489	25.790	1368.514	1076.449
344.504	25.701	1367.864	1075.312
345.519	25.685	1367.187	1074.592
346.533	25.881	1365.823	1074.593
347.548	25.902	1363.410	1072.725
348.562	25.840	1364.479	1073.102
349.577	25.734	1365.025	1072.805
350.592	25.806	1361.902	1070.683
351.606	25.253	1361.146	1066.707
352.621	25.157	1359.826	1065.007
353.635	25.363	1357.833	1064.572
354.650	24.835	1357.861	1061.370
355.665	25.161	1356.270	1061.963
356.679	25.016	1356.081	1060.863
357.694	25.316	1354.813	1061.552
358.708	25.184	1353.976	1060.020
359.723	25.371	1353.867	1060.946
360.738	25.336	1352.085	1059.252
361.752	25.413	1350.158	1058.104
362.767	25.391	1349.640	1057.470
363.781	25.444	1348.681	1056.941
364.796	25.319	1348.157	1055.699
365.810	25.217	1347.911	1054.814
366.825	25.968	1347.480	1058.793
367.840	25.890	1346.884	1057.774
368.854	25.942	1347.120	1058.174
369.869	26.029	1345.974	1057.686
370.883	25.902	1345.787	1056.704
371.898	25.800	1345.476	1055.769
372.913	25.914	1343.598	1054.867
373.927	25.725	1342.478	1052.790
374.942	25.823	1340.785	1051.944
375.956	25.983	1341.057	1052.996
376.971	26.184	1339.818	1053.106
377.986	25.642	1339.904	1049.915
379.000	25.637	1338.962	1049.055
380.015	25.995	1338.909	1051.009
381.029	26.270	1336.883	1050.924
382.044	26.130	1336.970	1050.085
383.059	26.202	1336.659	1050.169
384.073	25.990	1336.529	1048.738
385.088	25.815	1335.032	1046.457
386.102	26.005	1333.898	1046.575
387.117	25.871	1334.020	1045.803
388.132	26.015	1333.114	1045.832
389.146	25.698	1330.029	1041.487
390.161	25.290	1330.957	1039.759
391.175	25.567	1329.538	1040.161
392.190	25.295	1328.746	1037.875
393.205	25.592	1327.969	1038.896
394.219	25.826	1327.934	1040.124
395.234	26.210	1326.233	1040.917
396.248	25.872	1325.559	1038.348
397.263	25.766	1322.826	1035.502
398.278	25.868	1322.052	1035.395
399.292	25.342	1321.331	1031.714
400.307	25.585	1320.703	1032.531
401.321	25.599	1320.373	1032.260
402.336	25.607	1319.042	1031.174
403.350	25.272	1318.153	1028.470
404.365	25.185	1315.284	1025.642
405.380	25.632	1314.850	1027.768
406.394	25.438	1315.824	1027.325
407.409	25.796	1314.131	1027.959
408.423	25.839	1313.622	1027.713
409.438	26.024	1313.502	1028.584
410.453	26.148	1313.414	1029.130
411.467	26.297	1312.172	1028.917
412.482	26.160	1312.001	1027.909
413.496	26.424	1310.762	1028.353
414.511	26.144	1310.733	1026.643
415.526	26.461	1310.603	1028.253
416.540	26.391	1309.556	1026.944
417.555	26.570	1309.108	1027.516
418.569	26.594	1308.629	1027.187
419.584	26.421	1307.718	1025.402
420.599	25.995	1307.267	1022.543
421.613	143.675	1435.317	1793.136
422.628	139.241	1453.970	1793.181
