DTS Sentinel unit serial number:	SN413079Multiplexer serial number:	ORYXHardware model number:	OX4-SRSoftware version number:	ORYX F/W v4.00 Oryx Data Collector v3.7.2.0data status	okinstallation	princeton_trtdifferential loss correction	single-endedforward channel	channel 4reverse channel	N/Adate	2019/09/13time	02:09:35forward acquisition time	60.00reverse acquisition time	0.00gamma	496.2192k internal	0.2319k external	0.2319temperature offset calibration	1.0183default loss term (dB/km)	0.3790temperature slope calibration	1.0000multiplexer offset coefficient	1.0000multiplexer slope coefficient	1.0000fibre end	0.00T internal ref (°C)	27.56T ext. ref 1 (°C)	3.89T ext. ref 2 (°C)	22.28length (m)	temperature (°C)	Stokes	anti-Stokes-747.200	-70.242	0.083	0.032
-746.185	115.192	-0.176	0.217
-745.171	-200.000	0.021	0.157
-744.156	101.030	-0.280	0.330
-743.142	38.209	-0.147	0.133
-742.127	158.967	0.105	0.148
-741.112	-187.124	-0.344	0.005
-740.098	400.214	-0.192	0.408
-739.083	-47.235	0.020	0.010
-738.069	-200.000	-0.036	0.174
-737.054	-95.762	0.226	0.061
-736.039	19.596	-0.132	-0.108
-735.025	20.100	0.198	0.161
-734.010	-79.133	-0.159	-0.055
-732.996	800.000	0.026	-0.103
-731.981	119.447	0.187	0.234
-730.966	-118.147	-0.118	-0.021
-729.952	-119.457	0.259	0.046
-728.937	580.167	-0.111	-0.274
-727.923	-200.000	-0.030	0.231
-726.908	588.226	-0.166	0.414
-725.894	-200.000	0.031	-0.219
-724.879	-132.122	0.183	-0.024
-723.864	-42.739	-0.461	0.237
-722.850	-11.435	0.062	0.041
-721.835	-21.783	0.333	-0.205
-720.821	0.542	-0.260	-0.188
-719.806	-94.532	-0.268	-0.074
-718.791	-154.476	-0.256	-0.017
-717.777	-200.000	-0.039	-0.236
-716.762	50.897	0.172	0.164
-715.748	-28.864	-0.107	0.062
-714.733	326.241	0.194	-0.376
-713.718	-139.425	-0.282	0.031
-712.704	-99.396	-0.262	0.067
-711.689	800.000	0.056	-0.235
-710.675	-127.566	-0.404	-0.059
-709.660	-200.000	0.016	0.231
-708.645	200.233	-0.184	0.286
-707.631	408.038	-0.032	0.067
-706.616	263.163	0.084	-0.147
-705.602	-200.000	0.074	-0.367
-704.587	-21.943	-0.231	0.142
-703.572	-36.947	-0.264	-0.143
-702.558	-200.000	0.003	-0.159
-701.543	-200.000	-0.020	-0.169
-700.529	82.896	0.190	-0.209
-699.514	141.405	0.032	-0.042
-698.499	-136.290	0.110	0.013
-697.485	56.760	0.271	0.267
-696.470	258.947	-0.089	0.154
-695.456	-12.244	0.067	-0.044
-694.441	800.000	0.021	-0.086
-693.426	43.391	0.360	-0.332
-692.412	-60.498	-0.040	-0.017
-691.397	79.200	-0.260	-0.282
-690.383	-200.000	0.000	-0.248
-689.368	85.668	0.167	0.185
-688.354	496.603	-0.176	0.409
-687.339	204.351	0.108	-0.169
-686.324	112.557	0.038	-0.046
-685.310	-54.269	-0.218	0.100
-684.295	-74.664	0.208	-0.075
-683.281	21.002	-0.076	-0.063
-682.266	-1.721	0.111	0.079
-681.251	-89.187	-0.239	-0.071
-680.237	150.099	-0.219	-0.299
-679.222	54.419	0.137	-0.133
-678.208	69.314	-0.155	-0.161
-677.193	331.279	0.078	0.152
-676.178	800.000	0.053	-0.197
-675.164	-200.000	0.018	0.135
-674.149	442.257	0.061	0.134
-673.135	800.000	0.106	-0.305
-672.120	-200.000	0.060	-0.281
-671.105	-47.349	-0.337	-0.166
-670.091	-77.975	0.177	-0.062
-669.076	-146.804	0.158	0.014
-668.062	-52.270	-0.233	-0.109
-667.047	658.632	-0.099	-0.258
-666.032	181.677	0.045	-0.067
-665.018	-18.244	0.267	0.169
-664.003	-41.695	0.098	-0.051
-662.989	-77.268	0.050	-0.018
-661.974	37.422	-0.195	0.174
-660.959	59.957	-0.122	0.121
-659.945	4.926	-0.317	0.235
-658.930	-135.852	0.227	-0.027
-657.916	-200.000	0.013	-0.085
-656.901	-200.000	-0.096	-0.452
-655.886	577.732	0.088	-0.217
-654.872	102.468	0.182	0.215
-653.857	-62.110	-0.093	-0.039
-652.843	67.617	-0.024	0.025
-651.828	-200.000	-0.052	-0.232
-650.814	-200.000	0.045	0.341
-649.799	-134.364	0.068	-0.008
-648.784	335.271	-0.077	0.150
-647.770	-200.000	-0.001	-0.007
-646.755	-85.879	-0.174	0.054
-645.741	54.592	0.131	0.127
-644.726	-58.882	0.204	-0.089
-643.711	84.188	-0.130	-0.144
-642.697	16.362	-0.054	-0.043
-641.682	-200.000	0.017	0.186
-640.668	12.946	-0.065	-0.051
-639.653	292.978	-0.150	0.275
-638.638	46.769	-0.050	-0.047
-637.624	-154.454	-0.352	0.024
-636.609	-26.769	-0.186	-0.110
-635.595	-80.142	0.090	-0.030
-634.580	-93.950	-0.268	-0.074
-633.565	-12.329	0.024	0.016
-632.551	-70.227	0.256	-0.098
-631.536	37.532	-0.166	-0.148
-630.522	289.431	-0.036	-0.066
-629.507	800.000	0.033	0.116
-628.492	23.670	0.265	-0.220
-627.478	800.000	-0.057	0.183
-626.463	-47.354	0.138	-0.068
-625.449	-200.000	-0.011	0.248
-624.434	-200.000	-0.038	-0.552
-623.419	9.526	-0.352	-0.268
-622.405	800.000	-0.025	0.085
-621.390	800.000	0.023	-0.078
-620.376	-128.082	-0.213	-0.031
-619.361	800.000	0.046	0.152
-618.346	169.349	0.074	-0.107
-617.332	-200.000	0.008	0.174
-616.317	36.662	0.225	0.200
-615.303	-134.651	-0.303	0.037
-614.288	-29.718	-0.023	0.013
-613.273	-27.983	0.252	0.147
-612.259	-53.074	-0.064	-0.029
-611.244	-200.000	0.030	0.225
-610.230	-200.000	-0.010	-0.305
-609.215	-200.000	0.023	0.121
-608.201	55.863	-0.118	0.115
-607.186	800.000	-0.034	0.150
-606.171	-174.709	-0.050	0.001
-605.157	22.781	0.281	-0.231
-604.142	268.818	-0.156	-0.275
-603.128	503.619	-0.169	-0.393
-602.113	-87.146	-0.132	0.040
-601.098	-57.501	0.183	0.081
-600.084	-163.864	0.188	0.009
-599.069	-71.693	-0.143	0.054
-598.055	-139.206	-0.252	-0.027
-597.040	-200.000	-0.046	-0.261
-596.025	-98.397	0.128	0.033
-595.011	-14.543	-0.206	0.133
-593.996	50.999	-0.042	0.040
-592.982	-35.439	0.115	0.063
-591.967	-10.320	-0.040	0.027
-590.952	800.000	0.146	-0.425
-589.938	800.000	0.086	0.289
-588.923	609.512	-0.084	0.210
-587.909	320.412	-0.074	-0.142
-586.894	-52.278	0.110	-0.051
-585.879	-94.523	0.216	-0.059
-584.865	-105.337	0.204	0.047
-583.850	205.846	0.249	0.389
-582.836	9.330	0.178	0.136
-581.821	-84.330	-0.341	0.109
-580.806	800.000	-0.019	-0.074
-579.792	162.920	0.119	-0.168
-578.777	150.846	-0.064	-0.088
-577.763	-200.000	-0.006	0.125
-576.748	-200.000	0.079	-0.383
-575.733	361.060	-0.169	-0.340
-574.719	800.000	0.106	-0.302
-573.704	800.000	0.147	-0.459
-572.690	54.921	0.035	0.034
-571.675	194.356	-0.089	0.135
-570.661	-47.445	-0.141	0.069
-569.646	-59.410	-0.261	0.113
-568.631	-200.000	0.017	0.135
-567.617	-36.907	0.456	0.246
-566.602	-105.242	-0.209	-0.048
-565.588	800.000	-0.026	-0.085
-564.573	0.578	-0.100	0.072
-563.558	-14.341	0.251	-0.162
-562.544	33.003	-0.277	0.241
-561.529	800.000	0.097	0.353
-560.515	-99.666	-0.409	-0.103
-559.500	-200.000	-0.011	0.102
-558.485	184.641	0.145	0.215
-557.471	-200.000	-0.005	0.038
-556.456	3.883	0.122	0.089
-555.442	107.132	0.141	-0.169
-554.427	-28.331	0.026	0.015
-553.412	-56.762	-0.026	0.012
-552.398	585.127	0.115	-0.285
-551.383	405.528	-0.117	-0.248
-550.369	8.219	-0.248	-0.187
-549.354	-200.000	-0.019	-0.117
-548.339	-66.534	0.276	-0.110
-547.325	800.000	-0.046	-0.185
-546.310	107.573	0.046	-0.055
-545.296	661.045	0.070	-0.180
-544.281	200.078	-0.040	-0.061
-543.266	-37.397	0.096	-0.051
-542.252	207.424	-0.072	0.113
-541.237	-200.000	-0.018	-0.097
-540.223	-158.930	-0.161	0.009
-539.208	-200.000	0.010	-0.052
-538.193	800.000	-0.094	-0.379
-537.179	-20.725	0.044	0.027
-536.164	-200.000	-0.065	-0.363
-535.150	-35.404	-0.120	0.066
-534.135	800.000	-0.082	0.264
-533.121	800.000	-0.029	0.110
-532.106	-200.000	0.026	0.369
-531.091	248.388	-0.128	-0.217
-530.077	230.686	-0.181	-0.296
-529.062	-45.144	0.320	-0.159
-528.048	333.052	-0.135	-0.262
-527.033	-14.113	0.049	-0.032
-526.018	-90.360	0.342	0.099
-525.004	176.576	0.271	0.396
-523.989	586.920	-0.043	-0.107
-522.975	-89.070	0.089	0.027
-521.960	-200.000	-0.013	-0.205
-520.945	-74.626	0.244	0.088
-519.931	-26.463	0.181	0.106
-518.916	56.851	0.159	-0.155
-517.902	-200.000	-0.036	-0.250
-516.887	-200.000	-0.006	0.200
-515.872	150.145	-0.161	-0.218
-514.858	-200.000	-0.001	-0.527
-513.843	50.761	0.165	-0.157
-512.829	0.056	-0.239	-0.171
-511.814	104.108	0.249	-0.293
-510.799	-113.546	-0.187	0.037
-509.785	239.736	0.060	-0.100
-508.770	800.000	-0.075	-0.322
-507.756	-94.365	-0.225	-0.062
-506.741	-95.780	0.149	0.040
-505.726	-52.232	0.110	-0.051
-504.712	145.148	0.181	0.243
-503.697	512.719	-0.103	-0.241
-502.683	32.048	0.148	-0.128
-501.668	157.875	0.082	-0.113
-500.653	92.570	-0.100	-0.113
-499.639	-166.691	0.182	-0.008
-498.624	80.855	-0.113	-0.122
-497.610	69.871	0.129	0.133
-496.595	-65.181	0.167	0.067
-495.581	-200.000	-0.028	0.164
-494.566	-32.139	-0.039	0.022
-493.551	347.858	-0.086	-0.169
-492.537	37.787	0.060	-0.054
-491.522	443.148	0.071	-0.156
-490.508	-200.000	0.041	-0.271
-489.493	191.433	0.147	-0.221
-488.478	-42.112	-0.096	-0.049
-487.464	6.425	0.399	0.297
-486.449	-113.483	0.324	0.064
-485.435	7.944	-0.178	0.134
-484.420	-125.447	0.287	0.044
-483.405	167.556	0.184	-0.262
-482.391	-200.000	-0.042	0.197
-481.376	79.127	-0.372	-0.399
-480.362	228.875	-0.066	-0.107
-479.347	-200.000	0.003	0.148
-478.332	800.000	-0.024	0.091
-477.318	-28.895	0.234	0.134
-476.303	201.477	0.002	-0.003
-475.289	350.157	-0.095	0.188
-474.274	-200.000	0.033	0.274
-473.259	180.270	-0.126	-0.185
-472.245	-161.707	-0.307	0.016
-471.230	38.031	0.060	0.053
-470.216	170.454	-0.065	0.094
-469.201	7.987	0.370	0.278
-468.186	42.834	0.256	-0.233
-467.172	331.545	0.094	0.181
-466.157	-200.000	0.009	-0.061
-465.143	-200.000	-0.014	0.258
-464.128	-200.000	0.017	0.086
-463.113	343.617	-0.079	0.155
-462.099	664.470	-0.099	0.256
-461.084	-93.063	0.100	-0.028
-460.070	800.000	0.029	-0.106
-459.055	-129.551	-0.091	0.013
-458.040	-40.591	-0.197	0.102
-457.026	95.456	0.122	-0.139
-456.011	-90.418	0.020	0.006
-454.997	-45.501	0.117	0.058
-453.982	-200.000	0.020	0.184
-452.968	800.000	0.037	-0.120
-451.953	-200.000	-0.016	-0.286
-450.938	-93.433	-0.219	-0.061
-449.924	-109.283	-0.265	-0.056
-448.909	-7.928	0.267	-0.180
-447.895	-200.000	-0.009	0.096
-446.880	619.457	-0.082	-0.205
-445.865	-47.146	-0.150	-0.073
-444.851	-130.068	-0.388	-0.053
-443.836	-7.943	0.092	-0.062
-442.822	800.000	-0.036	-0.144
-441.807	92.914	0.068	-0.077
-440.792	-106.470	-0.271	-0.061
-439.778	-75.596	-0.082	-0.029
-438.763	2.964	-0.141	-0.103
-437.749	-136.564	0.305	0.035
-436.734	35.458	-0.133	0.117
-435.719	-100.555	0.174	-0.043
-434.705	-200.000	-0.006	-0.253
-433.690	800.000	0.045	0.133
-432.676	-200.000	0.034	-0.310
-431.661	323.131	-0.099	0.188
-430.646	800.000	-0.022	0.081
-429.632	-72.935	-0.226	-0.083
-428.617	-26.379	0.223	0.131
-427.603	-44.498	-0.207	0.103
-426.588	154.400	-0.322	0.442
-425.573	-187.118	0.169	0.002
-424.559	-200.000	0.066	0.349
-423.544	800.000	0.031	0.110
-422.530	-69.673	-0.258	0.099
-421.515	-131.995	0.402	0.052
-420.500	-127.358	0.114	0.017
-419.486	800.000	0.132	0.444
-418.471	-37.433	-0.141	0.075
-417.457	-52.379	0.433	-0.200
-416.442	-200.000	0.021	-0.300
-415.428	-34.268	0.218	-0.119
-414.413	-114.772	0.104	0.020
-413.398	-97.049	-0.107	0.028
-412.384	-146.833	0.233	0.020
-411.369	-178.614	0.577	-0.013
-410.355	-149.898	-0.310	0.024
-409.340	447.649	0.181	-0.399
-408.325	-200.000	-0.069	0.422
-407.311	527.442	0.032	0.076
-406.296	78.442	-0.147	0.157
-405.282	262.121	0.208	0.360
-404.267	-200.000	-0.001	0.345
-403.252	49.427	0.131	0.123
-402.238	277.620	0.039	-0.069
-401.223	-25.505	-0.070	0.041
-400.209	21.991	0.240	-0.196
-399.194	-200.000	0.046	-0.222
-398.179	82.075	-0.172	-0.187
-397.165	214.033	0.215	-0.340
-396.150	155.551	0.080	-0.110
-395.136	-32.029	-0.178	-0.099
-394.121	-72.834	-0.213	-0.078
-393.106	-161.586	0.216	-0.011
-392.092	178.931	-0.062	0.091
-391.077	-68.075	-0.069	-0.027
-390.063	-59.148	0.387	0.166
-389.048	449.736	0.078	-0.172
-388.033	-143.000	0.238	0.023
-387.019	-101.276	-0.388	-0.094
-386.004	-200.000	0.000	-0.169
-384.990	-200.000	0.009	-0.184
-383.975	262.509	0.049	-0.084
-382.960	580.840	0.155	0.379
-381.946	-70.853	-0.063	-0.024
-380.931	-91.543	-0.219	-0.062
-379.917	-133.779	0.105	0.013
-378.902	50.243	-0.175	-0.165
-377.888	800.000	-0.027	0.116
-376.873	268.745	0.064	0.111
-375.858	-37.579	-0.096	-0.051
-374.844	-200.000	-0.008	0.123
-373.829	-34.927	-0.047	-0.026
-372.815	-70.016	0.295	-0.112
-371.800	80.480	-0.061	0.065
-370.785	-200.000	-0.008	-0.178
-369.771	67.757	0.140	0.143
-368.756	-102.158	-0.140	0.034
-367.742	-200.000	0.068	0.348
-366.727	-200.000	-0.005	0.412
-365.712	-122.724	-0.342	0.055
-364.698	-200.000	0.001	0.234
-363.683	-69.143	-0.158	0.061
-362.669	-171.103	0.160	-0.005
-361.654	-134.341	0.154	-0.019
-360.639	-200.000	-0.036	-0.212
-359.625	94.139	-0.102	-0.115
-358.610	800.000	-0.070	0.249
-357.596	285.190	-0.143	0.257
-356.581	56.701	0.196	0.190
-355.566	304.456	0.069	0.128
-354.552	313.952	-0.069	-0.130
-353.537	119.920	0.149	-0.184
-352.523	288.563	-0.233	0.421
-351.508	-17.099	-0.257	-0.162
-350.493	613.719	-0.092	0.231
-349.479	-175.355	0.316	0.009
-348.464	-92.727	-0.201	0.056
-347.450	-89.956	-0.154	0.045
-346.435	-153.288	-0.163	-0.011
-345.420	800.000	-0.109	0.437
-344.406	-81.200	0.320	-0.105
-343.391	-27.242	-0.170	-0.099
-342.377	-162.585	-0.225	-0.011
-341.362	358.797	-0.086	-0.171
-340.348	-89.157	0.061	-0.018
-339.333	800.000	0.080	0.262
-338.318	-124.331	-0.144	0.022
-337.304	800.000	-0.042	-0.174
-336.289	-147.068	-0.504	-0.043
-335.275	-200.000	0.000	-0.185
-334.260	-33.580	-0.376	0.207
-333.245	-133.292	-0.046	-0.006
-332.231	130.337	0.065	0.083
-331.216	-20.734	-0.066	-0.040
-330.202	729.204	0.059	-0.156
-329.187	-31.861	0.227	0.127
-328.172	-200.000	0.011	-0.105
-327.158	-200.000	-0.052	-0.281
-326.143	800.000	-0.091	-0.382
-325.129	33.076	0.108	0.093
-324.114	78.201	0.147	0.156
-323.099	-12.342	0.189	0.123
-322.085	7.648	-0.085	-0.063
-321.070	-8.814	0.106	0.071
-320.056	255.153	-0.103	-0.175
-319.041	-200.000	0.065	0.382
-318.026	-112.427	-0.283	0.056
-317.012	26.036	0.230	-0.191
-315.997	-15.904	0.161	-0.102
-314.983	-200.000	0.013	0.303
-313.968	800.000	-0.088	0.248
-312.953	-140.796	0.171	0.018
-311.939	-52.463	0.144	-0.066
-310.924	-150.411	-0.196	0.015
-309.910	177.590	0.043	0.062
-308.895	770.532	0.087	-0.237
-307.880	-200.000	0.008	-0.164
-306.866	800.000	0.044	-0.146
-305.851	-58.364	0.127	-0.055
-304.837	520.722	-0.040	0.093
-303.822	-96.716	-0.247	-0.065
-302.807	-145.926	0.192	0.017
-301.793	228.847	0.059	0.096
-300.778	-123.239	0.341	0.054
-299.764	520.369	-0.168	0.391
-298.749	113.803	-0.022	-0.027
-297.735	25.467	0.190	-0.157
-296.720	-200.000	0.286	0.000
-295.705	106.750	-0.055	0.065
-294.691	-52.399	-0.209	0.096
-293.676	-200.000	0.025	0.213
-292.662	30.054	-0.095	-0.080
-291.647	-200.000	-0.031	-0.293
-290.632	-171.223	-0.249	0.008
-289.618	-200.000	-0.044	0.265
-288.603	-200.000	-0.017	-0.129
-287.589	180.472	0.045	0.066
-286.574	131.845	-0.164	-0.210
-285.559	-200.000	-0.015	0.144
-284.545	270.673	0.241	0.422
-283.530	346.031	-0.039	-0.076
-282.516	-99.285	-0.159	0.040
-281.501	-185.116	0.061	-0.001
-280.486	65.120	0.252	-0.253
-279.472	-124.225	-0.389	-0.060
-278.457	-66.777	0.288	0.113
-277.443	-130.259	-0.243	0.033
-276.428	490.643	-0.052	0.119
-275.413	-73.939	-0.122	0.044
-274.399	13.452	-0.012	0.009
-273.384	705.273	0.094	-0.247
-272.370	-144.106	-0.115	-0.011
-271.355	31.206	0.077	-0.066
-270.340	109.012	0.122	-0.144
-269.326	10.104	-0.079	0.060
-268.311	-113.518	-0.254	-0.049
-267.297	2.428	0.079	-0.056
-266.282	-134.806	-0.496	-0.060
-265.267	-200.000	-0.045	0.348
-264.253	-118.319	-0.113	0.020
-263.238	-200.000	-0.025	-0.353
-262.224	-164.810	-0.339	-0.015
-261.209	187.464	0.213	-0.315
-260.195	-29.859	0.167	-0.094
-259.180	-200.000	0.039	-0.177
-258.165	-200.000	-0.025	0.159
-257.151	345.467	0.074	0.144
-256.136	-70.343	-0.215	-0.081
-255.122	62.834	-0.302	0.300
-254.107	370.794	0.083	0.166
-253.092	800.000	-0.097	0.356
-252.078	-114.932	-0.368	0.069
-251.063	-200.000	0.032	-0.142
-250.049	218.076	0.210	-0.332
-249.034	14.968	-0.087	-0.068
-248.019	-71.030	0.227	-0.085
-247.005	-82.228	-0.179	-0.058
-245.990	-39.338	-0.097	-0.050
-244.976	-4.532	0.208	-0.143
-243.961	397.101	0.034	0.071
-242.946	-35.675	-0.183	0.098
-241.932	-146.098	-0.134	-0.012
-240.917	417.114	0.030	0.064
-239.903	89.297	0.122	-0.135
-238.888	-139.564	-0.130	0.014
-237.873	56.255	-0.252	-0.243
-236.859	800.000	0.009	0.035
-235.844	-200.000	0.024	-0.265
-234.830	-28.674	0.128	0.073
-233.815	-95.622	0.171	-0.045
-232.800	30.943	-0.180	0.153
-231.786	-72.154	0.202	0.074
-230.771	800.000	-0.032	-0.130
-229.757	43.077	0.100	0.090
-228.742	284.588	0.143	-0.255
-227.727	-200.000	0.016	0.071
-226.713	-200.000	-0.005	0.160
-225.698	800.000	0.135	0.444
-224.684	92.937	0.248	0.278
-223.669	768.496	-0.029	0.079
-222.655	376.982	-0.061	0.123
-221.640	-200.000	0.018	0.367
-220.625	-200.000	-0.031	-0.174
-219.611	432.626	0.148	-0.318
-218.596	248.802	-0.085	-0.143
-217.582	370.799	-0.175	-0.351
-216.567	-200.000	-0.012	-0.237
-215.552	-29.287	-0.408	0.232
-214.538	50.803	-0.251	0.236
-213.523	251.055	-0.174	0.292
-212.509	-142.967	-0.197	-0.019
-211.494	16.182	0.303	0.236
-210.479	-200.000	-0.035	0.284
-209.465	256.975	-0.101	-0.172
-208.450	78.240	-0.273	0.289
-207.436	-69.620	-0.246	0.093
-206.421	-24.095	-0.153	-0.090
-205.406	-79.952	0.271	-0.090
-204.392	-200.000	-0.048	-0.363
-203.377	-200.000	-0.005	-0.151
-202.363	-20.291	-0.060	0.036
-201.348	-200.000	-0.020	0.308
-200.333	-44.082	0.181	-0.090
-199.319	78.028	-0.100	-0.106
-198.304	-102.786	0.413	-0.097
-197.290	330.933	0.092	0.176
-196.275	-145.572	-0.186	-0.017
-195.260	-200.000	-0.030	0.173
-194.246	-5.209	0.090	-0.061
-193.231	-104.100	0.202	0.047
-192.217	-84.742	0.229	-0.071
-191.202	-80.692	-0.148	-0.049
-190.187	50.742	0.219	0.206
-189.173	-99.492	-0.282	-0.070
-188.158	-200.000	0.049	0.421
-187.144	800.000	0.094	-0.383
-186.129	532.448	0.068	-0.158
-185.114	800.000	0.086	-0.256
-184.100	-200.000	-0.223	0.001
-183.085	-48.957	0.304	0.144
-182.071	11.446	-0.318	0.241
-181.056	-200.000	0.004	-0.119
-180.042	231.534	0.082	0.134
-179.027	-200.000	0.033	-0.235
-178.012	92.084	-0.058	-0.064
-176.998	-200.000	0.051	0.350
-175.983	-200.000	-0.004	-0.055
-174.969	-200.000	-0.025	-0.495
-173.954	77.462	0.136	0.143
-172.939	800.000	-0.124	0.381
-171.925	-200.000	-0.004	0.065
-170.910	420.689	0.027	0.057
-169.896	-163.822	-0.345	0.016
-168.881	261.606	-0.160	0.274
-167.866	-200.000	0.004	0.086
-166.852	317.050	0.083	-0.156
-165.837	-134.745	-0.226	0.027
-164.823	-200.000	0.016	0.109
-163.808	-83.514	-0.215	0.068
-162.793	468.776	0.073	-0.163
-161.779	11.587	-0.127	-0.097
-160.764	46.226	0.096	-0.088
-159.750	-144.346	0.341	0.031
-158.735	800.000	0.044	0.190
-157.720	-14.084	0.312	0.199
-156.706	-31.173	0.293	0.163
-155.691	-42.354	0.195	0.098
-154.677	106.561	0.088	0.103
-153.662	140.478	-0.265	0.346
-152.647	-46.644	0.471	0.228
-151.633	79.519	0.081	-0.086
-150.618	321.950	0.159	-0.300
-149.604	-47.091	-0.076	-0.036
-148.589	376.140	0.139	-0.280
-147.574	123.994	-0.209	-0.260
-146.560	-102.449	0.224	0.053
-145.545	158.743	-0.158	0.217
-144.531	-200.000	-0.012	0.307
-143.516	-142.780	0.130	0.013
-142.502	-58.935	-0.222	-0.095
-141.487	-135.140	-0.119	0.014
-140.472	-200.000	-0.045	-0.229
-139.458	-99.345	-0.281	-0.070
-138.443	-24.467	-0.167	0.098
-137.429	60.955	-0.039	0.038
-136.414	-122.260	0.203	0.033
-135.399	-57.148	-0.322	0.140
-134.385	-200.000	-0.000	0.408
-133.370	-129.367	0.026	0.004
-132.356	90.667	0.285	-0.316
-131.341	-22.528	0.230	-0.137
-130.326	-200.000	-0.012	-0.185
-129.312	-73.089	0.167	-0.061
-128.297	86.618	-0.108	0.118
-127.283	-196.533	-0.276	-0.002
-126.268	112.710	0.202	-0.242
-125.253	800.000	-0.038	0.135
-124.239	-163.416	0.284	0.013
-123.224	-70.996	-0.194	-0.072
-122.210	201.428	-0.105	-0.160
-121.195	357.723	0.110	-0.216
-120.180	18.062	-0.044	-0.035
-119.166	-28.743	0.234	-0.133
-118.151	800.000	-0.107	0.315
-117.137	331.375	0.157	-0.299
-116.122	490.677	-0.079	-0.178
-115.107	15.922	0.120	0.093
-114.093	-18.924	0.233	0.143
-113.078	-40.523	0.436	-0.223
-112.064	394.512	-0.155	-0.318
-111.049	784.543	0.047	-0.127
-110.034	491.414	-0.072	-0.162
-109.020	74.527	0.170	-0.176
-108.005	775.012	0.132	-0.355
-106.991	-107.343	0.551	-0.120
-105.976	-9.295	0.275	0.181
-104.962	-28.866	-0.106	0.060
-103.947	-10.682	0.259	0.169
-102.932	422.316	0.062	0.131
-101.918	-43.688	-0.128	0.064
-100.903	-140.098	0.534	-0.055
-99.889	-87.852	0.110	0.033
-98.874	194.427	-0.172	0.257
-97.859	-39.845	0.296	-0.152
-96.845	-200.000	0.096	0.516
-95.830	-5.770	-0.080	0.054
-94.816	-200.000	-0.024	0.139
-93.801	-57.526	-0.139	0.060
-92.786	26.497	0.210	0.173
-91.772	-51.566	-0.084	0.038
-90.757	3.428	0.221	-0.159
-89.743	418.484	-0.013	0.027
-88.728	-144.562	0.624	-0.057
-87.713	338.432	0.179	-0.344
-86.699	800.000	0.066	0.202
-85.684	-200.000	0.028	0.443
-84.670	800.000	0.063	0.258
-83.655	-95.348	-0.298	0.079
-82.640	-46.112	-0.090	0.044
-81.626	632.541	0.124	0.310
-80.611	166.658	-0.151	-0.212
-79.597	-200.000	-0.005	0.249
-78.582	470.498	0.123	-0.272
-77.567	42.396	-0.124	-0.111
-76.553	-200.000	0.029	0.182
-75.538	-75.572	0.142	0.050
-74.524	-200.000	0.047	0.562
-73.509	229.941	-0.038	-0.062
-72.494	307.621	0.082	0.151
-71.480	519.359	0.076	-0.175
-70.465	292.192	0.016	0.028
-69.451	-200.000	-0.037	-0.273
-68.436	160.769	0.061	-0.084
-67.422	-200.000	0.011	0.157
-66.407	507.826	0.102	-0.234
-65.392	62.099	0.256	-0.252
-64.378	-200.000	-0.029	0.141
-63.363	-163.168	-0.300	-0.014
-62.349	176.962	-0.116	0.166
-61.334	131.636	-0.897	-1.137
-60.319	152.936	0.590	0.794
-59.305	555.441	-0.454	-1.077
-58.290	504.462	0.616	1.404
-57.276	309.785	0.755	1.391
-56.261	-200.000	114.186	651.175
-55.246	530.672	1521.529	3541.288
-54.232	175.233	2694.712	3844.581
-53.217	99.202	2319.711	2640.055
-52.203	33.989	2065.696	1771.504
-51.188	29.374	1980.259	1656.825
-50.173	27.936	1963.432	1629.869
-49.159	46.195	2022.427	1844.662
-48.144	45.161	2037.931	1849.365
-47.130	29.891	1996.596	1674.912
-46.115	27.560	1986.704	1645.524
-45.100	27.529	1983.766	1642.748
-44.086	27.521	1981.092	1640.395
-43.071	27.448	1978.682	1637.682
-42.057	27.406	1976.538	1635.465
-41.042	27.389	1975.155	1634.097
-40.027	27.413	1973.706	1633.050
-39.013	27.529	1971.208	1631.957
-37.998	27.516	1969.280	1630.179
-36.984	27.496	1967.676	1628.614
-35.969	27.451	1965.943	1626.714
-34.954	27.507	1963.863	1625.428
-33.940	27.464	1962.836	1624.130
-32.925	27.559	1960.917	1623.319
-31.911	27.594	1959.278	1622.210
-30.896	27.557	1957.335	1620.208
-29.881	27.584	1956.023	1619.298
-28.867	27.617	1954.498	1618.263
-27.852	27.700	1952.131	1616.975
-26.838	27.674	1950.821	1615.596
-25.823	27.626	1949.043	1613.639
-24.809	27.650	1947.114	1612.188
-23.794	27.590	1945.873	1610.564
-22.779	27.582	1943.574	1608.529
-21.765	27.646	1941.477	1607.294
-20.750	27.664	1940.004	1606.167
-19.736	27.571	1939.245	1604.653
-18.721	27.582	1937.585	1603.321
-17.706	27.528	1935.777	1601.284
-16.692	27.489	1934.494	1599.817
-15.677	27.599	1932.469	1599.040
-14.663	27.549	1931.485	1597.725
-13.648	27.601	1929.528	1596.496
-12.633	27.540	1929.072	1595.523
-11.619	27.541	1927.721	1594.356
-10.604	27.587	1925.995	1593.265
-9.590	27.521	1925.153	1591.923
-8.575	27.625	1923.247	1591.193
-7.560	27.501	1922.414	1589.360
-6.546	27.581	1920.488	1588.403
-5.531	27.527	1919.894	1587.381
-4.517	27.574	1918.194	1586.322
-3.502	27.547	1917.363	1585.335
-2.487	27.485	1915.996	1583.605
-1.473	27.548	1914.938	1583.214
-0.458	27.615	1910.537	1580.088
0.556	29.239	1890.835	1551.717
1.571	24.982	1872.266	1500.762
2.586	20.988	1894.645	1484.623
3.600	19.962	1929.137	1502.618
4.615	19.564	1922.757	1494.074
5.629	15.432	1823.507	1382.849
6.644	7.855	1709.562	1237.599
7.659	4.089	1675.174	1183.855
8.673	3.741	1672.286	1179.055
9.688	3.912	1670.968	1179.322
10.702	3.969	1669.460	1178.586
11.717	3.938	1665.777	1175.646
12.731	4.299	1665.600	1178.159
13.746	9.605	1678.039	1227.365
14.761	18.032	1696.866	1305.683
15.775	22.559	1704.033	1345.733
16.790	22.915	1704.416	1348.636
17.804	22.265	1700.720	1340.640
18.819	21.374	1698.353	1331.871
19.834	20.799	1696.722	1326.095
20.848	20.731	1694.957	1324.084
21.863	20.763	1693.579	1323.133
22.877	20.661	1692.362	1321.294
23.892	20.492	1692.129	1319.708
24.907	20.449	1690.479	1317.976
25.921	20.417	1689.024	1316.486
26.936	20.370	1688.656	1315.726
27.950	20.333	1687.265	1314.247
28.965	20.457	1686.822	1314.719
29.980	20.524	1685.844	1314.352
30.994	20.659	1685.061	1314.640
32.009	20.781	1684.150	1314.740
33.023	20.855	1683.378	1314.576
34.038	20.859	1682.806	1314.042
35.053	20.818	1681.114	1312.300
36.067	20.639	1679.676	1309.713
37.082	20.585	1678.996	1308.655
38.096	20.600	1678.023	1307.894
39.111	20.608	1677.272	1307.259
40.126	20.775	1676.545	1307.827
41.140	20.669	1675.934	1306.439
42.155	20.403	1674.290	1303.044
43.169	20.159	1671.757	1299.135
44.184	19.984	1671.055	1297.163
45.199	20.033	1669.769	1296.414
46.213	20.003	1669.169	1295.609
47.228	20.148	1668.616	1296.154
48.242	20.410	1667.260	1296.936
49.257	20.515	1666.238	1296.812
50.271	20.518	1665.367	1296.044
51.286	20.389	1663.785	1293.740
52.301	20.420	1662.833	1293.116
53.315	20.457	1660.913	1291.778
54.330	20.402	1659.391	1290.076
55.344	20.224	1657.485	1287.159
56.359	20.169	1655.983	1285.471
57.374	20.193	1655.363	1285.050
58.388	20.124	1653.888	1283.281
59.403	20.071	1652.601	1281.774
60.417	20.003	1651.427	1280.250
61.432	19.932	1650.175	1278.645
62.447	19.900	1648.791	1277.222
63.461	19.872	1647.333	1275.773
64.476	19.712	1646.535	1273.865
65.490	19.624	1645.442	1272.254
66.505	19.643	1644.523	1271.575
67.520	19.657	1643.444	1270.729
68.534	19.716	1642.301	1270.164
69.549	19.724	1641.172	1269.239
70.563	19.738	1639.942	1268.277
71.578	19.679	1638.608	1266.699
72.593	19.636	1637.191	1265.182
73.607	19.392	1636.803	1262.980
74.622	19.379	1635.449	1261.730
75.636	19.402	1634.992	1261.436
76.651	19.573	1634.202	1261.964
77.666	19.621	1632.934	1261.219
78.680	19.610	1632.021	1260.321
79.695	19.650	1631.936	1260.442
80.709	19.720	1630.764	1259.935
81.724	19.830	1630.337	1260.293
82.739	20.020	1629.779	1261.136
83.753	20.154	1628.763	1261.214
84.768	20.309	1627.752	1261.446
85.782	20.484	1627.706	1262.568
86.797	20.617	1627.184	1263.020
87.812	20.753	1626.085	1263.039
88.826	20.662	1625.315	1261.673
89.841	20.574	1623.441	1259.462
90.855	20.600	1623.049	1259.242
91.870	20.651	1621.660	1258.416
92.884	20.700	1621.067	1258.204
93.899	20.755	1620.178	1257.797
94.914	20.795	1618.985	1257.045
95.928	20.818	1618.076	1256.396
96.943	20.876	1616.382	1255.385
97.957	20.808	1615.159	1253.837
98.972	20.708	1613.622	1251.816
99.987	20.715	1612.350	1250.766
101.001	20.670	1611.047	1249.323
102.016	20.677	1609.237	1247.862
103.030	20.616	1608.178	1246.489
104.045	20.621	1606.862	1245.399
105.060	20.745	1605.079	1244.788
106.074	20.632	1603.870	1242.937
107.089	20.219	1602.625	1238.909
108.103	19.910	1600.621	1235.049
109.118	19.750	1598.415	1232.098
110.133	19.726	1596.850	1230.608
111.147	19.708	1595.590	1229.404
112.162	19.709	1594.268	1228.284
113.176	19.815	1592.929	1227.891
114.191	19.839	1591.907	1227.170
115.206	19.838	1591.154	1226.472
116.220	19.919	1589.886	1225.956
117.235	19.860	1588.552	1224.407
118.249	19.804	1587.286	1222.925
119.264	19.815	1585.942	1221.860
120.279	19.762	1584.578	1220.323
121.293	19.643	1582.684	1217.921
122.308	19.621	1581.205	1216.522
123.322	19.502	1579.574	1214.323
124.337	19.427	1577.974	1212.456
125.352	19.320	1576.555	1210.510
126.366	19.306	1575.558	1209.537
127.381	19.289	1574.564	1208.545
128.395	19.377	1573.471	1208.220
129.410	19.252	1572.316	1206.347
130.424	19.298	1570.507	1205.174
131.439	19.410	1569.653	1205.194
132.454	19.475	1568.506	1204.662
133.468	19.693	1567.080	1204.978
134.483	19.765	1565.973	1204.522
135.497	19.800	1564.787	1203.747
136.512	19.831	1564.121	1203.347
137.527	19.881	1562.516	1202.355
138.541	19.896	1561.366	1201.465
139.556	19.912	1559.889	1200.333
140.570	20.008	1558.390	1199.742
141.585	20.124	1557.606	1199.830
142.600	20.239	1556.574	1199.725
143.614	20.424	1555.413	1200.002
144.629	20.525	1554.792	1200.118
145.643	20.635	1553.523	1199.789
146.658	20.621	1552.331	1198.664
147.673	20.527	1550.446	1196.456
148.687	20.255	1549.348	1193.630
149.702	20.122	1547.483	1191.179
150.716	20.011	1545.840	1189.046
151.731	19.993	1543.752	1187.211
152.746	19.873	1543.113	1185.788
153.760	19.858	1541.134	1184.064
154.775	19.933	1540.568	1184.036
155.789	20.037	1539.598	1183.898
156.804	20.149	1538.252	1183.525
157.819	20.266	1537.136	1183.354
158.833	20.280	1536.301	1182.703
159.848	20.371	1535.428	1182.550
160.862	20.597	1534.591	1183.335
161.877	20.717	1532.804	1182.671
162.892	20.462	1531.525	1179.846
163.906	20.059	1529.793	1175.672
164.921	19.883	1528.383	1173.293
165.935	19.810	1527.236	1171.811
166.950	19.840	1526.481	1171.331
167.964	20.001	1525.723	1171.736
168.979	20.057	1525.043	1171.493
169.994	20.108	1522.976	1170.142
171.008	19.980	1522.223	1168.594
172.023	20.021	1520.850	1167.717
173.037	20.141	1519.660	1167.508
174.052	20.235	1518.963	1167.504
175.067	20.427	1518.790	1168.556
176.081	20.266	1517.363	1166.274
177.096	19.951	1515.189	1162.387
178.110	19.645	1514.065	1159.366
179.125	19.763	1512.817	1159.103
180.140	19.953	1511.796	1159.486
181.154	20.053	1511.332	1159.698
182.169	20.263	1510.442	1160.318
183.183	20.318	1509.863	1160.136
184.198	20.441	1508.457	1159.775
185.213	20.458	1507.430	1159.000
186.227	20.628	1506.258	1159.125
187.242	20.483	1505.853	1157.744
188.256	20.641	1504.526	1157.678
189.271	20.712	1503.782	1157.472
190.286	20.751	1502.917	1156.967
191.300	20.674	1501.627	1155.356
192.315	20.345	1499.855	1151.706
193.329	19.941	1498.486	1147.879
194.344	19.939	1497.365	1146.906
195.359	20.002	1496.948	1146.900
196.373	19.973	1495.728	1145.674
197.388	20.080	1494.864	1145.618
198.402	20.178	1493.740	1145.301
199.417	20.343	1493.008	1145.729
200.432	20.657	1492.305	1147.156
201.446	20.791	1491.749	1147.513
202.461	20.915	1491.322	1147.900
203.475	20.976	1490.216	1147.349
204.490	21.152	1489.254	1147.663
205.504	20.904	1488.279	1145.181
206.519	20.511	1486.730	1141.304
207.534	20.437	1485.611	1139.859
208.548	20.341	1484.129	1137.993
209.563	20.370	1482.704	1136.991
210.577	20.368	1481.944	1136.291
211.592	20.305	1481.370	1135.344
212.607	20.414	1480.175	1135.035
213.621	20.616	1480.140	1136.231
214.636	20.813	1479.670	1137.053
215.650	20.653	1478.343	1134.892
216.665	20.650	1477.215	1133.905
217.680	20.808	1476.128	1134.001
218.694	20.935	1476.141	1134.735
219.709	21.010	1475.471	1134.605
220.723	20.977	1474.402	1133.472
221.738	20.951	1473.455	1132.475
222.753	20.789	1472.581	1130.649
223.767	20.878	1471.227	1130.085
224.782	20.695	1470.492	1128.236
225.796	20.964	1469.633	1129.218
226.811	21.173	1468.775	1129.815
227.826	21.164	1468.554	1129.484
228.840	21.067	1467.470	1127.922
229.855	20.781	1466.292	1125.071
230.869	20.748	1465.004	1123.774
231.884	20.713	1464.159	1122.800
232.899	20.587	1462.694	1120.765
233.913	20.537	1461.420	1119.364
234.928	20.438	1460.226	1117.716
235.942	20.419	1458.442	1116.130
236.957	20.347	1457.056	1114.504
237.972	20.245	1456.091	1113.017
238.986	20.368	1455.109	1112.957
240.001	20.358	1454.367	1112.228
241.015	20.412	1453.243	1111.611
242.030	20.351	1452.404	1110.479
243.045	20.444	1451.327	1110.158
244.059	20.647	1450.624	1110.817
245.074	20.667	1450.363	1110.649
246.088	20.726	1449.357	1110.156
247.103	20.805	1448.717	1110.069
248.117	20.876	1448.178	1110.011
249.132	21.083	1447.235	1110.508
250.147	21.219	1447.345	1111.360
251.161	21.416	1447.289	1112.469
252.176	21.699	1446.795	1113.792
253.190	21.805	1446.002	1113.754
254.205	21.838	1444.867	1112.991
255.220	21.962	1444.485	1113.389
256.234	21.967	1443.646	1112.671
257.249	21.964	1443.476	1112.421
258.263	21.943	1442.103	1111.134
259.278	21.930	1440.706	1109.880
260.293	21.848	1439.931	1108.665
261.307	21.849	1439.116	1107.948
262.322	21.965	1438.596	1108.176
263.336	22.037	1437.925	1108.020
264.351	22.026	1436.973	1107.118
265.366	22.013	1435.899	1106.112
266.380	22.119	1435.025	1106.004
267.395	22.051	1434.106	1104.774
268.409	22.027	1433.254	1103.865
269.424	21.857	1432.138	1101.844
270.439	21.816	1430.664	1100.354
271.453	21.783	1429.643	1099.266
272.468	21.681	1429.017	1098.048
273.482	21.575	1428.015	1096.516
274.497	21.527	1426.763	1095.159
275.512	21.512	1425.562	1094.043
276.526	21.484	1425.153	1093.461
277.541	21.575	1423.677	1092.798
278.555	21.516	1422.813	1091.668
279.570	21.543	1422.128	1091.212
280.585	21.799	1421.342	1092.110
281.599	21.927	1421.321	1092.793
282.614	21.969	1420.685	1092.468
283.628	21.818	1419.122	1090.233
284.643	21.627	1417.932	1088.034
285.657	21.595	1416.111	1086.345
286.672	21.593	1415.440	1085.719
287.687	21.559	1414.664	1084.818
288.701	21.639	1413.574	1084.380
289.716	21.695	1412.806	1084.046
290.730	21.642	1412.043	1083.034
291.745	21.571	1411.584	1082.148
292.760	21.740	1409.986	1081.868
293.774	21.686	1409.281	1080.899
294.789	21.867	1408.342	1081.202
295.803	21.883	1408.145	1081.053
296.818	22.028	1406.899	1080.893
297.833	21.919	1405.556	1079.095
298.847	21.675	1404.710	1076.852
299.862	21.662	1403.854	1076.018
300.876	21.688	1403.091	1075.498
301.891	21.673	1402.082	1074.537
302.906	21.779	1401.018	1074.278
303.920	21.954	1400.949	1075.200
304.935	22.054	1400.785	1075.595
305.949	22.189	1400.147	1075.831
306.964	22.218	1399.444	1075.372
307.979	22.340	1398.578	1075.359
308.993	22.287	1396.751	1073.536
310.008	22.174	1395.677	1071.925
311.022	22.163	1395.082	1071.306
312.037	22.171	1394.060	1070.475
313.052	22.303	1393.396	1070.676
314.066	22.184	1391.607	1068.486
315.081	21.915	1390.639	1066.010
316.095	21.680	1389.610	1063.703
317.110	21.444	1388.225	1061.115
318.125	21.596	1387.107	1061.089
319.139	21.669	1386.017	1060.602
320.154	21.697	1384.733	1059.697
321.168	21.550	1384.232	1058.330
322.183	21.597	1383.069	1057.632
323.197	21.652	1382.207	1057.207
324.212	21.714	1381.527	1056.969
325.227	21.828	1380.690	1056.923
326.241	21.797	1379.715	1055.896
327.256	21.802	1379.118	1055.379
328.270	21.828	1378.360	1054.859
329.285	21.724	1377.226	1053.276
330.300	21.678	1376.131	1052.068
331.314	21.699	1375.546	1051.651
332.329	21.725	1374.507	1050.924
333.343	21.749	1373.666	1050.332
334.358	21.775	1373.062	1049.932
335.373	21.815	1372.901	1049.956
336.387	21.995	1372.330	1050.499
337.402	22.121	1371.060	1050.191
338.416	22.144	1370.871	1050.088
339.431	22.205	1370.020	1049.708
340.446	22.256	1369.349	1049.406
341.460	22.393	1368.680	1049.615
342.475	22.539	1368.232	1050.053
343.489	22.674	1367.457	1050.165
344.504	22.693	1366.677	1049.587
345.519	22.787	1365.763	1049.351
346.533	22.837	1364.762	1048.786
347.548	22.862	1364.019	1048.273
348.562	22.973	1363.371	1048.339
349.577	22.971	1362.085	1047.249
350.592	22.771	1361.253	1045.328
351.606	22.499	1359.594	1042.354
352.621	22.204	1358.041	1039.326
353.635	22.134	1356.818	1037.888
354.650	22.035	1355.653	1036.317
355.665	21.975	1354.719	1035.159
356.679	22.168	1354.217	1035.824
357.694	22.189	1353.449	1035.264
358.708	22.305	1352.086	1034.817
359.723	22.391	1351.432	1034.726
360.738	22.494	1350.620	1034.619
361.752	22.560	1349.203	1033.830
362.767	22.419	1348.606	1032.452
363.781	22.409	1347.889	1031.758
364.796	22.519	1346.660	1031.370
365.810	22.596	1346.375	1031.510
366.825	22.794	1345.377	1031.809
367.840	22.898	1345.788	1032.640
368.854	23.093	1344.974	1033.066
369.869	23.220	1344.365	1033.249
370.883	23.229	1343.976	1032.910
371.898	23.180	1343.285	1032.001
372.913	22.942	1341.853	1029.424
373.927	22.844	1340.719	1027.890
374.942	22.925	1339.810	1027.578
375.956	23.020	1339.480	1027.784
376.971	23.070	1338.630	1027.333
377.986	22.969	1337.847	1026.051
379.000	22.940	1337.056	1025.189
380.015	23.141	1336.579	1025.897
381.029	23.342	1335.715	1026.309
382.044	23.347	1335.468	1026.057
383.059	23.288	1334.915	1025.199
384.073	23.274	1333.716	1024.105
385.088	23.192	1333.192	1023.138
386.102	23.232	1332.472	1022.729
387.117	23.394	1331.478	1022.807
388.132	23.312	1330.078	1021.170
389.146	22.856	1329.613	1018.094
390.161	22.747	1328.381	1016.431
391.175	22.784	1327.510	1015.886
392.190	22.678	1327.098	1014.876
393.205	22.881	1326.201	1015.262
394.219	23.081	1325.609	1015.871
395.234	23.122	1324.663	1015.293
396.248	23.073	1323.178	1013.780
397.263	22.858	1321.517	1011.187
398.278	22.841	1320.357	1010.114
399.292	22.799	1319.208	1008.905
400.307	22.610	1318.094	1006.887
401.321	22.632	1316.564	1005.751
402.336	22.641	1315.540	1004.935
403.350	22.484	1314.606	1003.240
404.365	22.466	1314.020	1002.596
405.380	22.591	1313.014	1002.452
406.394	22.713	1312.286	1002.503
407.409	22.857	1311.689	1002.778
408.423	22.804	1311.518	1002.256
409.438	23.130	1310.966	1003.594
410.453	23.223	1310.455	1003.640
411.467	23.326	1309.565	1003.454
412.482	23.367	1309.471	1003.529
413.496	23.392	1308.819	1003.079
414.511	23.538	1308.224	1003.360
415.526	23.665	1307.147	1003.163
416.540	23.637	1307.030	1002.824
417.555	23.761	1306.258	1002.847
418.569	23.888	1305.438	1002.843
419.584	23.774	1304.650	1001.506
420.599	23.654	1303.861	1000.136
421.613	147.031	1435.028	1798.244
422.628	142.435	1454.104	1798.348
