DTS Sentinel unit serial number:	SN413079Multiplexer serial number:	ORYXHardware model number:	OX4-SRSoftware version number:	ORYX F/W v4.00 Oryx Data Collector v3.7.2.0data status	okinstallation	princeton_trtdifferential loss correction	single-endedforward channel	channel 4reverse channel	N/Adate	2019/09/17time	13:05:34forward acquisition time	60.00reverse acquisition time	0.00gamma	496.2192k internal	0.2300k external	0.2300temperature offset calibration	0.9984default loss term (dB/km)	0.3790temperature slope calibration	1.0000multiplexer offset coefficient	1.0000multiplexer slope coefficient	1.0000fibre end	0.00T internal ref (°C)	33.56T ext. ref 1 (°C)	0.41T ext. ref 2 (°C)	31.54length (m)	temperature (°C)	Stokes	anti-Stokes-747.200	-81.297	-0.082	-0.028
-746.185	403.309	0.094	-0.202
-745.171	405.543	-0.101	0.217
-744.156	1.489	-0.026	0.019
-743.142	-99.961	-0.263	0.067
-742.127	-200.000	0.071	0.329
-741.112	202.126	0.251	0.394
-740.098	35.954	-0.198	0.177
-739.083	-42.023	-0.067	0.035
-738.069	-135.063	-0.296	-0.036
-737.054	-95.042	0.413	0.114
-736.039	-29.112	-0.310	-0.181
-735.025	-31.728	-0.042	0.024
-734.010	-75.742	-0.182	-0.066
-732.996	215.080	0.130	0.210
-731.981	19.284	-0.068	0.056
-730.966	-86.995	-0.204	-0.063
-729.952	207.013	-0.087	-0.138
-728.937	-31.527	-0.319	-0.183
-727.923	348.189	-0.172	-0.346
-726.908	-138.691	0.158	0.018
-725.894	-200.000	0.011	-0.064
-724.879	-132.463	0.130	0.017
-723.864	-178.260	-0.448	-0.011
-722.850	800.000	0.108	-0.356
-721.835	-65.553	0.168	0.069
-720.821	-100.889	-0.036	-0.009
-719.806	-200.000	-0.012	-0.205
-718.791	800.000	0.062	0.189
-717.777	175.036	-0.135	0.199
-716.762	-200.000	-0.021	0.112
-715.748	800.000	0.095	0.322
-714.733	13.689	-0.099	-0.078
-713.718	-80.152	0.318	-0.109
-712.704	-134.553	-0.105	-0.013
-711.689	-3.304	0.082	0.059
-710.675	16.456	0.125	-0.101
-709.660	-119.003	-0.216	-0.039
-708.645	-100.403	-0.179	0.045
-707.631	397.831	-0.134	-0.286
-706.616	1.120	-0.238	0.174
-705.602	122.534	0.043	-0.055
-704.587	20.859	0.020	0.017
-703.572	-28.148	0.249	0.147
-702.558	70.594	0.225	-0.237
-701.543	36.134	0.108	-0.096
-700.529	-165.182	0.091	0.004
-699.514	74.521	-0.031	-0.033
-698.499	-98.182	-0.196	-0.051
-697.485	-200.000	-0.048	-0.223
-696.470	328.934	0.090	-0.176
-695.456	-200.000	-0.066	-0.552
-694.441	329.391	-0.078	0.152
-693.426	4.479	-0.140	-0.105
-692.412	-10.603	-0.068	-0.046
-691.397	25.524	-0.180	0.152
-690.383	64.207	-0.288	0.294
-689.368	-86.566	-0.122	0.038
-688.354	-200.000	0.004	-0.144
-687.339	-185.713	0.284	-0.004
-686.324	-15.460	-0.029	0.019
-685.310	-103.125	-0.194	0.047
-684.295	-110.682	0.423	-0.089
-683.281	197.448	-0.136	0.211
-682.266	-200.000	0.023	0.208
-681.251	800.000	0.035	0.106
-680.237	365.858	-0.048	-0.097
-679.222	264.194	-0.172	0.305
-678.208	-200.000	0.016	0.183
-677.193	-200.000	-0.038	-0.264
-676.178	-10.483	-0.194	0.131
-675.164	261.128	-0.054	0.096
-674.149	-200.000	-0.073	0.485
-673.135	391.925	0.096	0.203
-672.120	67.338	0.047	-0.048
-671.105	479.669	0.058	0.135
-670.091	-200.000	0.019	0.112
-669.076	-21.692	-0.120	0.075
-668.062	-200.000	0.006	0.406
-667.047	59.341	-0.362	0.362
-666.032	223.424	-0.128	-0.210
-665.018	-111.453	-0.100	-0.021
-664.003	145.048	-0.119	-0.161
-662.989	64.280	0.210	0.215
-661.974	44.617	-0.288	-0.269
-660.959	-157.673	0.240	-0.015
-659.945	-200.000	0.002	0.270
-658.930	-134.271	0.231	0.029
-657.916	-45.317	0.118	-0.059
-656.901	186.630	0.116	-0.175
-655.886	-50.479	0.047	0.022
-654.872	363.789	-0.025	0.050
-653.857	-88.429	0.071	0.022
-652.843	24.676	0.192	0.162
-651.828	-58.206	0.172	-0.076
-650.814	-200.000	-0.033	0.148
-649.799	-122.896	0.154	-0.025
-648.784	800.000	0.075	0.271
-647.770	218.802	-0.091	0.148
-646.755	57.661	0.174	-0.173
-645.741	-94.816	-0.356	-0.098
-644.726	-76.841	-0.139	-0.050
-643.711	-41.384	0.311	-0.163
-642.697	-113.637	-0.347	0.069
-641.682	-80.079	-0.199	-0.068
-640.668	139.439	-0.083	-0.112
-639.653	-36.379	-0.085	-0.046
-638.638	-6.318	0.271	-0.188
-637.624	-41.360	0.100	-0.052
-636.609	800.000	-0.081	-0.349
-635.595	118.546	0.282	-0.354
-634.580	300.161	0.143	-0.268
-633.565	-43.626	-0.330	-0.169
-632.551	-141.637	-0.202	-0.021
-631.536	-90.231	-0.065	0.019
-630.522	-200.000	-0.014	-0.169
-629.507	-200.000	-0.009	0.076
-628.492	107.108	0.075	0.091
-627.478	17.352	0.155	-0.125
-626.463	127.234	-0.036	0.046
-625.449	-130.571	-0.261	0.036
-624.434	-200.000	0.000	0.120
-623.419	-53.283	0.137	0.064
-622.405	800.000	0.073	0.225
-621.390	-17.170	-0.099	-0.063
-620.376	304.463	0.186	-0.350
-619.361	-118.838	-0.149	-0.027
-618.346	-1.949	-0.122	-0.087
-617.332	-200.000	-0.036	0.183
-616.317	83.029	0.076	0.084
-615.303	-54.157	0.050	-0.023
-614.288	800.000	0.024	-0.102
-613.273	-200.000	0.027	-0.211
-612.259	-200.000	0.046	-0.280
-611.244	26.992	-0.325	-0.277
-610.230	-200.000	0.003	0.198
-609.215	-8.912	0.148	-0.100
-608.201	-200.000	0.014	-0.212
-607.186	-75.012	-0.083	-0.030
-606.171	-200.000	0.007	-0.249
-605.157	243.858	-0.037	0.063
-604.142	800.000	-0.077	-0.301
-603.128	-124.053	-0.105	0.017
-602.113	221.604	-0.115	-0.188
-601.098	-147.994	-0.171	-0.014
-600.084	-14.629	0.048	0.031
-599.069	191.225	0.215	0.329
-598.055	17.683	-0.122	0.098
-597.040	47.806	0.194	0.183
-596.025	-47.541	-0.103	0.051
-595.011	73.647	0.079	0.084
-593.996	102.759	-0.125	0.148
-592.982	-157.095	0.328	0.020
-591.967	-16.110	-0.066	-0.042
-590.952	-101.278	-0.191	-0.047
-589.938	800.000	-0.028	0.111
-588.923	-98.106	0.207	-0.054
-587.909	-58.598	0.218	-0.096
-586.894	-102.342	0.282	0.069
-585.879	-21.956	-0.095	0.059
-584.865	42.694	0.457	0.422
-583.850	-86.058	0.156	0.049
-582.836	-115.868	0.155	0.029
-581.821	23.572	-0.311	-0.259
-580.806	-200.000	0.011	0.151
-579.792	800.000	-0.014	0.052
-578.777	618.150	0.064	-0.163
-577.763	-6.940	0.017	-0.012
-576.748	-32.590	-0.175	-0.099
-575.733	197.616	0.207	0.320
-574.719	-148.332	0.305	-0.025
-573.704	38.668	0.143	-0.130
-572.690	-200.000	0.064	0.347
-571.675	289.385	0.147	-0.269
-570.661	-111.970	0.295	0.060
-569.646	-125.283	-0.199	-0.031
-568.631	11.988	-0.110	-0.086
-567.617	-83.173	-0.205	0.067
-566.602	-200.000	-0.019	0.138
-565.588	500.758	-0.090	0.210
-564.573	800.000	-0.114	-0.442
-563.558	-17.843	0.195	0.124
-562.544	106.927	-0.156	-0.187
-561.529	-142.153	-0.432	0.043
-560.515	-116.208	-0.250	-0.047
-559.500	-200.000	0.010	0.232
-558.485	-200.000	0.013	0.212
-557.471	-126.711	0.149	0.022
-556.456	-20.719	0.065	0.040
-555.442	33.109	-0.065	0.057
-554.427	-26.436	0.364	0.216
-553.412	-200.000	0.089	-0.499
-552.398	-86.120	-0.181	-0.057
-551.383	395.199	-0.124	-0.262
-550.369	21.716	-0.090	-0.074
-549.354	800.000	0.067	0.251
-548.339	-128.328	-0.045	0.006
-547.325	-138.535	0.361	0.040
-546.310	-121.984	0.090	0.015
-545.296	59.415	0.362	-0.361
-544.281	411.633	-0.149	0.320
-543.266	215.502	-0.098	-0.157
-542.252	29.699	0.198	0.171
-541.237	72.240	0.088	-0.093
-540.223	-30.995	-0.110	-0.063
-539.208	-200.000	-0.099	0.497
-538.193	800.000	-0.074	0.283
-537.179	-27.407	0.146	-0.086
-536.164	-5.261	0.068	0.047
-535.150	-89.728	0.127	0.038
-534.135	17.788	-0.165	0.133
-533.121	49.702	0.113	-0.108
-532.106	133.624	0.077	0.100
-531.091	-34.203	0.165	0.091
-530.077	-200.000	-0.003	0.233
-529.062	-200.000	0.001	-0.069
-528.048	458.598	0.034	0.077
-527.033	-105.705	-0.116	-0.027
-526.018	315.853	-0.149	0.284
-525.004	-200.000	-0.008	-0.069
-523.989	800.000	0.122	0.370
-522.975	-82.591	-0.191	-0.063
-521.960	-70.603	-0.249	-0.095
-520.945	-37.009	-0.179	-0.097
-519.931	-32.445	-0.156	0.088
-518.916	542.492	-0.034	0.083
-517.902	348.031	0.130	-0.259
-516.887	565.554	0.087	0.214
-515.872	-200.000	-0.011	0.115
-514.858	-13.367	0.061	0.040
-513.843	608.653	0.080	-0.201
-512.829	171.603	-0.045	-0.065
-511.814	-200.000	-0.002	-0.041
-510.799	6.742	-0.300	0.226
-509.785	-200.000	0.011	0.094
-508.770	297.577	-0.116	-0.216
-507.756	-40.355	0.275	-0.145
-506.741	-39.919	-0.113	-0.060
-505.726	-200.000	-0.014	-0.124
-504.712	643.156	-0.066	-0.171
-503.697	800.000	-0.024	0.080
-502.683	800.000	-0.023	-0.071
-501.668	40.521	0.064	0.058
-500.653	-15.516	0.147	-0.095
-499.639	46.516	-0.080	0.075
-498.624	-56.869	0.313	0.140
-497.610	-55.743	0.047	-0.021
-496.595	-132.467	0.151	0.020
-495.581	-36.010	0.174	0.095
-494.566	-58.963	-0.244	-0.107
-493.551	-134.907	0.325	-0.040
-492.537	-176.898	0.056	0.001
-491.522	22.220	-0.367	0.302
-490.508	106.920	0.155	0.186
-489.493	-7.825	-0.359	0.244
-488.478	38.211	-0.084	-0.076
-487.464	40.732	0.262	0.239
-486.449	-200.000	0.003	-0.127
-485.435	-161.984	0.145	0.007
-484.420	-117.857	0.239	0.043
-483.405	-200.000	-0.045	0.345
-482.391	-99.260	-0.117	-0.030
-481.376	-40.480	-0.282	-0.148
-480.362	-200.000	-0.026	-0.276
-479.347	-108.572	-0.208	0.045
-478.332	56.584	-0.197	0.194
-477.318	7.777	-0.232	0.175
-476.303	-93.681	-0.442	0.123
-475.289	25.664	-0.157	-0.132
-474.274	-75.250	-0.166	-0.060
-473.259	186.989	-0.074	0.111
-472.245	-200.000	0.033	0.201
-471.230	800.000	-0.030	0.126
-470.216	785.248	0.117	0.323
-469.201	-200.000	0.016	0.152
-468.186	-66.946	0.206	-0.082
-467.172	26.931	-0.110	-0.093
-466.157	800.000	0.016	0.048
-465.143	800.000	-0.111	-0.339
-464.128	-66.501	0.340	-0.136
-463.113	80.432	0.198	0.215
-462.099	-81.374	0.217	0.072
-461.084	-139.354	-0.175	0.019
-460.070	-115.570	-0.378	-0.072
-459.055	207.599	0.120	0.189
-458.040	1.465	-0.137	-0.099
-457.026	6.264	-0.136	-0.101
-456.011	-11.212	0.199	-0.132
-454.997	-200.000	-0.074	-0.364
-453.982	-200.000	-0.057	-0.295
-452.968	-1.821	0.066	0.047
-451.953	118.423	0.055	-0.069
-450.938	-200.000	-0.021	0.320
-449.924	-13.753	0.227	0.148
-448.909	-98.496	-0.393	-0.101
-447.895	-28.111	-0.146	0.085
-446.880	-145.195	0.193	0.018
-445.865	-14.109	0.092	0.060
-444.851	-89.279	-0.212	-0.063
-443.836	119.648	0.168	0.210
-442.822	-71.116	0.166	0.063
-441.807	59.251	-0.138	0.137
-440.792	-200.000	0.041	0.230
-439.778	-9.177	0.133	-0.090
-438.763	27.695	-0.124	-0.105
-437.749	-122.680	-0.412	0.067
-436.734	-44.345	-0.234	0.118
-435.719	-24.102	0.232	0.140
-434.705	-200.000	0.001	0.046
-433.690	-200.000	0.020	-0.125
-432.676	422.075	0.111	-0.240
-431.661	800.000	-0.060	-0.172
-430.646	-77.844	-0.402	-0.140
-429.632	-119.338	0.111	-0.019
-428.617	-200.000	0.002	0.063
-427.603	24.663	0.034	0.029
-426.588	46.716	0.107	0.100
-425.573	108.012	0.123	0.148
-424.559	-18.354	-0.093	-0.059
-423.544	93.743	0.123	0.141
-422.530	-200.000	0.034	0.255
-421.515	-91.050	0.153	0.044
-420.500	-63.378	0.195	-0.081
-419.486	-65.788	-0.337	0.136
-418.471	-14.304	-0.241	-0.156
-417.457	78.751	0.218	-0.235
-416.442	1.295	-0.097	0.070
-415.428	349.070	-0.136	0.271
-414.413	361.532	0.043	-0.087
-413.398	170.745	-0.128	0.185
-412.384	800.000	0.052	-0.164
-411.369	395.491	0.117	-0.246
-410.355	61.903	0.115	0.116
-409.340	-142.012	-0.372	-0.037
-408.325	-200.000	-0.034	-0.173
-407.311	-200.000	0.012	0.229
-406.296	-16.229	0.188	0.120
-405.282	310.351	-0.143	0.269
-404.267	800.000	0.019	-0.056
-403.252	86.459	-0.102	0.113
-402.238	-53.097	-0.099	0.046
-401.223	-182.217	0.258	0.005
-400.209	80.381	0.139	-0.150
-399.194	-3.190	0.192	0.135
-398.179	-139.596	0.391	-0.042
-397.165	800.000	0.072	0.220
-396.150	2.251	-0.068	-0.050
-395.136	417.990	0.047	-0.102
-394.121	-13.522	-0.302	-0.197
-393.106	16.921	0.347	0.277
-392.092	-110.018	0.134	0.028
-391.077	800.000	-0.028	-0.107
-390.063	44.627	-0.091	-0.084
-389.048	-175.005	0.141	0.004
-388.033	-44.121	0.169	0.085
-387.019	-200.000	-0.008	-0.199
-386.004	-200.000	0.059	-0.354
-384.990	449.485	-0.051	0.114
-383.975	35.332	0.114	-0.101
-382.960	5.278	-0.274	-0.203
-381.946	252.483	-0.180	0.309
-380.931	-200.000	0.005	0.049
-379.917	308.772	0.023	-0.042
-378.902	181.987	0.039	-0.057
-377.888	800.000	-0.034	0.146
-376.873	-105.328	0.130	-0.030
-375.858	-45.092	-0.127	0.064
-374.844	67.710	-0.256	0.263
-373.829	367.100	0.094	-0.191
-372.815	-200.000	0.046	-0.307
-371.800	-0.767	0.331	-0.236
-370.785	116.291	-0.226	-0.278
-369.771	800.000	-0.062	-0.203
-368.756	-200.000	0.009	0.297
-367.742	-147.190	-0.361	0.031
-366.727	13.067	-0.212	0.165
-365.712	427.145	-0.131	0.283
-364.698	-175.855	0.214	0.006
-363.683	-200.000	-0.029	-0.384
-362.669	-34.866	0.081	-0.045
-361.654	122.261	-0.276	0.347
-360.639	107.986	0.219	-0.263
-359.625	-164.493	0.286	-0.013
-358.610	-200.000	-0.031	-0.319
-357.596	-200.000	-0.017	-0.167
-356.581	316.302	-0.079	-0.150
-355.566	-87.487	0.397	0.121
-354.552	83.574	0.154	0.168
-353.537	748.395	-0.112	0.304
-352.523	-134.812	0.440	-0.054
-351.508	-169.675	0.109	0.004
-350.493	-109.107	-0.206	-0.044
-349.479	-73.878	0.055	0.020
-348.464	113.527	-0.153	0.187
-347.450	-179.475	-0.308	0.007
-346.435	612.893	-0.066	0.166
-345.420	32.487	-0.156	-0.135
-344.406	-23.491	0.201	-0.121
-343.391	800.000	0.078	-0.227
-342.377	800.000	-0.044	0.131
-341.362	-102.139	0.188	0.045
-340.348	-142.498	-0.463	0.046
-339.333	691.566	-0.066	0.173
-338.318	-46.739	0.186	-0.091
-337.304	338.355	-0.290	-0.567
-336.289	-200.000	-0.022	-0.132
-335.275	509.494	-0.123	0.288
-334.260	-105.158	0.470	-0.108
-333.245	294.713	-0.087	0.159
-332.231	-200.000	-0.007	-0.200
-331.216	-5.858	-0.047	0.032
-330.202	-122.541	-0.181	0.029
-329.187	298.425	-0.048	0.089
-328.172	189.342	0.200	0.301
-327.158	452.071	-0.105	0.232
-326.143	-34.386	-0.389	-0.214
-325.129	367.007	0.121	-0.246
-324.114	198.054	-0.105	-0.161
-323.099	-98.784	0.192	-0.049
-322.085	-200.000	-0.002	0.445
-321.070	-177.109	0.197	-0.005
-320.056	800.000	0.031	0.089
-319.041	36.990	-0.131	0.116
-318.026	-77.033	0.216	-0.075
-317.012	800.000	0.072	-0.264
-315.997	424.466	-0.010	0.023
-314.983	-11.521	-0.112	-0.074
-313.968	-78.772	-0.109	0.037
-312.953	-7.437	0.155	0.106
-311.939	479.710	-0.055	0.125
-310.924	-143.679	-0.119	-0.011
-309.910	545.418	-0.052	0.124
-308.895	116.566	0.308	0.379
-307.880	272.345	-0.074	0.130
-306.866	-200.000	-0.007	0.038
-305.851	-15.080	-0.279	-0.179
-304.837	-146.734	-0.178	-0.015
-303.822	-200.000	0.002	0.099
-302.807	-200.000	0.009	0.074
-301.793	-92.837	0.218	0.061
-300.778	63.104	0.179	-0.180
-299.764	-200.000	-0.013	0.187
-298.749	168.092	0.073	0.104
-297.735	-200.000	0.005	0.083
-296.720	-64.781	-0.316	0.128
-295.705	-94.980	-0.046	0.012
-294.691	-176.929	0.295	-0.007
-293.676	0.002	0.076	-0.054
-292.662	259.593	0.117	0.202
-291.647	-13.720	0.195	0.126
-290.632	800.000	0.019	0.064
-289.618	256.621	-0.170	0.293
-288.603	-200.000	-0.017	-0.206
-287.589	41.059	0.335	0.304
-286.574	731.666	-0.041	0.109
-285.559	549.419	0.125	-0.299
-284.545	-200.000	-0.009	-0.204
-283.530	-148.998	-0.305	0.025
-282.516	-200.000	0.047	0.433
-281.501	-29.531	-0.158	-0.090
-280.486	-75.783	0.229	0.081
-279.472	-78.246	-0.200	-0.069
-278.457	800.000	-0.057	-0.195
-277.443	-29.879	-0.196	0.112
-276.428	188.103	-0.101	-0.151
-275.413	269.506	-0.106	0.186
-274.399	-42.718	0.224	-0.114
-273.384	157.387	0.123	0.171
-272.370	88.909	0.076	-0.085
-271.355	800.000	0.121	-0.471
-270.340	232.768	0.069	-0.114
-269.326	262.867	0.044	-0.077
-268.311	-63.683	0.248	-0.102
-267.297	318.883	0.078	-0.148
-266.282	-68.318	-0.322	-0.125
-265.267	23.101	0.204	0.167
-264.253	-61.753	0.165	0.069
-263.238	-200.000	0.021	0.343
-262.224	525.284	-0.101	-0.237
-261.209	151.461	0.030	-0.041
-260.195	-49.292	-0.404	0.193
-259.180	-85.796	-0.121	0.038
-258.165	262.666	0.155	-0.269
-257.151	86.428	0.315	-0.348
-256.136	800.000	-0.106	-0.415
-255.122	19.105	-0.042	-0.033
-254.107	318.503	-0.058	0.111
-253.092	278.511	-0.062	0.111
-252.078	-138.214	0.041	0.005
-251.063	24.145	-0.128	-0.106
-250.049	205.645	0.071	0.110
-249.034	800.000	-0.047	0.187
-248.019	-200.000	-0.017	-0.121
-247.005	122.737	-0.072	-0.090
-245.990	-115.840	0.195	0.036
-244.976	-70.272	0.343	-0.130
-243.961	-39.731	-0.116	0.061
-242.946	-118.398	0.052	0.009
-241.932	116.586	-0.110	0.135
-240.917	424.651	-0.179	0.385
-239.903	105.381	-0.087	0.103
-238.888	-72.746	-0.033	0.012
-237.873	60.240	0.189	-0.187
-236.859	-200.000	0.010	-0.334
-235.844	800.000	0.018	0.069
-234.830	306.155	-0.040	-0.075
-233.815	215.348	-0.101	-0.160
-232.800	-73.603	-0.338	0.123
-231.786	-4.339	0.101	-0.070
-230.771	-37.427	0.208	0.111
-229.757	-128.681	-0.166	0.023
-228.742	-73.772	0.144	-0.052
-227.727	-48.471	0.196	0.094
-226.713	-97.128	-0.085	0.022
-225.698	-150.855	-0.205	0.016
-224.684	-79.883	-0.251	0.084
-223.669	127.665	-0.171	0.217
-222.655	183.833	-0.115	0.170
-221.640	800.000	-0.066	-0.285
-220.625	183.729	0.143	-0.211
-219.611	-184.375	-0.229	-0.004
-218.596	-3.309	0.429	0.299
-217.582	18.188	0.117	-0.093
-216.567	-138.689	-0.097	-0.011
-215.552	-131.322	-0.471	-0.062
-214.538	4.123	-0.135	-0.098
-213.523	-153.378	0.402	-0.028
-212.509	175.083	0.063	0.091
-211.494	48.503	-0.282	-0.264
-210.479	-140.467	-0.219	-0.023
-209.465	398.087	-0.101	0.210
-208.450	97.506	0.148	-0.170
-207.436	-5.226	-0.081	-0.056
-206.421	35.713	-0.131	-0.115
-205.406	800.000	-0.040	-0.152
-204.392	800.000	0.081	0.258
-203.377	286.767	-0.206	-0.371
-202.363	224.483	-0.224	0.361
-201.348	-200.000	0.000	0.070
-200.333	185.528	0.148	0.219
-199.319	-172.781	0.260	0.008
-198.304	-25.425	0.111	-0.066
-197.290	47.602	0.226	-0.211
-196.275	-112.717	0.236	-0.047
-195.260	-101.347	0.247	-0.060
-194.246	69.022	0.209	-0.214
-193.231	-170.202	-0.140	-0.005
-192.217	-82.881	0.108	0.035
-191.202	1.604	0.246	-0.177
-190.187	-28.811	0.169	0.097
-189.173	800.000	-0.006	-0.022
-188.158	-127.209	-0.345	-0.050
-187.144	-193.144	0.255	-0.002
-186.129	-21.365	-0.249	-0.152
-185.114	-136.201	0.079	-0.009
-184.100	-109.122	0.114	0.024
-183.085	321.616	0.087	-0.164
-182.071	-118.233	-0.447	-0.079
-181.056	451.983	-0.079	-0.174
-180.042	0.427	-0.107	-0.076
-179.027	-34.882	0.175	-0.095
-178.012	-200.000	0.015	-0.171
-176.998	505.085	-0.093	-0.216
-175.983	800.000	0.122	0.425
-174.969	-36.948	0.071	0.038
-173.954	0.069	0.327	-0.232
-172.939	359.511	0.057	0.113
-171.925	800.000	0.059	0.175
-170.910	503.058	0.097	-0.223
-169.896	39.277	-0.208	0.186
-168.881	133.297	0.096	-0.124
-167.866	78.429	-0.077	0.082
-166.852	23.905	-0.223	0.183
-165.837	274.749	-0.069	-0.122
-164.823	18.389	0.098	0.078
-163.808	-200.000	-0.015	0.137
-162.793	-105.994	-0.107	-0.024
-161.779	100.929	0.082	-0.095
-160.764	-200.000	-0.044	-0.263
-159.750	568.476	0.079	-0.192
-158.735	433.625	0.032	0.070
-157.720	560.829	-0.028	0.067
-156.706	273.179	0.027	-0.048
-155.691	-81.891	-0.416	0.136
-154.677	277.455	0.136	0.241
-153.662	284.955	0.131	-0.235
-152.647	447.234	0.188	0.412
-151.633	-200.000	0.007	-0.366
-150.618	-131.684	0.393	0.051
-149.604	186.793	-0.125	-0.186
-148.589	-136.253	0.018	-0.002
-147.574	258.673	-0.222	0.380
-146.560	-76.712	0.164	-0.057
-145.545	-200.000	0.077	0.414
-144.531	-130.484	0.285	-0.038
-143.516	23.840	0.172	-0.141
-142.502	359.503	-0.062	0.124
-141.487	174.448	-0.142	-0.205
-140.472	256.406	0.076	0.129
-139.458	-114.823	-0.152	-0.029
-138.443	-25.387	0.174	-0.103
-137.429	-32.670	-0.084	0.047
-136.414	55.054	0.100	0.097
-135.399	-200.000	0.040	0.346
-134.385	181.840	0.111	-0.163
-133.370	-88.956	0.136	0.040
-132.356	4.505	0.166	-0.121
-131.341	-59.760	-0.113	0.048
-130.326	67.892	0.255	0.260
-129.312	-72.996	-0.236	-0.086
-128.297	503.567	0.123	-0.283
-127.283	33.715	0.161	0.139
-126.268	-117.767	0.252	0.045
-125.253	482.198	0.067	-0.151
-124.239	339.180	0.115	0.224
-123.224	186.718	0.064	-0.094
-122.210	-200.000	0.026	0.218
-121.195	-200.000	-0.033	-0.172
-120.180	323.184	-0.041	0.078
-119.166	94.637	0.163	-0.184
-118.151	-10.474	-0.070	-0.046
-117.137	800.000	0.040	0.172
-116.122	-200.000	-0.007	0.234
-115.107	-18.444	0.385	0.239
-114.093	38.364	0.254	0.225
-113.078	29.822	0.272	-0.231
-112.064	227.802	0.014	0.023
-111.049	6.491	0.186	-0.138
-110.034	-51.502	0.258	-0.120
-109.020	-200.000	-0.049	-0.264
-108.005	147.094	0.110	-0.148
-106.991	256.488	-0.147	-0.251
-105.976	-200.000	0.042	-0.274
-104.962	154.806	0.142	0.194
-103.947	315.544	-0.119	-0.224
-102.932	-62.884	0.093	0.038
-101.918	-143.828	0.193	-0.018
-100.903	79.007	-0.166	-0.177
-99.889	-200.000	0.074	-0.363
-98.874	520.246	-0.076	-0.177
-97.859	-82.009	0.246	0.080
-96.845	-140.061	-0.305	-0.032
-95.830	-91.517	0.134	0.038
-94.816	-200.000	-0.009	0.175
-93.801	11.929	0.306	0.234
-92.786	60.739	-0.093	0.091
-91.772	-200.000	-0.058	0.391
-90.757	-14.100	0.167	0.107
-89.743	-100.563	0.158	0.039
-88.728	-120.532	0.397	-0.067
-87.713	-163.015	0.183	-0.009
-86.699	646.553	-0.083	-0.211
-85.684	254.839	-0.149	-0.254
-84.670	-200.000	0.023	0.130
-83.655	-119.064	0.328	-0.057
-82.640	-200.000	0.075	0.341
-81.626	426.285	-0.013	-0.027
-80.611	-37.125	-0.111	-0.059
-79.597	-83.727	0.444	0.141
-78.582	573.927	-0.187	0.454
-77.567	241.607	0.019	-0.032
-76.553	-147.460	0.406	-0.034
-75.538	-129.789	-0.171	0.023
-74.524	149.007	-0.062	0.083
-73.509	-71.488	0.382	0.142
-72.494	-55.989	0.187	0.083
-71.480	-115.067	-0.382	-0.072
-70.465	382.852	0.170	-0.347
-69.451	800.000	0.138	0.386
-68.436	-22.602	-0.228	0.137
-67.422	-134.014	-0.214	0.026
-66.407	99.546	-0.029	0.033
-65.392	-200.000	0.048	0.287
-64.378	47.866	-0.199	-0.185
-63.363	800.000	0.052	0.175
-62.349	107.163	0.185	0.218
-61.334	1.308	-0.888	-0.634
-60.319	82.639	0.169	0.182
-59.305	-200.000	-0.182	-0.995
-58.290	70.344	0.821	0.842
-57.276	126.805	0.923	1.161
-56.261	-200.000	96.118	562.072
-55.246	511.231	1415.490	3270.470
-54.232	144.295	2638.970	3496.374
-53.217	100.998	2367.165	2733.093
-52.203	39.912	2112.017	1882.417
-51.188	35.078	2024.564	1760.099
-50.173	33.635	2006.112	1730.832
-49.159	47.657	2057.112	1904.776
-48.144	49.673	2077.278	1942.043
-47.130	35.990	2035.077	1777.380
-46.115	33.545	2023.471	1744.700
-45.100	33.332	2021.292	1740.800
-44.086	33.425	2018.120	1738.851
-43.071	33.380	2015.534	1736.140
-42.057	33.288	2013.417	1733.401
-41.042	33.337	2011.537	1732.168
-40.027	33.421	2009.245	1730.892
-39.013	33.379	2006.901	1728.421
-37.998	33.503	2004.922	1727.772
-36.984	33.474	2003.486	1726.203
-35.969	33.466	2001.543	1724.388
-34.954	33.553	1999.324	1723.198
-33.940	33.496	1998.800	1722.162
-32.925	33.589	1996.395	1720.865
-31.911	33.566	1994.839	1719.253
-30.896	33.522	1992.975	1717.173
-29.881	33.442	1991.960	1715.512
-28.867	33.519	1990.320	1714.723
-27.852	33.570	1988.093	1713.195
-26.838	33.668	1985.720	1711.970
-25.823	33.512	1984.323	1709.294
-24.809	33.613	1982.649	1708.689
-23.794	33.662	1980.711	1707.396
-22.779	33.602	1979.088	1705.385
-21.765	33.475	1978.081	1703.312
-20.750	33.617	1975.756	1702.520
-19.736	33.585	1974.624	1701.183
-18.721	33.552	1972.979	1699.407
-17.706	33.616	1970.936	1698.148
-16.692	33.647	1969.557	1697.174
-15.677	33.561	1967.666	1694.704
-14.663	33.641	1966.262	1694.144
-13.648	33.662	1964.858	1693.056
-12.633	33.627	1963.686	1691.670
-11.619	33.639	1962.219	1690.446
-10.604	33.586	1961.023	1688.877
-9.590	33.558	1959.948	1687.630
-8.575	33.595	1957.893	1686.128
-7.560	33.609	1956.779	1685.219
-6.546	33.603	1955.715	1684.182
-5.531	33.658	1954.130	1683.245
-4.517	33.639	1953.145	1682.160
-3.502	33.609	1951.745	1680.616
-2.487	33.556	1950.671	1679.163
-1.473	33.599	1949.877	1678.792
-0.458	33.738	1945.435	1676.123
0.556	32.359	1926.412	1652.747
1.571	28.762	1907.839	1605.305
2.586	24.840	1930.009	1589.065
3.600	23.428	1965.931	1605.719
4.615	22.630	1961.255	1594.541
5.629	17.579	1857.001	1466.282
6.644	7.167	1729.987	1281.962
7.659	1.124	1688.172	1203.018
8.673	0.527	1684.252	1195.397
9.688	0.484	1682.382	1193.619
10.702	0.373	1681.547	1192.042
11.717	0.277	1678.407	1188.955
12.731	0.957	1677.803	1193.786
13.746	8.100	1694.464	1262.257
14.761	16.528	1711.219	1341.761
15.775	18.200	1712.120	1355.612
16.790	17.181	1708.664	1344.688
17.804	16.110	1705.452	1333.581
18.819	15.223	1701.958	1323.728
19.834	14.576	1699.445	1316.553
20.848	14.313	1697.575	1312.910
21.863	14.039	1696.624	1309.897
22.877	13.725	1695.113	1306.143
23.892	13.468	1693.423	1302.707
24.907	13.438	1692.161	1301.381
25.921	13.369	1691.061	1299.878
26.936	13.383	1690.403	1299.368
27.950	13.448	1689.249	1298.876
28.965	13.471	1689.164	1298.875
29.980	13.458	1688.318	1298.007
30.994	13.585	1687.102	1297.957
32.009	13.583	1686.132	1297.080
33.023	13.639	1685.425	1296.862
34.038	13.682	1684.256	1296.183
35.053	13.554	1683.584	1294.545
36.067	13.642	1682.165	1294.027
37.082	13.568	1680.969	1292.417
38.096	13.506	1680.174	1291.206
39.111	13.612	1679.694	1291.552
40.126	13.647	1678.124	1290.505
41.140	13.675	1677.324	1289.992
42.155	13.501	1675.823	1287.369
43.169	13.424	1674.775	1285.850
44.184	13.372	1673.581	1284.417
45.199	13.352	1672.720	1283.492
46.213	13.360	1671.287	1282.338
47.228	13.359	1670.559	1281.655
48.242	13.459	1668.786	1280.959
49.257	13.509	1667.375	1280.146
50.271	13.405	1666.764	1278.761
51.286	13.456	1665.505	1278.081
52.301	13.531	1663.411	1276.934
53.315	13.511	1661.921	1275.527
54.330	13.466	1660.822	1274.220
55.344	13.448	1658.733	1272.371
56.359	13.397	1657.522	1270.938
57.374	13.429	1656.646	1270.397
58.388	13.471	1655.459	1269.695
59.403	13.411	1653.998	1268.005
60.417	13.380	1652.324	1266.369
61.432	13.337	1651.506	1265.305
62.447	13.370	1650.525	1264.690
63.461	13.282	1649.104	1262.820
64.476	13.327	1647.873	1262.106
65.490	13.325	1646.792	1261.149
66.505	13.189	1645.772	1259.221
67.520	13.264	1644.658	1258.833
68.534	13.308	1643.668	1258.293
69.549	13.376	1642.455	1257.773
70.563	13.337	1640.825	1256.119
71.578	13.322	1639.956	1255.229
72.593	13.211	1638.964	1253.514
73.607	13.305	1637.641	1253.104
74.622	13.189	1636.719	1251.410
75.636	13.102	1636.238	1250.273
76.651	13.189	1634.608	1249.578
77.666	13.252	1633.882	1249.385
78.680	13.215	1632.940	1248.279
79.695	13.288	1632.034	1248.023
80.709	13.260	1631.136	1247.013
81.724	13.255	1630.140	1246.102
82.739	13.307	1629.370	1245.801
83.753	13.339	1628.641	1245.370
84.768	13.396	1627.374	1244.721
85.782	13.390	1626.552	1243.939
86.797	13.553	1625.216	1244.028
87.812	13.439	1624.700	1242.670
88.826	13.481	1623.217	1241.739
89.841	13.507	1622.021	1240.912
90.855	13.421	1621.591	1239.825
91.870	13.433	1620.031	1238.614
92.884	13.508	1618.971	1238.257
93.899	13.437	1618.355	1237.144
94.914	13.538	1616.755	1236.566
95.928	13.602	1615.355	1235.865
96.943	13.534	1614.074	1234.266
97.957	13.520	1612.696	1232.997
98.972	13.510	1611.005	1231.526
99.987	13.513	1609.720	1230.451
101.001	13.643	1607.627	1229.706
102.016	13.496	1606.051	1227.303
103.030	13.517	1604.891	1226.463
104.045	13.412	1604.026	1224.918
105.060	13.516	1602.467	1224.391
106.074	13.455	1600.812	1222.569
107.089	13.530	1599.101	1221.702
108.103	13.252	1598.090	1218.775
109.118	13.337	1596.798	1218.305
110.133	13.336	1594.910	1216.752
111.147	13.332	1593.380	1215.445
112.162	13.288	1592.583	1214.411
113.176	13.335	1590.696	1213.211
114.191	13.358	1589.568	1212.409
115.206	13.426	1588.032	1211.630
116.220	13.372	1587.246	1210.525
117.235	13.366	1585.487	1209.032
118.249	13.429	1584.056	1208.296
119.264	13.405	1582.950	1207.167
120.279	13.384	1581.726	1205.980
121.293	13.433	1580.300	1205.139
122.308	13.304	1578.753	1202.913
123.322	13.384	1577.301	1202.285
124.337	13.382	1575.652	1200.908
125.352	13.367	1573.774	1199.262
126.366	13.311	1573.374	1198.443
127.381	13.321	1572.291	1197.583
128.395	13.369	1570.582	1196.520
129.410	13.344	1569.446	1195.367
130.424	13.319	1568.595	1194.440
131.439	13.418	1566.494	1193.449
132.454	13.393	1565.592	1192.472
133.468	13.472	1564.044	1191.755
134.483	13.463	1562.625	1190.502
135.497	13.463	1561.496	1189.538
136.512	13.570	1559.786	1188.898
137.527	13.526	1558.407	1187.426
138.541	13.447	1557.192	1185.833
139.556	13.520	1555.961	1185.314
140.570	13.500	1554.384	1183.862
141.585	13.515	1553.128	1182.909
142.600	13.552	1551.655	1181.944
143.614	13.631	1550.184	1181.286
144.629	13.635	1549.300	1180.537
145.643	13.656	1547.793	1179.432
146.658	13.761	1545.916	1178.642
147.673	13.693	1544.539	1177.003
148.687	13.582	1543.469	1175.298
149.702	13.583	1542.327	1174.330
150.716	13.605	1540.445	1172.950
151.731	13.661	1538.969	1172.120
152.746	13.617	1537.600	1170.661
153.760	13.544	1536.667	1169.331
154.775	13.688	1534.673	1168.724
155.789	13.618	1533.613	1167.326
156.804	13.682	1532.651	1166.940
157.819	13.720	1530.800	1165.692
158.833	13.737	1529.833	1164.974
159.848	13.734	1528.235	1163.633
160.862	13.792	1527.211	1163.157
161.877	13.819	1526.112	1162.407
162.892	13.748	1525.009	1160.965
163.906	13.764	1523.171	1159.577
164.921	13.747	1522.279	1158.676
165.935	13.656	1521.376	1157.252
166.950	13.662	1520.576	1156.581
167.964	13.768	1519.000	1156.017
168.979	13.770	1517.875	1155.076
169.994	13.724	1516.675	1153.739
171.008	13.781	1515.765	1153.341
172.023	13.705	1514.925	1152.071
173.037	13.765	1513.502	1151.306
174.052	13.877	1511.936	1150.783
175.067	13.904	1511.012	1150.168
176.081	13.799	1509.957	1148.539
177.096	13.807	1508.546	1147.418
178.110	13.774	1507.321	1146.153
179.125	13.799	1506.305	1145.454
180.140	13.859	1505.104	1144.853
181.154	13.822	1504.099	1143.732
182.169	13.850	1503.124	1143.081
183.183	13.961	1501.370	1142.414
184.198	13.917	1500.932	1141.677
185.213	14.028	1499.119	1140.959
186.227	13.993	1498.488	1140.133
187.242	14.112	1497.043	1139.747
188.256	14.038	1496.276	1138.558
189.271	14.084	1495.250	1137.993
190.286	14.103	1494.163	1137.196
191.300	14.105	1492.579	1135.899
192.315	13.832	1492.076	1133.552
193.329	13.879	1490.896	1132.878
194.344	13.920	1489.423	1131.936
195.359	13.942	1488.719	1131.451
196.373	13.933	1487.599	1130.437
197.388	13.959	1486.313	1129.538
198.402	14.156	1485.192	1129.927
199.417	14.124	1483.870	1128.603
200.432	14.188	1482.699	1128.047
201.446	14.227	1482.203	1127.833
202.461	14.263	1480.764	1126.883
203.475	14.320	1479.687	1126.347
204.490	14.336	1478.369	1125.356
205.504	14.330	1477.474	1124.535
206.519	14.344	1476.157	1123.523
207.534	14.283	1475.175	1122.270
208.548	14.284	1473.883	1121.192
209.563	14.202	1473.517	1120.259
210.577	14.231	1472.349	1119.473
211.592	14.211	1471.417	1118.529
212.607	14.208	1470.823	1117.960
213.621	14.394	1469.480	1118.084
214.636	14.487	1468.285	1117.700
215.650	14.337	1467.743	1116.182
216.665	14.390	1466.966	1115.850
217.680	14.386	1466.233	1115.168
218.694	14.436	1465.451	1114.806
219.709	14.517	1464.122	1114.237
220.723	14.498	1463.306	1113.389
221.738	14.544	1462.229	1112.782
222.753	14.451	1461.717	1111.674
223.767	14.488	1460.405	1110.821
224.782	14.415	1459.595	1109.624
225.796	14.496	1458.644	1109.343
226.811	14.594	1457.816	1109.263
227.826	14.611	1457.192	1108.808
228.840	14.600	1456.363	1108.005
229.855	14.499	1455.238	1106.379
230.869	14.544	1454.134	1105.740
231.884	14.521	1453.113	1104.715
232.899	14.556	1452.054	1104.042
233.913	14.500	1450.562	1102.437
234.928	14.542	1449.476	1101.796
235.942	14.556	1448.003	1100.671
236.957	14.554	1447.180	1099.931
237.972	14.641	1445.777	1099.341
238.986	14.546	1444.778	1097.863
240.001	14.628	1443.960	1097.680
241.015	14.605	1443.150	1096.815
242.030	14.607	1441.713	1095.643
243.045	14.556	1440.894	1094.585
244.059	14.590	1439.832	1093.908
245.074	14.723	1438.999	1094.051
246.088	14.681	1437.966	1092.893
247.103	14.711	1437.465	1092.611
248.117	14.760	1436.882	1092.388
249.132	14.801	1435.634	1091.610
250.147	14.858	1435.399	1091.711
251.161	14.823	1434.997	1091.078
252.176	14.919	1434.040	1090.882
253.190	14.995	1433.259	1090.688
254.205	15.093	1432.054	1090.310
255.220	15.097	1431.618	1089.907
256.234	15.004	1431.092	1088.805
257.249	15.104	1429.693	1088.294
258.263	15.075	1429.105	1087.561
259.278	15.120	1427.593	1086.606
260.293	15.171	1427.408	1086.701
261.307	15.051	1426.457	1085.104
262.322	15.150	1425.528	1084.945
263.336	15.160	1424.914	1084.441
264.351	15.217	1424.065	1084.070
265.366	15.147	1423.134	1082.812
266.380	15.235	1422.211	1082.586
267.395	15.248	1421.306	1081.887
268.409	15.235	1420.096	1080.783
269.424	15.326	1418.938	1080.393
270.439	15.240	1417.876	1078.932
271.453	15.315	1417.089	1078.723
272.468	15.263	1416.133	1077.565
273.482	15.255	1415.800	1077.166
274.497	15.198	1414.583	1075.777
275.512	15.264	1414.219	1075.832
276.526	15.268	1413.079	1074.890
277.541	15.233	1412.074	1073.810
278.555	15.237	1411.080	1072.986
279.570	15.421	1409.837	1073.118
280.585	15.482	1409.304	1073.009
281.599	15.358	1408.596	1071.581
282.614	15.528	1407.132	1071.457
283.628	15.466	1406.130	1070.204
284.643	15.381	1404.932	1068.658
285.657	15.466	1403.652	1068.130
286.672	15.456	1403.195	1067.625
287.687	15.392	1402.054	1066.257
288.701	15.465	1401.051	1065.863
289.716	15.503	1400.568	1065.639
290.730	15.507	1399.684	1064.901
291.745	15.549	1398.460	1064.141
292.760	15.499	1397.764	1063.200
293.774	15.575	1396.368	1062.525
294.789	15.536	1395.709	1061.683
295.803	15.642	1394.666	1061.466
296.818	15.630	1393.973	1060.770
297.833	15.575	1392.664	1059.329
298.847	15.725	1391.780	1059.512
299.862	15.668	1390.507	1058.087
300.876	15.697	1389.771	1057.615
301.891	15.621	1388.815	1056.320
302.906	15.666	1388.519	1056.280
303.920	15.750	1387.536	1055.968
304.935	15.730	1386.397	1054.886
305.949	15.770	1385.635	1054.463
306.964	15.778	1385.120	1054.024
307.979	15.882	1383.648	1053.461
308.993	15.877	1383.022	1052.866
310.008	15.822	1382.256	1051.841
311.022	15.833	1381.172	1050.993
312.037	15.930	1379.796	1050.461
313.052	15.913	1379.271	1049.859
314.066	15.953	1377.933	1049.000
315.081	15.904	1377.109	1047.974
316.095	15.921	1375.961	1047.112
317.110	15.937	1375.209	1046.548
318.125	15.836	1374.168	1045.033
319.139	15.862	1373.348	1044.476
320.154	15.939	1372.136	1043.945
321.168	15.839	1371.344	1042.627
322.183	15.865	1370.710	1042.215
323.197	15.947	1369.570	1041.766
324.212	15.968	1368.487	1040.974
325.227	15.959	1367.790	1040.297
326.241	15.948	1366.912	1039.474
327.256	16.019	1365.689	1038.885
328.270	15.961	1364.973	1037.892
329.285	15.962	1364.634	1037.550
330.300	15.921	1363.271	1036.170
331.314	16.017	1362.023	1035.722
332.329	15.976	1361.866	1035.258
333.343	16.065	1360.405	1034.601
334.358	16.010	1359.770	1033.690
335.373	16.041	1359.043	1033.234
336.387	16.069	1358.264	1032.719
337.402	16.208	1357.184	1032.658
338.416	16.110	1357.014	1031.841
339.431	16.210	1355.998	1031.590
340.446	16.215	1355.511	1031.158
341.460	16.151	1354.677	1030.038
342.475	16.264	1353.301	1029.589
343.489	16.298	1352.708	1029.254
344.504	16.307	1351.653	1028.416
345.519	16.310	1350.602	1027.546
346.533	16.313	1350.007	1027.020
347.548	16.397	1349.014	1026.685
348.562	16.472	1348.124	1026.371
349.577	16.524	1347.166	1025.869
350.592	16.405	1346.290	1024.386
351.606	16.460	1345.403	1023.953
352.621	16.439	1344.278	1022.881
353.635	16.449	1342.946	1021.836
354.650	16.366	1342.597	1020.978
355.665	16.394	1341.757	1020.419
356.679	16.392	1340.402	1019.286
357.694	16.457	1339.151	1018.636
358.708	16.469	1338.556	1018.168
359.723	16.517	1337.023	1017.196
360.738	16.592	1335.828	1016.649
361.752	16.519	1335.463	1015.844
362.767	16.472	1334.493	1014.733
363.781	16.557	1333.372	1014.301
364.796	16.575	1332.706	1013.811
365.810	16.551	1332.023	1013.060
366.825	16.536	1331.112	1012.190
367.840	16.595	1330.884	1012.277
368.854	16.588	1330.027	1011.495
369.869	16.672	1329.434	1011.458
370.883	16.679	1328.769	1010.903
371.898	16.750	1327.661	1010.397
372.913	16.719	1326.790	1009.457
373.927	16.813	1326.007	1009.331
374.942	16.764	1325.318	1008.426
375.956	16.713	1324.747	1007.601
376.971	16.874	1323.358	1007.414
377.986	16.879	1322.749	1006.891
379.000	16.823	1322.287	1006.113
380.015	16.820	1321.317	1005.272
381.029	16.953	1320.533	1005.375
382.044	16.958	1319.593	1004.599
383.059	17.012	1318.796	1004.220
384.073	16.996	1318.177	1003.568
385.088	17.033	1317.570	1003.235
386.102	17.077	1316.774	1002.801
387.117	17.068	1316.206	1002.226
388.132	17.027	1315.117	1001.069
389.146	16.974	1314.225	999.983
390.161	17.042	1313.093	999.436
391.175	17.123	1312.365	999.270
392.190	17.038	1312.001	998.407
393.205	17.029	1311.385	997.793
394.219	17.151	1310.290	997.588
395.234	17.057	1309.446	996.306
396.248	17.146	1307.825	995.509
397.263	17.183	1306.478	994.610
398.278	17.003	1305.528	992.748
399.292	17.142	1303.791	992.149
400.307	17.052	1303.243	991.122
401.321	17.098	1301.946	990.313
402.336	17.169	1300.841	989.798
403.350	17.080	1300.123	988.645
404.365	17.027	1299.382	987.686
405.380	17.138	1298.420	987.512
406.394	17.235	1297.105	986.993
407.409	17.247	1296.120	986.223
408.423	17.248	1296.191	986.196
409.438	17.269	1295.642	985.815
410.453	17.270	1294.658	984.982
411.467	17.322	1294.104	984.774
412.482	17.395	1293.217	984.435
413.496	17.420	1292.781	984.158
414.511	17.480	1291.975	983.806
415.526	17.417	1291.135	982.714
416.540	17.334	1290.578	981.724
417.555	17.486	1289.912	982.008
418.569	17.566	1289.404	981.999
419.584	17.590	1288.713	981.525
420.599	17.543	1287.564	980.292
421.613	91.319	1346.630	1448.305
422.628	89.670	1355.219	1448.426
