DTS Sentinel unit serial number:	SN413079Multiplexer serial number:	ORYXHardware model number:	OX4-SRSoftware version number:	ORYX F/W v4.00 Oryx Data Collector v3.7.2.0data status	okinstallation	princeton_trtdifferential loss correction	single-endedforward channel	channel 4reverse channel	N/Adate	2019/09/14time	02:45:35forward acquisition time	60.00reverse acquisition time	0.00gamma	496.2192k internal	0.2323k external	0.2323temperature offset calibration	1.0131default loss term (dB/km)	0.3790temperature slope calibration	1.0000multiplexer offset coefficient	1.0000multiplexer slope coefficient	1.0000fibre end	0.00T internal ref (°C)	26.56T ext. ref 1 (°C)	3.24T ext. ref 2 (°C)	21.62length (m)	temperature (°C)	Stokes	anti-Stokes-747.200	-166.335	-0.263	-0.011
-746.185	-133.714	-0.305	-0.038
-745.171	-0.380	0.250	-0.179
-744.156	-188.913	-0.332	-0.004
-743.142	-200.000	0.064	-0.341
-742.127	800.000	0.068	0.238
-741.112	-67.206	0.101	0.040
-740.098	9.200	-0.348	0.266
-739.083	800.000	-0.066	-0.210
-738.069	-200.000	0.000	0.077
-737.054	18.702	-0.181	-0.146
-736.039	130.624	-0.058	-0.075
-735.025	-178.654	0.392	-0.009
-734.010	332.363	0.063	0.123
-732.996	45.567	-0.235	-0.219
-731.981	-118.676	-0.164	-0.029
-730.966	-200.000	-0.017	-0.233
-729.952	-97.977	0.366	0.095
-728.937	398.987	-0.118	-0.249
-727.923	-200.000	-0.037	0.375
-726.908	-62.558	-0.121	0.051
-725.894	72.629	-0.059	0.062
-724.879	-200.000	0.023	-0.221
-723.864	22.807	0.225	-0.186
-722.850	-12.528	-0.306	0.202
-721.835	-37.286	-0.127	-0.068
-720.821	323.520	-0.070	0.134
-719.806	8.403	-0.039	-0.030
-718.791	-159.193	-0.285	-0.016
-717.777	-176.471	-0.072	0.002
-716.762	77.771	0.172	0.185
-715.748	-98.758	-0.071	-0.018
-714.733	120.523	0.087	0.109
-713.718	7.925	-0.194	-0.147
-712.704	420.656	0.055	-0.119
-711.689	-117.684	-0.112	0.020
-710.675	-134.236	-0.076	-0.009
-709.660	52.835	-0.104	0.100
-708.645	181.537	0.188	-0.279
-707.631	-1.568	-0.210	-0.149
-706.616	-200.000	-0.019	-0.166
-705.602	-47.982	-0.277	-0.135
-704.587	89.685	0.036	0.040
-703.572	19.848	0.081	0.065
-702.558	800.000	-0.044	-0.170
-701.543	41.752	0.183	-0.167
-700.529	-41.079	-0.219	-0.114
-699.514	-49.517	0.066	0.032
-698.499	-200.000	-0.029	-0.238
-697.485	-54.838	-0.178	0.081
-696.470	32.366	-0.055	0.048
-695.456	71.043	-0.090	0.094
-694.441	-45.235	-0.190	0.095
-693.426	-200.000	-0.036	0.232
-692.412	126.971	-0.137	0.175
-691.397	12.581	0.320	-0.249
-690.383	800.000	0.026	-0.109
-689.368	-176.752	-0.292	0.007
-688.354	250.346	-0.141	0.241
-687.339	800.000	-0.073	-0.215
-686.324	21.203	-0.422	-0.346
-685.310	-124.179	-0.135	0.021
-684.295	454.498	-0.134	-0.300
-683.281	89.511	-0.183	-0.206
-682.266	337.492	-0.049	-0.095
-681.251	-200.000	0.013	-0.068
-680.237	-200.000	0.001	0.214
-679.222	-41.913	-0.235	0.121
-678.208	-147.946	-0.188	-0.016
-677.193	800.000	0.037	0.138
-676.178	-200.000	0.009	0.292
-675.164	-48.161	0.046	0.022
-674.149	-57.876	-0.178	-0.078
-673.135	187.284	0.142	-0.213
-672.120	183.837	0.109	-0.163
-671.105	-42.329	-0.093	0.048
-670.091	-95.990	0.049	0.013
-669.076	-114.724	-0.160	0.031
-668.062	-111.703	-0.408	-0.083
-667.047	353.755	-0.067	0.134
-666.032	-58.119	-0.215	-0.094
-665.018	-200.000	0.025	0.150
-664.003	-200.000	0.044	-0.268
-662.989	113.581	0.168	-0.205
-661.974	134.845	0.037	0.048
-660.959	273.437	0.131	0.234
-659.945	-109.131	0.182	0.039
-658.930	-19.354	-0.224	0.140
-657.916	-153.961	0.237	0.016
-656.901	-153.155	0.247	0.017
-655.886	105.935	0.061	0.073
-654.872	-22.980	-0.175	-0.106
-653.857	-87.970	-0.161	0.049
-652.843	-36.564	-0.180	-0.097
-651.828	506.328	-0.179	-0.418
-650.814	-200.000	-0.018	-0.187
-649.799	478.404	0.138	-0.315
-648.784	7.097	-0.145	0.109
-647.770	-66.052	0.074	-0.030
-646.755	-110.595	0.063	-0.013
-645.741	38.827	0.257	0.231
-644.726	128.492	-0.105	-0.135
-643.711	-200.000	0.060	0.285
-642.697	37.039	0.153	-0.136
-641.682	-63.227	-0.100	-0.041
-640.668	800.000	0.055	-0.205
-639.653	-33.169	-0.285	0.159
-638.638	146.179	0.084	-0.114
-637.624	-160.702	-0.148	-0.008
-636.609	26.620	-0.126	-0.106
-635.595	-200.000	-0.018	0.168
-634.580	800.000	0.108	-0.376
-633.565	-200.000	-0.039	-0.197
-632.551	70.069	-0.199	-0.207
-631.536	197.304	0.191	-0.294
-630.522	-7.801	0.200	-0.136
-629.507	-18.823	-0.145	-0.091
-628.492	-3.884	0.321	0.224
-627.478	506.665	-0.133	-0.310
-626.463	-200.000	0.005	0.186
-625.449	-171.728	-0.325	-0.011
-624.434	-200.000	0.015	0.259
-623.419	173.138	-0.092	0.133
-622.405	26.216	0.163	0.136
-621.390	-60.237	0.131	-0.056
-620.376	-200.000	-0.036	0.221
-619.361	-200.000	-0.007	-0.189
-618.346	51.293	-0.045	-0.043
-617.332	-142.874	-0.321	0.031
-616.317	343.975	0.004	-0.007
-615.303	6.335	-0.172	0.128
-614.288	800.000	0.035	0.135
-613.273	106.435	0.130	-0.155
-612.259	32.661	-0.083	-0.072
-611.244	121.735	0.204	-0.256
-610.230	-52.021	-0.251	-0.117
-609.215	800.000	-0.042	0.174
-608.201	-151.693	-0.195	0.014
-607.186	141.386	-0.151	0.201
-606.171	-24.189	-0.200	0.120
-605.157	-135.373	-0.024	-0.003
-604.142	564.195	0.040	-0.098
-603.128	375.660	0.145	0.298
-602.113	-105.171	-0.235	-0.054
-601.098	-200.000	-0.044	-0.220
-600.084	800.000	0.031	0.123
-599.069	796.116	0.048	-0.132
-598.055	136.964	0.121	0.158
-597.040	-105.810	-0.153	-0.035
-596.025	90.597	-0.142	0.159
-595.011	-53.445	-0.076	0.035
-593.996	-169.009	0.168	0.006
-592.982	-105.005	-0.245	0.056
-591.967	-200.000	0.010	-0.124
-590.952	367.189	0.185	0.375
-589.938	7.033	-0.163	-0.122
-588.923	800.000	-0.053	0.190
-587.909	33.406	-0.122	0.107
-586.894	-200.000	0.017	0.146
-585.879	-200.000	0.006	0.272
-584.865	800.000	-0.067	-0.239
-583.850	791.955	0.038	-0.106
-582.836	181.549	0.142	-0.210
-581.821	17.140	-0.049	0.039
-580.806	-104.195	0.344	0.080
-579.792	66.726	0.238	0.243
-578.777	171.512	0.011	-0.016
-577.763	-190.775	0.231	0.002
-576.748	39.280	0.215	0.193
-575.733	117.407	-0.115	0.142
-574.719	-178.790	0.393	0.009
-573.704	344.616	-0.093	-0.183
-572.690	800.000	-0.062	0.191
-571.675	136.863	-0.136	0.178
-570.661	116.801	0.231	-0.284
-569.646	-170.366	0.208	-0.007
-568.631	-61.709	0.334	0.140
-567.617	402.286	0.076	0.160
-566.602	238.809	-0.047	0.079
-565.588	-89.068	0.042	-0.013
-564.573	-139.713	-0.316	-0.034
-563.558	144.580	0.155	-0.208
-562.544	-114.508	0.180	-0.035
-561.529	-87.768	0.312	-0.094
-560.515	-200.000	0.026	0.210
-559.500	-49.995	-0.067	0.032
-558.485	-53.697	-0.173	0.079
-557.471	89.188	0.098	0.109
-556.456	225.761	-0.143	-0.233
-555.442	-200.000	0.034	-0.228
-554.427	183.992	0.083	0.124
-553.412	576.349	-0.082	-0.202
-552.398	216.734	-0.071	-0.114
-551.383	-24.529	-0.306	-0.183
-550.369	140.945	0.084	-0.112
-549.354	800.000	-0.049	-0.145
-548.339	-38.050	-0.142	-0.075
-547.325	800.000	-0.007	-0.022
-546.310	82.707	-0.219	0.238
-545.296	-110.673	0.131	-0.027
-544.281	98.594	0.071	-0.082
-543.266	68.288	0.112	0.115
-542.252	-200.000	0.018	0.151
-541.237	-16.872	-0.148	-0.093
-540.223	125.283	0.217	-0.274
-539.208	79.055	0.203	0.218
-538.193	-200.000	0.025	0.154
-537.179	-73.202	0.082	-0.030
-536.164	-141.731	-0.190	0.019
-535.150	-130.293	0.074	0.010
-534.135	-200.000	0.018	0.089
-533.121	800.000	-0.064	0.196
-532.106	-34.459	0.290	0.159
-531.091	800.000	0.022	0.070
-530.077	-69.096	0.219	0.085
-529.062	-119.713	-0.103	0.018
-528.048	800.000	0.054	-0.219
-527.033	92.391	0.021	0.023
-526.018	199.866	0.190	0.292
-525.004	-93.467	-0.105	0.029
-523.989	114.529	0.228	-0.279
-522.975	461.678	-0.125	0.279
-521.960	-200.000	0.058	-0.482
-520.945	27.364	0.041	-0.035
-519.931	-34.752	0.240	-0.132
-518.916	144.049	0.148	-0.198
-517.902	-200.000	0.022	0.265
-516.887	-111.569	0.203	0.041
-515.872	609.225	-0.073	-0.183
-514.858	742.478	-0.216	0.580
-513.843	-126.220	0.264	0.040
-512.829	-200.000	0.010	-0.157
-511.814	-145.972	-0.421	0.037
-510.799	-79.498	0.211	-0.071
-509.785	338.637	0.033	0.065
-508.770	-103.959	0.054	-0.013
-507.756	418.080	0.111	0.236
-506.741	-101.419	0.310	-0.076
-505.726	80.798	-0.094	-0.101
-504.712	46.089	0.049	-0.045
-503.697	-200.000	0.012	-0.121
-502.683	-200.000	-0.010	-0.187
-501.668	-200.000	-0.012	-0.061
-500.653	619.946	0.041	0.104
-499.639	26.958	-0.098	-0.082
-498.624	-44.537	-0.294	0.147
-497.610	-200.000	-0.021	0.266
-496.595	-122.359	0.275	-0.045
-495.581	-200.000	0.022	-0.243
-494.566	8.093	0.423	-0.317
-493.551	607.678	0.065	0.163
-492.537	-122.559	-0.279	-0.045
-491.522	-46.485	0.143	-0.070
-490.508	-200.000	-0.005	0.056
-489.493	-91.249	-0.212	0.061
-488.478	9.688	0.305	-0.231
-487.464	77.708	-0.289	-0.308
-486.449	380.997	0.050	0.102
-485.435	433.069	0.073	-0.158
-484.420	-30.940	-0.037	-0.021
-483.405	482.556	0.169	0.385
-482.391	800.000	0.028	0.100
-481.376	12.744	0.247	0.191
-480.362	-32.658	-0.286	-0.159
-479.347	-23.807	0.038	-0.023
-478.332	-14.595	-0.092	-0.059
-477.318	800.000	0.081	0.234
-476.303	306.173	-0.185	0.344
-475.289	229.303	0.030	-0.049
-474.274	-180.200	0.130	-0.003
-473.259	216.703	-0.086	-0.137
-472.245	-13.848	-0.108	0.070
-471.230	-83.856	0.179	-0.057
-470.216	-27.852	0.129	0.075
-469.201	-200.000	0.009	-0.063
-468.186	-6.837	-0.135	-0.091
-467.172	-200.000	0.037	0.496
-466.157	-120.645	-0.255	0.043
-465.143	441.684	-0.024	-0.053
-464.128	-141.875	0.109	0.011
-463.113	-200.000	0.018	0.080
-462.099	-116.004	-0.168	0.031
-461.084	-200.000	-0.038	0.253
-460.070	-200.000	0.090	0.430
-459.055	-75.363	-0.147	-0.052
-458.040	-133.284	0.259	-0.033
-457.026	235.273	0.127	-0.210
-456.011	-118.151	-0.322	-0.057
-454.997	-102.738	0.077	0.018
-453.982	6.209	0.119	-0.088
-452.968	-200.000	-0.328	-0.001
-451.953	606.505	0.045	0.111
-450.938	-70.084	-0.137	-0.052
-449.924	32.915	0.176	0.152
-448.909	108.736	0.120	-0.143
-447.895	-177.458	0.172	-0.004
-446.880	158.310	-0.231	-0.320
-445.865	76.329	-0.068	0.071
-444.851	-51.325	0.251	-0.117
-443.836	36.695	-0.174	-0.154
-442.822	-8.315	-0.263	-0.176
-441.807	-35.551	0.095	0.052
-440.792	-74.553	-0.096	-0.034
-439.778	-155.835	-0.211	-0.013
-438.763	-0.521	0.187	0.132
-437.749	107.587	0.115	0.137
-436.734	-0.566	-0.315	0.223
-435.719	-31.712	-0.145	-0.081
-434.705	93.404	0.110	-0.124
-433.690	-101.629	-0.129	0.031
-432.676	14.998	-0.173	-0.136
-431.661	530.568	-0.095	-0.224
-430.646	441.745	0.080	-0.175
-429.632	800.000	0.081	-0.242
-428.617	408.870	0.061	-0.130
-427.603	-47.594	-0.415	-0.201
-426.588	3.526	-0.190	0.138
-425.573	-0.795	0.099	-0.070
-424.559	56.892	0.022	-0.021
-423.544	97.631	-0.022	0.026
-422.530	44.585	-0.069	0.063
-421.515	269.814	0.193	0.338
-420.500	31.766	-0.232	-0.200
-419.486	-65.672	0.220	-0.088
-418.471	29.751	0.224	0.190
-417.457	-122.770	-0.311	-0.050
-416.442	-18.179	-0.191	0.119
-415.428	-200.000	0.028	-0.138
-414.413	-3.995	-0.283	-0.196
-413.398	-200.000	0.025	-0.127
-412.384	-63.250	-0.428	-0.176
-411.369	-142.568	0.087	-0.009
-410.355	74.912	-0.069	0.072
-409.340	357.028	-0.100	-0.199
-408.325	130.651	0.132	-0.168
-407.311	93.015	0.095	-0.107
-406.296	42.103	-0.257	0.233
-405.282	96.861	0.137	-0.157
-404.267	-126.342	-0.161	-0.024
-403.252	87.905	-0.277	-0.306
-402.238	-151.759	-0.493	0.036
-401.223	-139.836	0.168	0.018
-400.209	-145.873	0.158	-0.014
-399.194	70.002	-0.379	0.390
-398.179	-100.084	0.105	-0.026
-397.165	-200.000	-0.027	0.163
-396.150	126.673	-0.063	-0.079
-395.136	-136.941	-0.159	-0.018
-394.121	-24.727	0.287	-0.170
-393.106	-39.492	0.217	0.113
-392.092	-130.824	-0.324	-0.043
-391.077	566.313	-0.033	-0.080
-390.063	-36.916	-0.238	0.127
-389.048	-200.000	0.027	0.434
-388.033	-70.719	-0.141	0.053
-387.019	466.620	-0.084	-0.188
-386.004	-84.164	0.140	-0.044
-384.990	408.600	-0.141	-0.298
-383.975	44.511	-0.213	-0.195
-382.960	800.000	-0.078	-0.239
-381.946	-73.738	0.367	0.133
-380.931	33.177	-0.356	0.308
-379.917	-69.280	-0.252	-0.096
-378.902	-200.000	-0.079	-0.523
-377.888	-44.175	-0.357	0.178
-376.873	67.359	-0.084	-0.085
-375.858	-59.572	-0.299	-0.128
-374.844	-24.074	0.080	-0.047
-373.829	800.000	0.066	0.208
-372.815	48.585	-0.199	-0.185
-371.800	33.013	0.139	0.120
-370.785	-200.000	0.010	0.117
-369.771	-57.278	0.395	0.173
-368.756	299.900	0.131	0.241
-367.742	205.737	0.060	-0.093
-366.727	49.988	-0.250	0.234
-365.712	800.000	0.101	-0.278
-364.698	-157.372	-0.211	0.013
-363.683	-33.646	-0.254	0.140
-362.669	800.000	0.046	-0.139
-361.654	-60.549	0.345	0.146
-360.639	378.775	-0.165	-0.336
-359.625	-67.489	0.159	-0.062
-358.610	25.867	0.155	0.128
-357.596	383.197	0.074	-0.151
-356.581	172.688	-0.195	-0.279
-355.566	70.966	0.049	0.050
-354.552	-90.430	-0.395	-0.114
-353.537	-101.466	0.472	-0.114
-352.523	34.924	0.194	-0.169
-351.508	-7.044	-0.204	-0.137
-350.493	800.000	-0.058	-0.224
-349.479	-200.000	0.029	0.333
-348.464	-13.069	0.232	0.150
-347.450	416.278	0.213	0.452
-346.435	147.013	0.112	0.150
-345.420	-11.355	0.275	-0.180
-344.406	800.000	0.085	-0.331
-343.391	335.090	0.131	-0.253
-342.377	-114.117	-0.330	0.064
-341.362	-131.852	-0.140	-0.018
-340.348	45.946	0.274	0.252
-339.333	-154.705	0.284	-0.019
-338.318	-117.502	0.332	0.060
-337.304	80.336	0.044	-0.047
-336.289	-100.594	0.326	0.080
-335.275	56.506	-0.373	0.361
-334.260	-139.607	0.248	0.026
-333.245	113.255	0.025	0.030
-332.231	206.215	0.119	-0.184
-331.216	74.484	0.113	0.118
-330.202	-79.849	0.065	0.022
-329.187	96.811	0.072	0.082
-328.172	457.109	-0.061	-0.135
-327.158	289.619	-0.073	-0.132
-326.143	-200.000	-0.003	0.162
-325.129	-200.000	0.128	-0.601
-324.114	-147.642	-0.379	-0.032
-323.099	-94.940	-0.252	-0.068
-322.085	-31.890	-0.198	-0.110
-321.070	800.000	-0.088	-0.311
-320.056	50.148	-0.151	-0.141
-319.041	-200.000	-0.019	-0.183
-318.026	-200.000	-0.074	0.396
-317.012	2.237	0.138	0.099
-315.997	-200.000	-0.037	0.234
-314.983	-73.976	0.273	0.099
-313.968	-17.042	0.194	0.122
-312.953	0.857	0.324	0.231
-311.939	71.746	-0.148	0.153
-310.924	298.602	0.077	0.140
-309.910	53.489	-0.205	0.195
-308.895	131.712	0.073	-0.093
-307.880	24.060	0.168	0.138
-306.866	-200.000	-0.042	0.240
-305.851	-200.000	0.000	0.100
-304.837	712.442	-0.157	-0.412
-303.822	75.796	0.075	0.079
-302.807	-82.818	0.243	0.078
-301.793	-48.328	0.215	0.103
-300.778	-200.000	-0.005	-0.075
-299.764	44.418	-0.136	-0.124
-298.749	-98.317	-0.131	-0.033
-297.735	49.585	-0.048	-0.045
-296.720	243.798	-0.191	0.317
-295.705	20.859	0.366	0.294
-294.691	-107.120	-0.309	-0.068
-293.676	-70.033	-0.241	-0.091
-292.662	-96.185	0.172	0.045
-291.647	219.410	-0.054	-0.085
-290.632	-94.966	-0.358	0.096
-289.618	-200.000	0.040	0.226
-288.603	-94.796	0.355	-0.096
-287.589	323.772	-0.173	-0.327
-286.574	-26.228	-0.089	0.052
-285.559	-16.326	-0.196	0.123
-284.545	245.569	-0.150	-0.250
-283.530	37.814	0.110	-0.097
-282.516	-65.568	-0.273	0.109
-281.501	542.768	-0.052	-0.123
-280.486	-110.206	-0.221	0.046
-279.472	48.302	-0.120	-0.111
-278.457	-82.215	0.128	-0.041
-277.443	800.000	-0.103	-0.306
-276.428	173.363	-0.219	-0.313
-275.413	157.238	-0.023	0.032
-274.399	-69.222	0.111	-0.042
-273.384	-8.144	0.080	-0.053
-272.370	233.922	0.193	0.315
-271.355	-57.567	-0.073	-0.032
-270.340	289.007	0.181	-0.325
-269.326	-154.471	0.115	-0.008
-268.311	800.000	0.093	-0.299
-267.297	310.769	0.246	-0.457
-266.282	-55.152	-0.392	0.175
-265.267	-117.634	0.072	0.013
-264.253	-126.272	-0.049	-0.007
-263.238	-91.927	0.280	0.079
-262.224	-85.703	0.114	-0.035
-261.209	-97.045	0.193	-0.050
-260.195	309.081	-0.105	-0.194
-259.180	681.778	0.026	-0.067
-258.165	-99.350	-0.297	-0.074
-257.151	-200.000	-0.002	-0.107
-256.136	693.779	0.034	-0.088
-255.122	-125.015	-0.086	0.013
-254.107	-46.155	-0.302	-0.147
-253.092	-187.032	-0.419	0.006
-252.078	-34.061	0.241	0.131
-251.063	73.142	-0.175	0.181
-250.049	800.000	-0.062	0.194
-249.034	132.928	0.060	0.076
-248.019	-120.349	0.170	0.029
-247.005	-166.461	0.252	-0.010
-245.990	-56.536	0.257	0.113
-244.976	91.300	-0.188	0.209
-243.961	5.781	0.238	-0.175
-242.946	-200.000	0.014	-0.210
-241.932	123.222	0.123	-0.153
-240.917	-121.523	0.295	0.049
-239.903	399.437	0.048	-0.100
-238.888	670.060	-0.087	-0.222
-237.873	-35.976	-0.259	0.139
-236.859	-52.515	0.062	0.028
-235.844	800.000	0.091	0.286
-234.830	133.540	-0.119	0.152
-233.815	-59.598	0.061	-0.026
-232.800	144.465	-0.024	-0.032
-231.786	44.467	-0.121	-0.110
-230.771	641.153	0.071	-0.180
-229.757	-140.652	-0.115	-0.012
-228.742	123.260	-0.019	0.023
-227.727	104.828	0.086	0.101
-226.713	-26.669	-0.153	0.089
-225.698	-189.879	0.352	0.004
-224.684	80.305	0.213	-0.227
-223.669	20.114	0.101	0.080
-222.655	-200.000	-0.005	-0.142
-221.640	740.455	0.041	0.108
-220.625	60.307	0.381	0.373
-219.611	-93.147	0.403	0.111
-218.596	-63.421	-0.065	0.026
-217.582	-129.321	-0.254	-0.035
-216.567	-153.936	-0.069	-0.005
-215.552	-200.000	-0.013	0.187
-214.538	800.000	-0.056	-0.179
-213.523	-142.775	-0.222	0.021
-212.509	-154.456	-0.238	0.016
-211.494	-200.000	-0.034	0.294
-210.479	-200.000	0.007	-0.147
-209.465	50.251	-0.253	0.236
-208.450	-65.835	0.256	0.101
-207.436	114.819	-0.060	-0.072
-206.421	-113.167	0.084	-0.016
-205.406	-131.339	0.324	0.042
-204.392	-20.895	0.179	0.108
-203.377	64.443	0.088	-0.088
-202.363	-77.471	-0.153	0.053
-201.348	-200.000	-0.012	0.147
-200.333	-66.131	0.196	0.077
-199.319	-17.275	0.052	-0.032
-198.304	-108.282	0.237	-0.051
-197.290	128.936	0.131	-0.165
-196.275	633.714	0.099	0.249
-195.260	54.075	-0.264	0.251
-194.246	-158.510	-0.232	-0.013
-193.231	-200.000	0.001	-0.410
-192.217	-200.000	-0.022	-0.248
-191.202	-200.000	0.016	-0.114
-190.187	800.000	-0.019	0.080
-189.173	32.546	0.058	0.049
-188.158	-0.708	-0.139	-0.097
-187.144	-12.284	-0.277	-0.179
-186.129	299.284	0.018	0.032
-185.114	-86.587	-0.389	0.118
-184.100	-16.002	0.260	0.164
-183.085	65.277	0.211	-0.211
-182.071	39.153	0.355	0.313
-181.056	80.860	0.203	0.217
-180.042	47.906	0.177	0.163
-179.027	-200.000	0.031	0.138
-178.012	63.186	0.091	-0.090
-176.998	-83.071	0.184	0.058
-175.983	-152.829	-0.335	-0.023
-174.969	800.000	-0.059	-0.196
-173.954	90.701	0.107	0.119
-172.939	-66.868	0.444	-0.173
-171.925	28.543	0.054	-0.045
-170.910	-72.188	-0.344	-0.126
-169.896	-23.614	-0.141	0.084
-168.881	-3.351	-0.070	0.048
-167.866	194.379	-0.003	0.005
-166.852	163.449	0.245	0.340
-165.837	33.970	-0.189	0.163
-164.823	-24.050	0.116	0.069
-163.808	-113.266	0.161	-0.031
-162.793	800.000	-0.082	0.311
-161.779	-62.215	0.149	0.061
-160.764	-42.264	-0.187	0.094
-159.750	-190.094	-0.304	0.003
-158.735	-171.597	-0.261	-0.009
-157.720	-200.000	-0.001	-0.137
-156.706	-130.780	0.223	-0.030
-155.691	0.972	-0.054	0.038
-154.677	-176.723	0.145	0.004
-153.662	78.251	-0.225	0.237
-152.647	17.369	-0.273	0.214
-151.633	151.460	0.065	-0.088
-150.618	-167.317	0.163	0.006
-149.604	35.071	-0.249	-0.215
-148.589	-200.000	0.026	0.208
-147.574	-5.905	0.038	0.026
-146.560	94.664	-0.184	0.206
-145.545	10.058	0.240	0.180
-144.531	-200.000	0.019	0.116
-143.516	-15.474	-0.223	0.141
-142.502	24.831	0.278	-0.227
-141.487	227.304	-0.167	0.268
-140.472	27.224	-0.125	-0.104
-139.458	69.037	0.163	0.165
-138.443	30.991	0.152	0.129
-137.429	800.000	-0.108	0.393
-136.414	-200.000	-0.006	-0.141
-135.399	-200.000	-0.020	0.095
-134.385	-23.349	0.422	-0.250
-133.370	-95.365	0.152	-0.040
-132.356	208.072	-0.034	0.053
-131.341	0.721	-0.090	-0.064
-130.326	79.215	-0.099	-0.105
-129.312	-126.854	-0.234	0.034
-128.297	-200.000	0.012	0.221
-127.283	800.000	-0.098	0.297
-126.268	181.808	0.079	-0.115
-125.253	-35.783	0.150	0.080
-124.239	-200.000	-0.002	0.132
-123.224	292.627	0.085	-0.153
-122.210	-4.896	-0.322	0.218
-121.195	-55.753	-0.173	-0.076
-120.180	800.000	-0.012	-0.040
-119.166	-60.731	-0.136	0.057
-118.151	-200.000	-0.010	-0.090
-117.137	-200.000	-0.028	-0.383
-116.122	800.000	-0.058	-0.218
-115.107	452.980	-0.104	-0.227
-114.093	800.000	0.035	0.099
-113.078	298.749	0.174	0.316
-112.064	-132.804	0.377	0.047
-111.049	61.750	-0.141	-0.139
-110.034	69.835	0.008	-0.008
-109.020	189.870	-0.167	0.247
-108.005	-161.062	0.314	-0.016
-106.991	156.695	0.094	-0.127
-105.976	405.805	-0.056	-0.116
-104.962	2.371	0.174	0.124
-103.947	-187.190	-0.261	0.004
-102.932	-100.900	0.132	0.032
-101.918	356.202	-0.082	0.162
-100.903	-200.000	-0.054	0.000
-99.889	190.949	-0.134	-0.198
-98.874	-200.000	-0.031	-0.162
-97.859	800.000	0.078	0.241
-96.845	561.404	-0.115	0.274
-95.830	177.921	-0.089	0.128
-94.816	-64.647	-0.042	0.017
-93.801	-89.311	0.264	-0.077
-92.786	-174.443	-0.239	0.007
-91.772	-200.000	0.005	-0.195
-90.757	-86.988	0.262	-0.079
-89.743	800.000	0.051	-0.181
-88.728	-200.000	-0.016	-0.072
-87.713	261.449	0.170	0.289
-86.699	-107.818	-0.188	0.040
-85.684	-200.000	0.032	-0.149
-84.670	133.365	0.191	-0.244
-83.655	-72.163	-0.144	-0.053
-82.640	64.521	0.281	-0.279
-81.626	32.225	0.109	0.093
-80.611	-180.769	-0.137	0.003
-79.597	207.542	0.087	-0.134
-78.582	-152.525	0.060	0.004
-77.567	-24.600	-0.358	0.210
-76.553	-160.236	-0.179	-0.010
-75.538	-22.362	-0.297	-0.177
-74.524	-200.000	0.065	-0.331
-73.509	-60.057	-0.142	-0.060
-72.494	44.588	0.118	-0.107
-71.480	-29.855	0.022	0.012
-70.465	-200.000	0.003	-0.101
-69.451	-83.075	-0.041	0.013
-68.436	-200.000	0.022	0.282
-67.422	-200.000	-0.027	-0.466
-66.407	192.776	-0.255	-0.380
-65.392	-200.000	0.003	0.103
-64.378	220.709	-0.065	0.102
-63.363	-142.773	0.058	0.006
-62.349	-74.250	0.203	0.072
-61.334	258.524	-0.800	-1.356
-60.319	77.923	0.696	0.730
-59.305	-200.000	-0.215	-1.130
-58.290	209.835	0.573	0.883
-57.276	579.697	0.760	1.830
-56.261	-200.000	116.751	650.941
-55.246	503.497	1539.810	3501.410
-54.232	171.891	2720.122	3842.304
-53.217	96.192	2332.210	2621.235
-52.203	33.024	2076.485	1768.758
-51.188	28.365	1991.021	1653.953
-50.173	27.033	1974.398	1628.147
-49.159	44.418	2034.459	1836.506
-48.144	43.276	2049.044	1839.190
-47.130	28.810	2008.119	1671.940
-46.115	26.599	1998.022	1643.429
-45.100	26.608	1994.899	1640.874
-44.086	26.476	1992.427	1637.581
-43.071	26.463	1989.780	1635.223
-42.057	26.421	1987.481	1632.888
-41.042	26.466	1985.575	1631.664
-40.027	26.403	1984.044	1629.776
-39.013	26.470	1981.634	1628.329
-37.998	26.412	1980.804	1627.067
-36.984	26.493	1978.575	1625.893
-35.969	26.450	1976.769	1623.958
-34.954	26.432	1974.780	1622.104
-33.940	26.403	1973.557	1620.771
-32.925	26.517	1972.245	1620.653
-31.911	26.612	1970.185	1619.740
-30.896	26.587	1968.259	1617.874
-29.881	26.594	1967.020	1616.853
-28.867	26.675	1964.908	1615.780
-27.852	26.651	1963.327	1614.196
-26.838	26.608	1961.581	1612.311
-25.823	26.559	1959.947	1610.469
-24.809	26.663	1958.042	1609.769
-23.794	26.632	1955.794	1607.581
-22.779	26.613	1954.212	1606.051
-21.765	26.642	1952.736	1605.028
-20.750	26.585	1951.415	1603.377
-19.736	26.616	1949.518	1602.027
-18.721	26.652	1948.233	1601.224
-17.706	26.594	1946.124	1598.914
-16.692	26.554	1944.521	1597.181
-15.677	26.453	1943.466	1595.362
-14.663	26.610	1941.624	1595.166
-13.648	26.654	1940.776	1594.793
-12.633	26.645	1939.218	1593.377
-11.619	26.539	1937.837	1591.241
-10.604	26.582	1936.451	1590.416
-9.590	26.520	1935.445	1588.983
-8.575	26.556	1933.951	1588.016
-7.560	26.586	1932.879	1587.334
-6.546	26.643	1931.299	1586.471
-5.531	26.551	1930.165	1584.672
-4.517	26.542	1929.138	1583.685
-3.502	26.558	1927.648	1582.545
-2.487	26.589	1926.585	1581.874
-1.473	26.624	1925.119	1580.913
-0.458	26.619	1920.520	1577.034
0.556	27.391	1900.667	1549.409
1.571	23.277	1882.527	1499.724
2.586	19.403	1906.810	1485.632
3.600	18.498	1942.173	1505.111
4.615	18.117	1935.209	1496.248
5.629	13.758	1833.658	1381.383
6.644	6.567	1720.032	1239.320
7.659	3.495	1687.443	1192.016
8.673	3.206	1685.017	1187.967
9.688	3.248	1682.916	1186.703
10.702	3.244	1682.147	1186.026
11.717	3.282	1678.679	1183.771
12.731	3.651	1677.306	1185.529
13.746	8.488	1689.235	1231.188
14.761	16.071	1705.399	1301.614
15.775	20.005	1712.142	1337.078
16.790	20.240	1711.667	1338.407
17.804	19.296	1708.540	1328.568
18.819	18.371	1704.884	1318.491
19.834	17.736	1702.779	1311.863
20.848	17.548	1701.528	1309.334
21.863	17.456	1699.916	1307.274
22.877	17.114	1699.192	1303.978
23.892	16.990	1697.459	1301.577
24.907	16.959	1696.283	1300.319
25.921	16.942	1694.760	1298.909
26.936	16.902	1694.364	1298.187
27.950	17.049	1693.114	1298.235
28.965	16.925	1693.162	1297.214
29.980	17.087	1691.600	1297.139
30.994	17.107	1690.938	1296.667
32.009	17.184	1689.763	1296.237
33.023	17.278	1688.820	1296.120
34.038	17.334	1687.842	1295.678
35.053	17.267	1686.857	1294.302
36.067	17.053	1685.837	1291.773
37.082	17.127	1684.294	1291.041
38.096	17.100	1683.253	1289.923
39.111	17.100	1683.109	1289.696
40.126	17.131	1682.304	1289.200
41.140	17.203	1681.041	1288.668
42.155	16.993	1679.242	1285.581
43.169	16.806	1678.267	1283.303
44.184	16.764	1676.727	1281.692
45.199	16.723	1675.409	1280.265
46.213	16.742	1674.286	1279.441
47.228	16.699	1673.198	1278.167
48.242	16.832	1672.248	1278.334
49.257	16.988	1671.130	1278.538
50.271	17.018	1669.724	1277.579
51.286	17.039	1668.479	1276.670
52.301	17.007	1667.273	1275.391
53.315	17.027	1666.177	1274.595
54.330	17.020	1664.311	1272.998
55.344	16.889	1662.637	1270.622
56.359	16.870	1661.285	1269.339
57.374	16.816	1660.328	1268.091
58.388	16.790	1659.263	1266.970
59.403	16.830	1657.420	1265.747
60.417	16.833	1655.706	1264.349
61.432	16.624	1655.109	1262.225
62.447	16.755	1653.574	1261.915
63.461	16.650	1652.894	1260.506
64.476	16.582	1651.766	1259.025
65.490	16.548	1650.460	1257.670
66.505	16.583	1649.045	1256.736
67.520	16.521	1648.403	1255.677
68.534	16.672	1647.187	1255.764
69.549	16.613	1645.902	1254.235
70.563	16.693	1644.305	1253.495
71.578	16.648	1643.093	1252.128
72.593	16.560	1642.292	1250.756
73.607	16.511	1641.375	1249.588
74.622	16.423	1640.341	1248.042
75.636	16.402	1639.388	1247.046
76.651	16.459	1639.011	1247.072
77.666	16.564	1637.628	1246.679
78.680	16.460	1637.000	1245.328
79.695	16.526	1635.912	1244.878
80.709	16.603	1635.129	1244.737
81.724	16.626	1634.301	1244.161
82.739	16.734	1633.941	1244.574
83.753	16.906	1632.464	1244.604
84.768	16.873	1631.829	1243.769
85.782	17.027	1631.301	1244.380
86.797	17.084	1630.580	1244.138
87.812	17.139	1629.852	1243.881
88.826	17.130	1627.939	1242.244
89.841	16.977	1626.786	1240.135
90.855	17.024	1625.735	1239.563
91.870	17.027	1625.224	1239.086
92.884	17.170	1623.645	1238.818
93.899	17.224	1622.625	1238.325
94.914	17.184	1621.572	1237.121
95.928	17.206	1620.698	1236.503
96.943	17.234	1619.414	1235.616
97.957	17.243	1617.577	1234.171
98.972	17.131	1616.389	1232.346
99.987	17.054	1615.068	1230.666
101.001	17.150	1612.973	1229.657
102.016	17.133	1611.718	1228.471
103.030	17.058	1610.675	1227.026
104.045	17.071	1609.730	1226.289
105.060	17.144	1608.147	1225.502
106.074	16.999	1606.810	1223.331
107.089	16.966	1604.639	1221.333
108.103	16.741	1602.995	1218.350
109.118	16.588	1601.745	1216.194
110.133	16.582	1600.081	1214.781
111.147	16.588	1598.933	1213.845
112.162	16.676	1597.651	1213.396
113.176	16.585	1596.018	1211.394
114.191	16.741	1594.566	1211.300
115.206	16.795	1593.433	1210.724
116.220	16.757	1591.978	1209.236
117.235	16.740	1590.828	1208.133
118.249	16.738	1589.497	1207.004
119.264	16.758	1588.513	1206.291
120.279	16.580	1587.014	1203.780
121.293	16.558	1585.944	1202.707
122.308	16.582	1583.690	1201.059
123.322	16.562	1581.542	1199.186
124.337	16.504	1580.313	1197.733
125.352	16.473	1579.443	1196.749
126.366	16.436	1578.523	1195.685
127.381	16.439	1577.403	1194.751
128.395	16.538	1576.087	1194.349
129.410	16.414	1574.674	1192.301
130.424	16.488	1573.601	1191.898
131.439	16.531	1572.087	1190.951
132.454	16.618	1571.069	1190.687
133.468	16.716	1569.291	1189.921
134.483	16.679	1568.561	1189.008
135.497	16.760	1566.744	1188.094
136.512	16.776	1565.585	1187.220
137.527	16.739	1564.067	1185.706
138.541	16.726	1563.246	1184.888
139.556	16.825	1561.377	1184.055
140.570	16.859	1560.086	1183.211
141.585	16.904	1558.839	1182.472
142.600	16.967	1558.167	1182.300
143.614	17.029	1556.817	1181.600
144.629	17.190	1555.932	1181.943
145.643	17.192	1554.734	1180.941
146.658	17.274	1552.903	1180.018
147.673	17.141	1551.726	1178.099
148.687	17.032	1549.691	1175.689
149.702	17.043	1548.021	1174.396
150.716	16.948	1546.197	1172.256
151.731	16.791	1545.493	1170.533
152.746	16.936	1543.725	1170.091
153.760	16.987	1542.528	1169.430
154.775	16.847	1541.946	1167.921
155.789	17.072	1540.185	1168.033
156.804	17.075	1539.436	1167.382
157.819	17.131	1537.920	1166.511
158.833	17.078	1536.770	1165.174
159.848	17.233	1535.469	1165.145
160.862	17.260	1534.706	1164.651
161.877	17.328	1533.162	1163.840
162.892	17.258	1531.910	1162.311
163.906	17.067	1530.449	1159.789
164.921	16.922	1529.220	1157.768
165.935	16.960	1528.487	1157.372
166.950	16.969	1527.375	1156.485
167.964	17.015	1525.863	1155.553
168.979	17.045	1525.415	1155.319
169.994	17.121	1523.770	1154.484
171.008	17.057	1522.422	1152.929
172.023	17.053	1522.133	1152.580
173.037	17.108	1520.811	1151.850
174.052	17.289	1519.472	1151.958
175.067	17.179	1519.062	1150.800
176.081	17.122	1517.311	1148.986
177.096	17.067	1515.331	1147.012
178.110	16.940	1514.830	1145.675
179.125	16.986	1513.225	1144.670
180.140	17.012	1512.379	1144.104
181.154	17.175	1511.347	1144.323
182.169	17.217	1509.981	1143.468
183.183	17.136	1509.325	1142.326
184.198	17.314	1508.167	1142.541
185.213	17.341	1507.267	1141.943
186.227	17.369	1506.290	1141.292
187.242	17.425	1505.074	1140.645
188.256	17.403	1504.068	1139.633
189.271	17.485	1503.279	1139.481
190.286	17.523	1502.569	1139.097
191.300	17.441	1501.418	1137.574
192.315	17.142	1499.718	1134.187
193.329	16.955	1497.678	1131.303
194.344	16.927	1497.301	1130.729
195.359	17.038	1495.638	1130.110
196.373	17.171	1494.904	1130.342
197.388	17.187	1494.535	1130.067
198.402	17.374	1492.791	1129.896
199.417	17.486	1491.766	1129.760
200.432	17.565	1491.481	1129.967
201.446	17.672	1490.652	1129.951
202.461	17.753	1489.665	1129.640
203.475	17.774	1488.474	1128.774
204.490	17.740	1487.424	1127.655
205.504	17.647	1486.702	1126.392
206.519	17.552	1485.281	1124.589
207.534	17.572	1483.672	1123.400
208.548	17.439	1482.976	1121.898
209.563	17.533	1481.489	1121.292
210.577	17.494	1480.739	1120.372
211.592	17.576	1479.727	1120.044
212.607	17.627	1478.825	1119.601
213.621	17.695	1478.747	1119.885
214.636	17.783	1477.889	1119.714
215.650	17.682	1477.129	1118.377
216.665	17.675	1476.253	1117.568
217.680	17.733	1475.602	1117.360
218.694	17.885	1474.613	1117.506
219.709	17.914	1473.789	1116.969
220.723	17.889	1472.885	1116.023
221.738	17.856	1471.583	1114.727
222.753	17.823	1471.166	1114.097
223.767	17.782	1469.770	1112.669
224.782	17.812	1469.141	1112.295
225.796	17.904	1467.849	1111.816
226.811	18.042	1467.246	1112.159
227.826	17.937	1467.098	1111.266
228.840	17.926	1466.025	1110.280
229.855	17.931	1464.164	1108.804
230.869	17.830	1463.508	1107.557
231.884	17.901	1462.737	1107.334
232.899	17.839	1461.136	1105.625
233.913	17.754	1459.815	1103.973
234.928	17.632	1458.454	1102.060
235.942	17.707	1457.733	1101.903
236.957	17.681	1456.222	1100.497
237.972	17.619	1455.361	1099.344
238.986	17.570	1454.104	1097.982
240.001	17.776	1452.782	1098.217
241.015	17.690	1451.769	1096.798
242.030	17.858	1450.705	1096.979
243.045	17.799	1450.190	1096.114
244.059	17.828	1449.001	1095.304
245.074	17.912	1447.823	1094.856
246.088	18.022	1447.142	1094.950
247.103	18.001	1446.934	1094.558
248.117	18.028	1446.437	1094.262
249.132	18.162	1444.835	1093.806
250.147	18.225	1444.541	1093.889
251.161	18.340	1444.571	1094.554
252.176	18.441	1443.924	1094.611
253.190	18.511	1443.228	1094.432
254.205	18.486	1442.188	1093.385
255.220	18.555	1441.605	1093.288
256.234	18.677	1440.694	1093.279
257.249	18.587	1439.568	1091.757
258.263	18.673	1438.439	1091.350
259.278	18.609	1437.594	1090.204
260.293	18.622	1436.492	1089.355
261.307	18.544	1436.282	1088.606
262.322	18.655	1435.789	1088.838
263.336	18.745	1434.718	1088.499
264.351	18.823	1432.757	1087.406
265.366	18.821	1432.395	1087.028
266.380	18.844	1431.599	1086.472
267.395	18.831	1430.573	1085.516
268.409	18.839	1429.766	1084.855
269.424	18.726	1428.922	1083.405
270.439	18.633	1427.700	1081.800
271.453	18.635	1426.665	1080.931
272.468	18.701	1425.356	1080.257
273.482	18.682	1424.789	1079.614
274.497	18.599	1423.809	1078.255
275.512	18.532	1422.706	1076.903
276.526	18.678	1421.633	1076.907
277.541	18.633	1420.849	1075.940
278.555	18.614	1420.394	1075.383
279.570	18.631	1419.427	1074.659
280.585	18.608	1418.671	1073.846
281.599	18.882	1417.665	1074.703
282.614	18.844	1416.772	1073.695
283.628	18.915	1415.341	1072.962
284.643	18.751	1414.927	1071.525
285.657	18.776	1413.531	1070.532
286.672	18.758	1412.441	1069.497
287.687	18.760	1411.686	1068.842
288.701	18.797	1410.824	1068.326
289.716	18.734	1409.953	1067.183
290.730	18.809	1409.195	1066.983
291.745	18.905	1407.829	1066.444
292.760	18.865	1407.135	1065.582
293.774	18.907	1405.864	1064.783
294.789	18.843	1405.148	1063.750
295.803	18.971	1404.664	1064.082
296.818	19.006	1403.867	1063.599
297.833	19.036	1402.276	1062.485
298.847	18.942	1401.406	1061.154
299.862	18.869	1400.493	1059.916
300.876	18.906	1399.344	1059.178
301.891	18.912	1398.757	1058.681
302.906	18.964	1398.043	1058.365
303.920	19.082	1397.580	1058.649
304.935	19.139	1396.445	1058.042
305.949	19.129	1395.892	1057.471
306.964	19.237	1395.082	1057.426
307.979	19.369	1393.831	1057.196
308.993	19.225	1393.296	1055.812
310.008	19.137	1392.512	1054.588
311.022	19.202	1391.208	1053.905
312.037	19.325	1389.925	1053.591
313.052	19.279	1389.006	1052.518
314.066	19.192	1388.190	1051.273
315.081	19.129	1386.807	1049.753
316.095	19.104	1385.764	1048.717
317.110	18.980	1384.704	1047.069
318.125	19.034	1383.444	1046.349
319.139	19.059	1382.865	1045.970
320.154	19.125	1381.594	1045.318
321.168	19.010	1380.944	1044.037
322.183	19.022	1380.418	1043.621
323.197	18.919	1379.093	1041.903
324.212	19.091	1378.165	1042.146
325.227	19.114	1377.359	1041.587
326.241	19.118	1376.347	1040.756
327.256	19.150	1375.624	1040.309
328.270	19.117	1375.055	1039.584
329.285	19.097	1373.882	1038.487
330.300	19.160	1372.459	1037.698
331.314	19.118	1371.831	1036.882
332.329	19.073	1370.766	1035.714
333.343	19.150	1369.866	1035.404
334.358	19.064	1369.802	1034.747
335.373	19.233	1368.377	1034.593
336.387	19.440	1367.422	1035.022
337.402	19.352	1367.200	1034.232
338.416	19.252	1366.693	1033.159
339.431	19.446	1365.683	1033.469
340.446	19.372	1365.315	1032.655
341.460	19.532	1364.233	1032.701
342.475	19.703	1363.345	1032.957
343.489	19.736	1362.771	1032.630
344.504	19.730	1361.416	1031.473
345.519	19.833	1360.755	1031.501
346.533	19.770	1359.589	1030.145
347.548	19.772	1359.140	1029.729
348.562	19.863	1357.868	1029.216
349.577	19.887	1357.338	1028.868
350.592	19.853	1356.844	1028.194
351.606	19.632	1355.563	1025.825
352.621	19.584	1353.845	1024.146
353.635	19.522	1352.790	1022.890
354.650	19.531	1351.597	1021.951
355.665	19.514	1351.114	1021.396
356.679	19.477	1350.494	1020.619
357.694	19.613	1349.255	1020.396
358.708	19.653	1348.472	1019.948
359.723	19.805	1346.721	1019.430
360.738	19.845	1345.853	1018.918
361.752	19.630	1345.065	1016.967
362.767	19.721	1343.915	1016.541
363.781	19.839	1342.894	1016.374
364.796	19.829	1341.848	1015.431
365.810	19.779	1342.032	1015.187
366.825	19.946	1341.018	1015.314
367.840	20.080	1340.386	1015.529
368.854	20.144	1339.950	1015.484
369.869	20.223	1339.012	1015.145
370.883	20.253	1338.509	1014.851
371.898	20.187	1337.900	1013.914
372.913	20.102	1336.917	1012.578
373.927	20.095	1335.989	1011.744
374.942	20.139	1335.101	1011.242
375.956	20.115	1334.105	1010.259
376.971	20.168	1333.526	1010.037
377.986	20.201	1332.420	1009.304
379.000	20.197	1331.653	1008.609
380.015	20.261	1330.928	1008.342
381.029	20.284	1330.644	1008.174
382.044	20.307	1330.252	1007.918
383.059	20.395	1329.010	1007.402
384.073	20.337	1328.306	1006.441
385.088	20.263	1327.693	1005.461
386.102	20.342	1327.198	1005.452
387.117	20.451	1326.162	1005.208
388.132	20.359	1325.231	1003.881
389.146	20.295	1324.033	1002.519
390.161	20.214	1323.498	1001.558
391.175	20.041	1323.094	1000.160
392.190	20.138	1322.072	999.861
393.205	20.166	1320.976	999.103
394.219	20.432	1319.940	999.763
395.234	20.342	1318.871	998.350
396.248	20.424	1317.581	997.753
397.263	20.322	1315.928	995.827
398.278	20.163	1315.074	994.183
399.292	20.256	1313.755	993.629
400.307	20.141	1312.642	992.046
401.321	20.054	1311.327	990.462
402.336	20.170	1310.767	990.620
403.350	20.038	1309.972	989.175
404.365	20.099	1308.841	988.583
405.380	20.236	1307.744	988.447
406.394	20.226	1307.096	987.809
407.409	20.327	1306.273	987.678
408.423	20.323	1305.679	987.115
409.438	20.502	1305.113	987.618
410.453	20.552	1304.331	987.227
411.467	20.578	1303.718	986.823
412.482	20.598	1303.191	986.449
413.496	20.670	1302.540	986.275
414.511	20.805	1301.696	986.314
415.526	20.697	1301.150	985.202
416.540	20.844	1300.465	985.427
417.555	20.842	1299.643	984.710
418.569	20.909	1299.209	984.672
419.584	20.754	1299.177	983.685
420.599	20.820	1298.103	983.155
421.613	145.590	1434.771	1796.761
422.628	140.829	1454.652	1796.842
