DTS Sentinel unit serial number:	SN413079Multiplexer serial number:	ORYXHardware model number:	OX4-SRSoftware version number:	ORYX F/W v4.00 Oryx Data Collector v3.7.2.0data status	okinstallation	princeton_trtdifferential loss correction	single-endedforward channel	channel 4reverse channel	N/Adate	2019/09/16time	06:05:35forward acquisition time	60.00reverse acquisition time	0.00gamma	496.2192k internal	0.2320k external	0.2320temperature offset calibration	0.9983default loss term (dB/km)	0.3790temperature slope calibration	1.0000multiplexer offset coefficient	1.0000multiplexer slope coefficient	1.0000fibre end	0.00T internal ref (°C)	27.44T ext. ref 1 (°C)	11.28T ext. ref 2 (°C)	21.94length (m)	temperature (°C)	Stokes	anti-Stokes-747.200	33.143	0.113	0.099
-746.185	-27.722	-0.140	-0.082
-745.171	-66.605	-0.190	-0.076
-744.156	103.569	-0.185	0.220
-743.142	-200.000	-0.015	0.228
-742.127	-142.711	0.089	0.009
-741.112	-50.503	0.463	0.221
-740.098	800.000	-0.062	0.224
-739.083	-80.072	-0.172	0.058
-738.069	250.273	0.334	0.573
-737.054	-68.286	-0.182	-0.072
-736.039	-189.507	-0.289	0.003
-735.025	-200.000	-0.038	0.340
-734.010	84.023	0.178	0.197
-732.996	-110.879	-0.083	-0.017
-731.981	-93.532	-0.143	-0.040
-730.966	-178.366	-0.170	-0.004
-729.952	51.315	0.158	-0.151
-728.937	-36.452	-0.313	-0.171
-727.923	-41.775	-0.464	0.241
-726.908	127.232	-0.050	0.065
-725.894	690.434	-0.070	-0.185
-724.879	-59.766	-0.244	-0.106
-723.864	-117.866	0.249	0.045
-722.850	396.359	0.079	-0.167
-721.835	-37.663	-0.341	-0.184
-720.821	-200.000	0.039	0.550
-719.806	-131.589	0.232	0.031
-718.791	800.000	-0.104	0.386
-717.777	800.000	0.085	-0.364
-716.762	-85.000	-0.262	0.083
-715.748	-200.000	-0.017	0.207
-714.733	800.000	-0.019	-0.064
-713.718	116.717	-0.051	0.063
-712.704	13.950	-0.250	-0.196
-711.689	-200.000	0.015	-0.154
-710.675	71.980	0.241	-0.253
-709.660	46.663	0.083	-0.078
-708.645	12.300	0.138	-0.107
-707.631	-200.000	-0.053	-0.302
-706.616	-114.987	0.081	-0.016
-705.602	40.556	0.274	-0.250
-704.587	158.394	-0.208	-0.291
-703.572	164.670	-0.184	0.262
-702.558	-200.000	-0.008	0.276
-701.543	77.927	0.099	-0.107
-700.529	173.775	-0.121	0.177
-699.514	-200.000	-0.050	-0.235
-698.499	-200.000	0.016	-0.084
-697.485	-200.000	-0.030	-0.159
-696.470	-60.589	-0.122	-0.052
-695.456	-75.083	0.165	-0.059
-694.441	52.489	0.149	-0.144
-693.426	761.130	0.068	0.185
-692.412	168.976	-0.103	0.148
-691.397	-76.670	0.158	-0.056
-690.383	-200.000	0.024	-0.280
-689.368	113.544	-0.106	0.130
-688.354	-130.565	0.376	0.051
-687.339	141.787	-0.178	-0.238
-686.324	-128.465	0.090	0.013
-685.310	800.000	-0.080	-0.255
-684.295	-200.000	0.052	0.264
-683.281	145.039	-0.208	-0.281
-682.266	179.463	-0.067	-0.099
-681.251	371.225	-0.063	-0.128
-680.237	-36.961	-0.266	0.144
-679.222	131.106	-0.018	0.023
-678.208	-200.000	-0.025	-0.201
-677.193	-171.920	-0.158	0.005
-676.178	800.000	-0.047	-0.138
-675.164	108.206	-0.210	-0.253
-674.149	256.049	0.098	0.170
-673.135	59.065	0.158	0.157
-672.120	-55.382	-0.207	-0.094
-671.105	-67.950	-0.246	0.097
-670.091	-43.290	-0.130	0.067
-669.076	-126.453	-0.282	-0.042
-668.062	49.014	-0.166	-0.157
-667.047	-63.064	-0.218	-0.091
-666.032	-200.000	-0.014	-0.216
-665.018	-109.797	0.139	0.029
-664.003	-126.492	0.146	-0.022
-662.989	637.774	-0.055	0.141
-661.974	800.000	0.094	0.299
-660.959	86.842	0.042	-0.047
-659.945	-200.000	-0.013	0.321
-658.930	223.077	0.088	0.142
-657.916	431.263	-0.138	-0.302
-656.901	-39.777	-0.355	-0.187
-655.886	-200.000	-0.074	-0.350
-654.872	-87.496	0.160	0.049
-653.857	-74.169	0.272	-0.099
-652.843	27.406	-0.157	0.133
-651.828	552.366	-0.096	0.233
-650.814	-200.000	0.036	-0.249
-649.799	96.141	-0.026	0.030
-648.784	-34.029	0.193	-0.107
-647.770	-200.000	-0.010	-0.160
-646.755	-200.000	-0.002	0.055
-645.741	-34.408	-0.059	-0.033
-644.726	87.295	0.098	0.110
-643.711	5.149	0.136	-0.101
-642.697	70.837	-0.198	-0.207
-641.682	-133.823	0.242	-0.030
-640.668	-35.157	-0.208	0.114
-639.653	145.623	-0.143	0.193
-638.638	-46.328	0.190	-0.094
-637.624	137.442	-0.304	-0.401
-636.609	-33.254	-0.206	-0.115
-635.595	249.701	-0.064	0.110
-634.580	-200.000	-0.024	-0.527
-633.565	518.369	-0.055	0.129
-632.551	-101.513	0.201	-0.049
-631.536	-53.556	-0.130	0.060
-630.522	389.716	-0.081	0.169
-629.507	22.887	-0.276	-0.228
-628.492	-35.999	0.143	0.078
-627.478	-149.821	-0.480	0.038
-626.463	16.055	-0.137	0.109
-625.449	-12.951	0.268	0.176
-624.434	164.282	0.187	-0.265
-623.419	-200.000	0.009	-0.143
-622.405	-64.672	0.169	0.069
-621.390	-25.789	-0.213	-0.126
-620.376	-167.756	-0.179	0.007
-619.361	-141.272	-0.370	-0.038
-618.346	800.000	-0.085	-0.314
-617.332	800.000	-0.038	0.133
-616.317	119.018	0.022	0.028
-615.303	-77.930	0.347	-0.121
-614.288	-123.016	0.309	-0.050
-613.273	160.341	-0.100	-0.140
-612.259	-2.550	0.157	0.111
-611.244	-91.334	0.283	-0.081
-610.230	506.629	-0.131	0.306
-609.215	-200.000	0.008	-0.043
-608.201	800.000	-0.094	-0.415
-607.186	-92.414	0.379	-0.107
-606.171	800.000	0.061	-0.178
-605.157	369.860	0.043	0.087
-604.142	86.454	-0.187	0.208
-603.128	800.000	0.077	0.265
-602.113	-112.299	-0.541	0.109
-601.098	800.000	0.026	-0.091
-600.084	-57.994	0.277	-0.122
-599.069	800.000	-0.013	-0.050
-598.055	-77.441	-0.349	-0.122
-597.040	210.944	-0.170	0.268
-596.025	217.931	0.186	-0.298
-595.011	47.265	0.027	0.025
-593.996	-141.115	0.419	-0.043
-592.982	76.125	-0.248	0.264
-591.967	-14.903	-0.249	0.160
-590.952	-158.356	0.066	0.004
-589.938	330.976	0.173	-0.335
-588.923	38.799	0.081	0.072
-587.909	-38.430	0.211	-0.112
-586.894	49.050	0.142	-0.134
-585.879	-200.000	-0.026	-0.160
-584.865	-200.000	0.462	0.002
-583.850	250.580	0.174	0.297
-582.836	21.549	0.239	0.195
-581.821	800.000	0.047	0.151
-580.806	-92.754	0.043	0.012
-579.792	260.875	-0.083	-0.143
-578.777	800.000	0.065	0.212
-577.763	-54.516	0.377	0.171
-576.748	800.000	0.031	0.125
-575.733	581.228	-0.018	0.045
-574.719	252.658	0.112	0.192
-573.704	96.518	0.213	-0.245
-572.690	238.903	0.082	-0.137
-571.675	149.582	0.237	0.322
-570.661	-70.846	-0.150	-0.057
-569.646	187.908	0.219	0.328
-568.631	159.416	-0.136	-0.190
-567.617	43.308	0.124	0.114
-566.602	-93.881	0.184	0.051
-565.588	-44.055	-0.043	-0.022
-564.573	83.604	0.257	0.282
-563.558	-200.000	0.010	-0.307
-562.544	424.074	0.121	-0.261
-561.529	163.992	0.145	-0.205
-560.515	-14.792	-0.031	-0.020
-559.500	181.821	0.158	0.234
-558.485	375.759	-0.161	0.329
-557.471	140.954	0.050	0.066
-556.456	350.961	-0.007	-0.014
-555.442	-95.972	0.177	0.047
-554.427	181.086	0.105	-0.155
-553.412	175.423	0.020	-0.029
-552.398	-200.000	-0.133	-0.602
-551.383	435.623	0.186	-0.406
-550.369	163.730	-0.174	-0.246
-549.354	-200.000	0.031	-0.162
-548.339	-200.000	0.062	0.313
-547.325	632.180	-0.085	0.217
-546.310	-200.000	-0.002	-0.313
-545.296	4.640	-0.080	-0.059
-544.281	178.641	-0.258	-0.379
-543.266	-76.342	0.312	-0.110
-542.252	800.000	0.000	0.001
-541.237	413.272	0.126	0.269
-540.223	-78.450	-0.272	0.093
-539.208	69.419	0.058	0.060
-538.193	249.283	-0.067	-0.114
-537.179	61.332	0.147	-0.147
-536.164	-200.000	0.011	-0.090
-535.150	-200.000	-0.020	0.256
-534.135	-134.561	0.104	0.013
-533.121	543.629	-0.057	0.136
-532.106	129.792	-0.170	-0.218
-531.091	-200.000	-0.000	0.093
-530.077	-200.000	-0.038	0.170
-529.062	227.735	0.026	0.042
-528.048	-12.396	-0.304	-0.199
-527.033	170.107	-0.069	-0.099
-526.018	-46.861	-0.315	-0.155
-525.004	-200.000	-0.064	-0.287
-523.989	-61.956	0.117	-0.049
-522.975	120.707	0.099	-0.123
-521.960	441.121	0.031	0.067
-520.945	140.048	-0.186	-0.245
-519.931	800.000	0.097	0.276
-518.916	-200.000	0.003	0.017
-517.902	-200.000	-0.001	0.202
-516.887	-56.244	0.317	0.141
-515.872	438.472	-0.032	-0.070
-514.858	471.015	0.076	0.170
-513.843	-153.656	-0.314	0.022
-512.829	67.378	-0.055	-0.056
-511.814	-147.332	-0.152	0.013
-510.799	-200.000	-0.018	0.190
-509.785	58.018	-0.160	0.157
-508.770	-57.140	-0.186	0.082
-507.756	-95.836	0.229	-0.061
-506.741	-200.000	-0.000	0.125
-505.726	-81.926	0.163	0.053
-504.712	26.607	-0.063	0.053
-503.697	726.988	0.147	-0.394
-502.683	421.143	0.100	-0.215
-501.668	-63.951	-0.331	0.136
-500.653	-46.293	0.173	0.085
-499.639	424.034	-0.129	0.277
-498.624	103.714	0.153	-0.179
-497.610	-153.824	0.046	0.003
-496.595	642.923	0.099	-0.252
-495.581	143.613	-0.122	-0.162
-494.566	-200.000	-0.031	-0.162
-493.551	-9.115	-0.203	-0.136
-492.537	116.794	0.206	-0.253
-491.522	59.057	-0.053	-0.052
-490.508	348.995	0.082	-0.162
-489.493	175.254	-0.124	0.181
-488.478	92.950	0.168	0.190
-487.464	-182.170	0.213	-0.004
-486.449	-23.986	-0.204	0.122
-485.435	50.133	-0.212	-0.200
-484.420	49.503	0.271	0.255
-483.405	-200.000	0.010	0.069
-482.391	-49.414	0.159	0.076
-481.376	-29.078	-0.135	-0.077
-480.362	-200.000	0.048	-0.545
-479.347	-200.000	-0.008	0.222
-478.332	-200.000	0.015	0.106
-477.318	333.079	-0.157	-0.303
-476.303	613.022	0.069	-0.173
-475.289	-151.235	0.173	0.013
-474.274	508.341	0.075	0.173
-473.259	-200.000	0.011	0.135
-472.245	-200.000	-0.025	-0.184
-471.230	32.052	-0.100	-0.086
-470.216	-200.000	0.018	-0.092
-469.201	-43.662	-0.045	-0.023
-468.186	1.331	-0.190	-0.137
-467.172	-127.084	0.269	0.039
-466.157	-102.730	-0.125	-0.030
-465.143	-200.000	-0.047	-0.265
-464.128	30.940	-0.276	-0.237
-463.113	550.161	-0.078	-0.187
-462.099	118.997	-0.227	0.280
-461.084	-200.000	0.057	0.265
-460.070	628.027	-0.053	0.133
-459.055	81.084	0.234	0.252
-458.040	-115.105	-0.187	-0.036
-457.026	800.000	0.093	0.301
-456.011	145.119	-0.255	0.341
-454.997	538.318	-0.151	0.360
-453.982	186.875	0.124	-0.185
-452.968	-110.948	0.183	-0.038
-451.953	39.632	0.159	-0.143
-450.938	-47.140	0.159	-0.077
-449.924	363.021	0.033	-0.067
-448.909	-200.000	0.063	0.319
-447.895	-200.000	-0.022	0.306
-446.880	-49.401	0.280	-0.133
-445.865	-69.902	0.106	0.040
-444.851	173.323	-0.083	0.120
-443.836	221.005	0.081	0.130
-442.822	-103.520	-0.106	0.025
-441.807	-1.162	-0.213	0.151
-440.792	800.000	0.047	0.134
-439.778	174.886	-0.075	-0.108
-438.763	-6.414	0.171	0.117
-437.749	116.215	-0.070	-0.086
-436.734	-146.177	0.149	-0.013
-435.719	-200.000	-0.054	0.306
-434.705	1.387	0.143	-0.102
-433.690	139.381	-0.086	0.114
-432.676	-21.566	-0.046	-0.028
-431.661	796.086	-0.117	0.322
-430.646	-130.614	0.301	0.041
-429.632	25.058	-0.275	-0.228
-428.617	131.527	-0.108	0.138
-427.603	-196.449	0.281	0.002
-426.588	17.421	0.034	0.027
-425.573	-0.209	-0.179	-0.127
-424.559	4.020	-0.145	0.106
-423.544	394.325	-0.098	0.204
-422.530	335.957	-0.177	-0.343
-421.515	-103.470	-0.082	-0.019
-420.500	-200.000	-0.113	0.548
-419.486	-200.000	-0.010	0.337
-418.471	173.263	-0.275	-0.395
-417.457	-18.419	0.251	-0.156
-416.442	138.158	-0.061	0.080
-415.428	-200.000	0.006	-0.087
-414.413	800.000	0.021	0.082
-413.398	-102.473	-0.224	-0.054
-412.384	-165.942	-0.261	0.011
-411.369	549.375	0.071	0.169
-410.355	-200.000	-0.012	0.078
-409.340	406.182	0.140	-0.296
-408.325	-78.029	-0.288	0.099
-407.311	-160.662	0.430	0.023
-406.296	36.751	0.267	-0.235
-405.282	24.674	0.137	-0.113
-404.267	-82.299	0.252	-0.082
-403.252	-2.700	-0.288	0.201
-402.238	-135.154	0.244	0.029
-401.223	42.496	-0.135	0.122
-400.209	800.000	0.045	0.186
-399.194	243.996	0.129	0.216
-398.179	-154.339	-0.323	0.022
-397.165	-200.000	-0.005	0.088
-396.150	-24.777	0.259	0.153
-395.136	93.033	-0.238	-0.269
-394.121	800.000	0.029	-0.094
-393.106	-61.770	-0.098	0.041
-392.092	-151.655	-0.149	0.011
-391.077	23.694	0.347	0.285
-390.063	800.000	0.115	0.486
-389.048	17.850	-0.171	0.136
-388.033	-200.000	-0.064	0.298
-387.019	66.554	0.223	-0.226
-386.004	-157.051	0.425	0.026
-384.990	75.431	0.142	-0.149
-383.975	-14.690	0.063	0.040
-382.960	800.000	0.019	-0.071
-381.946	123.488	-0.052	-0.065
-380.931	-37.765	-0.256	-0.136
-379.917	-200.000	0.061	-0.429
-378.902	-126.906	0.183	-0.027
-377.888	180.831	-0.095	-0.139
-376.873	800.000	0.061	-0.266
-375.858	-65.345	0.159	-0.064
-374.844	-200.000	0.004	-0.108
-373.829	143.918	0.249	0.331
-372.815	-45.245	0.214	0.106
-371.800	-200.000	0.006	0.075
-370.785	-7.797	-0.165	0.111
-369.771	25.037	-0.150	-0.124
-368.756	16.970	-0.068	-0.054
-367.742	-200.000	-0.006	-0.186
-366.727	-110.901	-0.608	-0.125
-365.712	36.830	0.163	-0.143
-364.698	-7.682	0.038	0.026
-363.683	3.541	0.163	0.118
-362.669	-91.129	0.214	-0.061
-361.654	-132.743	-0.338	-0.043
-360.639	-127.381	-0.318	0.046
-359.625	148.697	0.048	0.064
-358.610	-103.783	0.368	-0.086
-357.596	94.144	-0.124	-0.140
-356.581	-81.681	0.326	0.107
-355.566	186.862	-0.175	-0.259
-354.552	-200.000	0.025	-0.138
-353.537	-100.523	-0.145	-0.036
-352.523	-200.000	-0.007	0.413
-351.508	-200.000	-0.004	-0.119
-350.493	-76.584	0.194	-0.068
-349.479	800.000	0.031	-0.087
-348.464	-59.389	-0.213	-0.091
-347.450	800.000	0.052	0.163
-346.435	85.608	-0.097	-0.106
-345.420	-188.469	0.084	0.001
-344.406	-200.000	-0.009	-0.070
-343.391	301.340	-0.020	-0.037
-342.377	-2.016	-0.038	0.026
-341.362	-158.334	0.333	-0.019
-340.348	-89.306	0.226	0.066
-339.333	-200.000	0.031	0.149
-338.318	47.538	0.364	0.338
-337.304	682.941	0.109	0.283
-336.289	-126.322	0.100	0.015
-335.275	-200.000	-0.002	0.013
-334.260	159.056	0.203	-0.281
-333.245	-200.000	0.035	0.218
-332.231	185.594	-0.104	0.154
-331.216	12.792	-0.038	0.029
-330.202	133.715	0.094	-0.122
-329.187	-165.082	0.114	-0.005
-328.172	142.596	-0.036	-0.048
-327.158	-49.492	-0.244	0.116
-326.143	24.969	0.027	-0.022
-325.129	55.556	0.152	0.147
-324.114	272.116	-0.127	0.223
-323.099	-105.680	0.193	-0.043
-322.085	129.402	-0.182	0.232
-321.070	41.351	0.102	-0.091
-320.056	-108.027	-0.114	-0.025
-319.041	96.093	-0.143	0.163
-318.026	-76.707	-0.051	-0.018
-317.012	-155.707	-0.277	0.018
-315.997	-189.306	-0.277	0.003
-314.983	-200.000	-0.021	0.092
-313.968	-44.813	-0.170	-0.084
-312.953	800.000	0.092	0.302
-311.939	260.734	0.083	-0.143
-310.924	100.220	0.151	-0.175
-309.910	-19.649	0.230	0.142
-308.895	18.627	0.277	0.220
-307.880	-200.000	0.030	-0.320
-306.866	-200.000	-0.009	-0.232
-305.851	150.351	0.214	-0.288
-304.837	128.433	-0.329	-0.417
-303.822	235.211	0.093	-0.153
-302.807	-46.355	-0.180	0.088
-301.793	-200.000	-0.008	-0.107
-300.778	98.182	-0.066	0.075
-299.764	-105.706	-0.358	0.080
-298.749	167.377	-0.097	-0.136
-297.735	-137.171	-0.175	0.020
-296.720	-52.337	0.096	-0.044
-295.705	597.355	-0.061	0.151
-294.691	140.759	-0.155	-0.203
-293.676	24.635	0.155	0.128
-292.662	-19.372	-0.190	-0.117
-291.647	229.378	0.060	0.097
-290.632	238.684	-0.193	0.318
-289.618	-148.894	0.412	0.033
-288.603	278.974	0.065	-0.115
-287.589	654.183	0.090	-0.230
-286.574	-200.000	-0.063	-0.475
-285.559	339.404	0.050	0.097
-284.545	250.502	0.106	-0.178
-283.530	800.000	0.044	0.153
-282.516	-179.355	-0.109	0.002
-281.501	244.813	0.082	0.138
-280.486	-42.054	0.155	-0.079
-279.472	-2.905	0.189	0.131
-278.457	-124.448	-0.085	0.013
-277.443	144.574	0.087	-0.115
-276.428	-66.895	-0.246	0.097
-275.413	102.959	-0.250	-0.291
-274.399	-184.183	0.235	0.004
-273.384	-44.023	-0.193	0.096
-272.370	106.389	-0.153	-0.180
-271.355	151.795	-0.119	0.161
-270.340	169.016	0.155	0.220
-269.326	-200.000	0.038	-0.195
-268.311	-39.586	0.035	0.018
-267.297	152.744	-0.121	0.164
-266.282	-200.000	0.050	-0.327
-265.267	-50.230	-0.307	-0.144
-264.253	-10.346	0.205	-0.135
-263.238	800.000	-0.151	0.421
-262.224	42.931	-0.133	0.120
-261.209	712.370	-0.076	-0.200
-260.195	-114.609	0.181	0.034
-259.180	-141.026	-0.292	0.030
-258.165	648.509	-0.072	-0.183
-257.151	-69.534	-0.249	0.095
-256.136	640.008	-0.035	0.088
-255.122	10.202	-0.092	0.070
-254.107	163.898	0.138	-0.193
-253.092	800.000	-0.053	0.145
-252.078	-143.514	-0.182	-0.017
-251.063	79.766	-0.239	0.255
-250.049	-79.650	-0.035	0.012
-249.034	-115.765	-0.147	-0.027
-248.019	312.916	-0.034	0.064
-247.005	657.365	0.107	-0.273
-245.990	183.548	0.116	-0.170
-244.976	-200.000	0.041	0.183
-243.961	-200.000	0.086	0.456
-242.946	-49.932	-0.249	0.117
-241.932	-82.361	0.135	-0.043
-240.917	125.974	0.173	0.217
-239.903	-200.000	-0.034	0.231
-238.888	12.956	-0.299	0.229
-237.873	-168.692	-0.257	-0.010
-236.859	800.000	0.082	0.287
-235.844	255.826	0.057	-0.097
-234.830	-200.000	-0.032	-0.251
-233.815	3.803	-0.279	-0.202
-232.800	-92.729	-0.305	0.085
-231.786	800.000	-0.068	-0.281
-230.771	119.147	-0.139	0.170
-229.757	108.516	0.134	-0.158
-228.742	-68.170	-0.172	0.066
-227.727	-86.847	0.171	-0.052
-226.713	-200.000	-0.026	-0.266
-225.698	-141.535	0.159	0.016
-224.684	-118.317	-0.236	-0.042
-223.669	38.943	-0.171	-0.152
-222.655	82.448	0.159	0.171
-221.640	71.175	0.062	0.063
-220.625	62.643	0.217	-0.215
-219.611	-4.087	-0.071	-0.049
-218.596	-200.000	0.173	-0.000
-217.582	-200.000	0.040	0.175
-216.567	-200.000	-0.004	-0.028
-215.552	209.701	0.130	-0.202
-214.538	442.210	0.143	0.310
-213.523	-87.459	0.359	0.108
-212.509	24.697	0.180	0.148
-211.494	-55.644	-0.291	-0.129
-210.479	-8.640	-0.290	-0.193
-209.465	54.768	-0.111	0.106
-208.450	800.000	-0.103	-0.285
-207.436	800.000	0.101	0.297
-206.421	-99.989	-0.308	0.076
-205.406	215.684	-0.100	0.157
-204.392	800.000	-0.098	-0.341
-203.377	430.821	-0.083	-0.178
-202.363	368.298	-0.068	-0.136
-201.348	-58.342	0.375	-0.161
-200.333	-113.727	0.107	-0.021
-199.319	-200.000	0.016	0.173
-198.304	148.909	0.211	0.282
-197.290	-92.816	0.174	0.048
-196.275	439.099	0.040	-0.087
-195.260	-200.000	-0.031	0.163
-194.246	-23.858	0.069	0.041
-193.231	225.730	0.203	0.326
-192.217	-86.097	-0.255	0.078
-191.202	46.628	0.204	-0.187
-190.187	224.253	-0.205	0.328
-189.173	130.825	0.196	-0.249
-188.158	-200.000	-0.052	0.342
-187.144	453.997	0.067	0.148
-186.129	-42.038	0.236	0.120
-185.114	105.828	-0.094	0.110
-184.100	-168.121	-0.302	-0.012
-183.085	-200.000	-0.041	-0.290
-182.071	341.136	0.047	0.092
-181.056	-200.000	0.010	-0.057
-180.042	26.046	-0.206	-0.170
-179.027	-200.000	0.048	0.239
-178.012	-155.986	0.168	0.011
-176.998	2.888	-0.389	-0.279
-175.983	334.171	-0.134	-0.256
-174.969	12.306	0.323	-0.246
-173.954	-96.510	-0.146	0.038
-172.939	-200.000	0.005	-0.202
-171.925	800.000	0.091	-0.353
-170.910	-200.000	-0.002	0.111
-169.896	274.074	0.140	0.245
-168.881	-52.619	0.127	0.058
-167.866	171.694	-0.065	0.093
-166.852	106.578	-0.281	0.330
-165.837	800.000	-0.036	-0.141
-164.823	190.929	-0.055	0.082
-163.808	268.849	0.172	0.298
-162.793	-22.627	0.168	0.101
-161.779	-128.843	-0.238	-0.033
-160.764	131.902	0.134	0.170
-159.750	362.021	0.028	-0.055
-158.735	41.241	-0.172	-0.154
-157.720	471.261	-0.080	-0.178
-156.706	392.054	-0.123	0.253
-155.691	-92.002	-0.388	0.109
-154.677	-200.000	0.016	-0.079
-153.662	-37.318	0.251	0.132
-152.647	-163.882	-0.258	0.012
-151.633	800.000	-0.062	-0.268
-150.618	-200.000	-0.010	0.108
-149.604	800.000	0.037	0.128
-148.589	-200.000	-0.019	-0.124
-147.574	92.970	-0.219	0.244
-146.560	109.561	0.086	-0.102
-145.545	33.150	-0.193	0.166
-144.531	9.344	0.170	0.127
-143.516	85.919	-0.025	-0.027
-142.502	-200.000	0.035	-0.201
-141.487	415.329	-0.067	0.141
-140.472	-200.000	0.094	0.409
-139.458	-145.100	0.126	-0.011
-138.443	-81.501	-0.095	0.031
-137.429	-169.524	-0.135	0.005
-136.414	-20.925	-0.227	-0.137
-135.399	-200.000	0.021	-0.241
-134.385	118.365	-0.326	0.397
-133.370	-52.183	-0.406	0.186
-132.356	-200.000	-0.002	0.069
-131.341	-144.813	0.164	-0.015
-130.326	800.000	0.087	-0.324
-129.312	65.317	-0.154	-0.154
-128.297	-154.512	-0.203	0.013
-127.283	32.594	0.209	-0.178
-126.268	-21.498	0.251	0.151
-125.253	91.447	-0.092	-0.102
-124.239	-200.000	-0.006	0.199
-123.224	-157.653	-0.121	-0.007
-122.210	-200.000	0.055	-0.252
-121.195	800.000	-0.048	0.153
-120.180	-55.130	0.096	0.043
-119.166	161.167	-0.089	-0.122
-118.151	31.574	0.069	-0.059
-117.137	-47.353	-0.118	-0.057
-116.122	-61.909	0.435	0.180
-115.107	73.311	0.141	0.146
-114.093	-103.089	0.065	-0.015
-113.078	-200.000	0.043	0.196
-112.064	561.446	0.144	0.344
-111.049	-200.000	-0.027	0.403
-110.034	-134.859	0.236	-0.028
-109.020	-149.244	-0.339	0.027
-108.005	-200.000	0.015	-0.074
-106.991	287.375	0.115	0.206
-105.976	800.000	0.103	0.294
-104.962	629.309	-0.088	-0.219
-103.947	587.288	0.107	-0.259
-102.932	5.761	-0.278	0.203
-101.918	-60.907	0.067	-0.028
-100.903	-101.967	0.287	-0.068
-99.889	76.390	0.130	-0.136
-98.874	-200.000	-0.022	-0.114
-97.859	-190.454	0.194	-0.002
-96.845	-200.000	0.030	-0.343
-95.830	52.155	0.351	-0.330
-94.816	800.000	-0.021	-0.086
-93.801	-78.426	-0.372	0.126
-92.786	-200.000	-0.009	0.227
-91.772	-4.639	0.257	-0.175
-90.757	800.000	-0.080	0.262
-89.743	-114.525	0.395	0.075
-88.728	60.128	-0.087	0.084
-87.713	-69.029	0.246	-0.094
-86.699	48.192	0.136	0.125
-85.684	232.752	0.050	0.082
-84.670	-200.000	0.029	0.324
-83.655	-31.713	0.111	-0.061
-82.640	27.843	-0.172	0.143
-81.626	10.712	-0.154	-0.116
-80.611	132.207	0.173	-0.219
-79.597	800.000	-0.022	-0.090
-78.582	-47.646	0.178	0.085
-77.567	-44.658	0.221	-0.109
-76.553	3.703	-0.054	0.039
-75.538	1.135	0.252	-0.178
-74.524	-200.000	0.050	-0.406
-73.509	718.362	0.097	0.254
-72.494	-159.740	-0.085	-0.005
-71.480	800.000	0.052	0.197
-70.465	-72.655	-0.377	0.137
-69.451	-103.848	-0.128	-0.030
-68.436	800.000	0.065	-0.189
-67.422	82.096	0.148	-0.158
-66.407	-98.674	0.178	0.045
-65.392	-100.668	0.089	-0.022
-64.378	-145.578	0.207	0.018
-63.363	-139.055	-0.219	-0.023
-62.349	-168.994	0.114	-0.004
-61.334	436.844	-0.498	-1.069
-60.319	-200.000	0.111	0.763
-59.305	-200.000	-0.074	-1.544
-58.290	222.874	0.699	1.110
-57.276	347.515	0.800	1.551
-56.261	-200.000	113.455	643.167
-55.246	460.733	1509.672	3311.304
-54.232	143.602	2687.299	3523.377
-53.217	93.762	2328.986	2597.474
-52.203	33.823	2076.572	1778.394
-51.188	29.131	1990.436	1662.327
-50.173	27.869	1973.521	1636.826
-49.159	46.449	2031.358	1854.177
-48.144	45.315	2047.492	1858.526
-47.130	29.798	2006.683	1681.693
-46.115	27.497	1996.426	1652.191
-45.100	27.375	1993.456	1648.564
-44.086	27.401	1990.757	1646.496
-43.071	27.321	1988.591	1643.917
-42.057	27.323	1986.219	1641.913
-41.042	27.366	1984.827	1641.087
-40.027	27.287	1982.936	1638.747
-39.013	27.350	1980.838	1637.516
-37.998	27.459	1978.834	1636.769
-36.984	27.276	1977.633	1634.064
-35.969	27.361	1975.396	1632.915
-34.954	27.336	1973.879	1631.371
-33.940	27.351	1972.470	1630.280
-32.925	27.414	1970.598	1629.230
-31.911	27.444	1968.732	1627.892
-30.896	27.402	1967.388	1626.340
-29.881	27.460	1966.208	1625.820
-28.867	27.484	1964.275	1624.373
-27.852	27.497	1962.240	1622.740
-26.838	27.487	1960.654	1621.271
-25.823	27.487	1958.913	1619.772
-24.809	27.530	1956.828	1618.366
-23.794	27.492	1955.087	1616.522
-22.779	27.547	1953.220	1615.402
-21.765	27.525	1951.691	1613.876
-20.750	27.443	1950.525	1612.120
-19.736	27.461	1948.324	1610.400
-18.721	27.502	1946.990	1609.599
-17.706	27.494	1945.113	1607.907
-16.692	27.443	1944.228	1606.668
-15.677	27.461	1942.269	1605.139
-14.663	27.470	1940.771	1603.917
-13.648	27.434	1939.857	1602.783
-12.633	27.453	1938.543	1601.804
-11.619	27.398	1936.796	1599.811
-10.604	27.449	1935.395	1599.034
-9.590	27.397	1934.941	1598.141
-8.575	27.418	1933.117	1596.759
-7.560	27.434	1931.711	1595.669
-6.546	27.489	1930.158	1594.808
-5.531	27.453	1928.820	1593.327
-4.517	27.410	1927.730	1591.983
-3.502	27.428	1927.199	1591.635
-2.487	27.454	1925.277	1590.216
-1.473	27.454	1924.497	1589.512
-0.458	27.496	1919.573	1585.743
0.556	25.658	1899.835	1558.539
1.571	21.530	1881.065	1507.528
2.586	17.773	1903.870	1492.851
3.600	16.838	1939.338	1512.188
4.615	16.938	1933.612	1508.474
5.629	15.782	1841.555	1426.731
6.644	13.091	1737.819	1324.681
7.659	11.563	1706.902	1288.952
8.673	11.303	1704.516	1284.987
9.688	11.344	1703.249	1284.240
10.702	11.278	1701.715	1282.457
11.717	11.195	1698.278	1279.099
12.731	11.357	1696.719	1279.084
13.746	13.386	1699.837	1297.243
14.761	16.262	1705.750	1324.235
15.775	17.707	1707.215	1336.593
16.790	17.443	1705.063	1332.723
17.804	16.362	1702.087	1321.818
18.819	15.366	1698.937	1311.479
19.834	14.752	1695.610	1304.000
20.848	14.324	1694.188	1299.454
21.863	14.033	1693.291	1296.377
22.877	13.864	1691.270	1293.400
23.892	13.599	1689.727	1290.047
24.907	13.483	1688.666	1288.216
25.921	13.435	1687.875	1287.124
26.936	13.469	1686.978	1286.590
27.950	13.489	1686.124	1285.984
28.965	13.601	1685.004	1285.880
29.980	13.558	1684.551	1285.089
30.994	13.604	1683.028	1284.169
32.009	13.705	1681.880	1283.960
33.023	13.798	1680.985	1283.887
34.038	13.723	1680.401	1282.745
35.053	13.797	1678.879	1282.042
36.067	13.629	1678.114	1280.045
37.082	13.700	1676.436	1279.204
38.096	13.657	1675.610	1278.124
39.111	13.709	1674.712	1277.733
40.126	13.635	1673.868	1276.405
41.140	13.644	1673.177	1275.834
42.155	13.597	1671.313	1273.937
43.169	13.544	1669.900	1272.338
44.184	13.427	1668.753	1270.454
45.199	13.452	1667.563	1269.631
46.213	13.434	1666.134	1268.287
47.228	13.391	1665.313	1267.227
48.242	13.563	1663.689	1267.190
49.257	13.637	1662.301	1266.588
50.271	13.575	1661.289	1265.234
51.286	13.478	1660.186	1263.538
52.301	13.582	1659.085	1263.380
53.315	13.543	1657.565	1261.819
54.330	13.496	1656.282	1260.372
55.344	13.557	1654.017	1258.996
56.359	13.634	1652.542	1258.353
57.374	13.536	1651.479	1256.685
58.388	13.514	1650.795	1255.890
59.403	13.451	1649.448	1254.275
60.417	13.391	1647.632	1252.326
61.432	13.406	1647.061	1251.897
62.447	13.354	1646.050	1250.622
63.461	13.427	1644.314	1249.748
64.476	13.367	1643.362	1248.459
65.490	13.342	1642.332	1247.376
66.505	13.402	1640.975	1246.687
67.520	13.298	1640.176	1245.190
68.534	13.362	1639.613	1245.132
69.549	13.321	1637.978	1243.471
70.563	13.321	1637.065	1242.669
71.578	13.346	1636.007	1241.945
72.593	13.303	1635.040	1240.774
73.607	13.311	1633.867	1239.838
74.622	13.206	1632.637	1238.005
75.636	13.293	1631.356	1237.580
76.651	13.343	1630.444	1237.151
77.666	13.251	1630.120	1236.107
78.680	13.191	1629.402	1235.003
79.695	13.310	1627.914	1234.659
80.709	13.255	1627.453	1233.788
81.724	13.333	1626.393	1233.455
82.739	13.382	1625.543	1233.064
83.753	13.547	1624.421	1233.336
84.768	13.440	1623.478	1231.713
85.782	13.595	1622.992	1232.390
86.797	13.661	1621.847	1231.904
87.812	13.570	1621.168	1230.597
88.826	13.609	1619.644	1229.625
89.841	13.579	1618.826	1228.672
90.855	13.504	1617.810	1227.236
91.870	13.595	1616.556	1226.853
92.884	13.539	1615.384	1225.441
93.899	13.626	1614.024	1224.939
94.914	13.643	1612.898	1224.105
95.928	13.655	1611.975	1223.381
96.943	13.723	1610.561	1222.700
97.957	13.718	1608.881	1221.281
98.972	13.612	1607.262	1219.163
99.987	13.658	1606.167	1218.563
101.001	13.545	1604.640	1216.471
102.016	13.668	1602.466	1215.615
103.030	13.560	1601.711	1214.143
104.045	13.706	1600.147	1213.921
105.060	13.669	1598.780	1212.507
106.074	13.626	1597.123	1210.826
107.089	13.563	1595.743	1209.216
108.103	13.413	1594.451	1207.036
109.118	13.430	1592.692	1205.722
110.133	13.348	1591.181	1203.875
111.147	13.331	1590.140	1202.855
112.162	13.344	1589.001	1201.981
113.176	13.436	1587.698	1201.554
114.191	13.441	1585.803	1200.051
115.206	13.434	1584.745	1199.093
116.220	13.549	1583.025	1198.523
117.235	13.493	1581.651	1196.970
118.249	13.438	1580.745	1195.780
119.264	13.547	1578.631	1194.864
120.279	13.452	1577.683	1193.352
121.293	13.411	1576.628	1192.151
122.308	13.464	1574.749	1191.006
123.322	13.348	1573.510	1189.133
124.337	13.412	1571.952	1188.307
125.352	13.304	1570.696	1186.478
126.366	13.320	1569.810	1185.819
127.381	13.419	1568.215	1185.220
128.395	13.347	1567.394	1183.980
129.410	13.316	1565.877	1182.510
130.424	13.441	1563.957	1181.846
131.439	13.457	1562.935	1181.082
132.454	13.441	1561.536	1179.806
133.468	13.398	1560.309	1178.469
134.483	13.523	1558.634	1177.990
135.497	13.501	1557.217	1176.654
136.512	13.498	1555.977	1175.594
137.527	13.503	1554.741	1174.590
138.541	13.492	1553.201	1173.248
139.556	13.538	1551.621	1172.279
140.570	13.598	1550.527	1171.771
141.585	13.552	1549.185	1170.325
142.600	13.661	1548.293	1170.316
143.614	13.665	1546.928	1169.214
144.629	13.664	1545.540	1168.054
145.643	13.757	1543.955	1167.405
146.658	13.708	1543.020	1166.251
147.673	13.724	1541.105	1164.815
148.687	13.705	1539.478	1163.347
149.702	13.655	1538.176	1161.909
150.716	13.674	1536.335	1160.549
151.731	13.611	1535.438	1159.331
152.746	13.635	1533.818	1158.170
153.760	13.655	1532.135	1156.939
154.775	13.712	1531.259	1156.573
155.789	13.714	1529.591	1155.224
156.804	13.770	1528.552	1154.722
157.819	13.735	1527.289	1153.425
158.833	13.762	1526.192	1152.683
159.848	13.938	1524.698	1152.675
160.862	13.822	1524.276	1151.450
161.877	13.925	1522.320	1150.579
162.892	13.954	1520.834	1149.561
163.906	13.814	1520.045	1147.892
164.921	13.771	1518.849	1146.590
165.935	13.758	1517.599	1145.457
166.950	13.791	1516.628	1144.850
167.964	13.732	1515.354	1143.379
168.979	13.830	1514.605	1143.387
169.994	13.880	1513.287	1142.637
171.008	13.847	1512.177	1141.471
172.023	13.786	1511.178	1140.194
173.037	13.862	1510.083	1139.789
174.052	13.849	1509.104	1138.858
175.067	13.955	1508.229	1138.825
176.081	13.891	1506.880	1137.269
177.096	13.817	1505.521	1135.636
178.110	13.830	1504.341	1134.736
179.125	13.907	1502.755	1133.965
180.140	13.894	1501.811	1133.062
181.154	13.895	1501.087	1132.425
182.169	13.888	1499.838	1131.331
183.183	14.038	1498.494	1131.240
184.198	13.947	1497.944	1130.104
185.213	13.953	1496.923	1129.272
186.227	14.054	1495.806	1129.016
187.242	14.083	1493.981	1127.735
188.256	14.118	1492.962	1127.105
189.271	14.171	1491.978	1126.624
190.286	14.151	1490.767	1125.474
191.300	14.147	1489.842	1124.649
192.315	13.953	1488.768	1122.426
193.329	13.814	1487.576	1120.492
194.344	13.868	1486.172	1119.700
195.359	13.864	1484.893	1118.609
196.373	13.828	1484.643	1118.077
197.388	13.941	1483.232	1117.675
198.402	14.062	1482.448	1117.803
199.417	14.172	1481.100	1117.425
200.432	14.308	1479.933	1117.359
201.446	14.217	1479.302	1116.174
202.461	14.344	1477.751	1115.757
203.475	14.423	1476.385	1115.153
204.490	14.428	1476.127	1114.896
205.504	14.369	1474.579	1113.233
206.519	14.355	1473.567	1112.274
207.534	14.299	1472.191	1110.766
208.548	14.256	1471.077	1109.540
209.563	14.320	1469.622	1108.772
210.577	14.229	1469.691	1108.118
211.592	14.325	1468.241	1107.563
212.607	14.325	1467.229	1106.706
213.621	14.471	1466.769	1107.230
214.636	14.450	1465.939	1106.367
215.650	14.398	1464.920	1105.152
216.665	14.446	1463.765	1104.501
217.680	14.413	1463.004	1103.615
218.694	14.501	1461.955	1103.305
219.709	14.525	1461.620	1103.112
220.723	14.620	1460.134	1102.523
221.738	14.449	1459.680	1100.949
222.753	14.454	1458.551	1100.036
223.767	14.441	1457.489	1099.054
224.782	14.532	1456.219	1098.594
225.796	14.667	1455.052	1098.508
226.811	14.602	1454.514	1097.573
227.826	14.636	1453.552	1096.975
228.840	14.581	1453.063	1096.150
229.855	14.630	1451.526	1095.213
230.869	14.690	1450.679	1094.873
231.884	14.557	1449.958	1093.356
232.899	14.558	1448.962	1092.515
233.913	14.617	1447.610	1091.787
234.928	14.567	1446.575	1090.585
235.942	14.588	1444.953	1089.401
236.957	14.595	1443.711	1088.414
237.972	14.585	1442.815	1087.579
238.986	14.572	1442.077	1086.837
240.001	14.608	1440.639	1085.895
241.015	14.667	1439.722	1085.493
242.030	14.679	1438.112	1084.256
243.045	14.657	1437.726	1083.731
244.059	14.730	1436.907	1083.489
245.074	14.830	1435.673	1083.110
246.088	14.741	1435.227	1082.102
247.103	14.806	1434.673	1082.010
248.117	14.793	1433.762	1081.139
249.132	14.814	1433.189	1080.749
250.147	14.892	1432.207	1080.415
251.161	15.010	1431.593	1080.624
252.176	15.037	1431.313	1080.491
253.190	15.155	1429.944	1080.119
254.205	15.062	1429.334	1078.966
255.220	15.026	1428.376	1077.915
256.234	15.134	1427.944	1078.188
257.249	15.170	1427.006	1077.614
258.263	15.183	1425.746	1076.654
259.278	15.218	1424.724	1076.009
260.293	15.206	1424.178	1075.424
261.307	15.260	1422.974	1074.765
262.322	15.242	1422.995	1074.576
263.336	15.285	1421.582	1073.686
264.351	15.349	1420.299	1073.031
265.366	15.347	1419.590	1072.392
266.380	15.338	1418.586	1071.479
267.395	15.324	1417.959	1070.818
268.409	15.371	1416.986	1070.288
269.424	15.375	1416.020	1069.492
270.439	15.325	1414.804	1068.158
271.453	15.330	1413.899	1067.413
272.468	15.305	1413.037	1066.512
273.482	15.307	1412.181	1065.785
274.497	15.314	1411.018	1064.857
275.512	15.291	1410.229	1064.016
276.526	15.403	1409.365	1063.981
277.541	15.257	1408.892	1062.607
278.555	15.361	1407.754	1062.313
279.570	15.445	1406.922	1062.122
280.585	15.359	1405.950	1060.749
281.599	15.465	1405.368	1060.891
282.614	15.550	1404.274	1060.507
283.628	15.478	1403.619	1059.461
284.643	15.553	1401.942	1058.574
285.657	15.491	1400.673	1057.134
286.672	15.431	1399.973	1056.135
287.687	15.491	1399.137	1055.786
288.701	15.548	1397.753	1055.009
289.716	15.520	1397.564	1054.593
290.730	15.542	1396.892	1054.136
291.745	15.638	1395.172	1053.347
292.760	15.621	1394.101	1052.334
293.774	15.637	1393.051	1051.551
294.789	15.619	1392.500	1050.926
295.803	15.639	1392.009	1050.589
296.818	15.651	1391.120	1049.900
297.833	15.738	1389.866	1049.407
298.847	15.581	1388.870	1047.580
299.862	15.639	1387.650	1046.931
300.876	15.715	1386.695	1046.592
301.891	15.617	1386.122	1045.455
302.906	15.752	1385.086	1045.419
303.920	15.707	1384.723	1044.774
304.935	15.895	1383.694	1045.069
305.949	15.758	1383.187	1043.749
306.964	15.872	1382.024	1043.481
307.979	15.922	1381.295	1043.150
308.993	15.914	1380.427	1042.350
310.008	15.977	1379.298	1041.800
311.022	15.945	1378.177	1040.658
312.037	16.024	1377.246	1040.350
313.052	15.880	1376.680	1038.942
314.066	15.942	1375.383	1038.260
315.081	15.829	1374.407	1036.735
316.095	15.748	1373.080	1035.139
317.110	15.873	1372.368	1035.280
318.125	15.872	1371.628	1034.625
319.139	15.873	1370.394	1033.611
320.154	15.898	1369.186	1032.757
321.168	15.861	1368.612	1032.007
322.183	15.949	1367.195	1031.388
323.197	15.868	1366.360	1030.170
324.212	15.819	1366.129	1029.606
325.227	15.992	1364.726	1029.516
326.241	15.989	1363.794	1028.704
327.256	15.978	1363.168	1028.071
328.270	16.056	1362.130	1027.671
329.285	15.940	1361.540	1026.433
330.300	15.956	1360.500	1025.655
331.314	15.967	1359.562	1024.922
332.329	16.067	1358.686	1024.780
333.343	16.022	1357.948	1023.856
334.358	16.094	1356.854	1023.380
335.373	16.060	1356.259	1022.632
336.387	16.055	1355.685	1022.080
337.402	16.223	1354.389	1022.030
338.416	16.198	1354.353	1021.764
339.431	16.251	1353.344	1021.230
340.446	16.241	1352.267	1020.270
341.460	16.269	1351.484	1019.755
342.475	16.227	1350.968	1019.021
343.489	16.370	1349.737	1018.866
344.504	16.395	1349.010	1018.379
345.519	16.424	1348.132	1017.798
346.533	16.600	1346.801	1017.762
347.548	16.511	1346.040	1016.565
348.562	16.495	1345.539	1016.001
349.577	16.560	1344.801	1015.743
350.592	16.580	1343.798	1015.016
351.606	16.541	1342.705	1013.863
352.621	16.461	1341.680	1012.520
353.635	16.350	1340.669	1011.005
354.650	16.402	1339.934	1010.674
355.665	16.456	1338.827	1010.071
356.679	16.380	1338.164	1009.028
357.694	16.422	1337.059	1008.357
358.708	16.513	1335.576	1007.690
359.723	16.486	1334.600	1006.707
360.738	16.547	1333.623	1006.241
361.752	16.491	1332.486	1004.963
362.767	16.619	1331.157	1004.633
363.781	16.511	1330.743	1003.591
364.796	16.473	1330.209	1002.871
365.810	16.613	1329.151	1002.814
366.825	16.656	1328.416	1002.426
367.840	16.721	1327.799	1002.256
368.854	16.683	1326.953	1001.302
369.869	16.889	1326.546	1002.126
370.883	16.844	1325.776	1001.191
371.898	16.873	1325.142	1000.795
372.913	16.859	1324.090	999.828
373.927	16.735	1323.452	998.526
374.942	16.720	1322.878	997.917
375.956	16.843	1321.882	997.802
376.971	16.913	1320.659	997.203
377.986	16.914	1319.520	996.260
379.000	16.865	1319.616	995.955
380.015	16.954	1318.491	995.544
381.029	17.012	1317.918	995.359
382.044	17.042	1317.048	994.790
383.059	16.988	1316.389	993.889
384.073	17.120	1315.371	993.807
385.088	17.043	1315.177	993.121
386.102	17.046	1314.092	992.230
387.117	17.101	1313.524	992.037
388.132	17.022	1312.850	990.978
389.146	16.962	1312.053	989.935
390.161	16.971	1311.294	989.330
391.175	16.974	1310.546	988.696
392.190	17.025	1309.495	988.111
393.205	17.076	1308.650	987.685
394.219	17.013	1307.897	986.661
395.234	17.108	1306.343	985.953
396.248	17.070	1304.935	984.585
397.263	17.089	1303.713	983.683
398.278	17.182	1302.403	983.148
399.292	17.029	1301.564	981.540
400.307	17.047	1300.414	980.692
401.321	17.064	1299.830	980.265
402.336	17.079	1298.527	979.278
403.350	17.127	1297.320	978.561
404.365	17.067	1296.688	977.652
405.380	17.030	1295.947	976.793
406.394	17.093	1294.861	976.250
407.409	17.181	1294.096	976.094
408.423	17.251	1293.432	975.910
409.438	17.354	1292.598	975.784
410.453	17.262	1292.322	974.963
411.467	17.394	1291.565	975.058
412.482	17.410	1290.941	974.592
413.496	17.468	1290.008	974.135
414.511	17.458	1289.397	973.532
415.526	17.514	1288.932	973.414
416.540	17.481	1288.406	972.741
417.555	17.489	1287.182	971.777
418.569	17.550	1286.639	971.629
419.584	17.542	1286.121	971.108
420.599	17.528	1285.722	970.642
421.613	96.693	1356.415	1475.570
422.628	94.678	1366.638	1475.673
