DTS Sentinel unit serial number:	SN413079Multiplexer serial number:	ORYXHardware model number:	OX4-SRSoftware version number:	ORYX F/W v4.00 Oryx Data Collector v3.7.2.0data status	okinstallation	princeton_trtdifferential loss correction	single-endedforward channel	channel 4reverse channel	N/Adate	2019/09/16time	14:33:35forward acquisition time	60.00reverse acquisition time	0.00gamma	496.2192k internal	0.2287k external	0.2287temperature offset calibration	0.9935default loss term (dB/km)	0.3790temperature slope calibration	1.0000multiplexer offset coefficient	1.0000multiplexer slope coefficient	1.0000fibre end	0.00T internal ref (°C)	41.84T ext. ref 1 (°C)	14.26T ext. ref 2 (°C)	36.25length (m)	temperature (°C)	Stokes	anti-Stokes-747.200	-138.883	0.239	0.027
-746.185	-200.000	-0.011	0.421
-745.171	-29.634	-0.183	0.107
-744.156	-33.771	-0.164	0.093
-743.142	800.000	0.033	0.135
-742.127	17.759	0.286	0.233
-741.112	-200.000	-0.022	0.158
-740.098	-200.000	-0.043	0.524
-739.083	157.878	-0.078	-0.110
-738.069	-166.242	0.139	-0.006
-737.054	-140.135	-0.140	0.015
-736.039	800.000	-0.064	0.238
-735.025	-200.000	0.009	-0.101
-734.010	-135.386	-0.164	0.020
-732.996	382.851	0.181	0.382
-731.981	-200.000	-0.013	-0.133
-730.966	-46.305	0.123	-0.062
-729.952	-200.000	0.044	-0.283
-728.937	760.431	-0.087	-0.242
-727.923	-164.372	-0.805	-0.038
-726.908	430.096	-0.055	0.122
-725.894	416.804	-0.113	-0.248
-724.879	315.109	-0.125	-0.242
-723.864	-26.049	-0.305	0.184
-722.850	460.091	0.136	-0.310
-721.835	-200.000	0.036	-0.577
-720.821	-121.014	-0.258	-0.044
-719.806	-162.393	0.245	0.012
-718.791	520.354	0.082	0.198
-717.777	-86.629	-0.105	-0.033
-716.762	800.000	0.049	-0.146
-715.748	4.133	0.221	-0.165
-714.733	-200.000	-0.037	-0.170
-713.718	-200.000	-0.031	-0.165
-712.704	-119.757	0.459	-0.081
-711.689	400.373	-0.090	-0.194
-710.675	-136.478	0.185	-0.022
-709.660	180.186	0.051	0.077
-708.645	257.987	-0.053	-0.093
-707.631	800.000	-0.040	0.155
-706.616	168.514	-0.108	0.157
-705.602	-200.000	0.002	-0.231
-704.587	-56.742	0.098	0.044
-703.572	54.958	0.109	0.107
-702.558	49.482	0.313	-0.302
-701.543	800.000	0.063	-0.252
-700.529	-6.801	0.205	0.143
-699.514	174.026	-0.023	0.035
-698.499	-28.552	-0.345	0.204
-697.485	-200.000	-0.014	-0.092
-696.470	-80.425	-0.208	0.071
-695.456	365.127	-0.081	0.168
-694.441	-200.000	0.036	0.358
-693.426	193.224	-0.052	-0.080
-692.412	23.693	-0.106	0.089
-691.397	42.079	0.222	0.206
-690.383	-56.192	-0.304	0.138
-689.368	-200.000	0.006	0.329
-688.354	-19.127	0.206	0.131
-687.339	-96.484	0.081	0.022
-686.324	18.706	0.080	-0.065
-685.310	800.000	-0.134	-0.391
-684.295	306.485	0.087	-0.166
-683.281	-81.302	-0.152	0.051
-682.266	-13.280	-0.147	0.097
-681.251	511.911	0.176	-0.419
-680.237	-200.000	0.008	-0.036
-679.222	89.443	-0.291	0.332
-678.208	-96.626	-0.295	-0.080
-677.193	-96.513	0.210	-0.057
-676.178	800.000	-0.012	-0.040
-675.164	5.569	-0.080	-0.060
-674.149	-200.000	0.045	-0.203
-673.135	60.891	-0.122	-0.124
-672.120	-16.610	-0.121	-0.078
-671.105	23.005	-0.236	0.198
-670.091	9.212	-0.110	0.085
-669.076	-97.555	0.581	0.154
-668.062	214.353	0.159	0.257
-667.047	-9.559	-0.059	0.040
-666.032	74.238	-0.158	-0.170
-665.018	229.211	0.204	-0.341
-664.003	122.233	0.163	-0.208
-662.989	-200.000	-0.013	0.093
-661.974	1.798	0.240	-0.177
-660.959	378.787	-0.141	-0.296
-659.945	128.706	-0.096	0.125
-658.930	161.831	0.287	0.411
-657.916	-137.588	0.245	0.028
-656.901	318.112	-0.037	0.071
-655.886	171.860	0.217	0.319
-654.872	-200.000	0.021	-0.263
-653.857	57.587	-0.172	-0.172
-652.843	-13.900	-0.117	0.077
-651.828	-99.192	0.172	-0.044
-650.814	-109.260	0.348	0.075
-649.799	-129.316	-0.193	0.027
-648.784	203.533	-0.134	-0.212
-647.770	800.000	0.061	-0.201
-646.755	205.957	-0.098	-0.156
-645.741	2.356	-0.295	0.218
-644.726	-28.909	-0.185	-0.108
-643.711	357.361	0.121	-0.247
-642.697	449.034	-0.061	-0.138
-641.682	81.499	0.163	-0.181
-640.668	-18.722	-0.143	-0.091
-639.653	57.170	-0.264	-0.263
-638.638	-200.000	-0.040	-0.287
-637.624	38.316	-0.145	0.132
-636.609	-200.000	-0.006	-0.080
-635.595	-58.591	0.192	0.085
-634.580	-70.932	0.036	0.014
-633.565	-59.153	0.154	0.068
-632.551	-78.224	-0.281	0.099
-631.536	-74.358	-0.168	-0.062
-630.522	22.588	-0.221	0.185
-629.507	-17.208	-0.332	-0.214
-628.492	229.619	0.182	0.303
-627.478	-200.000	0.024	0.189
-626.463	-59.280	-0.201	-0.088
-625.449	-88.622	-0.144	-0.044
-624.434	52.993	0.042	-0.041
-623.419	-195.957	0.366	0.003
-622.405	800.000	-0.076	-0.284
-621.390	91.103	-0.304	0.348
-620.376	92.188	-0.060	0.069
-619.361	229.850	0.071	0.119
-618.346	-200.000	-0.020	-0.106
-617.332	-200.000	0.038	-0.425
-616.317	-15.433	-0.124	0.081
-615.303	561.232	-0.173	-0.426
-614.288	-108.754	-0.357	0.078
-613.273	338.370	0.209	0.415
-612.259	462.070	-0.168	-0.382
-611.244	789.902	0.060	-0.169
-610.230	285.344	0.049	0.090
-609.215	-1.988	0.050	0.036
-608.201	-73.080	0.345	0.129
-607.186	-118.560	-0.349	-0.063
-606.171	-161.723	-0.203	0.011
-605.157	517.694	-0.063	0.150
-604.142	-189.363	-0.133	-0.002
-603.128	559.238	-0.025	-0.061
-602.113	-45.376	-0.134	0.068
-601.098	601.643	0.096	0.243
-600.084	-200.000	0.018	0.178
-599.069	312.445	-0.022	-0.042
-598.055	-100.196	-0.279	0.071
-597.040	-72.815	-0.197	0.074
-596.025	-200.000	0.002	-0.028
-595.011	-123.206	0.250	0.041
-593.996	-135.978	0.225	-0.027
-592.982	21.579	0.155	0.128
-591.967	48.468	-0.042	-0.041
-590.952	-111.674	0.062	-0.013
-589.938	343.316	-0.089	-0.179
-588.923	-126.839	0.190	-0.029
-587.909	800.000	-0.040	0.129
-586.894	419.083	-0.099	-0.217
-585.879	71.905	-0.138	-0.146
-584.865	787.610	-0.057	-0.160
-583.850	-58.472	-0.035	0.016
-582.836	-200.000	0.027	0.314
-581.821	-108.855	0.139	-0.030
-580.806	800.000	-0.064	0.185
-579.792	-200.000	-0.012	-0.156
-578.777	-21.636	0.182	0.113
-577.763	-200.000	-0.022	0.379
-576.748	-200.000	0.025	-0.122
-575.733	-74.604	-0.102	0.037
-574.719	-90.737	-0.024	0.007
-573.704	162.911	0.149	-0.213
-572.690	-200.000	0.028	0.173
-571.675	-127.895	-0.186	0.027
-570.661	-117.877	0.345	-0.063
-569.646	151.608	0.025	0.034
-568.631	275.647	-0.087	0.157
-567.617	-200.000	0.051	-0.290
-566.602	-25.984	-0.337	-0.202
-565.588	-8.829	-0.083	0.057
-564.573	800.000	0.113	0.394
-563.558	490.060	-0.116	-0.270
-562.544	-30.320	-0.151	0.087
-561.529	-99.130	-0.347	-0.089
-560.515	-37.443	-0.191	0.104
-559.500	-120.646	-0.052	-0.009
-558.485	16.511	0.351	-0.283
-557.471	371.243	-0.038	0.079
-556.456	-153.612	0.149	0.010
-555.442	116.943	0.032	0.040
-554.427	-17.501	0.116	0.074
-553.412	92.403	0.042	0.048
-552.398	221.097	-0.044	-0.071
-551.383	-12.158	0.137	0.091
-550.369	-160.345	-0.222	-0.012
-549.354	505.927	0.079	0.187
-548.339	-62.728	0.060	0.025
-547.325	-46.334	-0.223	0.111
-546.310	49.273	-0.198	0.190
-545.296	-118.691	0.134	-0.024
-544.281	-57.383	-0.143	-0.064
-543.266	-58.386	-0.157	-0.069
-542.252	510.696	0.082	0.195
-541.237	55.535	-0.261	-0.257
-540.223	438.758	-0.118	-0.263
-539.208	184.527	0.121	-0.183
-538.193	-200.000	0.034	0.289
-537.179	672.720	-0.130	-0.344
-536.164	-17.604	0.061	-0.039
-535.150	-120.426	-0.187	-0.032
-534.135	-160.993	-0.149	0.008
-533.121	-55.937	0.348	0.158
-532.106	172.391	0.237	0.347
-531.091	-200.000	0.015	0.114
-530.077	-200.000	-0.024	-0.118
-529.062	23.883	0.352	-0.295
-528.048	701.396	0.142	0.381
-527.033	144.724	0.246	0.334
-526.018	-39.667	0.316	-0.168
-525.004	0.476	0.285	0.207
-523.989	800.000	-0.053	-0.219
-522.975	-200.000	-0.005	0.029
-521.960	-80.501	-0.374	0.127
-520.945	-59.534	0.182	0.079
-519.931	7.253	-0.103	0.078
-518.916	57.528	-0.145	0.145
-517.902	-200.000	-0.017	0.237
-516.887	61.956	0.156	0.158
-515.872	-105.039	-0.139	0.032
-514.858	-76.004	-0.181	0.065
-513.843	408.265	-0.027	-0.058
-512.829	-62.123	0.122	-0.052
-511.814	-200.000	-0.042	-0.492
-510.799	370.590	-0.033	-0.068
-509.785	57.420	0.155	0.154
-508.770	800.000	0.031	-0.108
-507.756	182.944	0.154	-0.231
-506.741	311.361	-0.072	0.137
-505.726	-73.928	0.169	0.063
-504.712	-72.747	0.127	-0.047
-503.697	637.790	-0.127	-0.329
-502.683	800.000	0.096	0.276
-501.668	-200.000	-0.261	0.000
-500.653	246.995	-0.100	0.171
-499.639	-70.843	-0.228	-0.087
-498.624	-4.642	0.254	0.178
-497.610	-7.859	0.068	0.047
-496.595	14.312	-0.115	-0.091
-495.581	-132.661	0.224	-0.029
-494.566	429.410	-0.050	0.111
-493.551	-34.187	0.266	-0.148
-492.537	110.080	-0.029	0.036
-491.522	28.278	-0.109	0.093
-490.508	-129.366	-0.159	-0.022
-489.493	-200.000	0.041	0.208
-488.478	-15.885	-0.138	-0.089
-487.464	-20.868	-0.120	-0.075
-486.449	32.375	-0.150	0.131
-485.435	800.000	0.081	0.313
-484.420	453.572	0.076	0.170
-483.405	-87.258	0.125	-0.038
-482.391	196.908	0.103	0.159
-481.376	-200.000	-0.063	0.318
-480.362	800.000	-0.107	0.412
-479.347	-51.627	-0.184	0.087
-478.332	-19.952	0.058	0.036
-477.318	88.852	-0.227	-0.256
-476.303	800.000	-0.083	-0.237
-475.289	251.882	0.043	0.074
-474.274	-164.502	-0.238	0.011
-473.259	225.049	-0.092	0.152
-472.245	104.847	0.016	0.019
-471.230	193.185	0.162	0.248
-470.216	-146.617	-0.119	-0.010
-469.201	-171.697	-0.301	0.010
-468.186	-30.084	0.255	-0.147
-467.172	-43.759	0.125	-0.064
-466.157	-130.265	-0.259	0.036
-465.143	-200.000	-0.072	-0.401
-464.128	-200.000	0.004	0.230
-463.113	-23.492	0.350	0.213
-462.099	335.364	-0.076	0.150
-461.084	224.239	0.158	0.259
-460.070	-1.074	0.271	-0.195
-459.055	-108.980	-0.113	-0.024
-458.040	800.000	-0.080	0.289
-457.026	-131.170	-0.110	0.015
-456.011	254.004	-0.130	-0.226
-454.997	-98.985	-0.255	0.066
-453.982	-132.143	0.277	0.036
-452.968	-11.565	-0.150	0.100
-451.953	96.586	0.153	0.177
-450.938	14.723	-0.047	-0.038
-449.924	800.000	-0.066	-0.286
-448.909	800.000	0.060	-0.259
-447.895	-21.368	-0.104	0.065
-446.880	-200.000	-0.017	0.183
-445.865	193.358	0.192	-0.295
-444.851	706.177	-0.090	-0.241
-443.836	211.725	-0.107	-0.171
-442.822	256.836	-0.165	-0.288
-441.807	474.086	0.132	-0.302
-440.792	-124.974	0.068	0.011
-439.778	-200.000	0.022	0.178
-438.763	800.000	-0.089	-0.272
-437.749	378.119	-0.133	-0.276
-436.734	65.636	-0.195	-0.200
-435.719	105.523	0.199	-0.238
-434.705	-67.672	0.112	0.044
-433.690	800.000	-0.046	0.177
-432.676	-5.193	-0.065	0.045
-431.661	-58.128	0.120	-0.053
-430.646	-200.000	-0.042	0.195
-429.632	305.083	0.068	0.129
-428.617	800.000	0.115	-0.420
-427.603	149.166	-0.023	-0.032
-426.588	319.044	-0.135	-0.259
-425.573	87.218	0.197	-0.220
-424.559	0.580	0.200	-0.145
-423.544	800.000	-0.041	-0.119
-422.530	-200.000	0.006	-0.103
-421.515	-71.025	0.133	-0.050
-420.500	-134.380	0.273	-0.034
-419.486	710.496	0.066	0.176
-418.471	83.792	0.067	0.074
-417.457	800.000	0.059	-0.203
-416.442	-54.575	-0.247	-0.113
-415.428	133.064	-0.091	0.119
-414.413	800.000	-0.032	0.137
-413.398	-138.654	0.461	0.051
-412.384	-58.183	0.063	0.028
-411.369	28.837	0.244	0.209
-410.355	-135.427	-0.185	0.022
-409.340	465.854	-0.058	0.131
-408.325	-200.000	0.002	0.018
-407.311	-200.000	-0.052	0.242
-406.296	800.000	0.052	-0.145
-405.282	68.755	0.091	0.094
-404.267	-62.264	0.181	-0.076
-403.252	-200.000	0.062	-0.542
-402.238	-70.488	0.344	-0.132
-401.223	6.372	0.273	-0.205
-400.209	438.828	-0.086	0.190
-399.194	13.671	0.177	-0.139
-398.179	-103.496	0.176	-0.042
-397.165	-200.000	0.316	0.001
-396.150	144.276	0.084	0.113
-395.136	-12.394	0.178	0.117
-394.121	-173.611	0.333	-0.010
-393.106	172.207	0.114	0.166
-392.092	-27.089	-0.155	-0.092
-391.077	82.312	0.145	-0.159
-390.063	42.547	0.210	-0.193
-389.048	-65.217	0.208	-0.085
-388.033	-114.693	0.290	-0.056
-387.019	-68.118	0.266	-0.105
-386.004	125.740	-0.062	0.079
-384.990	266.354	-0.070	0.123
-383.975	-57.392	0.128	0.057
-382.960	-148.624	0.289	-0.024
-381.946	-34.736	-0.106	-0.059
-380.931	-32.067	0.092	-0.052
-379.917	-61.827	0.149	-0.063
-378.902	43.342	-0.144	-0.133
-377.888	197.479	-0.122	0.188
-376.873	339.090	0.102	-0.202
-375.858	-131.278	0.233	-0.031
-374.844	-200.000	0.009	0.150
-373.829	-77.850	0.172	-0.060
-372.815	61.699	-0.291	0.293
-371.800	632.117	0.078	0.200
-370.785	212.209	0.150	-0.239
-369.771	-159.253	-0.195	0.011
-368.756	335.499	-0.146	-0.286
-367.742	-68.760	-0.337	0.132
-366.727	-109.362	0.299	0.064
-365.712	-19.307	0.158	-0.099
-364.698	114.952	-0.153	0.189
-363.683	-200.000	0.009	-0.269
-362.669	-200.000	-0.050	-0.236
-361.654	3.059	-0.175	-0.128
-360.639	242.156	-0.093	0.157
-359.625	-103.024	0.267	0.064
-358.610	-200.000	-0.019	0.170
-357.596	172.218	0.099	0.144
-356.581	54.164	0.040	-0.039
-355.566	-200.000	0.045	0.359
-354.552	800.000	0.062	0.246
-353.537	-73.120	0.132	-0.049
-352.523	-67.138	-0.082	-0.033
-351.508	-200.000	0.044	-0.223
-350.493	328.719	0.103	0.200
-349.479	-138.543	-0.250	-0.028
-348.464	-17.876	0.083	0.053
-347.450	-116.720	-0.102	0.019
-346.435	-200.000	0.017	0.100
-345.420	-57.383	0.130	0.058
-344.406	241.090	-0.042	0.071
-343.391	-142.612	-0.497	0.049
-342.377	-44.639	0.239	0.121
-341.362	316.315	0.070	0.134
-340.348	56.692	-0.081	0.080
-339.333	800.000	0.108	-0.420
-338.318	100.094	-0.106	0.124
-337.304	-200.000	0.011	0.202
-336.289	28.111	0.163	0.139
-335.275	-119.190	0.289	-0.051
-334.260	-113.252	0.113	-0.022
-333.245	-72.028	0.040	-0.015
-332.231	130.758	-0.140	0.181
-331.216	321.473	0.049	0.093
-330.202	-200.000	0.034	-0.258
-329.187	11.687	-0.215	0.167
-328.172	-68.621	0.108	-0.042
-327.158	-101.282	-0.237	0.059
-326.143	-126.692	-0.330	-0.049
-325.129	-67.085	-0.374	-0.149
-324.114	76.556	-0.077	-0.082
-323.099	-2.258	0.186	0.132
-322.085	-119.327	-0.324	-0.057
-321.070	545.262	0.116	-0.280
-320.056	-47.919	-0.323	0.158
-319.041	-200.000	-0.002	0.109
-318.026	-58.489	0.131	-0.057
-317.012	688.173	-0.067	-0.178
-315.997	-200.000	-0.074	-0.414
-314.983	800.000	0.054	-0.174
-313.968	-200.000	-0.031	-0.252
-312.953	-66.259	-0.351	-0.141
-311.939	-200.000	0.012	0.090
-310.924	44.027	-0.091	-0.084
-309.910	-200.000	0.062	-0.282
-308.895	86.571	-0.116	-0.129
-307.880	-51.520	0.190	-0.089
-306.866	-81.972	0.228	-0.075
-305.851	173.674	-0.060	-0.088
-304.837	-200.000	-0.024	-0.198
-303.822	-79.875	-0.219	0.074
-302.807	-72.607	-0.118	-0.044
-301.793	69.242	0.351	-0.364
-300.778	-200.000	-0.160	-0.000
-299.764	-72.825	0.107	0.040
-298.749	800.000	0.032	-0.125
-297.735	38.028	-0.079	0.071
-296.720	-112.461	-0.308	0.062
-295.705	800.000	0.111	-0.319
-294.691	-183.847	-0.077	0.001
-293.676	-4.155	-0.148	-0.103
-292.662	251.494	0.054	-0.092
-291.647	800.000	0.017	0.050
-290.632	-107.059	0.219	0.049
-289.618	165.459	-0.091	0.129
-288.603	2.908	-0.204	-0.150
-287.589	-200.000	0.006	0.315
-286.574	-72.532	0.386	0.144
-285.559	376.784	-0.124	0.255
-284.545	-200.000	0.010	0.225
-283.530	441.726	0.149	-0.329
-282.516	-39.462	0.191	0.101
-281.501	800.000	-0.053	-0.217
-280.486	-200.000	0.003	0.053
-279.472	-118.800	-0.276	-0.049
-278.457	-200.000	0.010	-0.112
-277.443	92.468	0.193	-0.219
-276.428	28.990	0.133	0.113
-275.413	-149.816	-0.130	0.010
-274.399	-63.025	-0.274	-0.114
-273.384	-109.275	-0.047	0.010
-272.370	-30.298	-0.140	0.080
-271.355	132.813	-0.111	0.144
-270.340	81.141	0.060	0.065
-269.326	-200.000	0.005	0.267
-268.311	800.000	0.062	0.174
-267.297	-157.958	0.128	0.008
-266.282	-200.000	-0.082	0.395
-265.267	378.895	-0.036	0.075
-264.253	-128.006	0.190	-0.027
-263.238	412.675	-0.022	-0.046
-262.224	-101.514	-0.321	-0.079
-261.209	-174.166	0.365	0.011
-260.195	494.720	-0.106	0.245
-259.180	270.764	0.169	-0.300
-258.165	230.011	0.125	0.206
-257.151	-62.330	0.243	0.102
-256.136	128.169	-0.103	0.132
-255.122	10.662	0.178	0.137
-254.107	-200.000	-0.004	0.150
-253.092	-134.375	0.348	0.043
-252.078	-10.534	-0.194	-0.129
-251.063	-200.000	-0.121	0.000
-250.049	127.118	-0.147	0.188
-249.034	-200.000	-0.058	-0.366
-248.019	-43.856	-0.075	0.038
-247.005	-194.851	-0.376	-0.003
-245.990	98.588	-0.107	-0.124
-244.976	97.628	-0.152	0.175
-243.961	-129.426	-0.175	0.024
-242.946	109.224	-0.251	0.302
-241.932	65.988	0.075	0.077
-240.917	135.102	0.118	-0.154
-239.903	-117.851	0.239	0.043
-238.888	-160.662	0.225	0.012
-237.873	293.996	-0.082	-0.151
-236.859	346.569	0.146	0.290
-235.844	-112.330	0.253	0.051
-234.830	-200.000	0.004	0.314
-233.815	-49.701	-0.209	0.100
-232.800	-8.880	-0.288	0.194
-231.786	7.015	-0.184	0.138
-230.771	-31.501	-0.101	-0.057
-229.757	-8.675	0.361	0.243
-228.742	-200.000	0.063	0.330
-227.727	-103.234	-0.318	-0.076
-226.713	-47.417	-0.121	0.059
-225.698	800.000	-0.063	-0.204
-224.684	-66.984	-0.177	0.070
-223.669	-200.000	-0.104	0.499
-222.655	-95.326	0.302	0.082
-221.640	57.487	-0.286	-0.281
-220.625	515.600	0.062	0.146
-219.611	84.875	-0.073	-0.080
-218.596	-151.755	-0.317	0.023
-217.582	61.278	0.167	0.167
-216.567	-107.090	0.103	0.023
-215.552	-3.763	-0.138	0.096
-214.538	475.763	-0.170	-0.386
-213.523	-200.000	-0.057	-0.344
-212.509	-96.556	-0.307	-0.081
-211.494	109.743	0.221	-0.266
-210.479	60.396	-0.063	0.063
-209.465	-200.000	0.024	-0.226
-208.450	414.706	-0.151	-0.322
-207.436	-160.576	0.254	0.014
-206.421	-200.000	-0.077	-0.341
-205.406	-143.257	-0.138	-0.013
-204.392	800.000	0.055	-0.154
-203.377	-96.291	-0.344	0.092
-202.363	164.502	-0.171	-0.243
-201.348	-165.543	0.264	0.012
-200.333	800.000	0.135	0.376
-199.319	800.000	-0.032	-0.097
-198.304	42.861	-0.233	-0.214
-197.290	-200.000	-0.006	0.066
-196.275	-200.000	-0.007	0.200
-195.260	-200.000	-0.045	-0.261
-194.246	-107.730	0.180	0.039
-193.231	-45.979	-0.196	-0.097
-192.217	-197.963	0.352	0.002
-191.202	-200.000	-0.019	0.328
-190.187	800.000	-0.055	0.177
-189.173	-89.791	-0.133	0.039
-188.158	-13.279	0.109	-0.071
-187.144	-39.854	0.043	0.023
-186.129	263.038	0.078	-0.136
-185.114	-98.466	0.395	0.101
-184.100	334.136	0.061	-0.119
-183.085	-64.165	0.414	-0.169
-182.071	-99.524	-0.326	0.082
-181.056	428.167	-0.014	-0.030
-180.042	-200.000	-0.029	0.358
-179.027	147.670	0.223	-0.301
-178.012	291.965	-0.145	0.264
-176.998	-200.000	0.040	0.213
-175.983	5.741	-0.380	0.282
-174.969	-143.787	0.248	0.024
-173.954	-109.453	-0.244	0.052
-172.939	-135.832	0.163	-0.019
-171.925	-44.640	0.228	0.114
-170.910	596.112	0.134	0.332
-169.896	800.000	-0.045	0.193
-168.881	139.547	-0.206	-0.272
-167.866	-67.553	0.060	0.023
-166.852	322.710	0.020	-0.038
-165.837	-172.978	-0.396	-0.012
-164.823	-200.000	0.080	0.353
-163.808	-30.860	0.357	0.202
-162.793	-89.821	-0.158	0.046
-161.779	261.517	0.051	0.088
-160.764	-106.439	0.314	-0.070
-159.750	17.127	0.229	-0.182
-158.735	184.294	0.215	-0.318
-157.720	-200.000	-0.001	-0.066
-156.706	-7.471	0.156	0.106
-155.691	-191.100	-0.246	0.003
-154.677	96.110	0.139	0.159
-153.662	800.000	0.062	-0.185
-152.647	-200.000	0.030	-0.303
-151.633	-118.300	0.554	-0.099
-150.618	-200.000	-0.022	-0.257
-149.604	61.673	-0.028	0.028
-148.589	-96.657	-0.075	0.020
-147.574	-46.432	-0.085	-0.042
-146.560	800.000	0.075	0.245
-145.545	-84.584	0.330	-0.104
-144.531	-60.295	-0.066	-0.028
-143.516	66.011	0.316	0.321
-142.502	139.976	0.218	0.288
-141.487	800.000	-0.111	0.457
-140.472	-45.590	-0.048	0.024
-139.458	-81.973	0.201	-0.066
-138.443	-62.093	0.295	-0.123
-137.429	-47.836	-0.100	-0.049
-136.414	216.173	0.067	-0.107
-135.399	-172.768	-0.354	-0.011
-134.385	-200.000	0.029	-0.200
-133.370	5.968	0.097	-0.072
-132.356	-93.482	-0.281	0.078
-131.341	-148.643	0.192	-0.016
-130.326	145.871	-0.097	0.130
-129.312	-39.406	0.245	0.129
-128.297	-200.000	-0.056	-0.335
-127.283	691.668	-0.113	0.297
-126.268	1.560	-0.276	-0.199
-125.253	-61.831	0.332	0.139
-124.239	-200.000	0.015	0.254
-123.224	-73.816	-0.184	0.067
-122.210	-123.401	-0.213	0.034
-121.195	-200.000	-0.016	-0.433
-120.180	-92.521	-0.176	-0.050
-119.166	80.567	-0.044	-0.047
-118.151	800.000	-0.105	0.296
-117.137	267.012	-0.170	0.297
-116.122	95.463	-0.251	0.287
-115.107	-25.977	0.250	-0.147
-114.093	-71.728	-0.402	0.150
-113.078	-200.000	-0.066	0.348
-112.064	44.161	-0.098	0.090
-111.049	77.585	0.253	-0.270
-110.034	800.000	-0.083	0.294
-109.020	-200.000	0.007	0.251
-108.005	-57.245	0.107	-0.047
-106.991	-105.982	-0.291	-0.066
-105.976	-200.000	0.018	0.162
-104.962	126.662	-0.080	-0.101
-103.947	412.164	0.086	0.183
-102.932	-155.564	-0.101	-0.006
-101.918	-200.000	0.002	0.091
-100.903	172.580	-0.163	-0.234
-99.889	-28.968	-0.333	0.191
-98.874	-69.307	-0.313	-0.120
-97.859	-154.517	0.133	-0.009
-96.845	-200.000	-0.010	0.155
-95.830	800.000	-0.104	0.295
-94.816	60.550	-0.116	0.114
-93.801	-117.243	-0.127	-0.023
-92.786	21.610	0.109	-0.089
-91.772	-128.279	0.117	0.017
-90.757	-84.657	0.132	-0.041
-89.743	352.727	0.071	0.141
-88.728	7.584	0.414	-0.309
-87.713	-38.966	0.112	-0.059
-86.699	4.478	0.212	-0.155
-85.684	54.018	0.273	0.263
-84.670	645.685	-0.081	-0.207
-83.655	487.728	0.065	0.147
-82.640	-92.455	0.359	-0.101
-81.626	38.773	0.160	-0.143
-80.611	-200.000	0.032	0.198
-79.597	800.000	-0.060	0.252
-78.582	-63.457	-0.040	-0.016
-77.567	-200.000	-0.008	0.042
-76.553	33.799	0.106	-0.092
-75.538	-36.187	0.216	-0.116
-74.524	-80.569	0.098	-0.033
-73.509	74.482	-0.207	0.218
-72.494	-121.206	0.236	0.039
-71.480	-200.000	-0.063	0.421
-70.465	516.455	0.122	-0.284
-69.451	254.683	-0.200	0.341
-68.436	-157.612	0.303	0.018
-67.422	15.573	-0.115	0.091
-66.407	19.380	0.031	-0.025
-65.392	-48.926	0.223	-0.107
-64.378	-200.000	-0.011	-0.058
-63.363	800.000	-0.068	-0.287
-62.349	154.162	0.060	0.082
-61.334	121.198	-0.554	-0.689
-60.319	-176.965	0.207	0.005
-59.305	800.000	-0.326	-1.049
-58.290	800.000	0.168	0.542
-57.276	800.000	0.555	1.652
-56.261	-200.000	76.182	528.846
-55.246	531.440	1327.727	3134.874
-54.232	143.300	2563.592	3406.479
-53.217	110.014	2385.307	2857.785
-52.203	49.083	2123.263	1991.225
-51.188	43.753	2029.976	1854.989
-50.173	41.890	2011.753	1821.322
-49.159	54.429	2048.931	1970.189
-48.144	59.134	2069.672	2033.198
-47.130	44.667	2034.561	1867.279
-46.115	41.886	2022.995	1831.174
-45.100	41.752	2019.782	1826.974
-44.086	41.719	2017.154	1824.216
-43.071	41.680	2015.260	1822.074
-42.057	41.602	2013.060	1819.302
-41.042	41.722	2011.148	1818.593
-40.027	41.745	2008.949	1816.750
-39.013	41.685	2007.016	1814.379
-37.998	41.751	2005.253	1813.313
-36.984	41.784	2003.493	1811.952
-35.969	41.761	2001.927	1810.257
-34.954	41.810	1999.775	1808.680
-33.940	41.819	1998.221	1807.286
-32.925	41.862	1996.398	1805.953
-31.911	41.899	1994.932	1804.887
-30.896	41.875	1993.328	1803.148
-29.881	41.892	1991.466	1801.541
-28.867	41.956	1989.887	1800.617
-27.852	41.975	1987.919	1798.937
-26.838	41.888	1986.001	1796.350
-25.823	41.985	1983.771	1795.131
-24.809	41.895	1982.671	1793.261
-23.794	41.932	1980.776	1791.805
-22.779	41.889	1978.852	1789.613
-21.765	41.813	1977.845	1787.948
-20.750	41.793	1976.018	1786.042
-19.736	41.854	1974.225	1784.895
-18.721	41.812	1972.867	1783.229
-17.706	41.842	1970.961	1781.699
-16.692	41.860	1968.974	1779.997
-15.677	41.922	1967.575	1779.208
-14.663	41.812	1966.298	1777.009
-13.648	41.861	1965.040	1776.238
-12.633	41.898	1963.616	1775.209
-11.619	41.864	1962.568	1773.884
-10.604	41.812	1961.301	1772.208
-9.590	41.797	1959.527	1770.401
-8.575	41.775	1958.214	1768.950
-7.560	41.798	1956.826	1767.828
-6.546	41.818	1955.664	1766.886
-5.531	41.955	1953.826	1766.363
-4.517	41.890	1952.946	1764.924
-3.502	41.887	1951.506	1763.530
-2.487	41.804	1950.907	1762.185
-1.473	41.891	1949.232	1761.368
-0.458	41.970	1944.517	1757.731
0.556	39.010	1924.634	1727.851
1.571	34.129	1902.108	1664.902
2.586	29.167	1921.978	1638.142
3.600	27.446	1958.814	1653.774
4.615	26.529	1955.420	1642.445
5.629	23.190	1861.508	1534.532
6.644	17.819	1747.611	1396.668
7.659	14.658	1709.805	1340.979
8.673	14.425	1705.254	1335.420
9.688	14.347	1704.074	1333.752
10.702	14.184	1702.691	1331.255
11.717	14.075	1699.921	1328.096
12.731	14.456	1698.936	1330.248
13.746	17.900	1707.652	1364.533
14.761	20.777	1712.010	1390.910
15.775	19.035	1705.941	1371.984
16.790	17.021	1700.163	1351.193
17.804	15.877	1696.106	1338.757
18.819	14.703	1693.225	1327.040
19.834	14.090	1690.000	1319.529
20.848	13.677	1688.830	1315.228
21.863	13.447	1686.372	1311.372
22.877	13.091	1685.224	1307.542
23.892	12.942	1683.329	1304.782
24.907	12.824	1682.249	1302.896
25.921	12.779	1681.529	1301.863
26.936	12.762	1680.908	1301.136
27.950	12.815	1679.548	1300.388
28.965	12.864	1678.952	1300.196
29.980	12.914	1678.335	1299.994
30.994	12.958	1677.503	1299.582
32.009	13.018	1676.321	1299.029
33.023	13.047	1675.261	1298.321
34.038	13.101	1674.261	1297.853
35.053	13.053	1672.930	1296.326
36.067	13.036	1671.489	1294.965
37.082	13.056	1670.634	1294.347
38.096	12.955	1669.538	1292.588
39.111	13.023	1668.545	1292.241
40.126	13.041	1668.361	1292.123
41.140	13.030	1667.152	1290.988
42.155	12.951	1665.643	1289.086
43.169	12.892	1664.503	1287.626
44.184	12.777	1663.274	1285.669
45.199	12.844	1661.635	1284.811
46.213	12.850	1660.305	1283.716
47.228	12.817	1659.473	1282.700
48.242	12.851	1658.208	1281.873
49.257	12.996	1657.087	1282.017
50.271	12.942	1655.937	1280.598
51.286	12.936	1654.830	1279.583
52.301	12.961	1653.324	1278.500
53.315	12.956	1652.094	1277.394
54.330	12.936	1650.317	1275.752
55.344	12.893	1648.615	1273.989
56.359	12.904	1647.584	1273.166
57.374	12.841	1646.480	1271.713
58.388	12.874	1645.012	1270.725
59.403	12.824	1643.949	1269.408
60.417	12.780	1642.547	1267.870
61.432	12.831	1641.474	1267.322
62.447	12.774	1640.584	1266.082
63.461	12.762	1639.063	1264.706
64.476	12.662	1638.131	1263.107
65.490	12.743	1637.076	1262.802
66.505	12.705	1636.124	1261.670
67.520	12.697	1635.005	1260.634
68.534	12.746	1634.100	1260.195
69.549	12.751	1633.045	1259.311
70.563	12.829	1631.313	1258.461
71.578	12.710	1630.575	1256.873
72.593	12.737	1629.346	1256.021
73.607	12.679	1628.460	1254.782
74.622	12.691	1627.326	1253.885
75.636	12.617	1626.525	1252.599
76.651	12.617	1625.854	1251.966
77.666	12.821	1624.264	1252.182
78.680	12.663	1623.884	1250.576
79.695	12.667	1622.917	1249.757
80.709	12.666	1622.115	1249.017
81.724	12.748	1620.935	1248.625
82.739	12.720	1620.470	1247.945
83.753	12.824	1619.152	1247.601
84.768	12.849	1618.238	1246.978
85.782	12.773	1617.834	1245.984
86.797	13.003	1616.769	1246.787
87.812	13.020	1615.909	1246.146
88.826	12.879	1614.659	1244.005
89.841	12.852	1613.777	1243.010
90.855	12.891	1612.567	1242.261
91.870	12.904	1611.423	1241.368
92.884	12.914	1610.257	1240.436
93.899	12.991	1609.397	1240.241
94.914	12.994	1607.838	1238.955
95.928	12.976	1606.920	1238.006
96.943	13.068	1605.065	1237.154
97.957	13.059	1603.974	1236.138
98.972	13.045	1602.543	1234.818
99.987	13.049	1600.871	1233.454
101.001	12.980	1599.175	1231.524
102.016	12.932	1598.528	1230.553
103.030	12.963	1596.555	1229.159
104.045	12.964	1595.518	1228.257
105.060	13.041	1593.912	1227.489
106.074	12.997	1592.568	1226.017
107.089	12.891	1591.120	1224.008
108.103	12.749	1589.570	1221.653
109.118	12.736	1588.204	1220.397
110.133	12.715	1586.991	1219.201
111.147	12.772	1585.166	1218.118
112.162	12.772	1584.352	1217.378
113.176	12.820	1582.504	1216.206
114.191	12.727	1581.639	1214.754
115.206	12.887	1580.104	1214.640
116.220	12.915	1578.398	1213.433
117.235	12.858	1577.668	1212.345
118.249	12.834	1576.150	1210.895
119.264	12.822	1574.879	1209.717
120.279	12.782	1573.796	1208.488
121.293	12.872	1572.184	1207.804
122.308	12.820	1570.925	1206.346
123.322	12.735	1569.664	1204.653
124.337	12.762	1568.016	1203.480
125.352	12.821	1566.664	1202.761
126.366	12.721	1565.996	1201.415
127.381	12.844	1564.558	1201.099
128.395	12.827	1563.244	1199.861
129.410	12.786	1561.989	1198.494
130.424	12.821	1560.883	1197.796
131.439	12.760	1559.788	1196.405
132.454	12.836	1558.545	1195.894
133.468	12.879	1556.452	1194.495
134.483	12.848	1555.300	1193.284
135.497	12.968	1553.715	1192.833
136.512	13.026	1552.036	1191.854
137.527	13.030	1550.734	1190.775
138.541	12.967	1549.995	1189.647
139.556	12.998	1548.605	1188.699
140.570	12.984	1547.058	1187.306
141.585	13.024	1545.706	1186.450
142.600	13.095	1544.245	1185.737
143.614	13.098	1543.597	1185.155
144.629	13.127	1541.980	1184.018
145.643	13.311	1540.561	1184.138
146.658	13.282	1538.922	1182.570
147.673	13.257	1537.642	1181.300
148.687	13.123	1536.370	1179.261
149.702	13.136	1534.677	1177.951
150.716	13.080	1533.392	1176.459
151.731	13.007	1532.066	1174.822
152.746	13.049	1530.564	1173.866
153.760	13.031	1529.432	1172.765
154.775	13.074	1527.967	1171.843
155.789	13.055	1526.736	1170.658
156.804	13.084	1525.618	1169.907
157.819	13.216	1523.902	1169.420
158.833	13.107	1523.680	1168.375
159.848	13.182	1522.207	1167.674
160.862	13.273	1520.861	1167.176
161.877	13.341	1519.013	1166.135
162.892	13.222	1518.050	1164.458
163.906	13.195	1516.762	1163.172
164.921	13.165	1515.543	1161.923
165.935	13.069	1514.745	1160.534
166.950	13.169	1513.723	1160.351
167.964	13.231	1512.579	1159.807
168.979	13.211	1511.627	1158.836
169.994	13.139	1510.516	1157.380
171.008	13.227	1509.249	1156.917
172.023	13.214	1508.269	1155.976
173.037	13.169	1507.504	1154.970
174.052	13.309	1505.798	1154.538
175.067	13.314	1504.879	1153.770
176.081	13.324	1503.759	1152.877
177.096	13.274	1502.190	1151.224
178.110	13.237	1501.138	1150.058
179.125	13.237	1500.326	1149.336
180.140	13.222	1499.118	1148.206
181.154	13.211	1497.931	1147.117
182.169	13.364	1496.448	1146.940
183.183	13.280	1495.652	1145.644
184.198	13.393	1494.528	1145.465
185.213	13.419	1493.367	1144.657
186.227	13.414	1492.437	1143.805
187.242	13.480	1491.288	1143.283
188.256	13.490	1490.445	1142.604
189.271	13.529	1489.293	1141.883
190.286	13.449	1488.506	1140.629
191.300	13.569	1487.565	1140.634
192.315	13.396	1485.699	1137.917
193.329	13.195	1485.010	1135.907
194.344	13.277	1483.227	1135.000
195.359	13.353	1482.553	1134.907
196.373	13.297	1481.488	1133.608
197.388	13.453	1480.472	1133.797
198.402	13.434	1479.714	1132.989
199.417	13.575	1478.522	1132.939
200.432	13.653	1477.408	1132.518
201.446	13.672	1476.462	1131.824
202.461	13.665	1475.469	1130.915
203.475	13.678	1474.727	1130.333
204.490	13.747	1473.507	1129.767
205.504	13.753	1472.219	1128.725
206.519	13.769	1471.120	1127.887
207.534	13.688	1469.628	1126.096
208.548	13.656	1468.697	1125.067
209.563	13.648	1467.573	1124.049
210.577	13.659	1466.703	1123.360
211.592	13.764	1465.851	1123.320
212.607	13.650	1465.180	1121.934
213.621	13.739	1464.612	1121.997
214.636	13.809	1463.942	1121.858
215.650	13.865	1462.324	1120.898
216.665	13.799	1461.317	1119.580
217.680	13.740	1461.061	1118.890
218.694	13.852	1460.542	1119.148
219.709	13.889	1459.292	1118.342
220.723	13.959	1458.627	1118.205
221.738	13.870	1457.223	1116.433
222.753	13.986	1455.940	1116.124
223.767	13.869	1455.509	1114.911
224.782	13.901	1454.561	1114.300
225.796	13.917	1453.457	1113.465
226.811	14.049	1452.749	1113.706
227.826	14.064	1451.719	1112.921
228.840	14.054	1450.236	1111.621
229.855	14.085	1449.316	1111.020
230.869	13.923	1449.260	1109.798
231.884	13.955	1447.861	1108.840
232.899	14.024	1446.524	1108.182
233.913	13.959	1445.524	1106.886
234.928	13.948	1444.384	1105.841
235.942	13.912	1442.984	1104.433
236.957	13.918	1441.727	1103.411
237.972	13.986	1440.793	1103.051
238.986	13.870	1440.011	1101.587
240.001	13.955	1438.969	1101.255
241.015	14.100	1437.765	1101.191
242.030	13.995	1436.553	1099.473
243.045	14.062	1435.393	1098.929
244.059	14.107	1435.211	1098.996
245.074	14.141	1434.011	1098.200
246.088	14.087	1433.435	1097.308
247.103	14.196	1432.042	1096.865
248.117	14.199	1432.051	1096.792
249.132	14.206	1430.994	1095.929
250.147	14.308	1430.106	1095.824
251.161	14.424	1429.548	1096.063
252.176	14.421	1429.116	1095.613
253.190	14.439	1427.926	1094.726
254.205	14.538	1427.174	1094.698
255.220	14.539	1425.938	1093.664
256.234	14.542	1425.645	1093.361
257.249	14.562	1424.469	1092.494
258.263	14.544	1423.655	1091.656
259.278	14.623	1422.800	1091.418
260.293	14.582	1421.632	1090.155
261.307	14.508	1421.155	1089.209
262.322	14.576	1420.493	1089.053
263.336	14.508	1420.128	1088.232
264.351	14.667	1418.181	1087.678
265.366	14.722	1417.512	1087.427
266.380	14.679	1416.581	1086.338
267.395	14.727	1415.314	1085.582
268.409	14.746	1414.622	1085.080
269.424	14.752	1413.597	1084.239
270.439	14.664	1412.711	1082.893
271.453	14.720	1411.752	1082.421
272.468	14.794	1410.402	1081.770
273.482	14.748	1410.340	1081.331
274.497	14.663	1409.338	1079.914
275.512	14.716	1408.456	1079.484
276.526	14.761	1407.273	1078.777
277.541	14.786	1406.067	1077.914
278.555	14.728	1405.485	1076.999
279.570	14.718	1404.827	1076.339
280.585	14.761	1403.955	1075.849
281.599	14.913	1403.001	1076.005
282.614	14.950	1401.588	1075.062
283.628	14.913	1400.790	1074.119
284.643	14.816	1399.781	1072.628
285.657	14.812	1398.868	1071.808
286.672	14.784	1398.283	1071.081
287.687	14.853	1397.204	1070.606
288.701	14.906	1395.960	1069.892
289.716	14.977	1395.033	1069.542
290.730	14.870	1394.445	1068.313
291.745	14.985	1393.265	1068.049
292.760	14.900	1392.480	1066.811
293.774	15.034	1391.255	1066.633
294.789	15.007	1390.079	1065.462
295.803	15.062	1389.782	1065.493
296.818	15.107	1388.652	1064.817
297.833	15.057	1387.731	1063.701
298.847	14.990	1387.121	1062.710
299.862	15.026	1385.767	1061.809
300.876	14.986	1384.842	1060.755
301.891	15.081	1383.828	1060.484
302.906	15.169	1382.901	1060.238
303.920	15.123	1382.552	1059.582
304.935	15.095	1382.012	1058.901
305.949	15.221	1381.002	1058.828
306.964	15.238	1380.512	1058.468
307.979	15.367	1379.072	1058.084
308.993	15.311	1377.992	1056.806
310.008	15.311	1377.255	1056.151
311.022	15.374	1375.967	1055.464
312.037	15.243	1375.179	1053.943
313.052	15.304	1374.422	1053.653
314.066	15.292	1373.583	1052.840
315.081	15.288	1372.000	1051.511
316.095	15.306	1371.153	1050.877
317.110	15.212	1370.567	1049.747
318.125	15.338	1369.056	1049.287
319.139	15.179	1368.505	1047.781
320.154	15.241	1367.325	1047.168
321.168	15.273	1366.367	1046.540
322.183	15.217	1365.685	1045.576
323.197	15.357	1364.307	1045.306
324.212	15.341	1363.605	1044.573
325.227	15.418	1362.738	1044.297
326.241	15.314	1362.128	1043.088
327.256	15.434	1360.930	1042.826
328.270	15.425	1360.093	1042.038
329.285	15.477	1358.945	1041.388
330.300	15.424	1358.340	1040.501
331.314	15.375	1357.334	1039.335
332.329	15.381	1356.471	1038.618
333.343	15.410	1355.806	1038.199
334.358	15.378	1355.121	1037.383
335.373	15.442	1354.046	1036.862
336.387	15.451	1353.260	1036.225
337.402	15.505	1352.450	1035.848
338.416	15.573	1351.903	1035.755
339.431	15.602	1350.954	1035.115
340.446	15.644	1350.677	1035.072
341.460	15.605	1349.742	1034.022
342.475	15.823	1348.176	1034.071
343.489	15.707	1347.436	1032.700
344.504	15.789	1346.581	1032.456
345.519	15.815	1345.794	1031.922
346.533	15.796	1344.630	1030.821
347.548	15.761	1343.910	1029.961
348.562	15.900	1342.694	1029.789
349.577	15.839	1342.485	1029.168
350.592	15.792	1341.845	1028.295
351.606	15.812	1340.950	1027.643
352.621	15.890	1339.573	1026.973
353.635	15.761	1338.391	1025.186
354.650	15.759	1337.974	1024.768
355.665	15.727	1336.875	1023.641
356.679	15.774	1335.856	1023.052
357.694	15.760	1334.606	1021.924
358.708	15.814	1333.472	1021.291
359.723	15.946	1331.840	1020.754
360.738	16.106	1330.836	1020.859
361.752	16.019	1330.464	1019.955
362.767	15.998	1329.102	1018.696
363.781	15.985	1328.265	1017.883
364.796	15.984	1327.780	1017.416
365.810	16.010	1327.063	1016.933
366.825	16.018	1326.191	1016.229
367.840	16.215	1325.460	1016.765
368.854	16.154	1325.102	1016.030
369.869	16.195	1324.367	1015.625
370.883	16.297	1323.459	1015.452
371.898	16.171	1322.858	1014.140
372.913	16.139	1322.151	1013.321
373.927	16.207	1321.109	1012.839
374.942	16.220	1320.113	1012.064
375.956	16.280	1319.318	1011.723
376.971	16.142	1319.006	1010.566
377.986	16.275	1317.687	1010.265
379.000	16.294	1317.015	1009.771
380.015	16.327	1316.365	1009.384
381.029	16.321	1315.786	1008.814
382.044	16.374	1315.100	1008.512
383.059	16.409	1314.139	1007.900
384.073	16.368	1313.762	1007.272
385.088	16.479	1313.023	1007.281
386.102	16.404	1312.396	1006.266
387.117	16.401	1311.713	1005.632
388.132	16.467	1310.422	1004.944
389.146	16.492	1309.546	1004.337
390.161	16.415	1308.515	1002.999
391.175	16.387	1308.199	1002.499
392.190	16.458	1307.377	1002.205
393.205	16.450	1306.578	1001.457
394.219	16.528	1305.297	1000.844
395.234	16.480	1303.842	999.357
396.248	16.599	1302.706	999.104
397.263	16.489	1301.578	997.497
398.278	16.510	1300.350	996.595
399.292	16.488	1299.046	995.378
400.307	16.426	1298.305	994.353
401.321	16.449	1297.181	993.545
402.336	16.573	1296.208	993.437
403.350	16.420	1295.171	991.660
404.365	16.423	1294.524	991.094
405.380	16.512	1293.544	990.775
406.394	16.460	1292.809	989.822
407.409	16.614	1291.669	989.759
408.423	16.628	1291.176	989.379
409.438	16.673	1290.676	989.172
410.453	16.641	1290.230	988.551
411.467	16.799	1289.163	988.571
412.482	16.968	1288.404	988.885
413.496	16.737	1288.385	987.435
414.511	16.821	1287.455	987.124
415.526	16.891	1286.100	986.406
416.540	16.888	1285.489	985.837
417.555	16.926	1285.145	985.704
418.569	16.976	1284.299	985.259
419.584	16.953	1284.131	984.906
420.599	16.973	1283.389	984.369
421.613	76.880	1321.672	1358.360
422.628	75.891	1327.244	1358.497
