DTS Sentinel unit serial number:	SN413079Multiplexer serial number:	ORYXHardware model number:	OX4-SRSoftware version number:	ORYX F/W v4.00 Oryx Data Collector v3.7.2.0data status	okinstallation	princeton_trtdifferential loss correction	single-endedforward channel	channel 4reverse channel	N/Adate	2019/09/19time	02:57:35forward acquisition time	60.00reverse acquisition time	0.00gamma	496.2192k internal	0.2340k external	0.2340temperature offset calibration	1.0025default loss term (dB/km)	0.3790temperature slope calibration	1.0000multiplexer offset coefficient	1.0000multiplexer slope coefficient	1.0000fibre end	0.00T internal ref (°C)	20.87T ext. ref 1 (°C)	0.65T ext. ref 2 (°C)	14.71length (m)	temperature (°C)	Stokes	anti-Stokes-747.200	-200.000	0.016	-0.180
-746.185	-200.000	-0.044	0.331
-745.171	137.709	-0.250	-0.329
-744.156	238.294	-0.032	-0.054
-743.142	-200.000	-0.046	-0.252
-742.127	-38.169	-0.194	-0.103
-741.112	44.272	0.203	-0.186
-740.098	142.097	-0.053	0.070
-739.083	60.931	-0.048	0.048
-738.069	256.939	0.259	0.445
-737.054	-130.475	-0.109	-0.015
-736.039	-134.931	-0.191	0.023
-735.025	800.000	0.080	0.258
-734.010	133.838	-0.160	-0.208
-732.996	-120.135	0.323	0.055
-731.981	40.646	0.019	-0.017
-730.966	21.690	-0.110	-0.090
-729.952	-50.971	-0.187	0.088
-728.937	-120.876	-0.348	-0.059
-727.923	-177.231	0.124	-0.003
-726.908	231.725	-0.068	-0.111
-725.894	800.000	-0.072	-0.235
-724.879	-50.294	0.180	0.085
-723.864	352.851	-0.057	-0.112
-722.850	800.000	0.117	-0.418
-721.835	11.215	0.139	-0.106
-720.821	-12.051	0.479	0.314
-719.806	349.937	-0.086	-0.169
-718.791	-200.000	0.065	0.377
-717.777	800.000	-0.076	-0.294
-716.762	-94.550	-0.341	-0.093
-715.748	-66.223	0.162	-0.065
-714.733	4.445	-0.272	-0.199
-713.718	473.586	0.073	0.164
-712.704	409.921	-0.052	-0.109
-711.689	136.427	0.042	0.054
-710.675	-72.099	0.181	-0.067
-709.660	3.075	-0.041	-0.030
-708.645	-89.884	-0.359	-0.105
-707.631	689.615	-0.058	-0.152
-706.616	105.529	-0.110	0.130
-705.602	-200.000	0.008	0.275
-704.587	-200.000	-0.016	-0.210
-703.572	357.557	0.070	-0.140
-702.558	-92.280	0.096	-0.027
-701.543	-116.935	-0.117	0.021
-700.529	-200.000	-0.026	-0.139
-699.514	-49.924	0.312	-0.148
-698.499	146.071	-0.070	-0.094
-697.485	96.060	-0.145	0.166
-696.470	-40.296	-0.144	0.075
-695.456	800.000	-0.024	-0.067
-694.441	-74.521	-0.254	0.092
-693.426	-48.761	0.040	0.019
-692.412	177.822	0.112	0.164
-691.397	-32.655	-0.326	-0.181
-690.383	92.226	0.086	-0.097
-689.368	22.661	-0.156	0.128
-688.354	289.262	-0.064	-0.117
-687.339	-200.000	-0.009	0.199
-686.324	-27.559	-0.515	0.299
-685.310	-200.000	-0.034	0.190
-684.295	253.958	0.117	0.200
-683.281	291.868	-0.086	0.156
-682.266	111.203	0.106	0.128
-681.251	-200.000	0.052	0.344
-680.237	800.000	0.026	-0.096
-679.222	563.294	0.063	-0.152
-678.208	-17.358	-0.284	-0.179
-677.193	171.497	-0.039	-0.056
-676.178	245.059	-0.045	0.076
-675.164	800.000	-0.115	-0.412
-674.149	-200.000	-0.003	-0.043
-673.135	177.674	0.083	0.121
-672.120	-200.000	-0.026	0.144
-671.105	168.793	-0.209	0.298
-670.091	5.055	0.143	0.105
-669.076	-59.007	-0.143	0.062
-668.062	800.000	-0.055	0.203
-667.047	-200.000	-0.003	0.141
-666.032	-130.879	-0.251	-0.034
-665.018	-178.197	0.165	0.004
-664.003	-144.332	-0.090	-0.008
-662.989	134.592	-0.158	-0.205
-661.974	-92.430	0.074	-0.021
-660.959	-76.218	0.180	-0.063
-659.945	98.857	0.077	-0.089
-658.930	-143.238	-0.127	0.012
-657.916	-200.000	-0.019	-0.159
-656.901	260.593	0.050	0.087
-655.886	-200.000	0.053	0.449
-654.872	264.395	0.113	0.196
-653.857	137.851	-0.040	-0.053
-652.843	-112.992	-0.276	-0.054
-651.828	-200.000	-0.012	-0.249
-650.814	135.766	0.084	0.110
-649.799	-40.707	0.316	-0.163
-648.784	-36.997	-0.100	-0.054
-647.770	128.814	0.190	-0.242
-646.755	-200.000	0.047	0.232
-645.741	-58.006	0.240	0.105
-644.726	103.668	-0.157	0.184
-643.711	-23.393	-0.060	-0.036
-642.697	-31.447	0.058	0.033
-641.682	773.248	0.028	0.076
-640.668	-115.574	-0.031	0.006
-639.653	86.735	-0.202	-0.223
-638.638	-178.611	0.208	0.005
-637.624	-200.000	0.012	-0.364
-636.609	110.723	-0.166	-0.199
-635.595	64.065	0.270	-0.272
-634.580	-56.162	0.116	0.051
-633.565	-200.000	-0.004	-0.266
-632.551	408.988	-0.063	-0.133
-631.536	-44.671	0.287	-0.143
-630.522	-149.805	-0.155	-0.012
-629.507	-200.000	0.054	0.271
-628.492	-56.741	-0.192	0.085
-627.478	-200.000	-0.021	0.103
-626.463	-200.000	-0.052	0.230
-625.449	-107.355	0.071	0.016
-624.434	-14.162	0.088	-0.056
-623.419	-200.000	-0.018	-0.090
-622.405	800.000	0.096	-0.409
-621.390	-110.708	-0.254	-0.052
-620.376	-66.888	-0.323	-0.127
-619.361	-200.000	0.044	0.249
-618.346	800.000	0.096	-0.315
-617.332	-30.475	-0.209	-0.118
-616.317	800.000	0.073	-0.253
-615.303	-78.786	-0.132	-0.045
-614.288	76.366	-0.083	-0.088
-613.273	-200.000	-0.002	0.452
-612.259	-82.836	-0.514	-0.166
-611.244	185.325	0.104	-0.153
-610.230	-124.184	-0.241	0.038
-609.215	-200.000	0.020	0.329
-608.201	-200.000	-0.040	-0.367
-607.186	30.095	-0.088	-0.075
-606.171	800.000	-0.089	0.258
-605.157	-200.000	-0.013	0.168
-604.142	103.766	0.140	0.164
-603.128	240.566	0.323	0.538
-602.113	-91.220	-0.308	-0.088
-601.098	83.402	-0.199	-0.217
-600.084	38.530	0.078	-0.069
-599.069	800.000	-0.046	-0.137
-598.055	744.858	0.066	-0.178
-597.040	104.205	-0.167	-0.196
-596.025	-200.000	0.017	-0.367
-595.011	41.269	-0.207	0.186
-593.996	-158.552	0.176	0.010
-592.982	-62.437	-0.186	-0.077
-591.967	-151.012	0.344	0.026
-590.952	-200.000	-0.002	0.083
-589.938	-131.755	0.139	-0.018
-588.923	174.901	0.167	0.241
-587.909	291.538	0.005	0.009
-586.894	-200.000	0.071	-0.350
-585.879	-91.678	0.341	0.097
-584.865	-64.868	0.159	-0.064
-583.850	-200.000	-0.029	-0.156
-582.836	-24.750	-0.254	-0.150
-581.821	-84.555	-0.074	-0.023
-580.806	-200.000	0.032	0.152
-579.792	17.348	0.073	0.058
-578.777	190.797	0.034	-0.050
-577.763	-79.421	0.159	0.053
-576.748	394.832	-0.189	-0.393
-575.733	145.410	-0.136	-0.181
-574.719	-25.695	-0.197	0.116
-573.704	144.344	-0.170	-0.226
-572.690	-46.498	0.282	-0.138
-571.675	282.923	-0.224	0.401
-570.661	800.000	0.144	0.533
-569.646	-200.000	-0.034	-0.375
-568.631	178.978	0.138	0.201
-567.617	-200.000	0.007	0.389
-566.602	47.768	0.150	-0.139
-565.588	92.237	-0.092	-0.104
-564.573	21.049	-0.053	-0.043
-563.558	800.000	0.034	-0.103
-562.544	-108.730	-0.130	-0.028
-561.529	-200.000	-0.064	-0.312
-560.515	217.022	-0.128	-0.203
-559.500	-35.222	-0.122	-0.066
-558.485	0.206	-0.086	0.061
-557.471	613.586	-0.020	0.049
-556.456	275.951	-0.036	-0.064
-555.442	339.142	0.181	-0.351
-554.427	-0.254	0.172	-0.122
-553.412	-126.477	-0.109	0.016
-552.398	494.279	0.140	-0.320
-551.383	45.167	-0.192	-0.176
-550.369	-94.997	-0.183	-0.049
-549.354	-32.911	0.277	0.153
-548.339	115.068	0.150	-0.182
-547.325	-35.026	0.109	-0.059
-546.310	-77.399	0.144	0.050
-545.296	-56.066	-0.104	-0.046
-544.281	-200.000	0.037	0.210
-543.266	-148.137	-0.126	-0.010
-542.252	-87.160	-0.241	-0.073
-541.237	800.000	-0.046	-0.161
-540.223	-125.720	0.239	0.036
-539.208	-19.163	-0.293	-0.181
-538.193	-200.000	0.032	0.147
-537.179	103.452	0.154	-0.179
-536.164	-200.000	-0.003	-0.160
-535.150	51.426	0.195	0.184
-534.135	-200.000	0.001	-0.021
-533.121	-129.340	0.425	-0.059
-532.106	150.402	-0.039	0.053
-531.091	-23.759	0.119	0.071
-530.077	282.819	-0.125	0.224
-529.062	-76.144	-0.392	-0.138
-528.048	77.695	0.080	-0.085
-527.033	102.373	-0.280	0.325
-526.018	-53.245	-0.208	-0.095
-525.004	788.487	-0.095	0.260
-523.989	-107.588	-0.275	0.060
-522.975	800.000	0.059	-0.205
-521.960	-149.382	0.192	-0.015
-520.945	800.000	-0.094	0.388
-519.931	-121.564	-0.194	-0.032
-518.916	-200.000	0.023	0.154
-517.902	91.191	0.232	-0.259
-516.887	101.757	0.135	-0.157
-515.872	-200.000	0.019	-0.084
-514.858	-200.000	0.065	0.286
-513.843	-200.000	-0.030	0.137
-512.829	145.748	0.143	-0.191
-511.814	-26.013	-0.395	-0.231
-510.799	317.581	-0.199	-0.374
-509.785	-16.782	-0.287	0.181
-508.770	800.000	-0.147	-0.430
-507.756	-200.000	-0.014	-0.409
-506.741	162.599	-0.218	0.304
-505.726	-35.401	0.166	-0.090
-504.712	-200.000	0.018	-0.083
-503.697	-148.190	-0.088	0.007
-502.683	83.188	-0.211	0.228
-501.668	203.869	-0.109	-0.167
-500.653	-69.893	-0.271	0.103
-499.639	105.817	-0.127	-0.149
-498.624	194.628	-0.130	-0.195
-497.610	18.582	0.114	0.090
-496.595	-200.000	0.028	-0.207
-495.581	-200.000	-0.035	0.170
-494.566	577.703	0.073	-0.177
-493.551	-127.971	-0.187	-0.027
-492.537	381.525	-0.131	-0.267
-491.522	300.693	-0.091	0.167
-490.508	211.462	-0.119	-0.186
-489.493	-170.281	-0.258	0.009
-488.478	629.300	0.154	-0.386
-487.464	-7.963	0.105	0.070
-486.449	-200.000	-0.015	-0.136
-485.435	-200.000	0.083	0.381
-484.420	484.342	0.070	-0.158
-483.405	-132.842	0.175	0.022
-482.391	138.782	-0.087	0.113
-481.376	800.000	0.132	-0.412
-480.362	800.000	-0.081	0.242
-479.347	783.946	0.050	-0.135
-478.332	24.210	0.143	0.117
-477.318	-60.568	-0.061	-0.026
-476.303	-53.096	-0.150	-0.069
-475.289	108.518	0.174	-0.206
-474.274	39.871	-0.248	0.221
-473.259	-160.978	0.201	0.010
-472.245	277.314	0.204	-0.361
-471.230	-15.154	-0.142	0.090
-470.216	-200.000	0.005	0.144
-469.201	-200.000	0.025	0.277
-468.186	-37.227	0.101	-0.054
-467.172	30.905	0.267	0.227
-466.157	-200.000	0.052	0.485
-465.143	418.015	0.052	-0.111
-464.128	74.465	0.154	0.161
-463.113	-147.703	-0.456	0.038
-462.099	800.000	0.012	0.035
-461.084	-200.000	0.018	0.175
-460.070	498.025	-0.106	0.241
-459.055	32.835	-0.040	0.034
-458.040	34.033	-0.069	-0.059
-457.026	158.997	-0.139	-0.191
-456.011	6.587	0.158	-0.116
-454.997	-200.000	0.006	-0.206
-453.982	274.196	-0.194	0.340
-452.968	-200.000	-0.014	-0.142
-451.953	-200.000	0.264	-0.001
-450.938	-43.092	0.337	0.169
-449.924	86.072	0.104	0.114
-448.909	-200.000	-0.031	-0.279
-447.895	3.137	-0.343	-0.247
-446.880	-171.557	0.065	-0.002
-445.865	-200.000	0.017	0.080
-444.851	36.412	-0.088	0.077
-443.836	-102.368	0.158	-0.038
-442.822	-93.751	-0.097	-0.027
-441.807	-200.000	-0.017	0.083
-440.792	-200.000	-0.035	0.258
-439.778	-200.000	-0.020	-0.111
-438.763	-129.133	-0.274	-0.038
-437.749	-71.523	-0.176	0.065
-436.734	-200.000	0.006	0.029
-435.719	-138.198	0.029	0.003
-434.705	-200.000	0.058	0.313
-433.690	9.583	-0.155	-0.116
-432.676	800.000	0.087	-0.255
-431.661	17.070	0.046	-0.036
-430.646	-200.000	0.036	-0.250
-429.632	431.922	-0.204	0.437
-428.617	-200.000	-0.004	-0.048
-427.603	-110.447	0.166	0.034
-426.588	-178.075	-0.099	0.002
-425.573	-8.238	-0.112	0.074
-424.559	-200.000	-0.002	0.008
-423.544	-80.753	0.063	0.021
-422.530	-118.292	-0.355	0.062
-421.515	-200.000	0.014	0.298
-420.500	42.596	-0.040	0.036
-419.486	42.811	0.069	0.063
-418.471	800.000	-0.076	-0.290
-417.457	-86.619	-0.347	-0.105
-416.442	-162.033	0.129	-0.006
-415.428	156.715	-0.042	-0.057
-414.413	-60.677	-0.265	0.111
-413.398	-75.420	0.191	-0.067
-412.384	-163.023	-0.051	-0.002
-411.369	492.902	0.050	-0.113
-410.355	-200.000	0.005	0.437
-409.340	457.218	-0.085	-0.186
-408.325	-200.000	-0.036	-0.174
-407.311	-91.822	0.192	-0.054
-406.296	42.583	0.036	0.032
-405.282	-110.306	0.337	0.069
-404.267	-200.000	-0.005	0.465
-403.252	-81.817	0.073	-0.024
-402.238	-200.000	-0.050	-0.233
-401.223	-54.565	0.154	-0.069
-400.209	800.000	-0.013	0.051
-399.194	309.706	-0.089	-0.165
-398.179	181.217	-0.195	0.284
-397.165	139.773	0.192	0.251
-396.150	373.483	0.096	0.193
-395.136	391.899	0.091	-0.187
-394.121	14.760	0.242	-0.187
-393.106	344.470	-0.012	-0.024
-392.092	-200.000	-0.004	0.025
-391.077	800.000	-0.087	0.327
-390.063	155.262	0.120	0.163
-389.048	800.000	0.122	-0.377
-388.033	-32.576	-0.053	-0.029
-387.019	-70.392	-0.246	-0.092
-386.004	-200.000	-0.321	-0.001
-384.990	-200.000	0.032	-0.169
-383.975	101.097	-0.263	0.302
-382.960	262.311	-0.112	0.191
-381.946	-101.266	0.316	0.076
-380.931	269.707	0.053	-0.091
-379.917	-200.000	0.012	0.232
-378.902	343.018	0.090	0.174
-377.888	491.050	0.127	0.288
-376.873	-156.667	-0.029	-0.002
-375.858	-200.000	0.005	0.099
-374.844	103.472	-0.130	-0.151
-373.829	-102.070	0.210	-0.050
-372.815	61.169	0.103	0.101
-371.800	-200.000	-0.012	0.288
-370.785	602.644	-0.081	0.198
-369.771	394.097	0.143	0.293
-368.756	275.154	0.045	-0.079
-367.742	800.000	0.089	-0.312
-366.727	-200.000	-0.020	-0.357
-365.712	-70.497	0.290	0.108
-364.698	-127.200	-0.060	0.009
-363.683	-164.710	-0.301	-0.013
-362.669	-40.924	-0.217	-0.111
-361.654	253.534	-0.224	0.378
-360.639	-200.000	-0.037	0.238
-359.625	228.886	0.085	0.137
-358.610	-200.000	-0.023	0.175
-357.596	-10.870	0.150	-0.098
-356.581	354.481	0.198	0.388
-355.566	181.951	-0.043	-0.063
-354.552	-52.002	0.169	0.077
-353.537	-8.333	-0.120	0.080
-352.523	143.028	-0.142	-0.187
-351.508	170.146	-0.130	-0.184
-350.493	-164.556	-0.199	0.009
-349.479	159.183	0.060	0.083
-348.464	-65.827	0.231	0.091
-347.450	-109.349	-0.336	-0.070
-346.435	157.463	-0.105	0.144
-345.420	-81.450	-0.056	-0.018
-344.406	800.000	-0.079	-0.328
-343.391	-200.000	0.038	-0.167
-342.377	216.245	0.070	-0.110
-341.362	-200.000	0.003	-0.569
-340.348	-200.000	0.030	0.150
-339.333	-200.000	-0.002	-0.314
-338.318	-101.857	0.393	0.094
-337.304	72.143	0.212	0.218
-336.289	-151.655	-0.236	-0.017
-335.275	87.334	-0.073	-0.079
-334.260	3.056	0.091	0.065
-333.245	27.914	-0.296	-0.246
-332.231	36.346	0.185	0.161
-331.216	-200.000	0.008	-0.088
-330.202	-133.468	-0.327	0.041
-329.187	-200.000	-0.014	0.261
-328.172	349.145	0.130	-0.253
-327.158	800.000	0.092	-0.330
-326.143	-200.000	-0.003	-0.156
-325.129	-164.624	0.188	0.008
-324.114	51.136	0.229	-0.214
-323.099	800.000	0.064	-0.202
-322.085	-200.000	0.004	0.382
-321.070	-35.670	-0.070	0.038
-320.056	-30.341	0.343	-0.192
-319.041	-153.190	0.280	-0.019
-318.026	-47.099	0.034	0.016
-317.012	-6.538	-0.185	-0.125
-315.997	335.476	-0.148	-0.282
-314.983	24.061	0.408	-0.332
-313.968	-30.531	0.256	0.143
-312.953	592.175	-0.099	-0.241
-311.939	-1.250	0.186	0.129
-310.924	-80.141	0.264	0.087
-309.910	222.816	-0.202	0.321
-308.895	-144.466	0.190	0.017
-307.880	-27.751	-0.141	0.081
-306.866	-109.819	0.221	0.046
-305.851	-57.216	-0.105	-0.045
-304.837	-47.440	-0.331	-0.159
-303.822	47.873	-0.108	-0.100
-302.807	298.304	-0.247	-0.447
-301.793	-200.000	0.007	0.066
-300.778	800.000	0.064	-0.176
-299.764	800.000	-0.038	0.144
-298.749	-200.000	-0.056	0.511
-297.735	437.194	-0.149	0.320
-296.720	-200.000	-0.006	-0.275
-295.705	-132.630	-0.135	0.017
-294.691	-116.128	0.218	0.040
-293.676	800.000	-0.023	0.068
-292.662	99.587	-0.117	-0.134
-291.647	364.083	-0.044	0.087
-290.632	-10.070	-0.272	-0.178
-289.618	-32.974	0.120	-0.066
-288.603	11.602	-0.139	0.105
-287.589	161.621	0.116	-0.159
-286.574	496.177	0.090	0.204
-285.559	-51.135	0.100	-0.046
-284.545	800.000	0.086	-0.363
-283.530	-200.000	-0.006	0.238
-282.516	800.000	0.006	0.016
-281.501	-139.037	-0.192	-0.020
-280.486	800.000	0.028	0.088
-279.472	-200.000	-0.021	0.094
-278.457	81.531	-0.149	0.159
-277.443	-200.000	0.004	0.215
-276.428	-129.611	-0.156	0.021
-275.413	-58.073	-0.270	-0.116
-274.399	-29.341	-0.303	-0.171
-273.384	-145.084	0.401	0.036
-272.370	-200.000	-0.002	-0.403
-271.355	800.000	0.017	-0.048
-270.340	-45.155	0.180	0.088
-269.326	-103.041	0.294	-0.069
-268.311	381.436	-0.046	-0.093
-267.297	58.078	0.244	-0.235
-266.282	-158.245	-0.242	0.014
-265.267	800.000	-0.028	-0.113
-264.253	81.943	0.268	0.286
-263.238	-200.000	0.203	0.001
-262.224	126.389	-0.278	-0.347
-261.209	-200.000	0.031	-0.183
-260.195	46.270	0.246	-0.224
-259.180	-59.432	0.018	0.008
-258.165	-80.752	0.220	-0.072
-257.151	-200.000	-0.059	-0.261
-256.136	200.257	0.115	-0.174
-255.122	363.320	-0.016	0.032
-254.107	112.088	0.246	-0.292
-253.092	59.516	-0.040	-0.038
-252.078	45.408	0.152	0.138
-251.063	78.613	0.206	0.216
-250.049	-12.367	-0.167	-0.107
-249.034	536.007	0.161	-0.376
-248.019	-32.745	0.291	-0.159
-247.005	140.276	-0.170	0.221
-245.990	800.000	0.059	0.161
-244.976	359.038	-0.143	0.281
-243.961	-52.170	0.176	0.080
-242.946	800.000	0.026	0.079
-241.932	-200.000	-0.030	0.377
-240.917	292.255	0.039	-0.069
-239.903	-200.000	0.018	0.183
-238.888	-90.563	0.376	0.107
-237.873	-104.741	-0.171	0.039
-236.859	312.862	-0.063	0.117
-235.844	-200.000	0.033	0.409
-234.830	-200.000	-0.051	-0.355
-233.815	743.920	-0.055	-0.146
-232.800	-135.763	0.315	0.037
-231.786	-200.000	0.077	0.365
-230.771	800.000	0.014	-0.049
-229.757	242.524	0.090	0.147
-228.742	411.608	0.074	-0.154
-227.727	7.628	-0.174	-0.128
-226.713	-33.568	-0.311	0.169
-225.698	-200.000	-0.040	0.292
-224.684	491.138	0.023	-0.052
-223.669	-2.650	0.255	-0.175
-222.655	-165.609	0.382	-0.016
-221.640	-92.567	-0.104	0.029
-220.625	24.621	0.079	0.064
-219.611	-22.424	-0.129	0.077
-218.596	-66.499	-0.161	0.063
-217.582	410.683	0.052	-0.109
-216.567	-169.738	-0.229	-0.008
-215.552	-200.000	-0.043	0.282
-214.538	29.520	-0.148	0.124
-213.523	116.822	-0.048	0.058
-212.509	-117.555	0.310	0.055
-211.494	323.395	0.035	0.066
-210.479	-84.480	-0.076	-0.023
-209.465	133.469	0.084	-0.107
-208.450	-110.474	0.332	0.068
-207.436	-200.000	-0.008	-0.083
-206.421	-200.000	-0.013	0.158
-205.406	22.988	0.277	0.223
-204.392	-34.158	-0.082	0.044
-203.377	440.575	0.156	-0.334
-202.363	593.462	0.026	0.063
-201.348	-200.000	0.082	0.516
-200.333	-66.730	0.068	-0.027
-199.319	384.205	-0.123	0.248
-198.304	202.804	-0.069	-0.105
-197.290	83.491	-0.109	0.117
-196.275	-44.002	-0.364	0.179
-195.260	800.000	-0.085	0.235
-194.246	448.265	0.059	0.127
-193.231	41.370	0.153	0.136
-192.217	342.686	0.135	0.259
-191.202	-200.000	0.026	-0.436
-190.187	-82.346	-0.122	0.039
-189.173	-5.643	-0.186	0.125
-188.158	-70.866	-0.214	0.079
-187.144	448.268	0.086	-0.186
-186.129	45.821	0.113	0.103
-185.114	-6.043	0.101	0.068
-184.100	800.000	0.037	0.147
-183.085	-63.541	0.099	0.040
-182.071	-116.484	-0.220	0.040
-181.056	-122.353	-0.106	-0.017
-180.042	271.108	0.108	0.187
-179.027	-200.000	-0.045	-0.258
-178.012	-170.680	0.533	-0.018
-176.998	-200.000	-0.062	-0.358
-175.983	-82.205	0.375	-0.120
-174.969	143.049	-0.109	0.143
-173.954	-200.000	0.004	0.142
-172.939	-80.574	0.391	0.128
-171.925	800.000	0.061	0.241
-170.910	-30.902	-0.168	0.093
-169.896	-28.858	-0.363	-0.205
-168.881	-200.000	-0.039	0.279
-167.866	-200.000	-0.055	-0.283
-166.852	-92.670	-0.070	0.019
-165.837	-200.000	-0.030	0.143
-164.823	-107.455	-0.284	0.061
-163.808	436.557	-0.054	-0.116
-162.793	800.000	0.035	-0.142
-161.779	474.816	0.158	0.350
-160.764	25.108	-0.114	0.093
-159.750	125.244	-0.255	0.315
-158.735	-126.220	0.343	0.050
-157.720	429.262	0.078	0.165
-156.706	-200.000	0.010	0.179
-155.691	-12.187	0.205	0.131
-154.677	153.771	0.223	0.300
-153.662	-19.401	-0.122	-0.074
-152.647	542.855	-0.128	0.298
-151.633	147.488	-0.111	-0.146
-150.618	-95.989	-0.103	-0.027
-149.604	-107.357	-0.252	-0.054
-148.589	-126.726	0.179	-0.026
-147.574	-1.952	0.150	0.103
-146.560	-21.767	0.322	0.192
-145.545	-33.968	0.366	0.197
-144.531	-18.496	0.331	-0.202
-143.516	586.834	-0.062	0.149
-142.502	-200.000	0.004	0.128
-141.487	504.389	0.083	0.188
-140.472	66.488	0.188	0.187
-139.458	37.786	0.143	-0.124
-138.443	447.696	0.102	0.220
-137.429	-200.000	0.046	-0.232
-136.414	-27.649	0.298	0.170
-135.399	-40.391	-0.124	-0.063
-134.385	-111.478	0.284	0.057
-133.370	-54.500	-0.160	-0.071
-132.356	-200.000	-0.041	0.262
-131.341	260.412	0.079	-0.134
-130.326	-126.559	-0.422	0.061
-129.312	-49.743	-0.191	-0.089
-128.297	-190.533	0.145	-0.002
-127.283	-79.451	-0.336	-0.111
-126.268	324.893	0.113	0.211
-125.253	125.744	-0.091	0.113
-124.239	-65.246	0.064	-0.025
-123.224	35.167	0.230	-0.198
-122.210	-200.000	-0.032	0.198
-121.195	-24.634	-0.283	0.165
-120.180	-90.224	-0.260	0.074
-119.166	800.000	0.080	0.245
-118.151	113.021	-0.210	-0.249
-117.137	-19.420	-0.219	0.133
-116.122	-16.888	-0.163	0.101
-115.107	-6.664	-0.086	-0.057
-114.093	69.327	-0.326	0.328
-113.078	-200.000	-0.003	0.537
-112.064	-122.135	0.085	-0.014
-111.049	-8.954	-0.254	-0.166
-110.034	96.336	-0.088	0.098
-109.020	800.000	0.115	0.358
-108.005	-200.000	0.066	0.354
-106.991	-82.994	0.300	-0.094
-105.976	-87.710	0.052	0.015
-104.962	-200.000	-0.017	0.127
-103.947	-200.000	0.101	0.676
-102.932	-56.504	0.331	-0.144
-101.918	-32.345	0.375	0.205
-100.903	-21.058	0.060	-0.036
-99.889	77.403	-0.277	-0.288
-98.874	-200.000	0.012	0.145
-97.859	206.513	-0.104	-0.158
-96.845	-200.000	0.000	0.098
-95.830	-152.262	0.092	0.006
-94.816	283.574	-0.078	0.137
-93.801	-98.115	0.243	-0.061
-92.786	211.067	-0.046	0.070
-91.772	643.386	-0.064	0.160
-90.757	52.617	-0.067	-0.063
-89.743	52.431	-0.167	0.156
-88.728	-115.985	0.146	-0.027
-87.713	54.710	-0.079	0.075
-86.699	-104.286	-0.167	0.038
-85.684	-11.372	0.320	0.206
-84.670	-50.704	-0.327	-0.150
-83.655	13.927	0.316	-0.240
-82.640	-22.738	-0.290	-0.171
-81.626	-70.393	0.173	-0.064
-80.611	117.403	-0.055	0.066
-79.597	-200.000	0.005	0.258
-78.582	-200.000	0.004	-0.090
-77.567	69.172	-0.110	0.110
-76.553	212.645	0.138	0.212
-75.538	144.757	0.214	0.279
-74.524	-13.460	0.063	-0.040
-73.509	653.251	0.112	-0.279
-72.494	-200.000	0.036	0.331
-71.480	9.779	-0.224	-0.166
-70.465	56.171	-0.327	-0.310
-69.451	800.000	-0.047	0.132
-68.436	-157.409	0.151	-0.009
-67.422	225.853	-0.115	-0.182
-66.407	-200.000	-0.051	-0.240
-65.392	-41.445	0.114	0.057
-64.378	501.885	-0.133	-0.300
-63.363	-86.392	-0.084	0.025
-62.349	67.793	-0.220	-0.220
-61.334	172.599	-1.001	-1.406
-60.319	108.837	0.543	0.633
-59.305	800.000	-0.590	-1.591
-58.290	259.542	1.029	1.733
-57.276	800.000	0.518	1.446
-56.261	-200.000	135.608	681.943
-55.246	337.884	1677.644	3184.682
-54.232	132.295	2813.882	3538.480
-53.217	79.729	2350.464	2463.027
-52.203	27.264	2088.956	1712.270
-51.188	22.531	2006.777	1601.922
-50.173	21.584	1992.036	1581.546
-49.159	40.115	2069.244	1814.810
-48.144	37.640	2079.494	1800.865
-47.130	22.948	2031.957	1625.604
-46.115	20.910	2020.955	1598.071
-45.100	20.887	2017.588	1595.136
-44.086	20.854	2014.878	1592.628
-43.071	20.709	2012.885	1589.665
-42.057	20.708	2010.644	1587.823
-41.042	20.741	2008.667	1586.496
-40.027	20.792	2006.526	1585.211
-39.013	20.726	2005.750	1583.932
-37.998	20.826	2003.273	1582.820
-36.984	20.770	2001.143	1580.566
-35.969	20.735	1999.492	1578.886
-34.954	20.794	1998.030	1578.199
-33.940	20.929	1996.269	1577.968
-32.925	20.891	1994.819	1576.414
-31.911	20.890	1993.102	1574.992
-30.896	20.899	1991.669	1573.872
-29.881	20.908	1990.233	1572.758
-28.867	20.968	1988.307	1571.716
-27.852	20.876	1987.121	1569.883
-26.838	20.967	1985.029	1568.987
-25.823	20.898	1982.976	1566.684
-24.809	20.935	1981.246	1565.591
-23.794	20.893	1979.676	1563.906
-22.779	20.907	1978.479	1563.022
-21.765	20.975	1976.152	1561.736
-20.750	20.985	1974.417	1560.393
-19.736	20.886	1973.492	1558.714
-18.721	20.891	1971.651	1557.243
-17.706	20.901	1969.864	1555.856
-16.692	20.834	1968.036	1553.754
-15.677	20.885	1966.663	1553.066
-14.663	20.823	1965.805	1551.769
-13.648	20.985	1964.171	1551.866
-12.633	20.933	1962.800	1550.254
-11.619	20.903	1961.811	1549.145
-10.604	20.805	1960.286	1547.009
-9.590	20.823	1958.963	1546.060
-8.575	20.896	1957.602	1545.573
-7.560	20.874	1956.499	1544.452
-6.546	20.894	1955.002	1543.381
-5.531	20.878	1953.580	1542.059
-4.517	20.867	1952.840	1541.316
-3.502	20.857	1951.431	1540.056
-2.487	20.867	1949.747	1538.756
-1.473	20.948	1949.007	1538.825
-0.458	20.901	1944.000	1534.392
0.556	19.607	1923.767	1505.572
1.571	15.268	1905.321	1453.469
2.586	11.496	1928.821	1438.099
3.600	10.698	1964.296	1457.263
4.615	10.906	1956.820	1453.446
5.629	8.737	1856.968	1360.741
6.644	3.660	1746.540	1239.055
7.659	0.909	1715.853	1195.470
8.673	0.675	1713.205	1191.670
9.688	0.705	1711.597	1190.684
10.702	0.688	1710.074	1189.386
11.717	0.552	1705.848	1185.274
12.731	0.901	1704.531	1186.987
13.746	5.032	1712.595	1225.003
14.761	11.797	1726.437	1288.212
15.775	16.269	1734.956	1329.757
16.790	17.114	1735.255	1336.522
17.804	16.234	1732.702	1327.515
18.819	15.335	1728.784	1317.336
19.834	14.731	1727.315	1311.360
20.848	14.450	1725.597	1307.735
21.863	14.357	1723.376	1305.213
22.877	14.017	1722.236	1301.566
23.892	13.789	1720.276	1298.192
24.907	13.663	1719.367	1296.400
25.921	13.665	1718.159	1295.395
26.936	13.630	1717.650	1294.621
27.950	13.700	1716.370	1294.091
28.965	13.648	1716.411	1293.597
29.980	13.775	1715.346	1293.669
30.994	13.837	1713.939	1292.978
32.009	13.886	1712.849	1292.424
33.023	13.886	1712.086	1291.732
34.038	13.912	1711.129	1291.101
35.053	13.853	1710.598	1290.125
36.067	13.871	1708.962	1288.917
37.082	13.919	1707.881	1288.357
38.096	13.827	1707.003	1286.871
39.111	13.816	1706.266	1286.115
40.126	13.859	1705.206	1285.538
41.140	13.789	1704.410	1284.280
42.155	13.704	1703.415	1282.756
43.169	13.754	1701.543	1281.622
44.184	13.702	1700.185	1280.082
45.199	13.706	1699.267	1279.313
46.213	13.650	1698.419	1278.125
47.228	13.778	1696.813	1277.795
48.242	13.753	1695.603	1276.576
49.257	13.804	1694.174	1275.781
50.271	13.757	1693.324	1274.663
51.286	13.818	1691.543	1273.676
52.301	13.755	1690.711	1272.455
53.315	13.764	1689.140	1271.230
54.330	13.772	1687.562	1269.990
55.344	13.783	1685.724	1268.582
56.359	13.760	1684.729	1267.547
57.374	13.844	1683.445	1267.107
58.388	13.732	1682.191	1265.194
59.403	13.712	1680.747	1263.844
60.417	13.616	1679.787	1262.280
61.432	13.670	1677.979	1261.219
62.447	13.671	1677.011	1260.393
63.461	13.611	1676.014	1259.072
64.476	13.650	1674.889	1258.416
65.490	13.586	1673.463	1256.745
66.505	13.588	1672.266	1255.747
67.520	13.647	1671.192	1255.284
68.534	13.619	1670.585	1254.503
69.549	13.715	1668.579	1253.607
70.563	13.661	1667.765	1252.475
71.578	13.688	1666.298	1251.467
72.593	13.675	1665.081	1250.345
73.607	13.598	1664.379	1249.127
74.622	13.534	1662.898	1247.428
75.636	13.517	1662.251	1246.704
76.651	13.528	1661.604	1246.188
77.666	13.607	1660.229	1245.640
78.680	13.522	1659.485	1244.335
79.695	13.581	1658.550	1243.966
80.709	13.617	1657.387	1243.250
81.724	13.582	1656.749	1242.400
82.739	13.645	1655.580	1241.886
83.753	13.665	1654.636	1241.220
84.768	13.785	1653.270	1240.983
85.782	13.655	1653.028	1239.717
86.797	13.724	1651.895	1239.278
87.812	13.773	1650.784	1238.701
88.826	13.736	1649.430	1237.298
89.841	13.701	1648.213	1236.013
90.855	13.782	1647.122	1235.688
91.870	13.767	1645.884	1234.538
92.884	13.774	1645.130	1233.917
93.899	13.797	1643.976	1233.109
94.914	13.802	1643.277	1232.515
95.928	13.909	1641.483	1231.854
96.943	13.849	1640.233	1230.366
97.957	13.792	1638.307	1228.391
98.972	13.798	1637.001	1227.345
99.987	13.794	1635.752	1226.270
101.001	13.852	1633.950	1225.237
102.016	13.694	1632.652	1222.995
103.030	13.723	1631.405	1222.161
104.045	13.758	1630.070	1221.312
105.060	13.801	1628.221	1220.137
106.074	13.722	1627.135	1218.636
107.089	13.726	1625.621	1217.422
108.103	13.673	1623.875	1215.617
109.118	13.687	1622.194	1214.355
110.133	13.655	1621.066	1213.167
111.147	13.667	1619.535	1212.003
112.162	13.691	1618.254	1211.112
113.176	13.686	1616.515	1209.664
114.191	13.701	1615.616	1208.993
115.206	13.625	1614.236	1207.304
116.220	13.676	1612.380	1206.179
117.235	13.691	1611.319	1205.391
118.249	13.729	1610.071	1204.624
119.264	13.674	1608.724	1203.110
120.279	13.758	1606.771	1202.155
121.293	13.626	1605.243	1199.947
122.308	13.729	1604.005	1199.659
123.322	13.685	1602.420	1198.050
124.337	13.662	1600.950	1196.677
125.352	13.675	1599.690	1195.727
126.366	13.680	1598.482	1194.751
127.381	13.592	1597.814	1193.516
128.395	13.589	1596.307	1192.262
129.410	13.656	1594.666	1191.414
130.424	13.744	1593.183	1190.830
131.439	13.714	1592.032	1189.650
132.454	13.691	1591.134	1188.710
133.468	13.719	1589.416	1187.522
134.483	13.819	1588.051	1187.111
135.497	13.712	1587.006	1185.460
136.512	13.765	1585.177	1184.369
137.527	13.741	1584.313	1183.449
138.541	13.808	1582.519	1182.475
139.556	13.761	1581.273	1181.109
140.570	13.805	1579.684	1180.129
141.585	13.832	1578.534	1179.356
142.600	13.854	1577.480	1178.622
143.614	13.846	1576.188	1177.497
144.629	13.857	1575.261	1176.779
145.643	13.971	1573.296	1176.011
146.658	13.912	1572.642	1175.005
147.673	14.003	1570.721	1174.105
148.687	13.977	1568.645	1172.269
149.702	13.939	1567.663	1171.162
150.716	13.981	1565.274	1169.570
151.731	13.888	1564.552	1168.269
152.746	13.897	1563.695	1167.592
153.760	13.968	1561.322	1166.212
154.775	13.911	1560.772	1165.301
155.789	13.922	1559.270	1164.152
156.804	14.009	1557.743	1163.518
157.819	13.974	1556.831	1162.486
158.833	13.969	1555.460	1161.326
159.848	14.039	1554.208	1160.779
160.862	14.108	1552.921	1160.194
161.877	14.156	1551.401	1159.291
162.892	14.103	1550.600	1158.223
163.906	13.954	1549.301	1156.111
164.921	13.975	1548.168	1155.311
165.935	14.030	1546.783	1154.559
166.950	14.066	1545.548	1153.784
167.964	14.033	1544.550	1152.705
168.979	14.111	1543.587	1152.428
169.994	14.098	1542.137	1151.155
171.008	14.100	1541.321	1150.456
172.023	14.111	1540.325	1149.684
173.037	14.151	1539.123	1148.961
174.052	14.245	1537.724	1148.467
175.067	14.178	1536.871	1147.268
176.081	14.241	1535.394	1146.499
177.096	14.170	1534.250	1145.049
178.110	14.192	1532.539	1143.823
179.125	14.185	1531.511	1142.907
180.140	14.140	1531.107	1142.195
181.154	14.276	1529.481	1141.817
182.169	14.223	1528.283	1140.455
183.183	14.264	1527.487	1140.041
184.198	14.229	1526.246	1138.779
185.213	14.256	1525.193	1138.076
186.227	14.339	1523.873	1137.553
187.242	14.330	1523.044	1136.777
188.256	14.322	1521.891	1135.761
189.271	14.395	1520.495	1135.115
190.286	14.491	1518.906	1134.480
191.300	14.270	1518.528	1132.592
192.315	14.196	1517.097	1130.927
193.329	14.272	1515.891	1130.439
194.344	14.225	1514.685	1129.121
195.359	14.317	1513.573	1128.815
196.373	14.303	1512.481	1127.812
197.388	14.314	1511.464	1127.027
198.402	14.461	1509.902	1126.752
199.417	14.373	1509.237	1125.566
200.432	14.436	1508.115	1125.055
201.446	14.511	1507.379	1124.912
202.461	14.577	1505.805	1124.083
203.475	14.654	1504.262	1123.350
204.490	14.543	1503.485	1121.918
205.504	14.653	1502.346	1121.712
206.519	14.583	1501.320	1120.372
207.534	14.617	1500.204	1119.674
208.548	14.588	1499.491	1118.844
209.563	14.602	1497.977	1117.710
210.577	14.618	1496.857	1116.887
211.592	14.595	1495.964	1115.964
212.607	14.619	1495.559	1115.721
213.621	14.699	1495.041	1115.775
214.636	14.659	1493.523	1114.272
215.650	14.706	1492.834	1113.974
216.665	14.796	1491.685	1113.620
217.680	14.747	1490.686	1112.450
218.694	14.678	1490.242	1111.558
219.709	14.814	1488.963	1111.411
220.723	14.849	1488.116	1110.912
221.738	14.740	1487.337	1109.510
222.753	14.803	1486.083	1108.895
223.767	14.762	1485.674	1108.223
224.782	14.813	1484.397	1107.509
225.796	14.868	1483.116	1106.819
226.811	14.998	1482.003	1106.746
227.826	14.986	1481.335	1106.076
228.840	14.885	1480.548	1104.719
229.855	14.883	1480.144	1104.309
230.869	14.939	1479.075	1103.783
231.884	15.002	1477.293	1102.770
232.899	14.921	1476.660	1101.663
233.913	14.890	1475.297	1100.350
234.928	14.919	1474.447	1099.809
235.942	14.898	1473.002	1098.493
236.957	14.898	1471.888	1097.564
237.972	14.900	1470.466	1096.423
238.986	14.938	1469.739	1096.033
240.001	14.949	1468.740	1095.264
241.015	14.882	1468.006	1094.181
242.030	14.884	1466.267	1092.802
243.045	15.062	1465.338	1093.174
244.059	15.104	1464.678	1092.856
245.074	15.003	1463.864	1091.496
246.088	15.079	1462.826	1091.121
247.103	15.115	1462.259	1090.836
248.117	15.066	1461.286	1089.692
249.132	15.193	1460.373	1089.741
250.147	15.239	1459.766	1089.493
251.161	15.364	1459.352	1089.897
252.176	15.370	1458.091	1088.899
253.190	15.427	1457.121	1088.446
254.205	15.382	1456.423	1087.540
255.220	15.356	1455.421	1086.526
256.234	15.391	1455.149	1086.450
257.249	15.374	1454.525	1085.782
258.263	15.426	1453.016	1084.897
259.278	15.429	1451.904	1083.987
260.293	15.477	1450.988	1083.519
261.307	15.440	1450.222	1082.612
262.322	15.520	1449.574	1082.549
263.336	15.494	1449.058	1081.902
264.351	15.505	1447.619	1080.798
265.366	15.490	1446.951	1080.110
266.380	15.616	1445.785	1079.955
267.395	15.601	1444.619	1078.891
268.409	15.664	1443.609	1078.447
269.424	15.503	1442.731	1076.660
270.439	15.655	1441.287	1076.458
271.453	15.615	1440.549	1075.557
272.468	15.608	1439.970	1074.989
273.482	15.578	1439.497	1074.346
274.497	15.644	1437.834	1073.432
275.512	15.668	1437.324	1073.108
276.526	15.650	1436.292	1072.131
277.541	15.683	1435.368	1071.556
278.555	15.594	1434.627	1070.338
279.570	15.673	1433.688	1070.049
280.585	15.646	1433.376	1069.551
281.599	15.765	1431.839	1069.061
282.614	15.776	1430.950	1068.377
283.628	15.759	1429.619	1067.179
284.643	15.791	1428.383	1066.362
285.657	15.821	1427.122	1065.518
286.672	15.806	1426.458	1064.832
287.687	15.856	1425.952	1064.675
288.701	15.832	1424.748	1063.536
289.716	15.829	1423.864	1062.761
290.730	15.944	1423.088	1062.815
291.745	15.820	1422.106	1061.202
292.760	15.835	1421.005	1060.382
293.774	15.895	1419.715	1059.707
294.789	15.852	1419.210	1058.964
295.803	15.946	1418.415	1058.869
296.818	16.053	1417.298	1058.608
297.833	15.951	1416.399	1057.209
298.847	15.967	1415.760	1056.738
299.862	16.029	1414.338	1055.972
300.876	16.000	1413.310	1054.923
301.891	16.068	1412.052	1054.319
302.906	16.046	1411.640	1053.779
303.920	16.090	1410.887	1053.401
304.935	16.093	1410.160	1052.783
305.949	16.089	1409.415	1052.107
306.964	16.191	1408.333	1051.843
307.979	16.204	1407.566	1051.260
308.993	16.244	1406.146	1050.353
310.008	16.162	1405.792	1049.489
311.022	16.271	1404.155	1048.850
312.037	16.330	1403.328	1048.506
313.052	16.224	1402.780	1047.345
314.066	16.191	1401.727	1046.260
315.081	16.313	1400.158	1045.752
316.095	16.198	1399.451	1044.418
317.110	16.249	1398.388	1043.853
318.125	16.168	1397.594	1042.665
319.139	16.248	1396.584	1042.312
320.154	16.196	1395.589	1041.159
321.168	16.236	1394.403	1040.429
322.183	16.383	1393.468	1040.542
323.197	16.298	1392.979	1039.564
324.212	16.339	1391.863	1038.892
325.227	16.341	1391.349	1038.426
326.241	16.385	1389.940	1037.555
327.256	16.385	1389.094	1036.827
328.270	16.364	1388.206	1035.947
329.285	16.369	1387.847	1035.618
330.300	16.432	1386.474	1034.886
331.314	16.444	1385.292	1033.989
332.329	16.417	1384.630	1033.240
333.343	16.367	1383.522	1032.011
334.358	16.374	1382.953	1031.539
335.373	16.456	1382.205	1031.388
336.387	16.450	1381.335	1030.616
337.402	16.559	1380.498	1030.559
338.416	16.504	1380.059	1029.809
339.431	16.560	1379.237	1029.446
340.446	16.573	1378.474	1028.864
341.460	16.524	1377.672	1027.875
342.475	16.580	1376.909	1027.557
343.489	16.670	1375.563	1027.006
344.504	16.646	1374.714	1026.139
345.519	16.676	1373.759	1025.511
346.533	16.693	1372.907	1024.890
347.548	16.789	1371.839	1024.582
348.562	16.884	1370.699	1024.215
349.577	16.820	1370.045	1023.246
350.592	16.746	1369.555	1022.345
351.606	16.760	1368.556	1021.597
352.621	16.779	1367.523	1020.848
353.635	16.790	1366.544	1020.090
354.650	16.762	1365.929	1019.373
355.665	16.727	1365.295	1018.600
356.679	16.750	1363.603	1017.386
357.694	16.878	1362.184	1017.004
358.708	16.905	1361.149	1016.307
359.723	16.917	1360.140	1015.535
360.738	16.861	1359.445	1014.591
361.752	16.967	1358.071	1014.108
362.767	16.923	1357.042	1012.985
363.781	16.867	1356.202	1011.938
364.796	16.860	1355.984	1011.641
365.810	16.947	1354.914	1011.275
366.825	17.025	1354.037	1010.991
367.840	16.983	1353.132	1009.976
368.854	17.015	1352.639	1009.713
369.869	17.012	1351.966	1009.102
370.883	17.112	1351.083	1008.948
371.898	17.083	1350.581	1008.311
372.913	17.167	1349.374	1007.819
373.927	17.051	1349.022	1006.779
374.942	17.214	1347.434	1006.472
375.956	17.187	1346.887	1005.812
376.971	17.199	1346.875	1005.784
377.986	17.178	1345.289	1004.390
379.000	17.183	1344.512	1003.750
380.015	17.291	1343.651	1003.657
381.029	17.259	1343.180	1003.025
382.044	17.266	1342.473	1002.452
383.059	17.334	1341.510	1002.046
384.073	17.337	1341.568	1002.016
385.088	17.301	1340.263	1000.740
386.102	17.397	1339.850	1000.907
387.117	17.358	1338.963	999.930
388.132	17.402	1337.694	999.148
389.146	17.256	1337.497	998.055
390.161	17.406	1336.098	997.805
391.175	17.361	1335.837	997.261
392.190	17.345	1334.772	996.283
393.205	17.439	1333.463	995.767
394.219	17.438	1332.635	995.055
395.234	17.507	1331.648	994.630
396.248	17.486	1329.895	993.112
397.263	17.532	1328.452	992.212
398.278	17.548	1327.099	991.208
399.292	17.464	1326.217	989.975
400.307	17.509	1325.038	989.270
401.321	17.472	1324.299	988.414
402.336	17.465	1323.281	987.526
403.350	17.566	1322.112	987.155
404.365	17.575	1321.307	986.514
405.380	17.493	1320.703	985.500
406.394	17.657	1319.634	985.566
407.409	17.498	1319.430	984.407
408.423	17.651	1318.209	984.291
409.438	17.695	1317.184	983.697
410.453	17.648	1316.597	982.898
411.467	17.701	1315.899	982.596
412.482	17.658	1315.249	981.773
413.496	17.683	1314.754	981.465
414.511	17.731	1314.015	981.099
415.526	17.782	1313.184	980.684
416.540	17.868	1312.372	980.490
417.555	17.947	1311.303	980.057
418.569	17.823	1311.049	979.067
419.584	17.904	1310.804	979.265
420.599	17.876	1309.976	978.400
421.613	101.943	1363.573	1492.296
422.628	100.389	1371.281	1492.363
