DTS Sentinel unit serial number:	SN413079Multiplexer serial number:	ORYXHardware model number:	OX4-SRSoftware version number:	ORYX F/W v4.00 Oryx Data Collector v3.7.2.0data status	okinstallation	princeton_trtdifferential loss correction	single-endedforward channel	channel 4reverse channel	N/Adate	2019/09/17time	11:09:35forward acquisition time	60.00reverse acquisition time	0.00gamma	496.2192k internal	0.2309k external	0.2309temperature offset calibration	0.9976default loss term (dB/km)	0.3790temperature slope calibration	1.0000multiplexer offset coefficient	1.0000multiplexer slope coefficient	1.0000fibre end	0.00T internal ref (°C)	30.41T ext. ref 1 (°C)	0.22T ext. ref 2 (°C)	26.08length (m)	temperature (°C)	Stokes	anti-Stokes-747.200	593.280	0.104	-0.261
-746.185	800.000	-0.138	0.463
-745.171	-21.173	0.106	-0.066
-744.156	-3.226	0.192	0.136
-743.142	-200.000	-0.005	-0.024
-742.127	-136.975	-0.208	0.024
-741.112	800.000	0.092	-0.292
-740.098	543.505	0.128	0.309
-739.083	363.718	0.137	0.279
-738.069	297.788	0.040	0.074
-737.054	264.338	-0.079	-0.140
-736.039	-158.269	-0.142	-0.008
-735.025	76.699	0.261	-0.281
-734.010	-94.458	-0.066	-0.018
-732.996	-200.000	-0.026	-0.126
-731.981	-140.297	-0.286	-0.030
-730.966	52.811	0.223	-0.216
-729.952	-77.116	0.159	-0.056
-728.937	800.000	-0.113	-0.443
-727.923	28.360	-0.186	0.159
-726.908	-67.947	-0.238	-0.095
-725.894	82.472	-0.258	-0.284
-724.879	-44.906	0.134	0.068
-723.864	-132.638	0.124	0.016
-722.850	-154.096	0.315	0.022
-721.835	-15.651	0.177	-0.114
-720.821	-28.789	-0.213	0.125
-719.806	-184.699	0.257	0.004
-718.791	-34.312	-0.245	-0.137
-717.777	589.821	-0.039	-0.098
-716.762	72.097	-0.335	-0.354
-715.748	-60.564	0.044	-0.019
-714.733	752.620	-0.057	-0.156
-713.718	-136.214	-0.405	-0.048
-712.704	-12.457	0.155	0.103
-711.689	115.113	-0.126	0.156
-710.675	-74.786	0.142	-0.052
-709.660	-1.868	0.173	-0.123
-708.645	800.000	-0.061	-0.194
-707.631	24.691	-0.204	-0.172
-706.616	-160.748	-0.194	0.010
-705.602	141.803	0.133	0.178
-704.587	106.101	-0.133	-0.160
-703.572	34.659	-0.106	0.094
-702.558	-200.000	0.029	-0.216
-701.543	-200.000	-0.029	0.318
-700.529	800.000	-0.073	0.290
-699.514	-136.644	-0.181	-0.021
-698.499	-200.000	-0.010	-0.279
-697.485	187.735	-0.081	-0.123
-696.470	77.073	0.031	0.033
-695.456	-75.869	-0.123	-0.044
-694.441	21.896	0.246	-0.203
-693.426	-200.000	-0.036	0.196
-692.412	718.555	-0.058	0.156
-691.397	21.586	-0.144	-0.119
-690.383	800.000	0.077	0.228
-689.368	800.000	0.042	0.119
-688.354	198.420	-0.128	-0.199
-687.339	253.190	-0.048	0.084
-686.324	47.193	0.189	0.179
-685.310	177.186	0.090	0.133
-684.295	228.955	0.216	-0.357
-683.281	38.189	-0.320	-0.289
-682.266	-112.847	0.180	0.036
-681.251	-132.592	0.293	-0.038
-680.237	-50.314	0.131	-0.063
-679.222	-200.000	0.021	-0.253
-678.208	85.142	-0.208	-0.232
-677.193	800.000	-0.099	-0.284
-676.178	-104.734	0.261	-0.061
-675.164	-200.000	-0.008	0.047
-674.149	126.666	0.195	-0.251
-673.135	372.511	-0.080	-0.165
-672.120	-200.000	-0.009	-0.139
-671.105	-162.503	-0.391	0.020
-670.091	-200.000	0.011	-0.126
-669.076	49.715	0.270	0.258
-668.062	644.460	0.065	0.168
-667.047	245.368	0.094	0.160
-666.032	64.440	0.117	-0.119
-665.018	-109.449	0.651	-0.139
-664.003	-158.297	-0.039	0.002
-662.989	-200.000	0.021	0.409
-661.974	280.046	0.016	-0.028
-660.959	-114.567	0.224	-0.043
-659.945	-200.000	0.054	0.383
-658.930	72.854	0.072	-0.076
-657.916	-59.914	0.131	-0.057
-656.901	154.004	-0.213	0.295
-655.886	68.291	-0.151	-0.156
-654.872	-133.262	0.203	-0.026
-653.857	54.332	0.040	-0.039
-652.843	-184.307	0.118	0.002
-651.828	-91.427	-0.110	0.032
-650.814	-200.000	0.018	0.229
-649.799	-52.221	0.237	-0.111
-648.784	-106.039	0.256	0.058
-647.770	-200.000	-0.005	-0.115
-646.755	-5.305	-0.156	-0.109
-645.741	50.786	-0.180	0.172
-644.726	225.344	0.082	0.134
-643.711	184.423	0.193	0.289
-642.697	126.223	-0.119	0.153
-641.682	23.012	0.138	0.114
-640.668	-152.730	-0.276	-0.020
-639.653	252.611	-0.143	0.247
-638.638	-155.990	-0.170	-0.011
-637.624	-174.708	0.246	-0.007
-636.609	9.336	0.255	-0.195
-635.595	-13.828	-0.170	0.111
-634.580	93.400	0.180	-0.206
-633.565	-67.816	0.042	0.017
-632.551	297.144	-0.083	0.154
-631.536	95.174	0.114	-0.132
-630.522	223.089	-0.276	0.450
-629.507	-79.514	-0.181	0.062
-628.492	-167.866	-0.057	0.002
-627.478	-200.000	-0.050	-0.251
-626.463	-144.889	0.189	-0.017
-625.449	-39.041	-0.153	-0.082
-624.434	-200.000	-0.021	-0.296
-623.419	-37.790	-0.096	0.052
-622.405	800.000	0.071	0.284
-621.390	-200.000	-0.062	0.317
-620.376	30.683	-0.076	-0.066
-619.361	-115.026	-0.171	0.033
-618.346	-121.239	0.171	-0.029
-617.332	-200.000	0.002	0.392
-616.317	-42.614	0.185	-0.095
-615.303	36.751	0.158	0.141
-614.288	77.821	-0.130	-0.140
-613.273	-113.831	-0.245	-0.048
-612.259	485.573	-0.076	-0.175
-611.244	-38.279	-0.082	-0.044
-610.230	-160.279	-0.491	-0.027
-609.215	-67.809	-0.349	0.138
-608.201	2.138	-0.230	0.168
-607.186	757.499	-0.014	-0.039
-606.171	31.298	-0.093	0.081
-605.157	37.316	-0.084	-0.075
-604.142	-36.190	-0.237	0.129
-603.128	-142.801	0.133	-0.013
-602.113	398.234	-0.105	0.223
-601.098	1.156	0.123	0.089
-600.084	-200.000	0.025	-0.117
-599.069	115.136	0.108	0.133
-598.055	-200.000	-0.020	0.390
-597.040	-98.818	-0.226	-0.058
-596.025	800.000	0.057	0.203
-595.011	-161.115	-0.263	-0.014
-593.996	-98.408	0.183	0.047
-592.982	-200.000	-0.016	-0.107
-591.967	-149.574	-0.097	0.008
-590.952	800.000	-0.047	-0.163
-589.938	-134.493	0.305	-0.038
-588.923	-151.203	0.203	-0.015
-587.909	800.000	-0.116	0.344
-586.894	-200.000	0.017	-0.210
-585.879	-200.000	0.102	-0.461
-584.865	61.815	0.085	-0.085
-583.850	-115.177	0.085	0.016
-582.836	67.421	0.186	0.191
-581.821	30.139	-0.051	-0.044
-580.806	-200.000	0.016	-0.147
-579.792	-200.000	-0.010	0.282
-578.777	25.125	0.276	-0.231
-577.763	127.942	-0.088	-0.113
-576.748	388.217	-0.121	-0.252
-575.733	-103.616	0.125	0.030
-574.719	-200.000	0.044	-0.259
-573.704	25.598	0.068	0.057
-572.690	-70.926	0.178	0.068
-571.675	48.061	-0.170	0.160
-570.661	51.166	0.051	-0.049
-569.646	-145.231	-0.446	-0.041
-568.631	209.676	-0.077	0.121
-567.617	-20.825	-0.076	-0.047
-566.602	-200.000	0.012	-0.204
-565.588	-166.275	-0.272	0.012
-564.573	654.526	-0.040	-0.102
-563.558	-200.000	-0.015	-0.326
-562.544	-200.000	-0.018	-0.141
-561.529	-124.323	-0.315	-0.050
-560.515	507.016	0.223	-0.521
-559.500	266.821	0.201	-0.354
-558.485	182.427	0.144	0.215
-557.471	-200.000	-0.064	0.351
-556.456	-170.963	-0.325	0.011
-555.442	-123.155	0.119	-0.019
-554.427	-44.896	-0.246	-0.123
-553.412	440.458	-0.055	0.122
-552.398	-52.319	-0.110	0.051
-551.383	-109.128	-0.164	-0.035
-550.369	-42.497	-0.091	0.047
-549.354	166.476	0.009	-0.012
-548.339	-200.000	-0.079	0.472
-547.325	343.559	0.209	-0.414
-546.310	800.000	-0.053	0.172
-545.296	12.366	-0.165	0.128
-544.281	-126.546	-0.402	0.060
-543.266	-89.728	0.438	-0.129
-542.252	-200.000	-0.073	-0.444
-541.237	-200.000	-0.003	0.211
-540.223	-200.000	0.071	-0.326
-539.208	-46.726	-0.190	0.094
-538.193	16.977	0.154	0.123
-537.179	140.073	0.249	0.331
-536.164	-71.255	0.237	0.090
-535.150	-109.323	-0.362	0.077
-534.135	620.074	0.101	0.255
-533.121	85.542	0.103	0.114
-532.106	-116.252	0.093	-0.017
-531.091	-200.000	-0.043	0.266
-530.077	524.169	-0.048	-0.113
-529.062	64.183	0.151	0.153
-528.048	-65.236	0.251	0.102
-527.033	-177.824	-0.256	-0.006
-526.018	800.000	0.061	0.205
-525.004	620.364	0.051	-0.130
-523.989	-159.372	-0.312	0.018
-522.975	-200.000	0.023	0.106
-521.960	248.665	-0.125	-0.212
-520.945	295.671	0.057	0.105
-519.931	-136.988	0.255	0.029
-518.916	-200.000	0.035	-0.199
-517.902	-200.000	0.005	-0.048
-516.887	479.846	-0.032	-0.074
-515.872	-107.564	-0.237	-0.052
-514.858	-200.000	-0.027	-0.286
-513.843	800.000	0.085	-0.254
-512.829	-96.077	0.193	0.052
-511.814	-200.000	-0.021	0.192
-510.799	270.692	0.058	0.102
-509.785	-116.345	-0.155	0.029
-508.770	126.074	0.093	0.118
-507.756	300.328	-0.188	0.349
-506.741	-48.141	-0.185	0.090
-505.726	-200.000	0.002	0.158
-504.712	-133.543	0.240	0.030
-503.697	8.622	0.132	-0.100
-502.683	160.398	-0.175	-0.246
-501.668	800.000	-0.086	-0.335
-500.653	-123.183	-0.244	0.039
-499.639	17.018	-0.076	0.061
-498.624	-135.010	-0.091	0.011
-497.610	-165.792	-0.193	-0.008
-496.595	-175.871	-0.126	-0.003
-495.581	-200.000	0.019	-0.253
-494.566	-82.147	0.193	0.063
-493.551	184.376	-0.167	-0.249
-492.537	-77.907	0.020	-0.007
-491.522	9.241	-0.068	-0.051
-490.508	-83.169	0.204	-0.066
-489.493	79.601	0.075	-0.081
-488.478	-15.086	0.291	-0.187
-487.464	170.254	0.061	-0.088
-486.449	85.417	0.102	-0.113
-485.435	86.177	-0.124	0.137
-484.420	115.607	-0.045	0.055
-483.405	31.752	0.086	0.074
-482.391	-83.405	-0.263	0.085
-481.376	-96.931	0.197	-0.052
-480.362	-150.322	-0.268	0.021
-479.347	-200.000	0.035	0.259
-478.332	800.000	-0.029	0.105
-477.318	-11.662	0.178	0.118
-476.303	-200.000	0.050	0.437
-475.289	257.248	-0.099	-0.172
-474.274	223.350	0.114	0.185
-473.259	-132.991	0.096	0.012
-472.245	5.596	0.342	-0.254
-471.230	-200.000	0.031	0.183
-470.216	-164.658	0.368	-0.017
-469.201	50.662	0.127	-0.121
-468.186	-32.885	-0.168	0.094
-467.172	79.659	0.192	0.207
-466.157	252.875	0.031	-0.053
-465.143	208.512	-0.228	0.358
-464.128	-153.103	-0.109	-0.008
-463.113	-22.346	0.118	0.072
-462.099	800.000	-0.036	0.141
-461.084	95.913	0.113	-0.129
-460.070	100.523	-0.267	-0.312
-459.055	-179.775	-0.065	0.001
-458.040	-117.079	0.162	0.030
-457.026	800.000	0.041	-0.176
-456.011	145.268	0.297	0.399
-454.997	-7.022	-0.116	-0.079
-453.982	-200.000	-0.019	-0.086
-452.968	119.756	0.191	0.238
-451.953	-25.051	-0.048	0.029
-450.938	800.000	-0.024	-0.092
-449.924	273.936	0.112	-0.198
-448.909	-99.513	-0.274	0.069
-447.895	1.764	-0.014	-0.010
-446.880	-151.015	-0.326	-0.025
-445.865	-89.520	-0.153	-0.045
-444.851	41.180	0.234	0.212
-443.836	108.542	-0.197	0.237
-442.822	41.595	-0.264	0.240
-441.807	-200.000	0.005	-0.178
-440.792	800.000	0.006	-0.016
-439.778	476.957	0.132	0.300
-438.763	-38.697	0.129	-0.068
-437.749	56.236	-0.091	-0.089
-436.734	48.397	-0.297	0.279
-435.719	108.179	-0.119	-0.143
-434.705	19.053	0.159	-0.128
-433.690	-129.361	0.196	-0.027
-432.676	65.870	0.179	-0.182
-431.661	416.025	-0.070	0.149
-430.646	248.783	-0.071	0.120
-429.632	-50.929	-0.084	-0.040
-428.617	11.604	0.210	-0.162
-427.603	299.190	-0.068	0.126
-426.588	-62.627	0.413	-0.172
-425.573	365.782	-0.051	-0.103
-424.559	238.972	0.248	0.414
-423.544	-4.912	0.117	-0.081
-422.530	-23.944	0.254	-0.153
-421.515	64.297	0.250	0.252
-420.500	-68.056	-0.072	-0.028
-419.486	474.803	0.078	-0.177
-418.471	10.147	-0.140	0.107
-417.457	-172.923	0.177	0.006
-416.442	-101.268	0.364	-0.089
-415.428	177.127	-0.166	0.243
-414.413	-120.407	-0.029	-0.005
-413.398	-105.423	-0.172	-0.039
-412.384	204.229	0.147	-0.228
-411.369	-148.949	-0.218	0.018
-410.355	-35.851	0.189	0.103
-409.340	-62.819	0.322	0.134
-408.325	-200.000	-0.043	0.247
-407.311	-68.846	0.076	-0.030
-406.296	-6.991	0.366	0.249
-405.282	84.528	-0.071	-0.078
-404.267	-153.410	-0.201	0.014
-403.252	103.472	-0.136	-0.160
-402.238	-200.000	-0.027	-0.155
-401.223	6.448	0.198	-0.147
-400.209	-200.000	-0.010	-0.284
-399.194	455.709	-0.045	-0.100
-398.179	800.000	0.059	0.230
-397.165	-97.215	0.211	-0.055
-396.150	-200.000	0.006	0.043
-395.136	17.230	-0.290	-0.231
-394.121	738.303	0.122	-0.328
-393.106	-46.086	-0.350	0.173
-392.092	800.000	0.014	0.046
-391.077	575.095	0.106	0.260
-390.063	151.946	-0.277	0.379
-389.048	240.189	-0.035	0.058
-388.033	-34.042	0.207	-0.114
-387.019	-200.000	0.015	-0.129
-386.004	331.627	0.205	0.395
-384.990	404.595	0.086	0.181
-383.975	601.781	-0.024	-0.059
-382.960	-71.381	0.202	0.076
-381.946	99.638	0.096	0.111
-380.931	6.514	0.046	0.034
-379.917	-13.594	0.151	-0.098
-378.902	177.483	0.122	0.179
-377.888	170.429	-0.203	-0.290
-376.873	80.803	-0.224	-0.241
-375.858	-40.053	0.257	0.134
-374.844	800.000	0.049	-0.210
-373.829	287.722	-0.104	0.188
-372.815	-175.639	0.476	-0.013
-371.800	-15.891	0.291	0.185
-370.785	-200.000	-0.002	0.080
-369.771	-8.905	0.248	-0.167
-368.756	-200.000	-0.035	0.229
-367.742	-23.694	0.203	-0.122
-366.727	61.198	-0.129	0.129
-365.712	-5.172	-0.364	0.250
-364.698	800.000	0.039	-0.159
-363.683	-86.336	0.213	-0.066
-362.669	-82.097	-0.116	-0.038
-361.654	224.964	-0.128	0.208
-360.639	387.261	-0.120	-0.248
-359.625	656.264	0.054	-0.138
-358.610	800.000	-0.054	-0.152
-357.596	42.411	0.148	-0.135
-356.581	266.126	-0.160	-0.280
-355.566	-200.000	-0.001	0.046
-354.552	800.000	-0.045	-0.176
-353.537	800.000	0.076	0.214
-352.523	-26.325	0.051	0.030
-351.508	-70.377	0.159	0.060
-350.493	1.945	-0.053	0.038
-349.479	-76.288	-0.315	-0.111
-348.464	-67.515	0.209	0.082
-347.450	-200.000	0.009	-0.160
-346.435	415.815	0.121	-0.259
-345.420	-106.890	0.203	0.045
-344.406	-77.084	0.155	-0.054
-343.391	158.330	-0.127	-0.177
-342.377	-200.000	0.015	0.100
-341.362	-81.136	0.037	0.012
-340.348	-200.000	0.020	-0.211
-339.333	279.723	0.107	0.191
-338.318	-43.888	0.370	0.186
-337.304	-100.343	-0.398	0.099
-336.289	-70.937	-0.153	-0.058
-335.275	-56.853	-0.270	0.119
-334.260	145.485	0.135	-0.181
-333.245	800.000	-0.056	0.227
-332.231	-200.000	-0.034	0.240
-331.216	70.970	0.113	-0.117
-330.202	-200.000	0.022	-0.329
-329.187	160.309	0.068	-0.095
-328.172	-200.000	-0.029	-0.266
-327.158	-123.649	-0.030	0.005
-326.143	176.730	-0.098	0.143
-325.129	-200.000	0.046	0.209
-324.114	-112.156	0.218	-0.044
-323.099	67.471	-0.080	-0.081
-322.085	-52.611	0.241	-0.111
-321.070	-200.000	-0.022	0.171
-320.056	230.078	-0.019	-0.031
-319.041	-70.625	-0.290	-0.110
-318.026	-103.306	0.452	-0.107
-317.012	129.742	0.080	-0.103
-315.997	20.133	0.167	0.135
-314.983	-200.000	0.052	-0.278
-313.968	-200.000	-0.031	0.208
-312.953	62.239	0.138	0.138
-311.939	-122.745	-0.248	-0.040
-310.924	-77.013	0.169	-0.059
-309.910	800.000	0.081	0.248
-308.895	-200.000	0.043	0.293
-307.880	54.622	0.149	-0.143
-306.866	237.279	-0.049	0.081
-305.851	15.129	-0.186	0.146
-304.837	-200.000	-0.057	0.271
-303.822	-92.910	0.208	-0.058
-302.807	-16.886	-0.176	0.111
-301.793	264.750	-0.040	0.070
-300.778	-165.450	-0.124	0.005
-299.764	-200.000	-0.035	-0.214
-298.749	367.205	-0.209	-0.421
-297.735	-200.000	-0.018	0.202
-296.720	342.539	-0.119	0.232
-295.705	-83.816	0.406	0.129
-294.691	-200.000	0.006	0.052
-293.676	228.247	0.201	-0.327
-292.662	-143.676	-0.356	-0.034
-291.647	-200.000	0.022	0.138
-290.632	800.000	0.142	0.415
-289.618	-200.000	0.027	-0.313
-288.603	17.659	0.331	-0.262
-287.589	140.465	0.048	-0.063
-286.574	800.000	-0.048	0.191
-285.559	30.590	0.054	-0.046
-284.545	-8.904	0.203	-0.136
-283.530	-109.160	0.157	0.033
-282.516	-143.781	0.155	-0.015
-281.501	-2.440	-0.326	0.228
-280.486	-200.000	-0.017	0.106
-279.472	-88.309	-0.228	-0.068
-278.457	-93.871	0.226	0.062
-277.443	-10.218	0.271	-0.179
-276.428	280.056	-0.225	-0.401
-275.413	800.000	-0.077	0.224
-274.399	95.852	-0.214	-0.244
-273.384	-200.000	0.005	-0.248
-272.370	-107.161	-0.300	-0.066
-271.355	-121.082	0.011	0.002
-270.340	89.018	-0.123	-0.137
-269.326	-153.079	-0.430	0.030
-268.311	-123.796	0.033	-0.005
-267.297	-158.624	-0.125	0.007
-266.282	-123.694	0.127	-0.020
-265.267	-200.000	0.007	-0.118
-264.253	-18.275	0.214	-0.133
-263.238	-21.649	0.248	-0.151
-262.224	-187.125	0.104	-0.001
-261.209	-200.000	0.010	0.087
-260.195	-45.067	0.137	0.068
-259.180	17.581	0.059	0.047
-258.165	-86.860	0.191	-0.058
-257.151	8.924	-0.125	-0.094
-256.136	312.918	-0.147	0.275
-255.122	79.616	-0.161	-0.172
-254.107	-200.000	0.011	-0.300
-253.092	149.149	0.061	0.082
-252.078	115.411	-0.135	-0.164
-251.063	-47.804	-0.288	-0.139
-250.049	316.724	0.052	0.098
-249.034	-27.363	0.172	0.100
-248.019	-84.929	0.188	-0.059
-247.005	-160.962	0.115	-0.006
-245.990	-167.520	-0.229	0.009
-244.976	-77.497	0.135	-0.047
-243.961	98.096	0.235	0.270
-242.946	-53.290	0.276	0.126
-241.932	-47.201	-0.086	0.042
-240.917	-75.828	-0.315	0.111
-239.903	-6.029	0.326	-0.222
-238.888	448.245	-0.154	0.339
-237.873	-130.642	0.125	-0.017
-236.859	181.031	-0.030	0.044
-235.844	-121.631	-0.142	-0.024
-234.830	-157.221	0.231	0.014
-233.815	-155.099	-0.322	-0.021
-232.800	69.012	-0.081	-0.083
-231.786	-123.198	-0.120	0.019
-230.771	800.000	0.043	-0.119
-229.757	-5.512	0.069	-0.047
-228.742	258.133	-0.149	-0.255
-227.727	-200.000	0.034	-0.232
-226.713	800.000	-0.016	-0.061
-225.698	-8.196	0.263	-0.176
-224.684	-175.611	0.326	0.009
-223.669	-17.411	-0.158	-0.099
-222.655	800.000	0.050	-0.145
-221.640	16.176	-0.239	0.187
-220.625	-96.765	-0.129	0.034
-219.611	-179.588	-0.440	0.010
-218.596	-140.231	-0.424	0.044
-217.582	252.082	-0.007	-0.012
-216.567	-133.669	0.226	0.028
-215.552	-15.856	-0.105	-0.066
-214.538	-73.555	0.211	-0.077
-213.523	-146.235	-0.125	-0.011
-212.509	-200.000	-0.042	0.207
-211.494	30.336	-0.086	-0.073
-210.479	663.054	0.074	-0.189
-209.465	-200.000	-0.003	-0.331
-208.450	107.323	-0.178	-0.210
-207.436	800.000	0.116	0.439
-206.421	-111.545	0.080	0.016
-205.406	-113.085	-0.101	0.020
-204.392	-22.662	0.297	-0.179
-203.377	341.007	0.052	-0.101
-202.363	282.395	-0.100	-0.178
-201.348	-112.568	-0.320	0.064
-200.333	14.524	-0.196	0.152
-199.319	118.183	-0.050	-0.062
-198.304	62.881	-0.184	0.183
-197.290	-159.799	0.139	0.008
-196.275	62.587	0.198	-0.197
-195.260	183.693	0.070	-0.103
-194.246	-200.000	-0.041	0.244
-193.231	-200.000	-0.076	-0.437
-192.217	49.744	-0.146	0.136
-191.202	221.095	0.251	0.400
-190.187	45.279	-0.083	-0.076
-189.173	155.492	-0.127	-0.173
-188.158	149.214	0.142	-0.190
-187.144	-24.302	0.377	0.223
-186.129	-15.481	-0.302	0.192
-185.114	56.657	-0.169	-0.163
-184.100	-122.302	0.286	-0.046
-183.085	-35.867	0.161	0.087
-182.071	-32.890	-0.064	0.036
-181.056	-200.000	-0.012	-0.118
-180.042	95.893	-0.213	-0.241
-179.027	60.186	0.059	0.058
-178.012	800.000	-0.048	0.209
-176.998	-133.463	0.234	-0.029
-175.983	-48.909	-0.339	-0.161
-174.969	20.835	-0.235	-0.189
-173.954	121.688	-0.164	-0.203
-172.939	23.927	0.081	-0.066
-171.925	-194.560	-0.222	-0.002
-170.910	-36.985	0.211	0.113
-169.896	187.902	0.134	0.199
-168.881	-104.092	-0.294	0.068
-167.866	-200.000	0.002	0.192
-166.852	59.998	0.142	-0.139
-165.837	-151.658	0.247	0.018
-164.823	-68.627	-0.358	0.138
-163.808	800.000	-0.083	0.263
-162.793	-77.694	-0.331	-0.114
-161.779	-113.584	0.146	0.028
-160.764	319.890	0.055	-0.104
-159.750	-180.706	-0.089	0.002
-158.735	-57.649	-0.045	0.020
-157.720	-200.000	0.017	-0.104
-156.706	-200.000	0.038	0.212
-155.691	81.674	0.063	-0.068
-154.677	273.312	-0.208	-0.364
-153.662	-96.698	0.055	0.014
-152.647	260.718	0.068	0.117
-151.633	186.816	-0.062	-0.091
-150.618	21.559	-0.262	0.212
-149.604	14.476	-0.119	0.092
-148.589	800.000	-0.063	0.173
-147.574	-200.000	0.044	-0.246
-146.560	250.328	0.023	0.039
-145.545	-200.000	0.064	-0.297
-144.531	18.940	-0.137	0.109
-143.516	531.787	0.206	0.483
-142.502	-200.000	0.042	0.185
-141.487	-94.688	0.307	-0.083
-140.472	91.411	-0.061	-0.068
-139.458	-34.512	-0.052	-0.028
-138.443	-43.580	-0.169	-0.084
-137.429	-93.378	0.074	-0.020
-136.414	-200.000	-0.061	-0.485
-135.399	-93.289	-0.080	0.022
-134.385	601.085	-0.013	-0.032
-133.370	100.564	-0.176	0.202
-132.356	-200.000	-0.004	0.225
-131.341	-200.000	-0.016	-0.153
-130.326	-168.088	0.217	-0.008
-129.312	-137.043	0.098	0.011
-128.297	211.327	0.126	0.197
-127.283	-33.350	0.227	0.125
-126.268	-200.000	0.023	0.126
-125.253	-140.430	-0.350	0.036
-124.239	148.060	0.169	0.226
-123.224	-73.041	0.229	0.083
-122.210	92.496	-0.288	-0.322
-121.195	134.411	-0.015	-0.020
-120.180	-11.701	-0.242	0.157
-119.166	89.485	0.051	0.056
-118.151	-135.709	0.344	-0.040
-117.137	800.000	-0.087	-0.275
-116.122	342.832	0.058	-0.112
-115.107	603.779	-0.026	0.065
-114.093	191.300	0.255	-0.381
-113.078	-48.035	-0.166	0.080
-112.064	-139.893	-0.128	-0.013
-111.049	356.245	0.104	-0.205
-110.034	-200.000	0.049	-0.216
-109.020	335.023	-0.112	-0.216
-108.005	60.843	0.172	0.169
-106.991	-200.000	0.033	0.380
-105.976	331.784	-0.111	-0.212
-104.962	800.000	0.037	0.126
-103.947	11.320	0.084	0.064
-102.932	34.559	-0.174	-0.151
-101.918	56.369	0.155	-0.149
-100.903	61.080	-0.201	-0.198
-99.889	-134.134	0.286	-0.035
-98.874	-148.869	0.146	-0.012
-97.859	-185.032	-0.157	0.002
-96.845	-200.000	0.015	-0.187
-95.830	-31.474	-0.244	-0.136
-94.816	-105.589	0.076	0.017
-93.801	54.595	0.124	0.119
-92.786	-111.917	0.369	-0.074
-91.772	205.723	0.142	-0.219
-90.757	250.418	0.051	0.086
-89.743	800.000	0.094	-0.293
-88.728	800.000	-0.088	0.281
-87.713	800.000	-0.082	0.259
-86.699	-3.438	-0.158	-0.109
-85.684	-14.941	0.041	0.026
-84.670	-200.000	-0.075	0.338
-83.655	-200.000	0.007	0.358
-82.640	-95.967	-0.095	-0.025
-81.626	63.939	-0.068	-0.068
-80.611	16.695	-0.025	-0.019
-79.597	72.921	-0.334	0.346
-78.582	58.677	0.209	-0.203
-77.567	800.000	-0.043	0.135
-76.553	-130.072	0.270	0.036
-75.538	-111.433	0.324	0.065
-74.524	-200.000	0.004	-0.253
-73.509	111.511	0.069	0.082
-72.494	-5.993	-0.167	-0.113
-71.480	-107.450	0.317	0.069
-70.465	44.417	0.063	0.057
-69.451	-200.000	0.003	0.389
-68.436	-200.000	0.029	0.242
-67.422	654.840	-0.083	-0.211
-66.407	-78.515	0.043	0.015
-65.392	-17.944	0.180	-0.112
-64.378	263.592	0.120	-0.206
-63.363	-200.000	-0.003	-0.167
-62.349	-68.585	-0.347	0.133
-61.334	139.346	-0.917	-1.194
-60.319	800.000	0.176	0.680
-59.305	188.892	-0.620	-0.918
-58.290	47.891	0.854	0.789
-57.276	800.000	0.500	1.446
-56.261	-200.000	101.840	575.820
-55.246	470.651	1443.026	3209.030
-54.232	147.310	2639.358	3513.744
-53.217	99.119	2333.352	2666.147
-52.203	36.801	2085.125	1822.333
-51.188	31.978	1998.393	1702.818
-50.173	30.498	1980.663	1674.318
-49.159	45.891	2033.330	1859.782
-48.144	46.718	2051.189	1883.601
-47.130	32.707	2011.109	1720.033
-46.115	30.386	2001.055	1690.271
-45.100	30.318	1997.930	1686.949
-44.086	30.315	1995.384	1684.702
-43.071	30.255	1993.089	1682.154
-42.057	30.246	1991.160	1680.379
-41.042	30.235	1988.876	1678.284
-40.027	30.281	1986.513	1676.640
-39.013	30.300	1985.081	1675.534
-37.998	30.296	1983.409	1674.025
-36.984	30.328	1980.539	1671.816
-35.969	30.332	1979.208	1670.664
-34.954	30.329	1977.649	1669.258
-33.940	30.420	1975.913	1668.547
-32.925	30.401	1974.417	1667.042
-31.911	30.433	1972.889	1665.972
-30.896	30.400	1970.873	1663.906
-29.881	30.420	1969.645	1662.991
-28.867	30.515	1967.796	1662.211
-27.852	30.439	1966.659	1660.499
-26.838	30.389	1964.584	1658.235
-25.823	30.458	1962.908	1657.377
-24.809	30.454	1961.023	1655.677
-23.794	30.397	1959.410	1653.741
-22.779	30.426	1957.373	1652.216
-21.765	30.463	1956.090	1651.399
-20.750	30.438	1954.467	1649.737
-19.736	30.418	1952.848	1648.133
-18.721	30.414	1951.197	1646.639
-17.706	30.469	1949.549	1645.672
-16.692	30.481	1947.614	1644.078
-15.677	30.428	1946.034	1642.208
-14.663	30.421	1944.749	1640.998
-13.648	30.498	1943.047	1640.172
-12.633	30.463	1942.505	1639.341
-11.619	30.457	1941.024	1637.973
-10.604	30.438	1939.323	1636.309
-9.590	30.362	1938.535	1634.908
-8.575	30.414	1936.980	1633.994
-7.560	30.372	1935.480	1632.291
-6.546	30.373	1934.285	1631.224
-5.531	30.408	1932.842	1630.249
-4.517	30.371	1932.152	1629.286
-3.502	30.503	1930.507	1628.987
-2.487	30.371	1929.573	1626.974
-1.473	30.470	1928.438	1626.821
-0.458	30.554	1923.350	1623.198
0.556	28.649	1904.461	1597.033
1.571	24.691	1885.714	1547.002
2.586	20.679	1908.463	1530.311
3.600	19.687	1943.825	1549.635
4.615	19.442	1940.038	1544.285
5.629	15.408	1837.535	1428.295
6.644	6.085	1716.368	1259.560
7.659	0.739	1677.942	1189.279
8.673	0.332	1673.715	1182.982
9.688	0.239	1672.535	1181.313
10.702	0.227	1671.746	1180.563
11.717	0.103	1667.804	1176.700
12.731	0.634	1668.229	1181.047
13.746	7.386	1682.851	1244.418
14.761	15.509	1698.901	1320.284
15.775	17.662	1700.776	1338.551
16.790	17.081	1697.689	1331.443
17.804	15.993	1694.586	1320.375
18.819	14.917	1691.957	1309.784
19.834	14.296	1689.221	1302.691
20.848	14.048	1687.662	1299.438
21.863	13.829	1685.601	1296.024
22.877	13.504	1684.215	1292.311
23.892	13.329	1682.888	1289.812
24.907	13.205	1681.901	1287.978
25.921	13.222	1680.992	1287.300
26.936	13.287	1680.001	1286.929
27.950	13.191	1679.381	1285.596
28.965	13.252	1678.290	1285.116
29.980	13.405	1677.549	1285.631
30.994	13.443	1676.361	1284.898
32.009	13.448	1675.610	1284.249
33.023	13.424	1675.173	1283.616
34.038	13.540	1673.769	1283.323
35.053	13.446	1672.958	1281.858
36.067	13.436	1671.895	1280.852
37.082	13.419	1670.215	1279.322
38.096	13.379	1669.615	1278.442
39.111	13.397	1668.955	1277.959
40.126	13.425	1667.984	1277.317
41.140	13.369	1667.107	1276.105
42.155	13.379	1665.741	1275.024
43.169	13.226	1664.286	1272.616
44.184	13.227	1662.815	1271.386
45.199	13.163	1662.136	1270.260
46.213	13.186	1660.547	1269.116
47.228	13.287	1659.261	1268.796
48.242	13.288	1658.214	1267.888
49.257	13.349	1657.208	1267.473
50.271	13.331	1655.526	1265.940
51.286	13.319	1654.942	1265.288
52.301	13.343	1653.463	1264.231
53.315	13.304	1651.790	1262.538
54.330	13.399	1649.980	1261.768
55.344	13.231	1648.917	1259.567
56.359	13.217	1647.566	1258.317
57.374	13.220	1646.520	1257.430
58.388	13.281	1644.738	1256.420
59.403	13.233	1643.566	1255.046
60.417	13.211	1642.064	1253.624
61.432	13.255	1640.775	1252.859
62.447	13.270	1639.485	1251.877
63.461	13.144	1638.763	1250.261
64.476	13.098	1637.936	1249.173
65.490	13.095	1636.666	1248.075
66.505	13.077	1635.217	1246.719
67.520	13.044	1634.413	1245.746
68.534	13.145	1632.940	1245.277
69.549	13.239	1631.928	1245.104
70.563	13.177	1630.364	1243.335
71.578	13.195	1629.226	1242.493
72.593	13.097	1628.475	1241.069
73.607	13.134	1627.333	1240.367
74.622	13.028	1626.317	1238.688
75.636	13.171	1625.095	1238.723
76.651	13.057	1624.551	1237.340
77.666	13.122	1623.273	1236.744
78.680	13.055	1622.581	1235.610
79.695	13.098	1621.762	1235.199
80.709	13.141	1620.273	1234.274
81.724	13.180	1619.698	1234.017
82.739	13.198	1618.670	1233.260
83.753	13.222	1617.482	1232.428
84.768	13.247	1616.303	1231.607
85.782	13.294	1616.323	1231.864
86.797	13.336	1615.485	1231.424
87.812	13.342	1614.429	1230.557
88.826	13.339	1612.531	1228.977
89.841	13.312	1611.747	1228.075
90.855	13.244	1610.727	1226.678
91.870	13.367	1609.129	1226.272
92.884	13.340	1608.661	1225.599
93.899	13.412	1607.055	1224.803
94.914	13.401	1606.527	1224.214
95.928	13.407	1605.586	1223.432
96.943	13.351	1604.259	1221.896
97.957	13.441	1602.157	1220.850
98.972	13.373	1601.066	1219.415
99.987	13.309	1599.760	1217.834
101.001	13.340	1597.932	1216.568
102.016	13.402	1596.143	1215.551
103.030	13.378	1594.819	1214.263
104.045	13.360	1594.307	1213.629
105.060	13.447	1592.570	1212.839
106.074	13.319	1591.208	1210.756
107.089	13.329	1589.446	1209.385
108.103	13.180	1588.295	1207.313
109.118	13.211	1586.549	1206.107
110.133	13.256	1584.901	1205.074
111.147	13.273	1583.605	1204.106
112.162	13.184	1582.486	1202.501
113.176	13.141	1581.281	1201.165
114.191	13.172	1580.281	1200.524
115.206	13.287	1578.756	1200.094
116.220	13.282	1577.562	1199.046
117.235	13.231	1576.209	1197.539
118.249	13.224	1574.741	1196.267
119.264	13.247	1573.696	1195.532
120.279	13.084	1572.777	1193.551
121.293	13.272	1570.514	1193.084
122.308	13.284	1569.289	1192.133
123.322	13.230	1567.653	1190.396
124.337	13.109	1566.370	1188.446
125.352	13.214	1565.031	1188.084
126.366	13.143	1563.722	1186.474
127.381	13.131	1562.730	1185.529
128.395	13.174	1561.841	1185.059
129.410	13.221	1560.731	1184.448
130.424	13.205	1558.973	1182.892
131.439	13.246	1557.574	1182.022
132.454	13.249	1555.875	1180.649
133.468	13.332	1554.470	1180.072
134.483	13.314	1553.211	1178.885
135.497	13.385	1551.398	1177.908
136.512	13.328	1550.348	1176.601
137.527	13.342	1548.961	1175.543
138.541	13.367	1547.383	1174.417
139.556	13.396	1545.945	1173.427
140.570	13.338	1544.640	1171.923
141.585	13.398	1543.403	1171.310
142.600	13.362	1542.354	1170.153
143.614	13.451	1541.184	1169.788
144.629	13.611	1539.389	1169.457
145.643	13.585	1538.407	1168.419
146.658	13.549	1537.260	1167.196
147.673	13.518	1535.305	1165.387
148.687	13.479	1534.415	1164.333
149.702	13.490	1532.173	1162.610
150.716	13.566	1530.312	1161.625
151.731	13.460	1529.471	1160.142
152.746	13.446	1527.977	1158.810
153.760	13.539	1526.304	1158.086
154.775	13.483	1525.091	1156.674
155.789	13.490	1523.783	1155.628
156.804	13.515	1523.112	1155.191
157.819	13.584	1521.375	1154.253
158.833	13.566	1520.116	1153.066
159.848	13.526	1519.049	1151.881
160.862	13.750	1517.752	1152.352
161.877	13.668	1516.793	1150.950
162.892	13.558	1516.290	1149.702
163.906	13.583	1514.579	1148.475
164.921	13.565	1513.008	1147.061
165.935	13.591	1512.444	1146.713
166.950	13.573	1511.455	1145.732
167.964	13.600	1510.120	1144.810
168.979	13.657	1509.161	1144.372
169.994	13.660	1508.278	1143.627
171.008	13.694	1506.892	1142.704
172.023	13.697	1505.999	1141.951
173.037	13.734	1504.392	1140.882
174.052	13.674	1503.994	1140.067
175.067	13.742	1502.260	1139.121
176.081	13.732	1501.455	1138.344
177.096	13.739	1499.630	1136.903
178.110	13.662	1498.828	1135.670
179.125	13.583	1497.749	1134.208
180.140	13.687	1496.645	1133.987
181.154	13.690	1495.795	1133.258
182.169	13.787	1494.303	1132.689
183.183	13.830	1492.831	1131.769
184.198	13.855	1491.824	1131.076
185.213	13.849	1491.109	1130.390
186.227	13.971	1489.769	1130.110
187.242	14.005	1488.399	1129.197
188.256	13.852	1487.636	1127.477
189.271	13.879	1486.675	1126.837
190.286	13.966	1485.506	1126.443
191.300	13.893	1484.375	1124.990
192.315	13.803	1482.835	1123.115
193.329	13.709	1481.728	1121.540
194.344	13.719	1480.517	1120.589
195.359	13.814	1479.351	1120.252
196.373	13.828	1478.179	1119.357
197.388	13.964	1477.348	1119.543
198.402	13.980	1476.212	1118.696
199.417	13.956	1475.381	1117.804
200.432	14.004	1474.330	1117.229
201.446	14.018	1473.403	1116.521
202.461	14.071	1472.017	1115.732
203.475	14.120	1470.848	1115.077
204.490	14.180	1470.023	1114.754
205.504	14.129	1469.203	1113.692
206.519	14.101	1467.724	1112.285
207.534	14.059	1466.306	1110.831
208.548	14.116	1465.379	1110.410
209.563	14.136	1464.355	1109.672
210.577	14.183	1463.217	1109.019
211.592	14.158	1462.310	1108.072
212.607	14.222	1461.924	1108.103
213.621	14.143	1461.698	1107.312
214.636	14.367	1460.172	1107.548
215.650	14.291	1458.725	1105.848
216.665	14.301	1458.010	1105.274
217.680	14.297	1457.701	1104.914
218.694	14.308	1456.597	1104.049
219.709	14.391	1455.542	1103.704
220.723	14.398	1454.748	1103.050
221.738	14.323	1453.900	1101.816
222.753	14.403	1452.963	1101.534
223.767	14.372	1451.961	1100.470
224.782	14.427	1451.347	1100.271
225.796	14.488	1449.999	1099.557
226.811	14.433	1449.070	1098.394
227.826	14.486	1448.496	1098.212
228.840	14.470	1447.438	1097.205
229.855	14.391	1446.469	1095.853
230.869	14.383	1445.712	1095.134
231.884	14.426	1444.538	1094.424
232.899	14.496	1443.202	1093.776
233.913	14.483	1442.315	1092.919
234.928	14.396	1441.377	1091.547
235.942	14.397	1439.994	1090.407
236.957	14.337	1438.760	1088.983
237.972	14.421	1437.311	1088.340
238.986	14.436	1436.345	1087.611
240.001	14.428	1435.759	1087.015
241.015	14.496	1434.275	1086.243
242.030	14.504	1433.141	1085.337
243.045	14.415	1432.881	1084.466
244.059	14.584	1431.814	1084.661
245.074	14.591	1430.532	1083.639
246.088	14.602	1430.304	1083.443
247.103	14.613	1428.924	1082.373
248.117	14.550	1428.524	1081.568
249.132	14.593	1427.681	1081.112
250.147	14.791	1426.882	1081.693
251.161	14.766	1426.356	1081.038
252.176	14.932	1425.206	1081.142
253.190	14.915	1424.622	1080.490
254.205	14.938	1423.724	1079.864
255.220	14.958	1422.888	1079.264
256.234	14.945	1422.147	1078.523
257.249	14.935	1421.588	1077.938
258.263	14.986	1420.457	1077.312
259.278	15.037	1419.232	1076.619
260.293	15.035	1418.316	1075.816
261.307	15.049	1417.934	1075.523
262.322	15.084	1417.117	1075.027
263.336	15.051	1416.349	1074.137
264.351	15.104	1415.203	1073.519
265.366	15.068	1414.349	1072.543
266.380	15.209	1412.978	1072.310
267.395	15.172	1412.390	1071.530
268.409	15.141	1411.853	1070.832
269.424	15.162	1410.382	1069.755
270.439	15.136	1409.580	1068.889
271.453	15.194	1408.374	1068.247
272.468	15.102	1407.725	1067.074
273.482	15.129	1406.856	1066.493
274.497	15.131	1406.194	1065.908
275.512	15.227	1404.800	1065.368
276.526	15.211	1404.402	1064.872
277.541	15.167	1403.191	1063.579
278.555	15.193	1402.147	1062.859
279.570	15.314	1401.221	1062.832
280.585	15.258	1400.259	1061.649
281.599	15.356	1399.252	1061.415
282.614	15.321	1398.868	1060.805
283.628	15.320	1397.761	1059.868
284.643	15.298	1396.647	1058.788
285.657	15.306	1395.649	1057.988
286.672	15.311	1394.863	1057.334
287.687	15.307	1393.782	1056.396
288.701	15.369	1392.503	1055.720
289.716	15.395	1391.909	1055.343
290.730	15.282	1391.688	1054.372
291.745	15.463	1389.590	1053.824
292.760	15.408	1389.418	1053.255
293.774	15.416	1388.349	1052.402
294.789	15.514	1387.004	1051.906
295.803	15.513	1386.341	1051.299
296.818	15.581	1385.627	1051.095
297.833	15.488	1384.528	1049.585
298.847	15.513	1383.616	1048.958
299.862	15.533	1382.602	1048.216
300.876	15.519	1381.947	1047.541
301.891	15.468	1381.128	1046.510
302.906	15.680	1379.731	1046.682
303.920	15.664	1379.235	1046.109
304.935	15.593	1378.534	1045.046
305.949	15.673	1377.568	1044.719
306.964	15.734	1376.855	1044.461
307.979	15.740	1375.829	1043.628
308.993	15.784	1374.907	1043.111
310.008	15.777	1373.932	1042.235
311.022	15.755	1373.102	1041.381
312.037	15.737	1372.026	1040.358
313.052	15.788	1370.922	1039.741
314.066	15.838	1369.860	1039.156
315.081	15.797	1369.075	1038.218
316.095	15.685	1368.270	1036.823
317.110	15.679	1367.408	1036.038
318.125	15.723	1366.246	1035.337
319.139	15.746	1365.407	1034.752
320.154	15.649	1364.650	1033.491
321.168	15.776	1363.542	1033.340
322.183	15.768	1362.465	1032.384
323.197	15.777	1361.601	1031.691
324.212	15.743	1361.146	1031.050
325.227	15.746	1360.192	1030.251
326.241	15.885	1359.157	1030.227
327.256	15.881	1358.053	1029.276
328.270	15.947	1357.069	1028.845
329.285	15.943	1356.117	1028.009
330.300	15.869	1355.767	1027.198
331.314	15.908	1354.299	1026.235
332.329	15.866	1353.262	1025.102
333.343	15.798	1352.764	1024.217
334.358	15.986	1351.586	1024.382
335.373	15.995	1351.026	1023.918
336.387	16.040	1350.215	1023.489
337.402	16.011	1349.234	1022.477
338.416	16.050	1348.587	1022.132
339.431	16.033	1348.095	1021.567
340.446	16.083	1347.237	1021.128
341.460	16.090	1346.271	1020.348
342.475	16.116	1345.710	1019.991
343.489	16.217	1344.530	1019.615
344.504	16.259	1343.587	1019.064
345.519	16.235	1342.571	1018.060
346.533	16.260	1341.592	1017.378
347.548	16.222	1340.800	1016.456
348.562	16.360	1340.391	1016.888
349.577	16.316	1339.100	1015.551
350.592	16.344	1338.278	1015.012
351.606	16.303	1337.387	1013.995
352.621	16.274	1336.018	1012.696
353.635	16.237	1335.161	1011.734
354.650	16.240	1334.697	1011.314
355.665	16.215	1333.499	1010.167
356.679	16.273	1332.513	1009.674
357.694	16.366	1331.114	1009.081
358.708	16.405	1329.919	1008.321
359.723	16.325	1329.237	1007.236
360.738	16.362	1328.070	1006.480
361.752	16.341	1327.236	1005.634
362.767	16.313	1326.290	1004.662
363.781	16.433	1325.006	1004.318
364.796	16.417	1324.584	1003.811
365.810	16.511	1323.729	1003.634
366.825	16.423	1323.581	1002.907
367.840	16.514	1322.664	1002.664
368.854	16.623	1321.549	1002.376
369.869	16.629	1320.990	1001.900
370.883	16.539	1320.764	1001.109
371.898	16.667	1319.825	1001.064
372.913	16.618	1319.304	1000.292
373.927	16.583	1318.138	999.112
374.942	16.684	1317.081	998.820
375.956	16.664	1316.623	998.266
376.971	16.674	1315.864	997.661
377.986	16.624	1315.361	996.894
379.000	16.835	1313.701	996.788
380.015	16.768	1313.284	995.993
381.029	16.755	1312.635	995.335
382.044	16.761	1311.765	994.626
383.059	16.749	1310.887	993.799
384.073	16.857	1310.495	994.045
385.088	16.901	1309.520	993.479
386.102	16.881	1309.090	992.948
387.117	16.886	1308.399	992.363
388.132	16.955	1306.736	991.420
389.146	16.887	1306.391	990.670
390.161	16.893	1305.639	990.046
391.175	16.818	1304.905	988.965
392.190	16.928	1303.846	988.719
393.205	16.935	1303.232	988.206
394.219	16.989	1302.061	987.543
395.234	16.991	1301.189	986.807
396.248	17.073	1299.615	986.003
397.263	17.096	1298.477	985.183
398.278	16.989	1297.259	983.553
399.292	16.932	1296.149	982.294
400.307	16.916	1295.352	981.510
401.321	16.983	1294.620	981.255
402.336	16.909	1293.303	979.746
403.350	17.033	1292.056	979.428
404.365	17.021	1290.830	978.346
405.380	17.002	1290.684	978.036
406.394	17.028	1289.647	977.314
407.409	17.009	1289.082	976.690
408.423	17.096	1288.418	976.598
409.438	17.135	1287.931	976.368
410.453	17.194	1286.925	975.857
411.467	17.212	1286.388	975.468
412.482	17.269	1285.841	975.296
413.496	17.183	1285.122	974.170
414.511	17.207	1284.583	973.811
415.526	17.257	1283.311	973.050
416.540	17.360	1282.829	973.188
417.555	17.450	1282.147	973.099
418.569	17.448	1281.299	972.360
419.584	17.253	1281.168	971.057
420.599	17.349	1280.048	970.673
421.613	94.316	1351.676	1465.758
422.628	92.286	1362.080	1465.872
