DTS Sentinel unit serial number:	SN413079Multiplexer serial number:	ORYXHardware model number:	OX4-SRSoftware version number:	ORYX F/W v4.00 Oryx Data Collector v3.7.2.0data status	okinstallation	princeton_trtdifferential loss correction	single-endedforward channel	channel 4reverse channel	N/Adate	2019/09/16time	22:17:35forward acquisition time	60.00reverse acquisition time	0.00gamma	496.2192k internal	0.2313k external	0.2313temperature offset calibration	0.9969default loss term (dB/km)	0.3790temperature slope calibration	1.0000multiplexer offset coefficient	1.0000multiplexer slope coefficient	1.0000fibre end	0.00T internal ref (°C)	31.00T ext. ref 1 (°C)	0.08T ext. ref 2 (°C)	24.65length (m)	temperature (°C)	Stokes	anti-Stokes-747.200	800.000	0.044	-0.166
-746.185	93.358	-0.193	0.222
-745.171	-92.958	0.038	0.011
-744.156	390.483	0.216	0.455
-743.142	-200.000	0.029	0.464
-742.127	624.818	0.103	0.264
-741.112	-79.386	0.209	-0.072
-740.098	-9.561	-0.368	0.249
-739.083	-113.357	0.162	0.032
-738.069	-200.000	-0.112	0.511
-737.054	-194.534	0.270	0.002
-736.039	142.237	-0.153	-0.206
-735.025	-10.390	-0.314	-0.211
-734.010	258.429	-0.181	-0.316
-732.996	40.915	-0.222	0.203
-731.981	-44.447	0.263	-0.133
-730.966	-200.000	0.011	-0.264
-729.952	25.137	-0.337	-0.284
-728.937	-200.000	-0.027	-0.139
-727.923	-9.495	0.356	-0.241
-726.908	-200.000	0.015	0.270
-725.894	-59.274	0.314	0.137
-724.879	-117.405	0.092	0.017
-723.864	-200.000	-0.016	0.128
-722.850	800.000	0.066	0.210
-721.835	84.234	0.196	-0.218
-720.821	-200.000	0.014	0.257
-719.806	57.176	-0.178	0.176
-718.791	-17.331	-0.088	0.056
-717.777	120.967	0.066	-0.083
-716.762	-171.756	0.202	-0.007
-715.748	183.996	0.057	0.086
-714.733	800.000	0.043	0.132
-713.718	-200.000	-0.007	-0.143
-712.704	-123.470	0.230	0.037
-711.689	144.973	0.044	-0.060
-710.675	37.888	0.216	-0.194
-709.660	126.161	0.162	-0.208
-708.645	133.253	0.174	-0.228
-707.631	-22.644	-0.234	-0.144
-706.616	789.791	-0.082	-0.228
-705.602	52.263	-0.121	-0.116
-704.587	215.706	0.118	-0.190
-703.572	66.953	-0.312	-0.322
-702.558	-88.352	-0.384	-0.116
-701.543	195.703	0.122	0.188
-700.529	-132.438	-0.301	-0.039
-699.514	-200.000	-0.011	-0.094
-698.499	800.000	0.035	0.110
-697.485	800.000	-0.017	-0.059
-696.470	-200.000	0.018	-0.314
-695.456	308.000	0.087	-0.164
-694.441	-36.570	-0.137	0.075
-693.426	31.633	0.161	-0.140
-692.412	800.000	-0.037	-0.109
-691.397	-54.592	0.222	0.102
-690.383	319.128	-0.106	0.204
-689.368	244.300	-0.160	0.272
-688.354	-155.569	-0.304	0.020
-687.339	-76.704	0.314	0.112
-686.324	522.870	-0.142	0.338
-685.310	-128.989	0.207	-0.029
-684.295	-135.051	0.132	-0.016
-683.281	-200.000	-0.001	-0.333
-682.266	-168.384	0.094	0.004
-681.251	-200.000	-0.009	0.137
-680.237	800.000	-0.095	-0.380
-679.222	-200.000	0.015	-0.381
-678.208	-85.487	0.252	-0.079
-677.193	-71.535	-0.157	0.059
-676.178	82.520	-0.081	0.089
-675.164	800.000	0.058	0.187
-674.149	250.840	-0.127	0.219
-673.135	773.615	-0.115	-0.318
-672.120	-8.394	0.149	-0.101
-671.105	-123.702	-0.184	-0.029
-670.091	146.175	0.156	-0.212
-669.076	-94.503	-0.096	0.026
-668.062	324.896	0.149	0.289
-667.047	200.491	0.079	-0.122
-666.032	102.726	0.251	0.297
-665.018	800.000	0.030	-0.124
-664.003	-32.953	-0.161	-0.090
-662.989	-81.268	0.103	0.034
-661.974	6.726	0.096	0.072
-660.959	-145.141	-0.172	0.016
-659.945	40.369	-0.220	-0.200
-658.930	-131.841	-0.336	0.044
-657.916	-60.898	-0.282	0.121
-656.901	-101.570	0.109	0.027
-655.886	261.478	0.069	0.122
-654.872	-182.125	0.121	0.002
-653.857	-200.000	-0.049	0.371
-652.843	92.711	-0.204	0.232
-651.828	-72.656	0.439	-0.164
-650.814	-57.608	0.122	0.054
-649.799	-98.153	0.269	0.070
-648.784	197.518	-0.137	-0.212
-647.770	800.000	-0.096	-0.283
-646.755	484.235	0.128	-0.294
-645.741	-54.959	0.093	0.042
-644.726	8.544	-0.245	-0.186
-643.711	-200.000	0.041	0.269
-642.697	-134.364	-0.060	-0.007
-641.682	800.000	-0.101	-0.353
-640.668	113.892	0.147	-0.180
-639.653	-61.472	-0.246	-0.105
-638.638	-200.000	0.026	-0.172
-637.624	-200.000	-0.075	-0.442
-636.609	-200.000	-0.026	0.127
-635.595	800.000	-0.042	-0.144
-634.580	-200.000	-0.049	0.339
-633.565	25.459	-0.171	0.143
-632.551	-200.000	0.022	-0.099
-631.536	162.795	0.041	-0.059
-630.522	9.152	0.090	0.069
-629.507	411.225	-0.049	0.105
-628.492	116.341	-0.116	-0.144
-627.478	140.005	-0.263	-0.350
-626.463	54.589	0.186	0.181
-625.449	178.403	-0.145	0.213
-624.434	-196.906	-0.101	-0.001
-623.419	800.000	-0.075	-0.276
-622.405	63.369	-0.206	-0.209
-621.390	-87.131	0.352	-0.108
-620.376	20.461	-0.263	-0.215
-619.361	-95.768	-0.238	0.064
-618.346	-200.000	0.011	-0.194
-617.332	-38.335	0.278	0.149
-616.317	-200.000	0.012	-0.104
-615.303	3.331	-0.191	-0.140
-614.288	800.000	0.029	-0.105
-613.273	800.000	0.079	-0.297
-612.259	-138.083	0.097	-0.011
-611.244	-200.000	-0.025	-0.170
-610.230	223.401	0.164	-0.267
-609.215	-29.064	0.226	0.131
-608.201	-200.000	-0.002	-0.113
-607.186	-85.035	0.075	-0.024
-606.171	327.358	0.032	-0.062
-605.157	197.105	0.065	-0.101
-604.142	77.042	-0.299	-0.320
-603.128	-112.056	0.107	0.022
-602.113	-97.780	0.248	-0.065
-601.098	-122.053	-0.519	-0.086
-600.084	288.763	0.110	0.201
-599.069	-47.493	-0.107	-0.052
-598.055	800.000	-0.103	0.447
-597.040	8.885	-0.145	-0.110
-596.025	-161.931	0.159	0.008
-595.011	-18.108	-0.231	0.146
-593.996	-103.881	-0.199	-0.047
-592.982	34.080	-0.106	-0.093
-591.967	156.331	-0.051	0.071
-590.952	-200.000	0.031	0.176
-589.938	112.417	-0.110	0.135
-588.923	-43.748	-0.145	0.074
-587.909	-200.000	0.024	0.282
-586.894	-200.000	0.003	-0.052
-585.879	33.522	-0.198	0.173
-584.865	63.439	0.362	0.366
-583.850	108.008	0.111	-0.133
-582.836	-82.335	-0.098	-0.032
-581.821	317.891	0.040	-0.077
-580.806	-110.185	-0.296	-0.062
-579.792	345.802	-0.201	0.398
-578.777	560.666	-0.119	0.291
-577.763	-34.143	-0.095	0.053
-576.748	-200.000	0.009	-0.052
-575.733	54.104	0.253	0.245
-574.719	139.744	0.106	0.141
-573.704	-128.051	-0.335	-0.048
-572.690	-42.728	0.120	0.062
-571.675	-200.000	-0.009	-0.125
-570.661	171.162	-0.167	-0.241
-569.646	-133.201	0.216	0.028
-568.631	-27.074	0.232	-0.136
-567.617	-47.798	-0.557	0.272
-566.602	50.032	-0.091	0.086
-565.588	-49.531	0.363	0.174
-564.573	57.710	-0.203	-0.200
-563.558	5.873	0.230	0.172
-562.544	800.000	-0.037	0.150
-561.529	-50.129	0.176	0.084
-560.515	158.213	-0.088	0.123
-559.500	-86.354	-0.217	0.067
-558.485	350.599	0.069	-0.138
-557.471	-200.000	-0.006	0.433
-556.456	-200.000	0.060	-0.330
-555.442	56.207	0.083	-0.081
-554.427	-107.906	0.145	-0.032
-553.412	-144.393	-0.366	0.034
-552.398	73.924	-0.095	0.100
-551.383	-200.000	0.017	0.085
-550.369	-200.000	0.020	0.095
-549.354	364.588	-0.150	-0.304
-548.339	-93.883	-0.340	0.094
-547.325	800.000	-0.060	0.241
-546.310	590.688	0.195	0.485
-545.296	87.775	-0.066	-0.074
-544.281	800.000	-0.104	-0.424
-543.266	-126.864	-0.277	0.041
-542.252	800.000	0.057	0.239
-541.237	-200.000	-0.039	0.172
-540.223	47.758	0.163	0.153
-539.208	-200.000	-0.008	0.197
-538.193	-91.167	0.094	0.027
-537.179	-200.000	-0.007	0.057
-536.164	377.300	-0.024	0.049
-535.150	-200.000	0.035	0.234
-534.135	-146.897	0.122	-0.011
-533.121	193.409	0.224	0.341
-532.106	92.287	0.129	0.147
-531.091	548.341	-0.139	-0.335
-530.077	42.154	0.175	-0.160
-529.062	-120.258	-0.322	0.055
-528.048	-200.000	-0.011	0.071
-527.033	800.000	0.051	-0.152
-526.018	-135.149	-0.219	-0.026
-525.004	-102.893	0.299	-0.071
-523.989	800.000	-0.016	0.068
-522.975	-90.619	0.354	0.103
-521.960	347.320	-0.045	0.090
-520.945	-200.000	-0.038	-0.307
-519.931	800.000	-0.065	-0.187
-518.916	546.151	-0.115	-0.276
-517.902	283.854	-0.099	-0.179
-516.887	-84.767	0.183	-0.058
-515.872	156.161	0.242	0.336
-514.858	-92.057	-0.128	-0.036
-513.843	-51.359	0.223	-0.105
-512.829	-200.000	0.018	0.300
-511.814	38.335	-0.200	0.179
-510.799	-33.767	0.403	-0.223
-509.785	-32.569	-0.229	0.128
-508.770	-55.829	-0.197	-0.088
-507.756	-140.672	0.230	-0.024
-506.741	-200.000	0.106	0.507
-505.726	-2.577	-0.248	0.175
-504.712	800.000	-0.088	0.323
-503.697	-107.078	-0.165	-0.037
-502.683	69.188	0.190	-0.197
-501.668	-110.476	0.305	-0.064
-500.653	-138.525	-0.284	0.031
-499.639	-0.149	-0.200	0.143
-498.624	800.000	-0.123	-0.390
-497.610	-15.640	0.096	0.062
-496.595	-182.390	0.300	0.006
-495.581	-200.000	-0.010	0.231
-494.566	3.671	0.302	-0.221
-493.551	125.265	-0.085	-0.107
-492.537	-200.000	0.013	0.140
-491.522	-16.668	0.169	-0.107
-490.508	-66.033	-0.303	-0.121
-489.493	-76.220	-0.302	-0.107
-488.478	-61.521	0.388	0.164
-487.464	-170.835	-0.144	-0.005
-486.449	124.261	0.306	-0.386
-485.435	800.000	-0.056	0.221
-484.420	-135.833	0.282	0.033
-483.405	25.522	-0.122	-0.102
-482.391	648.683	-0.100	-0.258
-481.376	-38.960	-0.294	0.155
-480.362	-200.000	-0.059	0.425
-479.347	-200.000	0.172	0.000
-478.332	102.900	0.071	0.083
-477.318	-138.943	-0.220	-0.024
-476.303	-41.334	-0.150	-0.078
-475.289	-47.753	0.174	-0.085
-474.274	-200.000	-0.033	0.173
-473.259	478.154	0.141	0.320
-472.245	103.078	0.170	-0.200
-471.230	243.849	0.231	-0.389
-470.216	-67.474	0.175	0.069
-469.201	-185.526	0.045	0.001
-468.186	-63.393	0.231	-0.095
-467.172	78.770	0.051	-0.055
-466.157	-141.642	0.102	-0.010
-465.143	-200.000	0.014	-0.299
-464.128	800.000	-0.033	-0.146
-463.113	-127.224	0.160	0.023
-462.099	-108.952	0.339	-0.072
-461.084	-200.000	0.032	0.169
-460.070	-162.788	-0.365	-0.018
-459.055	-114.715	-0.130	-0.025
-458.040	-200.000	-0.008	0.104
-457.026	800.000	0.076	-0.240
-456.011	-200.000	0.030	0.212
-454.997	800.000	-0.108	-0.346
-453.982	281.393	-0.167	0.300
-452.968	118.660	-0.124	-0.154
-451.953	-200.000	-0.009	-0.057
-450.938	96.487	0.264	0.303
-449.924	-200.000	-0.067	0.350
-448.909	-108.595	0.085	0.018
-447.895	-63.779	0.047	0.019
-446.880	-200.000	0.019	-0.207
-445.865	305.936	-0.191	0.356
-444.851	800.000	-0.096	0.269
-443.836	190.730	-0.046	-0.069
-442.822	440.131	0.064	-0.140
-441.807	72.014	0.140	-0.146
-440.792	-200.000	-0.019	-0.225
-439.778	112.314	0.070	0.085
-438.763	299.696	0.041	-0.075
-437.749	41.553	-0.202	0.183
-436.734	-134.979	-0.092	0.011
-435.719	97.393	-0.049	0.056
-434.705	-188.617	0.208	-0.003
-433.690	-200.000	0.009	-0.080
-432.676	-200.000	0.027	-0.153
-431.661	135.035	0.177	-0.231
-430.646	800.000	0.006	0.021
-429.632	-166.520	-0.286	-0.012
-428.617	-200.000	0.039	-0.285
-427.603	-120.315	-0.239	-0.041
-426.588	133.424	0.059	-0.077
-425.573	298.012	0.060	0.110
-424.559	-200.000	-0.001	0.421
-423.544	-75.977	0.152	-0.054
-422.530	-191.527	0.153	-0.002
-421.515	23.940	-0.080	0.066
-420.500	-152.132	-0.199	-0.014
-419.486	-200.000	-0.027	-0.299
-418.471	394.155	0.192	0.400
-417.457	15.058	-0.208	0.163
-416.442	-138.804	-0.299	0.033
-415.428	217.532	-0.165	0.263
-414.413	-78.909	0.096	-0.033
-413.398	-120.286	0.391	-0.067
-412.384	-148.680	-0.194	-0.016
-411.369	-109.154	-0.091	0.019
-410.355	-107.616	-0.138	-0.030
-409.340	229.156	-0.133	0.217
-408.325	-29.817	0.076	-0.043
-407.311	200.063	0.063	0.097
-406.296	148.267	-0.160	-0.216
-405.282	-79.086	-0.135	0.046
-404.267	84.535	-0.028	0.030
-403.252	-33.874	-0.273	-0.151
-402.238	-64.345	-0.187	-0.076
-401.223	-55.823	-0.298	-0.133
-400.209	-87.201	-0.335	-0.102
-399.194	-106.676	-0.310	0.069
-398.179	599.564	0.049	-0.122
-397.165	-139.534	0.360	-0.039
-396.150	-200.000	0.033	0.353
-395.136	14.006	-0.245	-0.191
-394.121	800.000	0.025	0.109
-393.106	-200.000	0.046	0.270
-392.092	-71.762	0.224	-0.084
-391.077	800.000	0.086	-0.255
-390.063	800.000	0.031	-0.108
-389.048	-86.506	-0.135	0.041
-388.033	-17.643	0.099	-0.062
-387.019	532.467	0.077	-0.182
-386.004	-55.590	0.240	-0.107
-384.990	376.193	0.072	-0.147
-383.975	-150.638	0.242	-0.018
-382.960	27.890	-0.212	-0.179
-381.946	-71.608	-0.122	0.046
-380.931	-83.854	0.239	0.076
-379.917	-173.632	0.096	-0.003
-378.902	5.947	0.192	-0.142
-377.888	-63.753	0.071	0.029
-376.873	-40.212	-0.205	-0.107
-375.858	-200.000	0.016	-0.392
-374.844	-200.000	0.196	-0.001
-373.829	76.430	-0.117	0.124
-372.815	-122.295	0.115	0.019
-371.800	-84.421	-0.162	0.051
-370.785	28.409	-0.100	0.085
-369.771	39.510	0.229	0.205
-368.756	-200.000	0.082	-0.439
-367.742	362.984	-0.078	0.157
-366.727	-72.410	0.068	0.025
-365.712	-77.733	0.060	-0.021
-364.698	-153.793	0.330	0.023
-363.683	429.020	0.141	-0.305
-362.669	76.285	-0.128	-0.135
-361.654	-121.045	-0.174	-0.029
-360.639	39.577	-0.347	-0.311
-359.625	-62.453	0.076	-0.032
-358.610	-200.000	-0.002	-0.183
-357.596	140.000	0.232	0.305
-356.581	-34.808	0.101	0.055
-355.566	106.022	0.219	0.259
-354.552	419.867	-0.152	-0.324
-353.537	-200.000	0.036	0.165
-352.523	495.112	0.074	-0.170
-351.508	-98.913	0.216	0.055
-350.493	-120.579	-0.300	0.051
-349.479	-200.000	-0.043	-0.390
-348.464	-200.000	0.030	-0.135
-347.450	187.285	0.041	-0.061
-346.435	-17.872	0.130	0.082
-345.420	-20.313	0.179	0.110
-344.406	102.295	0.040	0.046
-343.391	212.910	-0.104	-0.164
-342.377	-200.000	-0.025	-0.269
-341.362	110.423	0.086	-0.103
-340.348	-200.000	-0.035	0.295
-339.333	22.968	0.253	0.208
-338.318	-200.000	-0.006	0.110
-337.304	-200.000	0.008	-0.138
-336.289	-200.000	0.073	0.378
-335.275	-200.000	-0.003	-0.078
-334.260	-200.000	0.009	-0.102
-333.245	6.061	0.071	0.052
-332.231	-200.000	-0.071	-0.541
-331.216	66.862	0.059	0.060
-330.202	418.923	0.122	-0.260
-329.187	-200.000	-0.008	0.092
-328.172	-200.000	0.057	-0.285
-327.158	-200.000	-0.050	0.376
-326.143	196.606	-0.150	-0.229
-325.129	-32.333	0.167	0.093
-324.114	-200.000	0.008	0.094
-323.099	254.810	0.103	-0.176
-322.085	-109.131	0.240	0.051
-321.070	-200.000	0.006	0.275
-320.056	-103.248	-0.251	-0.059
-319.041	439.390	0.023	0.050
-318.026	50.613	0.152	0.143
-317.012	151.378	-0.209	0.284
-315.997	-35.351	0.163	0.089
-314.983	-70.388	-0.428	-0.162
-313.968	-93.869	-0.212	0.058
-312.953	-200.000	-0.052	-0.268
-311.939	6.335	-0.370	-0.274
-310.924	-148.664	0.063	-0.005
-309.910	-3.206	-0.264	0.183
-308.895	-126.176	-0.385	-0.057
-307.880	800.000	0.036	0.137
-306.866	221.241	-0.118	0.188
-305.851	-59.254	0.074	-0.032
-304.837	144.111	-0.114	0.151
-303.822	-43.825	-0.226	-0.114
-302.807	-200.000	0.016	-0.085
-301.793	-39.394	-0.165	0.086
-300.778	-138.505	0.250	-0.027
-299.764	-75.504	-0.264	0.094
-298.749	-200.000	0.048	-0.234
-297.735	-200.000	0.055	-0.297
-296.720	-200.000	-0.087	0.447
-295.705	800.000	0.057	0.165
-294.691	155.867	0.095	-0.130
-293.676	11.731	0.181	-0.138
-292.662	186.572	0.105	-0.155
-291.647	-200.000	0.001	0.194
-290.632	462.439	-0.055	-0.122
-289.618	-116.823	0.187	0.034
-288.603	-32.184	0.117	-0.065
-287.589	156.084	-0.121	-0.166
-286.574	-200.000	-0.033	-0.152
-285.559	48.508	0.190	-0.177
-284.545	-114.340	0.127	0.024
-283.530	-167.633	-0.193	-0.008
-282.516	-29.953	-0.130	-0.074
-281.501	-200.000	-0.081	-0.000
-280.486	-103.338	-0.352	0.083
-279.472	-134.741	-0.220	0.027
-278.457	-44.560	0.173	0.086
-277.443	63.045	-0.157	-0.156
-276.428	-200.000	0.069	0.380
-275.413	-101.210	0.450	-0.110
-274.399	30.312	0.158	0.135
-273.384	-97.425	-0.138	0.036
-272.370	164.993	0.066	0.093
-271.355	43.036	0.280	-0.255
-270.340	-118.306	0.165	-0.029
-269.326	-87.507	0.149	-0.045
-268.311	-10.465	-0.353	0.233
-267.297	-97.940	0.185	0.047
-266.282	344.758	0.168	-0.328
-265.267	542.423	-0.054	0.128
-264.253	149.798	0.115	0.155
-263.238	-88.399	0.199	0.059
-262.224	213.088	0.079	0.125
-261.209	-130.325	0.240	-0.032
-260.195	339.974	0.091	-0.177
-259.180	29.541	-0.258	0.218
-258.165	11.546	-0.127	0.097
-257.151	55.055	0.078	0.075
-256.136	9.103	-0.019	-0.014
-255.122	-200.000	-0.023	-0.206
-254.107	-53.786	-0.173	-0.079
-253.092	4.680	0.196	-0.144
-252.078	-46.447	0.255	-0.124
-251.063	-8.194	-0.252	-0.169
-250.049	-124.490	-0.189	0.029
-249.034	-77.072	0.390	0.135
-248.019	800.000	-0.072	-0.257
-247.005	800.000	-0.021	0.089
-245.990	-16.471	0.176	0.111
-244.976	-200.000	0.036	-0.240
-243.961	770.410	-0.034	0.092
-242.946	-9.115	0.288	0.191
-241.932	-131.993	-0.274	-0.036
-240.917	58.938	-0.187	-0.183
-239.903	132.356	-0.082	-0.105
-238.888	-174.991	-0.067	-0.002
-237.873	364.688	0.131	0.263
-236.859	209.704	-0.174	0.271
-235.844	-93.221	0.330	0.091
-234.830	-102.750	0.166	0.039
-233.815	800.000	-0.059	-0.217
-232.800	38.430	0.144	-0.127
-231.786	707.108	-0.063	-0.165
-230.771	-120.508	-0.283	0.048
-229.757	-200.000	0.053	-0.354
-228.742	-200.000	0.030	-0.285
-227.727	-200.000	0.020	0.526
-226.713	-78.158	0.422	-0.144
-225.698	236.794	0.162	-0.266
-224.684	62.027	0.038	-0.038
-223.669	69.324	0.049	0.050
-222.655	130.547	-0.138	0.176
-221.640	319.806	-0.073	0.137
-220.625	-58.513	0.268	-0.116
-219.611	-200.000	-0.001	0.180
-218.596	800.000	0.134	0.442
-217.582	800.000	-0.094	-0.300
-216.567	-200.000	0.070	0.349
-215.552	-60.633	0.129	-0.054
-214.538	-120.728	-0.164	0.028
-213.523	382.567	-0.076	-0.155
-212.509	800.000	0.054	0.218
-211.494	217.018	0.067	-0.107
-210.479	-200.000	0.061	-0.307
-209.465	-73.981	0.309	0.111
-208.450	800.000	-0.052	-0.152
-207.436	-200.000	0.009	0.220
-206.421	223.537	0.106	0.170
-205.406	37.333	0.063	-0.055
-204.392	89.392	-0.144	0.160
-203.377	122.490	0.058	-0.073
-202.363	58.744	-0.169	0.165
-201.348	-53.360	0.146	-0.067
-200.333	288.919	0.056	0.100
-199.319	-139.843	-0.325	0.034
-198.304	-200.000	0.007	-0.032
-197.290	-200.000	0.077	0.427
-196.275	268.699	0.056	0.098
-195.260	208.716	0.100	0.155
-194.246	-200.000	0.000	-0.064
-193.231	-82.742	-0.238	0.077
-192.217	800.000	-0.030	0.122
-191.202	-119.092	0.245	0.043
-190.187	-142.402	-0.245	0.024
-189.173	231.767	0.123	0.200
-188.158	77.850	-0.096	-0.101
-187.144	-200.000	0.033	-0.173
-186.129	231.649	0.141	0.229
-185.114	41.634	-0.150	0.135
-184.100	800.000	0.068	0.253
-183.085	28.748	0.188	-0.158
-182.071	-200.000	-0.019	-0.306
-181.056	530.299	-0.027	0.064
-180.042	-143.847	0.097	0.009
-179.027	119.872	-0.189	-0.232
-178.012	800.000	-0.058	-0.189
-176.998	-158.379	0.179	0.010
-175.983	-131.258	0.244	0.032
-174.969	800.000	0.058	-0.211
-173.954	800.000	-0.034	0.106
-172.939	-200.000	0.049	-0.302
-171.925	-60.137	0.215	0.091
-170.910	312.291	-0.116	0.216
-169.896	75.376	0.095	0.099
-168.881	300.209	-0.208	0.381
-167.866	-200.000	0.004	-0.120
-166.852	-200.000	-0.013	0.146
-165.837	22.824	-0.025	-0.020
-164.823	-24.471	-0.234	0.138
-163.808	-133.022	-0.075	-0.009
-162.793	-173.646	-0.137	-0.004
-161.779	800.000	0.040	0.162
-160.764	268.896	0.180	0.312
-159.750	-200.000	-0.016	0.225
-158.735	-0.112	0.043	-0.030
-157.720	-200.000	0.021	0.173
-156.706	-180.976	0.218	-0.004
-155.691	-112.710	-0.137	0.027
-154.677	161.086	-0.258	-0.357
-153.662	-200.000	0.086	0.000
-152.647	-45.633	-0.218	-0.107
-151.633	262.023	-0.099	0.171
-150.618	10.539	-0.064	0.049
-149.604	-84.091	-0.036	0.011
-148.589	495.801	-0.069	0.157
-147.574	9.022	0.143	0.107
-146.560	-200.000	-0.020	0.192
-145.545	-200.000	-0.039	-0.173
-144.531	102.404	0.148	0.171
-143.516	292.786	0.153	0.276
-142.502	-87.002	0.101	0.031
-141.487	-59.302	0.146	0.062
-140.472	-109.232	-0.213	-0.045
-139.458	800.000	-0.036	0.127
-138.443	-129.603	-0.429	-0.059
-137.429	151.071	0.113	-0.152
-136.414	46.851	0.201	-0.185
-135.399	54.183	0.143	-0.137
-134.385	-70.293	0.213	0.080
-133.370	517.820	0.075	-0.174
-132.356	7.052	-0.158	-0.117
-131.341	-131.209	0.254	-0.033
-130.326	-200.000	0.002	0.346
-129.312	23.639	0.337	0.274
-128.297	9.851	0.405	0.304
-127.283	254.541	0.177	0.300
-126.268	100.019	0.071	-0.081
-125.253	-52.668	-0.147	-0.067
-124.239	-16.374	-0.111	-0.070
-123.224	-56.421	0.432	0.190
-122.210	800.000	-0.074	0.282
-121.195	-142.290	-0.084	-0.008
-120.180	-66.078	0.190	-0.075
-119.166	-200.000	-0.052	-0.257
-118.151	234.252	-0.174	-0.284
-117.137	166.998	-0.084	-0.119
-116.122	-136.379	0.185	-0.021
-115.107	-200.000	0.004	0.160
-114.093	-56.484	0.302	-0.133
-113.078	16.116	0.051	0.040
-112.064	-200.000	0.028	-0.194
-111.049	-200.000	-0.007	-0.090
-110.034	-102.620	0.128	0.030
-109.020	165.460	-0.213	-0.297
-108.005	3.887	-0.162	0.117
-106.991	-24.322	0.233	0.138
-105.976	104.993	0.126	0.147
-104.962	-28.507	0.198	-0.113
-103.947	-123.128	-0.287	-0.045
-102.932	-35.475	0.034	-0.018
-101.918	75.650	0.275	-0.287
-100.903	195.317	0.071	0.106
-99.889	655.311	-0.008	0.020
-98.874	800.000	-0.044	-0.142
-97.859	-72.482	0.133	0.049
-96.845	-200.000	-0.005	-0.166
-95.830	-110.262	-0.196	0.040
-94.816	21.600	0.040	0.032
-93.801	212.578	0.132	-0.205
-92.786	154.622	0.060	-0.081
-91.772	800.000	-0.092	0.306
-90.757	6.624	-0.185	-0.136
-89.743	-149.040	-0.350	-0.028
-88.728	-54.537	-0.182	0.081
-87.713	-46.595	0.072	0.035
-86.699	342.372	0.030	0.057
-85.684	-16.699	-0.245	0.154
-84.670	-125.515	0.030	-0.005
-83.655	40.723	-0.308	-0.274
-82.640	42.317	0.084	0.075
-81.626	745.338	0.059	0.158
-80.611	-200.000	0.005	0.268
-79.597	-41.255	-0.135	0.069
-78.582	-13.745	0.085	0.055
-77.567	-200.000	0.001	0.115
-76.553	-191.069	0.181	0.002
-75.538	-125.977	-0.255	0.038
-74.524	-200.000	-0.008	-0.051
-73.509	-47.736	0.180	0.086
-72.494	-102.359	-0.174	-0.041
-71.480	17.626	-0.077	0.060
-70.465	800.000	-0.037	-0.110
-69.451	398.968	-0.149	0.308
-68.436	-200.000	0.013	-0.059
-67.422	-200.000	0.053	0.432
-66.407	339.940	0.071	0.137
-65.392	195.555	0.095	0.143
-64.378	-33.596	-0.214	-0.117
-63.363	538.545	0.033	0.076
-62.349	327.839	-0.134	0.255
-61.334	-51.105	-0.994	-0.460
-60.319	41.487	0.642	0.574
-59.305	589.840	-0.425	-1.036
-58.290	37.840	0.890	0.781
-57.276	558.891	0.607	1.446
-56.261	-200.000	101.249	577.581
-55.246	488.116	1421.588	3204.857
-54.232	152.793	2602.109	3511.424
-53.217	100.545	2305.454	2643.369
-52.203	37.432	2061.557	1804.645
-51.188	32.663	1976.244	1687.321
-50.173	31.185	1959.001	1659.409
-49.159	46.034	2011.475	1838.056
-48.144	47.315	2029.916	1866.400
-47.130	33.258	1989.894	1704.067
-46.115	31.010	1979.248	1674.717
-45.100	30.815	1976.658	1670.708
-44.086	30.852	1974.473	1669.129
-43.071	30.822	1972.055	1666.755
-42.057	30.801	1970.057	1664.812
-41.042	30.809	1968.042	1663.115
-40.027	30.879	1965.745	1661.726
-39.013	30.942	1963.400	1660.240
-37.998	30.899	1962.003	1658.617
-36.984	30.942	1960.112	1657.333
-35.969	30.969	1958.071	1655.783
-34.954	30.935	1956.029	1653.684
-33.940	30.948	1955.585	1653.362
-32.925	30.980	1953.093	1651.471
-31.911	30.936	1951.743	1649.878
-30.896	30.944	1950.363	1648.714
-29.881	31.059	1948.655	1648.219
-28.867	31.055	1947.206	1646.894
-27.852	31.182	1944.974	1646.057
-26.838	31.109	1943.240	1643.886
-25.823	31.163	1941.265	1642.624
-24.809	31.046	1939.932	1640.399
-23.794	30.984	1938.249	1638.365
-22.779	31.019	1936.641	1637.251
-21.765	31.040	1934.570	1635.615
-20.750	30.988	1933.818	1634.463
-19.736	31.036	1931.602	1632.950
-18.721	31.073	1929.981	1631.833
-17.706	31.072	1928.906	1630.854
-16.692	30.943	1927.301	1628.300
-15.677	30.962	1925.490	1626.876
-14.663	31.011	1923.512	1625.562
-13.648	31.022	1922.641	1624.864
-12.633	31.068	1921.037	1623.844
-11.619	31.051	1919.853	1622.630
-10.604	30.952	1918.948	1620.941
-9.590	31.024	1917.036	1619.883
-8.575	30.963	1915.854	1618.294
-7.560	30.963	1914.969	1617.478
-6.546	31.022	1913.350	1616.563
-5.531	30.942	1912.463	1615.053
-4.517	30.966	1911.276	1614.191
-3.502	31.049	1909.755	1613.562
-2.487	31.008	1908.333	1611.943
-1.473	31.042	1907.493	1611.464
-0.458	31.032	1902.785	1607.335
0.556	28.844	1882.923	1579.191
1.571	24.502	1863.931	1526.104
2.586	20.455	1886.630	1509.461
3.600	19.503	1921.911	1529.129
4.615	19.238	1916.984	1522.732
5.629	14.950	1816.793	1407.020
6.644	5.980	1696.191	1242.776
7.659	0.626	1658.208	1173.335
8.673	0.151	1655.097	1167.342
9.688	0.109	1653.386	1165.708
10.702	0.073	1652.108	1164.426
11.717	-0.022	1648.655	1161.155
12.731	0.567	1648.204	1165.282
13.746	7.121	1662.201	1225.963
14.761	15.366	1678.769	1302.325
15.775	17.695	1681.679	1322.556
16.790	16.931	1678.572	1314.078
17.804	15.850	1674.894	1302.723
18.819	14.871	1671.507	1292.407
19.834	14.318	1669.501	1286.469
20.848	14.039	1668.152	1283.165
21.863	13.803	1665.878	1279.480
22.877	13.483	1665.069	1276.278
23.892	13.361	1663.168	1273.772
24.907	13.208	1662.445	1271.923
25.921	13.148	1661.226	1270.419
26.936	13.148	1660.291	1269.592
27.950	13.200	1659.389	1269.187
28.965	13.218	1659.005	1268.922
29.980	13.324	1658.239	1269.040
30.994	13.427	1656.873	1268.671
32.009	13.409	1656.042	1267.779
33.023	13.462	1654.923	1267.220
34.038	13.500	1654.482	1267.058
35.053	13.453	1653.131	1265.552
36.067	13.439	1651.772	1264.297
37.082	13.359	1651.271	1263.186
38.096	13.407	1649.934	1262.424
39.111	13.348	1649.735	1261.708
40.126	13.437	1648.256	1261.144
41.140	13.407	1647.849	1260.493
42.155	13.383	1646.145	1258.893
43.169	13.302	1644.500	1256.908
44.184	13.155	1644.130	1255.395
45.199	13.061	1642.712	1253.488
46.213	13.113	1641.529	1252.869
47.228	13.171	1639.954	1251.998
48.242	13.268	1638.907	1251.822
49.257	13.308	1637.930	1251.269
50.271	13.254	1636.868	1249.936
51.286	13.289	1635.322	1248.913
52.301	13.348	1633.932	1248.184
53.315	13.311	1632.831	1246.950
54.330	13.244	1631.243	1245.126
55.344	13.223	1629.147	1243.260
56.359	13.166	1628.422	1242.169
57.374	13.167	1627.357	1241.247
58.388	13.165	1626.037	1240.120
59.403	13.196	1624.793	1239.295
60.417	13.135	1623.681	1237.877
61.432	13.136	1622.266	1236.697
62.447	13.114	1621.182	1235.596
63.461	13.113	1619.722	1234.367
64.476	13.068	1618.512	1232.998
65.490	13.059	1617.329	1231.922
66.505	13.038	1616.042	1230.674
67.520	13.007	1615.226	1229.718
68.534	13.129	1614.379	1229.871
69.549	13.124	1613.315	1228.910
70.563	13.243	1611.521	1228.326
71.578	13.121	1610.271	1226.356
72.593	13.111	1609.503	1225.588
73.607	12.958	1608.615	1223.665
74.622	13.069	1606.875	1223.059
75.636	13.010	1606.217	1222.011
76.651	12.957	1605.288	1220.805
77.666	13.153	1604.345	1221.432
78.680	13.112	1603.265	1220.195
79.695	13.001	1602.826	1218.933
80.709	12.959	1601.496	1217.506
81.724	13.064	1600.758	1217.612
82.739	13.033	1599.913	1216.630
83.753	13.142	1598.717	1216.418
84.768	13.220	1597.772	1216.163
85.782	13.172	1597.331	1215.368
86.797	13.283	1596.078	1215.125
87.812	13.305	1594.880	1214.264
88.826	13.269	1593.481	1212.829
89.841	13.205	1592.804	1211.736
90.855	13.147	1591.788	1210.429
91.870	13.268	1590.589	1210.301
92.884	13.297	1589.833	1209.825
93.899	13.266	1589.223	1209.029
94.914	13.275	1587.969	1208.037
95.928	13.372	1586.277	1207.351
96.943	13.439	1584.640	1206.488
97.957	13.410	1583.667	1205.423
98.972	13.303	1582.231	1203.447
99.987	13.303	1580.674	1202.159
101.001	13.408	1579.107	1201.624
102.016	13.407	1577.368	1200.183
103.030	13.357	1576.143	1198.781
104.045	13.256	1575.733	1197.635
105.060	13.350	1574.050	1196.932
106.074	13.319	1572.573	1195.476
107.089	13.224	1570.902	1193.413
108.103	13.118	1569.492	1191.470
109.118	13.217	1567.919	1190.885
110.133	13.114	1566.834	1189.212
111.147	13.144	1565.464	1188.284
112.162	13.122	1564.522	1187.305
113.176	13.117	1562.883	1185.924
114.191	13.233	1561.308	1185.457
115.206	13.242	1559.969	1184.400
116.220	13.217	1559.140	1183.485
117.235	13.253	1557.471	1182.371
118.249	13.238	1556.104	1181.119
119.264	13.195	1555.234	1180.052
120.279	13.104	1553.682	1178.115
121.293	13.113	1551.912	1176.740
122.308	13.123	1550.901	1175.936
123.322	13.224	1548.760	1174.931
124.337	13.112	1547.667	1173.198
125.352	13.080	1546.376	1171.888
126.366	13.073	1545.555	1171.117
127.381	13.082	1544.231	1170.071
128.395	13.075	1543.179	1169.121
129.410	13.209	1541.646	1168.803
130.424	13.176	1540.119	1167.310
131.439	13.207	1539.036	1166.602
132.454	13.248	1537.243	1165.431
133.468	13.231	1536.183	1164.400
134.483	13.212	1535.075	1163.325
135.497	13.316	1533.230	1162.558
136.512	13.321	1531.961	1161.526
137.527	13.257	1530.627	1159.967
138.541	13.271	1530.060	1159.532
139.556	13.311	1528.017	1158.158
140.570	13.333	1526.883	1157.348
141.585	13.383	1525.891	1156.846
142.600	13.357	1524.592	1155.577
143.614	13.385	1523.434	1154.792
144.629	13.392	1522.448	1153.994
145.643	13.416	1520.705	1152.738
146.658	13.523	1519.607	1152.547
147.673	13.475	1518.455	1151.237
148.687	13.467	1516.406	1149.525
149.702	13.479	1515.042	1148.471
150.716	13.379	1513.555	1146.554
151.731	13.406	1512.368	1145.741
152.746	13.325	1510.855	1143.934
153.760	13.438	1509.146	1143.314
154.775	13.370	1508.446	1142.218
155.789	13.408	1507.228	1141.453
156.804	13.422	1505.727	1140.313
157.819	13.564	1504.456	1140.224
158.833	13.516	1503.520	1139.085
159.848	13.515	1502.271	1138.035
160.862	13.586	1501.202	1137.611
161.877	13.631	1499.845	1136.788
162.892	13.535	1498.359	1134.906
163.906	13.525	1497.044	1133.743
164.921	13.571	1495.411	1132.715
165.935	13.577	1494.817	1132.207
166.950	13.559	1493.572	1131.043
167.964	13.563	1492.999	1130.533
168.979	13.518	1492.266	1129.575
169.994	13.531	1490.863	1128.501
171.008	13.472	1489.733	1127.141
172.023	13.580	1488.429	1126.790
173.037	13.606	1487.032	1125.812
174.052	13.675	1485.971	1125.374
175.067	13.565	1485.352	1124.063
176.081	13.651	1483.841	1123.399
177.096	13.618	1482.456	1122.031
178.110	13.589	1480.806	1120.489
179.125	13.606	1480.233	1120.067
180.140	13.603	1478.842	1118.898
181.154	13.603	1478.029	1118.179
182.169	13.765	1476.365	1117.916
183.183	13.779	1475.365	1117.156
184.198	13.767	1474.403	1116.248
185.213	13.742	1473.792	1115.517
186.227	13.694	1472.876	1114.402
187.242	13.763	1471.600	1113.804
188.256	13.762	1470.120	1112.574
189.271	13.824	1469.454	1112.390
190.286	13.795	1468.471	1111.354
191.300	13.749	1467.533	1110.237
192.315	13.719	1465.749	1108.586
193.329	13.710	1464.623	1107.580
194.344	13.647	1463.800	1106.436
195.359	13.708	1462.909	1106.070
196.373	13.773	1461.248	1105.150
197.388	13.765	1460.282	1104.271
198.402	13.849	1459.074	1103.821
199.417	13.914	1457.865	1103.241
200.432	14.038	1457.125	1103.402
201.446	14.012	1456.226	1102.454
202.461	14.045	1454.936	1101.598
203.475	14.065	1453.877	1100.830
204.490	14.219	1452.648	1100.823
205.504	13.932	1452.358	1098.604
206.519	14.013	1451.137	1098.121
207.534	14.026	1449.876	1097.157
208.548	13.952	1448.860	1095.799
209.563	13.972	1447.722	1094.971
210.577	14.120	1446.258	1094.744
211.592	14.026	1445.563	1093.503
212.607	14.146	1444.895	1093.690
213.621	14.203	1444.096	1093.366
214.636	14.215	1443.204	1092.668
215.650	14.200	1442.169	1091.688
216.665	14.144	1441.337	1090.600
217.680	14.247	1440.502	1090.547
218.694	14.245	1440.081	1090.119
219.709	14.249	1439.211	1089.388
220.723	14.366	1437.463	1088.732
221.738	14.270	1437.338	1087.916
222.753	14.299	1436.186	1087.135
223.767	14.268	1435.292	1086.159
224.782	14.230	1434.278	1085.046
225.796	14.311	1433.288	1084.734
226.811	14.347	1432.652	1084.389
227.826	14.429	1432.052	1084.369
228.840	14.389	1430.545	1082.873
229.855	14.184	1430.323	1081.276
230.869	14.362	1429.150	1081.450
231.884	14.337	1428.121	1080.415
232.899	14.355	1427.019	1079.601
233.913	14.344	1425.876	1078.571
234.928	14.304	1424.648	1077.286
235.942	14.268	1423.801	1076.321
236.957	14.182	1422.534	1074.714
237.972	14.299	1421.182	1074.350
238.986	14.284	1420.054	1073.303
240.001	14.339	1419.212	1072.926
241.015	14.384	1418.330	1072.457
242.030	14.301	1417.281	1071.031
243.045	14.368	1416.272	1070.608
244.059	14.411	1415.528	1070.227
245.074	14.488	1414.318	1069.713
246.088	14.468	1413.787	1069.088
247.103	14.607	1412.796	1069.131
248.117	14.656	1412.141	1068.858
249.132	14.588	1411.390	1067.759
250.147	14.671	1410.892	1067.817
251.161	14.739	1410.361	1067.756
252.176	14.832	1409.423	1067.547
253.190	14.778	1408.876	1066.693
254.205	14.808	1407.741	1065.930
255.220	14.921	1406.570	1065.672
256.234	14.907	1406.464	1065.406
257.249	14.883	1405.510	1064.438
258.263	14.926	1404.614	1063.935
259.278	14.878	1403.737	1062.875
260.293	14.865	1402.556	1061.800
261.307	15.073	1401.340	1062.109
262.322	14.963	1401.016	1061.073
263.336	15.006	1400.486	1060.849
264.351	15.001	1399.460	1059.943
265.366	15.067	1398.234	1059.340
266.380	15.107	1397.608	1059.027
267.395	15.046	1396.446	1057.663
268.409	15.143	1395.602	1057.545
269.424	15.057	1394.507	1056.076
270.439	15.038	1393.631	1055.200
271.453	15.094	1393.054	1055.024
272.468	15.062	1391.609	1053.638
273.482	15.032	1391.206	1053.046
274.497	15.081	1390.201	1052.505
275.512	14.958	1389.666	1051.234
276.526	15.085	1388.745	1051.242
277.541	15.072	1387.516	1050.136
278.555	15.159	1386.508	1049.823
279.570	15.100	1385.955	1048.941
280.585	15.104	1384.867	1048.053
281.599	15.177	1384.136	1047.865
282.614	15.351	1383.061	1048.046
283.628	15.241	1381.767	1046.283
284.643	15.231	1381.273	1045.751
285.657	15.173	1379.742	1044.140
286.672	15.194	1379.390	1043.911
287.687	15.301	1378.130	1043.535
288.701	15.232	1376.953	1042.118
289.716	15.246	1376.519	1041.785
290.730	15.298	1375.541	1041.278
291.745	15.300	1374.222	1040.198
292.760	15.364	1373.265	1039.780
293.774	15.312	1372.422	1038.730
294.789	15.367	1371.302	1038.127
295.803	15.413	1371.031	1038.114
296.818	15.424	1370.063	1037.357
297.833	15.361	1368.900	1035.997
298.847	15.372	1368.207	1035.449
299.862	15.377	1366.654	1034.212
300.876	15.536	1365.882	1034.517
301.891	15.463	1364.959	1033.278
302.906	15.440	1364.547	1032.731
303.920	15.510	1363.931	1032.607
304.935	15.572	1363.426	1032.515
305.949	15.595	1362.027	1031.502
306.964	15.697	1361.454	1031.602
307.979	15.745	1360.218	1030.871
308.993	15.690	1359.057	1029.561
310.008	15.619	1358.942	1028.948
311.022	15.658	1357.591	1028.073
312.037	15.666	1356.667	1027.332
313.052	15.699	1355.741	1026.744
314.066	15.728	1354.754	1026.082
315.081	15.764	1353.575	1025.314
316.095	15.636	1352.541	1023.662
317.110	15.595	1351.758	1022.729
318.125	15.588	1350.812	1021.880
319.139	15.655	1349.722	1021.371
320.154	15.614	1349.292	1020.707
321.168	15.677	1348.102	1020.100
322.183	15.659	1346.929	1019.012
323.197	15.743	1346.278	1018.940
324.212	15.730	1345.102	1017.880
325.227	15.783	1344.381	1017.562
326.241	15.690	1343.630	1016.344
327.256	15.763	1342.963	1016.193
328.270	15.862	1341.697	1015.739
329.285	15.820	1340.941	1014.825
330.300	15.763	1340.352	1013.948
331.314	15.799	1339.309	1013.286
332.329	15.822	1338.270	1012.547
333.343	15.845	1337.324	1011.880
334.358	15.851	1336.489	1011.193
335.373	15.909	1335.706	1010.860
336.387	15.934	1334.752	1010.196
337.402	15.951	1334.190	1009.783
338.416	15.932	1333.534	1009.087
339.431	16.029	1332.768	1008.996
340.446	16.029	1332.118	1008.416
341.460	16.083	1331.183	1007.944
342.475	16.161	1330.093	1007.495
343.489	16.145	1329.557	1006.905
344.504	16.144	1328.510	1006.014
345.519	16.149	1327.837	1005.449
346.533	16.198	1326.751	1004.830
347.548	16.158	1325.802	1003.780
348.562	16.209	1324.841	1003.267
349.577	16.342	1324.063	1003.383
350.592	16.283	1323.574	1002.569
351.606	16.225	1322.469	1001.301
352.621	16.170	1321.583	1000.216
353.635	16.079	1320.171	998.519
354.650	16.193	1319.446	998.560
355.665	16.148	1319.024	997.881
356.679	16.261	1317.593	997.379
357.694	16.195	1316.303	995.926
358.708	16.268	1315.248	995.470
359.723	16.269	1314.690	994.964
360.738	16.381	1313.092	994.325
361.752	16.382	1312.243	993.604
362.767	16.352	1311.290	992.618
363.781	16.371	1310.356	991.932
364.796	16.379	1310.036	991.652
365.810	16.393	1309.112	990.944
366.825	16.466	1308.506	990.826
367.840	16.424	1307.887	990.027
368.854	16.467	1307.325	989.766
369.869	16.468	1306.563	989.102
370.883	16.613	1305.868	989.339
371.898	16.560	1305.006	988.290
372.913	16.582	1304.299	987.796
373.927	16.560	1303.397	986.894
374.942	16.502	1302.753	985.980
375.956	16.670	1302.106	986.385
376.971	16.641	1301.055	985.335
377.986	16.645	1300.058	984.514
379.000	16.666	1298.840	983.624
380.015	16.675	1298.911	983.647
381.029	16.733	1297.959	983.175
382.044	16.702	1297.453	982.520
383.059	16.819	1296.194	982.162
384.073	16.712	1296.237	981.489
385.088	16.857	1294.975	981.283
386.102	16.831	1294.635	980.791
387.117	16.834	1293.738	980.041
388.132	16.784	1292.970	979.082
389.146	16.851	1291.750	978.456
390.161	16.836	1291.087	977.783
391.175	16.756	1290.254	976.602
392.190	16.812	1289.810	976.506
393.205	16.840	1288.910	975.896
394.219	16.882	1288.197	975.514
395.234	16.976	1286.293	974.525
396.248	16.867	1285.296	973.060
397.263	16.915	1284.044	972.298
398.278	16.844	1282.861	970.910
399.292	16.830	1281.563	969.761
400.307	16.907	1280.465	969.287
401.321	16.860	1279.664	968.328
402.336	16.895	1278.696	967.709
403.350	16.879	1277.868	966.906
404.365	16.870	1276.886	966.024
405.380	16.848	1276.382	965.431
406.394	16.967	1275.243	965.164
407.409	16.945	1274.609	964.474
408.423	16.970	1274.162	964.191
409.438	17.094	1273.089	964.000
410.453	17.207	1272.187	963.869
411.467	17.103	1271.491	962.666
412.482	17.174	1271.254	962.808
413.496	17.197	1270.475	962.260
414.511	17.181	1269.921	961.667
415.526	17.215	1268.909	961.006
416.540	17.233	1268.322	960.580
417.555	17.231	1267.542	959.893
418.569	17.272	1266.996	959.625
419.584	17.389	1266.868	960.100
420.599	17.291	1265.943	958.766
421.613	94.365	1350.547	1463.449
422.628	91.955	1362.860	1463.558
