DTS Sentinel unit serial number:	SN413079Multiplexer serial number:	ORYXHardware model number:	OX4-SRSoftware version number:	ORYX F/W v4.00 Oryx Data Collector v3.7.2.0data status	okinstallation	princeton_trtdifferential loss correction	single-endedforward channel	channel 4reverse channel	N/Adate	2019/09/13time	22:33:34forward acquisition time	60.00reverse acquisition time	0.00gamma	496.2192k internal	0.2321k external	0.2321temperature offset calibration	1.0136default loss term (dB/km)	0.3790temperature slope calibration	1.0000multiplexer offset coefficient	1.0000multiplexer slope coefficient	1.0000fibre end	0.00T internal ref (°C)	27.75T ext. ref 1 (°C)	3.23T ext. ref 2 (°C)	22.07length (m)	temperature (°C)	Stokes	anti-Stokes-747.200	-200.000	0.044	0.281
-746.185	-65.670	0.116	0.047
-745.171	-76.678	0.448	-0.159
-744.156	404.760	-0.147	0.312
-743.142	60.517	0.202	-0.202
-742.127	-63.509	-0.216	0.090
-741.112	208.762	0.157	-0.248
-740.098	-109.413	-0.216	-0.046
-739.083	228.956	0.147	-0.242
-738.069	-175.544	-0.329	-0.009
-737.054	-131.299	0.319	0.043
-736.039	-200.000	0.011	0.131
-735.025	800.000	0.100	0.414
-734.010	-90.732	-0.209	-0.061
-732.996	-200.000	0.026	-0.314
-731.981	-169.577	-0.174	0.006
-730.966	-200.000	0.011	0.112
-729.952	-186.487	-0.093	0.001
-728.937	75.568	0.195	0.208
-727.923	106.461	0.174	-0.209
-726.908	-105.048	-0.151	0.035
-725.894	-3.768	0.137	-0.096
-724.879	-52.446	-0.079	0.037
-723.864	335.038	-0.119	0.232
-722.850	-112.900	-0.089	0.018
-721.835	800.000	-0.041	-0.131
-720.821	-83.633	0.153	-0.049
-719.806	-128.517	0.066	-0.009
-718.791	-125.364	0.339	-0.052
-717.777	-130.318	0.181	0.025
-716.762	-124.257	0.396	-0.063
-715.748	12.226	-0.175	-0.136
-714.733	-101.293	-0.176	0.043
-713.718	7.227	-0.165	0.124
-712.704	-200.000	0.060	-0.400
-711.689	-200.000	-0.004	0.172
-710.675	-116.235	0.166	0.031
-709.660	-72.044	-0.258	-0.097
-708.645	71.262	0.373	0.391
-707.631	128.216	0.136	-0.175
-706.616	568.086	0.134	-0.329
-705.602	722.616	0.059	-0.158
-704.587	800.000	0.079	0.275
-703.572	55.085	0.080	0.078
-702.558	384.520	0.058	0.120
-701.543	183.606	-0.074	-0.111
-700.529	644.403	-0.063	-0.163
-699.514	-59.763	0.276	-0.119
-698.499	309.918	-0.050	-0.095
-697.485	800.000	-0.035	0.115
-696.470	-200.000	-0.041	0.231
-695.456	-200.000	0.012	0.084
-694.441	-200.000	-0.011	0.157
-693.426	-200.000	0.005	-0.229
-692.412	1.335	-0.113	-0.082
-691.397	-55.641	-0.266	-0.120
-690.383	407.320	0.170	0.362
-689.368	-200.000	-0.028	0.137
-688.354	-200.000	0.029	-0.294
-687.339	281.216	0.108	-0.194
-686.324	-169.269	0.277	0.010
-685.310	552.908	-0.018	-0.045
-684.295	154.574	-0.078	0.107
-683.281	86.582	0.156	-0.174
-682.266	138.304	0.168	0.222
-681.251	-81.042	-0.229	-0.076
-680.237	-118.968	0.197	-0.035
-679.222	92.907	0.116	0.132
-678.208	800.000	0.017	0.050
-677.193	-100.106	0.198	0.050
-676.178	45.606	-0.031	0.029
-675.164	800.000	-0.037	-0.157
-674.149	99.311	-0.154	-0.180
-673.135	53.572	-0.220	0.213
-672.120	-159.700	-0.123	-0.007
-671.105	166.190	0.165	-0.236
-670.091	272.239	0.077	-0.137
-669.076	-200.000	-0.013	-0.166
-668.062	-154.211	-0.461	0.031
-667.047	119.860	-0.262	-0.327
-666.032	793.751	0.222	0.617
-665.018	-200.000	0.014	0.130
-664.003	183.005	0.042	-0.062
-662.989	-200.000	-0.015	-0.128
-661.974	47.975	0.248	-0.233
-660.959	39.339	0.167	0.151
-659.945	-127.033	0.125	0.018
-658.930	-200.000	-0.062	-0.455
-657.916	-43.074	-0.091	0.046
-656.901	551.154	0.017	-0.042
-655.886	-67.130	-0.159	0.063
-654.872	130.892	0.201	-0.260
-653.857	-105.080	-0.303	-0.070
-652.843	800.000	-0.056	0.245
-651.828	-193.283	-0.213	0.002
-650.814	-20.246	0.314	0.195
-649.799	-46.261	-0.105	-0.052
-648.784	800.000	0.098	-0.348
-647.770	60.585	-0.181	-0.181
-646.755	800.000	-0.051	-0.150
-645.741	800.000	0.041	-0.132
-644.726	-200.000	0.019	0.263
-643.711	-98.466	-0.249	-0.064
-642.697	-96.102	-0.175	0.047
-641.682	-18.761	-0.126	0.079
-640.668	79.089	0.152	0.164
-639.653	-110.765	0.253	-0.053
-638.638	-25.169	-0.165	-0.098
-637.624	-200.000	-0.016	0.088
-636.609	153.386	-0.202	-0.279
-635.595	-148.091	-0.095	-0.008
-634.580	-5.545	-0.143	0.099
-633.565	48.483	-0.180	0.170
-632.551	-200.000	-0.001	-0.088
-631.536	357.755	-0.192	-0.386
-630.522	47.573	-0.202	0.189
-629.507	-106.826	-0.096	0.021
-628.492	139.557	0.092	0.122
-627.478	800.000	0.019	0.071
-626.463	20.911	-0.042	-0.035
-625.449	-27.574	-0.293	0.171
-624.434	-116.890	-0.431	0.079
-623.419	-28.954	-0.326	-0.188
-622.405	-53.205	-0.184	-0.085
-621.390	-200.000	-0.003	-0.015
-620.376	20.546	0.099	-0.081
-619.361	-192.845	0.297	-0.003
-618.346	-4.887	-0.206	-0.143
-617.332	-33.832	-0.227	-0.126
-616.317	800.000	0.034	-0.136
-615.303	-200.000	0.022	-0.110
-614.288	-91.718	-0.331	-0.095
-613.273	377.445	0.118	0.242
-612.259	800.000	-0.048	0.146
-611.244	-27.373	-0.188	-0.110
-610.230	-200.000	0.007	-0.227
-609.215	-153.291	0.153	-0.011
-608.201	-38.202	-0.153	-0.082
-607.186	-126.662	-0.100	0.015
-606.171	-165.338	0.114	0.005
-605.157	133.196	-0.118	-0.153
-604.142	211.246	0.106	0.168
-603.128	8.829	0.063	-0.048
-602.113	28.965	-0.159	-0.136
-601.098	71.598	0.284	0.297
-600.084	-181.024	-0.390	0.008
-599.069	-21.866	0.207	-0.126
-598.055	80.774	-0.202	-0.219
-597.040	-31.224	-0.141	0.080
-596.025	249.246	0.044	-0.075
-595.011	-132.511	-0.327	-0.042
-593.996	-200.000	-0.014	0.111
-592.982	516.844	-0.090	-0.212
-591.967	-200.000	-0.004	-0.127
-590.952	317.609	0.194	0.370
-589.938	6.069	-0.227	-0.169
-588.923	68.685	-0.098	0.101
-587.909	-115.374	0.168	0.032
-586.894	-140.115	0.225	-0.024
-585.879	-200.000	-0.007	0.299
-584.865	-32.624	-0.157	-0.088
-583.850	143.353	-0.062	0.083
-582.836	-28.182	-0.173	0.100
-581.821	-138.859	0.076	-0.008
-580.806	-176.393	-0.098	-0.003
-579.792	490.315	0.029	-0.068
-578.777	-200.000	-0.024	-0.306
-577.763	-200.000	0.029	0.291
-576.748	-200.000	-0.011	0.544
-575.733	263.183	-0.063	-0.111
-574.719	74.160	-0.075	0.079
-573.704	636.963	0.064	-0.163
-572.690	146.515	0.070	0.094
-571.675	-32.256	-0.261	-0.146
-570.661	420.150	0.055	0.119
-569.646	-87.850	0.262	-0.079
-568.631	-146.659	0.248	-0.022
-567.617	-200.000	0.053	-0.260
-566.602	-200.000	-0.018	-0.377
-565.588	203.420	0.050	0.078
-564.573	-139.162	0.455	0.049
-563.558	-19.614	-0.167	-0.104
-562.544	36.673	0.256	0.227
-561.529	-5.215	-0.396	0.273
-560.515	70.840	0.252	0.262
-559.500	23.666	0.307	0.253
-558.485	800.000	-0.031	0.129
-557.471	89.761	-0.191	-0.214
-556.456	5.812	-0.211	-0.157
-555.442	137.640	-0.075	-0.098
-554.427	148.252	0.169	0.228
-553.412	34.620	-0.066	-0.058
-552.398	124.924	-0.275	-0.347
-551.383	472.239	-0.045	0.101
-550.369	-179.814	0.064	-0.001
-549.354	-63.257	0.219	-0.091
-548.339	-84.712	-0.257	0.081
-547.325	72.323	0.110	-0.115
-546.310	15.527	-0.255	-0.201
-545.296	72.623	-0.221	-0.232
-544.281	49.538	-0.141	-0.133
-543.266	-26.342	-0.213	0.125
-542.252	-159.339	-0.097	0.005
-541.237	-200.000	0.014	0.391
-540.223	-54.803	0.191	0.086
-539.208	-48.364	-0.242	-0.117
-538.193	112.481	-0.094	-0.114
-537.179	800.000	-0.063	-0.207
-536.164	-18.481	-0.154	-0.096
-535.150	86.466	0.265	-0.293
-534.135	432.849	0.134	0.290
-533.121	-200.000	-0.002	-0.171
-532.106	259.514	-0.047	0.081
-531.091	-161.847	-0.076	-0.004
-530.077	-59.847	0.245	0.105
-529.062	-34.898	-0.096	-0.053
-528.048	-152.245	-0.194	0.014
-527.033	189.480	-0.183	0.275
-526.018	-19.861	0.047	-0.029
-525.004	258.230	-0.169	0.292
-523.989	171.495	0.164	-0.236
-522.975	-107.501	0.091	-0.020
-521.960	30.558	-0.169	-0.145
-520.945	-69.518	0.121	0.046
-519.931	-142.535	0.247	0.024
-518.916	800.000	0.056	-0.190
-517.902	800.000	-0.060	0.176
-516.887	52.544	-0.184	-0.176
-515.872	408.897	-0.069	-0.146
-514.858	-41.471	0.183	-0.094
-513.843	124.039	0.105	-0.132
-512.829	-119.118	-0.242	0.042
-511.814	-86.726	-0.100	-0.031
-510.799	159.910	0.146	0.203
-509.785	-61.795	-0.310	0.130
-508.770	-40.733	0.140	0.072
-507.756	-200.000	-0.001	-0.275
-506.741	84.778	-0.094	0.103
-505.726	-7.134	-0.222	0.151
-504.712	-30.958	-0.382	0.216
-503.697	-80.154	0.329	0.111
-502.683	73.059	-0.176	-0.184
-501.668	-53.871	0.250	0.114
-500.653	-143.779	-0.185	0.018
-499.639	-200.000	0.049	-0.264
-498.624	-43.342	-0.030	0.015
-497.610	-200.000	-0.007	-0.417
-496.595	-119.199	-0.092	0.016
-495.581	259.640	0.161	-0.278
-494.566	10.508	0.148	0.113
-493.551	-200.000	-0.035	-0.170
-492.537	58.888	0.229	-0.225
-491.522	-30.455	0.209	-0.119
-490.508	-91.741	-0.029	-0.008
-489.493	177.787	0.052	-0.077
-488.478	578.664	0.066	-0.162
-487.464	70.670	-0.110	0.114
-486.449	-200.000	-0.006	0.153
-485.435	-39.303	-0.157	-0.082
-484.420	77.711	0.251	0.268
-483.405	91.461	0.206	0.232
-482.391	384.001	0.061	-0.127
-481.376	603.846	-0.060	-0.148
-480.362	800.000	0.022	-0.086
-479.347	-112.904	-0.222	0.044
-478.332	106.850	-0.111	-0.132
-477.318	168.832	-0.043	-0.062
-476.303	-200.000	-0.017	0.081
-475.289	-57.103	-0.105	-0.046
-474.274	12.182	-0.107	-0.083
-473.259	736.478	-0.037	0.098
-472.245	-200.000	0.008	0.350
-471.230	358.296	-0.036	0.071
-470.216	-154.056	0.399	0.027
-469.201	-158.531	0.124	-0.007
-468.186	246.499	0.053	0.089
-467.172	248.182	-0.116	0.196
-466.157	274.619	0.139	-0.246
-465.143	-200.000	0.006	-0.155
-464.128	-133.864	-0.209	-0.026
-463.113	-200.000	0.034	-0.273
-462.099	-200.000	-0.029	0.166
-461.084	-101.640	0.352	-0.085
-460.070	368.781	0.074	-0.150
-459.055	-64.279	0.165	0.067
-458.040	-126.994	0.179	-0.026
-457.026	-71.994	-0.139	0.052
-456.011	-200.000	-0.042	0.216
-454.997	800.000	-0.119	0.356
-453.982	-124.965	0.158	-0.024
-452.968	800.000	-0.060	0.178
-451.953	-59.099	-0.206	0.089
-450.938	716.941	-0.037	-0.099
-449.924	500.602	0.075	0.173
-448.909	19.574	0.136	-0.109
-447.895	-200.000	0.027	0.221
-446.880	-26.605	-0.235	0.137
-445.865	800.000	0.029	0.083
-444.851	-6.704	0.079	-0.054
-443.836	-120.002	0.021	0.004
-442.822	22.549	0.225	-0.184
-441.807	9.456	0.178	0.135
-440.792	-4.450	0.199	-0.138
-439.778	19.358	-0.183	-0.147
-438.763	800.000	-0.093	-0.274
-437.749	800.000	-0.022	-0.071
-436.734	320.719	0.115	0.217
-435.719	800.000	0.007	-0.020
-434.705	-88.328	0.071	0.021
-433.690	189.605	0.004	0.006
-432.676	-200.000	-0.014	0.096
-431.661	800.000	-0.025	0.075
-430.646	-150.776	-0.300	-0.023
-429.632	-151.002	-0.158	0.012
-428.617	179.540	0.062	-0.091
-427.603	800.000	0.057	-0.171
-426.588	800.000	-0.035	0.122
-425.573	-200.000	-0.002	-0.012
-424.559	-136.614	0.166	0.019
-423.544	378.958	0.109	-0.222
-422.530	1.835	0.388	0.280
-421.515	800.000	-0.054	0.173
-420.500	-110.963	-0.105	0.021
-419.486	800.000	-0.010	0.043
-418.471	-81.575	-0.197	0.065
-417.457	-200.000	0.007	0.168
-416.442	-171.480	0.305	-0.010
-415.428	-136.483	0.132	-0.015
-414.413	92.452	0.244	-0.275
-413.398	-200.000	0.065	-0.323
-412.384	-73.243	0.088	0.032
-411.369	-200.000	-0.011	0.172
-410.355	-96.800	-0.190	0.050
-409.340	-8.350	-0.271	-0.182
-408.325	-200.000	-0.002	-0.102
-407.311	453.906	-0.175	0.387
-406.296	-48.201	-0.260	0.125
-405.282	800.000	-0.092	0.260
-404.267	590.243	0.012	-0.030
-403.252	-200.000	-0.038	-0.297
-402.238	-200.000	-0.019	0.106
-401.223	-78.900	0.006	0.002
-400.209	-200.000	-0.123	-0.551
-399.194	-70.844	0.143	-0.054
-398.179	-57.106	0.295	0.130
-397.165	-172.170	0.227	0.007
-396.150	-78.610	-0.174	-0.059
-395.136	-108.053	0.108	-0.023
-394.121	38.860	-0.284	-0.253
-393.106	104.170	-0.142	-0.166
-392.092	-87.103	-0.170	0.052
-391.077	-200.000	0.010	0.309
-390.063	-200.000	-0.036	0.190
-389.048	1.657	0.111	-0.079
-388.033	-200.000	-0.037	-0.188
-387.019	68.833	-0.254	-0.260
-386.004	800.000	0.045	0.183
-384.990	-44.945	0.434	-0.215
-383.975	-82.289	0.077	-0.025
-382.960	-8.330	-0.115	0.077
-381.946	-200.000	-0.025	-0.341
-380.931	407.848	-0.036	0.075
-379.917	431.337	0.081	-0.174
-378.902	11.017	-0.309	0.236
-377.888	39.171	-0.150	0.133
-376.873	185.668	-0.087	-0.129
-375.858	-140.793	0.075	0.008
-374.844	-200.000	-0.008	0.219
-373.829	211.049	-0.135	0.212
-372.815	222.544	0.049	-0.079
-371.800	-200.000	0.023	-0.164
-370.785	-27.811	0.075	-0.043
-369.771	-75.803	0.098	0.034
-368.756	21.920	-0.310	0.252
-367.742	-200.000	0.009	0.159
-366.727	182.975	0.071	0.104
-365.712	-112.303	-0.110	-0.022
-364.698	101.787	0.068	-0.079
-363.683	-94.201	0.173	-0.047
-362.669	-113.689	0.394	0.076
-361.654	263.471	-0.061	0.105
-360.639	-70.350	-0.128	0.048
-359.625	-138.591	0.145	0.016
-358.610	-28.127	-0.310	0.179
-357.596	800.000	-0.006	0.024
-356.581	-200.000	0.015	0.261
-355.566	6.324	-0.212	0.156
-354.552	264.471	-0.075	0.130
-353.537	-106.329	-0.315	0.070
-352.523	227.536	-0.243	0.393
-351.508	-70.107	0.365	-0.138
-350.493	359.451	0.047	-0.093
-349.479	167.029	-0.126	-0.179
-348.464	-200.000	0.047	-0.271
-347.450	800.000	0.067	-0.281
-346.435	537.016	-0.040	-0.095
-345.420	401.478	-0.077	-0.162
-344.406	-108.131	-0.312	0.067
-343.391	-190.089	0.338	-0.004
-342.377	800.000	-0.078	-0.281
-341.362	-200.000	0.023	-0.124
-340.348	124.390	0.241	0.302
-339.333	-36.358	-0.062	-0.033
-338.318	90.146	0.181	0.202
-337.304	-72.908	-0.087	0.032
-336.289	-68.635	-0.159	-0.061
-335.275	-200.000	-0.011	-0.153
-334.260	38.248	-0.138	0.122
-333.245	-24.683	-0.191	-0.113
-332.231	98.856	-0.159	-0.183
-331.216	12.284	0.241	0.185
-330.202	-38.243	-0.294	0.155
-329.187	-173.707	-0.068	0.002
-328.172	81.945	0.043	0.047
-327.158	800.000	0.117	0.333
-326.143	-200.000	0.057	0.257
-325.129	-200.000	-0.057	0.267
-324.114	98.872	0.116	0.133
-323.099	-67.346	-0.205	0.080
-322.085	227.289	-0.142	0.230
-321.070	-166.697	-0.559	-0.023
-320.056	387.036	-0.146	-0.300
-319.041	-51.179	0.131	0.061
-318.026	7.361	-0.282	-0.210
-317.012	231.206	-0.006	0.010
-315.997	423.717	0.152	0.324
-314.983	-200.000	-0.036	0.350
-313.968	27.847	-0.135	-0.113
-312.953	23.577	0.224	-0.184
-311.939	749.596	0.047	0.127
-310.924	-200.000	-0.002	0.079
-309.910	-44.182	-0.147	-0.073
-308.895	242.007	-0.125	0.208
-307.880	274.966	0.150	-0.264
-306.866	29.517	-0.277	-0.234
-305.851	-69.187	0.272	-0.104
-304.837	19.545	-0.172	-0.137
-303.822	41.377	0.094	0.085
-302.807	98.748	0.159	-0.183
-301.793	-141.469	0.137	-0.014
-300.778	30.486	0.194	-0.165
-299.764	-81.572	0.081	0.027
-298.749	79.175	-0.115	-0.123
-297.735	-109.095	0.364	-0.077
-296.720	-10.337	0.143	-0.094
-295.705	-3.259	-0.299	-0.207
-294.691	800.000	-0.095	0.266
-293.676	37.233	-0.257	0.226
-292.662	-54.235	0.233	0.105
-291.647	-9.414	-0.114	-0.076
-290.632	-47.736	-0.192	0.092
-289.618	-86.860	-0.114	0.035
-288.603	-200.000	-0.021	0.187
-287.589	-200.000	0.013	0.311
-286.574	-2.406	0.150	-0.105
-285.559	107.584	0.158	-0.186
-284.545	800.000	-0.053	0.191
-283.530	1.003	0.169	0.121
-282.516	800.000	-0.019	-0.057
-281.501	-6.530	0.233	-0.158
-280.486	-155.054	-0.294	-0.019
-279.472	-149.393	0.453	-0.036
-278.457	-48.695	-0.066	0.032
-277.443	-83.780	0.356	0.113
-276.428	-200.000	0.002	-0.135
-275.413	-136.501	-0.198	-0.023
-274.399	114.370	-0.039	0.048
-273.384	128.767	0.070	-0.088
-272.370	238.497	0.171	-0.282
-271.355	150.049	-0.133	-0.179
-270.340	-200.000	0.069	-0.385
-269.326	276.040	0.075	0.132
-268.311	800.000	0.136	0.394
-267.297	-64.831	0.218	0.087
-266.282	-121.497	0.191	0.032
-265.267	-200.000	-0.001	0.300
-264.253	-30.677	0.221	0.124
-263.238	-198.815	0.083	0.000
-262.224	-52.184	-0.115	0.053
-261.209	110.000	-0.086	-0.102
-260.195	65.704	-0.135	0.135
-259.180	-92.353	0.410	0.115
-258.165	-200.000	-0.034	0.320
-257.151	131.913	-0.139	0.177
-256.136	196.591	0.148	-0.224
-255.122	800.000	0.068	0.290
-254.107	-51.879	-0.196	0.090
-253.092	300.463	0.045	-0.083
-252.078	-23.541	0.128	-0.076
-251.063	38.786	-0.223	0.197
-250.049	248.361	-0.130	0.218
-249.034	552.247	0.155	-0.368
-248.019	-79.960	0.121	-0.040
-247.005	-16.149	-0.109	0.069
-245.990	-99.439	-0.245	0.061
-244.976	-200.000	-0.006	-0.112
-243.961	-17.993	-0.283	0.176
-242.946	-60.136	-0.133	-0.056
-241.932	-138.193	0.186	0.020
-240.917	-174.016	0.463	-0.013
-239.903	-200.000	0.055	0.348
-238.888	12.030	0.056	-0.043
-237.873	-200.000	0.089	-0.551
-236.859	-104.202	-0.035	-0.008
-235.844	-200.000	0.055	0.315
-234.830	65.528	0.301	-0.302
-233.815	265.501	-0.157	0.272
-232.800	-59.415	0.333	0.142
-231.786	-100.208	0.056	-0.014
-230.771	204.145	0.058	-0.090
-229.757	-46.533	0.186	-0.091
-228.742	623.271	-0.052	-0.130
-227.727	-200.000	0.051	0.306
-226.713	2.592	0.086	-0.062
-225.698	-109.057	0.048	-0.010
-224.684	800.000	-0.022	0.062
-223.669	146.093	-0.152	-0.201
-222.655	-200.000	-0.049	0.221
-221.640	-104.344	0.242	-0.055
-220.625	-95.898	-0.319	0.084
-219.611	-200.000	0.031	0.166
-218.596	800.000	0.059	0.176
-217.582	239.487	0.075	0.124
-216.567	-85.648	0.162	0.050
-215.552	-72.529	0.090	0.033
-214.538	-11.511	0.372	0.242
-213.523	800.000	0.055	0.154
-212.509	-200.000	-0.001	-0.009
-211.494	-134.447	0.031	0.004
-210.479	308.129	0.017	-0.032
-209.465	546.296	-0.159	-0.376
-208.450	-35.101	0.103	0.055
-207.436	-76.974	-0.215	0.074
-206.421	-166.531	0.417	0.017
-205.406	12.626	0.129	-0.099
-204.392	80.487	-0.185	0.197
-203.377	-9.182	0.212	-0.141
-202.363	-19.181	0.287	-0.176
-201.348	-44.259	0.279	0.138
-200.333	152.239	0.109	-0.148
-199.319	13.809	-0.160	0.123
-198.304	319.167	-0.119	-0.223
-197.290	19.756	0.081	0.065
-196.275	768.605	0.103	-0.278
-195.260	290.418	-0.047	0.084
-194.246	800.000	-0.044	-0.138
-193.231	-142.317	0.339	0.033
-192.217	-200.000	-0.030	0.280
-191.202	-94.770	0.122	0.033
-190.187	13.671	0.155	0.119
-189.173	800.000	-0.043	0.119
-188.158	800.000	0.064	0.225
-187.144	-63.575	0.150	0.061
-186.129	197.778	0.114	0.172
-185.114	-84.150	-0.109	0.034
-184.100	255.518	-0.147	-0.250
-183.085	-46.207	0.234	-0.114
-182.071	-33.097	-0.175	-0.096
-181.056	17.482	0.112	-0.088
-180.042	-64.438	-0.200	-0.080
-179.027	800.000	0.082	0.279
-178.012	124.800	0.071	-0.088
-176.998	-127.591	-0.104	-0.015
-175.983	9.047	0.250	-0.187
-174.969	-200.000	0.004	0.048
-173.954	-44.980	0.155	0.076
-172.939	-63.932	-0.367	0.148
-171.925	444.446	0.151	-0.327
-170.910	800.000	0.097	0.343
-169.896	192.733	0.220	0.328
-168.881	267.985	-0.175	-0.303
-167.866	-178.155	0.196	-0.005
-166.852	-110.478	0.188	-0.039
-165.837	-109.779	0.281	0.058
-164.823	-200.000	-0.012	-0.074
-163.808	242.636	-0.053	-0.088
-162.793	82.974	0.100	-0.108
-161.779	-200.000	-0.004	0.095
-160.764	-44.239	0.101	-0.050
-159.750	800.000	0.118	-0.360
-158.735	800.000	0.055	-0.222
-157.720	-4.575	0.322	-0.220
-156.706	800.000	-0.031	0.132
-155.691	210.959	-0.078	-0.122
-154.677	-200.000	0.016	-0.102
-153.662	-64.974	-0.188	-0.075
-152.647	406.325	0.041	-0.086
-151.633	62.626	-0.242	-0.239
-150.618	-2.898	0.196	0.135
-149.604	22.615	-0.106	0.086
-148.589	165.026	-0.121	-0.169
-147.574	-169.335	-0.122	-0.004
-146.560	-137.642	0.200	0.022
-145.545	-89.861	0.155	-0.045
-144.531	-126.246	0.241	-0.036
-143.516	6.483	-0.183	-0.135
-142.502	339.029	0.179	-0.344
-141.487	-28.865	0.092	-0.052
-140.472	156.228	-0.087	0.118
-139.458	-26.088	-0.236	-0.137
-138.443	800.000	-0.073	-0.311
-137.429	-200.000	-0.068	0.331
-136.414	-34.855	0.168	-0.091
-135.399	68.633	-0.356	0.361
-134.385	230.812	0.119	-0.192
-133.370	800.000	0.090	0.375
-132.356	-200.000	-0.014	0.242
-131.341	190.673	0.119	-0.177
-130.326	714.491	0.050	-0.131
-129.312	315.929	-0.105	-0.195
-128.297	-144.258	0.394	0.036
-127.283	-106.655	-0.502	-0.110
-126.268	748.762	0.078	-0.208
-125.253	800.000	-0.024	-0.092
-124.239	800.000	0.038	0.144
-123.224	-111.084	-0.175	0.035
-122.210	300.777	-0.225	0.410
-121.195	451.263	-0.173	-0.376
-120.180	-120.247	-0.070	0.012
-119.166	16.724	-0.119	0.093
-118.151	-200.000	0.130	0.596
-117.137	-200.000	0.015	0.248
-116.122	-162.630	-0.137	0.007
-115.107	128.342	-0.183	0.230
-114.093	-49.165	0.454	0.214
-113.078	-13.082	-0.255	-0.163
-112.064	370.254	-0.059	0.119
-111.049	173.873	-0.080	-0.114
-110.034	248.065	0.233	-0.389
-109.020	20.867	0.197	-0.158
-108.005	-13.440	0.164	0.105
-106.991	120.459	-0.191	0.234
-105.976	-200.000	0.281	0.001
-104.962	410.150	0.081	-0.169
-103.947	-33.598	-0.341	0.186
-102.932	11.950	-0.240	0.182
-101.918	800.000	0.087	0.315
-100.903	248.203	-0.079	0.132
-99.889	78.366	0.302	-0.318
-98.874	48.272	-0.066	0.061
-97.859	-158.229	-0.419	0.024
-96.845	167.523	0.174	-0.244
-95.830	-39.813	0.118	-0.061
-94.816	342.600	-0.086	0.165
-93.801	727.899	-0.140	0.367
-92.786	746.337	0.157	0.416
-91.772	195.955	-0.015	0.023
-90.757	426.892	-0.143	0.304
-89.743	70.187	-0.207	0.211
-88.728	-79.034	-0.258	0.086
-87.713	-5.679	0.071	-0.048
-86.699	800.000	0.084	-0.303
-85.684	-200.000	0.009	0.226
-84.670	-113.642	0.421	-0.081
-83.655	77.124	-0.106	0.111
-82.640	-77.549	0.008	-0.003
-81.626	610.730	0.062	0.152
-80.611	-61.472	0.366	-0.151
-79.597	-200.000	0.073	0.330
-78.582	-200.000	-0.008	-0.186
-77.567	-40.847	0.111	0.056
-76.553	-200.000	0.024	-0.154
-75.538	281.530	-0.049	0.087
-74.524	25.147	-0.309	-0.253
-73.509	55.563	-0.193	0.184
-72.494	91.706	-0.084	0.093
-71.480	288.006	0.146	-0.260
-70.465	-28.836	0.098	0.056
-69.451	35.752	-0.044	-0.038
-68.436	800.000	0.031	-0.089
-67.422	4.967	0.100	0.072
-66.407	800.000	0.032	-0.090
-65.392	-149.452	0.457	0.036
-64.378	-200.000	-0.059	-0.259
-63.363	-65.758	0.138	0.055
-62.349	-26.288	0.132	-0.076
-61.334	-10.187	-1.301	-0.850
-60.319	-1.295	0.653	0.454
-59.305	423.827	-0.378	-0.800
-58.290	209.231	0.994	1.532
-57.276	450.588	0.674	1.463
-56.261	-200.000	114.216	669.212
-55.246	546.298	1516.831	3569.430
-54.232	176.079	2690.596	3843.778
-53.217	101.020	2318.909	2654.260
-52.203	34.324	2065.751	1773.319
-51.188	29.546	1980.820	1657.580
-50.173	28.136	1963.541	1630.496
-49.159	46.819	2023.089	1849.452
-48.144	45.773	2038.661	1854.153
-47.130	30.017	1997.194	1675.274
-46.115	27.722	1986.902	1645.899
-45.100	27.704	1983.663	1642.983
-44.086	27.586	1981.056	1639.696
-43.071	27.561	1978.990	1637.698
-42.057	27.537	1977.031	1635.796
-41.042	27.568	1975.136	1634.440
-40.027	27.633	1973.276	1633.423
-39.013	27.549	1971.587	1631.209
-37.998	27.682	1969.555	1630.648
-36.984	27.729	1967.843	1629.591
-35.969	27.672	1965.898	1627.401
-34.954	27.687	1964.205	1626.075
-33.940	27.741	1962.253	1624.867
-32.925	27.772	1960.780	1623.863
-31.911	27.740	1959.449	1622.415
-30.896	27.786	1957.577	1621.206
-29.881	27.734	1956.626	1619.892
-28.867	27.867	1954.352	1619.129
-27.852	27.832	1953.197	1617.797
-26.838	27.926	1950.894	1616.656
-25.823	27.817	1949.342	1614.338
-24.809	27.845	1947.299	1612.829
-23.794	27.812	1945.723	1611.170
-22.779	27.789	1943.988	1609.468
-21.765	27.768	1942.451	1607.949
-20.750	27.693	1940.959	1605.984
-19.736	27.773	1939.204	1605.171
-18.721	27.750	1937.754	1603.705
-17.706	27.763	1936.378	1602.624
-16.692	27.761	1934.596	1601.060
-15.677	27.768	1932.720	1599.510
-14.663	27.712	1931.872	1598.255
-13.648	27.790	1930.452	1597.695
-12.633	27.764	1929.352	1596.496
-11.619	27.813	1927.655	1595.462
-10.604	27.715	1926.412	1593.510
-9.590	27.752	1925.198	1592.766
-8.575	27.703	1923.919	1591.217
-7.560	27.745	1922.589	1590.424
-6.546	27.781	1920.762	1589.162
-5.531	27.709	1919.899	1587.758
-4.517	27.770	1918.862	1587.365
-3.502	27.771	1917.105	1585.857
-2.487	27.829	1915.811	1585.228
-1.473	27.808	1915.454	1584.686
-0.458	27.846	1910.138	1580.551
0.556	28.632	1890.404	1552.275
1.571	24.133	1871.741	1499.045
2.586	20.017	1893.575	1481.275
3.600	18.812	1929.029	1498.374
4.615	18.306	1922.197	1488.534
5.629	13.929	1822.186	1374.810
6.644	6.778	1708.772	1233.442
7.659	3.456	1675.971	1184.176
8.673	3.202	1672.518	1179.685
9.688	3.188	1671.006	1178.403
10.702	3.239	1669.553	1177.665
11.717	3.291	1666.326	1175.687
12.731	3.675	1665.137	1177.670
13.746	8.578	1676.239	1222.978
14.761	16.254	1693.814	1294.792
15.775	20.288	1700.296	1330.627
16.790	20.572	1698.854	1331.559
17.804	19.584	1696.422	1321.976
18.819	18.649	1693.328	1312.297
19.834	17.984	1691.150	1305.411
20.848	17.784	1689.691	1302.642
21.863	17.655	1688.499	1300.628
22.877	17.533	1686.599	1298.117
23.892	17.277	1685.681	1295.343
24.907	17.206	1684.432	1293.728
25.921	17.179	1683.214	1292.478
26.936	17.203	1682.233	1291.788
27.950	17.257	1681.394	1291.442
28.965	17.255	1680.840	1290.887
29.980	17.288	1680.035	1290.405
30.994	17.508	1679.135	1291.273
32.009	17.358	1678.415	1289.465
33.023	17.516	1677.557	1289.885
34.038	17.568	1676.720	1289.525
35.053	17.527	1674.937	1287.730
36.067	17.488	1673.782	1286.432
37.082	17.352	1672.840	1284.566
38.096	17.417	1671.356	1283.801
39.111	17.353	1671.252	1283.128
40.126	17.412	1670.454	1282.847
41.140	17.414	1669.523	1282.032
42.155	17.205	1667.865	1279.070
43.169	17.031	1666.265	1276.422
44.184	17.048	1664.139	1274.807
45.199	16.863	1663.400	1272.741
46.213	17.008	1662.206	1272.804
47.228	16.962	1661.571	1271.856
48.242	17.137	1660.004	1271.860
49.257	17.322	1659.054	1272.405
50.271	17.349	1657.808	1271.533
51.286	17.184	1656.962	1269.543
52.301	17.299	1655.433	1269.118
53.315	17.289	1653.792	1267.673
54.330	17.217	1652.080	1265.710
55.344	17.101	1651.069	1263.959
56.359	16.999	1649.029	1261.527
57.374	17.019	1648.146	1260.892
58.388	17.116	1646.621	1260.335
59.403	16.995	1645.390	1258.383
60.417	16.963	1644.318	1257.209
61.432	16.920	1642.714	1255.560
62.447	16.970	1641.982	1255.257
63.461	16.945	1640.034	1253.473
64.476	16.811	1639.543	1251.997
65.490	16.754	1638.184	1250.423
66.505	16.788	1636.963	1249.635
67.520	16.838	1636.232	1249.330
68.534	16.921	1634.774	1248.723
69.549	16.842	1634.168	1247.570
70.563	16.865	1633.001	1246.732
71.578	16.877	1631.443	1245.522
72.593	16.716	1630.755	1243.707
73.607	16.674	1629.708	1242.485
74.622	16.645	1628.643	1241.351
75.636	16.627	1627.163	1239.986
76.651	16.751	1626.896	1240.576
77.666	16.624	1626.179	1238.989
78.680	16.718	1625.148	1238.782
79.695	16.739	1624.175	1238.085
80.709	16.773	1623.139	1237.436
81.724	16.905	1622.705	1237.961
82.739	16.999	1621.414	1237.549
83.753	16.994	1620.671	1236.836
84.768	17.177	1619.865	1237.448
85.782	17.271	1619.415	1237.676
86.797	17.449	1618.472	1238.144
87.812	17.523	1617.779	1238.040
88.826	17.370	1616.336	1235.717
89.841	17.269	1615.319	1234.099
90.855	17.273	1614.582	1233.455
91.870	17.374	1613.241	1233.050
92.884	17.468	1612.166	1232.801
93.899	17.470	1611.389	1232.113
94.914	17.451	1609.944	1230.759
95.928	17.501	1608.581	1229.970
96.943	17.481	1607.687	1229.036
97.957	17.457	1606.181	1227.602
98.972	17.433	1604.892	1226.337
99.987	17.334	1603.686	1224.592
101.001	17.435	1601.649	1223.652
102.016	17.406	1599.852	1221.964
103.030	17.393	1598.541	1220.763
104.045	17.334	1597.781	1219.651
105.060	17.382	1596.265	1218.728
106.074	17.260	1594.764	1216.605
107.089	17.219	1592.726	1214.647
108.103	16.903	1591.643	1211.457
109.118	16.899	1589.661	1209.814
110.133	16.791	1588.510	1208.062
111.147	16.765	1587.420	1206.938
112.162	16.826	1585.787	1206.026
113.176	16.873	1584.602	1205.353
114.191	16.912	1583.178	1204.436
115.206	16.889	1582.481	1203.638
116.220	17.037	1580.492	1203.065
117.235	17.005	1579.100	1201.674
118.249	16.973	1577.659	1200.242
119.264	17.001	1576.322	1199.317
120.279	16.907	1575.166	1197.671
121.293	16.827	1573.522	1195.751
122.308	16.817	1571.870	1194.315
123.322	16.732	1570.620	1192.667
124.337	16.782	1568.531	1191.323
125.352	16.653	1567.792	1189.747
126.366	16.597	1566.682	1188.408
127.381	16.740	1564.970	1188.006
128.395	16.801	1564.033	1187.621
129.410	16.661	1563.114	1185.834
130.424	16.730	1561.318	1184.851
131.439	16.818	1559.935	1184.315
132.454	16.827	1559.123	1183.655
133.468	16.930	1557.897	1183.340
134.483	17.008	1555.745	1182.142
135.497	16.989	1555.039	1181.370
136.512	16.982	1553.859	1180.320
137.527	17.020	1552.574	1179.504
138.541	16.950	1551.544	1178.127
139.556	17.116	1550.175	1178.138
140.570	17.098	1548.686	1176.774
141.585	17.227	1547.345	1176.545
142.600	17.219	1546.392	1175.664
143.614	17.276	1545.623	1175.370
144.629	17.512	1543.720	1175.449
145.643	17.510	1543.153	1174.896
146.658	17.499	1541.379	1173.366
147.673	17.459	1539.835	1171.812
148.687	17.375	1538.066	1169.784
149.702	17.243	1536.815	1167.824
150.716	17.130	1535.225	1165.734
151.731	17.056	1533.695	1163.966
152.746	17.085	1532.809	1163.389
153.760	17.174	1531.467	1162.875
154.775	17.146	1529.994	1161.461
155.789	17.271	1528.794	1161.300
156.804	17.388	1527.574	1161.071
157.819	17.393	1526.125	1159.904
158.833	17.303	1525.295	1158.557
159.848	17.392	1524.184	1158.213
160.862	17.629	1522.641	1158.548
161.877	17.551	1522.137	1157.535
162.892	17.506	1520.185	1155.643
163.906	17.220	1519.310	1152.934
164.921	17.167	1518.052	1151.517
165.935	17.204	1516.406	1150.417
166.950	17.127	1515.745	1149.293
167.964	17.329	1514.606	1149.691
168.979	17.221	1514.038	1148.435
169.994	17.300	1512.411	1147.633
171.008	17.192	1511.572	1146.160
172.023	17.314	1510.519	1146.082
173.037	17.289	1509.149	1144.778
174.052	17.381	1508.281	1144.633
175.067	17.538	1506.929	1144.567
176.081	17.475	1505.800	1143.181
177.096	17.299	1504.585	1140.980
178.110	17.161	1503.246	1138.937
179.125	17.230	1502.026	1138.373
180.140	17.300	1500.752	1137.773
181.154	17.261	1500.324	1137.092
182.169	17.353	1499.094	1136.672
183.183	17.475	1497.879	1136.461
184.198	17.513	1496.870	1135.853
185.213	17.638	1495.836	1135.798
186.227	17.683	1494.786	1135.198
187.242	17.693	1493.363	1134.085
188.256	17.684	1492.881	1133.560
189.271	17.727	1492.076	1133.133
190.286	17.746	1491.360	1132.620
191.300	17.697	1489.868	1131.059
192.315	17.512	1488.140	1128.422
193.329	17.139	1486.938	1124.939
194.344	17.157	1485.622	1123.961
195.359	17.208	1484.755	1123.542
196.373	17.303	1483.771	1123.330
197.388	17.441	1482.874	1123.458
198.402	17.594	1481.661	1123.451
199.417	17.665	1480.800	1123.169
200.432	17.857	1480.116	1123.812
201.446	17.829	1479.502	1123.065
202.461	17.945	1478.322	1122.833
203.475	17.948	1477.222	1121.916
204.490	18.035	1476.348	1121.728
205.504	17.973	1475.106	1120.275
206.519	17.851	1474.134	1118.637
207.534	17.699	1472.538	1116.332
208.548	17.723	1471.227	1115.395
209.563	17.626	1470.660	1114.235
210.577	17.683	1469.541	1113.660
211.592	17.848	1468.195	1113.619
212.607	17.827	1467.676	1112.986
213.621	17.953	1467.596	1113.649
214.636	18.008	1466.485	1113.069
215.650	17.918	1465.476	1111.621
216.665	18.012	1464.166	1111.137
217.680	18.024	1463.763	1110.809
218.694	18.151	1462.890	1110.873
219.709	18.176	1462.182	1110.401
220.723	18.216	1461.257	1109.863
221.738	18.114	1459.812	1108.004
222.753	18.138	1459.050	1107.484
223.767	18.086	1458.216	1106.418
224.782	18.076	1457.591	1105.780
225.796	18.090	1456.651	1105.056
226.811	18.228	1455.945	1105.316
227.826	18.131	1455.530	1104.275
228.840	18.128	1453.969	1102.977
229.855	18.127	1452.728	1101.931
230.869	18.022	1452.172	1100.733
231.884	18.080	1451.205	1100.276
232.899	18.040	1449.742	1098.814
233.913	17.977	1448.635	1097.476
234.928	17.884	1447.012	1095.546
235.942	17.906	1445.984	1094.817
236.957	17.897	1444.315	1093.398
237.972	17.829	1443.689	1092.393
238.986	17.940	1442.572	1092.160
240.001	17.876	1441.673	1090.974
241.015	17.950	1440.430	1090.409
242.030	17.917	1439.554	1089.437
243.045	18.014	1438.529	1089.183
244.059	18.103	1437.908	1089.183
245.074	18.095	1437.773	1088.937
246.088	18.185	1436.366	1088.347
247.103	18.042	1435.985	1087.054
248.117	18.155	1435.101	1087.006
249.132	18.411	1433.992	1087.692
250.147	18.488	1433.343	1087.596
251.161	18.639	1432.827	1088.066
252.176	18.836	1432.325	1088.831
253.190	18.803	1432.111	1088.370
254.205	18.798	1430.971	1087.372
255.220	18.864	1430.321	1087.200
256.234	18.939	1429.489	1086.944
257.249	18.857	1428.957	1085.929
258.263	18.898	1428.147	1085.475
259.278	18.857	1426.918	1084.187
260.293	18.830	1425.690	1082.986
261.307	18.970	1424.973	1083.229
262.322	18.962	1424.106	1082.419
263.336	19.075	1423.622	1082.671
264.351	18.965	1422.769	1081.234
265.366	19.044	1422.004	1081.050
266.380	18.991	1420.963	1079.833
267.395	18.971	1420.462	1079.228
268.409	19.073	1418.946	1078.622
269.424	18.980	1417.845	1077.110
270.439	18.932	1416.749	1075.879
271.453	18.907	1415.837	1074.938
272.468	18.900	1414.775	1073.989
273.482	18.868	1414.054	1073.148
274.497	18.750	1413.593	1071.965
275.512	18.810	1412.293	1071.260
276.526	18.785	1411.276	1070.241
277.541	18.824	1410.339	1069.675
278.555	18.817	1409.241	1068.708
279.570	18.846	1408.582	1068.290
280.585	18.953	1407.872	1068.321
281.599	19.126	1407.231	1068.816
282.614	19.078	1406.082	1067.548
283.628	19.149	1405.112	1067.158
284.643	18.888	1404.079	1064.664
285.657	18.979	1402.574	1063.992
286.672	19.001	1401.223	1063.011
287.687	19.045	1400.635	1062.744
288.701	18.963	1399.728	1061.455
289.716	19.074	1399.183	1061.628
290.730	18.983	1398.567	1060.505
291.745	19.085	1397.233	1060.029
292.760	19.078	1396.579	1059.400
293.774	18.988	1396.178	1058.444
294.789	19.100	1394.401	1057.695
295.803	19.199	1394.174	1058.033
296.818	19.238	1393.349	1057.553
297.833	19.188	1392.170	1056.262
298.847	19.018	1391.383	1054.525
299.862	18.993	1390.297	1053.458
300.876	19.185	1388.716	1053.342
301.891	19.051	1388.532	1052.291
302.906	19.099	1387.435	1051.661
303.920	19.260	1387.099	1052.294
304.935	19.323	1386.314	1051.990
305.949	19.494	1385.380	1052.228
306.964	19.540	1385.012	1052.140
307.979	19.650	1384.131	1052.044
308.993	19.599	1382.617	1050.490
310.008	19.338	1381.962	1048.316
311.022	19.447	1380.813	1048.009
312.037	19.498	1379.610	1047.318
313.052	19.422	1378.934	1046.248
314.066	19.525	1377.996	1046.070
315.081	19.310	1377.125	1044.014
316.095	19.323	1375.491	1042.759
317.110	19.169	1374.300	1040.834
318.125	19.190	1373.557	1040.306
319.139	19.160	1372.600	1039.308
320.154	19.149	1371.669	1038.445
321.168	19.260	1370.469	1038.115
322.183	19.237	1369.794	1037.373
323.197	19.268	1368.704	1036.641
324.212	19.238	1368.030	1035.857
325.227	19.368	1366.875	1035.674
326.241	19.396	1366.203	1035.241
327.256	19.365	1365.374	1034.337
328.270	19.294	1364.933	1033.483
329.285	19.389	1363.869	1033.154
330.300	19.427	1362.565	1032.307
331.314	19.380	1361.904	1031.430
332.329	19.366	1360.512	1030.200
333.343	19.342	1359.985	1029.568
334.358	19.443	1359.193	1029.483
335.373	19.411	1358.904	1028.978
336.387	19.500	1358.253	1028.928
337.402	19.567	1357.298	1028.513
338.416	19.604	1356.200	1027.809
339.431	19.678	1355.885	1027.917
340.446	19.696	1355.313	1027.500
341.460	19.748	1354.100	1026.797
342.475	19.948	1353.058	1027.104
343.489	19.961	1352.381	1026.579
344.504	19.929	1351.412	1025.564
345.519	20.002	1350.691	1025.356
346.533	20.021	1349.979	1024.837
347.548	19.975	1349.222	1023.898
348.562	20.195	1348.448	1024.523
349.577	20.019	1347.679	1022.805
350.592	20.119	1346.365	1022.311
351.606	19.853	1345.470	1019.971
352.621	19.829	1344.013	1018.637
353.635	19.706	1342.920	1016.993
354.650	19.749	1342.057	1016.502
355.665	19.741	1341.185	1015.706
356.679	19.766	1340.107	1014.943
357.694	19.755	1339.394	1014.252
358.708	19.851	1338.347	1013.930
359.723	19.955	1337.006	1013.431
360.738	19.939	1336.261	1012.688
361.752	19.950	1335.142	1011.814
362.767	19.908	1334.260	1010.807
363.781	19.955	1333.220	1010.204
364.796	19.932	1332.673	1009.571
365.810	19.978	1332.159	1009.360
366.825	20.164	1331.207	1009.631
367.840	20.211	1330.622	1009.371
368.854	20.342	1330.028	1009.593
369.869	20.418	1329.344	1009.429
370.883	20.381	1328.985	1008.850
371.898	20.464	1327.815	1008.351
372.913	20.280	1327.351	1006.845
373.927	20.315	1325.914	1005.868
374.942	20.289	1325.509	1005.320
375.956	20.388	1324.583	1005.106
376.971	20.461	1323.917	1004.931
377.986	20.357	1323.230	1003.721
379.000	20.375	1322.371	1003.082
380.015	20.372	1321.579	1002.378
381.029	20.490	1321.205	1002.684
382.044	20.688	1319.965	1002.794
383.059	20.661	1319.332	1002.074
384.073	20.559	1318.980	1001.129
385.088	20.527	1318.309	1000.348
386.102	20.563	1317.838	1000.105
387.117	20.521	1317.263	999.338
388.132	20.451	1316.064	997.939
389.146	20.444	1314.330	996.496
390.161	20.316	1313.826	995.295
391.175	20.303	1313.372	994.784
392.190	20.288	1312.191	993.719
393.205	20.397	1311.169	993.477
394.219	20.542	1310.566	993.763
395.234	20.612	1309.460	993.236
396.248	20.445	1308.314	991.325
397.263	20.497	1306.656	990.281
398.278	20.472	1305.414	989.106
399.292	20.490	1304.005	988.055
400.307	20.286	1303.124	986.141
401.321	20.228	1302.018	984.890
402.336	20.260	1300.740	984.014
403.350	20.280	1300.128	983.580
404.365	20.336	1299.030	982.978
405.380	20.374	1298.172	982.456
406.394	20.367	1297.271	981.648
407.409	20.444	1296.714	981.573
408.423	20.577	1296.390	981.993
409.438	20.644	1295.923	981.935
410.453	20.758	1295.142	981.896
411.467	20.928	1294.082	981.963
412.482	20.862	1293.958	981.412
413.496	20.866	1293.414	980.933
414.511	20.912	1292.431	980.358
415.526	20.906	1291.840	979.789
416.540	21.090	1291.174	980.233
417.555	21.107	1290.373	979.635
418.569	21.141	1290.008	979.463
419.584	21.102	1289.472	978.749
420.599	21.053	1288.262	977.471
421.613	145.550	1434.512	1797.088
422.628	140.460	1455.776	1797.159
