DTS Sentinel unit serial number:	SN413079Multiplexer serial number:	ORYXHardware model number:	OX4-SRSoftware version number:	ORYX F/W v4.00 Oryx Data Collector v3.7.2.0data status	okinstallation	princeton_trtdifferential loss correction	single-endedforward channel	channel 4reverse channel	N/Adate	2019/09/14time	00:25:34forward acquisition time	60.00reverse acquisition time	0.00gamma	496.2192k internal	0.2324k external	0.2324temperature offset calibration	1.0129default loss term (dB/km)	0.3790temperature slope calibration	1.0000multiplexer offset coefficient	1.0000multiplexer slope coefficient	1.0000fibre end	0.00T internal ref (°C)	26.48T ext. ref 1 (°C)	3.18T ext. ref 2 (°C)	21.28length (m)	temperature (°C)	Stokes	anti-Stokes-747.200	-57.072	-0.300	0.133
-746.185	-200.000	-0.012	0.241
-745.171	-88.509	-0.096	0.029
-744.156	-112.792	-0.232	0.047
-743.142	-20.045	-0.243	0.151
-742.127	800.000	0.053	0.179
-741.112	-200.000	0.038	0.168
-740.098	49.417	-0.051	0.049
-739.083	44.513	-0.087	0.081
-738.069	-135.069	-0.082	-0.010
-737.054	-86.904	0.084	0.026
-736.039	-63.894	-0.356	0.147
-735.025	73.228	0.131	0.138
-734.010	-154.592	-0.169	0.011
-732.996	-200.000	0.002	-0.272
-731.981	14.667	-0.124	-0.098
-730.966	644.559	-0.151	0.389
-729.952	17.388	-0.065	-0.052
-728.937	24.033	-0.253	-0.210
-727.923	-32.649	-0.318	-0.178
-726.908	243.973	-0.162	0.275
-725.894	224.726	-0.028	-0.046
-724.879	-200.000	-0.041	-0.333
-723.864	778.741	0.042	-0.115
-722.850	19.268	-0.206	0.167
-721.835	536.600	-0.159	0.380
-720.821	-83.400	-0.289	0.093
-719.806	204.018	-0.131	0.205
-718.791	-8.727	-0.265	0.179
-717.777	-44.494	-0.157	0.079
-716.762	-200.000	-0.002	-0.159
-715.748	-200.000	0.025	-0.337
-714.733	408.790	-0.147	0.314
-713.718	158.997	0.024	0.033
-712.704	38.966	0.083	0.074
-711.689	-200.000	0.044	-0.205
-710.675	-68.323	0.147	0.058
-709.660	800.000	0.039	0.128
-708.645	-75.277	0.621	-0.224
-707.631	179.741	0.116	0.171
-706.616	-80.833	-0.313	-0.105
-705.602	-122.415	-0.193	0.032
-704.587	-76.795	-0.092	0.033
-703.572	-200.000	0.017	-0.315
-702.558	162.829	0.014	-0.020
-701.543	800.000	0.049	-0.175
-700.529	145.850	-0.090	-0.122
-699.514	197.962	0.113	-0.174
-698.499	221.832	0.015	-0.025
-697.485	-78.044	-0.257	0.089
-696.470	744.417	0.021	0.057
-695.456	-99.596	0.178	0.045
-694.441	22.256	-0.109	-0.089
-693.426	312.518	0.116	-0.219
-692.412	-200.000	0.028	-0.134
-691.397	-85.638	-0.075	-0.023
-690.383	-200.000	0.003	0.088
-689.368	800.000	-0.046	-0.157
-688.354	360.982	-0.154	-0.311
-687.339	15.851	-0.066	-0.052
-686.324	449.361	0.093	-0.207
-685.310	82.128	-0.121	-0.132
-684.295	800.000	-0.025	-0.084
-683.281	-5.665	-0.127	-0.088
-682.266	-87.649	0.188	-0.057
-681.251	-200.000	0.057	0.406
-680.237	-89.789	-0.138	0.041
-679.222	-13.536	0.153	-0.100
-678.208	-200.000	-0.010	-0.110
-677.193	-50.791	0.091	-0.043
-676.178	-98.239	-0.207	-0.053
-675.164	532.703	0.100	0.237
-674.149	-99.818	-0.483	0.122
-673.135	-113.485	-0.130	-0.026
-672.120	-200.000	0.043	-0.210
-671.105	95.331	-0.289	-0.331
-670.091	-128.330	-0.254	-0.036
-669.076	-200.000	-0.001	-0.078
-668.062	92.654	0.126	-0.143
-667.047	91.878	-0.090	-0.102
-666.032	119.275	-0.145	-0.180
-665.018	-116.947	-0.082	-0.015
-664.003	-145.229	-0.100	0.009
-662.989	-74.510	0.057	-0.021
-661.974	466.135	0.146	0.330
-660.959	-97.534	0.084	0.022
-659.945	-200.000	0.004	-0.309
-658.930	-91.017	-0.109	-0.032
-657.916	327.984	0.172	-0.332
-656.901	-72.888	0.228	-0.084
-655.886	366.269	-0.175	-0.356
-654.872	-102.217	-0.162	0.039
-653.857	81.767	-0.230	0.251
-652.843	53.672	-0.291	0.281
-651.828	-156.915	-0.186	0.011
-650.814	16.209	-0.146	-0.115
-649.799	-200.000	0.001	0.110
-648.784	37.604	0.223	0.199
-647.770	-57.759	-0.169	0.074
-646.755	128.169	0.251	-0.321
-645.741	-102.680	-0.135	0.032
-644.726	-200.000	0.010	-0.507
-643.711	-88.475	-0.238	-0.072
-642.697	-110.002	0.396	0.083
-641.682	54.961	-0.101	-0.098
-640.668	357.722	-0.109	-0.219
-639.653	75.269	-0.042	0.045
-638.638	462.308	-0.046	0.103
-637.624	-200.000	-0.037	-0.226
-636.609	-150.810	0.031	0.002
-635.595	67.669	0.114	0.117
-634.580	-46.233	0.343	-0.170
-633.565	800.000	0.063	-0.190
-632.551	-8.266	-0.321	-0.217
-631.536	-104.397	0.205	-0.048
-630.522	-124.326	-0.196	0.031
-629.507	22.386	-0.354	-0.290
-628.492	-200.000	-0.043	0.209
-627.478	-200.000	-0.018	-0.090
-626.463	800.000	-0.069	0.293
-625.449	800.000	-0.040	0.161
-624.434	79.654	-0.022	0.024
-623.419	-200.000	-0.053	-0.330
-622.405	45.299	0.173	-0.160
-621.390	-130.278	0.327	-0.045
-620.376	-27.406	0.165	0.096
-619.361	-42.198	0.249	-0.128
-618.346	-200.000	0.004	-0.049
-617.332	-67.541	0.217	-0.086
-616.317	-0.276	0.171	0.122
-615.303	-107.740	0.163	0.036
-614.288	-139.566	-0.257	0.028
-613.273	-90.624	-0.248	-0.072
-612.259	-91.027	0.243	0.070
-611.244	12.657	-0.138	-0.107
-610.230	-115.200	-0.388	0.074
-609.215	-102.067	0.322	0.078
-608.201	-200.000	0.012	-0.207
-607.186	199.221	0.150	-0.231
-606.171	4.671	-0.492	0.363
-605.157	331.216	-0.138	-0.267
-604.142	545.845	0.091	0.217
-603.128	-200.000	0.180	-0.001
-602.113	-83.250	-0.177	-0.057
-601.098	17.513	-0.145	-0.116
-600.084	-92.076	0.132	-0.038
-599.069	-136.751	-0.147	-0.017
-598.055	-48.992	0.086	-0.041
-597.040	39.915	0.111	0.100
-596.025	-33.254	0.127	-0.071
-595.011	-200.000	0.006	-0.183
-593.996	-34.368	0.167	-0.092
-592.982	-138.032	0.160	0.018
-591.967	-137.159	-0.192	0.022
-590.952	133.058	-0.168	-0.218
-589.938	350.897	0.143	-0.284
-588.923	800.000	-0.061	0.168
-587.909	-67.884	0.174	0.068
-586.894	-200.000	-0.017	0.154
-585.879	-139.447	0.069	-0.007
-584.865	-128.884	-0.417	0.059
-583.850	-102.829	0.294	-0.070
-582.836	314.962	0.057	0.107
-581.821	-140.160	-0.201	0.021
-580.806	-125.162	-0.240	-0.037
-579.792	36.695	0.116	-0.103
-578.777	235.571	-0.092	-0.152
-577.763	-89.746	0.349	-0.103
-576.748	240.195	-0.106	0.177
-575.733	106.344	0.040	-0.048
-574.719	321.954	-0.057	0.108
-573.704	800.000	-0.104	0.299
-572.690	-200.000	-0.001	0.267
-571.675	-200.000	-0.025	-0.115
-570.661	166.902	0.092	-0.131
-569.646	-0.284	-0.255	-0.181
-568.631	800.000	-0.063	0.266
-567.617	210.149	0.213	-0.335
-566.602	-200.000	-0.048	-0.618
-565.588	282.062	0.089	-0.161
-564.573	-200.000	-0.031	0.241
-563.558	-200.000	-0.007	-0.104
-562.544	-118.277	0.197	-0.035
-561.529	-49.824	-0.104	0.049
-560.515	-14.357	0.088	0.057
-559.500	-25.500	-0.051	0.030
-558.485	-63.718	0.291	-0.120
-557.471	387.697	0.098	-0.202
-556.456	129.229	0.140	-0.180
-555.442	506.470	-0.096	-0.223
-554.427	311.440	-0.188	-0.354
-553.412	88.104	0.129	-0.144
-552.398	-138.563	-0.106	0.012
-551.383	17.720	0.246	-0.196
-550.369	800.000	0.140	0.497
-549.354	-133.294	0.062	-0.008
-548.339	403.314	-0.098	0.206
-547.325	251.392	0.085	0.145
-546.310	800.000	0.092	0.282
-545.296	800.000	-0.010	-0.032
-544.281	589.027	-0.038	0.094
-543.266	68.466	-0.121	-0.124
-542.252	120.587	0.220	-0.274
-541.237	109.807	-0.119	-0.142
-540.223	-200.000	0.028	-0.146
-539.208	-139.209	-0.246	-0.027
-538.193	298.041	-0.081	-0.149
-537.179	800.000	0.111	-0.395
-536.164	63.441	-0.039	-0.039
-535.150	92.696	-0.075	-0.085
-534.135	16.763	-0.288	-0.228
-533.121	638.587	0.057	0.145
-532.106	554.200	0.090	-0.217
-531.091	-200.000	0.039	0.238
-530.077	360.323	-0.070	-0.140
-529.062	-56.238	0.353	0.157
-528.048	800.000	0.023	-0.091
-527.033	22.871	-0.258	-0.211
-526.018	104.220	0.158	-0.187
-525.004	-34.300	-0.310	-0.170
-523.989	-103.952	-0.283	0.066
-522.975	126.843	-0.173	-0.219
-521.960	-65.336	-0.086	-0.034
-520.945	-62.232	-0.211	0.088
-519.931	800.000	-0.097	0.301
-518.916	-76.582	0.182	-0.064
-517.902	321.980	-0.096	-0.184
-516.887	-200.000	0.055	0.261
-515.872	800.000	0.029	-0.090
-514.858	0.471	-0.227	0.163
-513.843	269.544	0.185	0.324
-512.829	-200.000	-0.003	-0.046
-511.814	-117.054	-0.296	-0.054
-510.799	515.105	-0.083	0.193
-509.785	781.099	0.045	-0.123
-508.770	-200.000	-0.039	0.209
-507.756	22.117	0.120	-0.098
-506.741	26.512	0.210	0.176
-505.726	-0.471	0.199	-0.141
-504.712	-0.786	-0.118	-0.083
-503.697	261.745	-0.235	0.408
-502.683	-0.184	0.223	0.159
-501.668	-60.612	0.244	0.104
-500.653	170.589	0.175	0.251
-499.639	-200.000	-0.033	0.256
-498.624	-92.141	0.245	-0.069
-497.610	-200.000	-0.028	-0.223
-496.595	-178.709	-0.394	0.009
-495.581	-200.000	-0.024	0.170
-494.566	-200.000	-0.036	0.215
-493.551	-119.820	-0.289	-0.050
-492.537	-158.067	-0.270	0.016
-491.522	297.701	0.090	-0.165
-490.508	800.000	0.069	0.211
-489.493	-200.000	-0.019	0.259
-488.478	-200.000	-0.008	0.053
-487.464	-45.479	0.325	-0.161
-486.449	-87.331	0.244	-0.074
-485.435	382.262	-0.116	-0.238
-484.420	14.030	0.225	0.175
-483.405	40.337	-0.113	-0.102
-482.391	264.265	-0.045	-0.077
-481.376	141.214	0.152	0.201
-480.362	-25.421	-0.334	-0.197
-479.347	260.202	0.294	0.508
-478.332	-148.597	0.026	-0.002
-477.318	62.101	-0.069	0.069
-476.303	-153.302	-0.145	-0.010
-475.289	20.449	-0.132	0.107
-474.274	-106.597	-0.355	0.079
-473.259	-107.094	0.173	-0.038
-472.245	-157.432	-0.249	0.015
-471.230	-8.277	-0.010	0.007
-470.216	-191.810	-0.123	-0.001
-469.201	-72.703	-0.145	-0.053
-468.186	800.000	-0.059	-0.206
-467.172	30.803	-0.292	0.250
-466.157	-44.680	0.023	-0.011
-465.143	26.395	-0.248	-0.207
-464.128	-103.178	-0.176	0.041
-463.113	68.945	-0.174	-0.179
-462.099	-97.726	-0.249	0.064
-461.084	-25.322	-0.265	0.156
-460.070	-169.516	0.167	-0.006
-459.055	-150.706	-0.229	-0.017
-458.040	-159.829	0.413	0.023
-457.026	800.000	-0.038	0.136
-456.011	-200.000	0.019	-0.320
-454.997	-86.149	0.055	-0.017
-453.982	-200.000	0.023	0.111
-452.968	-157.911	-0.298	-0.018
-451.953	16.463	0.180	-0.142
-450.938	10.187	-0.414	-0.314
-449.924	93.994	-0.027	-0.030
-448.909	-155.482	-0.130	0.008
-447.895	409.045	0.176	0.371
-446.880	-200.000	0.022	-0.182
-445.865	-147.351	0.133	-0.011
-444.851	-200.000	0.017	-0.085
-443.836	-17.947	0.104	-0.065
-442.822	800.000	-0.046	0.134
-441.807	290.673	0.146	0.264
-440.792	-101.142	0.318	-0.078
-439.778	-200.000	0.050	-0.296
-438.763	-137.839	-0.205	-0.023
-437.749	377.698	0.109	-0.222
-436.734	300.064	-0.059	0.108
-435.719	368.876	-0.087	0.175
-434.705	-200.000	-0.009	0.215
-433.690	-55.352	-0.279	-0.125
-432.676	-38.828	0.153	-0.081
-431.661	-16.573	0.268	0.170
-430.646	52.255	-0.205	0.195
-429.632	21.124	0.335	0.271
-428.617	-200.000	0.005	0.064
-427.603	182.729	-0.098	0.144
-426.588	800.000	0.047	-0.168
-425.573	97.843	0.112	-0.128
-424.559	168.131	-0.116	0.164
-423.544	-99.458	0.144	0.036
-422.530	-117.052	-0.216	-0.039
-421.515	37.243	-0.125	0.110
-420.500	31.852	-0.261	0.224
-419.486	35.394	-0.217	-0.190
-418.471	800.000	-0.093	-0.383
-417.457	188.315	-0.204	-0.304
-416.442	-13.141	0.270	0.175
-415.428	146.479	-0.227	0.304
-414.413	-80.283	-0.370	0.123
-413.398	-129.403	-0.324	-0.045
-412.384	-27.603	0.247	0.143
-411.369	-40.692	-0.194	-0.100
-410.355	-200.000	-0.053	-0.270
-409.340	6.494	-0.212	0.157
-408.325	-145.331	0.194	-0.017
-407.311	115.583	0.225	-0.274
-406.296	-66.259	-0.217	0.086
-405.282	-200.000	-0.004	-0.136
-404.267	42.781	0.154	-0.140
-403.252	-111.357	-0.395	0.080
-402.238	213.437	0.134	-0.210
-401.223	-20.332	-0.315	-0.193
-400.209	760.769	0.111	-0.301
-399.194	-200.000	-0.056	-0.504
-398.179	478.743	0.055	-0.124
-397.165	-200.000	0.061	-0.268
-396.150	-131.772	0.051	-0.007
-395.136	61.914	0.075	0.074
-394.121	541.984	0.073	-0.172
-393.106	115.880	-0.117	-0.143
-392.092	195.287	-0.030	-0.046
-391.077	-34.876	-0.095	-0.052
-390.063	226.327	0.161	-0.260
-389.048	-18.609	-0.253	-0.157
-388.033	-200.000	0.039	0.199
-387.019	800.000	0.056	0.232
-386.004	-31.870	0.148	0.082
-384.990	471.777	0.055	-0.122
-383.975	559.442	-0.097	0.234
-382.960	-125.147	0.177	0.027
-381.946	43.927	-0.142	0.130
-380.931	-112.340	0.162	-0.032
-379.917	-132.845	-0.087	0.011
-378.902	46.768	-0.134	-0.124
-377.888	86.518	-0.259	-0.284
-376.873	-35.973	-0.228	-0.122
-375.858	234.736	0.036	-0.058
-374.844	-80.666	-0.211	-0.070
-373.829	800.000	-0.090	0.300
-372.815	2.174	0.247	-0.177
-371.800	352.492	0.069	0.136
-370.785	-87.088	0.282	0.085
-369.771	205.459	0.178	0.276
-368.756	234.005	0.106	-0.173
-367.742	-84.193	-0.338	0.107
-366.727	-200.000	0.000	0.096
-365.712	126.044	-0.203	-0.256
-364.698	800.000	-0.041	0.149
-363.683	-101.475	-0.295	0.072
-362.669	-200.000	-0.040	0.277
-361.654	-57.798	-0.093	-0.040
-360.639	-200.000	-0.010	0.108
-359.625	284.341	-0.218	0.390
-358.610	-200.000	0.054	0.267
-357.596	800.000	0.058	0.249
-356.581	-157.349	0.160	0.010
-355.566	457.682	0.056	0.124
-354.552	444.287	0.106	-0.231
-353.537	126.460	0.174	0.219
-352.523	-200.000	0.028	0.332
-351.508	800.000	-0.032	0.088
-350.493	58.016	-0.170	0.165
-349.479	-200.000	0.029	0.186
-348.464	800.000	-0.065	-0.280
-347.450	-145.679	0.049	0.004
-346.435	43.475	-0.255	-0.231
-345.420	-35.169	-0.037	0.020
-344.406	359.816	-0.097	0.194
-343.391	-200.000	-0.054	0.307
-342.377	51.655	-0.147	0.139
-341.362	-200.000	0.200	-0.000
-340.348	439.383	-0.151	0.328
-339.333	79.280	-0.144	0.153
-338.318	157.442	-0.128	-0.176
-337.304	394.210	0.098	-0.202
-336.289	-180.439	-0.174	-0.004
-335.275	45.406	0.104	-0.095
-334.260	-200.000	-0.039	0.186
-333.245	-49.249	-0.175	0.083
-332.231	-15.376	-0.095	-0.060
-331.216	127.959	-0.129	0.163
-330.202	112.766	0.159	-0.191
-329.187	-200.000	0.001	0.147
-328.172	-200.000	-0.011	-0.156
-327.158	-109.601	0.279	-0.058
-326.143	5.703	-0.153	-0.112
-325.129	-200.000	-0.026	0.196
-324.114	800.000	-0.046	-0.137
-323.099	100.011	-0.108	0.125
-322.085	-5.303	-0.139	-0.095
-321.070	464.835	0.009	0.021
-320.056	-59.330	-0.153	-0.065
-319.041	119.615	0.209	-0.257
-318.026	800.000	-0.123	0.348
-317.012	718.494	0.080	0.210
-315.997	466.390	-0.073	0.163
-314.983	-12.367	0.257	-0.167
-313.968	174.518	-0.067	0.096
-312.953	241.829	0.090	-0.149
-311.939	31.787	0.128	-0.109
-310.924	274.333	0.121	-0.213
-309.910	-27.362	0.216	-0.125
-308.895	211.055	0.108	0.168
-307.880	765.518	0.044	0.118
-306.866	679.943	0.077	0.198
-305.851	-18.200	-0.201	0.125
-304.837	-150.809	0.076	-0.006
-303.822	-8.014	0.355	0.238
-302.807	-200.000	0.078	0.349
-301.793	-200.000	0.025	0.578
-300.778	-33.552	0.206	0.113
-299.764	-73.359	-0.268	0.097
-298.749	800.000	0.068	0.224
-297.735	-165.372	-0.236	-0.010
-296.720	-200.000	0.038	0.256
-295.705	-77.606	0.533	-0.183
-294.691	-70.289	0.198	0.074
-293.676	-143.797	0.165	-0.015
-292.662	-100.624	-0.170	-0.042
-291.647	-187.274	-0.112	-0.002
-290.632	234.132	0.119	-0.195
-289.618	800.000	-0.105	-0.362
-288.603	472.981	-0.068	-0.152
-287.589	-200.000	-0.039	-0.237
-286.574	-200.000	0.040	-0.200
-285.559	79.919	0.173	-0.184
-284.545	170.082	0.101	0.143
-283.530	-113.070	0.125	-0.024
-282.516	415.409	-0.132	-0.279
-281.501	42.341	0.163	0.147
-280.486	-107.743	-0.320	0.069
-279.472	800.000	-0.016	0.064
-278.457	642.506	0.089	0.224
-277.443	800.000	-0.056	0.244
-276.428	-192.936	0.540	0.005
-275.413	-200.000	0.054	-0.253
-274.399	286.965	0.131	-0.235
-273.384	28.092	0.195	0.163
-272.370	-103.159	0.115	0.027
-271.355	-152.432	-0.052	-0.004
-270.340	-200.000	0.006	-0.107
-269.326	17.406	0.165	-0.130
-268.311	80.502	0.240	0.256
-267.297	-102.870	0.201	0.047
-266.282	156.716	0.078	0.107
-265.267	-145.402	0.134	0.012
-264.253	800.000	0.048	0.133
-263.238	40.531	-0.171	-0.153
-262.224	252.958	0.216	-0.365
-261.209	423.043	-0.133	0.284
-260.195	-143.277	0.101	0.010
-259.180	-152.085	-0.101	0.007
-258.165	-126.119	0.176	0.026
-257.151	125.067	0.237	0.295
-256.136	-128.803	0.366	-0.051
-255.122	-118.337	-0.159	0.028
-254.107	24.017	-0.084	-0.069
-253.092	692.281	0.092	-0.240
-252.078	-200.000	-0.008	-0.068
-251.063	800.000	0.084	0.356
-250.049	27.939	0.217	-0.181
-249.034	-62.188	0.202	0.084
-248.019	412.717	0.056	0.117
-247.005	800.000	-0.074	-0.256
-245.990	22.844	0.159	0.129
-244.976	575.719	0.075	0.181
-243.961	20.790	0.352	0.283
-242.946	-89.341	0.081	0.024
-241.932	211.018	-0.236	-0.367
-240.917	-142.165	-0.288	0.028
-239.903	18.988	-0.217	0.172
-238.888	-200.000	-0.026	0.181
-237.873	285.246	0.089	-0.159
-236.859	361.406	-0.126	0.249
-235.844	339.652	0.139	-0.268
-234.830	-200.000	-0.070	-0.391
-233.815	-39.773	0.290	-0.150
-232.800	-200.000	-0.032	0.276
-231.786	12.126	-0.151	0.115
-230.771	-116.761	-0.423	0.077
-229.757	-200.000	0.248	-0.000
-228.742	331.270	-0.204	-0.389
-227.727	-200.000	-0.029	0.314
-226.713	135.582	0.158	0.204
-225.698	7.240	0.040	-0.029
-224.684	187.925	0.233	-0.345
-223.669	60.342	0.344	0.337
-222.655	800.000	-0.037	-0.159
-221.640	166.867	0.025	0.034
-220.625	314.012	-0.134	0.250
-219.611	-200.000	-0.029	-0.134
-218.596	-95.786	0.317	0.084
-217.582	800.000	0.044	0.159
-216.567	-158.929	0.187	0.011
-215.552	-200.000	0.005	-0.348
-214.538	-200.000	0.022	-0.215
-213.523	25.009	0.101	0.083
-212.509	-200.000	-0.006	0.335
-211.494	-84.540	0.075	-0.023
-210.479	600.680	0.069	0.170
-209.465	105.658	0.234	-0.274
-208.450	257.589	0.051	0.086
-207.436	-200.000	-0.003	0.176
-206.421	-131.678	-0.229	0.030
-205.406	-200.000	-0.009	-0.082
-204.392	230.125	-0.082	-0.133
-203.377	-55.467	0.113	-0.050
-202.363	68.978	-0.057	-0.058
-201.348	455.094	0.022	-0.048
-200.333	286.797	0.077	-0.137
-199.319	232.623	0.099	0.161
-198.304	28.478	0.103	0.086
-197.290	119.881	0.118	0.144
-196.275	800.000	-0.080	-0.221
-195.260	-108.030	-0.141	0.030
-194.246	123.041	0.120	0.149
-193.231	538.426	-0.047	0.111
-192.217	-77.336	0.215	-0.074
-191.202	216.547	0.055	0.086
-190.187	158.982	-0.097	0.133
-189.173	800.000	-0.083	-0.296
-188.158	-132.261	-0.404	-0.052
-187.144	-14.996	-0.174	-0.110
-186.129	253.634	0.074	-0.125
-185.114	4.344	-0.192	0.139
-184.100	-76.856	-0.168	-0.058
-183.085	-34.105	-0.148	0.081
-182.071	-200.000	0.016	-0.333
-181.056	181.894	-0.204	0.297
-180.042	-200.000	0.029	0.466
-179.027	-74.713	0.110	0.039
-178.012	-187.210	0.175	0.002
-176.998	-200.000	-0.014	0.063
-175.983	-26.293	-0.206	-0.119
-174.969	-26.159	-0.247	0.143
-173.954	-182.861	0.152	-0.003
-172.939	-200.000	-0.024	-0.285
-171.925	-26.888	0.296	0.171
-170.910	800.000	0.073	0.229
-169.896	677.024	0.156	0.400
-168.881	-200.000	-0.022	-0.169
-167.866	-0.282	0.037	0.026
-166.852	37.351	-0.157	-0.137
-165.837	-87.992	0.117	-0.035
-164.823	-200.000	-0.021	-0.255
-163.808	138.739	-0.078	0.101
-162.793	-53.542	-0.394	-0.178
-161.779	-84.493	-0.047	0.015
-160.764	267.533	0.059	0.102
-159.750	280.659	0.076	0.134
-158.735	4.600	0.188	-0.136
-157.720	-116.712	0.318	0.058
-156.706	93.099	-0.119	-0.132
-155.691	11.022	0.324	0.244
-154.677	340.804	-0.087	-0.167
-153.662	-160.238	-0.259	-0.014
-152.647	-102.811	-0.246	-0.058
-151.633	-86.984	0.274	0.082
-150.618	800.000	-0.082	-0.287
-149.604	-50.467	-0.278	0.129
-148.589	-84.290	-0.109	0.034
-147.574	-113.939	0.201	-0.038
-146.560	-76.503	-0.481	-0.167
-145.545	114.358	-0.192	0.230
-144.531	-200.000	-0.046	-0.214
-143.516	327.294	-0.073	0.138
-142.502	-32.094	-0.126	0.070
-141.487	-200.000	0.039	0.168
-140.472	-200.000	-0.029	0.125
-139.458	-77.421	0.152	-0.052
-138.443	-79.358	0.077	-0.026
-137.429	-58.501	-0.064	-0.027
-136.414	800.000	0.029	0.120
-135.399	168.991	-0.113	-0.159
-134.385	-78.537	0.496	0.167
-133.370	17.769	0.182	-0.143
-132.356	-55.360	-0.303	0.134
-131.341	183.696	-0.180	-0.263
-130.326	-21.621	0.142	0.085
-129.312	-200.000	0.024	-0.394
-128.297	-101.187	-0.207	0.050
-127.283	-106.735	0.109	0.024
-126.268	-136.813	-0.236	0.027
-125.253	629.821	-0.053	0.132
-124.239	-48.462	0.303	-0.144
-123.224	137.085	-0.056	-0.072
-122.210	4.768	0.049	-0.035
-121.195	288.161	0.104	0.185
-120.180	-161.631	0.351	-0.018
-119.166	-200.000	0.023	-0.194
-118.151	-108.371	-0.233	-0.050
-117.137	65.235	0.203	-0.202
-116.122	800.000	0.079	0.228
-115.107	-156.220	-0.517	-0.032
-114.093	-200.000	-0.012	0.074
-113.078	-51.475	0.154	0.071
-112.064	-76.293	-0.124	-0.043
-111.049	446.175	0.080	0.174
-110.034	20.026	-0.057	0.046
-109.020	506.350	-0.070	0.159
-108.005	-200.000	-0.029	-0.287
-106.991	-200.000	-0.011	0.212
-105.976	40.858	-0.135	0.120
-104.962	-103.837	0.215	-0.050
-103.947	-14.163	-0.309	-0.196
-102.932	166.627	-0.015	-0.020
-101.918	-54.307	-0.162	0.072
-100.903	182.857	0.064	-0.093
-99.889	-200.000	-0.010	0.302
-98.874	-200.000	-0.040	0.285
-97.859	-78.506	-0.413	0.139
-96.845	800.000	-0.066	0.249
-95.830	-2.472	-0.113	0.078
-94.816	-165.125	-0.143	-0.006
-93.801	210.518	0.134	-0.207
-92.786	211.233	-0.059	-0.092
-91.772	173.811	0.046	-0.065
-90.757	-75.794	-0.271	-0.094
-89.743	422.598	-0.100	0.211
-88.728	-200.000	0.022	0.109
-87.713	800.000	-0.113	-0.307
-86.699	-142.174	0.110	-0.011
-85.684	75.383	-0.231	0.239
-84.670	64.670	0.322	0.319
-83.655	-64.464	-0.186	-0.074
-82.640	-146.759	-0.221	0.019
-81.626	-119.151	0.156	0.027
-80.611	135.256	-0.022	-0.028
-79.597	-46.548	0.424	0.205
-78.582	800.000	-0.050	0.147
-77.567	-200.000	0.007	-0.029
-76.553	-200.000	-0.051	-0.375
-75.538	-126.898	-0.160	-0.023
-74.524	2.705	0.327	-0.233
-73.509	800.000	0.066	-0.222
-72.494	-200.000	0.038	0.272
-71.480	-52.199	-0.108	-0.049
-70.465	-200.000	-0.004	-0.204
-69.451	-84.154	0.494	0.154
-68.436	-50.057	0.269	0.126
-67.422	29.791	-0.103	-0.086
-66.407	-200.000	-0.131	-0.597
-65.392	-121.922	-0.327	-0.053
-64.378	783.294	0.126	-0.339
-63.363	123.455	0.060	0.074
-62.349	-200.000	-0.008	-0.201
-61.334	121.954	-0.889	-1.091
-60.319	386.055	0.292	0.592
-59.305	490.142	-0.565	-1.270
-58.290	185.605	0.731	1.068
-57.276	261.771	0.767	1.306
-56.261	-200.000	115.730	644.021
-55.246	496.325	1536.983	3472.469
-54.232	172.735	2716.007	3842.654
-53.217	95.505	2324.239	2604.427
-52.203	32.872	2068.869	1759.960
-51.188	28.257	1984.503	1646.734
-50.173	26.911	1967.605	1620.629
-49.159	43.810	2028.546	1824.762
-48.144	42.895	2042.825	1829.220
-47.130	28.674	2001.238	1664.134
-46.115	26.548	1990.875	1636.254
-45.100	26.375	1988.291	1632.508
-44.086	26.363	1985.822	1630.303
-43.071	26.331	1982.955	1627.603
-42.057	26.304	1980.651	1625.398
-41.042	26.380	1978.898	1624.584
-40.027	26.402	1977.050	1623.194
-39.013	26.404	1975.057	1621.517
-37.998	26.396	1973.850	1620.388
-36.984	26.351	1971.764	1618.205
-35.969	26.397	1969.732	1616.883
-34.954	26.404	1968.413	1615.804
-33.940	26.464	1966.942	1615.064
-32.925	26.467	1965.274	1613.661
-31.911	26.461	1963.519	1612.100
-30.896	26.486	1961.637	1610.714
-29.881	26.471	1960.503	1609.582
-28.867	26.533	1958.472	1608.404
-27.852	26.619	1956.486	1607.477
-26.838	26.587	1954.724	1605.682
-25.823	26.581	1953.188	1604.298
-24.809	26.509	1951.627	1602.315
-23.794	26.515	1949.511	1600.573
-22.779	26.465	1947.986	1598.810
-21.765	26.501	1946.284	1597.665
-20.750	26.570	1944.642	1596.864
-19.736	26.531	1942.821	1594.965
-18.721	26.586	1941.296	1594.137
-17.706	26.504	1939.922	1592.224
-16.692	26.504	1937.945	1590.536
-15.677	26.511	1936.526	1589.368
-14.663	26.536	1935.228	1588.457
-13.648	26.474	1934.222	1587.027
-12.633	26.456	1932.792	1585.631
-11.619	26.467	1931.561	1584.657
-10.604	26.438	1930.354	1583.349
-9.590	26.501	1928.864	1582.613
-8.575	26.436	1927.702	1581.034
-7.560	26.536	1926.066	1580.496
-6.546	26.560	1924.416	1579.289
-5.531	26.487	1923.829	1578.110
-4.517	26.508	1922.196	1576.894
-3.502	26.543	1921.249	1576.361
-2.487	26.463	1919.859	1574.456
-1.473	26.524	1918.928	1574.166
-0.458	26.544	1914.086	1570.304
0.556	27.309	1894.114	1542.854
1.571	23.012	1876.408	1492.107
2.586	19.170	1899.440	1477.391
3.600	18.194	1935.215	1496.552
4.615	17.759	1927.719	1486.831
5.629	13.437	1826.629	1372.959
6.644	6.533	1713.606	1234.005
7.659	3.363	1681.689	1186.534
8.673	3.223	1678.005	1182.759
9.688	3.188	1677.109	1181.750
10.702	3.179	1675.753	1180.622
11.717	3.140	1672.279	1177.769
12.731	3.619	1670.977	1180.416
13.746	8.363	1683.053	1225.309
14.761	15.938	1699.923	1295.973
15.775	20.056	1705.969	1332.201
16.790	20.267	1705.086	1333.017
17.804	19.343	1702.825	1324.040
18.819	18.377	1699.504	1313.930
19.834	17.730	1697.275	1307.131
20.848	17.651	1695.723	1305.215
21.863	17.453	1694.007	1302.268
22.877	17.256	1692.790	1299.711
23.892	17.046	1691.522	1297.017
24.907	17.015	1690.268	1295.701
25.921	16.936	1689.483	1294.382
26.936	16.941	1688.359	1293.449
27.950	17.014	1687.283	1293.065
28.965	16.959	1687.183	1292.457
29.980	17.115	1686.090	1292.691
30.994	17.206	1684.918	1292.372
32.009	17.302	1683.938	1292.229
33.023	17.314	1683.550	1291.911
34.038	17.303	1682.764	1291.114
35.053	17.334	1681.405	1290.190
36.067	17.194	1679.950	1287.900
37.082	17.128	1678.957	1286.524
38.096	17.163	1677.354	1285.443
39.111	17.226	1676.584	1285.219
40.126	17.297	1676.103	1285.272
41.140	17.216	1675.031	1283.728
42.155	17.106	1673.486	1281.598
43.169	16.881	1672.074	1278.707
44.184	16.819	1670.771	1277.131
45.199	16.809	1669.567	1276.016
46.213	16.752	1668.353	1274.551
47.228	16.857	1667.209	1274.354
48.242	16.975	1666.373	1274.491
49.257	17.135	1665.524	1274.922
50.271	17.085	1664.189	1273.416
51.286	17.068	1662.776	1272.098
52.301	16.992	1661.776	1270.651
53.315	17.100	1659.847	1269.868
54.330	17.064	1658.496	1268.450
55.344	16.956	1656.886	1266.300
56.359	16.956	1655.059	1264.794
57.374	16.905	1654.106	1263.571
58.388	16.946	1653.319	1263.164
59.403	16.881	1651.603	1261.262
60.417	16.736	1650.634	1259.334
61.432	16.788	1649.226	1258.536
62.447	16.791	1647.940	1257.458
63.461	16.706	1646.660	1255.743
64.476	16.691	1645.513	1254.649
65.490	16.558	1644.832	1253.029
66.505	16.632	1643.457	1252.420
67.520	16.557	1642.862	1251.302
68.534	16.648	1641.492	1250.817
69.549	16.726	1640.332	1250.402
70.563	16.695	1639.268	1249.247
71.578	16.786	1637.115	1248.173
72.593	16.588	1636.717	1246.299
73.607	16.477	1635.898	1244.745
74.622	16.441	1634.506	1243.309
75.636	16.433	1633.775	1242.587
76.651	16.531	1632.993	1242.601
77.666	16.553	1631.947	1241.856
78.680	16.553	1631.167	1241.154
79.695	16.620	1630.402	1240.955
80.709	16.656	1629.570	1240.477
81.724	16.784	1628.413	1240.421
82.739	16.760	1628.225	1239.992
83.753	16.870	1627.654	1240.255
84.768	16.938	1626.507	1239.769
85.782	17.083	1625.409	1239.881
86.797	17.113	1625.197	1239.825
87.812	17.186	1624.162	1239.458
88.826	17.077	1622.974	1237.650
89.841	17.062	1621.511	1236.316
90.855	17.025	1620.825	1235.416
91.870	17.158	1619.674	1235.393
92.884	17.198	1619.032	1235.088
93.899	17.161	1618.115	1234.009
94.914	17.199	1616.562	1232.988
95.928	17.218	1615.856	1232.477
96.943	17.317	1613.869	1231.576
97.957	17.281	1612.565	1230.212
98.972	17.178	1610.844	1228.038
99.987	17.142	1609.609	1226.730
101.001	17.163	1608.057	1225.595
102.016	17.185	1606.090	1224.141
103.030	17.129	1605.268	1223.006
104.045	17.127	1604.405	1222.225
105.060	17.177	1602.229	1220.817
106.074	17.139	1601.037	1219.529
107.089	16.910	1599.719	1216.777
108.103	16.737	1597.939	1214.072
109.118	16.673	1596.277	1212.243
110.133	16.589	1595.064	1210.611
111.147	16.587	1593.857	1209.579
112.162	16.619	1592.530	1208.694
113.176	16.760	1590.533	1208.074
114.191	16.672	1589.326	1206.424
115.206	16.768	1588.373	1206.274
116.220	16.856	1586.612	1205.462
117.235	16.801	1585.408	1204.048
118.249	16.749	1584.346	1202.768
119.264	16.780	1582.657	1201.599
120.279	16.774	1581.222	1200.360
121.293	16.662	1579.397	1198.071
122.308	16.597	1578.198	1196.601
123.322	16.632	1576.579	1195.509
124.337	16.555	1575.327	1193.911
125.352	16.462	1574.197	1192.295
126.366	16.412	1572.996	1190.930
127.381	16.488	1571.330	1190.097
128.395	16.462	1571.008	1189.567
129.410	16.559	1569.085	1188.688
130.424	16.488	1568.147	1187.371
131.439	16.681	1566.542	1187.403
132.454	16.612	1565.659	1186.147
133.468	16.796	1564.066	1186.119
134.483	16.750	1562.742	1184.694
135.497	16.747	1561.422	1183.568
136.512	16.796	1560.304	1182.957
137.527	16.812	1558.809	1181.827
138.541	16.818	1557.664	1180.897
139.556	16.847	1556.237	1179.913
140.570	16.911	1555.131	1179.413
141.585	16.991	1553.821	1178.873
142.600	17.099	1551.984	1178.129
143.614	17.115	1551.310	1177.620
144.629	17.208	1550.420	1177.483
145.643	17.234	1548.950	1176.441
146.658	17.376	1547.376	1176.125
147.673	17.262	1545.402	1173.736
148.687	17.131	1544.207	1171.821
149.702	17.052	1542.967	1170.233
150.716	16.972	1540.974	1168.068
151.731	16.950	1539.684	1166.833
152.746	16.900	1538.514	1165.501
153.760	16.908	1537.064	1164.349
154.775	16.998	1535.927	1164.005
155.789	16.975	1534.985	1163.028
156.804	17.087	1534.033	1162.976
157.819	17.157	1532.105	1161.890
158.833	17.065	1531.503	1160.699
159.848	17.204	1530.460	1160.755
160.862	17.329	1528.958	1160.366
161.877	17.366	1527.897	1159.709
162.892	17.345	1526.276	1158.238
163.906	17.193	1524.761	1155.951
164.921	17.015	1523.836	1153.936
165.935	16.930	1522.894	1152.545
166.950	16.945	1521.868	1151.763
167.964	17.049	1520.767	1151.536
168.979	17.074	1519.384	1150.559
169.994	17.100	1518.334	1149.834
171.008	16.952	1517.592	1148.171
172.023	17.116	1516.126	1148.067
173.037	17.214	1514.907	1147.707
174.052	17.243	1514.814	1147.727
175.067	17.331	1513.137	1146.950
176.081	17.265	1512.003	1145.545
177.096	17.159	1510.291	1143.433
178.110	17.008	1508.892	1141.258
179.125	17.063	1507.896	1140.771
180.140	17.089	1507.072	1140.221
181.154	17.154	1505.856	1139.640
182.169	17.183	1504.947	1139.045
183.183	17.282	1503.742	1138.696
184.198	17.271	1503.051	1137.995
185.213	17.412	1501.947	1138.001
186.227	17.387	1501.279	1137.228
187.242	17.524	1499.653	1136.813
188.256	17.532	1498.617	1135.977
189.271	17.556	1497.747	1135.379
190.286	17.525	1497.044	1134.539
191.300	17.520	1495.651	1133.350
192.315	17.295	1493.944	1130.463
193.329	16.988	1492.700	1127.376
194.344	17.082	1491.164	1126.743
195.359	17.015	1491.063	1126.122
196.373	17.123	1489.814	1125.797
197.388	17.312	1488.608	1126.039
198.402	17.446	1487.727	1126.155
199.417	17.374	1487.258	1125.223
200.432	17.652	1486.232	1126.187
201.446	17.614	1485.598	1125.358
202.461	17.734	1484.330	1125.092
203.475	17.934	1483.329	1125.550
204.490	17.773	1482.559	1123.808
205.504	17.802	1480.867	1122.615
206.519	17.634	1479.826	1120.619
207.534	17.507	1478.749	1118.873
208.548	17.576	1477.576	1118.339
209.563	17.555	1476.518	1117.298
210.577	17.514	1475.750	1116.349
211.592	17.510	1475.082	1115.720
212.607	17.575	1474.226	1115.400
213.621	17.823	1473.156	1116.117
214.636	17.827	1472.664	1115.668
215.650	17.711	1471.733	1114.110
216.665	17.779	1470.331	1113.392
217.680	17.838	1469.577	1113.105
218.694	17.929	1469.353	1113.434
219.709	18.051	1468.122	1113.193
220.723	18.006	1467.173	1112.082
221.738	17.921	1466.451	1110.884
222.753	17.919	1465.679	1110.188
223.767	17.922	1464.333	1109.091
224.782	17.835	1463.494	1107.794
225.796	17.973	1462.580	1107.899
226.811	18.053	1462.055	1107.918
227.826	18.070	1461.311	1107.368
228.840	17.998	1460.405	1106.120
229.855	17.903	1459.079	1104.402
230.869	17.929	1457.744	1103.461
231.884	17.938	1457.105	1102.941
232.899	17.848	1455.829	1101.297
233.913	17.835	1454.386	1100.019
234.928	17.776	1453.539	1098.903
235.942	17.659	1452.300	1097.119
236.957	17.741	1450.699	1096.339
237.972	17.762	1449.424	1095.414
238.986	17.696	1448.431	1094.141
240.001	17.734	1447.782	1093.795
241.015	17.775	1446.976	1093.355
242.030	17.784	1445.636	1092.300
243.045	17.769	1445.071	1091.680
244.059	17.908	1443.850	1091.553
245.074	17.882	1442.849	1090.532
246.088	17.844	1442.030	1089.574
247.103	17.982	1441.672	1090.091
248.117	18.019	1441.074	1089.777
249.132	18.126	1439.975	1089.530
250.147	18.274	1439.717	1090.184
251.161	18.280	1439.280	1089.793
252.176	18.565	1438.725	1091.089
253.190	18.553	1437.636	1090.093
254.205	18.604	1436.940	1089.792
255.220	18.709	1435.886	1089.558
256.234	18.719	1435.694	1089.382
257.249	18.760	1434.413	1088.571
258.263	18.707	1433.815	1087.686
259.278	18.692	1432.727	1086.671
260.293	18.702	1432.141	1086.195
261.307	18.688	1431.260	1085.344
262.322	18.691	1430.499	1084.685
263.336	18.827	1429.340	1084.571
264.351	18.787	1428.644	1083.693
265.366	18.872	1427.650	1083.378
266.380	18.891	1426.812	1082.768
267.395	18.899	1425.255	1081.542
268.409	18.803	1425.040	1080.679
269.424	18.713	1423.795	1079.075
270.439	18.619	1422.870	1077.686
271.453	18.702	1421.726	1077.244
272.468	18.666	1421.310	1076.612
273.482	18.693	1419.941	1075.646
274.497	18.544	1419.295	1074.128
275.512	18.649	1417.847	1073.596
276.526	18.610	1417.173	1072.745
277.541	18.671	1415.757	1071.957
278.555	18.649	1415.343	1071.411
279.570	18.705	1414.531	1071.056
280.585	18.770	1413.935	1070.913
281.599	18.907	1412.908	1070.896
282.614	18.981	1412.053	1070.609
283.628	18.856	1410.691	1068.708
284.643	18.761	1409.653	1067.236
285.657	18.901	1408.079	1066.822
286.672	18.785	1407.431	1065.514
287.687	18.856	1406.604	1065.233
288.701	18.693	1405.606	1063.376
289.716	18.835	1404.729	1063.496
290.730	18.848	1404.251	1063.117
291.745	18.804	1403.426	1062.131
292.760	18.851	1402.495	1061.622
293.774	18.826	1401.561	1060.668
294.789	18.916	1400.114	1060.029
295.803	19.001	1399.582	1060.061
296.818	19.117	1398.676	1059.994
297.833	19.042	1397.351	1058.434
298.847	18.819	1396.592	1056.391
299.862	18.911	1395.492	1056.034
300.876	18.936	1394.422	1055.282
301.891	18.953	1393.732	1054.773
302.906	18.963	1393.174	1054.322
303.920	19.157	1391.948	1054.488
304.935	19.140	1391.816	1054.191
305.949	19.166	1391.180	1053.772
306.964	19.320	1390.212	1053.889
307.979	19.398	1389.152	1053.469
308.993	19.304	1388.683	1052.442
310.008	19.256	1387.301	1051.011
311.022	19.240	1386.442	1050.172
312.037	19.358	1385.597	1050.154
313.052	19.327	1384.781	1049.257
314.066	19.235	1383.649	1047.746
315.081	19.181	1382.293	1046.299
316.095	18.998	1381.091	1044.182
317.110	19.070	1379.770	1043.531
318.125	19.033	1378.966	1042.602
319.139	19.021	1378.440	1042.044
320.154	19.074	1377.094	1041.257
321.168	19.111	1375.956	1040.528
322.183	19.079	1374.742	1039.322
323.197	19.067	1374.023	1038.614
324.212	19.143	1373.401	1038.511
325.227	19.122	1372.885	1037.904
326.241	19.190	1371.769	1037.378
327.256	19.223	1370.955	1036.869
328.270	19.286	1370.008	1036.439
329.285	19.195	1369.224	1035.207
330.300	19.191	1367.741	1033.972
331.314	19.168	1367.389	1033.475
332.329	19.214	1366.305	1032.841
333.343	19.201	1365.507	1032.067
334.358	19.188	1364.773	1031.345
335.373	19.302	1363.938	1031.299
336.387	19.410	1363.357	1031.415
337.402	19.380	1362.773	1030.702
338.416	19.386	1361.592	1029.758
339.431	19.436	1361.479	1029.880
340.446	19.514	1360.823	1029.756
341.460	19.669	1359.369	1029.489
342.475	19.731	1358.431	1029.054
343.489	19.789	1357.652	1028.718
344.504	19.857	1356.853	1028.427
345.519	19.808	1356.228	1027.575
346.533	19.911	1355.262	1027.360
347.548	19.923	1354.237	1026.561
348.562	19.955	1353.505	1026.110
349.577	19.905	1352.938	1025.294
350.592	19.808	1352.012	1023.925
351.606	19.720	1350.739	1022.350
352.621	19.627	1349.296	1020.616
353.635	19.524	1348.255	1019.129
354.650	19.435	1347.559	1017.988
355.665	19.481	1346.661	1017.492
356.679	19.622	1345.240	1017.159
357.694	19.628	1344.634	1016.644
358.708	19.716	1343.426	1016.162
359.723	19.735	1342.408	1015.413
360.738	19.822	1341.534	1015.170
361.752	19.736	1340.871	1014.078
362.767	19.833	1339.023	1013.156
363.781	19.712	1338.700	1012.115
364.796	19.776	1337.960	1011.841
365.810	19.872	1337.040	1011.614
366.825	19.924	1336.652	1011.534
367.840	19.966	1335.528	1010.839
368.854	20.146	1335.189	1011.547
369.869	20.242	1334.733	1011.670
370.883	20.253	1333.813	1010.950
371.898	20.079	1333.428	1009.552
372.913	20.160	1332.353	1009.124
373.927	20.054	1331.469	1007.745
374.942	20.147	1330.552	1007.502
375.956	20.173	1329.946	1007.107
376.971	20.148	1329.299	1006.384
377.986	20.233	1327.928	1005.747
379.000	20.209	1327.297	1005.040
380.015	20.218	1326.744	1004.587
381.029	20.421	1326.016	1005.118
382.044	20.429	1325.705	1004.840
383.059	20.521	1324.631	1004.472
384.073	20.481	1323.975	1003.656
385.088	20.396	1323.506	1002.721
386.102	20.358	1322.693	1001.796
387.117	20.377	1321.702	1001.068
388.132	20.329	1320.821	1000.032
389.146	20.265	1319.812	998.813
390.161	20.218	1318.760	997.658
391.175	20.209	1318.235	997.120
392.190	20.201	1317.690	996.576
393.205	20.336	1316.181	996.117
394.219	20.431	1315.984	996.424
395.234	20.360	1314.639	994.914
396.248	20.335	1313.350	993.706
397.263	20.342	1311.902	992.565
398.278	20.260	1310.404	990.873
399.292	20.209	1309.330	989.681
400.307	20.184	1308.088	988.511
401.321	20.159	1307.156	987.580
402.336	20.145	1306.014	986.550
403.350	20.176	1305.162	985.998
404.365	20.201	1304.210	985.333
405.380	20.056	1303.866	984.163
406.394	20.221	1302.811	984.213
407.409	20.308	1302.057	984.052
408.423	20.389	1301.309	983.854
409.438	20.518	1300.775	984.097
410.453	20.629	1300.157	984.170
411.467	20.650	1299.595	983.778
412.482	20.601	1299.268	983.163
413.496	20.735	1298.431	983.201
414.511	20.726	1297.550	982.397
415.526	20.800	1296.798	982.156
416.540	20.820	1296.031	981.603
417.555	20.920	1295.591	981.748
418.569	20.915	1295.020	981.196
419.584	20.924	1294.239	980.570
420.599	20.810	1293.401	979.206
421.613	145.922	1434.518	1797.530
422.628	141.005	1455.034	1797.623
