DTS Sentinel unit serial number:	SN413079Multiplexer serial number:	ORYXHardware model number:	OX4-SRSoftware version number:	ORYX F/W v4.00 Oryx Data Collector v3.7.2.0data status	okinstallation	princeton_trtdifferential loss correction	single-endedforward channel	channel 4reverse channel	N/Adate	2019/09/12time	18:55:19forward acquisition time	15.00reverse acquisition time	0.00gamma	496.2192k internal	0.2307k external	0.2307temperature offset calibration	1.0134default loss term (dB/km)	0.3790temperature slope calibration	1.0000multiplexer offset coefficient	1.0000multiplexer slope coefficient	1.0000fibre end	0.00T internal ref (°C)	32.81T ext. ref 1 (°C)	2.98T ext. ref 2 (°C)	27.38length (m)	temperature (°C)	Stokes	anti-Stokes-747.200	-89.575	0.431	0.129
-746.185	-200.000	-0.026	-0.616
-745.171	-95.212	0.527	0.144
-744.156	-68.090	0.225	0.089
-743.142	9.817	0.555	-0.429
-742.127	667.294	0.146	-0.383
-741.112	-200.000	-0.049	-0.322
-740.098	119.159	-0.476	-0.599
-739.083	479.881	0.130	0.301
-738.069	-4.910	-1.000	0.701
-737.054	-200.000	0.007	0.071
-736.039	-110.474	0.710	-0.150
-735.025	-80.496	0.598	-0.203
-734.010	-11.116	-0.164	-0.110
-732.996	-31.834	-0.563	-0.321
-731.981	290.697	-0.319	0.589
-730.966	-200.000	0.110	-0.612
-729.952	-43.649	-0.553	-0.284
-728.937	800.000	0.139	-0.517
-727.923	-4.766	0.398	-0.279
-726.908	-178.766	0.451	-0.010
-725.894	572.728	-0.087	0.214
-724.879	289.982	-0.333	-0.615
-723.864	147.650	-0.029	0.040
-722.850	58.888	0.410	-0.409
-721.835	201.520	-0.194	-0.303
-720.821	61.942	-0.503	0.509
-719.806	-97.837	-0.480	-0.126
-718.791	-200.000	-0.030	-0.358
-717.777	208.558	-0.353	-0.560
-716.762	-94.883	-0.676	0.186
-715.748	800.000	0.130	-0.459
-714.733	-200.000	-0.054	-0.374
-713.718	-38.898	-0.396	0.212
-712.704	-1.922	-0.894	-0.639
-711.689	659.907	-0.073	0.191
-710.675	-113.304	-0.732	0.146
-709.660	-4.750	-0.544	0.381
-708.645	-200.000	0.083	0.404
-707.631	-200.000	0.020	0.274
-706.616	-180.506	-0.583	0.012
-705.602	-79.462	1.054	-0.362
-704.587	180.698	-0.539	-0.803
-703.572	-200.000	-0.061	-0.349
-702.558	-146.989	0.866	-0.075
-701.543	314.954	0.175	-0.336
-700.529	-200.000	0.004	0.067
-699.514	-200.000	-0.097	-0.544
-698.499	-150.561	0.550	-0.043
-697.485	-34.521	0.506	-0.282
-696.470	-200.000	-0.112	-0.577
-695.456	-83.337	-0.283	0.092
-694.441	-164.431	0.122	-0.006
-693.426	53.678	0.378	0.368
-692.412	743.185	0.100	0.272
-691.397	-200.000	-0.102	0.711
-690.383	-200.000	0.057	-0.351
-689.368	-200.000	0.030	-0.916
-688.354	-135.561	0.214	-0.026
-687.339	-104.824	-0.496	-0.116
-686.324	-119.118	0.339	0.060
-685.310	-200.000	-0.074	-0.675
-684.295	800.000	0.128	-0.422
-683.281	-140.024	0.684	0.073
-682.266	26.202	0.266	-0.225
-681.251	2.270	0.500	-0.367
-680.237	-176.086	-0.091	-0.002
-679.222	-83.008	-0.652	0.213
-678.208	-45.360	0.624	-0.314
-677.193	-20.047	0.834	-0.522
-676.178	-53.905	0.121	-0.056
-675.164	260.401	0.190	0.333
-674.149	-200.000	-0.005	-0.068
-673.135	61.260	0.374	-0.376
-672.120	-69.632	0.777	0.302
-671.105	-161.621	-0.362	0.019
-670.091	452.522	-0.163	0.366
-669.076	219.226	-0.265	-0.430
-668.062	49.643	0.373	-0.357
-667.047	134.493	-0.303	0.399
-666.032	-200.000	0.027	0.132
-665.018	-69.250	0.877	-0.342
-664.003	800.000	-0.138	-0.464
-662.989	275.385	-0.122	-0.219
-661.974	493.010	-0.342	-0.796
-660.959	-32.743	-1.008	-0.569
-659.945	800.000	-0.278	-0.840
-658.930	-154.044	-0.473	0.033
-657.916	343.247	0.066	0.130
-656.901	-152.549	0.568	0.041
-655.886	294.763	-0.314	0.582
-654.872	161.753	0.521	0.739
-653.857	-20.283	-0.857	-0.535
-652.843	-6.797	-0.852	0.587
-651.828	-200.000	-0.022	-0.375
-650.814	53.939	0.444	0.433
-649.799	-200.000	-0.008	-0.173
-648.784	-25.679	-0.252	0.151
-647.770	0.632	0.411	-0.298
-646.755	-83.384	0.106	0.034
-645.741	119.956	0.201	-0.252
-644.726	-200.000	-0.066	1.210
-643.711	50.476	0.578	0.554
-642.697	136.201	-0.331	-0.437
-641.682	-200.000	0.003	-0.259
-640.668	-147.401	0.393	0.034
-639.653	800.000	0.142	-0.570
-638.638	-110.229	-0.266	-0.056
-637.624	301.869	-0.078	0.146
-636.609	15.888	-0.269	-0.214
-635.595	22.425	0.358	-0.296
-634.580	800.000	-0.047	-0.201
-633.565	656.166	0.195	-0.508
-632.551	-1.549	0.364	-0.260
-631.536	-132.430	-0.115	-0.015
-630.522	-58.251	-0.297	-0.131
-629.507	17.342	-0.407	-0.327
-628.492	81.282	0.817	-0.893
-627.478	-159.383	-0.631	-0.036
-626.463	150.777	-0.271	0.373
-625.449	524.649	0.088	-0.209
-624.434	-67.259	0.125	0.050
-623.419	31.445	-0.529	-0.460
-622.405	188.729	0.385	-0.583
-621.390	156.838	-0.500	0.700
-620.376	-200.000	-0.597	-0.002
-619.361	-200.000	0.081	0.724
-618.346	143.143	-0.230	-0.310
-617.332	-140.749	-0.125	-0.013
-616.317	800.000	0.164	-0.570
-615.303	-113.209	0.145	-0.029
-614.288	800.000	-0.084	0.328
-613.273	171.611	0.328	-0.476
-612.259	-117.247	0.974	-0.179
-611.244	-135.578	0.977	0.117
-610.230	412.485	0.199	0.427
-609.215	-52.231	0.367	-0.172
-608.201	-77.535	0.586	-0.205
-607.186	-160.661	0.314	0.017
-606.171	-185.934	-1.240	-0.019
-605.157	-100.926	-0.910	0.226
-604.142	-93.569	-0.383	-0.107
-603.128	43.077	0.452	0.417
-602.113	-51.003	0.379	0.180
-601.098	-171.382	0.474	0.016
-600.084	258.016	0.444	0.773
-599.069	-108.421	-0.582	0.127
-598.055	316.329	-0.099	0.188
-597.040	-200.000	-0.104	-0.483
-596.025	76.042	-0.344	-0.367
-595.011	110.485	0.508	-0.617
-593.996	800.000	0.125	-0.483
-592.982	-53.281	0.361	-0.168
-591.967	-200.000	0.130	0.852
-590.952	37.494	0.206	0.185
-589.938	152.182	-0.141	-0.195
-588.923	28.120	-0.097	0.083
-587.909	410.629	0.105	0.225
-586.894	319.809	0.491	0.943
-585.879	81.067	0.284	-0.310
-584.865	112.968	-0.314	0.384
-583.850	-119.311	-0.343	0.060
-582.836	56.551	0.831	0.817
-581.821	75.533	0.187	-0.200
-580.806	-114.886	-0.216	-0.041
-579.792	322.340	0.375	-0.722
-578.777	101.810	-0.540	0.637
-577.763	-89.625	0.527	-0.156
-576.748	11.968	-0.825	-0.641
-575.733	-200.000	0.062	-0.683
-574.719	-134.062	-0.471	-0.059
-573.704	-200.000	-0.112	0.604
-572.690	-115.122	-0.742	-0.142
-571.675	800.000	-0.161	-0.685
-570.661	89.143	-0.419	0.471
-569.646	631.627	0.045	0.115
-568.631	-53.260	0.202	-0.093
-567.617	-82.661	-0.353	-0.115
-566.602	800.000	-0.133	0.489
-565.588	543.561	0.097	0.234
-564.573	-109.153	-0.546	-0.117
-563.558	-69.549	0.162	-0.063
-562.544	113.392	-0.337	0.413
-561.529	255.797	-0.175	-0.304
-560.515	-121.581	0.448	-0.075
-559.500	166.110	-0.399	0.570
-558.485	0.741	-0.620	0.448
-557.471	800.000	0.212	0.778
-556.456	16.756	-0.218	0.174
-555.442	60.521	-0.257	0.257
-554.427	-159.240	0.908	0.052
-553.412	-200.000	-0.014	-0.636
-552.398	-1.229	0.361	0.258
-551.383	800.000	0.223	-0.649
-550.369	-66.571	-0.656	-0.262
-549.354	528.855	0.138	-0.328
-548.339	-115.754	0.341	-0.065
-547.325	800.000	-0.396	-1.245
-546.310	-157.194	-0.243	-0.015
-545.296	64.800	-0.415	0.423
-544.281	-28.371	0.581	0.338
-543.266	-200.000	-0.024	-0.279
-542.252	-170.680	0.195	0.007
-541.237	85.976	-0.388	0.431
-540.223	40.145	0.202	0.183
-539.208	331.049	-0.419	-0.814
-538.193	-62.608	0.146	-0.061
-537.179	-65.842	0.203	-0.082
-536.164	393.800	-0.274	-0.577
-535.150	-50.919	-0.240	-0.114
-534.135	26.046	-0.469	0.394
-533.121	40.218	-0.717	0.650
-532.106	661.302	-0.202	-0.524
-531.091	120.796	-0.511	-0.640
-530.077	800.000	-0.293	0.831
-529.062	-118.106	-0.482	-0.087
-528.048	-55.203	0.699	0.317
-527.033	-39.914	-0.288	0.152
-526.018	-3.907	0.693	0.485
-525.004	-90.721	0.133	0.039
-523.989	-200.000	-0.065	0.429
-522.975	800.000	0.403	-1.160
-521.960	-62.075	0.202	-0.085
-520.945	-200.000	0.019	0.624
-519.931	-164.375	-0.731	0.034
-518.916	235.051	0.142	0.237
-517.902	304.970	0.132	-0.247
-516.887	-200.000	0.048	0.549
-515.872	800.000	-0.080	0.299
-514.858	90.296	0.534	0.602
-513.843	800.000	-0.237	-0.752
-512.829	-57.519	0.431	0.191
-511.814	-158.966	-0.107	-0.006
-510.799	86.429	-0.346	0.384
-509.785	-87.636	-0.487	-0.148
-508.770	-160.532	-0.330	-0.018
-507.756	320.111	0.507	0.970
-506.741	-200.000	-0.196	1.202
-505.726	-63.094	-0.203	-0.084
-504.712	-200.000	0.038	-0.271
-503.697	10.935	-0.686	-0.528
-502.683	-200.000	-0.025	0.779
-501.668	384.946	0.339	0.704
-500.653	-200.000	-0.017	-1.182
-499.639	-69.882	0.339	0.130
-498.624	-23.981	-0.185	-0.112
-497.610	-113.738	0.305	-0.060
-496.595	177.977	0.489	-0.718
-495.581	335.509	-0.194	0.379
-494.566	374.821	-0.120	-0.246
-493.551	-35.833	0.217	0.118
-492.537	-35.063	0.499	0.274
-491.522	104.477	0.481	0.571
-490.508	-200.000	-0.121	0.558
-489.493	-85.079	0.419	0.132
-488.478	-158.565	1.117	-0.065
-487.464	-200.000	-0.117	-1.010
-486.449	-200.000	-0.047	0.317
-485.435	-171.679	1.177	-0.039
-484.420	686.464	0.323	0.850
-483.405	-200.000	0.020	0.913
-482.391	800.000	0.186	-0.620
-481.376	217.225	0.026	0.041
-480.362	80.245	0.407	-0.441
-479.347	-124.151	-0.501	0.079
-478.332	-121.191	-0.199	-0.033
-477.318	-7.106	0.630	-0.430
-476.303	320.389	-0.453	-0.865
-475.289	-200.000	0.087	-0.601
-474.274	-39.827	0.681	-0.358
-473.259	800.000	-0.353	-1.099
-472.245	-120.317	1.058	-0.181
-471.230	-200.000	-0.001	-0.419
-470.216	-3.130	0.563	-0.395
-469.201	800.000	-0.089	-0.285
-468.186	-53.608	0.285	-0.131
-467.172	-200.000	0.072	-0.789
-466.157	-119.575	0.271	-0.047
-465.143	-18.367	-0.510	0.320
-464.128	616.675	0.155	0.391
-463.113	-9.238	0.284	0.191
-462.099	-107.065	0.303	0.067
-461.084	-116.357	-0.386	-0.072
-460.070	621.915	-0.157	-0.398
-459.055	800.000	0.127	-0.464
-458.040	-3.453	-0.219	0.153
-457.026	203.271	0.610	-0.948
-456.011	579.666	-0.108	-0.267
-454.997	60.463	-0.355	-0.353
-453.982	-192.264	0.559	-0.005
-452.968	-28.086	-0.471	-0.274
-451.953	-57.393	-0.194	-0.086
-450.938	-48.178	0.990	-0.480
-449.924	-161.482	-0.462	-0.024
-448.909	800.000	-0.195	-0.807
-447.895	46.227	-0.551	-0.513
-446.880	8.863	0.280	-0.212
-445.865	6.411	-0.573	0.428
-444.851	298.108	-0.339	0.626
-443.836	88.380	0.355	-0.396
-442.822	159.091	0.168	0.235
-441.807	800.000	-0.180	0.577
-440.792	-88.677	-0.593	-0.177
-439.778	5.119	-0.421	-0.312
-438.763	420.462	-0.335	-0.721
-437.749	-200.000	0.032	-0.503
-436.734	81.624	-0.333	0.362
-435.719	800.000	-0.044	0.181
-434.705	282.678	-0.224	-0.404
-433.690	83.241	-0.259	-0.283
-432.676	-200.000	-0.121	0.669
-431.661	-83.023	-0.187	0.061
-430.646	-52.326	-0.551	-0.257
-429.632	85.252	-0.257	-0.283
-428.617	-160.576	-0.425	-0.023
-427.603	20.876	0.579	0.471
-426.588	-200.000	0.153	1.056
-425.573	-76.680	0.278	0.098
-424.559	37.606	0.425	0.378
-423.544	-200.000	-0.019	0.337
-422.530	117.935	0.110	0.137
-421.515	120.011	-0.576	0.718
-420.500	800.000	-0.399	1.239
-419.486	-89.776	0.193	0.057
-418.471	238.329	0.134	0.224
-417.457	-31.762	-0.860	0.484
-416.442	-200.000	0.053	0.233
-415.428	25.466	0.342	0.286
-414.413	-38.547	0.726	-0.385
-413.398	92.499	-0.088	-0.099
-412.384	-200.000	0.014	0.115
-411.369	-200.000	-0.080	0.712
-410.355	-50.441	-0.517	-0.245
-409.340	-29.889	0.520	0.297
-408.325	-34.641	0.610	0.335
-407.311	-109.240	0.667	-0.142
-406.296	-200.000	-0.013	0.080
-405.282	10.775	-0.343	-0.263
-404.267	784.207	0.282	0.774
-403.252	-109.853	0.569	0.120
-402.238	331.726	0.216	-0.418
-401.223	-200.000	-0.043	0.221
-400.209	-129.075	-0.582	-0.082
-399.194	-200.000	0.013	0.594
-398.179	-200.000	0.013	0.275
-397.165	800.000	-0.087	-0.308
-396.150	-200.000	0.036	0.328
-395.136	-51.067	-0.646	0.304
-394.121	38.131	-0.049	0.044
-393.106	-200.000	-0.053	0.429
-392.092	-198.271	0.267	-0.002
-391.077	-130.659	-0.783	-0.106
-390.063	275.201	-0.241	-0.429
-389.048	-200.000	0.084	-0.763
-388.033	-144.635	-0.468	0.043
-387.019	-200.000	-0.038	0.905
-386.004	768.313	-0.218	-0.596
-384.990	-125.850	-0.149	-0.023
-383.975	-106.779	-0.206	0.046
-382.960	-78.012	1.259	0.435
-381.946	521.092	0.463	-1.089
-380.931	121.625	0.218	-0.273
-379.917	48.105	-0.370	-0.347
-378.902	-200.000	-0.068	0.821
-377.888	-200.000	-0.036	-0.574
-376.873	8.293	0.143	0.107
-375.858	-67.198	0.654	-0.258
-374.844	-146.593	-0.548	0.048
-373.829	-60.153	-0.518	-0.222
-372.815	-13.347	-0.426	-0.277
-371.800	-119.734	-0.443	0.077
-370.785	-102.023	0.293	-0.071
-369.771	712.325	-0.210	-0.557
-368.756	152.925	0.372	0.510
-367.742	194.542	0.450	-0.684
-366.727	-87.463	0.310	0.094
-365.712	710.450	-0.219	0.581
-364.698	283.178	0.104	0.187
-363.683	-32.401	-0.202	-0.113
-362.669	89.157	-0.532	0.594
-361.654	800.000	-0.041	-0.152
-360.639	800.000	0.179	0.608
-359.625	-122.414	-0.388	-0.063
-358.610	-54.435	0.092	-0.042
-357.596	-200.000	0.019	-0.731
-356.581	604.731	0.360	0.897
-355.566	371.887	0.098	0.199
-354.552	107.629	-0.663	-0.790
-353.537	800.000	-0.041	-0.137
-352.523	-200.000	-0.054	0.822
-351.508	-200.000	-0.101	-0.705
-350.493	274.291	0.192	-0.340
-349.479	-200.000	0.029	-0.240
-348.464	113.984	-0.368	-0.448
-347.450	800.000	-0.406	1.232
-346.435	-200.000	-0.051	-0.365
-345.420	-32.170	-0.603	0.337
-344.406	-23.569	-1.116	-0.670
-343.391	392.109	0.094	-0.196
-342.377	-82.710	1.102	-0.357
-341.362	745.700	-0.292	-0.787
-340.348	463.380	-0.320	-0.715
-339.333	-200.000	-0.001	-0.477
-338.318	-143.845	-0.682	0.064
-337.304	-200.000	-0.091	0.625
-336.289	800.000	0.194	0.661
-335.275	398.993	-0.450	-0.942
-334.260	9.138	0.734	-0.555
-333.245	-200.000	-0.104	-0.471
-332.231	-200.000	0.020	0.719
-331.216	800.000	0.223	-0.818
-330.202	-33.941	0.468	-0.258
-329.187	41.608	0.257	0.233
-328.172	-55.331	-0.725	0.326
-327.158	201.498	0.315	0.486
-326.143	-200.000	0.080	-0.593
-325.129	144.809	-0.098	0.131
-324.114	73.828	0.027	0.028
-323.099	9.444	0.262	-0.198
-322.085	-200.000	-0.017	0.800
-321.070	27.934	-0.213	-0.180
-320.056	164.966	0.083	0.117
-319.041	753.307	-0.080	0.217
-318.026	-15.133	0.374	0.239
-317.012	-200.000	0.039	0.339
-315.997	187.530	0.196	0.292
-314.983	-102.186	0.940	-0.226
-313.968	163.388	-0.140	-0.196
-312.953	112.832	0.305	0.370
-311.939	545.561	0.406	0.970
-310.924	-200.000	0.096	0.450
-309.910	-200.000	0.113	-0.716
-308.895	-6.025	0.155	0.106
-307.880	199.526	0.057	-0.087
-306.866	-38.726	0.377	0.199
-305.851	-133.617	0.832	0.104
-304.837	167.250	-0.141	-0.200
-303.822	-51.031	-0.145	-0.068
-302.807	376.665	0.110	0.225
-301.793	211.195	0.445	-0.700
-300.778	78.743	-0.353	0.377
-299.764	99.645	0.122	0.142
-298.749	-148.622	-0.623	-0.051
-297.735	-191.252	-0.174	-0.002
-296.720	-200.000	-0.050	0.338
-295.705	-3.536	0.421	-0.293
-294.691	-130.562	-0.083	0.011
-293.676	-119.981	-0.150	-0.026
-292.662	-200.000	0.096	0.432
-291.647	120.276	0.172	-0.213
-290.632	-24.317	-0.116	0.069
-289.618	38.248	-0.381	0.339
-288.603	684.770	0.076	0.198
-287.589	415.835	0.193	0.411
-286.574	-200.000	-0.140	1.225
-285.559	-200.000	-0.106	0.588
-284.545	61.472	-0.153	0.152
-283.530	-200.000	-0.028	-0.633
-282.516	-125.938	-0.414	0.062
-281.501	-127.486	-0.722	-0.105
-280.486	-91.671	-0.257	0.073
-279.472	-43.989	-0.471	-0.237
-278.457	-85.931	-0.725	0.224
-277.443	-200.000	-0.003	0.601
-276.428	-145.680	-0.424	0.038
-275.413	635.301	0.138	0.349
-274.399	500.265	-0.313	-0.720
-273.384	347.377	0.263	-0.517
-272.370	800.000	-0.155	-0.622
-271.355	-0.343	0.242	-0.172
-270.340	35.699	-0.230	-0.202
-269.326	800.000	0.181	-0.672
-268.311	54.134	-0.387	-0.372
-267.297	-200.000	0.558	-0.001
-266.282	-200.000	-0.071	-0.466
-265.267	-200.000	0.061	0.507
-264.253	-101.847	-0.464	-0.112
-263.238	-76.512	-0.668	-0.234
-262.224	-200.000	-0.030	-0.438
-261.209	-200.000	-0.109	1.138
-260.195	22.933	-0.263	-0.215
-259.180	192.317	0.209	0.314
-258.165	-200.000	-0.001	-0.160
-257.151	-200.000	0.936	-0.001
-256.136	-25.013	0.318	-0.188
-255.122	-200.000	0.168	0.774
-254.107	19.652	-0.159	-0.128
-253.092	-33.253	-0.069	-0.038
-252.078	-200.000	0.153	0.898
-251.063	-36.489	-0.429	0.231
-250.049	-75.358	0.631	0.224
-249.034	185.579	-0.045	0.067
-248.019	-90.062	0.461	0.134
-247.005	-200.000	-0.047	-0.234
-245.990	45.147	0.089	-0.082
-244.976	-200.000	-0.048	-0.385
-243.961	-200.000	0.012	0.663
-242.946	-32.854	-0.522	0.289
-241.932	8.270	0.646	0.484
-240.917	526.703	-0.469	-1.101
-239.903	-96.257	0.693	0.183
-238.888	-200.000	0.107	0.512
-237.873	299.554	-0.342	-0.628
-236.859	-33.911	0.721	-0.396
-235.844	-52.206	-0.273	-0.126
-234.830	-200.000	-0.049	0.338
-233.815	195.993	-0.271	0.411
-232.800	-200.000	-0.023	-0.739
-231.786	-6.473	-0.342	-0.233
-230.771	56.315	0.546	-0.528
-229.757	800.000	0.216	0.626
-228.742	189.127	-0.464	-0.693
-227.727	800.000	-0.080	-0.267
-226.713	-139.144	0.556	0.060
-225.698	-200.000	-0.008	0.117
-224.684	-176.840	0.326	-0.008
-223.669	-169.778	-0.443	0.016
-222.655	-50.654	0.235	0.110
-221.640	187.640	0.333	-0.496
-220.625	272.850	-0.442	-0.777
-219.611	2.759	0.219	-0.158
-218.596	119.170	0.106	-0.131
-217.582	-141.026	-0.297	0.030
-216.567	559.932	-0.342	0.823
-215.552	800.000	-0.076	-0.296
-214.538	-60.546	0.077	-0.032
-213.523	-118.760	0.147	0.026
-212.509	800.000	-0.165	0.536
-211.494	-84.870	-0.541	0.169
-210.479	-7.389	-0.278	0.188
-209.465	381.509	-0.339	0.693
-208.450	-200.000	-0.021	-0.534
-207.436	800.000	0.163	0.602
-206.421	-107.100	0.337	-0.074
-205.406	75.779	-0.112	0.118
-204.392	49.879	0.192	0.180
-203.377	-149.492	0.543	-0.043
-202.363	233.887	-0.138	-0.227
-201.348	800.000	0.351	-0.993
-200.333	223.963	-0.042	-0.068
-199.319	800.000	-0.303	1.138
-198.304	-88.064	0.296	-0.089
-197.290	3.027	0.810	-0.586
-196.275	800.000	-0.183	0.757
-195.260	148.803	0.380	-0.511
-194.246	-192.222	0.916	0.009
-193.231	384.741	0.257	-0.527
-192.217	338.476	-0.264	0.511
-191.202	-53.258	0.650	0.297
-190.187	302.770	0.457	-0.841
-189.173	-152.150	-0.784	-0.057
-188.158	-15.368	-0.681	0.433
-187.144	84.104	-0.312	-0.339
-186.129	-200.000	0.000	-0.387
-185.114	-57.785	1.195	0.520
-184.100	33.739	-0.280	-0.242
-183.085	800.000	-0.007	-0.027
-182.071	-19.265	0.393	-0.242
-181.056	-127.962	-0.792	-0.113
-180.042	-121.898	-0.911	0.149
-179.027	188.280	0.620	0.922
-178.012	343.220	-0.223	0.434
-176.998	-18.357	0.803	-0.499
-175.983	107.911	-0.676	-0.801
-174.969	-186.565	0.763	-0.011
-173.954	800.000	-0.218	0.824
-172.939	-86.873	-0.394	-0.119
-171.925	-7.366	-0.524	0.353
-170.910	-70.398	0.616	0.232
-169.896	35.587	-0.469	0.410
-168.881	-200.000	0.052	0.379
-167.866	219.428	-0.216	0.344
-166.852	44.511	0.193	-0.176
-165.837	-151.038	-0.235	0.018
-164.823	-22.663	0.638	0.384
-163.808	-32.100	0.075	0.042
-162.793	192.508	0.415	-0.623
-161.779	333.755	-0.122	0.234
-160.764	-2.824	0.095	-0.066
-159.750	411.764	-0.279	-0.588
-158.735	10.503	-0.259	0.196
-157.720	-29.654	-0.222	0.126
-156.706	-200.000	-0.161	1.196
-155.691	-42.329	0.369	-0.187
-154.677	-24.481	-0.481	-0.285
-153.662	308.582	-0.530	-0.983
-152.647	-7.456	-0.203	0.137
-151.633	160.043	0.204	-0.283
-150.618	257.253	-0.347	-0.592
-149.604	70.429	0.697	0.716
-148.589	-200.000	0.095	0.508
-147.574	-37.692	0.894	-0.473
-146.560	28.494	-0.572	-0.480
-145.545	800.000	0.032	-0.116
-144.531	117.061	-0.069	-0.084
-143.516	11.113	-0.184	-0.140
-142.502	-200.000	-0.030	-0.306
-141.487	800.000	0.215	0.757
-140.472	600.735	0.085	0.208
-139.458	139.867	0.429	-0.561
-138.443	-20.771	0.376	-0.229
-137.429	610.721	0.210	0.520
-136.414	172.835	0.311	0.445
-135.399	-24.635	-0.367	0.217
-134.385	281.159	0.087	-0.155
-133.370	800.000	0.139	-0.572
-132.356	-173.232	0.551	0.017
-131.341	140.259	-0.444	0.582
-130.326	-137.518	0.546	-0.061
-129.312	399.692	-0.284	0.590
-128.297	44.612	0.324	-0.296
-127.283	800.000	-0.144	0.552
-126.268	74.333	0.511	0.533
-125.253	-100.984	0.372	-0.091
-124.239	-136.147	-1.082	-0.126
-123.224	582.537	-0.085	0.208
-122.210	-40.903	0.574	0.295
-121.195	8.015	0.489	-0.364
-120.180	-78.410	-0.356	-0.121
-119.166	-11.214	0.479	0.313
-118.151	0.714	-0.253	0.180
-117.137	9.434	0.403	0.303
-116.122	233.400	-0.506	0.825
-115.107	800.000	-0.210	0.674
-114.093	-181.922	-0.672	-0.013
-113.078	-200.000	0.004	-0.370
-112.064	210.226	0.081	-0.126
-111.049	37.319	-0.304	0.268
-110.034	97.131	-0.636	0.723
-109.020	74.176	-0.360	0.375
-108.005	-2.360	0.511	-0.355
-106.991	-31.069	-0.305	-0.171
-105.976	20.064	-0.564	0.451
-104.962	800.000	0.338	0.936
-103.947	-200.000	0.205	0.899
-102.932	82.480	-0.378	0.407
-101.918	69.445	-0.403	-0.411
-100.903	-144.805	0.396	-0.036
-99.889	117.595	0.352	0.430
-98.874	189.194	-0.141	0.210
-97.859	-39.600	0.499	-0.259
-96.845	800.000	-0.120	0.466
-95.830	50.524	0.409	-0.384
-94.816	-200.000	0.032	-0.285
-93.801	-200.000	0.034	-0.175
-92.786	36.629	-0.450	0.394
-91.772	-84.766	0.123	0.038
-90.757	800.000	0.163	-0.539
-89.743	-64.071	0.508	-0.205
-88.728	-125.876	0.555	-0.083
-87.713	-81.466	0.530	0.173
-86.699	-71.512	-0.509	-0.189
-85.684	139.430	0.486	0.634
-84.670	146.226	-0.301	-0.401
-83.655	118.903	0.465	-0.570
-82.640	-125.857	-0.941	-0.141
-81.626	-80.108	0.114	0.038
-80.611	-41.402	-0.280	0.143
-79.597	800.000	0.255	-0.847
-78.582	55.566	-0.142	-0.136
-77.567	119.749	0.291	0.358
-76.553	-5.499	-0.299	-0.204
-75.538	-101.814	1.038	-0.249
-74.524	-67.479	-0.474	0.184
-73.509	800.000	0.222	-0.921
-72.494	-139.527	-0.274	0.029
-71.480	224.615	-0.315	-0.504
-70.465	-200.000	0.086	-0.799
-69.451	-200.000	-0.119	0.686
-68.436	-75.187	0.610	-0.216
-67.422	153.942	-0.363	-0.493
-66.407	37.343	0.270	-0.237
-65.392	49.159	-0.454	-0.423
-64.378	9.410	0.623	0.467
-63.363	-73.272	0.580	0.210
-62.349	-49.469	-0.335	-0.158
-61.334	125.272	-1.201	-1.499
-60.319	-200.000	0.049	0.431
-59.305	-200.000	-0.102	-0.774
-58.290	800.000	0.411	1.161
-57.276	308.283	0.661	1.222
-56.261	-200.000	96.156	583.649
-55.246	649.852	1362.541	3452.246
-54.232	198.717	2533.246	3838.727
-53.217	108.066	2281.024	2691.658
-52.203	39.306	2046.200	1813.078
-51.188	34.453	1962.757	1696.045
-50.173	32.900	1945.076	1666.998
-49.159	48.640	1996.502	1852.223
-48.144	49.371	2012.726	1873.737
-47.130	35.018	1975.804	1712.105
-46.115	32.758	1965.932	1683.340
-45.100	32.788	1961.837	1680.033
-44.086	32.587	1960.108	1676.697
-43.071	32.526	1957.302	1673.689
-42.057	32.401	1955.571	1671.030
-41.042	32.512	1953.275	1669.988
-40.027	32.645	1951.523	1669.600
-39.013	32.745	1948.730	1668.030
-37.998	32.759	1947.037	1666.639
-36.984	32.595	1946.463	1664.626
-35.969	32.756	1942.927	1662.961
-34.954	32.728	1942.938	1662.660
-33.940	32.717	1940.572	1660.465
-32.925	33.032	1938.244	1661.181
-31.911	32.721	1938.516	1658.614
-30.896	32.895	1935.186	1657.222
-29.881	32.670	1935.039	1655.062
-28.867	32.835	1933.444	1655.078
-27.852	33.016	1930.151	1653.780
-26.838	33.022	1929.123	1652.885
-25.823	33.071	1925.816	1650.410
-24.809	33.011	1925.069	1649.183
-23.794	32.795	1924.044	1646.354
-22.779	32.857	1922.469	1645.480
-21.765	32.650	1921.286	1642.599
-20.750	32.686	1919.072	1640.953
-19.736	32.964	1916.248	1640.891
-18.721	32.867	1917.254	1640.842
-17.706	32.757	1914.657	1637.603
-16.692	32.880	1911.936	1636.275
-15.677	32.703	1911.204	1634.053
-14.663	32.812	1909.055	1633.095
-13.648	32.823	1907.874	1632.108
-12.633	32.898	1907.201	1632.117
-11.619	32.898	1905.123	1630.277
-10.604	32.802	1903.328	1627.844
-9.590	32.717	1902.625	1626.452
-8.575	32.861	1901.324	1626.517
-7.560	32.830	1900.435	1625.423
-6.546	32.654	1899.570	1623.097
-5.531	32.831	1897.554	1622.837
-4.517	32.740	1896.674	1621.240
-3.502	32.765	1895.641	1620.503
-2.487	32.863	1894.693	1620.467
-1.473	32.940	1893.159	1619.758
-0.458	32.922	1887.978	1615.105
0.556	33.544	1868.988	1585.293
1.571	29.269	1849.841	1533.436
2.586	25.316	1870.658	1517.224
3.600	24.210	1905.049	1535.451
4.615	23.631	1900.783	1526.897
5.629	17.989	1801.053	1400.537
6.644	8.341	1680.878	1232.806
7.659	3.252	1644.101	1167.223
8.673	3.046	1640.245	1162.821
9.688	2.937	1640.437	1162.027
10.702	3.090	1638.315	1161.578
11.717	2.848	1635.151	1157.412
12.731	3.274	1634.413	1159.993
13.746	9.910	1650.721	1221.817
14.761	19.850	1670.149	1311.829
15.775	24.438	1677.781	1352.571
16.790	25.069	1679.190	1358.372
17.804	24.854	1678.032	1355.687
18.819	24.897	1676.614	1354.744
19.834	24.857	1677.650	1355.161
20.848	24.955	1676.212	1354.616
21.863	24.916	1674.906	1353.152
22.877	24.939	1674.966	1353.249
23.892	25.203	1673.840	1354.218
24.907	25.305	1671.631	1353.075
25.921	25.188	1671.273	1351.787
26.936	25.112	1670.679	1350.615
27.950	25.236	1670.689	1351.436
28.965	25.427	1668.130	1350.681
29.980	25.238	1667.471	1348.608
30.994	25.244	1666.253	1347.548
32.009	25.215	1666.958	1347.785
33.023	25.373	1665.038	1347.295
34.038	25.317	1664.222	1346.099
35.053	25.160	1664.113	1344.715
36.067	25.348	1661.637	1344.003
37.082	25.387	1660.934	1343.604
38.096	25.520	1659.785	1343.547
39.111	25.214	1660.135	1341.424
40.126	25.370	1658.878	1341.460
41.140	25.356	1657.651	1340.245
42.155	25.347	1656.384	1339.034
43.169	24.980	1655.506	1335.466
44.184	25.137	1653.623	1335.001
45.199	25.356	1652.251	1335.404
46.213	25.117	1652.279	1333.533
47.228	25.023	1651.639	1332.198
48.242	25.150	1650.013	1331.714
49.257	25.197	1649.567	1331.583
50.271	25.227	1648.383	1330.734
51.286	25.397	1646.693	1330.506
52.301	25.299	1645.193	1328.454
53.315	25.327	1643.107	1326.861
54.330	25.233	1643.636	1326.469
55.344	25.165	1641.673	1324.269
56.359	25.285	1640.718	1324.266
57.374	25.185	1638.678	1321.763
58.388	25.387	1638.936	1323.348
59.403	25.287	1637.882	1321.644
60.417	25.306	1636.096	1320.224
61.432	25.236	1634.614	1318.392
62.447	25.063	1634.561	1316.965
63.461	25.213	1634.713	1318.071
64.476	25.298	1632.438	1316.745
65.490	25.020	1631.498	1313.837
66.505	25.156	1630.273	1313.726
67.520	24.960	1630.020	1311.971
68.534	25.002	1628.382	1310.842
69.549	25.221	1627.133	1311.320
70.563	25.072	1625.805	1309.052
71.578	25.160	1624.598	1308.604
72.593	25.011	1624.262	1307.132
73.607	25.251	1622.975	1307.724
74.622	24.914	1622.903	1305.101
75.636	25.008	1621.456	1304.505
76.651	25.202	1621.016	1305.447
77.666	25.202	1620.218	1304.684
78.680	24.967	1619.109	1301.968
79.695	25.160	1618.370	1302.666
80.709	25.212	1617.095	1301.899
81.724	25.160	1616.570	1300.987
82.739	25.160	1615.922	1300.349
83.753	25.337	1615.636	1301.284
84.768	25.164	1614.978	1299.390
85.782	24.988	1614.459	1297.583
86.797	25.567	1612.723	1300.255
87.812	25.442	1612.019	1298.668
88.826	25.461	1610.386	1297.380
89.841	25.303	1609.062	1295.059
90.855	25.314	1608.759	1294.775
91.870	25.521	1607.177	1294.883
92.884	25.321	1606.655	1292.904
93.899	25.487	1605.961	1293.430
94.914	25.347	1605.613	1292.027
95.928	25.624	1603.380	1292.105
96.943	25.249	1603.998	1289.792
97.957	25.520	1600.874	1289.114
98.972	25.430	1599.834	1287.515
99.987	25.208	1599.836	1285.812
101.001	25.324	1597.385	1284.558
102.016	25.391	1596.484	1284.200
103.030	25.395	1594.815	1282.768
104.045	25.377	1593.082	1281.133
105.060	25.432	1592.439	1280.897
106.074	25.427	1590.181	1278.932
107.089	25.237	1589.368	1276.812
108.103	25.259	1588.390	1276.071
109.118	25.190	1587.063	1274.400
110.133	25.149	1585.684	1272.887
111.147	25.136	1583.983	1271.319
112.162	25.401	1583.339	1272.566
113.176	25.039	1583.257	1269.822
114.191	25.403	1581.341	1270.750
115.206	25.383	1579.806	1269.266
116.220	25.154	1579.252	1267.092
117.235	25.276	1578.182	1266.977
118.249	25.324	1576.813	1266.104
119.264	25.004	1575.530	1262.707
120.279	24.741	1574.656	1260.045
121.293	25.041	1572.954	1260.685
122.308	25.280	1571.850	1261.366
123.322	25.259	1571.049	1260.462
124.337	25.063	1569.878	1258.038
125.352	25.046	1568.857	1256.992
126.366	24.987	1568.239	1255.967
127.381	25.211	1566.591	1256.105
128.395	25.122	1566.002	1254.902
129.410	25.039	1565.546	1253.842
130.424	25.074	1563.689	1252.489
131.439	25.140	1561.868	1251.377
132.454	24.949	1560.645	1248.958
133.468	24.796	1560.495	1247.662
134.483	25.163	1559.483	1249.299
135.497	25.507	1557.005	1249.593
136.512	25.163	1557.427	1247.430
137.527	25.435	1555.774	1247.887
138.541	25.232	1554.836	1245.616
139.556	25.346	1553.032	1244.849
140.570	25.308	1552.149	1243.767
141.585	25.362	1550.677	1242.852
142.600	25.395	1549.282	1241.851
143.614	25.298	1549.459	1241.214
144.629	25.492	1547.705	1241.034
145.643	25.640	1546.192	1240.735
146.658	25.463	1545.258	1238.653
147.673	25.303	1544.243	1236.632
148.687	25.358	1543.320	1236.161
149.702	25.334	1542.854	1235.516
150.716	25.600	1540.307	1235.191
151.731	25.061	1540.046	1231.172
152.746	25.029	1537.046	1228.442
153.760	24.819	1536.942	1226.810
154.775	25.114	1535.234	1227.362
155.789	25.383	1535.234	1229.093
156.804	25.523	1534.603	1229.433
157.819	25.443	1532.820	1227.350
158.833	25.165	1531.558	1224.339
159.848	25.112	1530.517	1223.033
160.862	25.458	1530.011	1224.880
161.877	25.346	1529.701	1223.757
162.892	25.482	1527.298	1222.658
163.906	25.557	1526.795	1222.655
164.921	25.269	1525.795	1219.791
165.935	25.275	1524.815	1218.941
166.950	25.028	1524.434	1216.849
167.964	25.323	1522.854	1217.481
168.979	25.512	1521.086	1217.240
169.994	25.232	1521.858	1215.848
171.008	25.356	1520.496	1215.496
172.023	25.256	1519.352	1213.795
173.037	25.401	1517.291	1213.022
174.052	25.337	1516.192	1211.602
175.067	25.566	1515.800	1212.732
176.081	25.419	1515.526	1211.408
177.096	25.297	1514.474	1209.642
178.110	25.150	1513.044	1207.401
179.125	25.318	1510.368	1206.289
180.140	25.554	1510.036	1207.500
181.154	25.217	1510.037	1205.135
182.169	25.203	1510.447	1205.259
183.183	25.523	1507.245	1204.745
184.198	25.335	1506.565	1202.833
185.213	25.389	1505.414	1202.166
186.227	25.479	1505.274	1202.553
187.242	25.641	1504.129	1202.614
188.256	25.336	1504.121	1200.463
189.271	25.707	1502.527	1201.562
190.286	25.687	1500.875	1200.004
191.300	25.457	1501.567	1198.913
192.315	25.353	1499.041	1196.097
193.329	25.261	1497.888	1194.461
194.344	25.413	1498.707	1196.023
195.359	25.425	1497.309	1194.879
196.373	25.298	1496.506	1193.284
197.388	25.008	1495.458	1190.422
198.402	24.946	1493.567	1188.397
199.417	25.139	1491.891	1188.237
200.432	25.170	1492.256	1188.625
201.446	25.489	1492.186	1190.582
202.461	25.655	1490.593	1190.302
203.475	25.364	1489.200	1187.165
204.490	25.511	1489.835	1188.537
205.504	25.375	1487.179	1185.411
206.519	25.133	1485.896	1182.692
207.534	25.169	1485.809	1182.754
208.548	25.019	1484.080	1180.284
209.563	24.847	1484.062	1179.030
210.577	25.035	1483.015	1179.334
211.592	24.844	1482.902	1177.881
212.607	24.952	1481.226	1177.154
213.621	25.201	1481.657	1179.034
214.636	25.604	1479.962	1180.228
215.650	25.269	1479.842	1177.828
216.665	25.139	1478.797	1176.036
217.680	25.321	1477.556	1176.141
218.694	25.434	1478.332	1177.395
219.709	25.477	1477.126	1176.610
220.723	25.674	1474.731	1175.885
221.738	25.171	1474.062	1171.963
222.753	25.394	1473.741	1173.062
223.767	25.192	1473.069	1171.105
224.782	24.960	1472.284	1168.860
225.796	25.189	1471.001	1169.233
226.811	25.485	1470.065	1170.310
227.826	25.593	1469.565	1170.511
228.840	25.430	1468.651	1168.618
229.855	25.352	1468.076	1167.550
230.869	25.451	1466.156	1166.565
231.884	25.339	1465.188	1164.967
232.899	25.263	1464.510	1163.833
233.913	25.249	1463.763	1163.043
234.928	24.996	1461.889	1159.814
235.942	25.177	1460.780	1160.003
236.957	24.989	1460.817	1158.713
237.972	25.165	1458.639	1158.018
238.986	24.770	1457.391	1154.378
240.001	24.963	1456.709	1154.979
241.015	24.930	1456.172	1154.238
242.030	25.030	1455.430	1154.192
243.045	25.160	1454.521	1154.208
244.059	25.224	1453.053	1153.349
245.074	25.209	1452.771	1152.927
246.088	25.246	1451.954	1152.417
247.103	25.378	1451.729	1152.983
248.117	25.352	1451.331	1152.399
249.132	25.354	1450.041	1151.283
250.147	25.513	1448.784	1151.203
251.161	25.819	1448.206	1152.599
252.176	25.745	1449.340	1152.924
253.190	25.705	1448.025	1151.522
254.205	26.020	1446.834	1152.488
255.220	25.797	1446.535	1150.721
256.234	25.783	1445.980	1150.088
257.249	25.933	1445.634	1150.672
258.263	26.007	1444.561	1150.187
259.278	25.826	1443.023	1147.704
260.293	25.910	1441.563	1146.977
261.307	25.977	1441.078	1146.916
262.322	26.033	1440.842	1146.985
263.336	26.058	1439.964	1146.344
264.351	25.990	1437.948	1144.207
265.366	25.759	1438.686	1143.224
266.380	25.830	1437.997	1143.023
267.395	26.119	1435.783	1142.998
268.409	26.193	1435.237	1142.926
269.424	25.822	1434.684	1140.038
270.439	25.806	1433.192	1138.652
271.453	25.651	1432.544	1137.059
272.468	25.858	1431.506	1137.436
273.482	25.680	1431.033	1135.839
274.497	25.603	1429.700	1134.194
275.512	25.652	1428.179	1133.195
276.526	25.677	1428.166	1133.240
277.541	25.608	1427.431	1132.125
278.555	25.669	1425.849	1131.151
279.570	25.832	1425.110	1131.490
280.585	25.832	1424.536	1130.934
281.599	25.975	1424.295	1131.541
282.614	26.089	1423.159	1131.257
283.628	26.031	1422.996	1130.661
284.643	25.603	1421.898	1127.009
285.657	25.676	1420.523	1126.273
286.672	25.599	1419.868	1125.176
287.687	25.817	1418.638	1125.464
288.701	25.606	1417.718	1123.317
289.716	25.632	1417.113	1122.899
290.730	25.960	1416.069	1124.014
291.745	25.877	1415.132	1122.655
292.760	25.935	1414.721	1122.590
293.774	25.614	1414.152	1120.044
294.789	25.856	1412.828	1120.402
295.803	25.923	1413.115	1120.943
296.818	26.117	1411.819	1121.022
297.833	25.852	1411.218	1118.802
298.847	25.848	1409.934	1117.658
299.862	25.787	1408.847	1116.324
300.876	25.831	1407.922	1115.765
301.891	25.800	1406.805	1114.587
302.906	25.674	1406.143	1113.183
303.920	26.066	1405.690	1115.150
304.935	26.131	1405.311	1115.154
305.949	26.181	1405.066	1115.171
306.964	26.160	1403.674	1113.835
307.979	26.083	1402.013	1111.947
308.993	26.143	1401.050	1111.451
310.008	26.318	1399.939	1111.550
311.022	26.153	1399.988	1110.471
312.037	26.169	1399.521	1110.103
313.052	26.211	1398.505	1109.459
314.066	26.189	1396.832	1107.894
315.081	25.957	1396.585	1106.180
316.095	25.711	1394.190	1102.678
317.110	25.636	1393.263	1101.389
318.125	25.577	1393.574	1101.175
319.139	25.745	1391.557	1100.513
320.154	25.868	1390.554	1100.369
321.168	25.467	1390.716	1097.951
322.183	25.763	1390.046	1099.136
323.197	25.665	1387.595	1096.500
324.212	25.557	1387.939	1096.019
325.227	25.715	1387.141	1096.255
326.241	25.772	1386.200	1095.762
327.256	26.020	1385.548	1096.658
328.270	26.092	1384.379	1096.069
329.285	25.676	1382.804	1092.200
330.300	25.753	1382.514	1092.342
331.314	25.858	1382.297	1092.711
332.329	25.706	1381.775	1091.279
333.343	25.752	1381.399	1091.165
334.358	25.788	1380.400	1090.500
335.373	26.060	1378.853	1090.824
336.387	26.087	1378.122	1090.313
337.402	26.107	1377.901	1090.166
338.416	25.791	1377.813	1088.089
339.431	26.260	1376.538	1089.814
340.446	26.192	1376.480	1089.265
341.460	26.538	1375.113	1090.166
342.475	26.467	1374.456	1089.125
343.489	26.504	1373.639	1088.601
344.504	26.296	1372.846	1086.629
345.519	26.282	1371.721	1085.554
346.533	26.404	1371.232	1085.803
347.548	26.472	1370.135	1085.252
348.562	26.532	1369.166	1084.747
349.577	26.379	1368.730	1083.388
350.592	26.451	1367.349	1082.628
351.606	26.139	1366.614	1080.086
352.621	25.955	1365.033	1077.640
353.635	26.054	1364.578	1077.780
354.650	26.009	1363.369	1076.456
355.665	25.831	1361.716	1073.995
356.679	25.801	1361.605	1073.634
357.694	25.938	1360.345	1073.364
358.708	26.004	1359.122	1072.698
359.723	26.351	1358.104	1073.859
360.738	26.075	1358.059	1072.089
361.752	26.251	1356.543	1071.841
362.767	26.119	1354.972	1069.721
363.781	26.220	1354.417	1069.789
364.796	26.085	1354.255	1068.768
365.810	26.250	1353.057	1068.705
366.825	26.346	1352.302	1068.582
367.840	26.593	1351.592	1069.384
368.854	26.787	1351.231	1070.145
369.869	26.666	1350.062	1068.413
370.883	26.687	1350.605	1068.874
371.898	26.584	1349.152	1067.024
372.913	26.579	1348.290	1066.214
373.927	26.402	1347.709	1064.623
374.942	26.541	1346.692	1064.541
375.956	26.575	1346.378	1064.399
376.971	26.383	1345.430	1062.426
377.986	26.567	1344.093	1062.353
379.000	26.411	1343.413	1060.807
380.015	26.742	1342.313	1061.787
381.029	26.580	1342.119	1060.592
382.044	26.524	1342.268	1060.286
383.059	26.535	1342.321	1060.298
384.073	26.369	1341.247	1058.381
385.088	26.581	1340.192	1058.701
386.102	26.522	1340.122	1058.203
387.117	26.495	1338.203	1056.435
388.132	26.600	1337.473	1056.378
389.146	26.236	1337.324	1054.045
390.161	26.138	1336.246	1052.529
391.175	26.205	1336.329	1052.895
392.190	26.472	1333.630	1052.228
393.205	26.161	1333.797	1050.456
394.219	26.515	1333.510	1052.195
395.234	26.539	1333.121	1051.937
396.248	26.408	1331.844	1050.075
397.263	26.507	1328.706	1048.079
398.278	26.191	1327.850	1045.486
399.292	26.250	1326.711	1044.838
400.307	26.357	1325.267	1044.225
401.321	26.369	1325.601	1044.465
402.336	26.203	1324.743	1042.735
403.350	26.517	1322.650	1042.807
404.365	26.041	1321.994	1039.457
405.380	26.052	1321.547	1039.076
406.394	26.404	1320.804	1040.428
407.409	26.323	1321.003	1040.027
408.423	26.335	1319.344	1038.696
409.438	26.509	1319.364	1039.618
410.453	26.692	1317.537	1039.139
411.467	26.564	1317.404	1038.206
412.482	26.737	1317.074	1038.847
413.496	26.623	1316.577	1037.711
414.511	26.682	1315.551	1037.148
415.526	26.943	1315.292	1038.344
416.540	26.946	1313.420	1036.793
417.555	26.732	1313.961	1035.904
418.569	26.890	1312.441	1035.514
419.584	26.545	1312.633	1033.606
420.599	26.439	1312.045	1032.448
421.613	142.002	1436.591	1792.460
422.628	137.750	1454.681	1792.561
