DTS Sentinel unit serial number:	SN413079Multiplexer serial number:	ORYXHardware model number:	OX4-SRSoftware version number:	ORYX F/W v4.00 Oryx Data Collector v3.7.2.0data status	okinstallation	princeton_trtdifferential loss correction	single-endedforward channel	channel 4reverse channel	N/Adate	2019/09/16time	01:17:34forward acquisition time	60.00reverse acquisition time	0.00gamma	496.2192k internal	0.2323k external	0.2323temperature offset calibration	0.9970default loss term (dB/km)	0.3790temperature slope calibration	1.0000multiplexer offset coefficient	1.0000multiplexer slope coefficient	1.0000fibre end	0.00T internal ref (°C)	27.27T ext. ref 1 (°C)	9.84T ext. ref 2 (°C)	21.81length (m)	temperature (°C)	Stokes	anti-Stokes-747.200	-200.000	0.036	0.549
-746.185	-200.000	0.057	0.444
-745.171	-74.832	-0.143	0.052
-744.156	-45.930	-0.183	-0.091
-743.142	-200.000	-0.290	0.000
-742.127	-200.000	-0.007	0.216
-741.112	800.000	0.038	0.121
-740.098	800.000	-0.057	0.184
-739.083	-147.208	-0.137	0.012
-738.069	396.232	-0.082	0.172
-737.054	497.697	0.041	-0.096
-736.039	-69.164	-0.292	-0.113
-735.025	-48.436	-0.210	0.102
-734.010	6.215	0.064	-0.048
-732.996	437.172	0.058	-0.127
-731.981	3.566	-0.266	0.196
-730.966	22.722	-0.152	0.126
-729.952	-106.064	-0.135	-0.031
-728.937	275.251	0.145	-0.259
-727.923	157.878	-0.106	0.149
-726.908	36.393	-0.390	0.347
-725.894	-16.855	0.082	0.053
-724.879	-31.368	-0.251	-0.143
-723.864	-47.363	-0.333	-0.163
-722.850	-135.569	0.261	-0.031
-721.835	-115.669	-0.433	0.082
-720.821	743.123	-0.009	-0.024
-719.806	-33.324	0.268	0.150
-718.791	-200.000	-0.064	-0.340
-717.777	419.371	0.090	-0.194
-716.762	-52.093	0.308	-0.144
-715.748	-89.931	0.180	0.053
-714.733	352.144	-0.102	-0.203
-713.718	30.832	0.208	0.180
-712.704	357.826	0.154	-0.310
-711.689	-200.000	-0.015	-0.147
-710.675	23.497	-0.112	-0.093
-709.660	342.439	-0.282	-0.557
-708.645	-200.000	-0.002	0.346
-707.631	-200.000	0.000	0.270
-706.616	-67.103	-0.100	-0.040
-705.602	800.000	0.008	-0.026
-704.587	-108.510	0.297	-0.064
-703.572	800.000	0.033	-0.118
-702.558	800.000	-0.084	0.332
-701.543	-53.893	0.154	-0.071
-700.529	139.056	0.243	-0.322
-699.514	-59.363	-0.087	-0.038
-698.499	104.964	0.144	0.172
-697.485	-183.910	0.134	0.002
-696.470	510.953	0.148	0.347
-695.456	800.000	-0.082	-0.363
-694.441	169.774	0.214	0.309
-693.426	-66.611	0.247	0.099
-692.412	-87.730	-0.218	-0.066
-691.397	-200.000	0.001	-0.297
-690.383	157.733	-0.152	0.212
-689.368	-10.269	-0.097	-0.065
-688.354	369.280	0.029	0.060
-687.339	359.307	0.094	0.189
-686.324	73.654	-0.212	-0.224
-685.310	-43.271	-0.171	-0.087
-684.295	20.824	-0.058	0.047
-683.281	-52.308	-0.291	0.136
-682.266	42.761	0.239	0.219
-681.251	800.000	-0.058	0.177
-680.237	-105.168	-0.302	0.069
-679.222	-109.986	-0.195	-0.041
-678.208	-200.000	-0.030	-0.139
-677.193	-200.000	0.029	0.173
-676.178	6.104	-0.120	0.089
-675.164	177.377	-0.222	-0.326
-674.149	230.363	0.053	-0.088
-673.135	290.505	-0.078	-0.142
-672.120	239.360	0.026	0.044
-671.105	44.342	0.293	0.271
-670.091	-92.448	-0.256	-0.072
-669.076	53.651	0.098	0.095
-668.062	-200.000	-0.064	-0.288
-667.047	-103.249	-0.149	-0.035
-666.032	155.172	-0.049	0.068
-665.018	68.620	-0.105	-0.108
-664.003	167.748	-0.115	0.165
-662.989	-46.526	-0.202	0.100
-661.974	88.728	0.203	-0.228
-660.959	40.167	0.144	-0.130
-659.945	93.844	0.312	-0.356
-658.930	-88.426	-0.231	-0.069
-657.916	-96.611	-0.266	0.071
-656.901	466.622	-0.116	-0.261
-655.886	-172.123	0.103	0.003
-654.872	-78.546	-0.272	0.094
-653.857	800.000	-0.027	0.096
-652.843	-200.000	-0.011	-0.103
-651.828	-186.013	-0.214	-0.003
-650.814	47.372	-0.114	0.107
-649.799	-82.456	0.146	0.048
-648.784	-84.399	0.340	-0.108
-647.770	299.135	-0.127	-0.236
-646.755	23.910	0.111	0.092
-645.741	-57.616	0.070	0.031
-644.726	-35.059	-0.053	0.029
-643.711	215.866	0.169	-0.271
-642.697	-30.820	0.092	-0.053
-641.682	-164.144	-0.075	0.004
-640.668	-200.000	-0.009	0.310
-639.653	-35.041	-0.187	-0.103
-638.638	-200.000	-0.014	0.131
-637.624	-148.648	-0.044	-0.004
-636.609	-91.481	0.297	0.085
-635.595	25.834	0.222	0.186
-634.580	-152.004	0.220	-0.016
-633.565	-85.759	0.157	-0.049
-632.551	59.770	0.175	-0.174
-631.536	-94.197	0.307	-0.084
-630.522	83.831	0.119	0.130
-629.507	800.000	0.058	-0.197
-628.492	-200.000	-0.005	0.139
-627.478	-81.730	-0.265	-0.087
-626.463	-121.471	-0.296	0.049
-625.449	140.250	0.379	0.503
-624.434	-124.684	-0.311	-0.048
-623.419	-157.463	0.284	0.017
-622.405	504.156	0.107	-0.249
-621.390	190.320	-0.120	0.181
-620.376	800.000	-0.069	-0.244
-619.361	-134.901	-0.375	0.046
-618.346	-36.178	0.234	0.127
-617.332	-25.206	-0.230	-0.137
-616.317	-76.517	0.205	0.072
-615.303	-51.943	0.120	0.056
-614.288	453.921	-0.032	-0.071
-613.273	-200.000	-0.040	0.282
-612.259	-200.000	-0.028	-0.156
-611.244	800.000	-0.040	0.112
-610.230	-121.636	-0.211	-0.035
-609.215	-63.334	-0.191	0.079
-608.201	129.250	-0.301	0.386
-607.186	158.893	-0.098	-0.137
-606.171	-123.604	-0.103	0.016
-605.157	79.634	-0.065	0.070
-604.142	328.507	-0.275	-0.530
-603.128	-26.814	0.360	0.211
-602.113	-129.139	-0.139	0.019
-601.098	95.054	0.079	0.090
-600.084	-36.210	0.366	0.199
-599.069	-69.353	-0.129	-0.050
-598.055	30.547	0.303	-0.260
-597.040	-12.707	-0.189	0.124
-596.025	-108.816	0.334	-0.072
-595.011	-200.000	-0.008	-0.279
-593.996	800.000	0.045	0.150
-592.982	782.117	0.153	-0.420
-591.967	55.270	-0.096	-0.093
-590.952	800.000	-0.036	-0.137
-589.938	-56.011	-0.233	0.104
-588.923	424.213	-0.154	0.333
-587.909	-200.000	0.005	-0.092
-586.894	65.267	0.072	0.073
-585.879	9.323	-0.370	0.281
-584.865	-52.840	0.187	-0.086
-583.850	43.011	0.266	0.244
-582.836	-200.000	-0.029	0.144
-581.821	42.766	-0.241	-0.221
-580.806	169.190	-0.023	-0.033
-579.792	800.000	0.012	-0.050
-578.777	93.230	0.283	-0.321
-577.763	-81.602	0.383	-0.126
-576.748	-200.000	-0.029	-0.329
-575.733	800.000	-0.104	-0.352
-574.719	-54.377	-0.226	0.103
-573.704	-161.038	-0.402	-0.021
-572.690	-200.000	-0.053	0.248
-571.675	-104.363	-0.238	0.055
-570.661	800.000	-0.048	-0.170
-569.646	160.175	0.105	-0.146
-568.631	-200.000	-0.005	-0.031
-567.617	168.283	0.099	0.141
-566.602	-200.000	-0.017	0.088
-565.588	-137.177	-0.275	0.031
-564.573	-157.913	0.056	-0.003
-563.558	-200.000	-0.004	-0.064
-562.544	800.000	0.033	-0.097
-561.529	271.922	0.086	-0.153
-560.515	-56.267	0.168	0.075
-559.500	56.176	-0.259	0.252
-558.485	800.000	-0.078	-0.232
-557.471	-112.034	0.116	-0.024
-556.456	-61.684	-0.259	0.109
-555.442	219.244	-0.046	-0.075
-554.427	-35.199	-0.179	0.098
-553.412	230.206	-0.107	0.175
-552.398	-78.303	0.279	-0.096
-551.383	414.722	-0.061	0.130
-550.369	35.927	0.082	-0.072
-549.354	800.000	-0.065	0.183
-548.339	300.452	-0.092	0.170
-547.325	-200.000	0.055	0.381
-546.310	93.378	-0.105	-0.119
-545.296	-156.142	0.069	-0.004
-544.281	-97.295	0.320	-0.084
-543.266	800.000	-0.061	-0.222
-542.252	80.729	0.122	0.132
-541.237	437.136	-0.119	0.261
-540.223	-13.054	0.386	-0.252
-539.208	265.254	-0.050	0.087
-538.193	800.000	-0.090	-0.295
-537.179	15.845	0.117	-0.092
-536.164	-25.272	-0.032	0.019
-535.150	109.260	0.095	-0.114
-534.135	-72.088	-0.182	0.068
-533.121	800.000	0.020	0.059
-532.106	-200.000	-0.014	-0.170
-531.091	-174.773	-0.228	-0.006
-530.077	550.609	-0.103	-0.247
-529.062	328.886	0.079	-0.153
-528.048	205.267	0.285	-0.443
-527.033	285.485	-0.215	0.388
-526.018	293.420	-0.169	-0.309
-525.004	-15.575	0.101	-0.064
-523.989	46.660	-0.083	-0.077
-522.975	71.344	-0.240	-0.250
-521.960	-78.671	-0.093	0.032
-520.945	-200.000	-0.058	-0.290
-519.931	174.153	-0.069	-0.100
-518.916	91.548	0.065	0.073
-517.902	-74.700	-0.176	-0.063
-516.887	225.940	-0.084	0.136
-515.872	-51.758	-0.161	0.075
-514.858	-200.000	-0.075	-0.420
-513.843	162.440	-0.090	0.126
-512.829	170.643	0.049	0.070
-511.814	145.588	0.050	-0.067
-510.799	-115.530	0.070	0.013
-509.785	59.344	-0.187	0.185
-508.770	532.151	0.104	-0.246
-507.756	800.000	-0.032	-0.128
-506.741	-97.773	-0.192	-0.050
-505.726	218.454	0.072	-0.114
-504.712	-53.638	0.145	0.066
-503.697	111.520	0.144	0.174
-502.683	-200.000	0.001	-0.028
-501.668	-200.000	0.067	0.378
-500.653	-77.037	-0.268	-0.094
-499.639	-119.807	-0.179	0.031
-498.624	-200.000	-0.020	0.155
-497.610	-200.000	0.015	-0.304
-496.595	-72.624	0.458	0.169
-495.581	-83.548	0.168	0.054
-494.566	-8.995	-0.379	-0.254
-493.551	646.708	0.091	-0.233
-492.537	-200.000	0.007	-0.151
-491.522	254.914	-0.111	0.190
-490.508	-200.000	0.029	0.268
-489.493	53.787	0.086	-0.083
-488.478	-200.000	-0.002	0.077
-487.464	89.980	0.180	0.201
-486.449	14.353	-0.159	-0.124
-485.435	-17.070	0.072	-0.045
-484.420	-19.368	-0.212	0.132
-483.405	-13.172	0.135	0.088
-482.391	7.765	-0.140	0.105
-481.376	800.000	0.031	-0.132
-480.362	92.616	0.189	-0.213
-479.347	-61.952	0.130	0.054
-478.332	213.688	0.118	-0.186
-477.318	-152.151	-0.112	0.008
-476.303	207.637	-0.037	-0.057
-475.289	-8.606	-0.273	-0.183
-474.274	-56.126	0.260	-0.116
-473.259	-71.111	-0.107	-0.040
-472.245	192.975	0.124	-0.187
-471.230	9.806	0.094	-0.071
-470.216	-200.000	0.065	0.293
-469.201	20.351	0.185	-0.150
-468.186	-49.714	0.132	-0.062
-467.172	34.182	0.184	-0.160
-466.157	-29.220	-0.325	-0.186
-465.143	262.249	0.062	-0.108
-464.128	3.568	0.249	0.181
-463.113	164.736	0.038	-0.054
-462.099	800.000	0.064	-0.191
-461.084	-23.759	-0.361	0.216
-460.070	-107.342	-0.325	0.071
-459.055	222.183	-0.279	0.448
-458.040	-122.578	-0.196	0.032
-457.026	-148.778	0.338	0.027
-456.011	-200.000	-0.067	-0.305
-454.997	-39.568	-0.224	-0.117
-453.982	-200.000	0.251	-0.001
-452.968	-126.254	-0.232	-0.035
-451.953	191.116	0.068	0.102
-450.938	102.325	0.062	-0.073
-449.924	800.000	-0.053	0.219
-448.909	-143.351	0.044	0.004
-447.895	-77.023	-0.339	-0.118
-446.880	800.000	-0.062	-0.172
-445.865	66.018	0.095	-0.096
-444.851	341.503	-0.044	0.085
-443.836	800.000	0.128	0.376
-442.822	-46.799	-0.262	0.128
-441.807	-200.000	-0.070	-0.421
-440.792	-51.785	0.091	0.042
-439.778	-73.118	0.283	0.104
-438.763	27.954	-0.094	0.079
-437.749	-124.737	0.286	-0.044
-436.734	-4.750	-0.064	-0.044
-435.719	39.392	-0.236	0.211
-434.705	167.938	-0.090	-0.128
-433.690	-200.000	0.017	-0.138
-432.676	-200.000	-0.017	-0.148
-431.661	369.277	-0.097	0.195
-430.646	800.000	0.053	0.162
-429.632	-79.601	-0.266	0.090
-428.617	-12.538	-0.400	-0.260
-427.603	-200.000	-0.039	-0.227
-426.588	59.078	0.224	-0.220
-425.573	800.000	-0.055	-0.152
-424.559	800.000	0.053	0.179
-423.544	217.124	-0.105	-0.167
-422.530	-200.000	-0.001	-0.173
-421.515	-200.000	-0.018	0.331
-420.500	-164.037	-0.101	0.005
-419.486	-200.000	-0.000	-0.091
-418.471	-119.439	0.282	-0.049
-417.457	-186.261	0.312	0.005
-416.442	-200.000	0.005	0.242
-415.428	37.172	0.116	-0.103
-414.413	-200.000	-0.042	-0.204
-413.398	-81.895	0.141	0.046
-412.384	800.000	0.036	0.137
-411.369	-154.845	-0.305	0.020
-410.355	56.029	-0.091	0.088
-409.340	66.427	0.238	0.241
-408.325	27.898	-0.211	-0.177
-407.311	116.245	-0.190	-0.232
-406.296	-200.000	0.008	-0.137
-405.282	-34.090	0.260	0.143
-404.267	118.623	-0.152	0.188
-403.252	-69.444	-0.189	0.072
-402.238	-102.804	-0.115	0.027
-401.223	800.000	0.125	0.395
-400.209	800.000	0.098	-0.356
-399.194	-200.000	0.030	-0.261
-398.179	13.892	-0.089	0.069
-397.165	-200.000	-0.038	-0.248
-396.150	-42.951	0.051	0.026
-395.136	-127.741	0.207	-0.030
-394.121	156.201	0.079	0.108
-393.106	-125.468	-0.101	-0.015
-392.092	-28.809	0.128	-0.073
-391.077	52.794	0.096	-0.091
-390.063	197.854	-0.022	0.034
-389.048	-200.000	-0.025	0.157
-388.033	-128.874	-0.045	-0.006
-387.019	288.139	-0.065	0.117
-386.004	-102.518	0.281	0.067
-384.990	64.946	-0.051	0.051
-383.975	98.953	-0.093	0.107
-382.960	800.000	0.138	0.388
-381.946	-200.000	-0.004	-0.040
-380.931	-200.000	0.007	-0.321
-379.917	411.090	-0.085	0.180
-378.902	-190.856	-0.108	-0.001
-377.888	-200.000	-0.028	0.310
-376.873	597.857	0.023	0.056
-375.858	-150.088	-0.204	0.016
-374.844	485.380	-0.222	-0.502
-373.829	800.000	0.054	0.167
-372.815	338.491	0.037	0.072
-371.800	-200.000	0.011	-0.141
-370.785	33.974	0.170	-0.147
-369.771	-200.000	-0.070	0.760
-368.756	-200.000	0.014	0.102
-367.742	-0.156	0.236	0.167
-366.727	-19.169	0.389	-0.241
-365.712	122.589	-0.093	0.116
-364.698	-100.464	0.213	-0.052
-363.683	53.391	0.231	0.220
-362.669	96.370	-0.057	-0.065
-361.654	-66.131	0.113	0.045
-360.639	-200.000	-0.006	0.217
-359.625	-64.091	-0.128	0.052
-358.610	-70.808	0.113	0.042
-357.596	47.872	-0.159	0.147
-356.581	742.343	0.076	0.203
-355.566	-200.000	-0.043	-0.346
-354.552	-10.991	-0.127	-0.084
-353.537	800.000	-0.083	0.303
-352.523	300.302	-0.111	0.204
-351.508	-200.000	-0.054	-0.400
-350.493	-113.757	0.126	0.024
-349.479	97.725	-0.149	0.170
-348.464	-200.000	-0.002	0.116
-347.450	0.455	0.103	0.073
-346.435	-129.455	0.270	0.037
-345.420	-12.541	0.200	-0.130
-344.406	-200.000	0.027	-0.303
-343.391	111.555	0.029	-0.035
-342.377	-200.000	0.006	-0.196
-341.362	800.000	-0.079	-0.277
-340.348	298.299	0.075	0.136
-339.333	-200.000	-0.029	-0.154
-338.318	-180.346	0.240	-0.005
-337.304	8.967	0.100	0.075
-336.289	81.325	0.090	-0.097
-335.275	-33.547	-0.163	0.089
-334.260	-93.556	-0.307	0.084
-333.245	-200.000	0.011	-0.146
-332.231	156.506	-0.056	-0.077
-331.216	-200.000	-0.003	-0.174
-330.202	107.835	-0.121	-0.143
-329.187	229.098	-0.082	-0.133
-328.172	-200.000	-0.028	0.311
-327.158	-200.000	0.022	0.185
-326.143	73.816	0.072	-0.075
-325.129	-37.171	-0.293	0.156
-324.114	83.537	-0.163	0.176
-323.099	659.516	-0.107	0.275
-322.085	-44.246	0.373	0.186
-321.070	26.757	0.084	0.070
-320.056	-69.512	-0.235	0.089
-319.041	800.000	-0.157	0.520
-318.026	-200.000	0.005	0.164
-317.012	-65.142	0.077	0.031
-315.997	-139.409	0.100	-0.011
-314.983	-200.000	-0.016	0.250
-313.968	54.779	0.134	-0.129
-312.953	323.713	0.012	-0.023
-311.939	-200.000	-0.006	-0.380
-310.924	3.763	-0.156	0.113
-309.910	14.001	-0.108	0.083
-308.895	-81.331	-0.045	-0.015
-307.880	697.216	0.034	-0.090
-306.866	800.000	0.069	-0.209
-305.851	17.745	-0.077	0.061
-304.837	-70.664	0.276	-0.104
-303.822	-200.000	0.028	-0.156
-302.807	-25.430	0.121	0.071
-301.793	-35.262	-0.067	0.036
-300.778	-200.000	0.028	0.421
-299.764	800.000	0.015	0.055
-298.749	800.000	0.093	0.339
-297.735	200.215	-0.100	-0.153
-296.720	23.457	0.122	0.100
-295.705	47.683	0.022	-0.020
-294.691	84.702	-0.072	-0.078
-293.676	-200.000	0.044	0.207
-292.662	132.484	0.261	-0.334
-291.647	246.526	-0.232	-0.388
-290.632	-114.362	0.325	-0.062
-289.618	-156.924	-0.179	-0.011
-288.603	-184.713	-0.314	0.005
-287.589	94.435	0.263	-0.296
-286.574	439.678	0.062	0.134
-285.559	-200.000	0.014	0.206
-284.545	-91.020	0.159	-0.045
-283.530	-30.443	0.054	0.030
-282.516	76.115	-0.167	0.176
-281.501	-16.905	0.102	-0.064
-280.486	-200.000	0.014	-0.543
-279.472	800.000	0.087	0.324
-278.457	800.000	0.052	0.215
-277.443	145.224	0.042	-0.055
-276.428	266.735	-0.241	0.418
-275.413	-193.419	-0.165	-0.001
-274.399	194.434	0.045	0.068
-273.384	-200.000	0.031	-0.162
-272.370	-200.000	0.016	0.234
-271.355	-104.327	-0.409	-0.094
-270.340	-57.272	-0.221	-0.097
-269.326	-12.299	0.123	0.080
-268.311	-36.394	0.111	0.059
-267.297	-49.011	0.055	0.026
-266.282	800.000	-0.034	0.130
-265.267	121.424	0.186	0.230
-264.253	5.721	0.170	-0.124
-263.238	-37.112	0.232	-0.123
-262.224	-94.165	0.140	0.038
-261.209	-200.000	-0.018	-0.163
-260.195	53.480	0.078	-0.074
-259.180	-3.497	0.165	0.114
-258.165	800.000	-0.096	0.304
-257.151	121.905	0.093	-0.115
-256.136	-135.873	-0.257	0.030
-255.122	-171.690	0.433	0.014
-254.107	-200.000	-0.010	0.367
-253.092	800.000	-0.055	0.150
-252.078	-112.252	-0.152	-0.030
-251.063	-8.792	-0.269	-0.179
-250.049	82.703	-0.165	-0.177
-249.034	146.571	-0.037	-0.049
-248.019	-127.080	-0.318	-0.046
-247.005	-196.678	-0.463	-0.003
-245.990	-200.000	-0.005	0.201
-244.976	78.580	0.212	0.224
-243.961	-132.940	-0.098	-0.012
-242.946	800.000	0.026	0.080
-241.932	17.848	0.134	-0.106
-240.917	800.000	0.037	0.102
-239.903	-134.435	-0.336	0.041
-238.888	734.645	-0.071	-0.189
-237.873	-101.510	0.093	0.022
-236.859	5.154	0.237	0.173
-235.844	-1.751	0.248	-0.173
-234.830	18.087	-0.260	-0.205
-233.815	-200.000	0.003	-0.342
-232.800	520.646	-0.084	-0.196
-231.786	165.823	0.112	-0.157
-230.771	-98.490	0.307	-0.078
-229.757	-200.000	-0.067	-0.563
-228.742	-200.000	0.010	0.319
-227.727	314.218	-0.173	-0.322
-226.713	-49.379	-0.140	0.066
-225.698	205.392	0.196	0.302
-224.684	-132.045	-0.406	0.052
-223.669	36.620	-0.264	0.231
-222.655	102.433	0.092	0.106
-221.640	24.996	-0.409	0.336
-220.625	70.639	-0.206	0.211
-219.611	-40.655	0.176	0.091
-218.596	183.322	-0.059	0.087
-217.582	78.373	-0.130	-0.138
-216.567	718.385	-0.084	-0.221
-215.552	-102.884	0.194	-0.046
-214.538	42.700	0.209	0.189
-213.523	635.896	0.015	0.037
-212.509	-160.296	0.371	-0.020
-211.494	-135.043	0.169	0.020
-210.479	-32.032	-0.210	0.116
-209.465	-120.879	0.135	0.022
-208.450	-194.425	0.310	-0.002
-207.436	133.719	-0.038	-0.049
-206.421	-51.251	-0.310	0.144
-205.406	-64.418	0.090	0.036
-204.392	-90.532	-0.326	-0.093
-203.377	-145.567	0.387	0.034
-202.363	-200.000	-0.018	-0.372
-201.348	-18.652	-0.243	-0.150
-200.333	214.705	0.096	0.150
-199.319	215.321	-0.043	0.067
-198.304	49.916	-0.144	-0.135
-197.290	-56.940	0.057	0.025
-196.275	159.706	-0.157	-0.216
-195.260	-11.004	0.061	-0.040
-194.246	-200.000	0.005	-0.028
-193.231	-200.000	0.015	0.154
-192.217	16.305	0.376	0.293
-191.202	-63.537	-0.382	0.155
-190.187	579.888	0.043	-0.105
-189.173	326.944	-0.170	-0.322
-188.158	-83.397	0.169	-0.054
-187.144	45.743	0.337	0.308
-186.129	-40.287	-0.298	0.153
-185.114	-76.172	0.306	-0.107
-184.100	800.000	-0.052	-0.211
-183.085	21.829	-0.021	-0.017
-182.071	8.507	-0.078	-0.058
-181.056	604.197	0.091	0.225
-180.042	3.866	-0.085	-0.061
-179.027	-7.452	0.153	-0.102
-178.012	-161.060	0.283	-0.015
-176.998	235.807	-0.166	-0.271
-175.983	-9.952	0.176	0.116
-174.969	24.635	0.164	0.134
-173.954	239.640	0.219	0.361
-172.939	-27.609	-0.155	-0.089
-171.925	800.000	-0.054	-0.184
-170.910	-37.922	-0.126	-0.066
-169.896	-200.000	0.024	0.505
-168.881	238.859	0.082	-0.135
-167.866	-4.639	-0.109	-0.074
-166.852	-94.332	0.434	-0.117
-165.837	47.697	0.068	0.063
-164.823	-154.771	0.164	-0.011
-163.808	-65.774	-0.267	-0.105
-162.793	-136.725	0.385	0.044
-161.779	-45.733	0.085	0.041
-160.764	134.174	0.105	0.134
-159.750	599.362	-0.069	0.169
-158.735	-121.549	0.081	-0.013
-157.720	-52.000	-0.200	0.092
-156.706	800.000	0.010	0.043
-155.691	-78.936	0.143	0.048
-154.677	800.000	-0.132	-0.381
-153.662	10.819	-0.046	0.035
-152.647	488.618	-0.130	-0.292
-151.633	8.510	-0.049	-0.037
-150.618	800.000	-0.018	0.073
-149.604	-135.342	-0.060	0.007
-148.589	5.366	-0.079	0.057
-147.574	554.362	-0.096	0.228
-146.560	611.770	0.183	-0.450
-145.545	95.784	-0.104	-0.117
-144.531	-35.089	-0.182	-0.098
-143.516	800.000	0.096	0.311
-142.502	97.412	0.044	0.050
-141.487	-200.000	-0.021	0.241
-140.472	267.534	-0.074	0.128
-139.458	-200.000	0.031	0.207
-138.443	-25.760	0.148	-0.086
-137.429	225.898	0.220	0.352
-136.414	375.619	0.051	0.103
-135.399	179.579	-0.125	-0.180
-134.385	39.852	0.094	-0.084
-133.370	-200.000	-0.028	0.490
-132.356	800.000	0.034	0.102
-131.341	70.149	0.247	-0.252
-130.326	-125.225	-0.361	0.054
-129.312	491.251	0.109	0.245
-128.297	-101.112	0.138	0.033
-127.283	16.178	-0.131	0.101
-126.268	-85.059	0.291	-0.090
-125.253	-28.403	0.286	-0.162
-124.239	34.869	-0.394	0.340
-123.224	189.508	-0.080	-0.118
-122.210	241.888	0.250	-0.412
-121.195	490.057	-0.121	-0.273
-120.180	-69.346	-0.122	-0.046
-119.166	-200.000	0.061	0.303
-118.151	237.157	0.074	0.120
-117.137	196.460	-0.146	-0.219
-116.122	663.532	-0.165	0.419
-115.107	-200.000	-0.003	0.132
-114.093	-114.336	-0.193	0.037
-113.078	225.215	0.127	-0.202
-112.064	40.448	-0.073	0.065
-111.049	-59.939	-0.337	0.142
-110.034	-81.489	-0.278	0.090
-109.020	-38.176	0.118	-0.062
-108.005	-57.873	0.182	0.078
-106.991	800.000	-0.024	0.072
-105.976	-81.343	0.250	0.081
-104.962	89.352	-0.141	-0.155
-103.947	166.978	-0.028	-0.039
-102.932	800.000	0.065	-0.237
-101.918	247.366	0.223	-0.372
-100.903	-200.000	-0.001	0.275
-99.889	-177.317	-0.296	0.007
-98.874	405.084	0.028	0.058
-97.859	800.000	-0.057	-0.236
-96.845	-113.743	-0.198	-0.038
-95.830	-200.000	-0.028	-0.156
-94.816	800.000	-0.042	0.119
-93.801	-138.505	0.337	-0.037
-92.786	-87.198	0.402	-0.120
-91.772	-54.500	-0.154	0.069
-90.757	800.000	-0.063	-0.241
-89.743	-33.011	0.094	0.052
-88.728	-200.000	-0.016	0.103
-87.713	-73.782	0.236	-0.085
-86.699	47.589	0.050	-0.046
-85.684	-121.338	-0.159	-0.026
-84.670	-85.824	-0.290	-0.089
-83.655	-200.000	-0.027	-0.260
-82.640	-88.256	-0.217	-0.064
-81.626	-200.000	-0.017	0.247
-80.611	-200.000	0.048	0.214
-79.597	701.409	0.083	-0.214
-78.582	800.000	-0.083	-0.256
-77.567	-49.834	-0.154	-0.072
-76.553	25.366	-0.215	0.176
-75.538	126.493	-0.044	-0.055
-74.524	10.203	-0.257	0.192
-73.509	800.000	-0.102	-0.335
-72.494	580.463	0.013	0.032
-71.480	-200.000	0.012	-0.059
-70.465	524.091	-0.015	-0.036
-69.451	-57.418	-0.164	0.071
-68.436	208.596	0.101	-0.156
-67.422	-17.948	-0.074	0.046
-66.407	-34.173	0.302	0.163
-65.392	5.064	-0.142	0.103
-64.378	-166.906	0.325	-0.013
-63.363	512.333	-0.100	0.229
-62.349	-200.000	0.029	-0.175
-61.334	62.383	-1.095	-1.075
-60.319	-200.000	0.048	0.664
-59.305	582.089	-0.466	-1.124
-58.290	163.448	0.853	1.180
-57.276	481.439	0.678	1.514
-56.261	-200.000	114.618	644.402
-55.246	469.573	1501.495	3315.744
-54.232	146.146	2672.192	3524.473
-53.217	92.924	2312.221	2567.527
-52.203	33.540	2062.004	1761.037
-51.188	28.952	1977.628	1647.922
-50.173	27.674	1961.215	1622.814
-49.159	45.470	2019.146	1831.915
-48.144	44.577	2035.144	1838.294
-47.130	29.540	1994.485	1667.013
-46.115	27.363	1983.967	1638.581
-45.100	27.221	1980.931	1634.733
-44.086	27.129	1979.143	1632.367
-43.071	27.126	1976.350	1629.968
-42.057	27.140	1974.125	1628.192
-41.042	27.154	1971.729	1626.277
-40.027	27.143	1970.358	1624.980
-39.013	27.154	1968.498	1623.480
-37.998	27.146	1966.915	1622.041
-36.984	27.223	1964.901	1621.001
-35.969	27.169	1963.300	1619.137
-34.954	27.235	1961.245	1617.969
-33.940	27.187	1959.860	1616.330
-32.925	27.270	1958.600	1615.966
-31.911	27.274	1957.060	1614.665
-30.896	27.258	1955.140	1612.881
-29.881	27.284	1953.120	1611.375
-28.867	27.257	1952.273	1610.376
-27.852	27.306	1950.532	1609.306
-26.838	27.332	1948.782	1608.027
-25.823	27.301	1947.007	1606.225
-24.809	27.296	1944.942	1604.416
-23.794	27.381	1942.965	1603.475
-22.779	27.265	1941.475	1601.160
-21.765	27.298	1939.720	1599.934
-20.750	27.282	1938.267	1598.535
-19.736	27.334	1936.405	1597.387
-18.721	27.313	1934.754	1595.782
-17.706	27.342	1933.105	1594.617
-16.692	27.214	1932.332	1592.793
-15.677	27.264	1930.536	1591.682
-14.663	27.356	1928.225	1590.521
-13.648	27.397	1926.727	1589.580
-12.633	27.204	1926.447	1587.596
-11.619	27.241	1925.189	1586.824
-10.604	27.274	1923.817	1585.914
-9.590	27.231	1922.283	1584.219
-8.575	27.355	1920.643	1583.879
-7.560	27.276	1919.313	1582.031
-6.546	27.266	1918.624	1581.318
-5.531	27.290	1916.974	1580.099
-4.517	27.283	1915.785	1578.999
-3.502	27.251	1914.613	1577.691
-2.487	27.355	1913.390	1577.525
-1.473	27.417	1912.039	1576.882
-0.458	27.371	1907.511	1572.688
0.556	25.192	1888.028	1544.960
1.571	21.255	1869.607	1496.099
2.586	17.588	1892.117	1482.134
3.600	16.627	1927.920	1501.522
4.615	16.651	1921.728	1496.781
5.629	15.045	1829.576	1411.349
6.644	11.934	1725.387	1306.085
7.659	10.122	1695.160	1268.878
8.673	9.862	1692.239	1264.544
9.688	9.888	1690.993	1263.709
10.702	9.828	1689.704	1262.161
11.717	9.792	1685.796	1258.852
12.731	9.979	1684.328	1259.104
13.746	12.407	1688.855	1281.324
14.761	15.790	1696.206	1313.239
15.775	17.510	1698.155	1328.058
16.790	17.105	1696.332	1323.358
17.804	16.009	1692.774	1311.936
18.819	15.073	1689.235	1301.806
19.834	14.453	1686.588	1294.837
20.848	14.025	1685.261	1290.380
21.863	13.835	1683.737	1287.621
22.877	13.537	1682.349	1284.137
23.892	13.335	1681.099	1281.505
24.907	13.231	1679.904	1279.678
25.921	13.195	1678.513	1278.221
26.936	13.272	1677.669	1278.066
27.950	13.257	1676.654	1277.062
28.965	13.384	1675.908	1277.362
29.980	13.431	1675.156	1277.037
30.994	13.505	1673.975	1276.595
32.009	13.513	1672.689	1275.561
33.023	13.541	1671.761	1274.960
34.038	13.522	1670.979	1274.103
35.053	13.506	1669.627	1272.836
36.067	13.432	1668.726	1271.471
37.082	13.426	1667.617	1270.468
38.096	13.474	1666.230	1269.665
39.111	13.461	1665.458	1268.861
40.126	13.547	1664.855	1268.951
41.140	13.537	1663.842	1267.988
42.155	13.299	1662.961	1265.388
43.169	13.259	1660.979	1263.457
44.184	13.216	1659.965	1262.244
45.199	13.148	1658.760	1260.700
46.213	13.215	1657.643	1260.251
47.228	13.269	1656.321	1259.549
48.242	13.299	1655.167	1258.782
49.257	13.320	1654.272	1258.153
50.271	13.341	1652.756	1257.049
51.286	13.338	1651.226	1255.748
52.301	13.326	1650.039	1254.645
53.315	13.380	1648.875	1254.060
54.330	13.372	1647.055	1252.505
55.344	13.237	1646.009	1250.577
56.359	13.294	1643.796	1249.218
57.374	13.343	1642.704	1248.644
58.388	13.250	1641.770	1247.123
59.403	13.203	1641.065	1246.124
60.417	13.235	1639.057	1244.727
61.432	13.142	1638.406	1243.420
62.447	13.111	1637.073	1242.069
63.461	13.118	1636.292	1241.416
64.476	13.059	1635.159	1240.008
65.490	13.136	1633.598	1239.287
66.505	13.042	1632.887	1237.933
67.520	13.109	1631.812	1237.512
68.534	13.183	1630.300	1236.811
69.549	13.157	1629.062	1235.566
70.563	13.181	1627.966	1234.805
71.578	13.113	1626.476	1233.059
72.593	13.121	1625.849	1232.535
73.607	13.010	1624.764	1230.775
74.622	12.951	1623.913	1229.582
75.636	13.036	1623.038	1229.444
76.651	13.001	1622.029	1228.313
77.666	13.033	1621.124	1227.753
78.680	13.064	1619.964	1226.998
79.695	13.022	1619.855	1226.497
80.709	13.083	1618.681	1225.947
81.724	13.108	1617.802	1225.359
82.739	13.135	1617.007	1224.854
83.753	13.170	1615.756	1224.056
84.768	13.292	1614.801	1224.129
85.782	13.314	1614.275	1223.778
86.797	13.423	1613.264	1223.711
87.812	13.401	1612.588	1222.927
88.826	13.386	1611.087	1221.569
89.841	13.283	1609.680	1219.635
90.855	13.338	1609.426	1219.740
91.870	13.308	1607.978	1218.319
92.884	13.406	1607.012	1218.195
93.899	13.466	1605.404	1217.316
94.914	13.442	1604.355	1216.234
95.928	13.513	1603.160	1215.739
96.943	13.527	1601.913	1214.790
97.957	13.389	1600.702	1212.751
98.972	13.412	1598.775	1211.356
99.987	13.415	1596.953	1209.888
101.001	13.492	1595.553	1209.286
102.016	13.432	1593.769	1207.387
103.030	13.338	1593.390	1206.310
104.045	13.311	1592.537	1205.355
105.060	13.401	1590.625	1204.456
106.074	13.402	1588.549	1202.785
107.089	13.267	1587.015	1200.542
108.103	13.272	1585.269	1199.153
109.118	13.171	1584.230	1197.527
110.133	13.125	1582.732	1195.953
111.147	13.218	1580.916	1195.150
112.162	13.133	1580.324	1193.978
113.176	13.201	1578.774	1193.198
114.191	13.229	1577.251	1192.141
115.206	13.287	1575.718	1191.295
116.220	13.252	1574.697	1190.162
117.235	13.300	1572.760	1188.941
118.249	13.253	1572.020	1187.935
119.264	13.242	1570.133	1186.329
120.279	13.232	1569.413	1185.608
121.293	13.152	1567.970	1183.839
122.308	13.160	1566.275	1182.509
123.322	13.171	1564.686	1181.283
124.337	13.076	1563.532	1179.633
125.352	13.005	1562.359	1178.132
126.366	13.078	1560.876	1177.432
127.381	13.080	1559.467	1176.284
128.395	13.082	1558.644	1175.568
129.410	13.085	1556.970	1174.229
130.424	13.146	1555.685	1173.586
131.439	13.200	1553.973	1172.573
132.454	13.193	1552.927	1171.632
133.468	13.254	1551.167	1170.634
134.483	13.272	1550.057	1169.817
135.497	13.247	1548.870	1168.639
136.512	13.315	1547.463	1167.957
137.527	13.334	1545.920	1166.823
138.541	13.354	1544.542	1165.824
139.556	13.307	1542.976	1164.203
140.570	13.264	1541.957	1163.028
141.585	13.379	1540.753	1162.824
142.600	13.379	1539.427	1161.726
143.614	13.410	1538.541	1161.168
144.629	13.397	1537.509	1160.200
145.643	13.632	1535.339	1160.103
146.658	13.536	1534.333	1158.567
147.673	13.518	1532.529	1156.978
148.687	13.504	1531.231	1155.796
149.702	13.440	1529.609	1154.023
150.716	13.368	1528.103	1152.284
151.731	13.362	1526.524	1150.948
152.746	13.368	1525.682	1150.258
153.760	13.424	1524.335	1149.526
154.775	13.454	1523.114	1148.714
155.789	13.471	1521.996	1147.888
156.804	13.483	1520.653	1146.852
157.819	13.479	1519.833	1146.109
158.833	13.530	1518.097	1145.051
159.848	13.552	1517.460	1144.616
160.862	13.690	1516.561	1144.791
161.877	13.706	1514.966	1143.601
162.892	13.642	1513.789	1142.166
163.906	13.488	1512.581	1140.096
164.921	13.587	1511.222	1139.652
165.935	13.582	1509.937	1138.544
166.950	13.611	1509.242	1138.120
167.964	13.600	1508.317	1137.246
168.979	13.631	1506.875	1136.274
169.994	13.570	1506.417	1135.410
171.008	13.502	1505.398	1134.072
172.023	13.631	1503.895	1133.724
173.037	13.585	1502.836	1132.511
174.052	13.796	1501.382	1132.752
175.067	13.707	1500.783	1131.594
176.081	13.660	1499.828	1130.455
177.096	13.627	1498.136	1128.857
178.110	13.632	1496.549	1127.595
179.125	13.511	1495.688	1126.023
180.140	13.660	1494.455	1126.004
181.154	13.619	1493.875	1125.188
182.169	13.710	1492.451	1124.636
183.183	13.741	1491.433	1123.982
184.198	13.731	1490.215	1122.895
185.213	13.797	1488.886	1122.238
186.227	13.850	1488.224	1122.003
187.242	13.883	1486.887	1121.116
188.256	13.809	1485.766	1119.675
189.271	13.894	1484.888	1119.482
190.286	13.973	1483.747	1119.057
191.300	13.877	1482.841	1117.628
192.315	13.812	1480.987	1115.695
193.329	13.647	1480.119	1113.831
194.344	13.591	1479.030	1112.540
195.359	13.592	1478.281	1111.883
196.373	13.701	1477.094	1111.627
197.388	13.782	1476.069	1111.294
198.402	13.873	1474.755	1110.822
199.417	13.954	1473.677	1110.450
200.432	14.029	1472.776	1110.171
201.446	14.052	1471.735	1109.441
202.461	14.042	1470.718	1108.515
203.475	14.185	1469.269	1108.277
204.490	14.157	1468.991	1107.779
205.504	14.094	1467.761	1106.337
206.519	14.117	1465.808	1104.918
207.534	14.032	1465.109	1103.727
208.548	14.098	1464.137	1103.339
209.563	14.080	1463.124	1102.358
210.577	14.056	1462.307	1101.485
211.592	14.055	1461.292	1100.619
212.607	14.068	1460.639	1100.111
213.621	14.173	1459.604	1099.933
214.636	14.388	1458.288	1100.263
215.650	14.145	1457.899	1098.264
216.665	14.140	1456.984	1097.446
217.680	14.125	1456.590	1096.956
218.694	14.249	1455.672	1096.982
219.709	14.312	1454.671	1096.546
220.723	14.321	1453.088	1095.316
221.738	14.292	1452.865	1094.858
222.753	14.345	1451.607	1094.162
223.767	14.327	1450.417	1093.050
224.782	14.286	1449.972	1092.349
225.796	14.269	1448.797	1091.257
226.811	14.392	1447.520	1091.002
227.826	14.411	1447.571	1091.069
228.840	14.447	1446.506	1090.407
229.855	14.327	1445.663	1088.890
230.869	14.299	1444.549	1087.771
231.884	14.281	1443.251	1086.582
232.899	14.388	1441.975	1086.220
233.913	14.327	1441.185	1085.133
234.928	14.311	1439.766	1083.865
235.942	14.212	1439.038	1082.577
236.957	14.311	1437.160	1081.708
237.972	14.316	1436.305	1081.003
238.986	14.296	1435.380	1080.080
240.001	14.236	1434.727	1079.109
241.015	14.403	1433.627	1079.265
242.030	14.360	1432.109	1077.747
243.045	14.473	1431.077	1077.605
244.059	14.480	1430.485	1077.114
245.074	14.509	1429.564	1076.508
246.088	14.524	1429.068	1076.140
247.103	14.550	1428.501	1075.784
248.117	14.500	1427.166	1074.358
249.132	14.543	1426.583	1074.102
250.147	14.711	1426.075	1074.706
251.161	14.725	1425.309	1074.128
252.176	14.835	1424.714	1074.288
253.190	14.891	1423.931	1073.966
254.205	14.866	1423.043	1073.035
255.220	14.963	1422.117	1072.867
256.234	14.979	1421.263	1072.230
257.249	14.970	1420.473	1071.481
258.263	14.910	1419.866	1070.546
259.278	14.984	1418.889	1070.188
260.293	14.967	1417.704	1069.092
261.307	15.025	1417.062	1068.883
262.322	15.058	1416.293	1068.417
263.336	15.069	1415.785	1068.006
264.351	15.100	1414.349	1067.027
265.366	15.085	1413.780	1066.409
266.380	15.144	1412.545	1065.758
267.395	15.185	1411.361	1065.033
268.409	15.189	1410.623	1064.405
269.424	15.196	1409.457	1063.475
270.439	15.163	1408.606	1062.535
271.453	15.104	1407.623	1061.322
272.468	15.091	1407.217	1060.839
273.482	15.175	1406.026	1060.381
274.497	15.081	1405.338	1059.175
275.512	15.076	1404.536	1058.442
276.526	15.039	1403.485	1057.323
277.541	15.149	1402.488	1057.176
278.555	15.146	1401.645	1056.427
279.570	15.125	1400.594	1055.410
280.585	15.247	1399.817	1055.498
281.599	15.190	1399.233	1054.604
282.614	15.339	1397.993	1054.511
283.628	15.305	1396.975	1053.440
284.643	15.379	1395.279	1052.533
285.657	15.230	1394.955	1051.256
286.672	15.259	1393.657	1050.368
287.687	15.272	1393.046	1049.897
288.701	15.294	1392.217	1049.320
289.716	15.276	1391.188	1048.335
290.730	15.326	1390.261	1047.858
291.745	15.317	1389.491	1047.126
292.760	15.327	1388.736	1046.528
293.774	15.376	1387.473	1045.792
294.789	15.310	1386.523	1044.572
295.803	15.504	1385.735	1045.089
296.818	15.476	1384.892	1044.187
297.833	15.451	1383.445	1042.851
298.847	15.392	1382.559	1041.724
299.862	15.418	1381.610	1041.077
300.876	15.370	1380.792	1040.074
301.891	15.434	1379.929	1039.728
302.906	15.605	1379.026	1040.014
303.920	15.620	1378.273	1039.444
304.935	15.635	1377.794	1039.085
305.949	15.579	1377.223	1038.218
306.964	15.743	1376.007	1038.218
307.979	15.739	1374.992	1037.337
308.993	15.637	1374.176	1036.003
310.008	15.580	1373.644	1035.155
311.022	15.680	1372.361	1034.712
312.037	15.698	1371.455	1034.049
313.052	15.671	1370.656	1033.194
314.066	15.846	1369.095	1032.995
315.081	15.713	1368.372	1031.545
316.095	15.548	1367.373	1029.691
317.110	15.669	1366.375	1029.589
318.125	15.680	1365.112	1028.614
319.139	15.605	1364.455	1027.566
320.154	15.651	1363.454	1027.000
321.168	15.711	1362.537	1026.587
322.183	15.705	1361.589	1025.744
323.197	15.670	1360.375	1024.527
324.212	15.766	1359.271	1024.187
325.227	15.731	1358.759	1023.502
326.241	15.705	1357.591	1022.371
327.256	15.786	1356.811	1022.188
328.270	15.827	1356.119	1021.826
329.285	15.766	1355.150	1020.635
330.300	15.709	1354.328	1019.580
331.314	15.743	1353.451	1019.034
332.329	15.861	1352.602	1019.021
333.343	15.817	1351.775	1018.039
334.358	15.845	1350.550	1017.198
335.373	15.855	1349.926	1016.698
336.387	15.857	1349.056	1015.964
337.402	15.939	1348.611	1016.031
338.416	15.945	1348.048	1015.554
339.431	16.071	1347.420	1015.749
340.446	16.029	1346.750	1014.903
341.460	16.098	1345.352	1014.173
342.475	16.079	1344.635	1013.429
343.489	16.167	1343.507	1013.019
344.504	16.185	1342.782	1012.493
345.519	16.165	1342.309	1011.925
346.533	16.243	1340.932	1011.267
347.548	16.248	1340.636	1010.981
348.562	16.294	1339.422	1010.255
349.577	16.268	1338.552	1009.348
350.592	16.301	1337.849	1008.927
351.606	16.258	1337.117	1008.028
352.621	16.158	1335.825	1006.374
353.635	16.249	1334.446	1005.784
354.650	16.151	1333.963	1004.749
355.665	16.165	1333.058	1004.060
356.679	16.253	1331.745	1003.505
357.694	16.195	1330.662	1002.260
358.708	16.289	1329.248	1001.660
359.723	16.316	1328.744	1001.355
360.738	16.297	1327.775	1000.420
361.752	16.208	1327.086	999.286
362.767	16.334	1325.698	998.901
363.781	16.283	1324.642	997.714
364.796	16.249	1324.511	997.324
365.810	16.444	1323.232	997.426
366.825	16.427	1322.636	996.789
367.840	16.497	1321.911	996.567
368.854	16.516	1321.588	996.344
369.869	16.563	1320.697	995.862
370.883	16.555	1320.316	995.438
371.898	16.515	1319.343	994.383
372.913	16.504	1318.496	993.590
373.927	16.587	1317.599	993.315
374.942	16.586	1316.351	992.280
375.956	16.555	1316.176	991.882
376.971	16.673	1315.163	991.719
377.986	16.610	1314.359	990.658
379.000	16.715	1313.454	990.503
380.015	16.683	1312.674	989.639
381.029	16.683	1311.897	988.966
382.044	16.763	1311.365	988.944
383.059	16.801	1310.569	988.479
384.073	16.768	1310.112	987.856
385.088	16.722	1309.502	987.038
386.102	16.796	1308.824	986.872
387.117	16.722	1308.379	986.019
388.132	16.824	1307.246	985.668
389.146	16.766	1305.867	984.204
390.161	16.722	1305.379	983.492
391.175	16.759	1304.622	983.049
392.190	16.810	1303.614	982.504
393.205	16.823	1302.897	981.946
394.219	16.901	1302.180	981.772
395.234	17.003	1300.201	980.786
396.248	16.864	1299.089	979.054
397.263	16.879	1297.824	978.102
398.278	16.902	1296.638	977.253
399.292	16.755	1295.655	975.583
400.307	16.904	1294.455	975.448
401.321	16.831	1293.733	974.398
402.336	16.909	1292.282	973.668
403.350	16.849	1291.682	972.783
404.365	16.886	1290.901	972.323
405.380	16.969	1290.103	972.113
406.394	16.778	1289.315	970.334
407.409	16.921	1288.802	970.681
408.423	17.012	1287.638	970.244
409.438	17.093	1287.407	970.447
410.453	17.176	1286.557	970.190
411.467	17.175	1285.795	969.526
412.482	17.099	1285.693	968.931
413.496	17.257	1284.563	968.895
414.511	17.272	1283.901	968.394
415.526	17.320	1282.795	967.749
416.540	17.282	1282.547	967.260
417.555	17.391	1281.495	966.999
418.569	17.257	1281.259	965.975
419.584	17.389	1280.312	965.924
420.599	17.265	1280.139	965.002
421.613	96.917	1356.357	1476.816
422.628	94.736	1367.385	1476.900
