DTS Sentinel unit serial number:	SN413079Multiplexer serial number:	ORYXHardware model number:	OX4-SRSoftware version number:	ORYX F/W v4.00 Oryx Data Collector v3.7.2.0data status	okinstallation	princeton_trtdifferential loss correction	single-endedforward channel	channel 4reverse channel	N/Adate	2019/09/18time	05:53:35forward acquisition time	60.00reverse acquisition time	0.00gamma	496.2192k internal	0.2333k external	0.2333temperature offset calibration	0.9999default loss term (dB/km)	0.3790temperature slope calibration	1.0000multiplexer offset coefficient	1.0000multiplexer slope coefficient	1.0000fibre end	0.00T internal ref (°C)	23.25T ext. ref 1 (°C)	0.19T ext. ref 2 (°C)	17.25length (m)	temperature (°C)	Stokes	anti-Stokes-747.200	-200.000	-0.017	0.088
-746.185	125.889	-0.103	0.130
-745.171	504.795	0.023	0.053
-744.156	316.795	-0.280	0.532
-743.142	62.530	-0.171	-0.172
-742.127	-139.841	-0.396	0.042
-741.112	-9.104	-0.012	-0.008
-740.098	800.000	-0.050	0.154
-739.083	-56.971	-0.046	-0.020
-738.069	52.480	0.033	0.031
-737.054	8.553	-0.138	-0.104
-736.039	-172.125	-0.470	0.015
-735.025	57.405	0.165	0.161
-734.010	-200.000	-0.068	0.360
-732.996	800.000	-0.072	-0.277
-731.981	330.995	-0.085	0.164
-730.966	-200.000	-0.018	-0.092
-729.952	112.545	-0.247	-0.300
-728.937	137.721	-0.277	-0.365
-727.923	-200.000	0.024	-0.110
-726.908	-90.930	-0.156	0.045
-725.894	-200.000	-0.004	-0.347
-724.879	-200.000	-0.024	0.185
-723.864	69.282	-0.057	-0.059
-722.850	-200.000	0.035	0.171
-721.835	426.497	-0.052	-0.113
-720.821	290.888	-0.199	-0.363
-719.806	-200.000	0.000	-0.133
-718.791	643.237	-0.096	0.247
-717.777	-200.000	0.008	0.220
-716.762	55.731	-0.143	-0.139
-715.748	63.001	-0.283	-0.284
-714.733	-137.162	0.165	-0.019
-713.718	-108.003	-0.262	0.057
-712.704	-200.000	-0.017	-0.176
-711.689	145.330	-0.113	-0.152
-710.675	-152.062	-0.082	-0.006
-709.660	556.741	0.017	0.041
-708.645	-99.994	-0.291	0.073
-707.631	121.356	-0.217	0.271
-706.616	800.000	0.067	-0.261
-705.602	-200.000	0.006	-0.306
-704.587	536.052	-0.061	-0.144
-703.572	750.948	0.089	0.241
-702.558	-71.378	-0.336	-0.126
-701.543	61.574	0.173	-0.172
-700.529	200.142	0.074	0.114
-699.514	800.000	0.136	0.437
-698.499	-200.000	-0.006	0.129
-697.485	-40.624	0.111	-0.058
-696.470	-30.929	-0.378	0.214
-695.456	449.462	0.163	-0.360
-694.441	-39.796	0.171	-0.090
-693.426	800.000	-0.043	-0.184
-692.412	91.536	-0.165	0.186
-691.397	-137.626	0.161	0.018
-690.383	193.621	-0.118	-0.179
-689.368	722.479	0.132	0.354
-688.354	-200.000	0.003	0.207
-687.339	800.000	-0.051	-0.205
-686.324	-20.716	0.296	0.182
-685.310	-104.665	-0.237	0.055
-684.295	-200.000	0.089	0.392
-683.281	591.537	0.167	-0.412
-682.266	-43.650	-0.288	0.146
-681.251	-74.265	0.189	-0.069
-680.237	202.237	0.091	0.141
-679.222	320.608	-0.105	0.200
-678.208	154.703	-0.141	0.194
-677.193	552.749	-0.124	-0.298
-676.178	-200.000	-0.027	-0.236
-675.164	800.000	0.038	-0.115
-674.149	-200.000	-0.031	-0.532
-673.135	-52.726	0.153	-0.071
-672.120	-62.504	0.193	0.080
-671.105	-82.867	-0.114	0.037
-670.091	-103.273	-0.467	-0.111
-669.076	-83.815	0.105	0.034
-668.062	145.114	0.242	-0.325
-667.047	-83.212	-0.180	-0.058
-666.032	-200.000	0.006	-0.209
-665.018	-78.343	-0.116	0.040
-664.003	218.979	-0.122	0.196
-662.989	-76.946	-0.187	0.066
-661.974	157.446	0.045	-0.062
-660.959	5.469	-0.396	-0.293
-659.945	-200.000	0.023	-0.171
-658.930	83.093	0.120	0.131
-657.916	-10.618	0.226	0.150
-656.901	-200.000	-0.013	0.078
-655.886	-200.000	-0.021	0.163
-654.872	-45.188	0.361	0.180
-653.857	-200.000	-0.065	-0.310
-652.843	-200.000	-0.008	-0.347
-651.828	220.328	-0.051	-0.081
-650.814	0.452	0.157	0.112
-649.799	330.735	-0.070	-0.134
-648.784	-200.000	0.038	0.264
-647.770	96.637	0.189	0.217
-646.755	-51.599	-0.163	-0.076
-645.741	-200.000	0.020	-0.194
-644.726	377.075	0.129	-0.263
-643.711	286.261	-0.051	-0.093
-642.697	-26.558	-0.335	-0.197
-641.682	20.521	-0.217	0.176
-640.668	-200.000	0.046	-0.386
-639.653	-200.000	0.009	-0.064
-638.638	800.000	-0.069	-0.215
-637.624	-21.648	0.170	0.104
-636.609	-29.607	0.225	-0.128
-635.595	-79.229	-0.039	0.013
-634.580	-134.161	0.192	0.024
-633.565	179.520	-0.159	-0.233
-632.551	262.381	-0.142	-0.246
-631.536	-200.000	0.005	-0.183
-630.522	234.159	0.061	-0.100
-629.507	-47.420	0.234	-0.114
-628.492	392.872	0.073	0.152
-627.478	-177.688	0.124	0.003
-626.463	-82.701	-0.319	-0.104
-625.449	-200.000	0.004	0.139
-624.434	-129.588	0.046	-0.006
-623.419	800.000	-0.054	0.172
-622.405	-13.938	0.194	0.125
-621.390	-9.034	0.144	-0.096
-620.376	-25.373	-0.054	-0.032
-619.361	600.769	-0.135	0.336
-618.346	-10.650	-0.207	-0.137
-617.332	-200.000	0.033	-0.298
-616.317	65.937	-0.069	-0.070
-615.303	-127.774	0.024	-0.004
-614.288	2.199	0.231	-0.167
-613.273	-200.000	-0.050	0.286
-612.259	-200.000	-0.009	0.257
-611.244	633.599	-0.120	-0.305
-610.230	800.000	-0.019	0.067
-609.215	-85.970	0.218	-0.067
-608.201	226.000	0.149	-0.242
-607.186	94.847	0.114	0.129
-606.171	172.486	-0.118	-0.169
-605.157	83.919	0.117	0.128
-604.142	-200.000	-0.086	0.451
-603.128	-188.126	0.062	0.001
-602.113	301.053	-0.149	0.274
-601.098	-200.000	-0.066	-0.349
-600.084	-117.016	0.254	-0.046
-599.069	347.563	0.099	0.194
-598.055	-200.000	-0.001	0.082
-597.040	-200.000	-0.049	-0.340
-596.025	800.000	-0.094	0.312
-595.011	-72.967	-0.150	-0.055
-593.996	-159.956	0.378	-0.021
-592.982	-49.175	0.174	0.083
-591.967	127.019	-0.030	-0.038
-590.952	-127.931	-0.057	-0.008
-589.938	7.706	-0.094	-0.071
-588.923	68.468	-0.217	0.223
-587.909	-168.645	0.312	0.012
-586.894	212.082	-0.093	-0.146
-585.879	34.777	-0.118	0.103
-584.865	-200.000	0.035	0.235
-583.850	-129.268	-0.056	-0.008
-582.836	-55.869	-0.135	-0.060
-581.821	-72.755	0.430	-0.158
-580.806	-200.000	-0.052	-0.275
-579.792	-112.717	0.157	-0.031
-578.777	797.706	-0.044	0.122
-577.763	473.667	-0.084	-0.190
-576.748	68.657	0.134	0.137
-575.733	6.844	-0.056	-0.041
-574.719	-39.875	0.256	-0.133
-573.704	84.776	0.123	0.135
-572.690	9.071	-0.093	0.070
-571.675	-150.622	-0.163	0.012
-570.661	-130.923	0.303	0.041
-569.646	-128.676	0.122	0.017
-568.631	1.323	-0.262	-0.188
-567.617	-200.000	-0.014	-0.280
-566.602	-148.241	-0.210	-0.017
-565.588	191.422	-0.027	-0.041
-564.573	-176.373	0.088	0.002
-563.558	-53.076	-0.292	-0.134
-562.544	7.440	0.189	0.141
-561.529	62.325	-0.140	-0.139
-560.515	197.578	0.055	-0.083
-559.500	-24.231	0.090	-0.054
-558.485	487.820	-0.037	0.084
-557.471	101.965	-0.192	0.223
-556.456	-200.000	-0.012	0.274
-555.442	800.000	-0.018	-0.050
-554.427	-200.000	0.013	-0.081
-553.412	800.000	0.109	0.396
-552.398	42.618	-0.236	-0.214
-551.383	199.889	0.135	-0.206
-550.369	522.280	-0.042	-0.097
-549.354	-14.144	0.137	-0.088
-548.339	180.579	0.159	0.232
-547.325	235.292	-0.039	-0.065
-546.310	0.008	-0.234	0.166
-545.296	-39.700	-0.207	-0.108
-544.281	72.830	-0.144	-0.150
-543.266	-200.000	0.011	-0.154
-542.252	-200.000	0.055	0.267
-541.237	152.679	0.170	-0.232
-540.223	550.260	0.085	0.203
-539.208	549.008	0.108	0.257
-538.193	-109.740	-0.398	-0.083
-537.179	-20.850	-0.026	-0.016
-536.164	-129.830	-0.192	0.026
-535.150	10.082	-0.046	-0.035
-534.135	-95.770	-0.132	0.035
-533.121	-109.085	0.182	-0.039
-532.106	-200.000	-0.011	-0.168
-531.091	92.326	0.231	-0.260
-530.077	571.139	-0.064	-0.156
-529.062	648.686	0.036	0.092
-528.048	-200.000	-0.003	0.215
-527.033	27.962	0.149	0.125
-526.018	-149.271	0.128	-0.010
-525.004	-14.828	-0.388	0.248
-523.989	191.303	-0.062	-0.093
-522.975	800.000	-0.053	0.195
-521.960	-146.862	0.205	-0.018
-520.945	57.061	0.160	-0.156
-519.931	800.000	-0.016	-0.043
-518.916	-200.000	-0.017	-0.197
-517.902	-200.000	-0.021	-0.227
-516.887	-200.000	0.016	-0.238
-515.872	-109.598	0.320	-0.067
-514.858	-54.382	0.188	0.085
-513.843	87.998	0.070	0.077
-512.829	-71.242	0.185	-0.069
-511.814	-200.000	0.001	0.059
-510.799	800.000	-0.014	-0.055
-509.785	-130.966	-0.063	0.008
-508.770	-86.929	-0.130	0.039
-507.756	-200.000	-0.013	-0.096
-506.741	-97.301	-0.361	-0.094
-505.726	-114.710	0.431	-0.082
-504.712	-12.607	0.193	-0.125
-503.697	800.000	0.022	-0.063
-502.683	112.583	0.063	0.076
-501.668	-105.060	0.140	0.032
-500.653	-200.000	-0.006	-0.134
-499.639	-57.724	0.168	0.073
-498.624	0.446	0.057	-0.040
-497.610	243.417	-0.170	-0.285
-496.595	-95.540	-0.156	0.042
-495.581	-136.536	0.108	0.013
-494.566	106.910	-0.105	-0.124
-493.551	-87.759	0.106	-0.032
-492.537	-200.000	0.013	-0.119
-491.522	800.000	0.082	0.286
-490.508	-200.000	0.024	0.197
-489.493	-92.247	-0.203	0.057
-488.478	206.099	0.196	-0.304
-487.464	-12.936	0.283	0.183
-486.449	-29.589	0.044	-0.025
-485.435	800.000	-0.066	-0.223
-484.420	-200.000	0.023	-0.281
-483.405	-83.891	-0.094	0.030
-482.391	-144.168	0.468	0.044
-481.376	-114.470	-0.244	0.047
-480.362	-35.795	-0.044	0.024
-479.347	533.985	-0.095	-0.224
-478.332	209.446	0.200	0.312
-477.318	-69.537	-0.202	0.077
-476.303	76.773	-0.200	0.211
-475.289	-52.760	0.234	0.107
-474.274	-6.487	-0.261	0.177
-473.259	468.138	0.109	-0.242
-472.245	-90.853	0.075	0.022
-471.230	429.493	-0.129	-0.277
-470.216	60.648	0.144	0.142
-469.201	667.537	0.093	0.240
-468.186	223.743	-0.243	-0.390
-467.172	65.725	0.162	0.164
-466.157	800.000	-0.144	-0.475
-465.143	-128.559	0.399	0.056
-464.128	-200.000	0.045	0.235
-463.113	-95.214	0.374	0.100
-462.099	151.271	0.065	0.089
-461.084	-127.767	-0.426	-0.061
-460.070	-15.269	-0.125	0.080
-459.055	-67.603	0.151	-0.059
-458.040	800.000	-0.044	0.142
-457.026	-13.888	-0.518	0.333
-456.011	-200.000	-0.025	-0.136
-454.997	25.524	0.200	-0.165
-453.982	367.839	0.069	-0.138
-452.968	-53.435	0.288	0.131
-451.953	23.152	-0.071	-0.058
-450.938	800.000	0.032	0.100
-449.924	157.030	-0.034	-0.047
-448.909	-200.000	0.031	0.158
-447.895	-101.256	-0.245	-0.059
-446.880	-138.160	0.432	0.048
-445.865	496.349	0.042	-0.095
-444.851	463.643	-0.083	0.183
-443.836	429.631	-0.074	0.160
-442.822	-137.050	-0.311	-0.035
-441.807	218.967	0.176	0.279
-440.792	800.000	0.076	0.289
-439.778	423.301	-0.130	-0.277
-438.763	-76.517	-0.191	-0.067
-437.749	13.056	0.238	0.183
-436.734	800.000	0.012	0.043
-435.719	-200.000	0.037	0.482
-434.705	29.950	-0.513	-0.435
-433.690	-137.694	0.132	0.015
-432.676	11.221	-0.156	0.118
-431.661	9.839	0.333	0.251
-430.646	144.646	-0.103	-0.136
-429.632	800.000	0.048	-0.199
-428.617	15.248	-0.139	0.108
-427.603	-82.717	0.235	-0.075
-426.588	-92.168	0.234	-0.066
-425.573	-159.872	-0.441	-0.024
-424.559	-32.064	0.087	-0.049
-423.544	737.260	-0.046	0.123
-422.530	-2.581	-0.169	-0.117
-421.515	39.091	-0.200	-0.177
-420.500	411.475	-0.091	0.192
-419.486	158.717	0.180	0.248
-418.471	505.403	-0.073	0.168
-417.457	49.734	-0.068	0.064
-416.442	226.249	-0.157	-0.254
-415.428	800.000	-0.079	0.247
-414.413	161.549	0.059	-0.083
-413.398	800.000	0.120	-0.429
-412.384	183.655	0.052	0.076
-411.369	-200.000	-0.006	-0.027
-410.355	25.955	-0.144	0.120
-409.340	-78.310	0.228	0.078
-408.325	-79.525	-0.048	0.016
-407.311	-200.000	-0.054	0.322
-406.296	-100.968	-0.230	-0.056
-405.282	-110.691	-0.133	0.027
-404.267	800.000	0.041	-0.172
-403.252	-200.000	0.007	0.155
-402.238	468.165	-0.117	0.260
-401.223	-47.512	0.087	-0.042
-400.209	-149.052	-0.339	0.027
-399.194	273.911	-0.025	0.045
-398.179	-64.091	0.208	0.084
-397.165	-30.699	-0.330	-0.185
-396.150	-68.075	0.187	-0.072
-395.136	181.205	0.133	0.194
-394.121	-200.000	-0.027	-0.190
-393.106	-133.173	0.100	0.013
-392.092	525.243	-0.079	-0.183
-391.077	-38.778	-0.049	0.025
-390.063	-29.065	-0.126	-0.072
-389.048	-138.428	-0.119	0.013
-388.033	172.212	-0.279	0.398
-387.019	-122.414	-0.029	-0.005
-386.004	-85.997	-0.220	-0.067
-384.990	2.863	-0.202	-0.145
-383.975	-126.370	-0.442	0.065
-382.960	724.024	0.105	-0.277
-381.946	247.305	0.157	-0.264
-380.931	-33.217	-0.128	0.071
-379.917	-167.360	-0.161	0.006
-378.902	-200.000	-0.006	0.035
-377.888	65.080	0.252	0.253
-376.873	-51.263	-0.272	-0.126
-375.858	306.410	0.180	-0.333
-374.844	800.000	-0.025	0.085
-373.829	65.840	0.210	0.211
-372.815	96.376	0.149	0.169
-371.800	-200.000	0.003	-0.070
-370.785	800.000	0.118	0.333
-369.771	-200.000	-0.094	0.439
-368.756	-154.715	-0.208	-0.014
-367.742	-80.686	0.454	0.149
-366.727	-19.275	0.232	0.142
-365.712	113.461	0.044	0.053
-364.698	-94.380	-0.169	-0.046
-363.683	-118.976	0.152	-0.026
-362.669	-166.155	0.348	0.015
-361.654	-147.130	-0.251	0.021
-360.639	-116.125	0.100	0.018
-359.625	800.000	0.052	-0.162
-358.610	-200.000	-0.029	0.239
-357.596	-64.246	0.132	-0.053
-356.581	-174.666	-0.465	-0.013
-355.566	-126.627	0.410	-0.060
-354.552	-134.703	-0.063	-0.008
-353.537	383.539	0.090	-0.183
-352.523	13.341	0.288	-0.221
-351.508	-200.000	0.045	-0.315
-350.493	334.425	0.080	0.152
-349.479	-200.000	0.024	0.124
-348.464	383.613	0.190	0.387
-347.450	-124.509	-0.279	0.043
-346.435	-182.441	0.124	-0.002
-345.420	-200.000	-0.053	0.302
-344.406	-200.000	-0.027	0.276
-343.391	13.591	0.066	0.051
-342.377	-39.915	0.150	-0.078
-341.362	800.000	0.082	-0.332
-340.348	-200.000	-0.039	0.447
-339.333	125.689	0.067	0.084
-338.318	-132.983	0.105	0.013
-337.304	21.148	0.383	-0.308
-336.289	-94.319	-0.137	-0.037
-335.275	153.269	-0.175	-0.237
-334.260	70.821	-0.204	-0.209
-333.245	-53.949	-0.516	-0.233
-332.231	453.020	0.105	-0.230
-331.216	-138.764	0.216	-0.023
-330.202	800.000	0.033	0.136
-329.187	-113.650	-0.315	-0.061
-328.172	-130.206	0.220	-0.030
-327.158	-200.000	0.015	0.133
-326.143	800.000	0.096	-0.383
-325.129	-120.265	-0.326	0.055
-324.114	6.295	-0.091	-0.067
-323.099	-8.205	-0.182	0.121
-322.085	-50.460	0.170	-0.079
-321.070	68.891	0.335	0.340
-320.056	321.942	-0.086	-0.162
-319.041	800.000	0.074	-0.288
-318.026	143.328	0.221	0.291
-317.012	800.000	-0.030	-0.087
-315.997	-66.426	0.359	-0.141
-314.983	92.148	-0.147	0.164
-313.968	-200.000	-0.002	-0.026
-312.953	-114.189	-0.133	0.025
-311.939	179.962	-0.190	-0.275
-310.924	-95.307	0.284	0.076
-309.910	-25.872	0.230	0.134
-308.895	-39.276	0.206	0.107
-307.880	-200.000	-0.021	0.314
-306.866	-44.393	-0.189	-0.093
-305.851	322.187	0.133	-0.250
-304.837	-71.024	-0.093	0.035
-303.822	-52.060	-0.428	-0.197
-302.807	250.557	-0.032	0.054
-301.793	378.054	-0.035	0.071
-300.778	658.346	0.043	-0.110
-299.764	800.000	-0.041	-0.173
-298.749	62.892	0.099	0.098
-297.735	-200.000	0.021	0.143
-296.720	-45.546	0.274	-0.134
-295.705	69.638	-0.110	0.112
-294.691	225.411	-0.118	-0.189
-293.676	-70.292	0.289	-0.109
-292.662	-9.494	-0.214	-0.141
-291.647	-25.321	-0.130	-0.076
-290.632	800.000	-0.027	0.106
-289.618	-200.000	-0.014	0.354
-288.603	10.090	0.404	0.304
-287.589	-200.000	-0.035	0.302
-286.574	162.642	-0.079	-0.109
-285.559	136.693	-0.139	0.179
-284.545	42.800	0.037	-0.033
-283.530	800.000	0.006	0.017
-282.516	620.729	-0.047	0.118
-281.501	-200.000	-0.010	0.097
-280.486	-41.071	-0.063	0.032
-279.472	567.668	-0.084	0.201
-278.457	607.866	-0.094	0.231
-277.443	-36.026	-0.183	0.098
-276.428	-27.528	-0.098	-0.056
-275.413	63.831	-0.049	0.049
-274.399	-184.573	0.285	-0.005
-273.384	-5.504	0.161	0.109
-272.370	57.345	-0.068	-0.065
-271.355	19.719	-0.098	0.078
-270.340	800.000	-0.061	0.179
-269.326	-200.000	-0.012	0.198
-268.311	6.163	0.195	0.143
-267.297	-200.000	-0.013	-0.314
-266.282	26.427	0.154	0.127
-265.267	244.706	-0.102	0.170
-264.253	11.138	-0.029	0.022
-263.238	-115.862	0.079	0.015
-262.224	57.463	-0.039	-0.038
-261.209	19.900	0.075	-0.059
-260.195	262.968	0.261	0.447
-259.180	3.063	0.182	0.131
-258.165	800.000	-0.067	-0.218
-257.151	11.726	-0.248	0.188
-256.136	-31.136	0.231	-0.129
-255.122	-109.251	-0.231	-0.048
-254.107	224.444	-0.102	0.163
-253.092	-156.668	0.218	0.013
-252.078	157.162	0.064	-0.087
-251.063	-200.000	-0.005	0.371
-250.049	-200.000	-0.013	-0.083
-249.034	136.884	-0.089	-0.114
-248.019	-200.000	-0.067	-0.292
-247.005	57.914	-0.212	0.204
-245.990	188.447	-0.026	0.039
-244.976	103.043	0.241	-0.279
-243.961	110.908	0.228	0.271
-242.946	164.615	0.185	-0.258
-241.932	-69.746	-0.145	-0.055
-240.917	-59.358	0.119	-0.051
-239.903	19.307	-0.078	-0.062
-238.888	16.361	-0.300	0.233
-237.873	389.081	-0.160	-0.327
-236.859	-56.821	-0.166	0.072
-235.844	-200.000	0.032	-0.251
-234.830	77.967	-0.210	0.221
-233.815	800.000	0.047	0.194
-232.800	-76.613	0.218	-0.075
-231.786	535.098	0.136	0.317
-230.771	-200.000	-0.055	-0.360
-229.757	-30.360	-0.192	0.107
-228.742	-168.937	0.609	0.022
-227.727	-200.000	-0.006	0.134
-226.713	311.571	0.059	0.109
-225.698	-200.000	-0.012	-0.098
-224.684	460.872	-0.196	-0.431
-223.669	-95.668	-0.262	-0.069
-222.655	-200.000	-0.017	0.319
-221.640	-99.806	-0.072	-0.018
-220.625	-57.730	-0.268	0.116
-219.611	-98.017	-0.272	-0.069
-218.596	-102.015	0.310	-0.074
-217.582	800.000	-0.084	0.277
-216.567	-100.337	-0.232	0.057
-215.552	-78.513	0.314	0.106
-214.538	419.889	0.172	0.363
-213.523	-115.215	-0.262	-0.049
-212.509	-117.006	-0.331	-0.059
-211.494	800.000	-0.089	0.332
-210.479	110.720	0.139	-0.165
-209.465	-48.283	0.125	-0.060
-208.450	-92.466	0.364	-0.101
-207.436	199.317	-0.238	0.359
-206.421	800.000	0.029	0.100
-205.406	187.850	0.039	0.057
-204.392	-200.000	0.004	0.052
-203.377	547.398	-0.051	0.120
-202.363	-200.000	0.066	-0.290
-201.348	302.348	-0.089	-0.161
-200.333	329.495	0.079	-0.150
-199.319	-147.813	0.025	-0.002
-198.304	-50.161	-0.219	0.102
-197.290	-84.216	-0.042	0.013
-196.275	-93.746	-0.208	-0.056
-195.260	-23.258	0.217	0.128
-194.246	169.071	-0.060	0.084
-193.231	-62.527	0.151	-0.062
-192.217	-50.380	-0.156	0.072
-191.202	262.042	0.147	-0.251
-190.187	-200.000	0.031	0.178
-189.173	-73.393	-0.188	-0.068
-188.158	-200.000	-0.029	0.128
-187.144	354.888	0.027	-0.052
-186.129	-56.576	-0.146	0.064
-185.114	-200.000	0.031	0.137
-184.100	-200.000	0.015	0.148
-183.085	-200.000	0.028	-0.264
-182.071	-200.000	-0.021	-0.130
-181.056	-131.464	-0.216	0.028
-180.042	-82.279	-0.263	0.084
-179.027	-96.773	0.418	-0.108
-178.012	800.000	-0.039	0.112
-176.998	335.762	0.117	-0.223
-175.983	-200.000	0.097	-0.426
-174.969	293.292	0.001	0.002
-173.954	-162.383	0.037	-0.002
-172.939	364.478	-0.082	-0.162
-171.925	800.000	0.018	-0.049
-170.910	-65.302	0.146	0.058
-169.896	-156.766	-0.382	-0.023
-168.881	-200.000	-0.014	-0.150
-167.866	800.000	0.040	-0.147
-166.852	208.403	-0.050	0.077
-165.837	36.231	-0.033	-0.029
-164.823	482.248	-0.161	-0.360
-163.808	113.318	0.223	-0.266
-162.793	123.012	0.083	-0.103
-161.779	-21.009	-0.243	0.146
-160.764	-37.704	0.165	0.086
-159.750	21.188	-0.271	-0.216
-158.735	-111.906	-0.270	0.054
-157.720	14.123	0.161	-0.124
-156.706	173.210	-0.033	-0.047
-155.691	-200.000	0.013	-0.342
-154.677	-22.016	0.220	-0.131
-153.662	192.305	-0.126	0.186
-152.647	-92.438	0.129	0.036
-151.633	20.880	-0.167	-0.133
-150.618	46.192	-0.021	0.019
-149.604	-200.000	-0.080	-0.350
-148.589	42.505	0.293	-0.262
-147.574	130.135	-0.172	0.217
-146.560	160.286	0.165	0.226
-145.545	-156.940	-0.184	0.011
-144.531	5.158	0.008	0.006
-143.516	-41.830	0.356	0.179
-142.502	69.987	0.120	-0.122
-141.487	-200.000	0.006	0.044
-140.472	7.151	-0.183	0.134
-139.458	25.600	0.276	0.225
-138.443	130.186	0.237	-0.298
-137.429	321.605	-0.185	0.346
-136.414	25.985	-0.114	0.093
-135.399	557.348	0.090	-0.213
-134.385	-107.721	0.267	-0.057
-133.370	800.000	-0.076	-0.244
-132.356	-200.000	0.087	-0.679
-131.341	26.065	-0.158	0.129
-130.326	1.618	0.046	0.033
-129.312	-30.614	0.032	0.018
-128.297	-42.290	-0.317	0.159
-127.283	-33.126	-0.193	0.105
-126.268	-130.878	0.175	0.023
-125.253	-157.154	0.265	0.016
-124.239	-114.096	0.097	0.018
-123.224	29.974	-0.401	0.335
-122.210	51.103	0.206	-0.192
-121.195	54.482	-0.088	-0.083
-120.180	-200.000	-0.028	0.126
-119.166	145.944	0.215	0.283
-118.151	118.185	0.052	0.063
-117.137	-200.000	0.022	-0.200
-116.122	67.614	-0.145	0.145
-115.107	-200.000	-0.010	0.228
-114.093	800.000	-0.008	0.036
-113.078	800.000	0.082	-0.241
-112.064	275.126	0.036	-0.062
-111.049	-162.924	0.229	0.011
-110.034	0.427	0.276	-0.194
-109.020	-3.908	-0.182	-0.124
-108.005	-151.725	0.116	0.008
-106.991	800.000	-0.046	0.175
-105.976	125.329	-0.139	0.172
-104.962	-66.694	0.306	-0.119
-103.947	-39.864	0.385	0.197
-102.932	4.065	-0.181	0.130
-101.918	299.531	0.110	0.199
-100.903	800.000	0.067	-0.209
-99.889	-44.862	-0.089	0.043
-98.874	-36.502	0.211	0.111
-97.859	-196.204	-0.117	0.001
-96.845	-8.578	-0.063	0.041
-95.830	-154.528	0.370	0.024
-94.816	-147.610	0.255	0.021
-93.801	62.851	0.112	0.109
-92.786	104.945	0.147	-0.170
-91.772	171.748	0.097	-0.137
-90.757	9.974	-0.047	-0.035
-89.743	204.644	-0.181	0.275
-88.728	-112.521	0.083	-0.016
-87.713	34.886	-0.154	-0.132
-86.699	56.393	0.021	0.020
-85.684	-15.401	0.272	-0.170
-84.670	11.980	0.320	0.241
-83.655	15.691	-0.296	-0.228
-82.640	102.096	0.151	0.173
-81.626	60.287	-0.053	0.051
-80.611	147.697	0.307	-0.405
-79.597	500.547	0.051	0.116
-78.582	-200.000	-0.022	0.116
-77.567	-68.286	-0.175	0.066
-76.553	-99.594	-0.218	0.054
-75.538	800.000	-0.023	-0.083
-74.524	-200.000	-0.019	-0.256
-73.509	276.086	0.067	0.116
-72.494	71.180	0.257	0.261
-71.480	-112.498	0.320	-0.063
-70.465	462.580	0.043	0.093
-69.451	534.737	0.135	-0.312
-68.436	26.612	-0.474	0.388
-67.422	315.015	0.098	0.181
-66.407	260.656	0.129	0.218
-65.392	-175.297	0.140	0.004
-64.378	-77.373	-0.151	0.051
-63.363	-200.000	0.005	0.057
-62.349	159.350	-0.173	-0.235
-61.334	114.197	-1.050	-1.250
-60.319	45.729	0.977	0.884
-59.305	541.515	-0.558	-1.302
-58.290	597.640	0.622	1.509
-57.276	200.218	1.044	1.570
-56.261	-200.000	125.188	656.428
-55.246	403.428	1583.445	3261.449
-54.232	137.840	2756.032	3533.791
-53.217	86.117	2347.150	2529.236
-52.203	29.792	2089.588	1741.663
-51.188	24.922	2004.622	1626.657
-50.173	23.817	1987.585	1602.808
-49.159	42.937	2060.294	1838.078
-48.144	40.625	2072.295	1827.455
-47.130	25.487	2024.673	1647.853
-46.115	23.253	2013.910	1618.630
-45.100	23.157	2010.784	1615.170
-44.086	23.103	2008.657	1612.913
-43.071	23.081	2006.362	1610.805
-42.057	23.028	2004.375	1608.656
-41.042	23.177	2002.115	1608.137
-40.027	23.116	2000.193	1605.978
-39.013	23.218	1998.058	1605.119
-37.998	23.177	1996.767	1603.647
-36.984	23.165	1994.836	1601.926
-35.969	23.206	1992.948	1600.715
-34.954	23.115	1991.563	1598.718
-33.940	23.134	1989.940	1597.527
-32.925	23.240	1988.354	1597.142
-31.911	23.232	1986.894	1595.838
-30.896	23.300	1984.831	1594.731
-29.881	23.252	1983.724	1593.342
-28.867	23.276	1982.013	1592.121
-27.852	23.290	1979.964	1590.542
-26.838	23.304	1978.338	1589.297
-25.823	23.304	1976.285	1587.584
-24.809	23.371	1974.783	1586.915
-23.794	23.249	1973.337	1584.598
-22.779	23.338	1971.106	1583.536
-21.765	23.274	1969.883	1581.916
-20.750	23.289	1968.611	1580.971
-19.736	23.323	1966.618	1579.613
-18.721	23.291	1964.800	1577.806
-17.706	23.297	1963.062	1576.398
-16.692	23.307	1961.738	1575.356
-15.677	23.258	1960.287	1573.697
-14.663	23.268	1958.647	1572.409
-13.648	23.277	1957.693	1571.657
-12.633	23.272	1956.234	1570.379
-11.619	23.278	1954.805	1569.223
-10.604	23.274	1953.628	1568.179
-9.590	23.207	1952.018	1566.231
-8.575	23.243	1950.715	1565.445
-7.560	23.227	1949.792	1564.499
-6.546	23.212	1948.682	1563.410
-5.531	23.268	1947.103	1562.579
-4.517	23.313	1946.002	1562.034
-3.502	23.227	1944.683	1560.156
-2.487	23.228	1943.239	1558.940
-1.473	23.296	1942.728	1559.065
-0.458	23.280	1937.337	1554.543
0.556	21.550	1916.865	1525.434
1.571	17.233	1897.176	1472.316
2.586	13.426	1920.430	1456.782
3.600	12.648	1955.418	1476.214
4.615	12.760	1949.004	1472.242
5.629	10.071	1848.438	1373.332
6.644	3.903	1734.829	1239.507
7.659	0.488	1702.296	1189.273
8.673	0.261	1699.461	1185.402
9.688	0.212	1697.836	1183.780
10.702	0.172	1696.402	1182.365
11.717	0.105	1692.429	1178.961
12.731	0.518	1691.530	1181.465
13.746	5.295	1700.638	1225.250
14.761	12.455	1715.558	1292.358
15.775	16.218	1722.153	1326.850
16.790	16.800	1721.687	1330.950
17.804	15.885	1718.853	1321.462
18.819	15.001	1715.807	1312.075
19.834	14.414	1713.357	1305.491
20.848	14.100	1711.861	1301.773
21.863	13.824	1710.424	1298.405
22.877	13.758	1708.513	1296.331
23.892	13.440	1707.175	1292.711
24.907	13.263	1706.014	1290.338
25.921	13.309	1704.748	1289.630
26.936	13.326	1704.541	1289.487
27.950	13.259	1703.510	1288.072
28.965	13.320	1702.896	1287.972
29.980	13.477	1701.187	1287.783
30.994	13.416	1701.061	1287.103
32.009	13.560	1699.704	1287.076
33.023	13.524	1699.032	1286.173
34.038	13.594	1698.330	1286.077
35.053	13.477	1697.695	1284.573
36.067	13.430	1695.958	1282.775
37.082	13.486	1694.647	1282.108
38.096	13.501	1693.608	1281.321
39.111	13.512	1693.272	1281.040
40.126	13.580	1691.895	1280.413
41.140	13.530	1690.850	1279.119
42.155	13.418	1689.762	1277.323
43.169	13.405	1688.227	1275.948
44.184	13.283	1687.399	1274.265
45.199	13.313	1686.053	1273.368
46.213	13.276	1684.559	1271.845
47.228	13.287	1684.166	1271.519
48.242	13.341	1682.568	1270.615
49.257	13.397	1681.745	1270.310
50.271	13.405	1679.700	1268.719
51.286	13.450	1679.088	1268.490
52.301	13.429	1677.218	1266.805
53.315	13.491	1675.570	1265.914
54.330	13.422	1674.562	1264.514
55.344	13.382	1672.935	1262.871
56.359	13.293	1671.836	1261.254
57.374	13.412	1670.646	1261.146
58.388	13.352	1669.531	1259.742
59.403	13.289	1668.505	1258.373
60.417	13.229	1666.570	1256.345
61.432	13.361	1665.236	1256.233
62.447	13.278	1664.681	1255.071
63.461	13.297	1662.797	1253.689
64.476	13.299	1661.703	1252.767
65.490	13.242	1660.725	1251.489
66.505	13.354	1658.936	1250.874
67.520	13.270	1658.121	1249.510
68.534	13.278	1657.633	1249.097
69.549	13.366	1656.245	1248.600
70.563	13.345	1654.618	1247.108
71.578	13.280	1653.448	1245.625
72.593	13.285	1652.506	1244.843
73.607	13.271	1651.221	1243.657
74.622	13.173	1650.122	1241.985
75.636	13.097	1649.976	1241.193
76.651	13.264	1648.571	1241.286
77.666	13.191	1647.321	1239.681
78.680	13.307	1646.140	1239.552
79.695	13.248	1645.632	1238.621
80.709	13.278	1644.342	1237.768
81.724	13.170	1644.167	1236.715
82.739	13.339	1642.499	1236.612
83.753	13.336	1641.463	1235.699
84.768	13.348	1640.624	1235.049
85.782	13.374	1639.720	1234.458
86.797	13.428	1638.623	1233.926
87.812	13.491	1637.789	1233.656
88.826	13.415	1636.547	1232.043
89.841	13.366	1635.710	1230.937
90.855	13.474	1633.856	1230.236
91.870	13.320	1633.405	1228.648
92.884	13.421	1632.315	1228.471
93.899	13.520	1631.507	1228.487
94.914	13.517	1629.960	1227.191
95.928	13.523	1628.769	1226.227
96.943	13.551	1627.405	1225.297
97.957	13.446	1625.860	1223.256
98.972	13.466	1624.317	1222.132
99.987	13.592	1622.587	1221.654
101.001	13.491	1621.326	1219.847
102.016	13.429	1619.974	1218.265
103.030	13.506	1618.743	1217.800
104.045	13.514	1617.503	1216.816
105.060	13.416	1616.272	1215.063
106.074	13.459	1614.826	1214.187
107.089	13.376	1613.254	1212.286
108.103	13.367	1611.480	1210.785
109.118	13.253	1610.427	1209.052
110.133	13.304	1608.848	1208.133
111.147	13.207	1608.072	1206.729
112.162	13.315	1605.764	1205.680
113.176	13.403	1604.778	1205.474
114.191	13.395	1603.277	1204.184
115.206	13.440	1601.791	1203.289
116.220	13.390	1600.679	1201.980
117.235	13.376	1599.402	1200.817
118.249	13.402	1598.147	1199.957
119.264	13.420	1596.563	1198.792
120.279	13.435	1595.047	1197.657
121.293	13.311	1593.964	1195.838
122.308	13.375	1592.137	1194.823
123.322	13.338	1590.835	1193.476
124.337	13.379	1589.318	1192.526
125.352	13.240	1588.755	1190.996
126.366	13.318	1587.404	1190.442
127.381	13.327	1586.783	1189.938
128.395	13.290	1585.323	1188.467
129.410	13.303	1583.367	1186.991
130.424	13.306	1581.938	1185.835
131.439	13.298	1581.198	1185.122
132.454	13.385	1579.607	1184.445
133.468	13.420	1578.130	1183.485
134.483	13.377	1576.681	1181.981
135.497	13.441	1575.083	1181.136
136.512	13.417	1573.983	1180.036
137.527	13.464	1572.675	1179.286
138.541	13.422	1570.840	1177.509
139.556	13.441	1570.047	1176.944
140.570	13.462	1568.314	1175.690
141.585	13.527	1567.232	1175.237
142.600	13.538	1565.963	1174.262
143.614	13.619	1564.515	1173.641
144.629	13.567	1563.425	1172.356
145.643	13.661	1561.983	1171.832
146.658	13.649	1560.574	1170.589
147.673	13.679	1558.668	1169.268
148.687	13.646	1557.420	1167.996
149.702	13.560	1556.072	1166.277
150.716	13.609	1554.388	1165.251
151.731	13.482	1553.484	1163.581
152.746	13.549	1551.995	1162.836
153.760	13.555	1550.527	1161.669
154.775	13.573	1549.609	1161.008
155.789	13.657	1547.339	1159.795
156.804	13.696	1546.162	1159.082
157.819	13.643	1545.194	1157.880
158.833	13.669	1544.339	1157.320
159.848	13.783	1542.922	1156.947
160.862	13.719	1541.851	1155.599
161.877	13.833	1540.279	1155.113
162.892	13.795	1539.107	1153.869
163.906	13.716	1537.567	1152.058
164.921	13.699	1536.325	1150.910
165.935	13.645	1535.815	1150.049
166.950	13.733	1534.599	1149.652
167.964	13.710	1533.072	1148.242
168.979	13.735	1531.864	1147.412
169.994	13.798	1530.610	1146.805
171.008	13.752	1530.402	1146.232
172.023	13.786	1529.113	1145.402
173.037	13.825	1527.824	1144.598
174.052	13.891	1526.396	1143.885
175.067	13.860	1525.616	1142.982
176.081	13.896	1524.183	1142.057
177.096	13.825	1523.330	1140.830
178.110	13.778	1521.825	1139.282
179.125	13.885	1521.043	1139.325
180.140	13.773	1520.071	1137.729
181.154	13.784	1518.865	1136.799
182.169	13.913	1517.819	1136.801
183.183	14.009	1515.996	1135.990
184.198	13.839	1515.290	1134.200
185.213	13.982	1513.833	1133.989
186.227	13.959	1513.089	1133.174
187.242	14.019	1511.982	1132.650
188.256	14.104	1510.307	1131.873
189.271	14.086	1509.211	1130.830
190.286	14.068	1508.602	1130.155
191.300	14.061	1507.603	1129.257
192.315	13.938	1506.501	1127.497
193.329	13.902	1504.835	1125.907
194.344	13.995	1503.667	1125.560
195.359	13.987	1502.627	1124.627
196.373	13.969	1501.540	1123.598
197.388	14.017	1500.892	1123.334
198.402	14.133	1499.609	1123.061
199.417	14.114	1498.600	1122.074
200.432	14.136	1497.340	1121.184
201.446	14.179	1496.296	1120.589
202.461	14.170	1495.430	1119.784
203.475	14.218	1494.274	1119.140
204.490	14.262	1493.078	1118.440
205.504	14.247	1491.808	1117.289
206.519	14.245	1490.789	1116.416
207.534	14.234	1489.533	1115.301
208.548	14.205	1488.295	1114.082
209.563	14.252	1487.086	1113.390
210.577	14.259	1486.463	1112.872
211.592	14.287	1485.705	1112.396
212.607	14.309	1485.037	1111.943
213.621	14.394	1483.983	1111.620
214.636	14.441	1483.189	1111.244
215.650	14.334	1481.968	1109.516
216.665	14.375	1481.312	1109.202
217.680	14.394	1480.541	1108.655
218.694	14.482	1479.410	1108.295
219.709	14.508	1478.397	1107.610
220.723	14.520	1477.450	1106.881
221.738	14.437	1476.592	1105.589
222.753	14.440	1475.649	1104.803
223.767	14.445	1475.171	1104.380
224.782	14.520	1473.652	1103.642
225.796	14.503	1472.595	1102.639
226.811	14.491	1471.876	1101.925
227.826	14.595	1471.106	1101.940
228.840	14.595	1470.281	1101.222
229.855	14.569	1469.291	1100.215
230.869	14.591	1468.179	1099.426
231.884	14.471	1467.306	1097.888
232.899	14.573	1465.660	1097.226
233.913	14.531	1464.968	1096.335
234.928	14.468	1463.681	1094.866
235.942	14.459	1462.560	1093.868
236.957	14.503	1461.262	1093.093
237.972	14.551	1460.136	1092.463
238.986	14.451	1459.061	1090.913
240.001	14.585	1458.015	1090.910
241.015	14.544	1457.290	1090.000
242.030	14.610	1456.099	1089.447
243.045	14.605	1454.980	1088.481
244.059	14.658	1453.697	1087.771
245.074	14.708	1453.052	1087.514
246.088	14.691	1452.339	1086.776
247.103	14.775	1451.604	1086.676
248.117	14.782	1451.232	1086.343
249.132	14.841	1450.084	1085.772
250.147	14.847	1449.203	1085.054
251.161	14.901	1448.915	1085.094
252.176	14.855	1448.184	1084.151
253.190	14.951	1447.226	1083.961
254.205	14.998	1446.330	1083.498
255.220	15.147	1444.927	1083.315
256.234	15.058	1444.536	1082.354
257.249	15.080	1443.561	1081.669
258.263	15.141	1442.383	1081.080
259.278	15.153	1441.532	1080.425
260.293	15.161	1440.766	1079.809
261.307	15.190	1439.829	1079.196
262.322	15.129	1439.190	1078.233
263.336	15.123	1438.434	1077.529
264.351	15.203	1437.132	1076.977
265.366	15.187	1436.442	1076.258
266.380	15.236	1435.553	1075.809
267.395	15.304	1434.367	1075.262
268.409	15.313	1433.547	1074.610
269.424	15.309	1432.244	1073.518
270.439	15.175	1431.733	1072.178
271.453	15.237	1430.862	1071.827
272.468	15.275	1429.886	1071.245
273.482	15.326	1428.724	1070.605
274.497	15.262	1428.086	1069.625
275.512	15.248	1426.874	1068.533
276.526	15.375	1425.840	1068.472
277.541	15.392	1424.980	1067.839
278.555	15.352	1424.370	1067.033
279.570	15.283	1423.715	1066.014
280.585	15.395	1422.356	1065.609
281.599	15.492	1421.628	1065.587
282.614	15.531	1420.802	1065.121
283.628	15.479	1419.390	1063.638
284.643	15.390	1418.768	1062.513
285.657	15.471	1417.453	1061.951
286.672	15.515	1416.294	1061.266
287.687	15.380	1416.121	1060.187
288.701	15.454	1414.837	1059.598
289.716	15.515	1413.786	1059.107
290.730	15.577	1413.168	1058.936
291.745	15.589	1411.719	1057.837
292.760	15.575	1410.952	1057.080
293.774	15.611	1409.659	1056.243
294.789	15.586	1409.082	1055.559
295.803	15.587	1408.253	1054.854
296.818	15.666	1407.144	1054.422
297.833	15.662	1406.068	1053.495
298.847	15.642	1405.667	1052.977
299.862	15.620	1404.319	1051.739
300.876	15.745	1403.215	1051.602
301.891	15.675	1402.416	1050.473
302.906	15.704	1401.489	1049.863
303.920	15.695	1400.818	1049.215
304.935	15.780	1399.848	1048.923
305.949	15.807	1399.024	1048.384
306.964	15.845	1398.293	1047.975
307.979	15.863	1397.249	1047.216
308.993	15.829	1396.575	1046.408
310.008	15.862	1395.576	1045.769
311.022	15.803	1394.465	1044.478
312.037	15.884	1393.845	1044.421
313.052	15.929	1392.073	1043.282
314.066	15.859	1391.500	1042.328
315.081	15.837	1390.631	1041.450
316.095	15.848	1389.605	1040.655
317.110	15.845	1388.236	1039.517
318.125	15.848	1387.724	1039.061
319.139	15.914	1386.416	1038.398
320.154	15.870	1385.385	1037.261
321.168	15.901	1384.781	1036.907
322.183	15.925	1383.603	1036.086
323.197	15.895	1382.799	1035.203
324.212	15.966	1382.013	1034.960
325.227	15.961	1381.680	1034.588
326.241	16.113	1379.552	1033.837
327.256	16.046	1378.759	1032.738
328.270	15.958	1378.087	1031.608
329.285	16.021	1377.182	1031.224
330.300	15.971	1376.834	1030.569
331.314	16.009	1375.547	1029.746
332.329	16.019	1374.846	1029.192
333.343	16.012	1373.998	1028.419
334.358	15.999	1373.142	1027.608
335.373	16.053	1372.761	1027.560
336.387	16.205	1371.409	1027.382
337.402	16.099	1370.732	1026.145
338.416	16.118	1370.289	1025.834
339.431	16.156	1369.678	1025.520
340.446	16.322	1368.683	1025.693
341.460	16.337	1367.169	1024.555
342.475	16.322	1366.675	1024.004
343.489	16.241	1365.851	1022.806
344.504	16.245	1365.199	1022.254
345.519	16.382	1363.891	1022.011
346.533	16.499	1362.904	1021.888
347.548	16.479	1361.767	1020.824
348.562	16.401	1361.219	1019.852
349.577	16.579	1360.232	1020.097
350.592	16.581	1359.226	1019.263
351.606	16.490	1358.724	1018.249
352.621	16.375	1357.786	1016.765
353.635	16.373	1357.063	1016.118
354.650	16.429	1355.874	1015.475
355.665	16.329	1355.097	1014.206
356.679	16.440	1354.028	1013.982
357.694	16.506	1352.525	1013.159
358.708	16.570	1351.233	1012.485
359.723	16.529	1350.622	1011.691
360.738	16.591	1349.285	1010.974
361.752	16.661	1348.140	1010.445
362.767	16.584	1347.381	1009.326
363.781	16.535	1346.507	1008.288
364.796	16.537	1345.541	1007.490
365.810	16.607	1344.723	1007.204
366.825	16.653	1344.154	1006.962
367.840	16.693	1343.669	1006.750
368.854	16.731	1342.803	1006.236
369.869	16.741	1342.516	1005.994
370.883	16.707	1341.317	1004.799
371.898	16.707	1340.959	1004.444
372.913	16.731	1340.096	1003.852
373.927	16.713	1339.248	1003.023
374.942	16.798	1338.382	1002.789
375.956	16.798	1337.236	1001.838
376.971	16.830	1336.482	1001.376
377.986	16.810	1335.919	1000.747
379.000	16.821	1334.937	999.986
380.015	16.902	1334.362	999.946
381.029	16.901	1333.456	999.171
382.044	16.941	1332.733	998.778
383.059	16.990	1331.657	998.172
384.073	16.902	1331.613	997.534
385.088	16.907	1330.910	996.948
386.102	17.029	1329.969	996.872
387.117	17.040	1329.390	996.415
388.132	17.006	1328.638	995.560
389.146	17.032	1327.276	994.603
390.161	17.032	1326.656	994.054
391.175	16.936	1326.389	993.203
392.190	16.966	1325.516	992.635
393.205	17.134	1324.244	992.580
394.219	17.056	1323.450	991.439
395.234	17.064	1322.352	990.576
396.248	17.079	1320.901	989.490
397.263	17.039	1319.355	988.013
398.278	17.171	1318.070	987.730
399.292	17.099	1316.916	986.358
400.307	17.003	1316.382	985.314
401.321	17.068	1315.055	984.608
402.336	17.055	1314.003	983.658
403.350	17.114	1312.681	982.925
404.365	17.124	1312.158	982.502
405.380	17.092	1311.423	981.682
406.394	17.144	1310.793	981.424
407.409	17.194	1309.943	980.988
408.423	17.154	1308.973	979.943
409.438	17.269	1308.419	980.107
410.453	17.333	1307.427	979.643
411.467	17.341	1307.007	979.290
412.482	17.422	1306.145	979.026
413.496	17.441	1305.367	978.466
414.511	17.501	1304.589	978.136
415.526	17.417	1303.982	977.114
416.540	17.623	1302.815	977.333
417.555	17.503	1302.598	976.397
418.569	17.567	1302.116	976.317
419.584	17.531	1301.427	975.508
420.599	17.546	1301.114	975.270
421.613	99.586	1362.154	1486.513
422.628	97.827	1370.982	1486.605
