DTS Sentinel unit serial number:	SN413079Multiplexer serial number:	ORYXHardware model number:	OX4-SRSoftware version number:	ORYX F/W v4.00 Oryx Data Collector v3.7.2.0data status	okinstallation	princeton_trtdifferential loss correction	single-endedforward channel	channel 4reverse channel	N/Adate	2019/09/13time	16:01:35forward acquisition time	60.00reverse acquisition time	0.00gamma	496.2192k internal	0.2298k external	0.2298temperature offset calibration	1.0209default loss term (dB/km)	0.3790temperature slope calibration	1.0000multiplexer offset coefficient	1.0000multiplexer slope coefficient	1.0000fibre end	0.00T internal ref (°C)	34.66T ext. ref 1 (°C)	4.82T ext. ref 2 (°C)	31.38length (m)	temperature (°C)	Stokes	anti-Stokes-747.200	-156.349	0.046	-0.003
-746.185	-93.159	-0.136	0.039
-745.171	37.597	0.314	0.284
-744.156	-76.425	0.213	-0.077
-743.142	-200.000	0.027	-0.223
-742.127	207.404	0.038	0.061
-741.112	381.265	0.068	-0.142
-740.098	76.318	-0.406	-0.439
-739.083	-27.602	0.253	-0.150
-738.069	-160.742	0.257	0.014
-737.054	-77.946	0.168	-0.059
-736.039	137.110	-0.228	-0.305
-735.025	70.610	0.068	0.071
-734.010	128.451	-0.104	0.136
-732.996	-72.551	-0.393	0.148
-731.981	-186.641	-0.074	-0.001
-730.966	642.254	-0.064	-0.166
-729.952	-79.177	0.228	0.079
-728.937	-52.721	-0.226	0.107
-727.923	-117.867	0.254	-0.047
-726.908	-165.985	-0.388	0.017
-725.894	-38.624	-0.204	-0.110
-724.879	56.304	-0.146	-0.144
-723.864	62.192	0.014	-0.015
-722.850	800.000	-0.072	0.218
-721.835	0.227	-0.091	0.066
-720.821	-59.979	0.221	-0.097
-719.806	89.592	0.247	0.281
-718.791	-19.070	-0.210	0.133
-717.777	-116.106	0.150	-0.028
-716.762	-36.317	0.412	0.227
-715.748	-101.821	0.144	0.036
-714.733	51.745	-0.127	-0.123
-713.718	-99.956	0.270	0.069
-712.704	-23.856	0.272	0.166
-711.689	-200.000	-0.024	-0.147
-710.675	-7.773	-0.110	-0.076
-709.660	-74.972	-0.460	0.168
-708.645	-61.097	0.138	0.059
-707.631	-157.169	-0.133	0.008
-706.616	-65.393	-0.588	-0.241
-705.602	-133.778	0.300	-0.038
-704.587	-29.089	0.273	-0.160
-703.572	216.548	-0.186	-0.302
-702.558	-61.793	-0.252	-0.108
-701.543	117.904	-0.049	0.062
-700.529	-162.170	-0.438	0.022
-699.514	-72.919	0.185	0.069
-698.499	-198.265	-0.126	0.001
-697.485	-154.430	-0.224	-0.015
-696.470	-9.456	-0.278	0.189
-695.456	-23.242	-0.234	0.143
-694.441	800.000	0.047	0.182
-693.426	9.671	0.133	0.103
-692.412	189.515	0.103	0.157
-691.397	800.000	0.037	-0.144
-690.383	-200.000	0.036	0.462
-689.368	84.857	-0.147	-0.165
-688.354	-200.000	0.009	-0.123
-687.339	36.009	-0.162	0.145
-686.324	-70.701	-0.134	0.052
-685.310	-143.147	-0.217	0.021
-684.295	93.233	-0.132	0.152
-683.281	-200.000	-0.135	-0.001
-682.266	21.625	0.393	-0.326
-681.251	-116.013	-0.123	0.023
-680.237	-115.769	-0.421	-0.080
-679.222	120.667	-0.095	-0.120
-678.208	98.911	-0.067	0.079
-677.193	-200.000	-0.016	0.129
-676.178	22.187	-0.244	-0.203
-675.164	-34.326	0.061	0.034
-674.149	430.342	0.078	-0.171
-673.135	63.670	0.229	-0.234
-672.120	-49.344	0.193	-0.094
-671.105	-38.779	-0.180	-0.097
-670.091	800.000	-0.033	-0.103
-669.076	762.154	0.053	0.148
-668.062	41.087	0.117	-0.108
-667.047	-64.800	0.384	-0.158
-666.032	-200.000	-0.038	-0.291
-665.018	-200.000	0.036	0.202
-664.003	-200.000	0.029	0.412
-662.989	130.902	0.126	0.165
-661.974	-200.000	0.012	0.110
-660.959	-135.517	-0.174	-0.021
-659.945	-119.606	0.316	-0.056
-658.930	347.208	-0.030	0.060
-657.916	267.521	-0.193	-0.343
-656.901	170.883	0.299	-0.437
-655.886	-200.000	-0.023	0.248
-654.872	132.891	0.084	0.110
-653.857	800.000	0.029	0.111
-652.843	96.264	-0.077	0.090
-651.828	-45.778	-0.260	-0.131
-650.814	516.542	-0.047	0.113
-649.799	308.073	-0.019	0.036
-648.784	288.291	-0.106	0.195
-647.770	84.953	0.191	0.213
-646.755	800.000	0.075	-0.277
-645.741	-61.586	-0.139	-0.059
-644.726	-200.000	0.002	0.244
-643.711	-11.706	0.040	0.026
-642.697	126.863	-0.113	-0.145
-641.682	-82.186	0.519	-0.172
-640.668	-13.933	0.344	-0.226
-639.653	-44.892	0.148	0.075
-638.638	11.894	-0.121	0.095
-637.624	15.274	0.166	-0.132
-636.609	136.571	0.194	0.257
-635.595	-200.000	-0.021	-0.153
-634.580	691.654	-0.027	0.072
-633.565	-84.045	-0.089	-0.029
-632.551	-117.474	-0.275	0.051
-631.536	253.324	-0.335	-0.581
-630.522	-149.787	-0.223	0.018
-629.507	800.000	-0.026	0.076
-628.492	-181.834	-0.174	0.003
-627.478	-81.972	0.119	-0.039
-626.463	289.376	0.099	-0.183
-625.449	585.940	0.075	0.188
-624.434	182.186	-0.151	-0.226
-623.419	193.249	0.023	0.035
-622.405	800.000	0.059	-0.214
-621.390	-26.510	-0.270	-0.161
-620.376	-16.892	-0.252	-0.162
-619.361	97.846	-0.073	0.086
-618.346	-200.000	-0.023	-0.140
-617.332	199.371	-0.210	-0.328
-616.317	-138.728	-0.077	0.009
-615.303	-200.000	0.040	-0.208
-614.288	409.758	0.069	-0.149
-613.273	-31.640	-0.196	-0.112
-612.259	-45.142	-0.090	0.045
-611.244	34.414	0.129	-0.114
-610.230	-75.155	-0.060	-0.022
-609.215	-9.895	0.037	-0.025
-608.201	-32.763	-0.238	0.134
-607.186	800.000	-0.081	0.267
-606.171	-64.023	-0.214	0.089
-605.157	549.118	-0.048	0.117
-604.142	-87.025	-0.088	-0.027
-603.128	-200.000	0.027	0.157
-602.113	18.380	-0.065	-0.052
-601.098	20.930	0.286	0.236
-600.084	65.531	-0.062	-0.064
-599.069	12.100	0.266	0.208
-598.055	47.989	0.193	0.183
-597.040	800.000	0.051	-0.200
-596.025	800.000	0.023	0.072
-595.011	518.598	-0.080	-0.189
-593.996	-164.598	0.176	0.008
-592.982	-143.075	0.209	-0.020
-591.967	-139.651	0.320	-0.035
-590.952	95.293	0.297	-0.343
-589.938	-57.498	0.155	-0.069
-588.923	-200.000	-0.034	-0.242
-587.909	-200.000	-0.010	-0.120
-586.894	267.923	-0.066	-0.118
-585.879	-13.917	0.258	-0.169
-584.865	66.082	0.152	-0.156
-583.850	215.973	0.274	-0.442
-582.836	450.673	-0.041	-0.091
-581.821	-49.106	-0.278	0.135
-580.806	-156.857	-0.285	-0.018
-579.792	-126.539	-0.203	0.031
-578.777	800.000	0.154	-0.548
-577.763	-126.843	-0.270	0.040
-576.748	206.215	0.050	0.079
-575.733	-125.662	0.082	-0.013
-574.719	-174.424	0.178	0.005
-573.704	262.732	-0.079	0.140
-572.690	-110.841	-0.406	-0.085
-571.675	-64.101	0.205	0.085
-570.661	95.599	0.241	0.279
-569.646	-200.000	0.017	-0.208
-568.631	-30.481	0.257	0.148
-567.617	-200.000	0.021	0.422
-566.602	62.112	0.084	-0.085
-565.588	-92.651	-0.079	-0.023
-564.573	75.069	0.098	-0.105
-563.558	-165.087	-0.253	0.011
-562.544	-200.000	0.030	-0.285
-561.529	800.000	-0.108	-0.346
-560.515	78.452	-0.246	0.266
-559.500	800.000	0.021	0.060
-558.485	-200.000	-0.018	-0.359
-557.471	800.000	-0.076	0.304
-556.456	-200.000	-0.002	0.351
-555.442	402.999	0.137	0.292
-554.427	800.000	-0.082	-0.270
-553.412	249.617	0.141	-0.242
-552.398	-116.075	-0.108	-0.020
-551.383	-91.438	0.142	0.041
-550.369	-118.770	-0.134	0.024
-549.354	-117.527	0.254	-0.047
-548.339	218.190	-0.106	0.172
-547.325	800.000	-0.033	0.108
-546.310	292.877	-0.117	0.215
-545.296	-200.000	0.018	-0.213
-544.281	-30.297	-0.044	-0.025
-543.266	-200.000	-0.003	0.315
-542.252	575.826	-0.130	-0.321
-541.237	-200.000	0.010	0.084
-540.223	-26.707	-0.086	-0.051
-539.208	103.118	0.121	0.144
-538.193	-1.503	-0.241	0.172
-537.179	800.000	-0.092	0.328
-536.164	800.000	-0.104	0.352
-535.150	206.964	-0.129	0.204
-534.135	113.074	0.210	-0.258
-533.121	272.054	0.093	-0.165
-532.106	-122.473	0.523	0.086
-531.091	800.000	-0.052	-0.202
-530.077	245.767	-0.110	-0.188
-529.062	-200.000	0.004	-0.438
-528.048	109.519	-0.028	0.034
-527.033	279.439	0.187	-0.339
-526.018	-200.000	-0.054	0.287
-525.004	-200.000	-0.035	0.233
-523.989	74.647	0.088	0.094
-522.975	-115.778	-0.438	0.083
-521.960	-80.429	-0.324	-0.110
-520.945	-138.359	0.207	-0.023
-519.931	276.324	0.106	0.191
-518.916	-61.492	-0.232	-0.099
-517.902	800.000	-0.046	-0.192
-516.887	-200.000	0.027	-0.222
-515.872	-36.761	-0.144	0.078
-514.858	-110.315	0.128	-0.027
-513.843	-120.178	-0.147	-0.025
-512.829	-162.329	0.082	0.004
-511.814	56.106	0.046	-0.046
-510.799	8.519	0.180	-0.137
-509.785	-86.390	0.252	-0.078
-508.770	-145.133	-0.151	0.014
-507.756	-200.000	0.009	-0.269
-506.741	168.076	0.076	0.109
-505.726	-137.840	0.329	-0.037
-504.712	-83.730	0.093	-0.030
-503.697	51.711	-0.100	0.096
-502.683	-127.687	0.213	-0.031
-501.668	-200.000	-0.025	-0.273
-500.653	-191.058	0.124	0.001
-499.639	-29.215	0.271	-0.157
-498.624	12.857	-0.425	-0.332
-497.610	-200.000	-0.039	-0.230
-496.595	-109.725	0.369	0.079
-495.581	-150.445	-0.386	0.030
-494.566	244.017	0.123	0.208
-493.551	-59.620	-0.048	-0.021
-492.537	800.000	0.077	-0.236
-491.522	-105.801	0.306	0.070
-490.508	-200.000	-0.004	0.141
-489.493	-42.588	-0.288	0.148
-488.478	800.000	0.087	0.258
-487.464	-108.687	-0.252	0.055
-486.449	-57.173	0.024	-0.011
-485.435	-49.638	-0.337	0.162
-484.420	-109.489	-0.312	0.067
-483.405	-200.000	-0.037	0.227
-482.391	448.382	-0.074	0.165
-481.376	-61.151	-0.161	-0.069
-480.362	-76.566	-0.285	0.101
-479.347	-200.000	-0.030	0.477
-478.332	800.000	0.055	0.159
-477.318	-84.079	-0.529	0.170
-476.303	46.445	0.094	0.088
-475.289	234.365	0.133	0.222
-474.274	-145.138	-0.461	-0.042
-473.259	-89.531	-0.056	0.017
-472.245	800.000	-0.062	-0.178
-471.230	704.592	0.007	0.020
-470.216	10.563	0.068	0.052
-469.201	-163.457	0.374	-0.018
-468.186	-200.000	0.063	0.415
-467.172	-200.000	0.011	-0.265
-466.157	284.037	-0.172	-0.312
-465.143	15.655	0.165	0.131
-464.128	123.749	0.206	0.261
-463.113	-200.000	0.026	0.118
-462.099	800.000	0.035	0.147
-461.084	87.283	-0.206	-0.230
-460.070	-158.922	-0.068	-0.004
-459.055	120.288	0.307	0.385
-458.040	-88.095	0.271	-0.082
-457.026	50.046	-0.206	0.196
-456.011	-46.833	-0.071	0.035
-454.997	-50.317	-0.342	-0.163
-453.982	7.725	-0.089	-0.068
-452.968	-94.136	-0.093	0.026
-451.953	-65.141	0.214	-0.087
-450.938	257.893	0.082	-0.142
-449.924	-69.863	0.197	0.076
-448.909	189.883	-0.121	0.184
-447.895	11.781	0.087	-0.067
-446.880	-41.325	-0.224	0.117
-445.865	-200.000	-0.013	-0.110
-444.851	-31.625	-0.227	-0.129
-443.836	118.814	-0.201	-0.251
-442.822	7.632	-0.041	0.031
-441.807	67.183	0.071	-0.073
-440.792	18.360	-0.107	-0.086
-439.778	151.673	-0.120	0.164
-438.763	427.698	-0.113	-0.247
-437.749	-200.000	0.024	-0.276
-436.734	-8.764	-0.243	-0.165
-435.719	142.478	-0.139	0.186
-434.705	-77.593	-0.210	-0.073
-433.690	-119.472	0.237	0.041
-432.676	370.095	-0.178	0.363
-431.661	89.744	0.071	0.080
-430.646	-113.119	-0.238	-0.047
-429.632	800.000	-0.049	0.196
-428.617	-9.984	-0.038	-0.026
-427.603	154.433	-0.143	0.198
-426.588	-137.477	0.295	0.034
-425.573	-126.134	0.225	-0.034
-424.559	426.490	-0.096	0.210
-423.544	317.543	0.021	0.040
-422.530	-70.534	-0.422	-0.161
-421.515	-19.865	0.339	-0.211
-420.500	-73.100	0.258	-0.095
-419.486	800.000	0.073	-0.238
-418.471	-200.000	0.000	0.090
-417.457	2.147	0.235	-0.171
-416.442	-200.000	0.015	-0.076
-415.428	-72.962	0.277	-0.102
-414.413	-72.152	0.105	0.039
-413.398	-200.000	-0.021	-0.201
-412.384	769.448	0.120	-0.330
-411.369	800.000	0.115	-0.405
-410.355	-47.068	-0.023	-0.011
-409.340	21.422	0.127	-0.104
-408.325	94.943	0.346	0.396
-407.311	-147.942	0.212	0.018
-406.296	177.635	-0.131	-0.192
-405.282	-66.389	0.215	0.086
-404.267	0.269	0.126	-0.091
-403.252	-200.000	0.001	0.047
-402.238	-2.547	-0.196	-0.138
-401.223	-200.000	0.034	-0.224
-400.209	674.743	-0.010	0.027
-399.194	-121.194	0.186	-0.031
-398.179	128.927	-0.114	0.146
-397.165	-50.176	0.306	0.146
-396.150	-46.083	0.148	0.074
-395.136	-93.343	-0.069	-0.019
-394.121	45.971	0.237	-0.221
-393.106	-9.584	-0.358	0.240
-392.092	-182.594	0.274	0.005
-391.077	20.256	-0.238	-0.194
-390.063	-110.363	-0.107	0.022
-389.048	332.810	0.073	-0.141
-388.033	570.420	-0.064	-0.157
-387.019	375.375	-0.013	0.028
-386.004	-200.000	0.063	0.309
-384.990	19.082	-0.111	-0.090
-383.975	-165.940	-0.117	-0.005
-382.960	-200.000	-0.030	0.187
-381.946	-58.307	-0.125	-0.055
-380.931	491.903	0.092	0.212
-379.917	-68.543	-0.250	-0.098
-378.902	-39.896	-0.407	0.214
-377.888	-200.000	0.032	0.156
-376.873	459.821	-0.162	0.362
-375.858	-109.821	-0.257	-0.054
-374.844	43.524	0.167	0.153
-373.829	-181.999	0.295	-0.006
-372.815	-18.659	0.109	-0.068
-371.800	-200.000	-0.011	-0.216
-370.785	18.884	-0.184	-0.149
-369.771	-163.701	-0.185	0.009
-368.756	-7.966	-0.265	0.180
-367.742	155.158	0.181	0.251
-366.727	-125.539	0.209	0.032
-365.712	522.466	-0.094	-0.222
-364.698	-200.000	-0.013	-0.126
-363.683	-117.561	-0.136	-0.025
-362.669	-200.000	0.035	0.229
-361.654	-137.665	-0.411	-0.047
-360.639	-17.713	0.239	-0.151
-359.625	-67.450	0.372	0.147
-358.610	-94.128	0.291	0.080
-357.596	98.881	-0.080	0.093
-356.581	-63.109	0.138	0.057
-355.566	-166.475	0.219	0.009
-354.552	-92.333	0.162	0.046
-353.537	291.481	0.028	-0.051
-352.523	65.695	-0.363	-0.370
-351.508	32.725	0.187	0.163
-350.493	800.000	-0.027	0.082
-349.479	141.247	-0.174	0.231
-348.464	-85.611	0.285	0.089
-347.450	-58.482	0.279	-0.122
-346.435	800.000	-0.026	0.102
-345.420	-89.722	0.165	0.048
-344.406	800.000	0.073	-0.273
-343.391	-32.396	0.347	-0.195
-342.377	32.375	-0.113	-0.098
-341.362	-46.269	0.073	-0.036
-340.348	-98.103	-0.050	0.013
-339.333	-119.076	-0.110	0.019
-338.318	-15.273	-0.304	-0.195
-337.304	52.403	0.190	-0.182
-336.289	-153.211	-0.239	-0.017
-335.275	-87.047	-0.205	-0.063
-334.260	36.550	0.041	-0.036
-333.245	269.143	-0.193	0.340
-332.231	-136.508	0.250	-0.029
-331.216	-200.000	0.032	-0.187
-330.202	-200.000	-0.050	-0.276
-329.187	500.377	-0.136	-0.315
-328.172	382.360	0.075	0.155
-327.158	-70.291	-0.019	-0.007
-326.143	-81.807	0.347	-0.114
-325.129	6.395	-0.083	0.062
-324.114	-43.628	-0.248	-0.126
-323.099	-47.574	0.100	0.049
-322.085	-112.742	0.089	-0.018
-321.070	-55.497	-0.205	-0.092
-320.056	-200.000	-0.008	-0.037
-319.041	800.000	0.014	0.049
-318.026	355.017	-0.088	-0.177
-317.012	800.000	0.089	0.296
-315.997	-167.983	-0.140	-0.006
-314.983	384.513	-0.188	0.388
-313.968	-200.000	-0.013	-0.136
-312.953	-155.382	-0.387	0.025
-311.939	-80.102	-0.281	-0.095
-310.924	11.870	-0.133	-0.103
-309.910	90.440	0.034	-0.039
-308.895	425.576	0.075	0.162
-307.880	619.610	0.042	0.107
-306.866	449.296	-0.041	-0.091
-305.851	-200.000	0.029	0.148
-304.837	-200.000	0.041	0.222
-303.822	-200.000	-0.002	-0.018
-302.807	-1.403	-0.282	0.200
-301.793	-126.731	0.150	0.022
-300.778	-200.000	-0.015	0.166
-299.764	-156.061	0.161	0.010
-298.749	-101.080	-0.227	0.056
-297.735	-112.466	0.170	0.034
-296.720	800.000	-0.089	-0.304
-295.705	-2.568	0.068	0.048
-294.691	220.160	0.029	-0.047
-293.676	-4.421	-0.041	0.028
-292.662	-19.285	-0.319	-0.198
-291.647	-139.252	0.184	-0.020
-290.632	-121.500	0.313	-0.052
-289.618	218.567	-0.054	0.086
-288.603	-59.526	0.335	-0.144
-287.589	55.278	0.092	0.090
-286.574	-121.473	0.338	-0.056
-285.559	-200.000	-0.035	-0.180
-284.545	767.878	-0.048	-0.130
-283.530	-32.246	0.203	-0.114
-282.516	-51.764	0.170	0.079
-281.501	569.243	-0.165	-0.401
-280.486	-51.119	0.019	0.009
-279.472	800.000	-0.165	0.496
-278.457	800.000	0.099	0.274
-277.443	-96.064	-0.241	0.064
-276.428	-200.000	-0.003	0.281
-275.413	87.723	0.030	0.033
-274.399	0.940	-0.194	0.139
-273.384	-42.505	-0.116	0.059
-272.370	168.689	0.170	0.243
-271.355	-200.000	0.004	0.120
-270.340	-200.000	-0.019	-0.083
-269.326	6.204	-0.203	-0.151
-268.311	-161.149	-0.136	-0.007
-267.297	-200.000	-0.015	0.233
-266.282	-64.666	0.028	0.011
-265.267	-146.930	-0.339	0.029
-264.253	-61.837	-0.280	-0.118
-263.238	102.398	-0.101	0.119
-262.224	800.000	-0.019	0.054
-261.209	569.480	-0.079	0.193
-260.195	660.150	0.019	0.049
-259.180	193.052	0.114	-0.173
-258.165	117.881	0.214	0.265
-257.151	800.000	0.023	0.066
-256.136	-69.098	-0.186	0.072
-255.122	-200.000	0.002	-0.118
-254.107	174.691	0.222	0.321
-253.092	65.642	0.130	-0.132
-252.078	233.730	-0.065	-0.106
-251.063	241.071	-0.167	0.279
-250.049	-172.345	0.107	0.003
-249.034	-200.000	-0.002	0.084
-248.019	163.397	-0.115	0.161
-247.005	-200.000	0.008	0.526
-245.990	800.000	-0.033	0.140
-244.976	-200.000	0.039	0.222
-243.961	-152.674	-0.241	-0.017
-242.946	115.471	0.043	-0.053
-241.932	-104.683	-0.242	-0.056
-240.917	-76.181	-0.025	-0.009
-239.903	322.705	-0.027	0.052
-238.888	-200.000	0.016	-0.290
-237.873	-105.778	0.222	-0.050
-236.859	63.174	-0.233	-0.233
-235.844	-128.843	0.288	-0.041
-234.830	178.481	-0.283	0.413
-233.815	-41.309	-0.242	0.125
-232.800	-200.000	-0.033	0.448
-231.786	-36.142	0.333	0.180
-230.771	800.000	-0.044	0.150
-229.757	563.404	0.103	-0.249
-228.742	-194.699	-0.298	0.002
-227.727	-73.464	-0.103	-0.038
-226.713	25.897	0.122	0.102
-225.698	-54.086	-0.326	0.148
-224.684	-200.000	0.007	0.113
-223.669	-63.087	0.082	0.034
-222.655	-14.789	-0.181	-0.116
-221.640	-43.489	0.121	0.061
-220.625	-99.579	0.160	0.040
-219.611	-150.053	0.181	-0.014
-218.596	-11.964	-0.281	0.184
-217.582	-116.934	0.121	-0.022
-216.567	91.825	0.088	-0.100
-215.552	83.960	0.110	-0.120
-214.538	7.065	0.102	-0.076
-213.523	-73.465	0.204	-0.075
-212.509	73.117	-0.272	0.284
-211.494	799.358	0.073	0.201
-210.479	-38.279	0.070	0.037
-209.465	240.441	-0.057	-0.094
-208.450	4.667	-0.133	0.098
-207.436	800.000	-0.079	-0.335
-206.421	342.320	0.165	-0.323
-205.406	196.085	0.240	0.364
-204.392	256.112	0.139	-0.239
-203.377	-90.802	0.103	0.030
-202.363	-152.701	0.231	0.016
-201.348	-57.730	0.151	0.066
-200.333	800.000	0.034	0.135
-199.319	-200.000	-0.035	-0.177
-198.304	800.000	-0.041	-0.113
-197.290	-126.080	0.230	0.035
-196.275	-172.517	0.034	-0.001
-195.260	141.205	-0.123	-0.162
-194.246	-163.560	0.093	0.004
-193.231	-57.371	0.045	-0.020
-192.217	-64.629	0.240	-0.097
-191.202	521.289	0.041	-0.096
-190.187	-44.957	0.187	-0.093
-189.173	531.363	0.147	-0.348
-188.158	800.000	-0.114	0.478
-187.144	-38.340	0.167	-0.089
-186.129	-22.834	0.148	-0.089
-185.114	151.482	-0.080	-0.109
-184.100	179.615	0.120	0.175
-183.085	511.707	0.151	-0.350
-182.071	-38.427	-0.141	0.074
-181.056	-104.400	0.406	0.094
-180.042	211.051	0.130	-0.205
-179.027	177.213	-0.080	0.116
-178.012	-200.000	-0.068	-0.358
-176.998	212.478	0.147	-0.231
-175.983	352.211	0.041	-0.080
-174.969	-85.893	-0.497	0.154
-173.954	579.945	-0.085	-0.207
-172.939	800.000	0.089	-0.387
-171.925	-200.000	0.012	-0.053
-170.910	-188.538	0.179	-0.002
-169.896	-113.002	-0.187	0.037
-168.881	647.690	0.057	0.147
-167.866	58.643	0.025	-0.024
-166.852	-200.000	0.037	-0.344
-165.837	-153.067	0.300	-0.021
-164.823	94.909	-0.271	0.308
-163.808	126.787	-0.044	0.056
-162.793	623.191	0.123	0.308
-161.779	-200.000	0.033	0.221
-160.764	186.817	0.149	0.222
-159.750	-155.386	-0.170	-0.011
-158.735	25.217	-0.019	-0.015
-157.720	305.256	-0.134	0.249
-156.706	-16.880	0.067	0.042
-155.691	520.693	-0.031	-0.072
-154.677	800.000	0.066	0.268
-153.662	119.556	-0.298	-0.368
-152.647	-56.629	0.403	0.178
-151.633	454.035	-0.046	-0.102
-150.618	631.268	0.135	-0.341
-149.604	189.994	0.239	-0.357
-148.589	-84.692	0.330	0.104
-147.574	-200.000	0.018	0.079
-146.560	91.602	-0.041	-0.046
-145.545	-200.000	0.012	0.299
-144.531	228.440	0.156	0.254
-143.516	-200.000	-0.002	0.037
-142.502	256.059	-0.079	0.135
-141.487	-200.000	-0.016	0.089
-140.472	800.000	-0.072	-0.260
-139.458	-8.361	-0.045	-0.030
-138.443	800.000	-0.028	0.096
-137.429	-123.424	-0.549	-0.087
-136.414	619.294	0.045	0.113
-135.399	53.360	0.063	0.060
-134.385	800.000	-0.086	0.286
-133.370	-200.000	0.023	-0.198
-132.356	226.749	0.093	0.150
-131.341	-149.699	0.228	0.018
-130.326	-71.285	-0.264	-0.099
-129.312	-17.154	-0.211	0.133
-128.297	487.096	-0.042	-0.095
-127.283	93.027	-0.186	0.209
-126.268	123.516	-0.216	0.270
-125.253	-146.925	0.412	-0.035
-124.239	-38.667	-0.376	0.198
-123.224	25.133	0.241	-0.200
-122.210	76.650	-0.158	-0.167
-121.195	-200.000	-0.036	0.497
-120.180	-38.784	-0.065	-0.034
-119.166	-60.522	0.650	-0.275
-118.151	-33.316	-0.100	0.055
-117.137	-125.425	0.209	0.032
-116.122	95.431	0.070	0.080
-115.107	-51.931	0.006	-0.003
-114.093	-57.202	-0.324	0.142
-113.078	253.636	0.115	-0.195
-112.064	52.575	-0.166	0.158
-111.049	-137.855	0.123	-0.014
-110.034	119.935	-0.219	-0.270
-109.020	-130.064	0.384	-0.052
-108.005	-155.624	-0.320	0.020
-106.991	57.309	0.062	0.061
-105.976	91.588	-0.147	-0.165
-104.962	59.584	0.080	0.079
-103.947	-126.100	0.385	0.058
-102.932	76.014	0.332	-0.350
-101.918	536.306	-0.067	-0.158
-100.903	-21.292	-0.120	-0.073
-99.889	-57.043	-0.238	0.104
-98.874	18.778	0.307	0.245
-97.859	-59.103	0.227	-0.098
-96.845	-90.469	0.278	0.080
-95.830	67.150	-0.255	-0.259
-94.816	800.000	0.047	-0.176
-93.801	76.718	-0.086	-0.091
-92.786	134.938	0.098	0.127
-91.772	679.361	-0.028	-0.072
-90.757	593.388	0.037	0.090
-89.743	116.767	-0.195	-0.238
-88.728	157.016	-0.093	-0.127
-87.713	-96.547	0.246	0.065
-86.699	-200.000	-0.011	0.060
-85.684	-200.000	-0.011	-0.165
-84.670	298.609	0.044	-0.081
-83.655	-158.333	-0.361	0.021
-82.640	-20.791	0.069	-0.042
-81.626	-200.000	0.007	0.119
-80.611	800.000	0.105	0.351
-79.597	-133.242	-0.459	-0.058
-78.582	302.443	0.168	-0.310
-77.567	-65.940	-0.305	0.121
-76.553	588.019	0.074	-0.180
-75.538	-200.000	-0.016	0.150
-74.524	-200.000	-0.046	0.230
-73.509	-130.152	-0.183	-0.025
-72.494	8.172	-0.310	0.232
-71.480	113.457	-0.085	-0.103
-70.465	416.021	-0.034	0.072
-69.451	-0.370	-0.139	0.098
-68.436	80.302	-0.133	0.143
-67.422	800.000	-0.086	-0.316
-66.407	30.990	0.160	0.137
-65.392	-133.284	0.324	-0.041
-64.378	-165.772	-0.124	0.005
-63.363	-127.984	0.135	-0.019
-62.349	75.085	0.200	0.209
-61.334	65.168	-0.996	-1.001
-60.319	226.869	-0.099	0.160
-59.305	-200.000	-0.140	-0.809
-58.290	102.810	0.457	0.532
-57.276	800.000	0.360	1.470
-56.261	-200.000	96.909	572.178
-55.246	633.898	1385.953	3492.543
-54.232	183.738	2609.827	3836.160
-53.217	112.318	2337.342	2809.284
-52.203	41.371	2085.692	1874.974
-51.188	36.449	1997.824	1751.426
-50.173	34.752	1980.057	1720.517
-49.159	49.376	2032.179	1899.596
-48.144	52.400	2051.595	1945.272
-47.130	37.142	2008.407	1766.743
-46.115	34.672	1997.229	1734.440
-45.100	34.516	1993.844	1730.016
-44.086	34.512	1992.230	1728.505
-43.071	34.467	1989.337	1725.526
-42.057	34.382	1987.196	1722.827
-41.042	34.514	1984.984	1722.034
-40.027	34.506	1983.276	1720.408
-39.013	34.634	1980.484	1719.078
-37.998	34.582	1979.063	1717.302
-36.984	34.637	1977.354	1716.249
-35.969	34.662	1975.156	1714.497
-34.954	34.733	1972.838	1713.054
-33.940	34.616	1971.870	1711.099
-32.925	34.656	1970.196	1709.930
-31.911	34.687	1968.643	1708.797
-30.896	34.713	1966.501	1707.098
-29.881	34.600	1965.240	1704.927
-28.867	34.636	1963.806	1703.943
-27.852	34.631	1962.655	1702.827
-26.838	34.731	1959.759	1701.139
-25.823	34.670	1958.516	1699.447
-24.809	34.692	1956.469	1697.799
-23.794	34.630	1954.881	1695.807
-22.779	34.588	1953.674	1694.320
-21.765	34.653	1951.339	1692.799
-20.750	34.630	1950.098	1691.450
-19.736	34.568	1948.617	1689.554
-18.721	34.671	1947.081	1689.063
-17.706	34.648	1945.579	1687.496
-16.692	34.688	1943.552	1686.018
-15.677	34.667	1942.092	1684.502
-14.663	34.713	1940.517	1683.474
-13.648	34.770	1939.239	1682.803
-12.633	34.786	1937.694	1681.535
-11.619	34.642	1936.870	1679.487
-10.604	34.697	1935.479	1678.693
-9.590	34.672	1933.818	1676.973
-8.575	34.643	1932.467	1675.475
-7.560	34.701	1931.356	1674.960
-6.546	34.682	1930.010	1673.554
-5.531	34.629	1929.032	1672.173
-4.517	34.752	1926.887	1671.324
-3.502	34.704	1926.061	1670.127
-2.487	34.724	1924.792	1669.133
-1.473	34.663	1924.235	1668.050
-0.458	34.741	1920.050	1665.034
0.556	37.417	1900.341	1639.269
1.571	33.152	1880.931	1586.682
2.586	28.665	1902.456	1566.512
3.600	27.112	1937.442	1581.676
4.615	25.792	1930.713	1564.577
5.629	19.924	1829.036	1433.606
6.644	10.101	1708.621	1262.741
7.659	5.196	1669.503	1196.215
8.673	4.779	1665.849	1190.305
9.688	4.775	1665.004	1189.563
10.702	4.852	1663.343	1188.861
11.717	4.885	1660.390	1186.894
12.731	5.530	1661.143	1192.248
13.746	12.168	1676.564	1254.102
14.761	20.350	1693.855	1329.860
15.775	22.877	1696.801	1351.414
16.790	22.329	1694.841	1345.550
17.804	21.331	1691.605	1335.237
18.819	20.342	1688.544	1325.158
19.834	19.862	1685.892	1319.299
20.848	19.551	1684.304	1315.574
21.863	19.396	1683.310	1313.496
22.877	19.185	1681.833	1310.625
23.892	18.897	1680.858	1307.561
24.907	18.920	1679.712	1306.722
25.921	18.932	1678.660	1305.880
26.936	18.920	1677.212	1304.552
27.950	18.855	1676.583	1303.452
28.965	19.029	1675.516	1303.822
29.980	19.065	1674.881	1303.490
30.994	19.140	1674.377	1303.553
32.009	19.200	1673.277	1303.035
33.023	19.237	1672.713	1302.760
34.038	19.332	1671.505	1302.419
35.053	19.311	1670.242	1301.157
36.067	19.152	1669.086	1298.944
37.082	19.119	1667.923	1297.678
38.096	19.176	1666.539	1296.915
39.111	19.163	1666.197	1296.437
40.126	19.238	1665.597	1296.418
41.140	19.255	1664.304	1295.427
42.155	19.016	1662.563	1292.161
43.169	18.808	1660.934	1289.218
44.184	18.666	1659.909	1287.247
45.199	18.702	1658.669	1286.435
46.213	18.710	1657.203	1285.252
47.228	18.690	1657.030	1284.847
48.242	18.874	1655.529	1284.949
49.257	19.021	1655.112	1285.608
50.271	19.070	1653.492	1284.604
51.286	18.985	1652.724	1283.258
52.301	19.133	1650.575	1282.580
53.315	19.036	1649.353	1280.798
54.330	19.011	1648.226	1279.620
55.344	18.860	1645.915	1276.589
56.359	18.738	1644.779	1274.694
57.374	18.798	1643.871	1274.318
58.388	18.787	1642.793	1273.287
59.403	18.788	1641.017	1271.808
60.417	18.721	1639.689	1270.172
61.432	18.676	1638.791	1269.033
62.447	18.552	1637.879	1267.295
63.461	18.520	1636.284	1265.711
64.476	18.442	1635.508	1264.426
65.490	18.545	1634.234	1264.086
66.505	18.566	1632.723	1262.961
67.520	18.516	1631.943	1261.879
68.534	18.552	1630.858	1261.196
69.549	18.501	1630.118	1260.131
70.563	18.528	1628.859	1259.247
71.578	18.462	1627.830	1257.860
72.593	18.397	1626.453	1256.207
73.607	18.395	1625.213	1255.120
74.622	18.283	1624.290	1253.475
75.636	18.323	1623.443	1253.003
76.651	18.387	1622.613	1252.719
77.666	18.387	1621.839	1252.015
78.680	18.433	1621.097	1251.665
79.695	18.439	1620.525	1251.154
80.709	18.549	1619.257	1250.866
81.724	18.613	1618.774	1250.853
82.739	18.720	1618.138	1251.033
83.753	18.804	1617.547	1251.076
84.768	18.827	1616.320	1250.183
85.782	18.887	1615.900	1250.180
86.797	19.116	1615.071	1251.096
87.812	19.204	1613.972	1250.770
88.826	19.108	1613.010	1249.217
89.841	18.967	1611.950	1247.269
90.855	19.051	1610.077	1246.315
91.870	19.091	1609.623	1246.144
92.884	19.123	1608.947	1245.740
93.899	19.189	1607.768	1245.196
94.914	19.191	1606.948	1244.465
95.928	19.184	1605.643	1243.294
96.943	19.258	1604.545	1242.864
97.957	19.269	1602.495	1241.243
98.972	19.162	1601.080	1239.271
99.987	19.216	1599.143	1238.053
101.001	19.162	1597.679	1236.420
102.016	19.172	1596.475	1235.451
103.030	19.074	1595.118	1233.587
104.045	19.124	1594.179	1233.108
105.060	19.189	1592.778	1232.381
106.074	19.137	1591.276	1230.739
107.089	18.926	1589.255	1227.560
108.103	18.665	1587.858	1224.515
109.118	18.508	1586.181	1221.995
110.133	18.390	1585.287	1220.352
111.147	18.475	1583.400	1219.396
112.162	18.480	1582.336	1218.504
113.176	18.522	1580.504	1217.286
114.191	18.574	1579.197	1216.541
115.206	18.781	1578.283	1217.197
116.220	18.745	1577.093	1215.916
117.235	18.671	1575.669	1214.186
118.249	18.635	1574.421	1212.866
119.264	18.607	1573.434	1211.797
120.279	18.520	1571.821	1209.834
121.293	18.496	1569.994	1208.153
122.308	18.462	1568.903	1206.968
123.322	18.449	1567.235	1205.488
124.337	18.300	1565.540	1203.028
125.352	18.337	1564.115	1202.084
126.366	18.381	1562.957	1201.402
127.381	18.292	1561.589	1199.618
128.395	18.318	1560.896	1199.161
129.410	18.390	1559.553	1198.524
130.424	18.362	1558.358	1197.308
131.439	18.408	1557.382	1196.768
132.454	18.505	1555.984	1196.269
133.468	18.596	1554.786	1195.874
134.483	18.656	1553.509	1195.207
135.497	18.698	1551.982	1194.219
136.512	18.750	1550.675	1193.469
137.527	18.662	1549.500	1191.849
138.541	18.790	1547.484	1191.076
139.556	18.852	1546.377	1190.552
140.570	18.883	1545.605	1190.064
141.585	18.887	1544.458	1189.107
142.600	18.918	1543.397	1188.395
143.614	19.132	1541.883	1188.606
144.629	19.132	1541.496	1188.200
145.643	19.299	1540.071	1188.145
146.658	19.230	1538.917	1186.676
147.673	19.166	1536.977	1184.639
148.687	18.941	1535.675	1181.982
149.702	18.902	1533.929	1180.265
150.716	18.799	1532.519	1178.367
151.731	18.822	1530.681	1177.010
152.746	18.881	1529.519	1176.415
153.760	18.796	1528.128	1174.657
154.775	18.789	1527.221	1173.814
155.789	18.964	1525.987	1173.955
156.804	18.971	1524.999	1173.138
157.819	19.039	1523.394	1172.260
158.833	19.143	1522.255	1171.991
159.848	19.110	1521.632	1171.180
160.862	19.241	1520.656	1171.216
161.877	19.338	1519.300	1170.726
162.892	19.150	1517.626	1168.061
163.906	18.848	1516.215	1164.823
164.921	18.872	1514.735	1163.743
165.935	18.884	1513.594	1162.846
166.950	18.794	1512.974	1161.664
167.964	19.005	1511.539	1161.882
168.979	18.948	1510.819	1160.843
169.994	18.915	1510.068	1159.939
171.008	18.876	1509.096	1158.826
172.023	19.007	1507.646	1158.493
173.037	19.069	1506.733	1158.105
174.052	18.990	1506.008	1156.915
175.067	19.173	1504.698	1157.035
176.081	19.094	1503.538	1155.510
177.096	18.893	1501.433	1152.442
178.110	18.780	1500.454	1150.834
179.125	18.738	1499.400	1149.640
180.140	18.839	1498.845	1149.789
181.154	18.971	1497.494	1149.532
182.169	18.990	1496.686	1148.941
183.183	19.107	1495.629	1148.804
184.198	19.225	1494.523	1148.640
185.213	19.273	1493.535	1148.104
186.227	19.311	1492.353	1147.345
187.242	19.254	1491.777	1146.419
188.256	19.390	1490.371	1146.143
189.271	19.498	1488.883	1145.616
190.286	19.465	1488.582	1145.063
191.300	19.365	1487.516	1143.475
192.315	19.093	1485.710	1140.184
193.329	18.842	1483.899	1137.031
194.344	18.821	1482.901	1136.033
195.359	18.916	1481.919	1135.808
196.373	18.944	1481.587	1135.638
197.388	18.991	1480.686	1135.155
198.402	19.226	1479.466	1135.667
199.417	19.338	1478.541	1135.597
200.432	19.494	1477.686	1135.868
201.446	19.667	1476.923	1136.314
202.461	19.776	1475.914	1136.156
203.475	19.757	1474.912	1135.156
204.490	19.889	1473.591	1134.907
205.504	19.732	1472.615	1133.024
206.519	19.420	1471.428	1129.972
207.534	19.387	1470.724	1129.112
208.548	19.336	1469.048	1127.389
209.563	19.407	1468.199	1127.102
210.577	19.379	1467.207	1126.064
211.592	19.371	1466.365	1125.260
212.607	19.457	1465.626	1125.160
213.621	19.645	1464.997	1125.797
214.636	19.696	1463.731	1125.056
215.650	19.623	1462.813	1123.781
216.665	19.622	1461.850	1122.932
217.680	19.655	1461.450	1122.743
218.694	19.784	1460.667	1122.875
219.709	19.952	1459.822	1123.217
220.723	19.794	1458.821	1121.328
221.738	19.755	1458.085	1120.408
222.753	19.751	1456.881	1119.357
223.767	19.774	1455.965	1118.705
224.782	19.744	1455.467	1118.028
225.796	19.862	1453.975	1117.546
226.811	19.999	1453.282	1117.795
227.826	20.006	1452.717	1117.312
228.840	19.871	1452.161	1115.912
229.855	19.777	1450.644	1114.044
230.869	19.740	1449.249	1112.633
231.884	19.710	1448.246	1111.575
232.899	19.751	1447.560	1111.208
233.913	19.561	1446.180	1108.836
234.928	19.572	1444.871	1107.803
235.942	19.463	1443.552	1105.997
236.957	19.412	1442.342	1104.641
237.972	19.465	1441.147	1103.967
238.986	19.467	1440.370	1103.290
240.001	19.466	1439.358	1102.410
241.015	19.554	1438.284	1102.054
242.030	19.499	1437.543	1101.038
243.045	19.634	1436.312	1100.853
244.059	19.680	1435.613	1100.515
245.074	19.838	1434.418	1100.507
246.088	19.772	1433.772	1099.493
247.103	19.813	1433.459	1099.419
248.117	19.967	1432.408	1099.495
249.132	20.064	1431.545	1099.348
250.147	20.077	1431.390	1099.216
251.161	20.268	1430.727	1099.819
252.176	20.463	1430.703	1100.936
253.190	20.572	1429.604	1100.685
254.205	20.576	1429.081	1100.214
255.220	20.622	1428.333	1099.829
256.234	20.635	1427.627	1099.273
257.249	20.680	1426.516	1098.603
258.263	20.588	1425.643	1097.252
259.278	20.730	1424.700	1097.324
260.293	20.604	1423.978	1095.873
261.307	20.632	1423.117	1095.291
262.322	20.691	1422.318	1094.952
263.336	20.711	1421.639	1094.461
264.351	20.822	1420.367	1094.081
265.366	20.797	1419.552	1093.198
266.380	20.852	1418.613	1092.727
267.395	20.878	1417.746	1092.125
268.409	20.842	1416.662	1090.966
269.424	20.698	1415.669	1089.201
270.439	20.641	1414.749	1088.040
271.453	20.612	1413.590	1086.871
272.468	20.689	1412.545	1086.455
273.482	20.420	1412.232	1084.440
274.497	20.506	1411.130	1084.034
275.512	20.488	1409.973	1082.935
276.526	20.494	1409.191	1082.275
277.541	20.518	1408.494	1081.796
278.555	20.478	1407.643	1080.799
279.570	20.467	1406.317	1079.617
280.585	20.706	1405.360	1080.269
281.599	20.720	1405.473	1080.349
282.614	20.827	1404.558	1080.213
283.628	20.715	1403.109	1078.306
284.643	20.610	1401.753	1076.520
285.657	20.669	1400.520	1075.843
286.672	20.550	1399.898	1074.537
287.687	20.634	1399.004	1074.270
288.701	20.618	1398.024	1073.324
289.716	20.576	1397.378	1072.475
290.730	20.569	1396.809	1071.902
291.745	20.707	1395.093	1071.340
292.760	20.645	1394.534	1070.434
293.774	20.782	1393.201	1070.155
294.789	20.859	1392.250	1069.807
295.803	20.929	1391.617	1069.654
296.818	20.959	1391.201	1069.421
297.833	20.836	1390.012	1067.663
298.847	20.757	1388.653	1066.041
299.862	20.707	1388.116	1065.223
300.876	20.740	1387.194	1064.623
301.891	20.743	1386.326	1063.881
302.906	20.745	1385.782	1063.386
303.920	20.877	1384.964	1063.466
304.935	20.968	1384.153	1063.308
305.949	21.107	1383.663	1063.683
306.964	21.230	1383.115	1063.919
307.979	21.293	1382.206	1063.507
308.993	21.238	1381.030	1062.177
310.008	21.166	1379.555	1060.507
311.022	21.150	1378.849	1059.772
312.037	21.241	1377.679	1059.336
313.052	21.164	1377.591	1058.704
314.066	21.168	1375.911	1057.343
315.081	20.998	1374.791	1055.363
316.095	20.854	1373.696	1053.555
317.110	20.874	1372.446	1052.626
318.125	20.739	1371.556	1051.033
319.139	20.784	1370.563	1050.454
320.154	20.825	1369.372	1049.691
321.168	20.772	1368.460	1048.584
322.183	20.828	1367.537	1048.118
323.197	20.834	1366.684	1047.409
324.212	20.894	1366.096	1047.224
325.227	21.006	1365.159	1047.088
326.241	21.002	1364.333	1046.336
327.256	21.010	1363.648	1045.769
328.270	21.058	1362.568	1045.133
329.285	20.982	1361.574	1043.824
330.300	20.913	1360.493	1042.491
331.314	21.003	1359.847	1042.443
332.329	20.999	1358.781	1041.512
333.343	21.032	1357.983	1041.004
334.358	20.918	1357.624	1039.954
335.373	21.024	1356.798	1039.858
336.387	21.180	1355.927	1040.033
337.402	21.227	1355.281	1039.726
338.416	21.169	1354.620	1038.777
339.431	21.278	1354.060	1038.907
340.446	21.344	1353.337	1038.652
341.460	21.450	1352.766	1038.752
342.475	21.532	1351.562	1038.221
343.489	21.630	1350.790	1038.120
344.504	21.727	1349.943	1037.950
345.519	21.770	1349.027	1037.408
346.533	21.826	1348.101	1036.936
347.548	21.799	1347.114	1035.926
348.562	21.881	1346.784	1036.063
349.577	21.959	1345.742	1035.633
350.592	21.764	1344.621	1033.525
351.606	21.593	1343.405	1031.493
352.621	21.431	1342.072	1029.427
353.635	21.370	1340.886	1028.065
354.650	21.339	1340.594	1027.567
355.665	21.283	1339.502	1026.313
356.679	21.330	1338.319	1025.590
357.694	21.442	1337.077	1025.204
358.708	21.556	1335.788	1024.794
359.723	21.508	1335.701	1024.352
360.738	21.635	1334.282	1023.920
361.752	21.636	1333.023	1022.868
362.767	21.683	1331.955	1022.232
363.781	21.747	1331.244	1021.965
364.796	21.644	1330.841	1020.968
365.810	21.725	1330.270	1020.909
366.825	21.741	1329.612	1020.410
367.840	21.957	1329.086	1021.175
368.854	22.018	1328.381	1020.896
369.869	22.104	1327.898	1020.936
370.883	22.140	1327.391	1020.660
371.898	22.092	1326.406	1019.536
372.913	22.070	1325.171	1018.369
373.927	21.945	1324.274	1016.867
374.942	21.884	1323.814	1016.070
375.956	21.975	1323.323	1016.129
376.971	22.142	1322.195	1016.137
377.986	22.091	1321.101	1014.912
379.000	21.966	1320.582	1013.702
380.015	22.095	1319.995	1013.905
381.029	22.186	1319.333	1013.836
382.044	22.321	1318.750	1014.071
383.059	22.335	1317.907	1013.415
384.073	22.269	1317.051	1012.287
385.088	22.245	1316.173	1011.387
386.102	22.195	1316.104	1010.954
387.117	22.186	1315.317	1010.210
388.132	22.228	1313.963	1009.324
389.146	22.102	1312.748	1007.577
390.161	22.044	1311.771	1006.403
391.175	22.025	1311.148	1005.728
392.190	21.973	1310.634	1004.948
393.205	22.092	1309.609	1004.756
394.219	22.278	1308.615	1004.966
395.234	22.271	1307.939	1004.319
396.248	22.283	1306.350	1003.075
397.263	22.204	1304.477	1001.100
398.278	22.154	1303.714	1000.141
399.292	22.145	1302.005	998.692
400.307	21.999	1301.350	997.269
401.321	21.999	1299.938	996.103
402.336	21.886	1298.658	994.393
403.350	21.893	1298.100	993.914
404.365	21.864	1297.293	993.047
405.380	21.882	1296.665	992.578
406.394	22.079	1295.640	992.818
407.409	22.135	1295.180	992.696
408.423	22.140	1294.461	992.086
409.438	22.286	1294.161	992.591
410.453	22.407	1293.412	992.613
411.467	22.507	1292.690	992.532
412.482	22.570	1292.234	992.451
413.496	22.647	1291.486	992.221
414.511	22.651	1290.813	991.638
415.526	22.770	1290.077	991.658
416.540	22.793	1289.199	991.023
417.555	22.885	1288.591	990.980
418.569	22.843	1288.371	990.492
419.584	22.722	1288.174	989.570
420.599	22.700	1287.196	988.610
421.613	143.657	1431.409	1788.522
422.628	138.670	1452.428	1788.650
