DTS Sentinel unit serial number:	SN413079Multiplexer serial number:	ORYXHardware model number:	OX4-SRSoftware version number:	ORYX F/W v4.00 Oryx Data Collector v3.7.2.0data status	okinstallation	princeton_trtdifferential loss correction	single-endedforward channel	channel 4reverse channel	N/Adate	2019/09/11time	05:47:11forward acquisition time	60.00reverse acquisition time	0.00gamma	496.2192k internal	0.2316k external	0.2316temperature offset calibration	0.9946default loss term (dB/km)	0.3790temperature slope calibration	1.0000multiplexer offset coefficient	1.0000multiplexer slope coefficient	1.0000fibre end	0.00T internal ref (°C)	29.41T ext. ref 1 (°C)	-0.24T ext. ref 2 (°C)	23.51length (m)	temperature (°C)	Stokes	anti-Stokes-747.200	101.980	-0.208	0.245
-746.185	-200.000	0.033	0.205
-745.171	-14.386	0.318	0.207
-744.156	-81.864	0.032	-0.010
-743.142	105.489	-0.134	0.160
-742.127	-97.309	-0.197	0.052
-741.112	-28.501	0.414	-0.242
-740.098	-200.000	-0.044	0.470
-739.083	34.338	-0.119	-0.105
-738.069	-29.080	-0.155	0.090
-737.054	-117.529	-0.364	0.067
-736.039	-200.000	-0.033	-0.252
-735.025	201.588	0.150	-0.234
-734.010	96.906	0.140	-0.163
-732.996	234.052	0.077	-0.129
-731.981	-200.000	-0.034	-0.255
-730.966	-45.950	-0.309	0.154
-729.952	-87.858	-0.142	0.043
-728.937	131.306	0.032	0.042
-727.923	-132.244	0.146	-0.019
-726.908	-200.000	-0.014	0.123
-725.894	105.934	0.191	-0.229
-724.879	800.000	-0.118	-0.399
-723.864	800.000	0.060	-0.172
-722.850	-200.000	-0.043	-0.308
-721.835	-85.276	-0.169	0.053
-720.821	62.513	-0.141	-0.142
-719.806	-143.775	-0.213	0.020
-718.791	800.000	-0.083	-0.318
-717.777	-200.000	0.010	-0.429
-716.762	-200.000	0.015	-0.177
-715.748	-200.000	-0.008	-0.043
-714.733	-133.023	-0.172	0.022
-713.718	41.018	-0.131	-0.120
-712.704	800.000	0.046	-0.167
-711.689	177.116	0.009	-0.013
-710.675	800.000	0.055	-0.184
-709.660	800.000	0.007	-0.030
-708.645	234.768	-0.101	-0.169
-707.631	-200.000	0.023	-0.158
-706.616	800.000	0.041	-0.122
-705.602	92.727	0.120	0.137
-704.587	800.000	0.128	-0.364
-703.572	334.269	0.090	-0.176
-702.558	-95.017	-0.359	-0.098
-701.543	120.719	0.226	0.284
-700.529	401.843	-0.020	-0.043
-699.514	-185.313	-0.186	0.003
-698.499	-132.691	-0.184	0.024
-697.485	-200.000	-0.068	-0.349
-696.470	410.221	0.174	-0.373
-695.456	800.000	-0.057	-0.186
-694.441	-200.000	0.033	0.156
-693.426	146.968	0.102	-0.139
-692.412	-41.637	0.277	0.144
-691.397	363.940	-0.056	0.113
-690.383	67.361	0.106	-0.109
-689.368	-59.392	0.065	-0.028
-688.354	-62.013	-0.060	0.025
-687.339	800.000	-0.099	0.339
-686.324	31.872	-0.186	0.162
-685.310	-200.000	-0.036	-0.213
-684.295	-144.147	0.120	0.011
-683.281	44.939	-0.308	-0.287
-682.266	-200.000	0.004	0.205
-681.251	-72.891	0.136	0.051
-680.237	-200.000	0.012	0.178
-679.222	182.327	-0.139	0.207
-678.208	-72.821	0.320	-0.119
-677.193	-200.000	-0.131	0.001
-676.178	-89.002	-0.313	0.094
-675.164	146.528	0.064	0.087
-674.149	800.000	-0.044	0.191
-673.135	800.000	-0.022	0.088
-672.120	7.994	0.100	-0.076
-671.105	-200.000	0.002	-0.091
-670.091	-200.000	-0.055	-0.496
-669.076	120.391	0.113	0.141
-668.062	-92.712	0.464	0.131
-667.047	-25.930	0.156	-0.092
-666.032	800.000	0.020	0.082
-665.018	-82.753	0.065	0.021
-664.003	362.585	-0.133	0.270
-662.989	-71.020	0.341	-0.130
-661.974	-167.535	0.484	0.019
-660.959	470.713	-0.105	0.239
-659.945	-98.430	0.036	-0.009
-658.930	198.125	-0.160	0.247
-657.916	-140.232	-0.163	-0.017
-656.901	336.737	-0.040	0.079
-655.886	180.833	-0.050	-0.074
-654.872	-159.541	-0.131	-0.007
-653.857	100.848	0.059	0.069
-652.843	-119.098	0.189	-0.033
-651.828	-11.059	-0.221	-0.147
-650.814	166.229	-0.025	-0.036
-649.799	-17.852	-0.149	-0.095
-648.784	-134.590	-0.239	0.029
-647.770	-200.000	-0.022	-0.137
-646.755	-200.000	-0.023	0.233
-645.741	-139.645	0.177	-0.019
-644.726	360.808	-0.209	-0.423
-643.711	-143.686	0.192	-0.018
-642.697	-200.000	-0.028	0.374
-641.682	-74.641	0.198	-0.072
-640.668	451.602	0.048	0.106
-639.653	-88.186	-0.095	0.029
-638.638	32.111	-0.251	-0.219
-637.624	-131.775	0.030	-0.004
-636.609	-200.000	-0.039	-0.203
-635.595	-200.000	0.011	-0.348
-634.580	-200.000	0.039	-0.182
-633.565	-112.862	0.122	-0.024
-632.551	-184.813	-0.190	0.003
-631.536	-200.000	-0.007	0.051
-630.522	-80.557	-0.123	-0.041
-629.507	18.465	0.052	-0.042
-628.492	385.505	-0.047	-0.097
-627.478	157.473	0.056	0.078
-626.463	78.505	0.268	-0.288
-625.449	-200.000	-0.015	0.073
-624.434	-87.696	-0.083	0.025
-623.419	796.278	-0.057	0.158
-622.405	-55.126	0.257	0.117
-621.390	-200.000	0.019	0.089
-620.376	64.615	0.135	0.137
-619.361	-76.902	0.095	-0.033
-618.346	17.973	-0.199	0.160
-617.332	-95.494	-0.125	0.034
-616.317	-188.326	0.158	0.002
-615.303	800.000	-0.054	0.221
-614.288	-194.455	0.063	-0.001
-613.273	-200.000	0.018	0.194
-612.259	28.770	0.196	0.168
-611.244	258.855	0.135	0.235
-610.230	-56.933	0.340	-0.151
-609.215	277.129	-0.159	-0.284
-608.201	-130.069	0.107	-0.015
-607.186	800.000	0.062	0.216
-606.171	-69.924	-0.096	0.037
-605.157	-54.148	-0.305	-0.140
-604.142	-43.925	-0.213	-0.108
-603.128	-36.760	-0.239	-0.129
-602.113	-144.074	0.203	0.019
-601.098	800.000	-0.050	-0.157
-600.084	800.000	-0.106	-0.295
-599.069	-200.000	0.051	-0.276
-598.055	478.350	-0.030	-0.068
-597.040	800.000	0.035	-0.133
-596.025	-200.000	-0.013	0.199
-595.011	74.939	0.143	-0.151
-593.996	-200.000	0.001	-0.248
-592.982	497.490	-0.054	0.125
-591.967	172.387	-0.092	-0.134
-590.952	800.000	0.021	-0.088
-589.938	488.564	0.131	0.302
-588.923	-189.343	-0.208	-0.002
-587.909	-119.252	-0.150	0.026
-586.894	-200.000	0.033	-0.220
-585.879	65.414	-0.133	-0.136
-584.865	25.789	0.174	-0.146
-583.850	432.584	-0.048	-0.104
-582.836	340.324	0.040	-0.079
-581.821	77.548	-0.097	-0.104
-580.806	-64.840	0.164	-0.067
-579.792	-68.416	-0.080	-0.031
-578.777	-129.942	-0.249	0.034
-577.763	-98.706	0.107	0.028
-576.748	148.287	-0.095	0.130
-575.733	-48.077	-0.270	-0.131
-574.719	543.590	-0.052	-0.124
-573.704	-47.148	0.114	0.056
-572.690	-137.200	0.069	0.008
-571.675	-200.000	-0.019	0.383
-570.661	-32.314	-0.110	0.062
-569.646	-200.000	0.024	-0.272
-568.631	-200.000	-0.012	0.089
-567.617	-140.517	-0.203	-0.021
-566.602	-116.867	-0.487	-0.090
-565.588	1.908	0.160	-0.116
-564.573	-81.437	-0.474	-0.157
-563.558	26.400	0.288	0.242
-562.544	495.217	-0.042	-0.098
-561.529	0.072	0.147	0.105
-560.515	-120.171	-0.213	-0.037
-559.500	-200.000	0.055	0.300
-558.485	-181.777	-0.234	0.005
-557.471	-23.738	0.313	-0.189
-556.456	-165.939	0.360	-0.016
-555.442	205.545	0.090	0.140
-554.427	-200.000	-0.007	0.108
-553.412	16.698	0.117	-0.093
-552.398	294.329	-0.106	0.195
-551.383	-48.469	0.136	0.066
-550.369	-119.913	0.350	-0.060
-549.354	290.184	0.068	-0.123
-548.339	-106.095	-0.362	0.082
-547.325	53.790	0.275	0.266
-546.310	115.898	-0.173	-0.213
-545.296	-69.499	0.040	0.016
-544.281	267.291	0.068	-0.119
-543.266	-27.525	0.164	-0.096
-542.252	-44.787	-0.230	-0.115
-541.237	-46.982	-0.209	-0.103
-540.223	-200.000	0.035	-0.293
-539.208	-134.712	-0.366	-0.045
-538.193	-194.606	-0.139	0.001
-537.179	263.014	-0.152	0.266
-536.164	343.871	0.049	0.096
-535.150	-200.000	0.017	-0.377
-534.135	87.387	0.338	-0.376
-533.121	52.029	0.193	0.185
-532.106	-200.000	-0.032	0.216
-531.091	193.694	-0.195	0.296
-530.077	269.382	0.029	0.052
-529.062	277.364	0.085	-0.151
-528.048	448.044	-0.099	0.219
-527.033	433.484	-0.016	-0.034
-526.018	175.609	0.048	-0.070
-525.004	-115.209	-0.239	-0.045
-523.989	-75.353	0.235	-0.084
-522.975	-164.396	0.260	0.012
-521.960	396.687	0.087	0.182
-520.945	-179.552	-0.335	0.007
-519.931	98.909	0.087	0.101
-518.916	-200.000	-0.002	-0.067
-517.902	340.082	-0.105	-0.207
-516.887	97.268	-0.135	-0.156
-515.872	800.000	0.052	-0.148
-514.858	655.719	0.019	0.049
-513.843	127.018	0.167	-0.213
-512.829	326.940	-0.066	-0.127
-511.814	-94.639	0.173	-0.047
-510.799	251.240	-0.169	0.289
-509.785	-200.000	-0.002	-0.207
-508.770	-6.703	0.153	0.105
-507.756	-140.223	-0.102	-0.011
-506.741	-109.228	-0.259	0.055
-505.726	-90.248	0.204	-0.059
-504.712	-200.000	0.082	-0.371
-503.697	280.713	-0.056	-0.100
-502.683	-177.969	-0.642	0.015
-501.668	242.535	0.126	0.212
-500.653	37.866	0.090	-0.081
-499.639	11.229	-0.047	-0.036
-498.624	-137.012	-0.355	0.041
-497.610	-187.356	-0.158	0.002
-496.595	70.135	-0.111	0.115
-495.581	-200.000	-0.033	0.148
-494.566	-132.149	0.160	0.021
-493.551	336.576	-0.092	-0.179
-492.537	-16.038	-0.202	-0.129
-491.522	-200.000	0.011	0.124
-490.508	-85.238	-0.149	0.047
-489.493	-116.625	-0.131	-0.024
-488.478	114.622	-0.353	-0.431
-487.464	161.374	0.123	0.173
-486.449	-200.000	-0.028	-0.303
-485.435	-83.451	0.356	0.114
-484.420	-161.617	-0.333	-0.017
-483.405	800.000	0.175	-0.521
-482.391	280.873	0.061	0.109
-481.376	-140.384	0.247	0.026
-480.362	-200.000	0.066	-0.442
-479.347	-106.358	-0.252	0.057
-478.332	488.839	0.074	0.170
-477.318	74.916	0.280	-0.296
-476.303	361.185	-0.202	0.405
-475.289	-22.499	0.035	0.021
-474.274	-177.931	0.115	0.003
-473.259	800.000	-0.082	-0.256
-472.245	-32.994	-0.090	-0.050
-471.230	-71.910	0.178	-0.066
-470.216	800.000	-0.155	-0.470
-469.201	-200.000	0.007	0.120
-468.186	-200.000	-0.010	-0.281
-467.172	531.065	-0.020	-0.047
-466.157	-200.000	0.025	0.321
-465.143	35.409	0.221	-0.194
-464.128	800.000	-0.103	-0.314
-463.113	-161.844	0.220	-0.011
-462.099	271.199	0.177	-0.313
-461.084	800.000	-0.069	-0.200
-460.070	616.425	0.204	0.513
-459.055	-12.943	0.141	0.092
-458.040	-200.000	-0.021	0.296
-457.026	-21.688	-0.295	0.180
-456.011	800.000	0.027	0.080
-454.997	-200.000	0.037	-0.312
-453.982	355.294	-0.076	-0.151
-452.968	51.387	-0.202	0.192
-451.953	-86.732	0.128	0.039
-450.938	-15.650	-0.111	0.071
-449.924	73.714	-0.179	-0.188
-448.909	-56.909	-0.244	-0.108
-447.895	154.359	-0.200	-0.275
-446.880	88.227	-0.090	0.100
-445.865	62.396	-0.069	0.069
-444.851	-15.661	0.224	0.143
-443.836	-17.306	-0.109	-0.068
-442.822	-49.966	-0.421	-0.200
-441.807	343.531	0.033	-0.064
-440.792	7.688	-0.366	0.274
-439.778	-200.000	-0.016	0.138
-438.763	-71.127	0.231	-0.087
-437.749	-102.049	-0.212	-0.051
-436.734	244.333	-0.151	-0.254
-435.719	-84.654	-0.236	0.074
-434.705	133.706	0.138	0.179
-433.690	-200.000	-0.034	0.363
-432.676	230.337	0.100	0.163
-431.661	4.489	0.096	0.070
-430.646	87.945	-0.097	0.107
-429.632	315.459	-0.107	0.203
-428.617	10.178	-0.176	-0.134
-427.603	172.948	0.081	0.117
-426.588	139.535	0.129	-0.170
-425.573	496.579	-0.097	-0.224
-424.559	207.248	0.121	0.188
-423.544	-113.297	-0.149	0.029
-422.530	-25.312	-0.102	0.060
-421.515	-100.753	-0.071	-0.018
-420.500	-51.948	-0.321	0.149
-419.486	339.551	0.150	-0.292
-418.471	9.123	0.172	-0.130
-417.457	800.000	-0.081	0.295
-416.442	-157.542	-0.231	0.014
-415.428	800.000	0.052	0.166
-414.413	132.245	-0.294	-0.379
-413.398	163.267	-0.141	0.198
-412.384	-52.350	0.104	-0.048
-411.369	-157.010	0.008	-0.001
-410.355	-45.066	-0.207	0.103
-409.340	36.285	-0.118	0.104
-408.325	225.440	0.139	0.226
-407.311	-37.126	0.364	0.195
-406.296	-200.000	-0.012	0.186
-405.282	-100.069	0.221	0.055
-404.267	-46.284	-0.379	0.186
-403.252	-43.916	0.470	0.237
-402.238	170.478	-0.089	0.128
-401.223	-80.784	0.293	0.097
-400.209	279.253	-0.096	0.172
-399.194	-200.000	-0.032	-0.233
-398.179	381.218	0.081	0.166
-397.165	-145.823	0.203	0.018
-396.150	-200.000	-0.011	-0.120
-395.136	-76.305	-0.283	0.100
-394.121	-200.000	0.022	0.145
-393.106	-40.474	-0.190	0.099
-392.092	-200.000	0.016	0.315
-391.077	120.579	-0.130	0.161
-390.063	800.000	0.053	0.218
-389.048	-200.000	0.050	-0.284
-388.033	800.000	0.037	0.143
-387.019	-200.000	-0.006	0.232
-386.004	800.000	-0.056	-0.165
-384.990	168.266	0.100	-0.143
-383.975	-108.303	0.311	-0.067
-382.960	83.315	0.184	-0.200
-381.946	-200.000	0.012	0.313
-380.931	-200.000	0.028	-0.296
-379.917	-49.608	-0.421	-0.200
-378.902	-121.880	-0.315	0.052
-377.888	-200.000	0.039	0.359
-376.873	-89.673	-0.142	-0.041
-375.858	-31.602	-0.154	0.086
-374.844	119.618	0.131	-0.162
-373.829	-98.292	-0.155	0.040
-372.815	-191.215	0.238	-0.002
-371.800	800.000	-0.020	-0.071
-370.785	557.531	0.081	0.196
-369.771	-148.921	-0.214	0.017
-368.756	28.708	0.072	-0.061
-367.742	41.726	0.060	-0.054
-366.727	-21.783	-0.142	0.087
-365.712	7.657	0.204	0.152
-364.698	11.837	-0.214	0.164
-363.683	3.626	-0.073	0.053
-362.669	-157.477	0.211	-0.013
-361.654	-200.000	0.050	0.276
-360.639	-200.000	0.042	0.346
-359.625	-200.000	0.083	0.395
-358.610	-200.000	-0.046	0.202
-357.596	245.504	0.020	-0.033
-356.581	169.378	0.410	0.584
-355.566	-156.781	0.187	0.011
-354.552	-87.355	-0.098	-0.030
-353.537	352.355	-0.100	-0.198
-352.523	-83.393	0.296	0.095
-351.508	363.144	0.120	-0.241
-350.493	-20.200	0.252	0.155
-349.479	-142.050	-0.294	0.029
-348.464	-114.476	0.232	0.044
-347.450	-156.087	-0.333	-0.021
-346.435	-142.922	-0.344	-0.033
-345.420	23.786	0.182	-0.149
-344.406	281.700	-0.106	-0.190
-343.391	-200.000	0.026	0.330
-342.377	800.000	-0.016	-0.048
-341.362	40.779	0.100	0.090
-340.348	5.160	-0.250	0.184
-339.333	-200.000	-0.046	-0.335
-338.318	-24.684	0.154	0.092
-337.304	148.783	-0.155	-0.208
-336.289	-53.012	-0.141	-0.065
-335.275	-23.038	-0.325	0.195
-334.260	420.442	0.175	-0.374
-333.245	800.000	-0.031	-0.116
-332.231	199.279	-0.049	0.074
-331.216	-37.264	0.065	0.034
-330.202	-200.000	0.039	-0.175
-329.187	-117.191	0.203	0.037
-328.172	99.154	0.101	0.116
-327.158	277.825	0.048	-0.085
-326.143	800.000	0.102	-0.313
-325.129	101.961	0.224	-0.261
-324.114	4.959	-0.285	0.209
-323.099	99.106	0.070	-0.081
-322.085	-28.080	-0.156	-0.090
-321.070	-121.084	0.262	-0.044
-320.056	-77.824	0.102	0.035
-319.041	-200.000	-0.007	-0.047
-318.026	-116.742	-0.072	-0.013
-317.012	-153.242	-0.016	-0.001
-315.997	-200.000	0.006	-0.285
-314.983	-99.324	0.128	0.032
-313.968	10.737	0.024	-0.018
-312.953	-102.792	0.089	-0.021
-311.939	-200.000	-0.050	-0.297
-310.924	-55.262	-0.114	-0.051
-309.910	9.193	0.163	0.123
-308.895	236.428	-0.070	0.115
-307.880	-136.695	0.447	0.051
-306.866	-63.063	0.232	0.096
-305.851	-142.560	0.332	-0.032
-304.837	-200.000	0.019	0.171
-303.822	-200.000	-0.039	0.382
-302.807	382.494	-0.062	0.127
-301.793	94.910	0.124	-0.140
-300.778	800.000	0.097	-0.318
-299.764	43.779	0.184	0.168
-298.749	535.111	0.144	0.340
-297.735	755.328	-0.060	-0.163
-296.720	264.529	0.217	-0.376
-295.705	94.299	-0.181	-0.204
-294.691	-75.548	0.187	0.066
-293.676	-119.786	-0.145	0.025
-292.662	-200.000	-0.008	0.038
-291.647	-200.000	0.044	-0.200
-290.632	-74.692	0.237	-0.085
-289.618	375.420	0.095	-0.193
-288.603	207.571	-0.183	-0.284
-287.589	-200.000	-0.006	-0.226
-286.574	-185.308	-0.265	0.004
-285.559	-119.983	0.238	0.041
-284.545	-200.000	-0.012	-0.143
-283.530	-30.900	0.107	0.060
-282.516	692.694	-0.090	-0.234
-281.501	800.000	0.071	-0.255
-280.486	315.392	0.124	-0.233
-279.472	18.947	-0.175	-0.139
-278.457	-80.902	-0.320	-0.106
-277.443	53.418	0.163	0.156
-276.428	-200.000	0.018	0.302
-275.413	80.136	-0.168	0.179
-274.399	416.614	0.080	-0.170
-273.384	-95.613	0.161	0.043
-272.370	475.017	-0.190	0.426
-271.355	305.970	0.094	0.174
-270.340	-23.775	0.224	0.134
-269.326	800.000	0.020	0.071
-268.311	719.296	-0.069	-0.182
-267.297	800.000	0.017	0.049
-266.282	-143.742	-0.102	-0.010
-265.267	-104.154	-0.086	-0.020
-264.253	-119.547	0.130	0.022
-263.238	66.048	0.102	-0.103
-262.224	142.388	0.112	-0.147
-261.209	-71.644	-0.260	-0.096
-260.195	-75.794	0.280	0.099
-259.180	48.738	0.387	0.361
-258.165	-99.020	0.299	-0.075
-257.151	-146.283	0.430	0.037
-256.136	351.641	-0.132	-0.259
-255.122	800.000	-0.051	-0.208
-254.107	146.139	0.103	-0.137
-253.092	800.000	0.050	0.200
-252.078	-193.381	-0.130	-0.001
-251.063	-55.715	-0.153	-0.068
-250.049	-37.843	0.335	0.177
-249.034	129.081	0.135	0.171
-248.019	-151.196	0.186	0.014
-247.005	-133.424	-0.338	0.042
-245.990	71.300	-0.162	0.166
-244.976	-97.901	0.136	0.035
-243.961	28.475	-0.397	0.334
-242.946	167.383	0.152	-0.215
-241.932	40.041	0.150	0.134
-240.917	250.687	0.041	0.069
-239.903	369.760	0.082	-0.165
-238.888	-200.000	0.010	0.161
-237.873	-141.888	-0.126	-0.013
-236.859	-71.535	0.135	-0.050
-235.844	-136.472	0.114	-0.013
-234.830	-200.000	-0.029	-0.300
-233.815	18.010	0.205	-0.162
-232.800	800.000	-0.073	-0.226
-231.786	235.219	-0.017	0.027
-230.771	800.000	-0.071	-0.252
-229.757	-200.000	0.005	0.265
-228.742	170.749	-0.118	0.168
-227.727	92.488	-0.192	-0.215
-226.713	119.102	0.031	0.039
-225.698	-70.628	-0.062	-0.023
-224.684	-44.244	0.083	-0.041
-223.669	-175.855	0.255	-0.007
-222.655	37.690	0.164	-0.144
-221.640	-92.717	-0.274	0.076
-220.625	-71.650	-0.207	0.077
-219.611	-58.844	0.134	-0.058
-218.596	-200.000	0.053	0.260
-217.582	596.253	0.133	0.328
-216.567	-200.000	-0.090	0.435
-215.552	-200.000	-0.062	0.342
-214.538	-93.502	-0.241	0.066
-213.523	-200.000	0.025	-0.116
-212.509	137.324	-0.043	0.056
-211.494	-44.760	0.244	0.121
-210.479	800.000	0.022	0.067
-209.465	-5.884	0.253	0.172
-208.450	30.620	-0.107	0.091
-207.436	-200.000	-0.001	0.155
-206.421	-60.735	-0.134	0.056
-205.406	-93.391	-0.301	0.083
-204.392	800.000	0.078	0.217
-203.377	-200.000	-0.007	-0.472
-202.363	-39.880	0.085	-0.044
-201.348	800.000	-0.143	0.511
-200.333	-96.272	0.363	-0.095
-199.319	32.084	0.160	0.137
-198.304	-54.904	-0.278	0.124
-197.290	208.292	-0.061	-0.095
-196.275	-133.829	0.269	-0.033
-195.260	-200.000	0.012	-0.230
-194.246	402.663	0.026	-0.053
-193.231	675.146	-0.030	-0.076
-192.217	-49.132	0.182	-0.086
-191.202	-63.562	0.315	0.128
-190.187	-51.501	-0.258	-0.119
-189.173	38.611	0.220	0.195
-188.158	-23.750	0.343	-0.204
-187.144	-64.197	0.158	-0.064
-186.129	167.676	-0.084	0.118
-185.114	-200.000	-0.023	0.163
-184.100	34.786	-0.249	-0.215
-183.085	800.000	0.040	-0.164
-182.071	800.000	0.124	0.360
-181.056	800.000	-0.061	-0.226
-180.042	-158.418	0.024	-0.001
-179.027	177.535	0.282	0.407
-178.012	-26.922	0.121	-0.070
-176.998	399.073	-0.037	0.076
-175.983	-200.000	-0.048	-0.220
-174.969	-122.268	-0.502	0.081
-173.954	-53.109	-0.203	-0.092
-172.939	-200.000	-0.008	0.189
-171.925	-58.685	0.152	-0.065
-170.910	-200.000	-0.230	-0.001
-169.896	-23.817	-0.151	-0.089
-168.881	-45.625	-0.239	-0.117
-167.866	-173.354	0.387	-0.012
-166.852	-98.355	-0.091	-0.023
-165.837	125.196	-0.107	0.133
-164.823	15.629	-0.115	-0.089
-163.808	-200.000	-0.020	0.129
-162.793	304.812	0.114	0.210
-161.779	785.740	0.098	-0.266
-160.764	69.895	0.086	0.087
-159.750	166.488	-0.112	0.157
-158.735	-51.082	0.131	-0.061
-157.720	161.973	-0.240	-0.333
-156.706	800.000	-0.080	-0.222
-155.691	741.982	-0.199	0.529
-154.677	-54.567	0.448	-0.201
-153.662	114.142	0.149	-0.180
-152.647	800.000	0.093	0.353
-151.633	800.000	-0.011	0.040
-150.618	-58.205	-0.112	-0.048
-149.604	-200.000	0.013	0.129
-148.589	-118.393	0.266	0.047
-147.574	221.986	0.186	-0.296
-146.560	623.811	0.057	0.142
-145.545	-200.000	0.018	-0.095
-144.531	-200.000	0.034	-0.289
-143.516	68.216	0.190	0.192
-142.502	-80.031	0.162	-0.054
-141.487	524.818	-0.090	-0.210
-140.472	-10.755	0.254	0.166
-139.458	500.816	0.067	-0.153
-138.443	103.928	-0.149	-0.173
-137.429	-200.000	0.009	0.313
-136.414	-200.000	0.025	-0.222
-135.399	800.000	-0.021	-0.073
-134.385	319.616	-0.059	0.111
-133.370	153.074	-0.172	0.233
-132.356	-96.791	0.131	-0.034
-131.341	212.833	0.170	0.265
-130.326	55.690	-0.091	0.087
-129.312	-89.049	-0.065	-0.019
-128.297	800.000	0.060	-0.191
-127.283	8.315	-0.113	0.084
-126.268	-166.530	0.369	-0.015
-125.253	-88.459	-0.079	-0.023
-124.239	319.691	-0.078	-0.146
-123.224	168.296	0.103	-0.145
-122.210	304.902	0.090	0.166
-121.195	150.832	0.119	-0.159
-120.180	-200.000	0.015	-0.123
-119.166	-200.000	-0.015	0.171
-118.151	-5.543	0.243	-0.165
-117.137	-141.775	-0.294	0.029
-116.122	-78.880	-0.287	-0.097
-115.107	524.809	-0.056	-0.130
-114.093	800.000	-0.084	-0.258
-113.078	134.119	0.132	0.169
-112.064	-200.000	0.005	-0.209
-111.049	6.165	0.332	0.243
-110.034	301.529	-0.086	0.156
-109.020	-200.000	0.019	-0.087
-108.005	800.000	0.056	-0.195
-106.991	189.677	0.181	0.269
-105.976	-39.563	0.229	0.118
-104.962	-167.335	0.035	-0.001
-103.947	-79.196	0.283	-0.095
-102.932	-98.953	-0.304	-0.076
-101.918	-140.485	-0.308	-0.032
-100.903	-200.000	-0.004	-0.103
-99.889	581.250	-0.150	-0.363
-98.874	-74.617	-0.120	-0.043
-97.859	-5.711	-0.073	-0.049
-96.845	-114.059	0.120	-0.023
-95.830	800.000	-0.069	-0.277
-94.816	-200.000	0.045	-0.254
-93.801	800.000	0.065	-0.215
-92.786	402.285	-0.042	0.087
-91.772	800.000	-0.021	-0.088
-90.757	145.170	-0.011	0.015
-89.743	-200.000	-0.024	-0.197
-88.728	-72.162	0.036	-0.013
-87.713	-200.000	0.001	-0.202
-86.699	-162.153	-0.169	0.008
-85.684	97.354	0.148	0.168
-84.670	-31.293	-0.129	-0.072
-83.655	209.141	0.170	0.263
-82.640	39.238	0.089	0.079
-81.626	-200.000	-0.009	-0.102
-80.611	800.000	0.036	-0.131
-79.597	-189.353	0.161	-0.002
-78.582	-200.000	-0.009	-0.054
-77.567	-102.549	0.264	0.062
-76.553	743.562	-0.038	-0.101
-75.538	-30.983	-0.321	0.179
-74.524	-200.000	0.059	-0.402
-73.509	66.027	-0.087	-0.087
-72.494	-10.236	-0.256	-0.168
-71.480	11.328	0.138	-0.104
-70.465	239.490	-0.024	-0.039
-69.451	713.542	0.052	0.136
-68.436	-11.616	-0.097	-0.063
-67.422	-15.999	-0.105	-0.066
-66.407	-114.913	0.123	-0.023
-65.392	164.802	0.063	0.088
-64.378	-200.000	0.003	-0.288
-63.363	28.267	-0.163	-0.136
-62.349	173.863	0.061	0.087
-61.334	37.115	-1.072	-0.936
-60.319	317.151	0.344	0.642
-59.305	-200.000	0.057	-1.297
-58.290	138.856	0.733	0.950
-57.276	800.000	0.572	1.559
-56.261	-200.000	106.504	614.772
-55.246	496.910	1510.651	3426.807
-54.232	172.228	2711.151	3844.561
-53.217	100.903	2334.991	2677.297
-52.203	35.853	2078.816	1802.697
-51.188	31.181	1992.470	1685.679
-50.173	29.730	1974.646	1657.536
-49.159	45.793	2031.650	1851.993
-48.144	45.996	2048.730	1869.346
-47.130	31.654	2006.396	1701.494
-46.115	29.455	1995.639	1672.404
-45.100	29.371	1992.698	1669.109
-44.086	29.377	1990.474	1667.235
-43.071	29.254	1988.011	1663.996
-42.057	29.305	1985.290	1662.112
-41.042	29.284	1983.810	1660.621
-40.027	29.255	1982.532	1659.217
-39.013	29.361	1980.052	1658.031
-37.998	29.414	1977.817	1656.574
-36.984	29.306	1976.374	1654.325
-35.969	29.343	1974.127	1652.714
-34.954	29.307	1972.838	1651.246
-33.940	29.394	1971.029	1650.447
-32.925	29.467	1969.068	1649.392
-31.911	29.342	1968.098	1647.393
-30.896	29.421	1966.665	1646.835
-29.881	29.402	1964.889	1645.118
-28.867	29.466	1963.102	1644.123
-27.852	29.405	1961.221	1641.940
-26.838	29.427	1959.616	1640.723
-25.823	29.388	1957.638	1638.658
-24.809	29.465	1956.003	1637.904
-23.794	29.397	1954.426	1635.921
-22.779	29.433	1952.580	1634.631
-21.765	29.431	1950.604	1632.895
-20.750	29.353	1949.083	1630.864
-19.736	29.440	1947.353	1630.118
-18.721	29.484	1945.549	1628.936
-17.706	29.415	1944.326	1627.238
-16.692	29.416	1942.173	1625.382
-15.677	29.445	1941.068	1624.643
-14.663	29.422	1939.498	1623.061
-13.648	29.384	1938.874	1622.147
-12.633	29.445	1937.386	1621.368
-11.619	29.429	1936.205	1620.178
-10.604	29.412	1934.890	1618.865
-9.590	29.408	1933.494	1617.592
-8.575	29.390	1932.146	1616.242
-7.560	29.499	1930.421	1615.692
-6.546	29.450	1928.956	1613.975
-5.531	29.490	1927.929	1613.402
-4.517	29.406	1927.296	1612.075
-3.502	29.368	1925.959	1610.561
-2.487	29.421	1924.575	1609.803
-1.473	29.440	1923.142	1608.700
-0.458	29.570	1918.226	1605.659
0.556	26.981	1898.415	1577.609
1.571	22.976	1880.421	1527.971
2.586	19.215	1903.829	1513.863
3.600	18.364	1939.727	1534.648
4.615	18.237	1934.946	1529.599
5.629	13.911	1834.165	1413.064
6.644	5.051	1715.553	1250.781
7.659	0.252	1678.580	1185.995
8.673	-0.160	1675.498	1180.479
9.688	-0.293	1674.106	1178.343
10.702	-0.206	1672.613	1177.871
11.717	-0.310	1669.208	1174.554
12.731	0.214	1668.203	1177.847
13.746	6.816	1684.793	1241.476
14.761	16.393	1706.228	1333.062
15.775	21.137	1715.375	1377.626
16.790	22.239	1716.137	1386.818
17.804	22.274	1715.908	1386.785
18.819	22.238	1715.364	1385.934
19.834	22.455	1714.313	1386.676
20.848	22.611	1714.237	1387.720
21.863	22.778	1712.849	1387.783
22.877	22.714	1711.603	1386.148
23.892	22.771	1710.739	1385.778
24.907	22.705	1710.194	1384.693
25.921	22.770	1709.234	1384.304
26.936	22.689	1708.311	1382.801
27.950	22.720	1707.063	1381.910
28.965	22.772	1706.680	1381.882
29.980	22.710	1705.688	1380.470
30.994	22.735	1704.133	1379.285
32.009	22.809	1703.025	1378.849
33.023	22.760	1702.221	1377.689
34.038	22.715	1701.282	1376.460
35.053	22.732	1700.005	1375.437
36.067	22.711	1699.047	1374.376
37.082	22.753	1698.224	1373.915
38.096	22.750	1697.304	1373.023
39.111	22.667	1696.551	1371.654
40.126	22.717	1695.647	1371.183
41.140	22.672	1694.954	1370.153
42.155	22.755	1693.963	1369.876
43.169	22.730	1692.493	1368.371
44.184	22.752	1691.625	1367.724
45.199	22.670	1690.964	1366.428
46.213	22.699	1689.658	1365.476
47.228	22.717	1688.441	1364.511
48.242	22.781	1687.063	1363.771
49.257	22.748	1685.947	1362.495
50.271	22.823	1684.445	1361.737
51.286	22.790	1683.528	1360.626
52.301	22.746	1682.456	1359.298
53.315	22.740	1680.717	1357.726
54.330	22.706	1679.652	1356.482
55.344	22.650	1678.351	1354.884
56.359	22.722	1676.527	1353.847
57.374	22.762	1676.284	1353.838
58.388	22.803	1674.728	1352.775
59.403	22.745	1673.525	1351.239
60.417	22.776	1672.010	1350.134
61.432	22.730	1671.585	1349.319
62.447	22.768	1670.035	1348.237
63.461	22.807	1669.157	1347.708
64.476	22.698	1668.706	1346.393
65.490	22.765	1666.942	1345.362
66.505	22.764	1665.768	1344.282
67.520	22.779	1664.785	1343.490
68.534	22.817	1664.007	1343.031
69.549	22.812	1663.035	1342.086
70.563	22.804	1661.610	1340.756
71.578	22.715	1660.924	1339.408
72.593	22.771	1659.904	1338.893
73.607	22.812	1658.868	1338.253
74.622	22.825	1657.662	1337.259
75.636	22.742	1656.805	1335.823
76.651	22.818	1656.049	1335.666
77.666	22.807	1655.031	1334.642
78.680	22.851	1653.646	1333.743
79.695	22.817	1653.279	1333.073
80.709	22.860	1651.489	1331.836
81.724	22.868	1651.020	1331.403
82.739	22.732	1650.937	1330.190
83.753	22.717	1649.731	1328.984
84.768	22.887	1647.973	1328.732
85.782	22.728	1647.848	1327.317
86.797	22.792	1646.799	1326.839
87.812	22.765	1645.699	1325.628
88.826	22.760	1644.751	1324.709
89.841	22.841	1644.172	1324.736
90.855	22.810	1642.806	1323.287
91.870	22.830	1641.723	1322.442
92.884	22.821	1640.676	1321.420
93.899	22.779	1640.019	1320.456
94.914	22.801	1638.502	1319.287
95.928	22.884	1637.182	1318.724
96.943	22.882	1635.816	1317.489
97.957	22.887	1634.717	1316.528
98.972	22.721	1633.768	1314.410
99.987	22.821	1631.920	1313.551
101.001	22.740	1630.799	1311.932
102.016	22.762	1629.171	1310.671
103.030	22.770	1627.679	1309.410
104.045	22.782	1626.565	1308.489
105.060	22.809	1625.390	1307.628
106.074	22.819	1623.927	1306.409
107.089	22.804	1622.763	1305.248
108.103	22.871	1621.330	1304.470
109.118	22.853	1620.109	1303.240
110.133	22.884	1618.958	1302.426
111.147	22.789	1618.139	1300.957
112.162	22.828	1617.364	1300.503
113.176	22.924	1615.146	1299.309
114.191	22.893	1614.346	1298.328
115.206	22.875	1612.991	1296.986
116.220	22.885	1611.796	1295.984
117.235	22.864	1611.025	1295.099
118.249	22.851	1609.700	1293.822
119.264	22.877	1608.739	1293.129
120.279	22.881	1607.034	1291.673
121.293	22.850	1605.985	1290.484
122.308	22.908	1604.906	1289.932
123.322	22.865	1603.444	1288.325
124.337	22.827	1602.187	1286.926
125.352	22.853	1601.164	1286.177
126.366	22.993	1600.103	1286.231
127.381	22.996	1599.148	1285.370
128.395	22.910	1598.199	1283.873
129.410	22.905	1597.002	1282.762
130.424	22.979	1595.576	1282.040
131.439	22.952	1594.381	1280.768
132.454	22.938	1593.024	1279.465
133.468	22.885	1591.835	1278.010
134.483	22.937	1590.359	1277.087
135.497	22.890	1589.431	1275.893
136.512	22.932	1587.707	1274.696
137.527	22.951	1586.457	1273.719
138.541	22.947	1585.814	1273.062
139.556	22.926	1584.617	1271.834
140.570	22.916	1583.257	1270.557
141.585	22.954	1582.067	1269.769
142.600	22.917	1581.073	1268.589
143.614	22.907	1579.937	1267.497
144.629	23.024	1578.760	1267.279
145.643	22.966	1577.235	1265.523
146.658	22.932	1576.180	1264.325
147.673	22.903	1574.977	1263.038
148.687	22.865	1573.431	1261.414
149.702	22.932	1572.503	1261.038
150.716	22.946	1571.437	1260.172
151.731	22.960	1570.114	1259.099
152.746	22.921	1569.102	1257.897
153.760	22.923	1567.808	1256.767
154.775	22.960	1566.939	1256.219
155.789	22.939	1566.245	1255.404
156.804	22.958	1564.747	1254.225
157.819	22.960	1563.539	1253.160
158.833	22.926	1563.023	1252.396
159.848	22.885	1562.120	1251.269
160.862	22.944	1560.817	1250.535
161.877	23.003	1559.510	1249.791
162.892	22.993	1558.582	1248.870
163.906	23.026	1557.580	1248.188
164.921	23.058	1556.646	1247.551
165.935	23.090	1555.583	1246.816
166.950	23.113	1554.845	1246.277
167.964	23.041	1553.899	1244.903
168.979	23.141	1553.106	1244.858
169.994	23.013	1552.630	1243.469
171.008	23.157	1551.012	1243.075
172.023	23.088	1550.064	1241.722
173.037	23.175	1548.515	1240.979
174.052	23.075	1547.590	1239.430
175.067	23.015	1546.927	1238.367
176.081	23.141	1545.831	1238.261
177.096	23.029	1545.515	1237.119
178.110	23.091	1543.860	1236.113
179.125	23.135	1542.915	1235.557
180.140	23.081	1542.185	1234.486
181.154	23.201	1541.345	1234.541
182.169	23.050	1540.614	1232.791
183.183	23.075	1539.365	1231.861
184.198	23.131	1537.956	1231.010
185.213	23.184	1537.064	1230.558
186.227	23.171	1536.373	1229.805
187.242	23.157	1536.324	1229.563
188.256	23.116	1535.180	1228.251
189.271	23.137	1534.237	1227.532
190.286	23.190	1532.945	1226.755
191.300	23.299	1532.280	1226.874
192.315	23.225	1531.634	1225.737
193.329	23.289	1530.501	1225.166
194.344	23.097	1529.618	1223.017
195.359	23.225	1528.775	1223.121
196.373	23.248	1527.941	1222.502
197.388	23.147	1527.335	1221.216
198.402	23.125	1525.780	1219.711
199.417	23.006	1525.266	1218.369
200.432	23.098	1524.219	1218.060
201.446	23.131	1524.078	1218.069
202.461	23.196	1522.220	1216.921
203.475	23.097	1521.369	1215.458
204.490	23.095	1520.941	1214.990
205.504	23.131	1520.381	1214.681
206.519	23.155	1519.051	1213.679
207.534	23.223	1518.302	1213.436
208.548	23.233	1517.706	1212.927
209.563	23.293	1516.109	1211.949
210.577	23.265	1515.722	1211.344
211.592	23.242	1515.182	1210.647
212.607	23.180	1514.521	1209.589
213.621	23.244	1514.029	1209.528
214.636	23.317	1512.688	1208.848
215.650	23.331	1511.732	1208.070
216.665	23.311	1511.096	1207.317
217.680	23.271	1510.452	1206.421
218.694	23.348	1509.147	1205.799
219.709	23.262	1508.900	1204.912
220.723	23.296	1507.451	1203.878
221.738	23.291	1507.003	1203.380
222.753	23.404	1505.917	1203.170
223.767	23.208	1505.012	1201.015
224.782	23.278	1503.899	1200.491
225.796	23.362	1503.378	1200.539
226.811	23.404	1502.179	1199.764
227.826	23.444	1502.090	1199.854
228.840	23.345	1501.437	1198.555
229.855	23.343	1500.679	1197.830
230.869	23.445	1499.661	1197.605
231.884	23.319	1498.964	1196.092
232.899	23.402	1497.300	1195.215
233.913	23.346	1496.333	1193.961
234.928	23.324	1495.689	1193.191
235.942	23.359	1495.071	1192.830
236.957	23.399	1493.516	1191.750
237.972	23.471	1492.520	1191.339
238.986	23.403	1491.200	1189.722
240.001	23.389	1490.424	1188.902
241.015	23.465	1489.357	1188.454
242.030	23.585	1488.429	1188.416
243.045	23.579	1487.607	1187.615
244.059	23.516	1487.028	1186.621
245.074	23.606	1485.651	1186.024
246.088	23.588	1485.309	1185.521
247.103	23.552	1484.400	1184.450
248.117	23.540	1484.110	1184.038
249.132	23.510	1483.157	1182.971
250.147	23.525	1482.394	1182.355
251.161	23.657	1481.332	1182.283
252.176	23.628	1480.592	1181.394
253.190	23.642	1480.256	1181.119
254.205	23.684	1479.128	1180.394
255.220	23.668	1478.468	1179.656
256.234	23.633	1477.424	1178.481
257.249	23.627	1476.981	1177.987
258.263	23.652	1475.861	1177.153
259.278	23.711	1475.066	1176.805
260.293	23.708	1474.305	1176.073
261.307	23.687	1473.714	1175.362
262.322	23.651	1473.188	1174.602
263.336	23.721	1471.916	1173.945
264.351	23.689	1471.268	1173.111
265.366	23.693	1470.211	1172.193
266.380	23.709	1469.498	1171.623
267.395	23.617	1468.381	1170.025
268.409	23.728	1468.026	1170.369
269.424	23.674	1466.740	1168.889
270.439	23.729	1465.791	1168.390
271.453	23.755	1464.910	1167.753
272.468	23.761	1464.499	1167.359
273.482	23.709	1464.085	1166.589
274.497	23.697	1462.792	1165.377
275.512	23.756	1461.911	1164.955
276.526	23.773	1461.149	1164.355
277.541	23.711	1460.430	1163.278
278.555	23.754	1459.675	1162.851
279.570	23.723	1459.320	1162.264
280.585	23.867	1458.014	1162.060
281.599	23.830	1457.043	1160.943
282.614	23.805	1456.171	1159.984
283.628	23.798	1455.009	1158.911
284.643	23.912	1454.079	1158.807
285.657	23.915	1453.226	1158.043
286.672	23.801	1452.570	1156.682
287.687	23.816	1451.822	1156.080
288.701	23.853	1450.915	1155.491
289.716	23.830	1450.419	1154.847
290.730	23.792	1449.954	1154.128
291.745	23.799	1448.545	1152.953
292.760	23.899	1447.659	1152.789
293.774	23.935	1446.532	1152.024
294.789	23.959	1445.836	1151.524
295.803	23.890	1445.450	1150.671
296.818	23.950	1444.474	1150.177
297.833	23.905	1443.697	1149.165
298.847	24.019	1442.706	1149.011
299.862	24.039	1441.497	1148.075
300.876	24.009	1441.340	1147.659
301.891	24.077	1439.609	1146.613
302.906	23.942	1439.534	1145.582
303.920	24.158	1438.499	1146.048
304.935	24.133	1438.354	1145.668
305.949	24.163	1437.251	1144.881
306.964	23.992	1436.938	1143.433
307.979	23.982	1435.714	1142.295
308.993	24.095	1434.484	1141.941
310.008	24.138	1433.926	1141.670
311.022	24.068	1432.650	1140.104
312.037	24.082	1431.970	1139.555
313.052	24.166	1431.229	1139.402
314.066	24.131	1430.347	1138.371
315.081	24.189	1429.358	1137.856
316.095	24.113	1428.540	1136.617
317.110	24.094	1427.847	1135.845
318.125	24.280	1426.280	1135.682
319.139	24.180	1425.854	1134.610
320.154	24.140	1425.012	1133.582
321.168	24.151	1423.952	1132.705
322.183	24.188	1423.549	1132.522
323.197	24.176	1422.812	1131.757
324.212	24.255	1421.905	1131.441
325.227	24.156	1420.994	1129.989
326.241	24.180	1420.065	1129.302
327.256	24.290	1419.142	1129.164
328.270	24.275	1418.803	1128.699
329.285	24.297	1417.642	1127.814
330.300	24.215	1417.035	1126.710
331.314	24.274	1416.035	1126.188
332.329	24.343	1415.211	1125.869
333.343	24.345	1414.638	1125.328
334.358	24.346	1414.071	1124.784
335.373	24.407	1412.926	1124.159
336.387	24.413	1412.058	1123.407
337.402	24.431	1411.192	1122.732
338.416	24.478	1410.704	1122.539
339.431	24.430	1410.521	1121.994
340.446	24.427	1409.716	1121.236
341.460	24.351	1409.064	1120.137
342.475	24.517	1407.853	1120.119
343.489	24.506	1407.031	1119.293
344.504	24.442	1406.046	1118.012
345.519	24.394	1405.122	1116.881
346.533	24.399	1403.962	1115.888
347.548	24.596	1403.376	1116.557
348.562	24.625	1402.410	1115.867
349.577	24.508	1401.745	1114.510
350.592	24.485	1401.303	1113.915
351.606	24.548	1400.349	1113.454
352.621	24.455	1399.122	1111.803
353.635	24.507	1398.483	1111.519
354.650	24.471	1397.851	1110.695
355.665	24.516	1396.910	1110.125
356.679	24.532	1396.084	1109.470
357.694	24.654	1394.843	1109.144
358.708	24.581	1393.228	1107.308
359.723	24.659	1392.422	1107.053
360.738	24.623	1391.144	1105.715
361.752	24.557	1390.247	1104.502
362.767	24.523	1389.510	1103.602
363.781	24.667	1388.757	1103.797
364.796	24.629	1387.494	1102.466
365.810	24.684	1387.329	1102.576
366.825	24.615	1386.865	1101.679
367.840	24.715	1385.791	1101.349
368.854	24.804	1384.434	1100.720
369.869	24.824	1384.073	1100.457
370.883	24.806	1384.173	1100.325
371.898	24.741	1383.575	1099.358
372.913	24.745	1382.641	1098.542
373.927	24.843	1381.686	1098.286
374.942	24.747	1380.459	1096.625
375.956	24.871	1379.818	1096.779
376.971	24.864	1379.272	1096.203
377.986	24.797	1378.531	1095.109
379.000	24.836	1377.726	1094.613
380.015	24.805	1377.326	1094.007
381.029	24.897	1376.223	1093.598
382.044	24.854	1375.665	1092.794
383.059	24.799	1375.135	1091.938
384.073	24.853	1374.398	1091.587
385.088	24.866	1373.765	1091.069
386.102	24.920	1373.286	1090.920
387.117	24.966	1372.227	1090.263
388.132	25.005	1371.770	1090.038
389.146	24.885	1371.073	1088.659
390.161	24.992	1370.052	1088.402
391.175	25.001	1369.337	1087.794
392.190	24.911	1369.093	1086.959
393.205	25.005	1368.096	1086.639
394.219	25.009	1366.941	1085.652
395.234	25.031	1365.592	1084.619
396.248	25.016	1365.195	1084.116
397.263	25.091	1364.211	1083.687
398.278	24.959	1363.201	1081.991
399.292	25.067	1362.163	1081.728
400.307	25.172	1360.875	1081.238
401.321	25.122	1360.033	1080.177
402.336	25.124	1359.400	1079.590
403.350	25.097	1358.440	1078.568
404.365	25.020	1357.595	1077.338
405.380	25.079	1356.541	1076.759
406.394	25.151	1355.992	1076.664
407.409	25.110	1355.569	1075.985
408.423	25.191	1354.307	1075.375
409.438	25.224	1353.633	1074.943
410.453	25.311	1352.824	1074.723
411.467	25.298	1352.116	1073.988
412.482	25.193	1351.754	1072.978
413.496	25.235	1350.894	1072.456
414.511	25.163	1350.613	1071.704
415.526	25.318	1349.186	1071.400
416.540	25.339	1348.251	1070.689
417.555	25.253	1348.193	1070.040
418.569	25.201	1347.726	1069.259
419.584	25.240	1346.932	1068.768
420.599	25.317	1346.329	1068.656
421.613	137.999	1436.400	1798.084
422.628	134.989	1449.459	1798.196
