DTS Sentinel unit serial number:	SN413079Multiplexer serial number:	ORYXHardware model number:	OX4-SRSoftware version number:	ORYX F/W v4.00 Oryx Data Collector v3.7.2.0data status	okinstallation	princeton_trtdifferential loss correction	single-endedforward channel	channel 4reverse channel	N/Adate	2019/09/13time	06:25:35forward acquisition time	60.00reverse acquisition time	0.00gamma	496.2192k internal	0.2323k external	0.2323temperature offset calibration	1.0200default loss term (dB/km)	0.3790temperature slope calibration	1.0000multiplexer offset coefficient	1.0000multiplexer slope coefficient	1.0000fibre end	0.00T internal ref (°C)	26.06T ext. ref 1 (°C)	4.09T ext. ref 2 (°C)	20.72length (m)	temperature (°C)	Stokes	anti-Stokes-747.200	800.000	0.046	0.202
-746.185	-89.302	-0.188	-0.056
-745.171	17.747	0.042	0.034
-744.156	800.000	0.076	-0.299
-743.142	800.000	-0.088	-0.327
-742.127	117.038	0.079	0.098
-741.112	-200.000	0.002	-0.260
-740.098	-200.000	-0.066	0.479
-739.083	45.908	0.116	-0.109
-738.069	800.000	-0.074	0.264
-737.054	-127.103	-0.111	0.016
-736.039	-144.369	-0.145	-0.014
-735.025	59.349	0.244	0.243
-734.010	187.756	-0.108	-0.163
-732.996	234.406	0.109	-0.181
-731.981	800.000	-0.040	-0.157
-730.966	-29.710	-0.332	-0.191
-729.952	-200.000	0.041	-0.253
-728.937	-200.000	0.001	0.030
-727.923	-200.000	0.006	0.112
-726.908	-200.000	-0.013	-0.178
-725.894	-200.000	-0.282	0.000
-724.879	125.490	0.046	-0.058
-723.864	-32.530	-0.070	-0.039
-722.850	-108.267	0.166	0.036
-721.835	-35.614	0.123	-0.067
-720.821	32.723	0.173	-0.151
-719.806	-25.732	0.010	-0.006
-718.791	-200.000	0.006	0.129
-717.777	-23.451	-0.131	0.079
-716.762	-69.835	0.407	-0.157
-715.748	246.520	-0.155	0.263
-714.733	800.000	0.060	-0.184
-713.718	-200.000	-0.010	-0.252
-712.704	35.474	-0.048	-0.042
-711.689	800.000	-0.050	-0.165
-710.675	-71.902	-0.080	0.030
-709.660	-62.074	0.134	0.056
-708.645	-200.000	-0.010	-0.138
-707.631	148.273	0.088	-0.120
-706.616	-200.000	0.020	0.116
-705.602	-50.089	0.181	0.087
-704.587	679.381	-0.050	-0.132
-703.572	-200.000	-0.012	-0.139
-702.558	282.713	-0.051	-0.093
-701.543	-27.033	-0.239	0.141
-700.529	-127.075	0.247	-0.036
-699.514	-31.567	-0.184	-0.104
-698.499	51.001	-0.200	-0.191
-697.485	123.984	0.244	0.309
-696.470	-200.000	0.005	-0.271
-695.456	22.272	-0.151	0.124
-694.441	800.000	0.107	0.309
-693.426	-200.000	-0.007	0.444
-692.412	-200.000	0.008	-0.053
-691.397	121.368	-0.098	0.123
-690.383	-116.397	0.179	0.033
-689.368	-136.502	-0.154	-0.018
-688.354	238.716	0.103	0.173
-687.339	676.703	0.100	-0.261
-686.324	688.092	0.048	-0.127
-685.310	-200.000	-0.025	-0.315
-684.295	407.713	-0.184	0.391
-683.281	-28.685	0.152	-0.088
-682.266	71.138	0.221	-0.231
-681.251	-166.048	-0.078	-0.003
-680.237	32.510	-0.250	-0.218
-679.222	-94.740	0.119	0.033
-678.208	800.000	0.036	0.148
-677.193	137.130	0.114	-0.150
-676.178	722.708	0.231	-0.620
-675.164	-1.211	-0.162	-0.115
-674.149	-134.910	0.273	-0.033
-673.135	-200.000	-0.032	-0.251
-672.120	-115.616	-0.068	-0.013
-671.105	-171.123	0.363	0.012
-670.091	15.621	0.184	-0.145
-669.076	-116.837	-0.234	0.043
-668.062	-86.471	0.250	0.077
-667.047	-108.385	-0.054	-0.012
-666.032	54.774	0.021	0.021
-665.018	67.244	-0.363	-0.373
-664.003	539.328	0.072	0.173
-662.989	142.589	0.115	-0.153
-661.974	-61.063	-0.269	-0.114
-660.959	479.856	0.142	-0.323
-659.945	239.755	0.093	0.156
-658.930	-200.000	-0.139	-0.000
-657.916	41.786	-0.068	0.062
-656.901	-75.381	-0.344	0.123
-655.886	-91.838	0.170	-0.049
-654.872	572.964	-0.127	-0.312
-653.857	-200.000	0.012	-0.112
-652.843	-121.360	-0.113	-0.019
-651.828	-86.467	-0.234	-0.072
-650.814	364.919	0.052	0.106
-649.799	41.469	-0.044	-0.040
-648.784	-65.214	-0.315	-0.128
-647.770	430.152	-0.071	-0.154
-646.755	-144.183	-0.231	-0.022
-645.741	-132.402	-0.257	0.033
-644.726	-134.922	-0.179	0.022
-643.711	-200.000	0.011	-0.219
-642.697	-27.657	0.330	0.193
-641.682	-128.918	-0.265	0.037
-640.668	-200.000	-0.007	-0.049
-639.653	-41.152	0.227	-0.118
-638.638	264.975	-0.119	0.209
-637.624	517.728	0.017	0.039
-636.609	786.009	0.050	0.138
-635.595	131.727	-0.309	-0.400
-634.580	-78.595	-0.237	-0.081
-633.565	165.279	0.074	0.105
-632.551	781.387	0.097	0.266
-631.536	0.012	-0.019	0.014
-630.522	205.174	-0.201	-0.314
-629.507	-76.751	0.049	0.017
-628.492	129.283	-0.064	-0.082
-627.478	38.107	0.128	0.114
-626.463	-119.163	-0.423	-0.074
-625.449	275.567	0.136	0.242
-624.434	126.843	-0.142	-0.181
-623.419	-45.753	-0.257	0.128
-622.405	51.162	-0.155	0.148
-621.390	-84.100	0.399	-0.127
-620.376	260.959	-0.129	-0.225
-619.361	-122.645	0.398	-0.065
-618.346	-38.490	-0.238	-0.127
-617.332	55.122	-0.163	-0.158
-616.317	-200.000	-0.002	0.187
-615.303	-123.099	0.241	-0.039
-614.288	109.392	-0.199	-0.240
-613.273	-90.666	0.209	-0.061
-612.259	-22.169	0.278	0.170
-611.244	-77.285	-0.207	0.072
-610.230	196.083	-0.120	-0.183
-609.215	800.000	0.082	0.308
-608.201	-191.860	0.189	-0.002
-607.186	33.397	0.272	-0.237
-606.171	-200.000	0.019	0.255
-605.157	166.589	-0.137	0.196
-604.142	-200.000	0.023	0.378
-603.128	-110.145	0.040	-0.008
-602.113	62.303	0.109	-0.109
-601.098	264.831	-0.039	0.068
-600.084	-166.155	0.096	0.004
-599.069	343.812	-0.074	-0.146
-598.055	-130.021	-0.137	-0.019
-597.040	47.667	0.215	-0.202
-596.025	-200.000	-0.021	0.407
-595.011	-14.037	-0.262	-0.170
-593.996	190.736	0.110	-0.166
-592.982	800.000	0.056	0.177
-591.967	-45.690	-0.459	-0.228
-590.952	140.475	-0.075	-0.100
-589.938	-49.132	-0.379	-0.182
-588.923	800.000	0.037	-0.148
-587.909	49.026	-0.162	0.153
-586.894	800.000	-0.192	-0.569
-585.879	67.510	0.113	0.116
-584.865	-100.301	0.193	0.048
-583.850	718.628	-0.029	-0.078
-582.836	-8.528	-0.228	0.154
-581.821	-44.475	0.268	-0.135
-580.806	-200.000	-0.053	-0.425
-579.792	61.285	-0.332	-0.331
-578.777	-200.000	-0.101	-0.565
-577.763	-142.163	-0.242	0.024
-576.748	-40.542	-0.019	-0.010
-575.733	-200.000	0.016	-0.276
-574.719	-91.826	0.129	-0.037
-573.704	-200.000	0.065	-0.326
-572.690	-46.375	-0.110	-0.054
-571.675	800.000	-0.014	0.058
-570.661	320.104	-0.080	-0.152
-569.646	329.032	-0.133	-0.257
-568.631	-200.000	0.019	0.149
-567.617	-90.143	0.197	-0.058
-566.602	-139.996	-0.391	0.041
-565.588	182.812	0.258	-0.381
-564.573	5.146	-0.249	-0.184
-563.558	-11.365	0.090	-0.059
-562.544	-133.525	0.283	0.036
-561.529	-200.000	-0.013	0.278
-560.515	-155.093	0.379	0.025
-559.500	177.266	0.139	-0.202
-558.485	111.461	0.133	-0.161
-557.471	164.840	0.125	0.177
-556.456	-200.000	-0.012	0.152
-555.442	38.784	0.213	-0.191
-554.427	-98.605	-0.137	-0.035
-553.412	82.295	0.227	0.247
-552.398	-93.790	-0.099	-0.027
-551.383	-37.056	0.196	0.105
-550.369	-200.000	-0.037	-0.262
-549.354	42.341	-0.296	-0.269
-548.339	-200.000	0.072	0.413
-547.325	643.410	0.132	-0.338
-546.310	113.959	0.075	-0.092
-545.296	800.000	-0.061	0.213
-544.281	-200.000	-0.028	-0.233
-543.266	-39.636	-0.100	0.052
-542.252	-156.283	0.095	-0.006
-541.237	-53.044	-0.121	0.056
-540.223	-62.681	0.146	-0.061
-539.208	800.000	-0.033	0.126
-538.193	-75.336	0.094	0.034
-537.179	-6.267	0.067	-0.046
-536.164	-179.911	-0.040	0.001
-535.150	-40.512	0.168	0.087
-534.135	85.027	-0.111	-0.121
-533.121	-50.562	-0.091	-0.043
-532.106	527.650	-0.084	-0.198
-531.091	401.254	0.077	0.161
-530.077	-79.563	0.162	-0.055
-529.062	38.134	0.170	-0.152
-528.048	-200.000	0.009	-0.123
-527.033	319.944	-0.120	-0.229
-526.018	-200.000	-0.063	0.322
-525.004	-80.193	-0.113	-0.038
-523.989	-200.000	-0.048	0.281
-522.975	15.358	-0.181	-0.142
-521.960	-56.044	-0.189	0.084
-520.945	-200.000	-0.003	-0.096
-519.931	-200.000	-0.031	0.249
-518.916	-200.000	-0.009	0.205
-517.902	-200.000	-0.044	0.246
-516.887	87.633	0.132	-0.147
-515.872	-22.618	-0.286	-0.173
-514.858	-51.263	0.070	-0.033
-513.843	-200.000	0.004	0.163
-512.829	-152.460	-0.098	-0.007
-511.814	68.820	-0.223	-0.229
-510.799	-0.814	-0.207	0.147
-509.785	50.552	0.206	0.195
-508.770	742.995	-0.043	-0.116
-507.756	-86.186	-0.339	0.104
-506.741	136.373	0.152	-0.199
-505.726	800.000	-0.059	-0.233
-504.712	52.956	0.132	-0.127
-503.697	-20.155	-0.242	0.149
-502.683	800.000	-0.057	0.175
-501.668	800.000	-0.025	0.095
-500.653	203.826	0.113	0.174
-499.639	-200.000	0.069	0.402
-498.624	800.000	-0.038	-0.138
-497.610	-200.000	0.001	-0.066
-496.595	-200.000	0.015	-0.104
-495.581	358.806	0.093	0.185
-494.566	3.896	0.076	-0.055
-493.551	-115.351	0.208	0.039
-492.537	-100.338	-0.024	-0.006
-491.522	-138.814	-0.283	0.031
-490.508	-118.716	0.411	0.072
-489.493	17.809	-0.123	0.098
-488.478	274.543	0.107	0.190
-487.464	-70.036	0.225	-0.086
-486.449	-89.726	0.316	0.093
-485.435	-183.226	-0.176	0.003
-484.420	-12.096	-0.049	-0.032
-483.405	-6.111	0.120	-0.082
-482.391	800.000	0.064	0.239
-481.376	-22.618	-0.110	-0.067
-480.362	1.545	0.290	-0.209
-479.347	-200.000	-0.022	-0.151
-478.332	-143.018	-0.246	-0.024
-477.318	-55.459	0.052	0.023
-476.303	3.138	-0.093	0.068
-475.289	-121.740	0.133	-0.022
-474.274	-19.950	-0.315	-0.194
-473.259	-21.298	0.207	0.126
-472.245	-200.000	-0.012	-0.174
-471.230	24.396	0.033	0.028
-470.216	17.430	-0.227	-0.180
-469.201	486.118	0.049	0.111
-468.186	-103.085	0.165	-0.039
-467.172	800.000	-0.020	0.076
-466.157	-154.699	0.220	0.015
-465.143	-151.013	-0.317	-0.024
-464.128	-200.000	-0.066	0.299
-463.113	-200.000	-0.001	0.196
-462.099	578.434	0.056	0.137
-461.084	-87.731	-0.289	-0.087
-460.070	47.637	0.209	-0.194
-459.055	-112.258	0.369	0.074
-458.040	-91.564	-0.075	-0.021
-457.026	-114.496	0.226	-0.043
-456.011	193.687	0.176	-0.265
-454.997	19.367	0.144	0.115
-453.982	268.141	-0.225	0.394
-452.968	-15.773	-0.090	0.057
-451.953	65.380	0.189	0.191
-450.938	-43.893	0.225	0.113
-449.924	-41.427	-0.143	0.073
-448.909	45.348	0.210	-0.193
-447.895	-200.000	0.052	-0.288
-446.880	104.454	-0.101	0.119
-445.865	632.187	-0.069	0.173
-444.851	46.034	-0.233	-0.216
-443.836	-167.435	0.294	-0.012
-442.822	800.000	0.061	-0.172
-441.807	-33.329	-0.117	-0.065
-440.792	184.075	-0.140	0.206
-439.778	70.073	-0.214	-0.221
-438.763	-83.252	0.198	0.064
-437.749	375.686	0.060	0.121
-436.734	-100.498	0.263	-0.065
-435.719	57.815	-0.184	-0.180
-434.705	-120.049	-0.342	-0.058
-433.690	-90.102	0.048	0.014
-432.676	-200.000	0.013	-0.193
-431.661	-63.708	0.097	0.040
-430.646	-200.000	-0.078	0.386
-429.632	373.873	-0.085	-0.172
-428.617	-200.000	0.043	-0.202
-427.603	-77.147	0.229	-0.080
-426.588	421.466	0.104	-0.222
-425.573	-82.250	0.169	-0.055
-424.559	800.000	0.068	-0.206
-423.544	-149.197	0.051	0.004
-422.530	-40.246	0.194	0.101
-421.515	800.000	0.040	0.143
-420.500	-21.256	0.312	-0.190
-419.486	-61.608	-0.111	-0.046
-418.471	-103.852	-0.365	-0.085
-417.457	-74.915	-0.138	-0.049
-416.442	800.000	-0.098	0.405
-415.428	-200.000	-0.045	-0.298
-414.413	201.978	0.171	0.263
-413.398	-200.000	0.030	0.137
-412.384	8.484	0.229	-0.172
-411.369	240.945	-0.073	-0.122
-410.355	-194.577	0.191	-0.002
-409.340	-77.763	-0.165	-0.057
-408.325	-22.440	0.149	-0.090
-407.311	-105.770	-0.433	-0.097
-406.296	-59.867	-0.277	-0.118
-405.282	103.279	-0.046	-0.054
-404.267	-81.992	-0.170	0.055
-403.252	-131.213	0.295	-0.039
-402.238	-36.543	-0.188	-0.101
-401.223	-66.237	0.228	0.090
-400.209	-109.422	-0.275	-0.058
-399.194	800.000	0.037	0.116
-398.179	346.228	0.062	0.122
-397.165	-200.000	-0.033	0.391
-396.150	-51.967	0.214	-0.099
-395.136	-135.807	-0.499	0.059
-394.121	117.770	0.143	-0.176
-393.106	474.222	-0.127	-0.285
-392.092	-55.713	-0.143	-0.064
-391.077	-200.000	-0.027	-0.118
-390.063	800.000	-0.091	0.330
-389.048	-60.769	0.423	0.178
-388.033	800.000	-0.050	-0.137
-387.019	22.836	0.184	-0.150
-386.004	-200.000	-0.042	-0.289
-384.990	-60.015	0.298	-0.127
-383.975	-200.000	-0.011	0.115
-382.960	215.717	0.099	-0.156
-381.946	240.478	0.064	-0.106
-380.931	-70.790	0.052	-0.020
-379.917	800.000	0.085	0.262
-378.902	-128.708	-0.150	-0.021
-377.888	800.000	-0.032	-0.137
-376.873	-110.502	0.069	-0.014
-375.858	367.981	0.103	0.207
-374.844	52.303	0.241	0.228
-373.829	-32.861	0.150	-0.083
-372.815	-48.519	-0.179	-0.086
-371.800	112.570	-0.124	0.149
-370.785	138.194	-0.126	0.165
-369.771	70.197	-0.269	-0.276
-368.756	-200.000	0.026	-0.241
-367.742	-153.796	-0.150	-0.010
-366.727	-200.000	0.024	0.120
-365.712	82.493	0.115	-0.124
-364.698	-33.511	-0.343	-0.188
-363.683	-38.350	-0.276	-0.145
-362.669	-200.000	0.053	0.322
-361.654	156.389	-0.249	0.341
-360.639	455.786	0.123	0.272
-359.625	-79.376	-0.200	0.067
-358.610	-138.185	-0.096	0.011
-357.596	-35.118	-0.119	-0.065
-356.581	-61.566	0.204	-0.085
-355.566	382.989	0.130	0.265
-354.552	-104.674	0.174	0.040
-353.537	-200.000	0.086	-0.392
-352.523	-91.639	-0.226	0.064
-351.508	331.551	0.139	0.267
-350.493	-58.764	-0.097	-0.042
-349.479	491.475	-0.206	-0.468
-348.464	106.657	-0.144	0.170
-347.450	43.713	0.016	-0.015
-346.435	448.316	-0.027	-0.058
-345.420	-117.191	-0.016	-0.003
-344.406	-200.000	-0.035	-0.272
-343.391	10.408	-0.312	0.236
-342.377	-200.000	0.013	-0.191
-341.362	69.234	0.087	-0.089
-340.348	12.875	0.311	-0.239
-339.333	-120.636	-0.094	-0.016
-338.318	-200.000	0.016	0.157
-337.304	-110.994	-0.151	0.031
-336.289	-200.000	-0.015	-0.134
-335.275	-200.000	-0.004	-0.068
-334.260	800.000	-0.045	-0.136
-333.245	-81.840	0.171	0.056
-332.231	63.691	-0.123	-0.122
-331.216	-200.000	-0.023	0.260
-330.202	89.213	0.102	-0.113
-329.187	800.000	0.031	-0.132
-328.172	-200.000	-0.045	0.273
-327.158	97.728	0.119	0.136
-326.143	-129.182	-0.229	-0.032
-325.129	-41.717	0.181	-0.092
-324.114	-200.000	-0.019	0.121
-323.099	3.660	0.249	0.180
-322.085	49.824	0.199	-0.186
-321.070	-200.000	-0.013	0.140
-320.056	13.693	0.108	-0.083
-319.041	419.602	-0.079	-0.168
-318.026	215.249	0.168	-0.265
-317.012	-28.350	0.308	-0.177
-315.997	2.066	-0.094	0.068
-314.983	-132.810	-0.302	0.038
-313.968	-20.528	0.169	-0.103
-312.953	175.984	0.279	0.402
-311.939	-42.301	-0.454	0.230
-310.924	800.000	-0.064	0.193
-309.910	460.967	-0.072	0.159
-308.895	-78.178	0.195	0.067
-307.880	-137.585	0.271	0.030
-306.866	112.324	-0.173	0.207
-305.851	-97.643	0.511	0.131
-304.837	182.055	-0.052	0.075
-303.822	-79.791	0.247	0.082
-302.807	-116.901	0.116	0.021
-301.793	-139.990	0.278	0.029
-300.778	543.115	0.084	-0.200
-299.764	-115.517	-0.209	-0.039
-298.749	9.571	0.182	0.137
-297.735	17.129	-0.071	0.056
-296.720	-200.000	-0.029	0.264
-295.705	-178.525	0.307	0.007
-294.691	-51.822	0.205	-0.095
-293.676	29.457	0.314	0.265
-292.662	34.741	-0.250	-0.217
-291.647	-70.015	0.229	0.086
-290.632	11.260	0.237	-0.180
-289.618	173.621	-0.030	0.043
-288.603	800.000	-0.070	0.209
-287.589	-200.000	0.026	-0.333
-286.574	-99.015	0.158	0.040
-285.559	-200.000	0.066	0.390
-284.545	30.899	0.139	-0.118
-283.530	800.000	0.096	-0.331
-282.516	-145.236	-0.241	0.022
-281.501	-52.750	-0.167	0.076
-280.486	352.912	-0.037	0.072
-279.472	-122.660	-0.339	-0.054
-278.457	226.648	0.085	-0.136
-277.443	-80.994	0.143	-0.047
-276.428	129.260	0.172	-0.218
-275.413	151.442	-0.120	-0.162
-274.399	-200.000	-0.028	-0.131
-273.384	-132.070	0.067	-0.009
-272.370	-29.990	-0.150	-0.085
-271.355	104.593	0.138	-0.161
-270.340	-117.456	0.211	0.038
-269.326	67.207	-0.142	0.144
-268.311	230.689	-0.067	-0.109
-267.297	54.963	-0.068	0.065
-266.282	714.655	0.065	-0.171
-265.267	-67.259	-0.071	-0.028
-264.253	-95.547	0.478	-0.127
-263.238	366.396	0.109	-0.218
-262.224	-184.903	-0.285	-0.004
-261.209	769.676	-0.023	-0.062
-260.195	-120.447	-0.438	0.074
-259.180	-184.262	-0.032	-0.001
-258.165	-73.020	-0.150	0.055
-257.151	494.076	-0.124	0.282
-256.136	-200.000	0.075	0.390
-255.122	800.000	0.078	0.243
-254.107	800.000	-0.023	0.085
-253.092	-75.114	-0.180	0.064
-252.078	-200.000	-0.018	0.240
-251.063	-63.945	-0.325	-0.132
-250.049	-200.000	0.042	0.255
-249.034	791.703	-0.107	0.292
-248.019	37.352	0.165	0.145
-247.005	364.048	-0.124	0.247
-245.990	-200.000	0.003	0.103
-244.976	-87.182	0.190	-0.057
-243.961	-200.000	0.029	0.245
-242.946	316.920	0.076	0.142
-241.932	-190.277	-0.216	0.002
-240.917	800.000	-0.083	0.334
-239.903	-117.352	0.429	0.077
-238.888	-67.043	-0.229	-0.089
-237.873	51.354	0.141	-0.132
-236.859	800.000	-0.030	0.115
-235.844	800.000	0.021	-0.074
-234.830	508.428	0.017	-0.039
-233.815	-141.861	-0.420	0.042
-232.800	-200.000	0.014	0.156
-231.786	-8.627	0.235	0.156
-230.771	16.143	0.185	-0.144
-229.757	717.797	-0.125	0.329
-228.742	176.688	0.147	0.212
-227.727	377.392	-0.135	-0.272
-226.713	-147.560	0.468	0.039
-225.698	4.303	-0.166	-0.121
-224.684	242.111	-0.168	0.278
-223.669	-122.143	0.060	0.010
-222.655	-200.000	0.018	-0.482
-221.640	329.655	0.171	-0.326
-220.625	-91.526	-0.353	-0.100
-219.611	-200.000	0.018	0.133
-218.596	-22.245	-0.207	0.124
-217.582	-4.379	0.090	-0.061
-216.567	800.000	0.092	0.324
-215.552	585.057	-0.122	0.296
-214.538	119.074	-0.212	0.259
-213.523	308.266	-0.201	0.371
-212.509	-200.000	-0.006	-0.267
-211.494	271.510	-0.126	0.219
-210.479	24.278	0.109	0.089
-209.465	-14.463	-0.139	0.089
-208.450	-35.174	0.049	-0.026
-207.436	32.716	0.160	0.137
-206.421	-54.119	0.145	0.065
-205.406	395.345	-0.040	0.083
-204.392	-98.165	0.189	-0.048
-203.377	97.655	0.055	0.063
-202.363	-117.571	0.187	-0.033
-201.348	-119.450	-0.070	-0.012
-200.333	800.000	-0.016	0.058
-199.319	10.456	0.201	-0.152
-198.304	34.713	0.166	-0.144
-197.290	-98.459	0.132	0.033
-196.275	-193.793	0.151	0.001
-195.260	-200.000	-0.072	0.314
-194.246	-172.489	0.187	-0.006
-193.231	-200.000	0.003	-0.071
-192.217	220.308	-0.079	0.125
-191.202	-123.945	0.231	-0.036
-190.187	-119.371	-0.100	0.017
-189.173	112.835	0.138	0.166
-188.158	-200.000	0.011	-0.069
-187.144	-66.634	-0.373	-0.146
-186.129	-39.590	-0.076	0.040
-185.114	162.650	-0.087	-0.121
-184.100	-200.000	0.053	0.257
-183.085	-67.228	0.245	-0.095
-182.071	-51.374	-0.283	-0.131
-181.056	-120.418	0.243	-0.041
-180.042	-173.513	-0.142	0.004
-179.027	-200.000	-0.025	0.157
-178.012	-94.676	-0.233	0.063
-176.998	-200.000	0.040	-0.190
-175.983	185.848	-0.073	0.108
-174.969	-68.203	0.027	-0.010
-173.954	800.000	0.047	0.131
-172.939	-123.418	0.249	0.039
-171.925	26.595	-0.065	0.053
-170.910	211.210	-0.125	-0.194
-169.896	35.253	0.402	0.348
-168.881	76.743	-0.066	-0.069
-167.866	488.133	0.107	0.242
-166.852	440.454	-0.241	-0.520
-165.837	800.000	-0.025	-0.078
-164.823	669.885	-0.037	0.094
-163.808	-88.984	-0.206	0.060
-162.793	41.438	-0.147	-0.131
-161.779	800.000	-0.046	0.134
-160.764	121.084	0.223	0.274
-159.750	-140.277	-0.103	0.011
-158.735	800.000	0.071	-0.251
-157.720	269.598	-0.156	0.270
-156.706	73.120	-0.088	0.091
-155.691	-23.561	0.290	-0.172
-154.677	-48.043	-0.056	0.027
-153.662	-87.269	-0.219	-0.066
-152.647	53.740	-0.002	-0.002
-151.633	-176.075	0.276	-0.007
-150.618	800.000	0.095	0.307
-149.604	321.529	-0.028	0.052
-148.589	800.000	0.084	0.258
-147.574	-200.000	-0.085	-0.393
-146.560	85.770	0.171	0.186
-145.545	47.721	-0.199	0.183
-144.531	92.293	-0.102	0.113
-143.516	-125.151	0.228	-0.034
-142.502	-200.000	-0.051	-0.223
-141.487	-200.000	0.057	-0.309
-140.472	-200.000	0.025	0.213
-139.458	349.225	-0.078	-0.152
-138.443	-200.000	-0.011	0.195
-137.429	37.796	0.089	0.078
-136.414	800.000	0.078	-0.263
-135.399	-78.541	-0.295	0.099
-134.385	-127.476	-0.093	0.013
-133.370	-83.270	0.160	-0.051
-132.356	357.271	-0.040	0.079
-131.341	155.900	0.166	0.225
-130.326	-158.966	0.113	0.006
-129.312	-157.373	-0.261	-0.015
-128.297	129.573	0.319	-0.401
-127.283	117.790	-0.063	-0.076
-126.268	41.634	0.137	0.122
-125.253	428.799	0.151	0.321
-124.239	-73.090	-0.122	-0.044
-123.224	-83.849	0.146	0.046
-122.210	-200.000	0.053	-0.383
-121.195	44.371	-0.095	-0.086
-120.180	-141.608	-0.305	-0.030
-119.166	116.830	-0.118	0.142
-118.151	-4.948	0.133	0.090
-117.137	-68.790	-0.017	0.006
-116.122	399.965	0.071	-0.146
-115.107	-46.836	0.257	-0.124
-114.093	-200.000	0.037	0.323
-113.078	0.397	0.308	-0.216
-112.064	-71.229	-0.184	-0.068
-111.049	-200.000	-0.030	0.388
-110.034	24.287	0.340	-0.277
-109.020	800.000	-0.064	0.269
-108.005	-91.045	0.044	-0.012
-106.991	112.880	-0.067	-0.080
-105.976	53.454	0.114	-0.108
-104.962	780.854	0.039	0.106
-103.947	104.549	0.214	-0.249
-102.932	-39.044	-0.187	0.097
-101.918	-94.926	-0.209	0.056
-100.903	163.852	-0.179	0.249
-99.889	-133.184	0.329	-0.041
-98.874	39.832	-0.134	0.118
-97.859	-200.000	0.044	-0.457
-96.845	-200.000	-0.007	0.034
-95.830	139.297	-0.178	-0.231
-94.816	-133.409	0.179	0.022
-93.801	-20.402	-0.091	0.055
-92.786	154.035	0.093	0.126
-91.772	800.000	0.030	-0.114
-90.757	-138.272	-0.146	-0.016
-89.743	800.000	0.083	-0.243
-88.728	-200.000	-0.020	0.156
-87.713	-200.000	-0.006	0.381
-86.699	127.686	-0.160	-0.200
-85.684	46.719	0.143	0.131
-84.670	-27.073	0.220	-0.126
-83.655	2.333	0.143	-0.102
-82.640	-28.886	0.055	0.031
-81.626	100.954	0.047	-0.054
-80.611	-200.000	-0.012	0.386
-79.597	491.321	0.094	0.211
-78.582	123.685	0.083	0.103
-77.567	-200.000	-0.005	0.265
-76.553	-118.861	0.116	0.020
-75.538	-103.221	0.488	-0.113
-74.524	-168.906	0.231	-0.009
-73.509	318.135	-0.093	0.173
-72.494	-200.000	0.013	-0.253
-71.480	-200.000	-0.046	0.486
-70.465	-200.000	-0.017	0.265
-69.451	688.587	-0.111	0.286
-68.436	-107.708	0.210	0.045
-67.422	-200.000	-0.011	-0.258
-66.407	-63.861	0.074	0.030
-65.392	-33.242	-0.196	0.107
-64.378	-57.333	0.093	-0.040
-63.363	50.817	0.104	0.097
-62.349	19.226	0.120	0.094
-61.334	176.776	-0.827	-1.182
-60.319	122.017	0.520	0.638
-59.305	438.091	-0.654	-1.402
-58.290	255.672	0.845	1.424
-57.276	800.000	0.503	1.451
-56.261	-200.000	118.117	644.798
-55.246	474.952	1557.510	3455.581
-54.232	170.231	2733.230	3843.867
-53.217	94.080	2329.790	2597.779
-52.203	32.600	2071.617	1760.258
-51.188	27.910	1987.787	1646.788
-50.173	26.510	1971.020	1620.308
-49.159	43.260	2032.909	1824.227
-48.144	42.475	2046.879	1829.540
-47.130	28.287	2004.899	1664.129
-46.115	26.073	1994.703	1635.560
-45.100	25.957	1991.873	1632.127
-44.086	26.062	1988.859	1630.541
-43.071	25.927	1986.301	1627.156
-42.057	25.919	1984.694	1625.707
-41.042	25.941	1982.371	1623.933
-40.027	25.936	1981.295	1622.943
-39.013	25.930	1979.165	1621.079
-37.998	25.942	1977.357	1619.642
-36.984	25.945	1975.726	1618.274
-35.969	25.979	1973.069	1616.336
-34.954	26.020	1971.196	1615.107
-33.940	26.031	1970.032	1614.189
-32.925	26.076	1968.628	1613.372
-31.911	26.049	1967.216	1611.913
-30.896	26.093	1965.495	1610.830
-29.881	26.147	1963.814	1609.873
-28.867	26.117	1962.231	1608.237
-27.852	26.140	1960.592	1607.035
-26.838	26.133	1958.322	1605.049
-25.823	26.081	1956.774	1603.257
-24.809	26.096	1955.043	1601.907
-23.794	26.063	1953.548	1600.325
-22.779	26.104	1951.492	1598.940
-21.765	26.062	1950.291	1597.524
-20.750	26.092	1948.135	1595.960
-19.736	26.030	1947.021	1594.432
-18.721	26.116	1945.157	1593.603
-17.706	26.119	1943.577	1592.271
-16.692	26.073	1941.539	1590.138
-15.677	26.031	1940.484	1588.839
-14.663	26.033	1939.362	1587.872
-13.648	26.074	1937.662	1586.778
-12.633	26.060	1936.445	1585.599
-11.619	26.110	1935.143	1584.909
-10.604	26.122	1933.826	1583.874
-9.590	26.078	1932.460	1582.303
-8.575	26.052	1931.038	1580.851
-7.560	26.087	1929.478	1579.813
-6.546	26.074	1928.497	1578.839
-5.531	26.190	1926.450	1578.108
-4.517	26.095	1925.780	1576.669
-3.502	26.008	1925.011	1575.221
-2.487	26.138	1923.544	1575.090
-1.473	26.128	1922.324	1573.938
-0.458	26.160	1917.843	1570.484
0.556	28.144	1897.768	1542.671
1.571	23.675	1879.149	1489.987
2.586	19.609	1902.096	1473.439
3.600	18.547	1936.176	1490.476
4.615	18.269	1929.478	1482.779
5.629	14.570	1830.476	1376.122
6.644	7.760	1717.952	1238.531
7.659	4.311	1684.746	1188.106
8.673	3.972	1681.889	1183.395
9.688	4.109	1680.562	1183.405
10.702	4.137	1679.890	1183.036
11.717	4.132	1676.103	1180.229
12.731	4.562	1675.000	1182.617
13.746	9.452	1686.808	1228.242
14.761	17.370	1704.084	1301.537
15.775	21.911	1712.277	1342.505
16.790	22.587	1711.699	1347.104
17.804	21.689	1709.472	1338.378
18.819	20.793	1706.543	1329.125
19.834	20.261	1704.057	1323.018
20.848	20.067	1703.010	1320.610
21.863	20.105	1701.486	1319.599
22.877	20.013	1700.016	1317.646
23.892	19.817	1698.920	1315.190
24.907	19.653	1698.166	1313.244
25.921	19.669	1696.864	1312.239
26.936	19.683	1695.232	1310.971
27.950	19.699	1694.734	1310.586
28.965	19.691	1694.295	1310.073
29.980	19.902	1693.445	1310.900
30.994	19.945	1692.846	1310.640
32.009	19.979	1691.982	1310.116
33.023	20.168	1691.102	1310.747
34.038	20.140	1690.152	1309.679
35.053	20.179	1688.420	1308.522
36.067	19.909	1687.452	1305.620
37.082	19.822	1686.728	1304.285
38.096	19.929	1685.140	1303.750
39.111	19.877	1684.406	1302.676
40.126	20.020	1684.036	1303.350
41.140	19.981	1682.893	1302.056
42.155	19.792	1680.979	1299.042
43.169	19.437	1679.534	1295.140
44.184	19.329	1677.665	1292.775
45.199	19.357	1676.917	1292.295
46.213	19.338	1675.732	1291.126
47.228	19.390	1675.276	1291.049
48.242	19.668	1673.913	1291.965
49.257	19.882	1673.003	1292.747
50.271	19.788	1671.912	1291.084
51.286	19.726	1670.872	1289.708
52.301	19.860	1669.435	1289.485
53.315	19.776	1667.645	1287.361
54.330	19.733	1666.354	1285.927
55.344	19.590	1664.629	1283.423
56.359	19.500	1663.059	1281.433
57.374	19.417	1662.491	1280.263
58.388	19.541	1660.923	1279.858
59.403	19.334	1659.873	1277.408
60.417	19.202	1658.697	1275.408
61.432	19.186	1658.181	1274.780
62.447	19.241	1656.474	1273.763
63.461	19.087	1655.375	1271.667
64.476	19.055	1654.070	1270.319
65.490	19.040	1653.127	1269.367
66.505	19.078	1651.535	1268.316
67.520	19.082	1650.676	1267.571
68.534	19.094	1649.762	1266.844
69.549	19.158	1648.785	1266.455
70.563	19.184	1647.333	1265.420
71.578	19.082	1645.850	1263.419
72.593	18.860	1645.154	1261.142
73.607	18.794	1643.998	1259.659
74.622	18.804	1642.659	1258.600
75.636	18.904	1641.640	1258.437
76.651	18.880	1641.057	1257.703
77.666	18.965	1640.096	1257.476
78.680	18.957	1639.307	1256.703
79.695	19.129	1638.241	1257.031
80.709	19.261	1637.417	1257.249
81.724	19.267	1637.165	1256.987
82.739	19.397	1636.492	1257.309
83.753	19.474	1635.711	1257.161
84.768	19.591	1634.999	1257.354
85.782	19.759	1634.628	1258.181
86.797	19.903	1634.132	1258.729
87.812	20.010	1633.298	1258.758
88.826	20.014	1631.339	1257.162
89.841	19.850	1630.084	1254.893
90.855	19.751	1629.747	1253.809
91.870	19.994	1628.343	1254.381
92.884	19.937	1628.343	1253.851
93.899	20.083	1626.870	1253.664
94.914	20.146	1625.745	1253.146
95.928	20.155	1624.064	1251.800
96.943	20.197	1622.822	1251.038
97.957	20.103	1621.540	1249.259
98.972	19.985	1620.124	1247.205
99.987	19.949	1618.442	1245.541
101.001	20.009	1616.824	1244.619
102.016	20.008	1615.592	1243.556
103.030	19.890	1614.653	1241.872
104.045	19.944	1613.597	1241.342
105.060	19.944	1612.091	1240.068
106.074	19.926	1610.464	1238.583
107.089	19.724	1608.915	1235.839
108.103	19.347	1606.773	1231.393
109.118	19.183	1604.942	1228.707
110.133	19.069	1603.738	1226.864
111.147	19.071	1602.534	1225.851
112.162	19.173	1600.897	1225.212
113.176	19.227	1599.683	1224.563
114.191	19.242	1598.299	1223.501
115.206	19.245	1597.691	1222.945
116.220	19.307	1596.085	1222.048
117.235	19.330	1594.864	1221.169
118.249	19.336	1593.417	1219.998
119.264	19.239	1591.736	1217.911
120.279	19.067	1590.578	1215.705
121.293	19.082	1589.192	1214.642
122.308	19.115	1587.157	1213.217
123.322	18.823	1586.412	1210.484
124.337	18.858	1584.089	1208.849
125.352	18.851	1583.118	1207.947
126.366	18.893	1581.745	1207.092
127.381	18.733	1580.628	1205.009
128.395	18.782	1579.590	1204.457
129.410	18.708	1578.644	1203.106
130.424	18.763	1577.024	1202.155
131.439	18.924	1575.724	1202.180
132.454	19.095	1574.350	1202.222
133.468	19.107	1573.421	1201.489
134.483	19.245	1572.118	1201.352
135.497	19.214	1570.346	1199.675
136.512	19.296	1569.244	1199.296
137.527	19.332	1567.876	1198.395
138.541	19.327	1566.944	1197.543
139.556	19.368	1565.758	1196.811
140.570	19.391	1564.179	1195.663
141.585	19.567	1563.120	1195.966
142.600	19.740	1561.959	1196.167
143.614	19.805	1560.720	1195.561
144.629	19.846	1560.097	1195.261
145.643	19.868	1558.860	1194.357
146.658	20.054	1557.563	1194.544
147.673	19.890	1556.716	1192.658
148.687	19.750	1554.419	1189.833
149.702	19.518	1553.139	1187.148
150.716	19.486	1550.752	1185.002
151.731	19.467	1549.313	1183.665
152.746	19.413	1547.981	1182.172
153.760	19.343	1546.736	1180.639
154.775	19.461	1545.802	1180.627
155.789	19.466	1544.935	1179.893
156.804	19.610	1543.402	1179.604
157.819	19.559	1542.591	1178.531
158.833	19.746	1541.196	1178.639
159.848	19.888	1540.314	1178.826
160.862	19.947	1539.622	1178.591
161.877	19.976	1538.401	1177.752
162.892	19.833	1537.073	1175.657
163.906	19.497	1535.366	1171.969
164.921	19.306	1533.923	1169.466
165.935	19.335	1532.844	1168.735
166.950	19.423	1531.624	1168.298
167.964	19.446	1530.963	1167.851
168.979	19.684	1529.516	1168.248
169.994	19.570	1528.516	1166.612
171.008	19.506	1527.152	1165.039
172.023	19.517	1526.811	1164.746
173.037	19.574	1524.982	1163.636
174.052	19.676	1524.621	1163.943
175.067	19.856	1523.979	1164.561
176.081	19.703	1522.470	1162.274
177.096	19.487	1520.534	1159.244
178.110	19.356	1519.076	1157.148
179.125	19.376	1518.022	1156.377
180.140	19.376	1517.487	1155.868
181.154	19.487	1516.263	1155.576
182.169	19.635	1515.410	1155.815
183.183	19.809	1514.136	1155.904
184.198	19.772	1513.982	1155.438
185.213	19.937	1512.299	1155.155
186.227	19.951	1511.549	1154.572
187.242	19.882	1510.526	1153.227
188.256	19.933	1509.889	1152.977
189.271	20.073	1508.836	1153.008
190.286	20.144	1507.570	1152.406
191.300	20.080	1506.424	1151.003
192.315	19.753	1504.767	1147.467
193.329	19.318	1503.034	1143.157
194.344	19.315	1502.434	1142.584
195.359	19.399	1501.369	1142.228
196.373	19.562	1500.153	1142.279
197.388	19.553	1499.361	1141.515
198.402	19.722	1498.118	1141.583
199.417	20.002	1497.482	1142.848
200.432	20.150	1496.637	1143.076
201.446	20.260	1495.973	1143.191
202.461	20.369	1495.417	1143.385
203.475	20.462	1494.439	1143.148
204.490	20.516	1493.599	1142.761
205.504	20.385	1492.253	1140.765
206.519	20.119	1490.555	1137.623
207.534	20.022	1489.109	1135.786
208.548	19.829	1488.687	1134.098
209.563	19.879	1487.582	1133.480
210.577	19.897	1486.735	1132.854
211.592	20.007	1485.466	1132.504
212.607	19.987	1484.680	1131.677
213.621	20.092	1484.707	1132.279
214.636	20.305	1483.741	1132.832
215.650	20.216	1482.395	1131.128
216.665	20.100	1481.839	1129.845
217.680	20.218	1480.965	1129.850
218.694	20.460	1480.068	1130.642
219.709	20.597	1479.440	1130.949
220.723	20.506	1478.035	1129.185
221.738	20.469	1477.160	1128.180
222.753	20.369	1476.617	1127.013
223.767	20.342	1475.527	1125.908
224.782	20.266	1474.260	1124.349
225.796	20.396	1473.702	1124.665
226.811	20.425	1473.070	1124.268
227.826	20.572	1472.752	1124.876
228.840	20.442	1471.534	1123.008
229.855	20.292	1470.151	1120.884
230.869	20.291	1468.614	1119.605
231.884	20.285	1467.778	1118.830
232.899	20.219	1466.730	1117.512
233.913	20.145	1465.495	1115.993
234.928	20.116	1463.992	1114.563
235.942	19.965	1463.162	1112.862
236.957	19.907	1461.616	1111.215
237.972	19.876	1460.551	1110.106
238.986	19.911	1459.830	1109.690
240.001	19.879	1458.855	1108.643
241.015	19.987	1457.667	1108.336
242.030	19.984	1456.846	1107.595
243.045	20.074	1455.962	1107.399
244.059	20.137	1455.154	1107.084
245.074	20.276	1454.190	1107.144
246.088	20.364	1453.107	1106.780
247.103	20.425	1452.694	1106.755
248.117	20.382	1452.113	1105.946
249.132	20.628	1451.131	1106.664
250.147	20.709	1451.356	1107.250
251.161	20.944	1450.986	1108.364
252.176	21.132	1450.603	1109.171
253.190	21.267	1449.767	1109.291
254.205	21.242	1448.788	1108.286
255.220	21.334	1448.310	1108.407
256.234	21.370	1447.536	1107.939
257.249	21.300	1446.789	1106.831
258.263	21.253	1445.388	1105.363
259.278	21.353	1444.825	1105.466
260.293	21.335	1443.575	1104.300
261.307	21.224	1443.084	1103.127
262.322	21.313	1442.578	1103.201
263.336	21.422	1441.725	1103.140
264.351	21.516	1440.183	1102.453
265.366	21.462	1439.413	1101.426
266.380	21.496	1438.623	1100.937
267.395	21.500	1437.754	1100.199
268.409	21.503	1436.281	1098.993
269.424	21.370	1435.164	1097.211
270.439	21.257	1434.100	1095.593
271.453	21.194	1432.949	1094.217
272.468	21.227	1432.239	1093.787
273.482	21.190	1431.429	1092.840
274.497	20.994	1430.540	1090.838
275.512	21.018	1429.453	1090.060
276.526	21.064	1428.339	1089.402
277.541	21.076	1427.583	1088.808
278.555	21.095	1426.545	1088.037
279.570	21.044	1426.185	1087.350
280.585	21.116	1425.607	1087.258
281.599	21.407	1425.271	1088.720
282.614	21.608	1424.128	1089.000
283.628	21.328	1422.878	1086.210
284.643	21.072	1421.489	1083.464
285.657	21.125	1420.136	1082.662
286.672	21.111	1419.379	1081.905
287.687	21.055	1418.818	1081.033
288.701	21.126	1417.302	1080.225
289.716	21.183	1416.785	1080.082
290.730	21.162	1416.335	1079.517
291.745	21.171	1414.619	1078.168
292.760	21.241	1413.951	1077.996
293.774	21.247	1413.037	1077.239
294.789	21.364	1411.672	1076.828
295.803	21.373	1411.729	1076.828
296.818	21.462	1411.460	1077.079
297.833	21.302	1410.061	1074.927
298.847	21.188	1408.567	1072.996
299.862	21.177	1407.665	1072.146
300.876	21.183	1406.777	1071.413
301.891	21.277	1405.696	1071.067
302.906	21.380	1405.053	1071.115
303.920	21.501	1404.692	1071.485
304.935	21.568	1403.774	1071.101
305.949	21.666	1403.127	1071.114
306.964	21.812	1402.643	1071.538
307.979	21.829	1401.741	1070.861
308.993	21.761	1400.843	1069.667
310.008	21.583	1399.402	1067.385
311.022	21.642	1398.556	1067.002
312.037	21.792	1397.538	1067.045
313.052	21.828	1396.678	1066.515
314.066	21.699	1395.387	1064.647
315.081	21.478	1394.182	1062.293
316.095	21.378	1392.520	1060.325
317.110	21.212	1391.431	1058.398
318.125	21.132	1390.689	1057.254
319.139	21.084	1390.154	1056.468
320.154	21.274	1388.382	1056.172
321.168	21.151	1388.191	1055.192
322.183	21.139	1387.009	1054.127
323.197	21.175	1386.075	1053.539
324.212	21.311	1385.297	1053.676
325.227	21.364	1384.749	1053.484
326.241	21.370	1383.998	1052.856
327.256	21.404	1382.676	1051.966
328.270	21.479	1381.776	1051.639
329.285	21.442	1380.875	1050.634
330.300	21.398	1379.608	1049.312
331.314	21.326	1378.950	1048.293
332.329	21.341	1377.852	1047.450
333.343	21.291	1377.182	1046.550
334.358	21.415	1376.476	1046.662
335.373	21.486	1375.964	1046.604
336.387	21.635	1375.389	1046.965
337.402	21.696	1374.602	1046.638
338.416	21.779	1373.732	1046.382
339.431	21.716	1373.615	1045.820
340.446	21.808	1373.043	1045.845
341.460	21.910	1371.898	1045.485
342.475	22.106	1370.799	1045.723
343.489	22.093	1370.750	1045.519
344.504	22.246	1369.497	1045.380
345.519	22.354	1368.759	1045.362
346.533	22.345	1367.723	1044.428
347.548	22.389	1367.033	1044.066
348.562	22.486	1365.836	1043.633
349.577	22.477	1365.534	1043.261
350.592	22.249	1363.922	1040.585
351.606	21.998	1363.239	1038.489
352.621	21.885	1361.695	1036.554
353.635	21.730	1360.727	1034.812
354.650	21.625	1359.644	1033.274
355.665	21.728	1358.425	1032.865
356.679	21.722	1357.731	1032.211
357.694	21.800	1356.177	1031.394
358.708	21.815	1356.147	1031.370
359.723	21.928	1355.097	1031.146
360.738	22.051	1353.706	1030.717
361.752	22.156	1352.314	1030.180
362.767	22.099	1351.305	1028.987
363.781	21.977	1350.544	1027.604
364.796	22.045	1349.820	1027.361
365.810	22.156	1349.327	1027.540
366.825	22.311	1348.860	1028.002
367.840	22.406	1348.726	1028.360
368.854	22.496	1347.817	1028.102
369.869	22.778	1347.442	1029.374
370.883	22.812	1346.295	1028.604
371.898	22.638	1345.958	1027.241
372.913	22.560	1344.606	1025.661
373.927	22.435	1343.540	1024.034
374.942	22.502	1342.891	1023.840
375.956	22.491	1342.427	1023.332
376.971	22.589	1341.738	1023.283
377.986	22.579	1340.383	1022.103
379.000	22.533	1339.822	1021.316
380.015	22.633	1339.282	1021.395
381.029	22.835	1338.438	1021.826
382.044	22.970	1337.809	1022.037
383.059	22.949	1336.952	1021.173
384.073	22.749	1336.684	1019.722
385.088	22.762	1335.970	1019.163
386.102	22.809	1334.931	1018.547
387.117	22.849	1334.292	1018.202
388.132	22.874	1333.211	1017.432
389.146	22.415	1332.104	1013.855
390.161	22.334	1331.193	1012.602
391.175	22.403	1330.240	1012.186
392.190	22.421	1329.289	1011.480
393.205	22.483	1328.849	1011.410
394.219	22.616	1328.302	1011.664
395.234	22.728	1327.191	1011.375
396.248	22.765	1325.192	1009.970
397.263	22.550	1324.045	1007.779
398.278	22.610	1322.649	1006.970
399.292	22.481	1321.384	1005.181
400.307	22.258	1320.568	1003.200
401.321	22.254	1319.195	1002.046
402.336	22.196	1318.170	1000.847
403.350	22.171	1317.256	999.921
404.365	22.193	1316.187	999.147
405.380	22.195	1315.383	998.461
406.394	22.387	1315.203	999.326
407.409	22.529	1314.309	999.362
408.423	22.543	1314.023	999.136
409.438	22.745	1313.192	999.564
410.453	22.890	1312.717	999.935
411.467	22.941	1312.096	999.657
412.482	22.981	1311.965	999.696
413.496	23.035	1311.163	999.302
414.511	23.091	1310.211	998.805
415.526	23.226	1309.410	998.869
416.540	23.301	1308.790	998.728
417.555	23.390	1308.078	998.603
418.569	23.386	1307.564	998.095
419.584	23.286	1306.988	997.007
420.599	23.182	1306.412	995.895
421.613	148.297	1435.754	1799.165
422.628	143.744	1454.532	1799.247
