DTS Sentinel unit serial number:	SN413079Multiplexer serial number:	ORYXHardware model number:	OX4-SRSoftware version number:	ORYX F/W v4.00 Oryx Data Collector v3.7.2.0data status	okinstallation	princeton_trtdifferential loss correction	single-endedforward channel	channel 4reverse channel	N/Adate	2019/09/15time	05:41:35forward acquisition time	60.00reverse acquisition time	0.00gamma	496.2192k internal	0.2312k external	0.2312temperature offset calibration	1.0030default loss term (dB/km)	0.3790temperature slope calibration	1.0000multiplexer offset coefficient	1.0000multiplexer slope coefficient	1.0000fibre end	0.00T internal ref (°C)	30.62T ext. ref 1 (°C)	4.77T ext. ref 2 (°C)	25.75length (m)	temperature (°C)	Stokes	anti-Stokes-747.200	511.796	-0.118	-0.279
-746.185	-67.973	-0.255	0.101
-745.171	136.441	-0.110	0.145
-744.156	-151.049	-0.265	-0.020
-743.142	365.666	0.151	-0.308
-742.127	194.233	-0.044	-0.068
-741.112	41.175	-0.111	0.101
-740.098	-200.000	0.019	0.296
-739.083	84.058	0.090	-0.100
-738.069	-34.767	-0.399	0.221
-737.054	183.331	0.116	0.173
-736.039	-112.615	-0.124	0.025
-735.025	-38.763	0.169	0.091
-734.010	-7.851	-0.048	0.033
-732.996	-141.281	-0.198	0.020
-731.981	-1.516	-0.194	-0.139
-730.966	244.733	0.323	-0.550
-729.952	-91.828	-0.185	0.053
-728.937	272.503	-0.070	-0.125
-727.923	26.761	0.247	-0.210
-726.908	9.432	0.277	-0.212
-725.894	-36.310	-0.098	-0.054
-724.879	-47.633	-0.379	-0.187
-723.864	-111.800	-0.455	-0.093
-722.850	49.865	-0.059	-0.056
-721.835	-117.962	-0.080	-0.015
-720.821	372.976	-0.240	-0.494
-719.806	-46.649	0.115	0.057
-718.791	800.000	0.111	-0.318
-717.777	48.607	0.088	0.084
-716.762	48.250	-0.295	-0.280
-715.748	583.696	0.104	0.258
-714.733	-68.655	-0.116	-0.046
-713.718	280.447	-0.088	-0.159
-712.704	-200.000	0.011	0.203
-711.689	32.680	0.304	0.266
-710.675	-19.391	-0.197	-0.124
-709.660	-0.284	0.128	-0.092
-708.645	-57.133	0.245	-0.109
-707.631	-51.402	-0.201	-0.095
-706.616	214.618	0.171	0.275
-705.602	-200.000	0.019	0.221
-704.587	-200.000	0.006	0.443
-703.572	97.834	-0.217	-0.252
-702.558	53.815	0.194	-0.189
-701.543	376.428	-0.035	-0.072
-700.529	800.000	0.035	-0.111
-699.514	272.439	-0.317	0.566
-698.499	181.345	0.024	-0.036
-697.485	145.243	-0.184	0.249
-696.470	-116.408	-0.399	-0.075
-695.456	800.000	-0.052	0.147
-694.441	133.837	-0.051	-0.067
-693.426	397.988	-0.060	0.128
-692.412	-200.000	-0.011	-0.154
-691.397	-88.707	0.275	0.083
-690.383	-88.395	-0.142	-0.043
-689.368	-69.879	-0.184	0.071
-688.354	-200.000	-0.021	-0.179
-687.339	-200.000	0.039	0.196
-686.324	5.155	-0.100	-0.075
-685.310	800.000	-0.085	0.315
-684.295	-65.275	0.124	0.050
-683.281	-140.841	0.215	-0.022
-682.266	-200.000	0.017	-0.198
-681.251	-90.464	-0.190	-0.056
-680.237	-55.300	-0.246	-0.112
-679.222	-102.225	0.335	0.081
-678.208	-82.682	0.194	0.064
-677.193	-152.973	-0.149	0.011
-676.178	243.461	-0.073	-0.125
-675.164	678.854	-0.097	-0.255
-674.149	-200.000	0.006	-0.129
-673.135	-86.727	0.132	0.041
-672.120	-16.356	0.204	0.131
-671.105	-49.215	-0.203	-0.098
-670.091	800.000	-0.074	0.218
-669.076	-156.702	0.046	-0.003
-668.062	635.525	0.106	-0.272
-667.047	-51.824	-0.174	-0.082
-666.032	-200.000	0.038	-0.361
-665.018	-110.455	0.264	-0.055
-664.003	230.817	0.077	-0.128
-662.989	-71.519	-0.228	-0.086
-661.974	-200.000	-0.009	0.130
-660.959	261.176	0.147	-0.257
-659.945	36.401	0.220	-0.196
-658.930	451.439	0.089	0.198
-657.916	-166.823	0.081	0.003
-656.901	-200.000	0.031	-0.227
-655.886	68.995	0.178	-0.185
-654.872	-200.000	-0.008	-0.178
-653.857	-114.230	-0.482	-0.094
-652.843	800.000	-0.052	0.221
-651.828	153.144	0.263	-0.364
-650.814	626.020	0.060	0.154
-649.799	-89.163	-0.365	0.109
-648.784	-74.053	0.223	-0.082
-647.770	12.995	-0.242	0.189
-646.755	51.398	-0.113	-0.109
-645.741	477.464	-0.100	-0.229
-644.726	-145.624	0.303	0.027
-643.711	800.000	0.030	0.114
-642.697	-200.000	-0.016	-0.107
-641.682	-58.794	-0.496	0.217
-640.668	74.369	-0.048	0.051
-639.653	78.204	0.213	-0.230
-638.638	-88.472	-0.276	-0.083
-637.624	-12.581	-0.193	0.127
-636.609	-127.888	-0.238	0.035
-635.595	162.003	0.107	-0.151
-634.580	-200.000	-0.019	0.131
-633.565	-200.000	-0.007	0.095
-632.551	-148.595	0.348	-0.029
-631.536	800.000	0.055	0.192
-630.522	-116.943	-0.235	-0.043
-629.507	251.197	-0.116	0.199
-628.492	-83.144	0.120	-0.039
-627.478	557.296	-0.023	-0.055
-626.463	-113.259	-0.147	0.029
-625.449	-114.797	0.160	-0.031
-624.434	-18.694	0.184	0.116
-623.419	-146.829	-0.296	0.026
-622.405	282.814	0.188	-0.341
-621.390	-200.000	-0.020	-0.323
-620.376	-200.000	-0.027	0.283
-619.361	553.262	0.150	0.365
-618.346	-10.522	-0.241	-0.161
-617.332	377.798	0.181	-0.373
-616.317	-200.000	0.003	-0.036
-615.303	87.520	0.043	0.048
-614.288	-51.136	-0.161	-0.076
-613.273	-60.936	0.199	-0.085
-612.259	-36.752	0.198	0.108
-611.244	-66.595	-0.101	0.040
-610.230	-4.247	0.324	-0.226
-609.215	43.648	-0.089	0.082
-608.201	200.209	0.092	0.142
-607.186	-110.629	-0.148	0.031
-606.171	-200.000	-0.029	-0.186
-605.157	40.194	0.186	-0.169
-604.142	43.212	0.140	-0.129
-603.128	-132.193	-0.239	-0.031
-602.113	248.379	-0.179	-0.306
-601.098	-200.000	0.304	-0.000
-600.084	25.175	-0.105	-0.088
-599.069	44.157	0.313	-0.289
-598.055	-200.000	0.013	-0.305
-597.040	246.625	-0.099	0.169
-596.025	148.365	0.140	0.190
-595.011	-70.434	0.149	0.057
-593.996	-142.683	-0.495	-0.049
-592.982	800.000	-0.073	-0.253
-591.967	667.695	-0.088	0.230
-590.952	197.630	0.096	-0.148
-589.938	-152.456	0.159	0.012
-588.923	-184.051	-0.108	-0.002
-587.909	-42.827	0.115	-0.059
-586.894	-200.000	0.019	-0.194
-585.879	424.810	0.075	-0.164
-584.865	-162.273	-0.135	0.007
-583.850	-49.016	0.089	-0.043
-582.836	559.759	0.049	-0.120
-581.821	-200.000	0.055	-0.307
-580.806	-58.043	-0.335	-0.147
-579.792	-145.436	0.173	0.016
-578.777	-99.108	-0.179	-0.046
-577.763	-125.303	-0.205	0.032
-576.748	-116.570	0.153	-0.029
-575.733	71.549	0.098	-0.102
-574.719	-142.186	-0.150	-0.015
-573.704	-43.533	-0.134	-0.068
-572.690	-61.781	0.153	0.065
-571.675	-138.522	-0.260	-0.029
-570.661	-200.000	-0.033	-0.244
-569.646	-115.961	0.051	-0.010
-568.631	38.769	0.077	-0.069
-567.617	-36.358	-0.314	-0.171
-566.602	-200.000	-0.020	-0.153
-565.588	-166.883	0.153	0.006
-564.573	-38.095	-0.162	0.086
-563.558	310.259	-0.071	0.134
-562.544	-200.000	0.004	0.028
-561.529	760.503	0.024	0.065
-560.515	-33.978	0.240	-0.133
-559.500	-131.223	0.304	-0.041
-558.485	-114.425	0.159	0.031
-557.471	-200.000	0.048	-0.232
-556.456	388.644	0.045	0.094
-555.442	-92.846	-0.239	0.067
-554.427	73.176	0.076	0.080
-553.412	105.777	0.129	-0.153
-552.398	-149.584	-0.306	-0.024
-551.383	-149.414	-0.240	0.019
-550.369	-200.000	-0.068	-0.453
-549.354	800.000	0.065	0.207
-548.339	-87.275	-0.069	-0.021
-547.325	-135.800	0.051	-0.006
-546.310	-103.681	-0.039	0.009
-545.296	191.912	-0.067	0.102
-544.281	-92.450	0.311	0.088
-543.266	-32.438	-0.199	-0.112
-542.252	800.000	0.133	-0.376
-541.237	-200.000	-0.247	-0.000
-540.223	126.222	0.053	0.067
-539.208	193.518	0.137	-0.208
-538.193	-123.122	0.071	0.012
-537.179	-54.106	0.233	-0.107
-536.164	-151.678	0.086	-0.006
-535.150	314.712	-0.149	-0.282
-534.135	699.729	-0.050	-0.133
-533.121	800.000	-0.041	-0.144
-532.106	108.067	-0.138	-0.166
-531.091	-173.590	-0.291	-0.009
-530.077	-181.629	-0.033	-0.001
-529.062	384.278	0.238	0.493
-528.048	27.318	-0.110	-0.093
-527.033	-200.000	-0.002	0.147
-526.018	0.824	0.144	0.104
-525.004	41.655	0.241	-0.220
-523.989	-100.900	-0.160	0.040
-522.975	438.059	0.029	-0.063
-521.960	-56.738	0.159	0.071
-520.945	-106.035	0.062	-0.014
-519.931	-50.228	0.141	-0.067
-518.916	25.253	0.037	0.031
-517.902	-11.440	-0.074	0.049
-516.887	-109.073	0.142	0.030
-515.872	-40.169	-0.445	-0.233
-514.858	297.377	-0.054	-0.100
-513.843	-121.946	0.035	-0.006
-512.829	-200.000	0.009	-0.149
-511.814	800.000	0.062	0.212
-510.799	-200.000	-0.049	0.291
-509.785	260.240	0.129	0.225
-508.770	-112.602	0.277	0.056
-507.756	-2.701	0.131	-0.092
-506.741	15.807	0.253	-0.200
-505.726	-2.554	-0.116	0.082
-504.712	110.147	-0.023	-0.028
-503.697	29.058	0.077	0.066
-502.683	219.357	-0.149	0.240
-501.668	-54.358	0.108	0.049
-500.653	-200.000	0.034	0.161
-499.639	177.958	0.160	-0.235
-498.624	-200.000	0.055	0.245
-497.610	242.645	0.114	-0.192
-496.595	-200.000	0.003	0.121
-495.581	37.289	0.095	-0.084
-494.566	-200.000	-0.012	-0.109
-493.551	11.994	0.064	0.049
-492.537	170.957	0.029	0.042
-491.522	-27.734	-0.138	-0.081
-490.508	-63.048	0.272	-0.113
-489.493	-162.923	0.445	0.022
-488.478	800.000	0.086	-0.267
-487.464	-61.938	-0.302	-0.127
-486.449	-1.182	-0.164	-0.116
-485.435	-200.000	-0.009	0.083
-484.420	-101.530	-0.130	0.032
-483.405	-200.000	-0.005	-0.182
-482.391	61.880	0.192	-0.193
-481.376	-200.000	0.035	-0.175
-480.362	88.353	0.023	-0.026
-479.347	-22.591	0.257	0.156
-478.332	-94.668	-0.250	0.068
-477.318	-35.503	0.116	0.063
-476.303	174.756	-0.193	-0.280
-475.289	-159.336	0.046	-0.003
-474.274	-26.942	0.135	-0.079
-473.259	197.681	-0.078	-0.120
-472.245	534.357	0.094	0.225
-471.230	484.264	0.079	-0.180
-470.216	-8.359	-0.397	0.268
-469.201	118.289	-0.115	-0.142
-468.186	139.476	-0.212	-0.280
-467.172	-200.000	0.056	0.254
-466.157	-133.785	-0.038	-0.005
-465.143	566.166	-0.014	0.033
-464.128	-141.552	0.297	0.030
-463.113	-168.801	-0.222	0.008
-462.099	-153.989	-0.285	-0.019
-461.084	560.046	0.084	0.204
-460.070	-139.069	-0.170	-0.018
-459.055	-200.000	-0.005	0.144
-458.040	-200.000	-0.031	0.205
-457.026	361.504	0.126	0.254
-456.011	-118.774	0.187	0.033
-454.997	373.276	0.183	0.374
-453.982	-1.873	-0.210	-0.148
-452.968	-54.634	-0.133	-0.061
-451.953	-200.000	-0.012	0.108
-450.938	-67.283	-0.284	-0.112
-449.924	-154.364	0.191	0.013
-448.909	-164.066	-0.111	0.005
-447.895	-69.977	0.285	-0.109
-446.880	-129.737	-0.035	-0.005
-445.865	-200.000	-0.010	-0.099
-444.851	-63.279	-0.161	0.066
-443.836	-12.903	-0.174	0.113
-442.822	-42.220	-0.147	0.075
-441.807	-88.056	-0.327	0.098
-440.792	-200.000	0.031	0.198
-439.778	-200.000	-0.022	0.102
-438.763	271.259	-0.047	-0.083
-437.749	83.360	-0.087	0.095
-436.734	414.430	0.282	0.603
-435.719	-184.232	-0.173	-0.003
-434.705	349.070	0.023	-0.046
-433.690	319.734	0.024	0.046
-432.676	800.000	0.100	0.285
-431.661	-200.000	-0.030	-0.150
-430.646	339.615	-0.187	0.366
-429.632	-154.192	-0.217	-0.015
-428.617	448.537	0.029	0.065
-427.603	-58.228	-0.377	-0.164
-426.588	-20.750	-0.287	-0.176
-425.573	-50.482	0.249	0.118
-424.559	800.000	-0.036	0.156
-423.544	466.846	0.150	0.336
-422.530	755.548	0.023	-0.062
-421.515	-200.000	-0.025	0.112
-420.500	-108.278	-0.312	-0.068
-419.486	-200.000	0.019	-0.206
-418.471	800.000	0.040	-0.132
-417.457	800.000	0.068	0.258
-416.442	313.563	0.097	-0.182
-415.428	351.875	0.060	-0.119
-414.413	533.680	-0.116	0.275
-413.398	-200.000	-0.017	-0.604
-412.384	800.000	-0.056	-0.218
-411.369	40.324	-0.121	-0.109
-410.355	-5.409	-0.245	0.168
-409.340	-200.000	0.030	0.150
-408.325	-76.818	-0.119	-0.042
-407.311	383.089	0.039	0.081
-406.296	600.605	-0.084	-0.209
-405.282	800.000	0.131	0.398
-404.267	-87.569	-0.334	-0.101
-403.252	75.838	0.028	-0.030
-402.238	335.195	0.087	0.170
-401.223	-74.124	0.275	-0.100
-400.209	568.500	-0.083	0.202
-399.194	-25.654	-0.191	-0.113
-398.179	-35.825	0.132	-0.072
-397.165	34.613	0.264	0.231
-396.150	83.804	0.156	-0.170
-395.136	272.656	-0.105	-0.186
-394.121	261.096	-0.080	-0.139
-393.106	-108.932	0.117	0.025
-392.092	26.165	0.199	-0.166
-391.077	158.500	-0.109	0.151
-390.063	54.218	0.276	0.266
-389.048	154.802	0.088	0.121
-388.033	-146.282	-0.145	0.013
-387.019	637.721	-0.147	0.375
-386.004	-119.219	0.192	-0.034
-384.990	-200.000	0.002	0.173
-383.975	-35.433	0.228	-0.124
-382.960	800.000	0.051	-0.187
-381.946	800.000	-0.022	0.081
-380.931	800.000	0.013	-0.044
-379.917	466.758	-0.045	-0.102
-378.902	-96.162	0.386	0.103
-377.888	43.169	0.108	-0.098
-376.873	105.441	-0.096	0.114
-375.858	-96.929	-0.134	-0.035
-374.844	-62.688	-0.036	0.015
-373.829	-157.662	0.228	0.014
-372.815	112.565	0.111	-0.135
-371.800	-200.000	-0.013	-0.258
-370.785	-156.413	-0.037	0.002
-369.771	-76.437	0.152	-0.054
-368.756	195.106	-0.125	0.190
-367.742	395.288	0.138	-0.288
-366.727	800.000	-0.012	-0.039
-365.712	673.096	0.104	0.270
-364.698	-137.038	-0.173	0.020
-363.683	131.025	-0.067	-0.086
-362.669	-158.303	-0.143	-0.008
-361.654	477.096	-0.151	0.342
-360.639	-152.461	-0.226	-0.016
-359.625	310.671	-0.035	-0.065
-358.610	37.043	0.159	0.140
-357.596	-200.000	0.009	-0.282
-356.581	-30.756	-0.128	0.072
-355.566	-64.097	-0.271	0.110
-354.552	438.896	-0.125	-0.273
-353.537	61.703	0.195	0.194
-352.523	-5.171	-0.083	-0.057
-351.508	-200.000	0.013	0.222
-350.493	81.431	0.133	-0.144
-349.479	-73.935	-0.085	0.031
-348.464	174.579	-0.211	0.305
-347.450	125.628	-0.131	-0.166
-346.435	176.933	-0.127	-0.185
-345.420	-200.000	-0.001	0.180
-344.406	48.581	0.246	0.230
-343.391	800.000	-0.056	0.189
-342.377	-53.169	-0.278	-0.128
-341.362	312.686	0.034	-0.064
-340.348	76.728	0.085	0.090
-339.333	-200.000	0.022	0.196
-338.318	800.000	-0.047	-0.189
-337.304	127.171	0.062	-0.079
-336.289	-200.000	0.006	0.053
-335.275	-124.970	0.210	0.032
-334.260	-200.000	0.039	0.271
-333.245	-110.050	-0.396	-0.083
-332.231	414.961	-0.027	0.058
-331.216	-200.000	0.016	0.073
-330.202	-79.964	0.066	0.022
-329.187	-55.745	0.315	-0.141
-328.172	-10.689	0.189	0.125
-327.158	207.446	0.093	0.145
-326.143	178.760	0.087	-0.127
-325.129	209.579	-0.106	-0.165
-324.114	-116.346	-0.309	0.057
-323.099	49.612	-0.169	-0.159
-322.085	39.551	-0.131	-0.118
-321.070	-10.544	-0.089	0.059
-320.056	800.000	0.016	-0.070
-319.041	-46.079	0.017	0.008
-318.026	135.860	-0.172	-0.224
-317.012	167.116	-0.123	-0.175
-315.997	71.356	0.193	0.200
-314.983	-111.587	0.111	-0.022
-313.968	131.797	0.171	-0.220
-312.953	-121.719	0.040	-0.007
-311.939	800.000	-0.094	0.394
-310.924	-200.000	0.005	-0.090
-309.910	126.218	0.269	-0.340
-308.895	285.192	-0.231	0.415
-307.880	-200.000	-0.005	-0.030
-306.866	-200.000	0.057	-0.320
-305.851	-200.000	0.057	0.391
-304.837	-101.103	0.080	-0.019
-303.822	-60.448	-0.188	0.080
-302.807	-138.398	-0.161	0.018
-301.793	-6.056	0.158	-0.108
-300.778	12.834	0.098	-0.076
-299.764	590.290	0.138	-0.339
-298.749	174.830	0.176	-0.254
-297.735	274.739	-0.093	-0.165
-296.720	800.000	0.103	0.320
-295.705	258.170	-0.128	0.219
-294.691	-200.000	-0.016	-0.416
-293.676	-200.000	-0.011	0.244
-292.662	153.579	0.095	0.129
-291.647	-200.000	0.040	0.371
-290.632	-100.318	-0.065	-0.016
-289.618	800.000	0.094	0.263
-288.603	-25.805	-0.433	0.255
-287.589	-200.000	0.018	0.284
-286.574	-200.000	-0.006	0.464
-285.559	-5.727	0.107	0.073
-284.545	-200.000	-0.012	0.258
-283.530	49.792	-0.150	-0.141
-282.516	-181.902	-0.341	0.006
-281.501	-200.000	0.009	0.087
-280.486	24.554	-0.083	0.068
-279.472	-139.406	-0.177	-0.019
-278.457	-200.000	0.004	-0.214
-277.443	-65.218	-0.145	-0.058
-276.428	-200.000	-0.033	-0.250
-275.413	800.000	0.051	-0.223
-274.399	529.064	-0.056	-0.132
-273.384	-78.544	0.369	0.126
-272.370	-200.000	0.049	-0.304
-271.355	50.580	0.170	-0.160
-270.340	-101.792	-0.365	0.088
-269.326	-86.641	-0.171	-0.052
-268.311	800.000	0.115	0.337
-267.297	800.000	0.054	0.181
-266.282	74.526	0.167	0.175
-265.267	-169.781	0.432	0.016
-264.253	-200.000	-0.005	-0.056
-263.238	17.177	0.141	0.111
-262.224	135.191	-0.053	0.068
-261.209	-121.193	-0.213	0.036
-260.195	800.000	0.011	-0.046
-259.180	800.000	-0.065	-0.268
-258.165	-117.051	0.190	-0.035
-257.151	-200.000	0.004	-0.050
-256.136	155.381	0.168	0.230
-255.122	-78.551	0.120	0.041
-254.107	264.282	0.122	0.212
-253.092	-200.000	0.016	0.124
-252.078	-200.000	0.075	0.330
-251.063	-30.708	0.064	0.036
-250.049	31.577	-0.244	-0.209
-249.034	573.817	0.062	-0.151
-248.019	157.597	0.143	0.197
-247.005	462.006	-0.168	0.372
-245.990	-69.584	0.275	0.105
-244.976	127.417	-0.056	0.070
-243.961	-31.420	-0.156	-0.087
-242.946	-200.000	0.008	0.380
-241.932	800.000	-0.061	0.188
-240.917	-36.204	0.285	-0.153
-239.903	-5.265	-0.348	-0.238
-238.888	51.754	-0.059	-0.056
-237.873	-106.676	0.225	0.050
-236.859	800.000	-0.031	-0.087
-235.844	-89.660	-0.264	-0.077
-234.830	-21.630	0.197	-0.120
-233.815	30.391	-0.148	-0.125
-232.800	-76.950	-0.144	0.050
-231.786	370.317	-0.084	-0.170
-230.771	-67.176	0.142	0.056
-229.757	-180.501	0.175	-0.004
-228.742	800.000	0.027	0.089
-227.727	-194.879	0.449	-0.003
-226.713	-200.000	0.010	-0.063
-225.698	150.442	0.219	-0.295
-224.684	386.633	0.121	0.249
-223.669	188.425	0.151	0.224
-222.655	-173.979	-0.270	-0.008
-221.640	-130.058	-0.392	0.053
-220.625	336.740	0.119	-0.229
-219.611	151.395	0.045	-0.061
-218.596	-152.745	-0.139	-0.010
-217.582	-123.911	0.223	0.035
-216.567	145.523	-0.180	-0.239
-215.552	41.048	-0.195	-0.175
-214.538	202.385	0.158	-0.243
-213.523	-75.374	-0.434	-0.154
-212.509	-200.000	-0.036	-0.206
-211.494	-200.000	-0.030	-0.226
-210.479	-34.602	-0.057	-0.031
-209.465	-38.105	0.174	0.092
-208.450	-68.392	-0.101	0.039
-207.436	-200.000	0.005	0.320
-206.421	261.288	-0.123	0.212
-205.406	367.029	0.097	-0.194
-204.392	-200.000	0.033	0.183
-203.377	-26.280	0.228	0.133
-202.363	316.657	-0.135	0.253
-201.348	-22.349	0.087	0.053
-200.333	800.000	-0.050	-0.191
-199.319	-9.502	0.210	0.139
-198.304	-200.000	-0.017	-0.145
-197.290	800.000	-0.052	0.162
-196.275	800.000	0.081	0.242
-195.260	-66.112	0.213	0.084
-194.246	103.458	0.078	-0.091
-193.231	-23.145	0.207	0.124
-192.217	-200.000	0.005	0.036
-191.202	388.173	-0.059	-0.122
-190.187	790.599	0.096	-0.262
-189.173	20.846	-0.096	0.077
-188.158	131.595	0.055	0.071
-187.144	-52.903	-0.267	0.122
-186.129	124.623	0.110	-0.137
-185.114	-129.093	0.431	-0.060
-184.100	-93.889	-0.292	0.080
-183.085	470.489	-0.041	-0.093
-182.071	-42.624	-0.068	-0.035
-181.056	98.328	0.105	-0.120
-180.042	-104.628	0.211	-0.048
-179.027	545.723	-0.199	-0.473
-178.012	-74.778	0.247	0.088
-176.998	-116.887	0.318	-0.058
-175.983	491.623	-0.092	-0.210
-174.969	139.743	0.027	-0.036
-173.954	-118.860	0.241	0.042
-172.939	-200.000	-0.047	0.208
-171.925	-25.483	0.027	0.016
-170.910	-70.546	0.324	0.122
-169.896	-63.527	0.269	0.109
-168.881	167.126	-0.081	-0.115
-167.866	127.910	-0.087	0.110
-166.852	-200.000	-0.011	0.081
-165.837	213.157	0.029	-0.045
-164.823	-18.468	-0.190	0.118
-163.808	-129.755	-0.266	0.036
-162.793	-88.868	0.142	-0.042
-161.779	255.666	-0.015	-0.026
-160.764	225.835	-0.202	0.324
-159.750	-185.774	0.273	-0.004
-158.735	-11.836	0.027	-0.018
-157.720	260.548	-0.095	0.162
-156.706	-182.603	0.309	0.006
-155.691	65.940	-0.120	-0.120
-154.677	-200.000	-0.003	0.085
-153.662	43.447	0.036	-0.033
-152.647	-45.939	-0.166	-0.081
-151.633	75.976	-0.213	0.223
-150.618	-24.969	-0.153	0.090
-149.604	47.015	0.185	-0.170
-148.589	-200.000	-0.013	0.151
-147.574	47.379	0.065	0.060
-146.560	86.847	-0.105	0.115
-145.545	-176.541	-0.219	0.006
-144.531	264.228	-0.099	-0.171
-143.516	800.000	-0.033	-0.140
-142.502	738.236	-0.035	0.093
-141.487	-22.929	-0.230	-0.138
-140.472	-128.667	0.189	0.026
-139.458	-66.240	0.177	-0.070
-138.443	-36.989	0.091	-0.048
-137.429	551.428	-0.053	0.127
-136.414	69.122	0.122	0.124
-135.399	176.364	0.129	0.185
-134.385	770.135	0.057	0.154
-133.370	800.000	-0.019	-0.053
-132.356	170.828	0.187	-0.266
-131.341	-200.000	0.033	-0.167
-130.326	21.114	0.120	-0.097
-129.312	459.880	0.206	-0.455
-128.297	-115.936	0.475	0.088
-127.283	-68.255	0.050	-0.019
-126.268	580.919	0.112	-0.271
-125.253	135.327	0.132	-0.170
-124.239	80.140	0.223	0.238
-123.224	-141.673	-0.289	-0.029
-122.210	218.413	0.062	-0.099
-121.195	316.623	-0.081	0.152
-120.180	710.555	0.078	0.205
-119.166	-15.929	-0.250	-0.157
-118.151	-34.934	-0.313	-0.169
-117.137	-164.655	-0.052	0.002
-116.122	208.895	-0.119	0.185
-115.107	-32.664	0.153	-0.084
-114.093	-200.000	0.028	0.197
-113.078	37.010	-0.285	-0.250
-112.064	-23.029	0.258	-0.154
-111.049	-13.294	-0.062	-0.040
-110.034	-35.024	-0.230	0.124
-109.020	-200.000	-0.024	0.185
-108.005	-9.440	0.156	-0.103
-106.991	-22.145	0.256	-0.154
-105.976	199.158	-0.210	-0.319
-104.962	83.406	0.057	0.062
-103.947	-101.802	0.054	-0.013
-102.932	-108.958	0.089	-0.019
-101.918	229.755	-0.068	-0.109
-100.903	-58.094	-0.025	0.011
-99.889	-52.073	-0.154	-0.071
-98.874	386.199	-0.133	0.271
-97.859	800.000	0.052	0.223
-96.845	-99.643	-0.307	0.076
-95.830	44.250	0.128	0.116
-94.816	-0.596	-0.088	-0.062
-93.801	-200.000	0.008	0.221
-92.786	800.000	0.035	-0.109
-91.772	-150.130	0.212	0.016
-90.757	19.544	0.188	-0.150
-89.743	-7.998	0.162	-0.108
-88.728	-9.469	0.132	-0.087
-87.713	184.175	0.034	0.050
-86.699	-200.000	0.017	-0.211
-85.684	-42.084	-0.023	-0.012
-84.670	-37.569	0.076	0.040
-83.655	74.956	0.167	-0.174
-82.640	-200.000	-0.022	0.227
-81.626	-26.331	0.186	-0.108
-80.611	-87.439	0.121	-0.036
-79.597	-103.843	-0.163	0.038
-78.582	-121.744	-0.174	-0.028
-77.567	-147.787	0.403	0.033
-76.553	-130.944	-0.434	0.057
-75.538	240.309	-0.160	-0.264
-74.524	353.503	0.051	0.100
-73.509	76.122	0.141	-0.148
-72.494	-93.587	-0.270	0.074
-71.480	743.715	-0.066	-0.176
-70.465	-200.000	0.016	-0.218
-69.451	-200.000	0.017	-0.078
-68.436	-42.628	-0.227	0.114
-67.422	-200.000	0.007	0.105
-66.407	632.088	0.054	-0.135
-65.392	-200.000	-0.002	0.149
-64.378	-9.041	0.082	0.054
-63.363	421.313	-0.048	-0.103
-62.349	-84.002	0.297	-0.093
-61.334	18.771	-1.186	-0.938
-60.319	183.861	0.260	0.381
-59.305	382.185	-0.294	-0.596
-58.290	54.939	0.878	0.837
-57.276	800.000	0.567	1.560
-56.261	-200.000	102.516	592.127
-55.246	547.842	1433.959	3391.321
-54.232	183.702	2630.736	3842.980
-53.217	106.301	2314.512	2709.010
-52.203	37.198	2067.036	1808.100
-51.188	32.216	1980.934	1688.105
-50.173	30.862	1962.913	1660.618
-49.159	46.380	2017.297	1847.340
-48.144	47.339	2034.469	1871.675
-47.130	32.873	1994.220	1705.093
-46.115	30.601	1983.358	1675.297
-45.100	30.594	1980.430	1672.694
-44.086	30.472	1978.234	1669.673
-43.071	30.457	1975.784	1667.413
-42.057	30.424	1973.853	1665.418
-41.042	30.425	1972.080	1663.860
-40.027	30.524	1969.800	1662.756
-39.013	30.466	1967.704	1660.402
-37.998	30.562	1965.994	1659.754
-36.984	30.579	1963.958	1658.124
-35.969	30.602	1961.698	1656.352
-34.954	30.557	1960.133	1654.563
-33.940	30.588	1959.161	1653.957
-32.925	30.585	1957.291	1652.279
-31.911	30.576	1955.542	1650.665
-30.896	30.661	1953.568	1649.684
-29.881	30.625	1952.585	1648.468
-28.867	30.686	1950.635	1647.295
-27.852	30.683	1948.892	1645.738
-26.838	30.659	1947.257	1644.074
-25.823	30.716	1945.280	1642.841
-24.809	30.622	1943.731	1640.640
-23.794	30.648	1941.934	1639.288
-22.779	30.678	1940.448	1638.231
-21.765	30.705	1938.861	1637.065
-20.750	30.616	1937.114	1634.747
-19.736	30.653	1935.458	1633.604
-18.721	30.730	1933.758	1632.783
-17.706	30.720	1932.258	1631.360
-16.692	30.657	1930.860	1629.567
-15.677	30.617	1929.038	1627.613
-14.663	30.704	1927.321	1626.862
-13.648	30.671	1926.548	1625.853
-12.633	30.615	1925.354	1624.299
-11.619	30.674	1923.719	1623.366
-10.604	30.606	1922.655	1621.812
-9.590	30.623	1921.400	1620.832
-8.575	30.581	1919.500	1618.800
-7.560	30.591	1918.418	1617.916
-6.546	30.679	1917.104	1617.503
-5.531	30.565	1916.054	1615.561
-4.517	30.637	1914.417	1614.742
-3.502	30.636	1913.259	1613.698
-2.487	30.567	1912.163	1612.114
-1.473	30.613	1911.540	1611.918
-0.458	30.736	1906.476	1608.651
0.556	29.824	1887.102	1582.182
1.571	25.774	1868.780	1532.297
2.586	22.009	1892.170	1518.834
3.600	21.043	1928.612	1539.425
4.615	20.624	1923.099	1531.203
5.629	16.170	1822.839	1413.998
6.644	8.496	1708.161	1264.431
7.659	5.106	1673.374	1212.268
8.673	4.772	1670.383	1207.407
9.688	4.747	1669.031	1206.129
10.702	4.775	1667.699	1205.273
11.717	4.775	1663.987	1202.485
12.731	5.184	1663.649	1205.294
13.746	10.243	1676.025	1253.415
14.761	17.022	1690.882	1317.207
15.775	19.181	1692.687	1335.258
16.790	18.402	1689.375	1326.492
17.804	17.227	1686.329	1314.899
18.819	16.331	1682.901	1305.186
19.834	15.638	1680.330	1297.729
20.848	15.374	1679.369	1294.835
21.863	15.114	1677.176	1291.024
22.877	14.841	1675.976	1287.880
23.892	14.539	1674.831	1284.563
24.907	14.541	1673.536	1283.470
25.921	14.628	1672.255	1283.049
26.936	14.657	1670.872	1282.091
27.950	14.591	1670.525	1281.204
28.965	14.679	1670.047	1281.401
29.980	14.731	1669.182	1281.025
30.994	14.752	1668.285	1280.382
32.009	14.879	1667.140	1280.364
33.023	14.943	1666.372	1280.152
34.038	14.871	1665.699	1278.970
35.053	14.997	1663.952	1278.478
36.067	14.814	1662.734	1276.028
37.082	14.807	1661.892	1275.217
38.096	14.782	1660.529	1273.870
39.111	14.811	1659.676	1273.324
40.126	14.780	1658.965	1272.428
41.140	14.828	1658.040	1271.974
42.155	14.712	1656.632	1269.898
43.169	14.566	1655.197	1267.577
44.184	14.496	1654.353	1266.288
45.199	14.454	1653.163	1264.944
46.213	14.576	1651.826	1264.737
47.228	14.507	1650.667	1263.215
48.242	14.711	1649.155	1263.488
49.257	14.731	1648.553	1263.062
50.271	14.665	1647.214	1261.431
51.286	14.698	1645.676	1260.390
52.301	14.724	1644.680	1259.714
53.315	14.714	1643.050	1258.275
54.330	14.692	1641.828	1257.065
55.344	14.704	1639.924	1255.588
56.359	14.573	1638.643	1253.506
57.374	14.600	1637.592	1252.797
58.388	14.647	1636.252	1252.009
59.403	14.545	1635.288	1250.400
60.417	14.599	1633.575	1249.383
61.432	14.539	1632.392	1247.919
62.447	14.546	1631.369	1247.083
63.461	14.464	1630.378	1245.601
64.476	14.441	1629.319	1244.506
65.490	14.446	1628.271	1243.635
66.505	14.298	1627.357	1241.722
67.520	14.460	1626.045	1241.822
68.534	14.482	1625.330	1241.326
69.549	14.500	1623.569	1240.002
70.563	14.533	1623.154	1239.825
71.578	14.435	1622.070	1238.160
72.593	14.509	1620.543	1237.429
73.607	14.414	1619.103	1235.519
74.622	14.393	1618.213	1234.575
75.636	14.296	1617.670	1233.330
76.651	14.459	1616.463	1233.508
77.666	14.383	1615.756	1232.296
78.680	14.416	1614.947	1231.820
79.695	14.454	1614.493	1231.640
80.709	14.463	1613.048	1230.494
81.724	14.508	1612.715	1230.469
82.739	14.563	1611.860	1230.110
83.753	14.528	1611.069	1229.139
84.768	14.560	1610.147	1228.565
85.782	14.728	1609.341	1229.079
86.797	14.727	1608.475	1228.301
87.812	14.774	1607.143	1227.522
88.826	14.735	1605.946	1226.209
89.841	14.740	1604.508	1225.042
90.855	14.733	1603.605	1224.194
91.870	14.796	1602.612	1223.786
92.884	14.697	1602.064	1222.531
93.899	14.859	1600.741	1222.602
94.914	14.882	1599.252	1221.528
95.928	14.813	1598.542	1220.371
96.943	14.979	1596.702	1220.067
97.957	14.978	1595.296	1218.879
98.972	14.847	1593.982	1216.814
99.987	14.843	1592.678	1215.678
101.001	14.764	1591.203	1213.876
102.016	14.738	1589.782	1212.494
103.030	14.725	1588.124	1211.027
104.045	14.774	1587.107	1210.497
105.060	14.839	1585.582	1209.703
106.074	14.808	1583.962	1208.130
107.089	14.611	1582.205	1205.260
108.103	14.517	1580.449	1203.139
109.118	14.417	1579.437	1201.542
110.133	14.427	1578.102	1200.496
111.147	14.406	1576.447	1198.977
112.162	14.501	1575.011	1198.465
113.176	14.489	1573.324	1196.988
114.191	14.469	1572.351	1195.999
115.206	14.624	1570.869	1195.874
116.220	14.588	1569.792	1194.690
117.235	14.633	1568.156	1193.662
118.249	14.521	1567.228	1192.051
119.264	14.532	1565.859	1190.980
120.279	14.479	1564.889	1189.756
121.293	14.484	1563.233	1188.434
122.308	14.466	1561.615	1186.968
123.322	14.461	1560.271	1185.807
124.337	14.390	1558.665	1183.977
125.352	14.374	1557.487	1182.859
126.366	14.396	1556.325	1182.029
127.381	14.422	1555.365	1181.382
128.395	14.412	1553.843	1180.050
129.410	14.461	1552.246	1179.080
130.424	14.514	1551.184	1178.547
131.439	14.564	1549.947	1177.854
132.454	14.539	1548.711	1176.632
133.468	14.598	1546.696	1175.414
134.483	14.643	1545.568	1174.770
135.497	14.603	1544.599	1173.645
136.512	14.567	1543.184	1172.215
137.527	14.582	1542.451	1171.662
138.541	14.700	1540.760	1171.100
139.556	14.701	1539.365	1169.939
140.570	14.689	1537.789	1168.558
141.585	14.788	1536.388	1168.081
142.600	14.759	1535.687	1167.241
143.614	14.898	1534.282	1167.039
144.629	14.791	1533.473	1165.578
145.643	14.912	1532.062	1165.241
146.658	14.926	1530.744	1164.237
147.673	14.898	1528.777	1162.444
148.687	14.876	1527.063	1160.883
149.702	14.694	1525.985	1158.695
150.716	14.778	1524.033	1157.696
151.731	14.738	1522.659	1156.273
152.746	14.785	1521.635	1155.715
153.760	14.726	1520.424	1154.287
154.775	14.722	1519.096	1153.152
155.789	14.803	1517.928	1152.718
156.804	14.894	1516.580	1152.218
157.819	14.843	1515.804	1151.177
158.833	14.933	1514.387	1150.619
159.848	14.979	1513.036	1149.810
160.862	15.047	1512.191	1149.534
161.877	15.048	1511.047	1148.566
162.892	15.002	1509.441	1146.930
163.906	14.813	1508.553	1144.861
164.921	14.834	1507.370	1144.004
165.935	14.832	1506.253	1143.037
166.950	14.845	1505.228	1142.250
167.964	14.923	1503.974	1141.733
168.979	14.890	1503.175	1140.793
169.994	14.899	1502.311	1140.103
171.008	14.908	1501.055	1139.110
172.023	14.962	1499.974	1138.556
173.037	14.997	1498.954	1137.918
174.052	14.980	1498.005	1136.979
175.067	15.090	1497.061	1136.913
176.081	15.058	1495.371	1135.309
177.096	14.922	1494.188	1133.392
178.110	14.919	1492.545	1132.024
179.125	14.823	1492.259	1131.060
180.140	14.957	1490.726	1130.700
181.154	14.980	1489.758	1130.021
182.169	15.065	1488.615	1129.628
183.183	15.033	1487.196	1128.235
184.198	15.060	1487.201	1128.321
185.213	15.183	1485.474	1127.740
186.227	15.161	1484.162	1126.494
187.242	15.197	1483.133	1125.855
188.256	15.150	1482.590	1125.032
189.271	15.206	1481.404	1124.403
190.286	15.315	1479.992	1123.964
191.300	15.329	1479.182	1123.342
192.315	15.091	1477.828	1120.623
193.329	14.931	1476.311	1118.305
194.344	14.957	1475.272	1117.595
195.359	14.948	1474.460	1116.820
196.373	15.074	1473.082	1116.520
197.388	15.115	1472.502	1116.249
198.402	15.230	1471.281	1115.995
199.417	15.268	1470.608	1115.637
200.432	15.347	1469.741	1115.403
201.446	15.468	1468.211	1114.950
202.461	15.458	1467.419	1114.183
203.475	15.484	1466.277	1113.392
204.490	15.504	1465.472	1112.813
205.504	15.498	1464.163	1111.683
206.519	15.479	1462.772	1110.399
207.534	15.407	1461.529	1108.882
208.548	15.333	1460.800	1107.741
209.563	15.402	1459.520	1107.130
210.577	15.395	1458.821	1106.457
211.592	15.360	1457.875	1105.409
212.607	15.433	1457.597	1105.583
213.621	15.579	1456.391	1105.531
214.636	15.533	1455.625	1104.548
215.650	15.598	1454.659	1104.144
216.665	15.551	1453.555	1102.902
217.680	15.548	1452.962	1102.333
218.694	15.659	1452.046	1102.267
219.709	15.670	1451.420	1101.766
220.723	15.718	1449.951	1100.865
221.738	15.703	1449.349	1100.218
222.753	15.678	1448.863	1099.588
223.767	15.623	1447.691	1098.240
224.782	15.621	1446.336	1097.103
225.796	15.689	1445.497	1096.812
226.811	15.706	1445.107	1096.529
227.826	15.837	1444.036	1096.474
228.840	15.755	1442.855	1094.949
229.855	15.774	1441.956	1094.288
230.869	15.752	1440.875	1093.233
231.884	15.694	1439.894	1092.016
232.899	15.699	1438.948	1091.234
233.913	15.626	1437.543	1089.598
234.928	15.700	1436.222	1088.979
235.942	15.570	1435.613	1087.579
236.957	15.616	1434.203	1086.711
237.972	15.664	1432.812	1085.870
238.986	15.566	1431.818	1084.389
240.001	15.636	1431.265	1084.326
241.015	15.598	1430.372	1083.309
242.030	15.738	1428.861	1082.970
243.045	15.715	1427.912	1082.008
244.059	15.788	1427.174	1081.823
245.074	15.750	1426.255	1080.786
246.088	15.837	1425.252	1080.487
247.103	15.899	1424.270	1080.043
248.117	15.906	1424.035	1079.818
249.132	15.947	1423.361	1079.475
250.147	16.070	1422.242	1079.317
251.161	16.122	1422.235	1079.549
252.176	16.125	1421.737	1079.095
253.190	16.291	1420.814	1079.356
254.205	16.414	1419.514	1079.059
255.220	16.323	1418.898	1077.917
256.234	16.356	1418.494	1077.722
257.249	16.453	1417.083	1077.179
258.263	16.323	1416.419	1075.746
259.278	16.437	1415.556	1075.723
260.293	16.309	1414.688	1074.156
261.307	16.389	1413.936	1073.997
262.322	16.552	1412.862	1074.121
263.336	16.430	1412.620	1073.070
264.351	16.517	1411.311	1072.529
265.366	16.559	1410.354	1071.971
266.380	16.495	1409.398	1070.747
267.395	16.531	1408.736	1070.380
268.409	16.558	1407.935	1069.847
269.424	16.503	1406.489	1068.302
270.439	16.454	1405.461	1067.118
271.453	16.496	1404.800	1066.786
272.468	16.474	1403.586	1065.633
273.482	16.391	1403.198	1064.723
274.497	16.428	1402.479	1064.316
275.512	16.536	1401.311	1064.014
276.526	16.373	1400.418	1062.218
277.541	16.446	1399.102	1061.584
278.555	16.503	1398.388	1061.305
279.570	16.481	1398.060	1060.822
280.585	16.570	1396.933	1060.432
281.599	16.726	1395.659	1060.348
282.614	16.757	1394.758	1059.762
283.628	16.602	1394.190	1058.268
284.643	16.529	1393.010	1056.825
285.657	16.549	1391.935	1056.040
286.672	16.507	1391.353	1055.246
287.687	16.614	1390.190	1054.936
288.701	16.622	1388.831	1053.859
289.716	16.658	1387.978	1053.342
290.730	16.667	1387.731	1053.118
291.745	16.680	1386.498	1052.172
292.760	16.693	1385.432	1051.349
293.774	16.724	1384.635	1050.841
294.789	16.666	1383.717	1049.693
295.803	16.864	1382.905	1050.213
296.818	16.854	1382.084	1049.432
297.833	16.778	1381.346	1048.313
298.847	16.732	1380.270	1047.114
299.862	16.764	1379.011	1046.265
300.876	16.730	1378.123	1045.291
301.891	16.854	1377.193	1045.258
302.906	16.797	1376.568	1044.339
303.920	16.856	1375.973	1044.157
304.935	16.888	1374.935	1043.475
305.949	17.017	1374.469	1043.823
306.964	17.082	1373.302	1043.244
307.979	17.053	1372.462	1042.334
308.993	17.004	1371.936	1041.543
310.008	17.135	1370.726	1041.334
311.022	17.035	1369.632	1039.798
312.037	17.116	1368.474	1039.324
313.052	17.153	1367.693	1038.864
314.066	17.076	1366.699	1037.546
315.081	17.047	1365.383	1036.283
316.095	17.005	1364.142	1034.991
317.110	17.057	1363.092	1034.422
318.125	16.951	1361.965	1032.829
319.139	16.857	1361.924	1032.133
320.154	16.926	1360.988	1031.752
321.168	16.998	1359.592	1031.041
322.183	17.003	1358.627	1030.244
323.197	16.983	1357.821	1029.422
324.212	16.995	1357.177	1028.919
325.227	17.122	1355.920	1028.643
326.241	17.076	1355.180	1027.712
327.256	17.060	1354.309	1026.864
328.270	17.079	1353.761	1026.468
329.285	17.078	1352.746	1025.606
330.300	17.024	1352.073	1024.679
331.314	17.107	1350.825	1024.140
332.329	17.136	1350.010	1023.609
333.343	17.071	1349.040	1022.388
334.358	17.157	1348.125	1022.127
335.373	17.103	1347.484	1021.222
336.387	17.164	1346.736	1020.933
337.402	17.212	1346.149	1020.688
338.416	17.158	1345.596	1019.849
339.431	17.282	1344.551	1019.712
340.446	17.462	1343.835	1020.157
341.460	17.432	1342.905	1019.182
342.475	17.519	1341.993	1018.924
343.489	17.538	1341.471	1018.548
344.504	17.557	1340.537	1017.860
345.519	17.588	1339.495	1017.168
346.533	17.550	1339.135	1016.577
347.548	17.579	1337.891	1015.714
348.562	17.615	1337.006	1015.170
349.577	17.668	1336.483	1014.995
350.592	17.616	1335.294	1013.695
351.606	17.533	1334.433	1012.460
352.621	17.635	1333.194	1012.032
353.635	17.468	1332.362	1010.324
354.650	17.571	1331.298	1010.034
355.665	17.433	1330.564	1008.573
356.679	17.519	1329.153	1007.919
357.694	17.471	1328.360	1006.949
358.708	17.611	1327.370	1006.937
359.723	17.585	1326.370	1005.935
360.738	17.662	1325.121	1005.351
361.752	17.635	1324.552	1004.673
362.767	17.736	1322.837	1003.878
363.781	17.676	1322.103	1002.881
364.796	17.686	1321.527	1002.409
365.810	17.804	1320.787	1002.457
366.825	17.738	1320.441	1001.716
367.840	17.867	1319.742	1001.856
368.854	17.995	1318.654	1001.688
369.869	17.989	1318.074	1001.128
370.883	17.999	1317.993	1001.037
371.898	17.907	1316.748	999.461
372.913	17.936	1315.714	998.760
373.927	17.965	1315.034	998.322
374.942	17.922	1314.133	997.297
375.956	17.960	1313.465	996.926
376.971	18.039	1312.695	996.712
377.986	17.972	1311.712	995.490
379.000	17.954	1311.519	995.148
380.015	18.067	1310.209	994.725
381.029	18.011	1309.861	994.046
382.044	18.192	1308.749	994.169
383.059	18.123	1308.437	993.443
384.073	18.219	1307.358	993.093
385.088	18.183	1306.572	992.200
386.102	18.121	1306.296	991.538
387.117	18.290	1305.445	991.785
388.132	18.157	1304.616	990.300
389.146	18.108	1303.877	989.369
390.161	18.027	1302.799	987.992
391.175	18.071	1302.059	987.600
392.190	18.062	1301.254	986.851
393.205	18.137	1300.455	986.590
394.219	18.368	1298.785	986.565
395.234	18.296	1297.720	985.256
396.248	18.294	1296.423	984.173
397.263	18.164	1295.580	982.695
398.278	18.216	1294.375	981.996
399.292	18.231	1292.686	980.710
400.307	18.112	1292.182	979.560
401.321	18.061	1291.260	978.486
402.336	18.131	1290.067	977.896
403.350	18.102	1288.992	976.825
404.365	18.186	1288.109	976.548
405.380	18.246	1287.186	976.108
406.394	18.227	1286.528	975.415
407.409	18.311	1285.847	975.292
408.423	18.374	1284.781	974.750
409.438	18.374	1284.628	974.550
410.453	18.462	1283.763	974.310
411.467	18.520	1282.845	973.856
412.482	18.596	1282.752	974.130
413.496	18.486	1282.201	973.003
414.511	18.577	1281.053	972.562
415.526	18.616	1280.611	972.360
416.540	18.660	1279.723	971.847
417.555	18.672	1279.101	971.357
418.569	18.638	1278.788	970.844
419.584	18.796	1277.926	970.995
420.599	18.702	1277.269	969.879
421.613	140.769	1432.475	1795.740
422.628	135.488	1455.053	1795.843
