DTS Sentinel unit serial number:	SN413079Multiplexer serial number:	ORYXHardware model number:	OX4-SRSoftware version number:	ORYX F/W v4.00 Oryx Data Collector v3.7.2.0data status	okinstallation	princeton_trtdifferential loss correction	single-endedforward channel	channel 4reverse channel	N/Adate	2019/09/18time	01:21:34forward acquisition time	60.00reverse acquisition time	0.00gamma	496.2192k internal	0.2334k external	0.2334temperature offset calibration	0.9998default loss term (dB/km)	0.3790temperature slope calibration	1.0000multiplexer offset coefficient	1.0000multiplexer slope coefficient	1.0000fibre end	0.00T internal ref (°C)	23.12T ext. ref 1 (°C)	0.16T ext. ref 2 (°C)	16.86length (m)	temperature (°C)	Stokes	anti-Stokes-747.200	291.372	0.034	0.063
-746.185	329.609	-0.098	0.189
-745.171	800.000	-0.057	0.250
-744.156	-200.000	-0.023	0.334
-743.142	189.524	0.067	-0.100
-742.127	800.000	-0.078	0.278
-741.112	-200.000	0.059	0.499
-740.098	-89.045	0.010	0.003
-739.083	7.345	0.294	0.221
-738.069	-17.843	-0.349	0.220
-737.054	-94.758	-0.215	0.059
-736.039	154.943	-0.391	-0.540
-735.025	-153.663	0.317	0.022
-734.010	-40.405	-0.416	-0.217
-732.996	-167.598	-0.218	0.009
-731.981	-175.566	-0.279	0.008
-730.966	757.363	-0.035	-0.094
-729.952	93.828	0.266	0.303
-728.937	54.328	-0.331	-0.320
-727.923	-200.000	-0.012	-0.069
-726.908	3.480	-0.055	0.040
-725.894	-61.299	-0.090	0.038
-724.879	-65.967	-0.299	-0.120
-723.864	169.142	0.068	-0.097
-722.850	302.159	-0.251	-0.467
-721.835	519.689	-0.070	-0.165
-720.821	-31.796	0.055	-0.031
-719.806	-161.002	-0.150	0.008
-718.791	12.446	-0.388	-0.300
-717.777	113.709	-0.224	-0.273
-716.762	-200.000	0.072	0.323
-715.748	-83.956	0.035	0.011
-714.733	40.734	0.171	0.154
-713.718	-200.000	-0.002	0.116
-712.704	49.704	0.118	0.111
-711.689	-103.899	-0.084	-0.020
-710.675	-23.051	-0.185	-0.112
-709.660	-134.158	0.319	-0.040
-708.645	165.854	0.151	-0.215
-707.631	800.000	0.042	-0.157
-706.616	-200.000	-0.019	-0.234
-705.602	800.000	-0.025	-0.070
-704.587	244.646	-0.144	-0.243
-703.572	7.145	0.288	-0.216
-702.558	53.998	-0.059	-0.057
-701.543	-116.217	-0.288	0.054
-700.529	-63.169	-0.123	-0.051
-699.514	17.686	0.262	-0.209
-698.499	800.000	0.017	0.065
-697.485	60.097	0.158	-0.157
-696.470	-200.000	-0.001	-0.305
-695.456	-200.000	-0.027	0.148
-694.441	800.000	-0.051	-0.179
-693.426	-24.362	-0.101	-0.060
-692.412	61.117	0.149	0.148
-691.397	-81.865	0.152	-0.050
-690.383	800.000	-0.013	0.050
-689.368	-200.000	-0.006	-0.255
-688.354	160.569	0.154	0.216
-687.339	-18.703	-0.040	-0.025
-686.324	326.257	0.007	0.013
-685.310	800.000	-0.046	-0.175
-684.295	77.173	-0.223	-0.237
-683.281	529.679	0.097	0.230
-682.266	-200.000	0.024	-0.167
-681.251	144.423	-0.080	0.107
-680.237	-128.561	-0.067	0.009
-679.222	230.360	0.049	-0.080
-678.208	249.828	0.040	-0.069
-677.193	142.140	-0.192	-0.256
-676.178	256.578	0.177	-0.305
-675.164	-200.000	-0.016	0.242
-674.149	-74.776	0.101	0.036
-673.135	-2.172	-0.223	-0.157
-672.120	-81.757	-0.112	-0.037
-671.105	800.000	0.170	-0.543
-670.091	-19.132	-0.394	-0.245
-669.076	-74.189	0.148	0.054
-668.062	-200.000	0.012	-0.069
-667.047	-200.000	-0.359	0.002
-666.032	156.915	-0.147	-0.203
-665.018	-18.301	-0.154	0.097
-664.003	-136.545	0.190	-0.022
-662.989	-124.018	-0.143	-0.023
-661.974	-97.502	0.163	0.042
-660.959	-7.508	0.320	-0.217
-659.945	-200.000	-0.014	0.225
-658.930	228.897	-0.188	0.308
-657.916	-46.167	0.261	0.129
-656.901	59.378	-0.121	-0.120
-655.886	176.765	-0.223	0.325
-654.872	-42.397	-0.201	0.103
-653.857	549.743	0.028	0.067
-652.843	-200.000	-0.010	0.201
-651.828	-200.000	-0.032	-0.298
-650.814	-173.254	0.504	-0.015
-649.799	-200.000	-0.039	-0.231
-648.784	158.570	0.116	0.161
-647.770	87.038	0.261	-0.289
-646.755	-124.189	0.042	-0.007
-645.741	147.716	-0.163	0.220
-644.726	-139.067	0.342	0.037
-643.711	174.141	0.213	-0.307
-642.697	-200.000	-0.049	-0.316
-641.682	-200.000	0.020	0.251
-640.668	-145.463	0.112	0.010
-639.653	418.881	0.052	-0.112
-638.638	-124.796	-0.322	0.050
-637.624	188.813	-0.187	-0.280
-636.609	123.425	-0.230	-0.288
-635.595	143.190	0.141	0.188
-634.580	800.000	-0.027	0.079
-633.565	-200.000	0.001	-0.346
-632.551	-200.000	0.034	0.200
-631.536	280.572	0.166	-0.297
-630.522	-37.037	-0.242	0.130
-629.507	-28.227	-0.123	-0.071
-628.492	-200.000	0.010	-0.112
-627.478	277.584	0.112	-0.199
-626.463	-97.931	-0.227	0.059
-625.449	-66.975	0.187	0.074
-624.434	342.814	0.116	-0.228
-623.419	800.000	0.083	0.314
-622.405	-101.004	0.117	-0.029
-621.390	116.708	0.116	0.142
-620.376	21.770	-0.139	0.113
-619.361	33.655	-0.248	-0.216
-618.346	-88.942	-0.075	0.022
-617.332	-52.872	0.358	0.165
-616.317	-77.967	-0.125	-0.043
-615.303	33.744	-0.173	-0.151
-614.288	234.245	0.030	-0.050
-613.273	-49.211	0.077	0.037
-612.259	-200.000	-0.010	0.119
-611.244	150.635	-0.130	-0.176
-610.230	-37.403	-0.212	-0.113
-609.215	77.624	0.028	0.029
-608.201	47.374	-0.215	0.200
-607.186	800.000	-0.057	-0.244
-606.171	742.166	-0.113	-0.305
-605.157	-200.000	0.073	0.000
-604.142	-106.015	-0.433	0.097
-603.128	562.455	0.049	-0.120
-602.113	567.564	-0.082	-0.199
-601.098	46.495	0.193	-0.179
-600.084	-116.681	0.061	-0.011
-599.069	240.961	0.031	-0.052
-598.055	-84.692	-0.188	-0.059
-597.040	178.651	0.176	0.257
-596.025	-46.690	0.432	0.211
-595.011	18.612	-0.225	-0.180
-593.996	103.156	-0.107	-0.125
-592.982	-1.884	-0.160	-0.112
-591.967	-188.851	-0.283	0.003
-590.952	-118.462	0.253	-0.045
-589.938	-112.181	-0.294	0.059
-588.923	4.916	-0.143	-0.105
-587.909	800.000	0.057	0.177
-586.894	-137.009	-0.243	0.028
-585.879	397.998	-0.082	-0.172
-584.865	-200.000	-0.084	-0.389
-583.850	-71.091	-0.077	-0.029
-582.836	-80.841	0.416	-0.138
-581.821	43.908	-0.114	0.104
-580.806	-101.378	-0.237	-0.058
-579.792	-200.000	-0.004	0.082
-578.777	-117.854	0.048	-0.009
-577.763	293.659	0.090	-0.164
-576.748	-125.020	0.147	0.023
-575.733	65.836	-0.155	0.156
-574.719	97.570	-0.308	0.354
-573.704	-40.623	-0.109	-0.056
-572.690	120.022	-0.117	-0.145
-571.675	-85.961	0.177	0.055
-570.661	287.664	-0.033	0.060
-569.646	-110.857	-0.162	0.033
-568.631	-200.000	-0.067	0.372
-567.617	-96.895	0.210	-0.055
-566.602	-58.878	-0.164	0.071
-565.588	321.450	0.020	0.039
-564.573	-56.163	0.395	0.176
-563.558	99.321	0.030	-0.035
-562.544	-50.720	0.165	-0.078
-561.529	-93.712	0.113	0.031
-560.515	-200.000	-0.036	-0.338
-559.500	30.749	-0.104	-0.089
-558.485	-173.908	0.059	0.002
-557.471	519.872	-0.153	-0.357
-556.456	-89.755	-0.276	-0.081
-555.442	-44.033	-0.010	-0.005
-554.427	-113.995	-0.160	0.031
-553.412	-154.653	0.089	-0.006
-552.398	131.395	-0.059	-0.076
-551.383	-167.384	-0.367	0.015
-550.369	800.000	0.038	-0.158
-549.354	361.687	0.015	0.031
-548.339	18.278	-0.113	0.090
-547.325	-200.000	0.075	-0.407
-546.310	-200.000	-0.019	-0.086
-545.296	800.000	-0.033	-0.121
-544.281	-20.116	0.127	0.078
-543.266	-39.481	-0.243	-0.127
-542.252	81.980	-0.257	0.278
-541.237	66.167	0.140	0.141
-540.223	275.998	0.053	-0.094
-539.208	123.768	0.091	0.114
-538.193	-200.000	-0.226	0.001
-537.179	-93.189	-0.239	0.066
-536.164	-16.238	0.339	0.215
-535.150	30.744	0.075	-0.064
-534.135	107.958	0.095	0.113
-533.121	694.969	-0.035	-0.092
-532.106	-77.423	0.122	0.042
-531.091	-200.000	0.009	0.282
-530.077	308.637	-0.070	0.131
-529.062	-200.000	-0.021	-0.294
-528.048	-200.000	0.022	0.353
-527.033	85.118	-0.094	-0.103
-526.018	-200.000	0.017	0.152
-525.004	254.651	0.059	0.101
-523.989	50.421	-0.214	0.202
-522.975	-200.000	0.003	0.077
-521.960	50.681	-0.222	-0.210
-520.945	355.762	0.099	0.195
-519.931	-200.000	0.015	0.227
-518.916	-73.601	0.498	-0.181
-517.902	-200.000	-0.021	-0.152
-516.887	-200.000	-0.037	-0.217
-515.872	-10.671	0.301	-0.198
-514.858	-200.000	0.015	-0.092
-513.843	-36.360	-0.168	0.090
-512.829	-74.625	-0.252	-0.090
-511.814	800.000	-0.050	0.164
-510.799	151.469	0.108	0.146
-509.785	-105.040	-0.026	-0.006
-508.770	-164.437	0.133	-0.006
-507.756	28.354	-0.119	-0.100
-506.741	61.094	-0.246	-0.243
-505.726	75.546	0.211	-0.222
-504.712	-49.208	0.181	-0.086
-503.697	-76.296	-0.224	0.079
-502.683	800.000	0.095	-0.267
-501.668	-106.494	-0.447	-0.099
-500.653	-80.086	0.205	0.069
-499.639	248.206	-0.068	0.114
-498.624	-200.000	0.018	-0.108
-497.610	-56.839	0.198	0.087
-496.595	-200.000	0.008	-0.094
-495.581	-200.000	-0.011	0.124
-494.566	30.817	-0.370	-0.316
-493.551	-200.000	-0.084	-0.388
-492.537	122.240	-0.128	0.160
-491.522	14.663	-0.253	0.197
-490.508	-200.000	0.036	-0.263
-489.493	432.045	0.083	0.179
-488.478	782.099	0.086	0.234
-487.464	66.564	0.043	-0.044
-486.449	401.939	-0.138	0.288
-485.435	-200.000	-0.005	0.143
-484.420	108.617	0.240	-0.285
-483.405	-200.000	-0.039	-0.176
-482.391	-117.897	0.117	0.021
-481.376	800.000	-0.022	-0.064
-480.362	148.338	0.264	0.355
-479.347	57.027	-0.366	0.355
-478.332	-12.148	-0.093	0.061
-477.318	28.467	0.291	-0.244
-476.303	-180.424	-0.314	-0.006
-475.289	-151.824	0.208	-0.015
-474.274	-200.000	0.063	-0.374
-473.259	-26.636	0.227	-0.132
-472.245	50.884	0.169	-0.159
-471.230	-200.000	-0.061	0.368
-470.216	-130.696	-0.196	-0.026
-469.201	30.266	-0.145	-0.124
-468.186	-200.000	-0.092	-0.413
-467.172	194.875	-0.161	0.242
-466.157	-92.923	0.106	0.030
-465.143	38.108	0.139	0.123
-464.128	-87.526	0.254	0.077
-463.113	17.648	0.182	0.144
-462.099	800.000	-0.083	0.275
-461.084	-200.000	-0.016	-0.225
-460.070	-90.516	-0.161	-0.046
-459.055	-157.365	-0.473	-0.028
-458.040	-111.336	0.180	-0.036
-457.026	2.889	0.228	0.165
-456.011	-167.868	-0.166	-0.006
-454.997	-95.221	-0.150	0.040
-453.982	-17.660	-0.084	-0.052
-452.968	-200.000	-0.002	-0.108
-451.953	-200.000	-0.055	-0.401
-450.938	-18.680	0.333	0.206
-449.924	28.834	-0.179	0.151
-448.909	-91.692	-0.130	0.037
-447.895	258.213	-0.077	-0.132
-446.880	800.000	-0.086	0.297
-445.865	108.773	-0.031	0.037
-444.851	-86.435	0.159	0.048
-443.836	176.104	0.152	0.220
-442.822	71.472	-0.276	0.285
-441.807	800.000	0.073	-0.277
-440.792	-200.000	-0.041	-0.387
-439.778	233.473	0.051	-0.084
-438.763	800.000	0.033	-0.136
-437.749	34.272	-0.321	-0.278
-436.734	-137.101	-0.265	0.030
-435.719	14.420	-0.193	-0.150
-434.705	78.420	0.096	-0.102
-433.690	47.476	-0.101	-0.094
-432.676	-59.942	0.434	0.184
-431.661	-56.622	-0.263	-0.116
-430.646	-24.284	0.110	0.065
-429.632	-200.000	0.021	0.412
-428.617	-200.000	0.000	0.119
-427.603	-150.609	-0.273	-0.021
-426.588	-200.000	0.015	0.231
-425.573	-200.000	-0.024	0.260
-424.559	-43.212	0.190	-0.095
-423.544	-83.704	-0.177	-0.056
-422.530	-57.325	-0.325	-0.142
-421.515	52.499	-0.140	-0.133
-420.500	10.901	0.235	0.178
-419.486	262.254	0.058	0.101
-418.471	-200.000	-0.003	-0.074
-417.457	71.440	-0.126	0.130
-416.442	-129.832	0.147	0.020
-415.428	-200.000	0.018	-0.142
-414.413	-200.000	-0.008	-0.271
-413.398	286.943	0.062	-0.111
-412.384	-200.000	0.035	-0.290
-411.369	50.895	0.357	0.336
-410.355	-99.163	0.292	0.073
-409.340	-184.993	0.201	0.003
-408.325	800.000	0.065	-0.186
-407.311	47.817	-0.047	-0.044
-406.296	307.156	0.349	0.644
-405.282	626.463	0.115	-0.287
-404.267	-135.386	-0.385	-0.046
-403.252	517.983	-0.026	0.059
-402.238	-200.000	-0.027	-0.141
-401.223	-39.941	0.214	0.111
-400.209	-162.731	-0.043	-0.002
-399.194	800.000	-0.027	-0.090
-398.179	-67.757	0.260	-0.101
-397.165	-144.260	0.365	-0.034
-396.150	-31.515	0.187	-0.104
-395.136	193.254	-0.096	0.144
-394.121	-141.988	0.123	0.012
-393.106	395.296	0.138	0.285
-392.092	-88.541	-0.266	-0.079
-391.077	64.596	0.135	0.135
-390.063	111.902	-0.127	0.152
-389.048	-144.581	0.129	-0.012
-388.033	591.431	0.131	-0.321
-387.019	-200.000	0.003	-0.128
-386.004	800.000	0.068	0.227
-384.990	8.743	-0.103	0.077
-383.975	64.729	-0.106	-0.106
-382.960	-132.925	0.494	-0.062
-381.946	800.000	0.018	-0.054
-380.931	33.597	0.354	0.305
-379.917	-200.000	0.042	-0.244
-378.902	75.930	0.090	-0.095
-377.888	122.081	0.056	0.069
-376.873	-27.048	-0.235	0.136
-375.858	-8.587	-0.113	-0.075
-374.844	-96.952	0.260	0.067
-373.829	598.575	0.089	0.220
-372.815	-50.440	0.188	-0.088
-371.800	211.659	0.113	-0.177
-370.785	-94.493	-0.163	-0.044
-369.771	-200.000	0.003	0.312
-368.756	-66.548	-0.131	0.051
-367.742	-6.987	-0.402	-0.270
-366.727	395.154	0.128	-0.265
-365.712	-152.447	-0.301	-0.021
-364.698	-82.445	0.208	-0.067
-363.683	800.000	-0.075	-0.256
-362.669	161.249	0.303	0.420
-361.654	97.550	-0.119	-0.136
-360.639	-113.283	0.294	-0.057
-359.625	-200.000	0.000	-0.277
-358.610	6.527	-0.296	-0.218
-357.596	-189.979	0.416	-0.005
-356.581	-80.754	-0.274	-0.090
-355.566	-200.000	0.002	-0.012
-354.552	-66.561	0.189	-0.074
-353.537	38.705	0.142	0.126
-352.523	-27.864	-0.064	0.037
-351.508	502.789	-0.124	0.284
-350.493	800.000	0.015	0.046
-349.479	-200.000	-0.154	0.000
-348.464	396.135	0.063	0.130
-347.450	29.944	0.269	-0.227
-346.435	631.305	0.093	-0.234
-345.420	-101.592	-0.280	-0.067
-344.406	-200.000	-0.045	0.407
-343.391	-79.389	-0.140	-0.047
-342.377	-200.000	0.023	0.307
-341.362	-92.172	0.115	-0.032
-340.348	474.004	0.061	0.136
-339.333	40.139	0.227	-0.202
-338.318	165.470	-0.119	-0.166
-337.304	-200.000	-0.072	0.403
-336.289	-200.000	-0.007	-0.029
-335.275	163.965	0.029	0.041
-334.260	212.632	0.078	-0.122
-333.245	-79.925	-0.035	-0.012
-332.231	-106.028	0.218	-0.048
-331.216	-129.856	-0.372	-0.051
-330.202	-112.638	0.101	0.020
-329.187	800.000	0.063	-0.219
-328.172	123.572	-0.103	0.128
-327.158	-145.274	-0.353	0.032
-326.143	-200.000	0.013	0.257
-325.129	-200.000	-0.048	0.396
-324.114	-200.000	-0.009	0.108
-323.099	-38.831	0.115	0.060
-322.085	-180.462	-0.262	0.005
-321.070	20.729	-0.156	-0.125
-320.056	800.000	0.095	0.263
-319.041	92.994	0.248	0.277
-318.026	-121.383	-0.258	-0.043
-317.012	-28.503	-0.219	0.125
-315.997	-149.732	-0.101	-0.008
-314.983	304.448	0.091	0.167
-313.968	-200.000	-0.015	-0.224
-312.953	28.522	0.052	-0.043
-311.939	-164.211	0.081	-0.004
-310.924	-63.432	-0.434	0.177
-309.910	-200.000	0.013	-0.227
-308.895	-71.170	-0.179	0.067
-307.880	-196.322	-0.170	-0.001
-306.866	-78.960	0.264	0.089
-305.851	-117.022	0.091	0.016
-304.837	800.000	-0.021	0.068
-303.822	211.581	0.136	-0.212
-302.807	-16.181	-0.304	-0.191
-301.793	0.743	-0.220	-0.156
-300.778	-128.115	0.195	-0.028
-299.764	800.000	-0.070	-0.267
-298.749	-101.978	-0.129	-0.031
-297.735	85.122	-0.193	-0.209
-296.720	256.923	0.085	0.145
-295.705	-124.655	0.105	-0.016
-294.691	-77.909	-0.234	0.080
-293.676	271.598	0.154	0.268
-292.662	-200.000	-0.086	-0.421
-291.647	90.358	-0.052	0.057
-290.632	-88.680	0.296	-0.087
-289.618	17.939	0.235	0.185
-288.603	800.000	-0.005	0.016
-287.589	65.736	-0.242	0.242
-286.574	303.044	0.112	-0.204
-285.559	-185.561	0.111	0.002
-284.545	-35.244	-0.225	-0.121
-283.530	-91.766	-0.189	0.053
-282.516	-100.602	0.255	0.062
-281.501	-38.940	0.160	-0.083
-280.486	-200.000	-0.015	-0.231
-279.472	43.518	-0.060	-0.054
-278.457	-92.762	0.184	-0.051
-277.443	20.330	0.138	-0.110
-276.428	-154.552	0.099	-0.007
-275.413	296.889	-0.196	0.354
-274.399	-8.049	0.212	0.141
-273.384	15.528	-0.258	-0.200
-272.370	-200.000	0.006	0.116
-271.355	800.000	-0.039	0.155
-270.340	-118.039	0.199	-0.035
-269.326	433.689	-0.196	-0.421
-268.311	-44.486	0.165	-0.082
-267.297	9.935	0.022	-0.016
-266.282	-46.574	-0.177	-0.086
-265.267	168.736	-0.086	-0.121
-264.253	-94.983	0.166	-0.044
-263.238	-130.258	0.219	-0.029
-262.224	-27.883	0.094	-0.054
-261.209	-200.000	0.004	0.184
-260.195	359.252	0.091	-0.180
-259.180	275.367	0.108	0.189
-258.165	-71.971	0.324	0.119
-257.151	544.675	-0.172	0.406
-256.136	-200.000	0.036	0.347
-255.122	349.900	0.119	-0.232
-254.107	-193.644	0.120	0.001
-253.092	408.219	-0.072	0.149
-252.078	-176.270	-0.312	-0.008
-251.063	800.000	0.063	-0.202
-250.049	-87.703	0.007	-0.002
-249.034	-46.756	0.354	0.171
-248.019	-200.000	-0.031	-0.229
-247.005	593.381	0.121	-0.296
-245.990	-200.000	-0.101	0.000
-244.976	-20.080	-0.145	-0.088
-243.961	-156.141	-0.175	-0.011
-242.946	-115.613	-0.232	0.043
-241.932	-140.513	0.098	0.010
-240.917	-54.013	-0.361	0.162
-239.903	69.935	0.161	0.163
-238.888	-200.000	0.013	0.229
-237.873	346.072	-0.149	0.289
-236.859	541.606	0.047	-0.111
-235.844	275.481	0.067	-0.116
-234.830	13.031	-0.206	-0.157
-233.815	-200.000	0.042	-0.192
-232.800	-200.000	0.001	0.156
-231.786	-17.164	-0.196	0.122
-230.771	470.374	0.114	0.252
-229.757	-65.537	-0.116	-0.046
-228.742	-200.000	-0.011	-0.098
-227.727	-67.475	0.168	-0.065
-226.713	-126.710	-0.290	0.042
-225.698	-20.121	0.052	-0.032
-224.684	-81.561	-0.248	-0.080
-223.669	-11.313	0.099	0.064
-222.655	178.258	0.089	-0.128
-221.640	-200.000	0.025	0.258
-220.625	129.133	0.097	0.122
-219.611	243.156	0.106	-0.175
-218.596	10.829	0.086	0.064
-217.582	-5.605	0.110	0.074
-216.567	392.526	-0.133	0.272
-215.552	325.288	-0.106	0.199
-214.538	-200.000	0.034	-0.243
-213.523	-108.736	-0.189	-0.040
-212.509	165.477	0.125	0.174
-211.494	43.572	0.107	0.096
-210.479	-187.666	0.157	-0.002
-209.465	96.005	-0.058	0.065
-208.450	8.002	0.385	0.285
-207.436	310.455	0.063	-0.115
-206.421	-21.369	0.167	0.101
-205.406	-25.476	0.222	0.129
-204.392	-200.000	-0.058	-0.266
-203.377	-46.030	0.155	0.075
-202.363	-195.374	0.268	0.002
-201.348	-200.000	-0.036	-0.181
-200.333	-13.141	0.262	0.168
-199.319	215.092	0.099	0.154
-198.304	-92.798	-0.344	0.095
-197.290	-122.701	-0.333	0.053
-196.275	214.802	0.105	0.163
-195.260	-144.944	0.128	0.012
-194.246	403.799	0.061	0.125
-193.231	-36.930	0.274	-0.145
-192.217	321.896	-0.148	0.277
-191.202	37.442	-0.084	0.073
-190.187	-14.350	0.128	0.081
-189.173	-26.668	-0.240	0.138
-188.158	-152.172	-0.104	-0.007
-187.144	119.960	-0.177	-0.216
-186.129	-50.147	0.142	-0.066
-185.114	-127.776	0.178	0.025
-184.100	101.648	0.103	0.118
-183.085	800.000	-0.107	0.291
-182.071	-150.481	0.099	0.007
-181.056	-146.114	0.183	-0.016
-180.042	-21.744	0.200	-0.120
-179.027	-123.423	-0.396	0.062
-178.012	800.000	-0.033	-0.128
-176.998	-127.339	0.136	0.020
-175.983	-200.000	-0.025	-0.198
-174.969	-200.000	0.007	0.089
-173.954	-68.206	0.182	0.070
-172.939	-10.782	-0.114	-0.074
-171.925	-34.339	-0.129	-0.069
-170.910	-200.000	0.027	-0.136
-169.896	231.761	0.149	-0.240
-168.881	-142.144	0.184	-0.018
-167.866	-186.277	-0.137	0.002
-166.852	-141.329	-0.198	-0.020
-165.837	800.000	-0.063	0.255
-164.823	-150.472	-0.096	0.007
-163.808	-200.000	-0.006	0.190
-162.793	44.943	-0.234	-0.211
-161.779	800.000	0.077	0.228
-160.764	-21.545	-0.086	0.052
-159.750	-15.687	0.141	-0.088
-158.735	-200.000	0.008	0.206
-157.720	40.953	0.203	0.180
-156.706	800.000	-0.099	-0.291
-155.691	-177.571	-0.215	-0.005
-154.677	-200.000	0.043	0.436
-153.662	-98.651	0.507	0.127
-152.647	-140.873	0.198	0.020
-151.633	625.288	0.096	0.237
-150.618	224.412	0.124	-0.197
-149.604	-121.397	0.218	0.036
-148.589	-192.195	-0.035	-0.000
-147.574	800.000	-0.125	-0.456
-146.560	800.000	0.070	0.241
-145.545	-151.313	0.297	-0.022
-144.531	-82.437	-0.078	0.025
-143.516	-200.000	-0.005	0.153
-142.502	-25.532	-0.211	-0.122
-141.487	-9.369	0.133	-0.087
-140.472	251.196	0.079	0.132
-139.458	184.127	0.113	0.164
-138.443	-48.678	0.284	0.134
-137.429	-115.144	-0.139	-0.026
-136.414	-24.066	0.147	-0.086
-135.399	-71.154	-0.149	-0.055
-134.385	-67.520	0.294	-0.113
-133.370	32.137	0.117	-0.099
-132.356	800.000	0.060	0.251
-131.341	158.851	-0.057	0.078
-130.326	308.392	0.149	0.272
-129.312	-171.804	-0.068	-0.002
-128.297	-94.548	0.136	-0.036
-127.283	-80.961	0.211	0.069
-126.268	-42.694	0.121	-0.061
-125.253	602.713	-0.072	-0.175
-124.239	-126.962	0.253	0.036
-123.224	85.550	0.183	-0.198
-122.210	-118.480	0.066	0.012
-121.195	305.311	0.189	0.345
-120.180	560.327	-0.097	0.229
-119.166	-125.989	0.068	-0.010
-118.151	99.380	0.120	0.136
-117.137	-200.000	0.022	-0.111
-116.122	-35.039	-0.284	0.152
-115.107	-58.654	0.081	0.035
-114.093	-200.000	0.061	0.310
-113.078	-11.923	0.275	-0.177
-112.064	120.417	0.113	-0.137
-111.049	-44.728	0.301	-0.147
-110.034	-31.714	0.227	-0.125
-109.020	-200.000	-0.005	-0.198
-108.005	-1.259	0.222	-0.153
-106.991	102.884	0.085	0.097
-105.976	58.343	-0.175	0.168
-104.962	800.000	0.048	0.168
-103.947	-134.131	-0.259	-0.031
-102.932	-136.804	-0.196	0.022
-101.918	186.090	-0.079	0.116
-100.903	26.076	-0.070	-0.057
-99.889	-115.275	-0.604	-0.112
-98.874	309.131	0.064	-0.117
-97.859	770.746	0.092	0.245
-96.845	-200.000	0.038	0.217
-95.830	-200.000	-0.093	0.435
-94.816	510.460	-0.137	0.312
-93.801	22.902	0.090	0.072
-92.786	800.000	-0.065	-0.253
-91.772	205.401	-0.039	0.060
-90.757	-200.000	0.056	-0.264
-89.743	-21.515	-0.058	-0.035
-88.728	22.085	0.076	-0.061
-87.713	15.602	-0.089	0.068
-86.699	-34.588	-0.084	0.045
-85.684	-200.000	-0.005	-0.201
-84.670	-200.000	0.011	0.190
-83.655	215.753	0.114	-0.177
-82.640	-142.403	0.422	-0.041
-81.626	-200.000	-0.001	0.146
-80.611	-88.155	-0.072	0.021
-79.597	203.946	-0.043	0.066
-78.582	164.511	0.075	-0.103
-77.567	-68.392	0.047	-0.018
-76.553	356.663	0.065	-0.127
-75.538	-200.000	0.017	-0.423
-74.524	800.000	0.041	-0.173
-73.509	157.421	0.092	0.124
-72.494	800.000	-0.040	-0.152
-71.480	-141.625	-0.164	-0.016
-70.465	77.905	0.233	0.243
-69.451	70.311	-0.084	0.085
-68.436	-137.473	-0.134	0.015
-67.422	132.480	0.136	0.172
-66.407	236.812	-0.124	0.201
-65.392	49.538	0.215	0.198
-64.378	-37.437	-0.049	0.026
-63.363	84.156	0.047	0.050
-62.349	36.236	0.055	0.048
-61.334	47.968	-1.163	-1.064
-60.319	518.763	0.419	0.961
-59.305	-200.000	-0.187	-1.474
-58.290	445.560	0.613	1.318
-57.276	436.002	0.683	1.454
-56.261	-200.000	125.951	670.456
-55.246	419.254	1583.027	3314.570
-54.232	139.322	2746.035	3535.059
-53.217	86.778	2328.886	2515.060
-52.203	29.637	2072.158	1725.092
-51.188	24.911	1987.127	1611.812
-50.173	23.771	1970.767	1588.292
-49.159	42.208	2044.731	1816.963
-48.144	40.028	2057.064	1807.938
-47.130	25.287	2008.366	1632.199
-46.115	23.194	1997.323	1604.209
-45.100	23.074	1994.853	1601.073
-44.086	23.042	1992.278	1598.654
-43.071	23.023	1989.701	1596.352
-42.057	22.972	1988.157	1594.589
-41.042	22.981	1986.685	1593.426
-40.027	23.050	1983.811	1591.679
-39.013	23.058	1982.123	1590.331
-37.998	23.011	1980.366	1588.440
-36.984	23.058	1979.122	1587.799
-35.969	23.032	1977.196	1585.960
-34.954	22.969	1975.885	1584.281
-33.940	23.083	1973.994	1583.722
-32.925	23.150	1972.423	1583.000
-31.911	23.136	1970.602	1581.348
-30.896	23.128	1968.956	1579.893
-29.881	23.147	1967.464	1578.801
-28.867	23.210	1966.035	1578.154
-27.852	23.152	1964.703	1576.505
-26.838	23.192	1962.558	1575.076
-25.823	23.147	1960.785	1573.192
-24.809	23.214	1958.638	1572.001
-23.794	23.186	1957.180	1570.524
-22.779	23.136	1955.169	1568.406
-21.765	23.113	1954.235	1567.389
-20.750	23.224	1952.343	1566.793
-19.736	23.142	1950.842	1564.796
-18.721	23.180	1948.890	1563.504
-17.706	23.181	1947.451	1562.295
-16.692	23.068	1946.190	1560.226
-15.677	23.149	1944.390	1559.440
-14.663	23.103	1942.935	1557.805
-13.648	23.103	1941.915	1556.923
-12.633	23.163	1940.627	1556.357
-11.619	23.053	1939.687	1554.571
-10.604	23.190	1937.606	1554.045
-9.590	23.201	1936.117	1552.892
-8.575	23.121	1935.421	1551.563
-7.560	23.176	1933.378	1550.347
-6.546	23.174	1932.539	1549.593
-5.531	23.140	1931.621	1548.498
-4.517	23.041	1930.387	1546.587
-3.502	23.109	1929.074	1546.067
-2.487	23.134	1927.821	1545.223
-1.473	23.130	1926.757	1544.269
-0.458	23.107	1921.803	1540.041
0.556	21.495	1901.020	1512.080
1.571	17.182	1882.405	1460.144
2.586	13.312	1905.824	1444.439
3.600	12.464	1940.921	1463.365
4.615	12.526	1933.712	1458.352
5.629	9.762	1834.210	1359.909
6.644	3.722	1722.255	1228.860
7.659	0.591	1689.791	1181.132
8.673	0.215	1687.448	1176.454
9.688	0.148	1685.906	1174.747
10.702	0.197	1684.632	1174.142
11.717	0.090	1680.488	1170.313
12.731	0.433	1679.501	1172.188
13.746	5.106	1688.759	1215.001
14.761	12.370	1703.360	1282.269
15.775	16.268	1710.554	1318.064
16.790	16.779	1709.851	1321.395
17.804	15.866	1707.289	1312.188
18.819	14.913	1703.844	1302.003
19.834	14.340	1701.369	1295.544
20.848	14.122	1700.113	1292.777
21.863	13.862	1698.445	1289.378
22.877	13.595	1696.917	1286.029
23.892	13.347	1695.565	1282.972
24.907	13.260	1694.258	1281.193
25.921	13.270	1692.891	1280.123
26.936	13.287	1691.995	1279.467
27.950	13.276	1691.476	1278.869
28.965	13.253	1691.043	1278.250
29.980	13.401	1690.002	1278.496
30.994	13.387	1689.152	1277.631
32.009	13.466	1687.660	1277.004
33.023	13.546	1687.068	1277.053
34.038	13.561	1686.155	1276.365
35.053	13.502	1685.301	1275.157
36.067	13.473	1683.994	1273.831
37.082	13.479	1683.616	1273.477
38.096	13.456	1681.794	1271.813
39.111	13.495	1681.547	1271.806
40.126	13.461	1680.739	1270.824
41.140	13.485	1679.424	1269.899
42.155	13.369	1678.088	1267.891
43.169	13.348	1677.169	1266.923
44.184	13.289	1676.100	1265.552
45.199	13.287	1674.791	1264.438
46.213	13.339	1673.684	1263.889
47.228	13.285	1672.897	1262.769
48.242	13.336	1671.346	1261.877
49.257	13.386	1670.437	1261.457
50.271	13.399	1669.015	1260.372
51.286	13.353	1668.047	1259.180
52.301	13.395	1666.347	1258.103
53.315	13.388	1664.590	1256.612
54.330	13.404	1663.233	1255.597
55.344	13.369	1661.738	1254.094
56.359	13.331	1660.653	1252.879
57.374	13.434	1659.597	1252.745
58.388	13.324	1658.271	1250.801
59.403	13.354	1656.590	1249.655
60.417	13.267	1655.095	1247.753
61.432	13.268	1654.487	1247.195
62.447	13.375	1652.713	1246.556
63.461	13.250	1651.549	1244.622
64.476	13.192	1651.177	1243.795
65.490	13.216	1649.914	1242.913
66.505	13.144	1648.782	1241.411
67.520	13.168	1647.699	1240.669
68.534	13.235	1646.030	1239.804
69.549	13.324	1644.590	1239.273
70.563	13.340	1643.751	1238.652
71.578	13.267	1642.503	1237.058
72.593	13.272	1641.393	1236.148
73.607	13.247	1640.486	1235.170
74.622	13.162	1639.729	1233.854
75.636	13.188	1638.279	1232.854
76.651	13.129	1637.659	1231.838
77.666	13.129	1636.972	1231.209
78.680	13.128	1635.849	1230.246
79.695	13.174	1634.886	1229.760
80.709	13.183	1633.838	1228.928
81.724	13.184	1633.453	1228.534
82.739	13.337	1632.255	1228.665
83.753	13.296	1631.444	1227.639
84.768	13.369	1630.165	1227.110
85.782	13.378	1629.682	1226.707
86.797	13.504	1628.186	1226.406
87.812	13.456	1627.484	1225.414
88.826	13.411	1626.016	1223.861
89.841	13.342	1625.104	1222.563
90.855	13.283	1624.303	1221.410
91.870	13.412	1623.017	1221.291
92.884	13.379	1622.211	1220.330
93.899	13.411	1620.996	1219.543
94.914	13.491	1619.152	1218.638
95.928	13.517	1618.279	1218.064
96.943	13.483	1617.238	1216.924
97.957	13.484	1615.825	1215.762
98.972	13.354	1614.501	1213.700
99.987	13.449	1612.649	1212.899
101.001	13.475	1611.155	1211.861
102.016	13.398	1609.837	1210.200
103.030	13.393	1608.556	1209.089
104.045	13.395	1607.640	1208.306
105.060	13.466	1606.167	1207.611
106.074	13.564	1604.119	1206.682
107.089	13.352	1602.647	1203.924
108.103	13.248	1601.593	1202.269
109.118	13.309	1600.184	1201.549
110.133	13.244	1599.029	1200.105
111.147	13.253	1597.484	1198.901
112.162	13.297	1595.892	1197.923
113.176	13.294	1594.646	1196.857
114.191	13.322	1592.890	1195.635
115.206	13.400	1591.894	1195.346
116.220	13.316	1590.699	1193.735
117.235	13.347	1589.712	1193.111
118.249	13.431	1588.412	1192.641
119.264	13.370	1587.079	1191.096
120.279	13.333	1585.380	1189.445
121.293	13.311	1583.838	1188.024
122.308	13.375	1582.369	1187.281
123.322	13.318	1581.024	1185.754
124.337	13.246	1579.644	1184.100
125.352	13.349	1578.454	1183.843
126.366	13.274	1576.888	1182.023
127.381	13.318	1575.914	1181.507
128.395	13.334	1574.861	1180.728
129.410	13.268	1573.179	1178.887
130.424	13.330	1572.133	1178.446
131.439	13.307	1570.852	1177.213
132.454	13.376	1569.264	1176.410
133.468	13.355	1567.848	1175.096
134.483	13.407	1566.495	1174.350
135.497	13.300	1565.626	1172.835
136.512	13.398	1563.778	1172.036
137.527	13.290	1562.854	1170.482
138.541	13.393	1561.036	1169.742
139.556	13.384	1560.089	1168.864
140.570	13.408	1558.622	1167.829
141.585	13.462	1556.966	1166.868
142.600	13.579	1555.490	1166.481
143.614	13.574	1554.352	1165.492
144.629	13.628	1553.196	1164.901
145.643	13.642	1551.981	1163.988
146.658	13.699	1550.230	1162.967
147.673	13.669	1548.483	1161.347
148.687	13.578	1547.513	1159.876
149.702	13.600	1546.093	1158.864
150.716	13.508	1544.321	1156.793
151.731	13.527	1542.888	1155.748
152.746	13.474	1542.112	1154.696
153.760	13.571	1540.204	1153.842
154.775	13.592	1539.248	1153.166
155.789	13.678	1537.730	1152.529
156.804	13.586	1536.300	1150.713
157.819	13.717	1535.229	1150.721
158.833	13.652	1534.339	1149.497
159.848	13.755	1533.009	1149.112
160.862	13.740	1531.784	1147.989
161.877	13.759	1530.540	1147.089
162.892	13.711	1529.588	1145.943
163.906	13.725	1527.706	1144.529
164.921	13.694	1526.329	1143.183
165.935	13.602	1525.795	1142.042
166.950	13.673	1524.403	1141.389
167.964	13.785	1523.208	1141.167
168.979	13.753	1522.542	1140.345
169.994	13.713	1521.070	1138.870
171.008	13.749	1520.261	1138.409
172.023	13.709	1519.404	1137.393
173.037	13.770	1517.853	1136.545
174.052	13.801	1516.695	1135.793
175.067	13.880	1515.472	1135.319
176.081	13.802	1514.543	1133.984
177.096	13.824	1512.972	1132.859
178.110	13.889	1511.696	1132.246
179.125	13.865	1510.427	1131.034
180.140	13.859	1509.604	1130.275
181.154	13.800	1508.802	1129.173
182.169	13.747	1508.259	1128.305
183.183	13.773	1506.703	1127.223
184.198	13.919	1505.600	1127.284
185.213	14.001	1504.040	1126.572
186.227	14.019	1502.903	1125.748
187.242	14.100	1502.140	1125.621
188.256	13.945	1501.711	1124.155
189.271	14.083	1500.088	1123.773
190.286	14.045	1499.001	1122.601
191.300	14.061	1497.883	1121.772
192.315	13.852	1496.554	1119.269
193.329	13.848	1495.230	1118.151
194.344	13.819	1494.284	1117.152
195.359	13.918	1492.996	1116.756
196.373	13.895	1491.979	1115.740
197.388	13.922	1491.180	1115.224
198.402	14.019	1490.339	1115.148
199.417	14.137	1488.558	1114.512
200.432	14.148	1487.788	1113.907
201.446	14.188	1486.713	1113.274
202.461	14.197	1485.569	1112.379
203.475	14.181	1484.682	1111.503
204.490	14.225	1483.668	1110.942
205.504	14.262	1482.722	1110.381
206.519	14.155	1481.276	1108.487
207.534	14.135	1480.164	1107.429
208.548	14.177	1478.639	1106.467
209.563	14.191	1478.306	1106.215
210.577	14.176	1477.465	1105.385
211.592	14.327	1475.910	1105.127
212.607	14.242	1475.174	1103.912
213.621	14.286	1474.746	1103.784
214.636	14.375	1473.663	1103.471
215.650	14.345	1472.512	1102.313
216.665	14.327	1471.736	1101.511
217.680	14.421	1470.520	1101.126
218.694	14.453	1469.864	1100.746
219.709	14.520	1468.611	1100.158
220.723	14.485	1467.961	1099.340
221.738	14.490	1466.760	1098.378
222.753	14.408	1466.094	1097.237
223.767	14.392	1465.296	1096.439
224.782	14.456	1464.540	1096.199
225.796	14.543	1463.261	1095.718
226.811	14.495	1462.528	1094.759
227.826	14.590	1461.597	1094.584
228.840	14.547	1461.097	1093.834
229.855	14.530	1459.856	1092.696
230.869	14.557	1458.791	1091.978
231.884	14.458	1458.180	1090.776
232.899	14.530	1456.637	1089.997
233.913	14.531	1455.744	1089.237
234.928	14.534	1454.190	1087.998
235.942	14.537	1452.844	1086.916
236.957	14.601	1451.811	1086.461
237.972	14.540	1450.851	1085.252
238.986	14.458	1450.006	1083.992
240.001	14.527	1449.025	1083.609
241.015	14.553	1447.958	1082.882
242.030	14.582	1446.403	1081.816
243.045	14.603	1445.412	1081.114
244.059	14.697	1444.519	1080.958
245.074	14.715	1443.308	1080.071
246.088	14.640	1443.222	1079.428
247.103	14.695	1442.614	1079.230
248.117	14.756	1441.715	1078.860
249.132	14.806	1440.762	1078.370
250.147	14.836	1439.836	1077.777
251.161	14.880	1439.474	1077.692
252.176	15.003	1438.782	1077.875
253.190	15.017	1437.884	1077.193
254.205	15.012	1437.032	1076.429
255.220	15.040	1436.346	1076.001
256.234	15.057	1435.586	1075.445
257.249	15.029	1434.792	1074.576
258.263	15.150	1433.489	1074.277
259.278	15.150	1432.231	1073.243
260.293	15.106	1431.808	1072.551
261.307	15.109	1430.883	1071.778
262.322	15.183	1430.370	1071.771
263.336	15.175	1429.618	1071.065
264.351	15.166	1428.494	1070.069
265.366	15.159	1427.492	1069.178
266.380	15.233	1426.763	1069.013
267.395	15.301	1425.453	1068.365
268.409	15.277	1424.620	1067.495
269.424	15.176	1423.680	1066.056
270.439	15.281	1422.295	1065.594
271.453	15.257	1421.578	1064.808
272.468	15.206	1420.819	1063.822
273.482	15.276	1420.228	1063.727
274.497	15.183	1419.256	1062.314
275.512	15.328	1417.941	1062.158
276.526	15.240	1417.213	1060.962
277.541	15.174	1417.095	1060.358
278.555	15.244	1415.674	1059.649
279.570	15.349	1414.224	1059.133
280.585	15.317	1413.653	1058.407
281.599	15.334	1412.759	1057.751
282.614	15.328	1411.760	1056.873
283.628	15.472	1410.233	1056.541
284.643	15.425	1409.634	1055.704
285.657	15.463	1408.383	1054.909
286.672	15.402	1407.693	1053.920
287.687	15.416	1406.554	1053.062
288.701	15.486	1405.659	1052.739
289.716	15.492	1404.806	1052.042
290.730	15.498	1404.076	1051.442
291.745	15.474	1403.235	1050.564
292.760	15.512	1402.040	1049.817
293.774	15.447	1401.383	1048.825
294.789	15.534	1399.920	1048.179
295.803	15.598	1399.390	1048.090
296.818	15.601	1398.531	1047.374
297.833	15.605	1397.142	1046.263
298.847	15.538	1396.653	1045.388
299.862	15.579	1395.544	1044.720
300.876	15.613	1394.321	1043.924
301.891	15.537	1393.845	1043.007
302.906	15.595	1392.833	1042.512
303.920	15.670	1392.377	1042.544
304.935	15.689	1391.455	1041.880
305.949	15.616	1390.592	1040.689
306.964	15.837	1389.697	1041.295
307.979	15.859	1388.723	1040.613
308.993	15.858	1387.504	1039.600
310.008	15.848	1386.795	1038.915
311.022	15.932	1385.563	1038.419
312.037	15.900	1384.666	1037.457
313.052	15.998	1383.531	1037.115
314.066	15.936	1382.704	1036.023
315.081	15.884	1381.580	1034.772
316.095	15.863	1380.978	1034.097
317.110	15.766	1379.902	1032.604
318.125	15.774	1378.821	1031.756
319.139	15.833	1377.788	1031.254
320.154	15.879	1377.056	1030.892
321.168	15.887	1376.137	1030.166
322.183	15.839	1375.062	1028.972
323.197	15.828	1374.229	1028.192
324.212	15.898	1373.424	1027.927
325.227	15.938	1372.111	1027.100
326.241	15.948	1371.578	1026.670
327.256	15.971	1370.568	1025.961
328.270	15.950	1369.588	1025.007
329.285	15.957	1368.990	1024.516
330.300	15.781	1368.133	1022.712
331.314	16.102	1366.810	1023.584
332.329	16.071	1366.067	1022.745
333.343	15.970	1365.096	1021.317
334.358	16.162	1364.248	1021.756
335.373	16.127	1363.870	1021.172
336.387	16.106	1363.151	1020.412
337.402	16.191	1361.781	1019.814
338.416	16.088	1361.535	1018.917
339.431	16.230	1360.767	1019.107
340.446	16.233	1360.024	1018.477
341.460	16.235	1359.356	1017.903
342.475	16.304	1357.902	1017.138
343.489	16.294	1357.203	1016.464
344.504	16.322	1356.088	1015.709
345.519	16.387	1354.928	1015.137
346.533	16.478	1353.921	1014.844
347.548	16.529	1353.188	1014.510
348.562	16.475	1352.968	1013.931
349.577	16.481	1351.932	1013.100
350.592	16.405	1351.218	1012.019
351.606	16.382	1350.368	1011.153
352.621	16.297	1349.581	1009.968
353.635	16.373	1348.042	1009.185
354.650	16.482	1346.902	1008.891
355.665	16.363	1346.491	1007.784
356.679	16.467	1345.551	1007.609
357.694	16.378	1344.238	1006.010
358.708	16.394	1343.141	1005.192
359.723	16.531	1341.748	1004.876
360.738	16.556	1341.205	1004.529
361.752	16.611	1339.763	1003.683
362.767	16.517	1338.816	1002.330
363.781	16.549	1338.027	1001.838
364.796	16.569	1337.529	1001.496
365.810	16.651	1336.583	1001.187
366.825	16.670	1335.963	1000.747
367.840	16.716	1334.580	999.891
368.854	16.710	1334.283	999.548
369.869	16.802	1333.765	999.615
370.883	16.767	1332.885	998.659
371.898	16.716	1332.224	997.775
372.913	16.719	1331.478	997.141
373.927	16.786	1330.225	996.514
374.942	16.653	1329.862	995.372
375.956	16.731	1328.802	994.944
376.971	16.803	1328.576	995.113
377.986	16.756	1327.718	994.105
379.000	16.911	1326.401	993.942
380.015	16.931	1325.764	993.491
381.029	16.895	1325.049	992.659
382.044	16.948	1324.238	992.272
383.059	16.866	1324.093	991.596
384.073	16.971	1322.887	991.216
385.088	16.993	1322.119	990.686
386.102	16.961	1321.738	990.124
387.117	17.009	1321.059	989.809
388.132	16.956	1319.910	988.550
389.146	16.989	1318.816	987.833
390.161	16.975	1317.967	987.030
391.175	16.942	1317.601	986.476
392.190	17.035	1316.932	986.432
393.205	17.029	1315.966	985.585
394.219	17.116	1314.513	984.915
395.234	17.158	1313.189	984.079
396.248	16.942	1312.874	982.502
397.263	17.035	1311.178	981.686
398.278	17.094	1309.259	980.503
399.292	17.105	1308.409	979.843
400.307	17.058	1307.771	979.009
401.321	17.084	1306.302	977.973
402.336	17.025	1305.919	977.256
403.350	17.101	1304.822	976.787
404.365	17.108	1303.901	976.050
405.380	17.135	1302.883	975.359
406.394	17.111	1301.919	974.410
407.409	17.240	1301.279	974.585
408.423	17.158	1300.621	973.541
409.438	17.313	1299.768	973.701
410.453	17.348	1298.986	973.231
411.467	17.262	1298.588	972.354
412.482	17.237	1298.327	971.927
413.496	17.391	1296.991	971.723
414.511	17.392	1296.575	971.334
415.526	17.453	1295.278	970.622
416.540	17.455	1294.768	970.163
417.555	17.463	1294.149	969.661
418.569	17.460	1293.734	969.244
419.584	17.474	1293.491	969.059
420.599	17.492	1292.478	968.315
421.613	100.024	1361.428	1487.774
422.628	98.029	1371.387	1487.856
