DTS Sentinel unit serial number:	SN413079Multiplexer serial number:	ORYXHardware model number:	OX4-SRSoftware version number:	ORYX F/W v4.00 Oryx Data Collector v3.7.2.0data status	okinstallation	princeton_trtdifferential loss correction	single-endedforward channel	channel 4reverse channel	N/Adate	2019/09/17time	18:21:35forward acquisition time	60.00reverse acquisition time	0.00gamma	496.2192k internal	0.2278k external	0.2278temperature offset calibration	0.9980default loss term (dB/km)	0.3790temperature slope calibration	1.0000multiplexer offset coefficient	1.0000multiplexer slope coefficient	1.0000fibre end	0.00T internal ref (°C)	43.25T ext. ref 1 (°C)	0.31T ext. ref 2 (°C)	36.80length (m)	temperature (°C)	Stokes	anti-Stokes-747.200	800.000	-0.061	-0.239
-746.185	800.000	-0.047	0.147
-745.171	-200.000	0.002	-0.048
-744.156	232.731	-0.067	0.113
-743.142	-118.000	0.211	0.039
-742.127	72.020	0.071	0.076
-741.112	-20.382	0.127	-0.081
-740.098	797.102	0.128	0.363
-739.083	209.459	0.090	-0.146
-738.069	-200.000	0.020	0.130
-737.054	245.453	0.086	-0.149
-736.039	-82.683	-0.055	0.018
-735.025	-129.869	0.187	-0.026
-734.010	-119.418	-0.237	0.042
-732.996	-118.874	-0.284	-0.051
-731.981	-48.535	0.119	-0.059
-730.966	203.819	-0.128	0.205
-729.952	61.660	-0.083	-0.085
-728.937	39.429	-0.142	-0.131
-727.923	69.019	-0.287	-0.304
-726.908	-133.219	-0.351	0.046
-725.894	-146.856	-0.358	0.032
-724.879	-89.284	-0.055	-0.017
-723.864	329.498	-0.115	-0.227
-722.850	-95.603	0.171	-0.047
-721.835	-200.000	-0.002	-0.032
-720.821	-94.371	-0.029	0.008
-719.806	-166.997	-0.219	0.009
-718.791	-64.133	-0.025	0.011
-717.777	-61.515	0.225	-0.097
-716.762	-134.965	-0.143	-0.018
-715.748	-41.794	-0.129	-0.068
-714.733	-200.000	0.012	0.089
-713.718	-200.000	-0.025	-0.286
-712.704	800.000	-0.072	0.244
-711.689	121.848	-0.128	-0.164
-710.675	-200.000	-0.010	-0.085
-709.660	-95.723	-0.563	0.155
-708.645	27.576	0.156	-0.135
-707.631	-164.700	0.242	-0.011
-706.616	-3.930	-0.232	-0.166
-705.602	-118.632	-0.329	0.060
-704.587	136.056	0.191	-0.255
-703.572	56.117	-0.186	-0.186
-702.558	800.000	0.057	0.217
-701.543	-48.443	-0.292	-0.145
-700.529	232.564	-0.054	-0.092
-699.514	-200.000	0.000	0.023
-698.499	-61.333	-0.501	-0.217
-697.485	-157.631	-0.296	-0.018
-696.470	-88.260	-0.164	-0.051
-695.456	800.000	0.023	-0.099
-694.441	-200.000	0.012	0.085
-693.426	-109.957	0.251	0.054
-692.412	-174.665	0.108	-0.003
-691.397	20.898	0.167	-0.139
-690.383	800.000	-0.102	0.363
-689.368	-137.487	0.266	-0.031
-688.354	-92.773	-0.074	0.021
-687.339	-100.455	-0.317	-0.081
-686.324	94.795	0.122	-0.143
-685.310	-100.555	0.186	0.047
-684.295	114.847	-0.153	0.192
-683.281	-200.000	0.015	0.091
-682.266	125.381	-0.155	0.201
-681.251	30.740	0.086	0.075
-680.237	800.000	-0.071	-0.254
-679.222	-56.816	0.135	0.061
-678.208	-200.000	-0.023	0.169
-677.193	334.789	0.094	-0.188
-676.178	-65.912	-0.498	-0.205
-675.164	800.000	-0.080	0.334
-674.149	62.782	-0.185	-0.190
-673.135	-119.578	-0.099	0.018
-672.120	781.199	-0.044	0.124
-671.105	-200.000	0.008	-0.355
-670.091	-110.031	-0.084	0.018
-669.076	-130.043	0.137	-0.019
-668.062	-200.000	0.006	-0.043
-667.047	196.773	-0.102	0.160
-666.032	-200.000	-0.018	0.119
-665.018	89.637	-0.066	-0.076
-664.003	145.370	0.023	-0.031
-662.989	-28.077	0.179	0.106
-661.974	125.426	-0.031	0.040
-660.959	-19.256	-0.552	0.351
-659.945	281.674	0.170	-0.313
-658.930	-81.197	0.112	-0.038
-657.916	152.549	0.191	-0.267
-656.901	-200.000	-0.038	0.193
-655.886	-113.747	-0.075	0.015
-654.872	448.663	-0.168	0.379
-653.857	32.937	-0.240	0.214
-652.843	418.884	0.139	-0.306
-651.828	-99.123	-0.288	-0.075
-650.814	15.383	0.276	-0.222
-649.799	-200.000	0.068	-0.330
-648.784	-200.000	0.016	-0.082
-647.770	-70.989	-0.103	-0.040
-646.755	-200.000	0.010	-0.052
-645.741	-50.355	0.137	0.067
-644.726	-200.000	-0.032	-0.379
-643.711	-103.867	0.251	0.060
-642.697	97.303	0.074	-0.087
-641.682	197.603	0.180	-0.282
-640.668	55.120	-0.173	-0.171
-639.653	-26.121	0.033	0.020
-638.638	-200.000	0.037	-0.223
-637.624	-200.000	-0.030	0.180
-636.609	-200.000	-0.002	0.164
-635.595	-200.000	0.007	0.059
-634.580	-200.000	-0.026	-0.335
-633.565	800.000	0.047	-0.198
-632.551	-67.709	0.156	0.063
-631.536	-3.768	-0.227	0.161
-630.522	-55.939	-0.142	0.065
-629.507	51.057	-0.101	-0.098
-628.492	5.619	0.155	-0.117
-627.478	-200.000	0.069	0.344
-626.463	-200.000	-0.096	-0.512
-625.449	-71.417	0.222	0.085
-624.434	-27.745	0.335	-0.199
-623.419	-159.087	-0.153	0.009
-622.405	73.466	-0.146	-0.156
-621.390	21.745	0.125	0.104
-620.376	233.316	0.053	-0.089
-619.361	-200.000	0.006	-0.135
-618.346	-11.568	-0.149	0.100
-617.332	-75.376	-0.359	-0.131
-616.317	800.000	0.063	-0.198
-615.303	-169.527	-0.241	0.009
-614.288	800.000	-0.093	-0.357
-613.273	-70.928	-0.070	-0.027
-612.259	-200.000	-0.088	0.397
-611.244	-91.650	-0.159	0.046
-610.230	105.816	0.228	-0.276
-609.215	-113.184	0.100	0.020
-608.201	-81.806	0.167	0.056
-607.186	-123.963	0.196	-0.032
-606.171	800.000	0.119	-0.444
-605.157	-81.052	-0.378	-0.128
-604.142	-200.000	0.017	-0.229
-603.128	12.502	0.232	0.183
-602.113	111.758	-0.228	0.282
-601.098	-46.144	0.272	0.137
-600.084	-200.000	-0.043	-0.376
-599.069	401.003	0.071	0.153
-598.055	-200.000	0.009	-0.095
-597.040	-200.000	0.014	0.288
-596.025	-29.440	-0.197	0.115
-595.011	-200.000	-0.027	0.229
-593.996	-188.296	-0.386	-0.005
-592.982	645.045	-0.126	-0.330
-591.967	181.509	0.099	-0.148
-590.952	-162.532	-0.039	-0.002
-589.938	-200.000	-0.023	0.134
-588.923	13.167	0.259	0.205
-587.909	-34.285	0.124	-0.070
-586.894	-2.927	-0.076	0.054
-585.879	604.881	-0.067	-0.171
-584.865	-159.309	0.298	-0.017
-583.850	-200.000	-0.029	0.201
-582.836	-165.380	-0.191	0.009
-581.821	329.439	-0.044	0.087
-580.806	-28.599	0.176	-0.104
-579.792	-5.416	-0.322	-0.226
-578.777	-97.315	-0.278	0.074
-577.763	-56.610	0.166	0.075
-576.748	-49.355	-0.438	0.214
-575.733	-76.963	0.026	0.009
-574.719	-61.427	0.226	-0.097
-573.704	800.000	0.063	-0.205
-572.690	-88.753	-0.134	-0.041
-571.675	-200.000	0.028	-0.238
-570.661	-56.244	0.254	0.115
-569.646	-56.818	-0.179	-0.081
-568.631	167.641	0.102	-0.148
-567.617	-34.666	-0.021	-0.012
-566.602	-13.646	0.113	-0.075
-565.588	-44.188	0.325	-0.167
-564.573	-64.693	-0.169	-0.070
-563.558	-200.000	-0.008	-0.156
-562.544	98.705	0.334	0.394
-561.529	-200.000	0.044	-0.344
-560.515	249.070	0.040	0.070
-559.500	-126.536	0.040	-0.006
-558.485	800.000	0.068	0.230
-557.471	210.508	0.245	-0.393
-556.456	91.876	-0.143	0.164
-555.442	-200.000	-0.039	-0.196
-554.427	116.191	0.117	-0.147
-553.412	-200.000	0.032	0.183
-552.398	47.375	-0.389	-0.370
-551.383	-36.845	0.175	0.096
-550.369	222.106	0.171	-0.281
-549.354	-200.000	-0.025	0.246
-548.339	-200.000	-0.018	0.215
-547.325	500.017	-0.114	0.269
-546.310	-12.841	-0.257	0.171
-545.296	-81.266	-0.504	0.170
-544.281	-200.000	0.007	-0.162
-543.266	-88.091	-0.297	0.091
-542.252	-90.380	-0.171	-0.051
-541.237	-40.222	-0.171	0.091
-540.223	109.183	0.113	0.138
-539.208	-75.226	0.346	-0.126
-538.193	-65.481	-0.373	0.153
-537.179	-200.000	0.011	0.055
-536.164	-36.689	-0.076	-0.042
-535.150	-108.007	0.134	0.030
-534.135	-91.062	-0.012	-0.003
-533.121	120.101	-0.031	-0.039
-532.106	109.451	0.121	-0.148
-531.091	-13.644	0.220	-0.145
-530.077	800.000	0.027	0.099
-529.062	800.000	0.017	-0.069
-528.048	182.095	0.160	-0.241
-527.033	124.242	-0.072	0.093
-526.018	5.794	0.280	0.211
-525.004	-200.000	0.017	0.084
-523.989	-115.379	0.161	-0.031
-522.975	192.916	-0.123	0.190
-521.960	-7.606	-0.103	0.071
-520.945	14.060	-0.232	0.185
-519.931	800.000	0.037	-0.123
-518.916	-200.000	-0.049	0.473
-517.902	-73.093	0.431	0.161
-516.887	54.606	0.256	-0.252
-515.872	7.329	0.186	0.142
-514.858	36.348	0.019	0.017
-513.843	-125.151	0.160	0.025
-512.829	-112.942	-0.306	-0.062
-511.814	99.630	-0.201	-0.238
-510.799	181.360	-0.083	0.125
-509.785	-102.321	0.142	0.035
-508.770	199.837	0.190	-0.297
-507.756	-33.580	0.325	-0.183
-506.741	-155.607	-0.236	-0.016
-505.726	17.831	-0.181	0.147
-504.712	455.571	-0.114	0.257
-503.697	263.764	0.104	0.185
-502.683	372.403	0.126	-0.260
-501.668	-200.000	-0.036	-0.305
-500.653	214.800	0.173	0.279
-499.639	800.000	-0.018	-0.052
-498.624	-39.651	0.137	0.073
-497.610	-68.877	0.219	-0.086
-496.595	800.000	0.060	0.246
-495.581	-200.000	-0.084	0.505
-494.566	17.062	-0.156	-0.126
-493.551	52.356	-0.166	0.162
-492.537	488.472	0.034	0.079
-491.522	800.000	0.085	0.361
-490.508	-28.728	0.047	0.027
-489.493	-200.000	0.010	0.173
-488.478	-4.099	-0.191	-0.135
-487.464	-8.879	-0.191	0.131
-486.449	-123.396	-0.370	-0.060
-485.435	-59.927	-0.053	-0.023
-484.420	54.542	-0.061	-0.060
-483.405	9.653	-0.137	-0.106
-482.391	675.265	-0.093	-0.247
-481.376	-189.853	0.310	-0.004
-480.362	-200.000	0.003	-0.037
-479.347	-200.000	0.029	-0.157
-478.332	-94.546	0.088	-0.025
-477.318	-15.626	-0.101	0.066
-476.303	-148.647	0.089	-0.007
-475.289	419.807	0.052	-0.112
-474.274	102.195	0.253	-0.302
-473.259	-76.606	0.254	-0.091
-472.245	156.727	0.054	-0.076
-471.230	91.795	0.269	0.309
-470.216	70.458	0.146	-0.154
-469.201	596.837	0.149	-0.376
-468.186	0.882	0.135	0.099
-467.172	-31.664	-0.197	0.113
-466.157	800.000	0.080	0.229
-465.143	-200.000	-0.061	0.280
-464.128	800.000	0.064	0.219
-463.113	68.974	-0.303	-0.317
-462.099	-200.000	-0.021	-0.218
-461.084	-200.000	0.033	-0.227
-460.070	-171.987	-0.174	-0.006
-459.055	75.967	-0.096	-0.104
-458.040	663.916	0.067	0.177
-457.026	-200.000	-0.025	0.129
-456.011	567.887	-0.083	0.206
-454.997	800.000	-0.062	-0.191
-453.982	-106.810	0.157	-0.036
-452.968	-41.615	0.298	0.156
-451.953	169.027	0.272	-0.396
-450.938	122.700	0.075	0.095
-449.924	9.463	-0.369	0.285
-448.909	-70.484	0.383	-0.148
-447.895	215.202	-0.075	0.121
-446.880	189.813	-0.167	-0.255
-445.865	230.735	-0.122	0.203
-444.851	-189.803	-0.138	0.002
-443.836	-81.582	0.162	0.054
-442.822	-200.000	0.024	0.557
-441.807	157.775	0.107	0.150
-440.792	-137.037	0.229	-0.027
-439.778	5.429	-0.261	0.196
-438.763	212.698	0.106	0.171
-437.749	382.341	0.042	0.088
-436.734	-200.000	0.004	-0.380
-435.719	-155.655	-0.163	-0.011
-434.705	57.575	-0.192	0.191
-433.690	-200.000	-0.015	-0.207
-432.676	-200.000	-0.025	-0.307
-431.661	-40.753	-0.224	-0.118
-430.646	-21.860	-0.322	-0.199
-429.632	-114.406	-0.229	0.045
-428.617	800.000	-0.080	-0.239
-427.603	-59.742	-0.273	-0.119
-426.588	698.493	-0.113	-0.303
-425.573	14.561	0.073	0.058
-424.559	-200.000	0.008	0.086
-423.544	102.697	-0.072	0.086
-422.530	-139.697	-0.622	0.067
-421.515	800.000	-0.076	-0.268
-420.500	76.821	-0.158	0.171
-419.486	-44.257	0.298	0.152
-418.471	207.857	-0.178	0.282
-417.457	396.240	-0.072	0.152
-416.442	125.050	0.148	0.190
-415.428	-12.171	0.160	-0.106
-414.413	-200.000	-0.057	0.267
-413.398	-13.721	-0.468	-0.308
-412.384	-200.000	-0.082	-0.392
-411.369	-200.000	-0.008	0.151
-410.355	-66.873	0.166	0.067
-409.340	-200.000	-0.012	0.292
-408.325	-200.000	0.010	0.140
-407.311	97.893	-0.019	-0.022
-406.296	211.407	0.108	0.173
-405.282	90.107	0.106	0.120
-404.267	-108.918	-0.129	0.028
-403.252	13.367	-0.116	0.091
-402.238	-96.286	0.278	0.075
-401.223	-50.609	-0.089	-0.043
-400.209	-71.298	0.076	-0.029
-399.194	-73.009	-0.303	0.113
-398.179	800.000	0.085	0.256
-397.165	326.126	-0.136	0.265
-396.150	-200.000	-0.036	0.309
-395.136	-22.174	0.187	0.115
-394.121	46.653	0.157	0.148
-393.106	177.457	-0.085	-0.127
-392.092	-80.552	0.188	0.064
-391.077	-92.300	0.102	-0.029
-390.063	34.418	0.136	-0.120
-389.048	-87.293	-0.204	-0.063
-388.033	-114.079	-0.045	-0.009
-387.019	-24.518	0.156	-0.095
-386.004	-26.092	-0.167	-0.100
-384.990	-92.890	-0.246	0.070
-383.975	431.228	-0.078	0.172
-382.960	157.614	0.140	0.197
-381.946	-63.429	0.223	-0.093
-380.931	-131.244	-0.102	-0.014
-379.917	671.125	0.045	0.118
-378.902	-200.000	0.005	0.074
-377.888	72.212	-0.548	-0.580
-376.873	-200.000	-0.041	-0.205
-375.858	-81.617	-0.164	0.055
-374.844	310.605	0.087	0.165
-373.829	-134.921	0.253	0.031
-372.815	117.528	-0.115	-0.144
-371.800	-200.000	0.016	-0.145
-370.785	74.509	0.168	0.179
-369.771	-200.000	0.053	0.310
-368.756	87.876	-0.123	-0.139
-367.742	-168.888	0.226	-0.009
-366.727	800.000	-0.064	-0.267
-365.712	758.970	-0.074	0.202
-364.698	-77.806	0.189	-0.066
-363.683	-162.529	-0.137	-0.007
-362.669	-200.000	0.013	-0.200
-361.654	-22.610	0.023	-0.014
-360.639	60.233	-0.421	-0.423
-359.625	-200.000	0.013	-0.116
-358.610	-62.887	0.373	0.157
-357.596	-200.000	-0.068	-0.378
-356.581	-200.000	-0.015	-0.151
-355.566	-90.426	0.129	0.038
-354.552	288.627	0.150	0.276
-353.537	-82.895	0.312	0.102
-352.523	109.666	-0.072	-0.088
-351.508	494.460	-0.163	0.380
-350.493	-106.695	0.077	-0.017
-349.479	152.473	0.103	-0.142
-348.464	-131.490	0.161	-0.022
-347.450	25.254	-0.184	0.155
-346.435	-200.000	0.015	0.115
-345.420	-167.296	0.091	-0.004
-344.406	-200.000	0.022	0.287
-343.391	486.065	0.057	0.132
-342.377	-200.000	-0.025	0.121
-341.362	800.000	0.016	0.056
-340.348	-200.000	-0.003	-0.038
-339.333	-81.278	-0.193	-0.064
-338.318	731.145	-0.102	-0.275
-337.304	140.287	-0.100	-0.134
-336.289	-5.648	-0.244	-0.170
-335.275	-200.000	-0.007	-0.135
-334.260	-200.000	0.061	0.345
-333.245	-154.526	0.383	-0.026
-332.231	14.307	0.096	-0.076
-331.216	159.488	0.085	-0.120
-330.202	98.781	0.259	0.303
-329.187	-81.896	0.239	0.079
-328.172	800.000	0.030	0.096
-327.158	-200.000	0.013	-0.063
-326.143	-11.954	0.085	0.056
-325.129	302.047	0.089	-0.166
-324.114	672.639	-0.138	-0.362
-323.099	149.920	-0.090	-0.123
-322.085	-132.596	0.134	0.017
-321.070	-116.525	-0.345	-0.064
-320.056	-62.780	-0.369	-0.155
-319.041	372.188	0.172	-0.354
-318.026	800.000	0.024	0.091
-317.012	-40.122	0.231	-0.122
-315.997	27.418	0.259	0.221
-314.983	372.183	0.081	0.166
-313.968	547.616	-0.054	0.130
-312.953	-19.349	0.401	-0.252
-311.939	272.985	-0.135	-0.242
-310.924	796.651	0.138	-0.385
-309.910	-132.588	0.350	0.046
-308.895	52.387	-0.176	0.170
-307.880	-11.503	-0.056	0.037
-306.866	155.587	-0.132	0.184
-305.851	-200.000	-0.057	0.327
-304.837	82.210	-0.053	0.058
-303.822	-18.610	0.162	0.102
-302.807	237.628	-0.194	0.326
-301.793	-73.042	0.189	-0.070
-300.778	-200.000	-0.020	-0.199
-299.764	169.791	0.140	0.202
-298.749	-200.000	-0.045	0.351
-297.735	-128.685	-0.361	-0.052
-296.720	800.000	-0.074	0.230
-295.705	-130.125	-0.255	-0.035
-294.691	394.368	0.086	0.181
-293.676	-89.981	0.258	-0.076
-292.662	91.676	0.128	0.145
-291.647	-200.000	0.003	0.457
-290.632	61.938	-0.156	0.157
-289.618	-150.236	-0.103	0.008
-288.603	800.000	-0.100	0.303
-287.589	33.471	0.065	-0.057
-286.574	-50.008	0.358	-0.172
-285.559	726.556	0.121	0.326
-284.545	43.020	-0.152	0.140
-283.530	-6.607	0.421	0.290
-282.516	139.731	0.163	-0.217
-281.501	-87.804	0.112	0.034
-280.486	790.007	0.096	-0.267
-279.472	420.503	0.033	0.071
-278.457	-200.000	0.072	0.361
-277.443	-153.412	-0.252	0.018
-276.428	98.778	0.227	-0.264
-275.413	-200.000	0.003	-0.108
-274.399	-200.000	0.021	0.135
-273.384	-25.334	-0.133	0.079
-272.370	-200.000	-0.008	0.083
-271.355	800.000	-0.029	0.086
-270.340	-162.002	-0.306	-0.016
-269.326	-86.376	0.490	0.152
-268.311	147.011	-0.177	-0.240
-267.297	-4.230	0.295	-0.207
-266.282	75.266	0.144	-0.154
-265.267	15.909	-0.118	-0.094
-264.253	28.752	0.092	-0.079
-263.238	-42.393	0.224	-0.116
-262.224	-200.000	0.241	-0.001
-261.209	-136.988	-0.201	0.023
-260.195	-139.500	-0.295	-0.032
-259.180	-200.000	0.002	-0.179
-258.165	551.097	-0.047	-0.115
-257.151	-28.666	0.144	-0.084
-256.136	-74.823	0.181	0.066
-255.122	2.811	-0.197	0.144
-254.107	-134.851	-0.098	0.012
-253.092	-200.000	0.003	-0.093
-252.078	60.519	-0.228	0.228
-251.063	800.000	0.015	0.057
-250.049	58.036	-0.289	-0.286
-249.034	800.000	-0.050	-0.179
-248.019	173.760	0.179	-0.261
-247.005	-15.085	-0.112	-0.073
-245.990	42.715	-0.120	-0.110
-244.976	2.838	0.389	-0.285
-243.961	-71.803	-0.153	-0.058
-242.946	3.026	-0.029	0.021
-241.932	800.000	-0.057	-0.214
-240.917	-38.404	0.160	-0.086
-239.903	186.913	-0.209	-0.315
-238.888	777.370	-0.051	-0.141
-237.873	-92.514	-0.532	-0.151
-236.859	-200.000	0.014	0.164
-235.844	-46.953	0.124	0.061
-234.830	-55.962	-0.062	0.028
-233.815	-34.784	-0.136	0.075
-232.800	-0.834	0.354	0.253
-231.786	2.917	-0.055	-0.041
-230.771	270.421	0.083	0.147
-229.757	-200.000	0.005	-0.122
-228.742	800.000	-0.068	-0.248
-227.727	678.224	0.086	-0.227
-226.713	225.279	0.029	-0.048
-225.698	251.446	0.111	-0.191
-224.684	-29.837	0.239	0.137
-223.669	800.000	-0.110	-0.419
-222.655	-112.056	0.136	-0.028
-221.640	744.221	-0.090	-0.245
-220.625	-69.354	0.098	0.038
-219.611	-200.000	0.054	0.307
-218.596	-68.243	-0.088	0.034
-217.582	-123.491	0.121	0.019
-216.567	131.071	-0.174	0.226
-215.552	158.075	-0.139	0.195
-214.538	-3.969	0.099	0.069
-213.523	-43.130	0.105	0.053
-212.509	527.226	0.059	0.141
-211.494	164.780	-0.171	0.244
-210.479	-62.622	-0.113	-0.047
-209.465	-75.720	0.110	-0.039
-208.450	-46.354	0.277	0.137
-207.436	800.000	-0.023	-0.070
-206.421	333.794	-0.079	-0.153
-205.406	17.562	-0.176	0.141
-204.392	-166.348	0.123	0.005
-203.377	-143.006	0.305	0.030
-202.363	-156.971	-0.200	0.012
-201.348	-30.429	0.213	0.122
-200.333	193.272	-0.047	-0.072
-199.319	392.905	-0.044	0.092
-198.304	-200.000	-0.017	0.363
-197.290	-200.000	0.092	0.479
-196.275	157.266	-0.091	-0.127
-195.260	439.936	-0.065	0.143
-194.246	800.000	-0.086	-0.299
-193.231	71.127	0.222	-0.232
-192.217	300.480	-0.146	0.271
-191.202	752.778	-0.043	-0.118
-190.187	-200.000	0.187	0.000
-189.173	-39.787	0.290	-0.153
-188.158	-82.742	0.116	0.038
-187.144	-200.000	0.032	-0.277
-186.129	57.708	-0.209	0.206
-185.114	-42.230	-0.117	0.060
-184.100	-106.661	0.322	0.072
-183.085	75.124	-0.114	0.121
-182.071	-50.895	0.163	0.077
-181.056	-83.818	-0.265	0.085
-180.042	226.568	0.058	0.094
-179.027	800.000	-0.124	-0.409
-178.012	-200.000	0.001	-0.186
-176.998	-92.366	-0.319	0.090
-175.983	-200.000	-0.104	0.000
-174.969	-200.000	0.035	-0.223
-173.954	247.657	0.069	0.118
-172.939	-9.091	-0.138	0.093
-171.925	42.603	0.198	-0.181
-170.910	537.130	-0.029	-0.069
-169.896	-141.640	-0.238	-0.024
-168.881	800.000	-0.058	-0.205
-167.866	106.500	-0.152	0.182
-166.852	-103.394	-0.367	0.087
-165.837	-133.249	0.128	-0.016
-164.823	-200.000	-0.005	0.039
-163.808	410.508	-0.074	0.158
-162.793	433.202	0.024	0.052
-161.779	-58.749	-0.073	0.032
-160.764	-103.837	-0.185	-0.044
-159.750	-200.000	0.018	-0.204
-158.735	800.000	0.022	0.062
-157.720	-39.304	-0.329	0.174
-156.706	604.816	0.108	-0.270
-155.691	78.827	0.130	0.139
-154.677	-158.353	0.150	-0.009
-153.662	-200.000	-0.066	0.361
-152.647	-96.886	-0.108	0.029
-151.633	527.039	-0.103	0.244
-150.618	88.329	0.271	0.303
-149.604	800.000	-0.064	0.234
-148.589	-85.030	0.232	0.073
-147.574	800.000	0.051	-0.153
-146.560	-7.250	-0.265	-0.181
-145.545	318.839	0.088	-0.168
-144.531	626.649	-0.116	-0.296
-143.516	-74.054	-0.158	-0.058
-142.502	-115.290	0.354	-0.067
-141.487	86.955	-0.129	0.143
-140.472	-200.000	-0.028	0.178
-139.458	54.190	0.299	0.289
-138.443	-200.000	-0.011	0.232
-137.429	3.080	-0.297	-0.217
-136.414	-83.907	0.069	-0.022
-135.399	-13.174	0.186	-0.121
-134.385	800.000	0.062	-0.229
-133.370	94.492	-0.207	0.237
-132.356	1.911	-0.440	-0.319
-131.341	-49.008	0.262	0.126
-130.326	51.529	0.144	0.137
-129.312	-200.000	0.006	-0.230
-128.297	503.899	0.095	-0.220
-127.283	800.000	0.044	0.160
-126.268	-21.318	-0.135	0.083
-125.253	72.339	-0.085	0.090
-124.239	-76.927	-0.484	-0.170
-123.224	-200.000	0.009	0.133
-122.210	-192.579	0.178	-0.002
-121.195	-107.086	0.126	0.028
-120.180	372.373	-0.039	-0.080
-119.166	128.671	0.129	0.166
-118.151	-163.912	0.380	-0.018
-117.137	621.555	0.031	-0.078
-116.122	39.409	0.187	0.168
-115.107	718.680	-0.076	0.204
-114.093	-36.927	0.135	0.073
-113.078	287.404	0.044	-0.080
-112.064	36.233	0.239	0.212
-111.049	-7.403	0.230	0.156
-110.034	-97.433	-0.188	-0.049
-109.020	-93.686	-0.127	-0.035
-108.005	-158.597	-0.223	-0.013
-106.991	-40.594	0.279	0.145
-105.976	800.000	0.049	-0.138
-104.962	448.517	0.045	-0.099
-103.947	-187.325	0.089	-0.001
-102.932	115.692	0.141	-0.173
-101.918	-8.885	0.107	-0.072
-100.903	301.005	0.074	0.137
-99.889	217.697	-0.111	-0.178
-98.874	-52.298	0.265	0.123
-97.859	366.129	-0.042	-0.086
-96.845	-87.793	0.215	-0.065
-95.830	102.975	0.168	0.198
-94.816	-76.187	-0.045	0.016
-93.801	-90.051	0.117	-0.034
-92.786	-9.461	0.289	0.194
-91.772	32.543	0.180	-0.156
-90.757	23.361	-0.187	-0.155
-89.743	692.845	0.090	0.237
-88.728	-120.530	0.170	-0.029
-87.713	406.900	-0.112	0.237
-86.699	-200.000	-0.008	0.206
-85.684	-200.000	0.012	-0.094
-84.670	-200.000	-0.095	-0.000
-83.655	-200.000	0.009	0.285
-82.640	-43.782	-0.186	-0.094
-81.626	-200.000	-0.001	0.018
-80.611	674.120	0.053	-0.137
-79.597	800.000	0.060	-0.177
-78.582	496.129	0.090	0.209
-77.567	227.146	-0.061	-0.100
-76.553	127.145	-0.221	-0.281
-75.538	123.726	-0.109	0.137
-74.524	-61.550	-0.072	0.030
-73.509	343.915	-0.100	0.197
-72.494	-46.268	-0.227	0.112
-71.480	-200.000	-0.067	-0.330
-70.465	155.692	-0.137	0.189
-69.451	-200.000	0.056	0.272
-68.436	138.824	-0.024	-0.031
-67.422	-15.500	-0.309	0.198
-66.407	-104.576	-0.194	0.045
-65.392	326.254	-0.116	0.223
-64.378	-94.282	-0.235	0.064
-63.363	295.802	0.115	0.212
-62.349	-54.813	0.068	0.031
-61.334	58.373	-0.826	-0.812
-60.319	-127.299	-0.019	-0.003
-59.305	-200.000	-0.031	-0.538
-58.290	40.603	0.658	0.595
-57.276	460.119	0.729	1.627
-56.261	-200.000	74.715	566.800
-55.246	545.051	1328.695	3182.437
-54.232	135.428	2581.929	3366.659
-53.217	110.221	2400.954	2890.281
-52.203	50.598	2134.097	2024.084
-51.188	45.297	2041.689	1887.581
-50.173	43.439	2022.627	1852.860
-49.159	55.653	2059.675	1999.836
-48.144	61.385	2079.753	2072.148
-47.130	46.254	2044.406	1898.634
-46.115	43.341	2033.679	1861.785
-45.100	43.223	2030.464	1857.689
-44.086	43.200	2028.698	1855.782
-43.071	43.108	2026.685	1853.020
-42.057	43.091	2024.047	1850.382
-41.042	43.171	2021.813	1849.001
-40.027	43.155	2020.166	1847.276
-39.013	43.278	2017.758	1846.121
-37.998	43.221	2015.784	1843.720
-36.984	43.130	2014.308	1841.471
-35.969	43.198	2011.950	1839.862
-34.954	43.268	2010.320	1838.936
-33.940	43.248	2008.733	1837.224
-32.925	43.242	2006.644	1835.187
-31.911	43.254	2005.502	1834.181
-30.896	43.327	2003.522	1832.961
-29.881	43.259	2001.917	1830.798
-28.867	43.413	1999.415	1829.837
-27.852	43.304	1998.064	1827.544
-26.838	43.334	1995.937	1825.796
-25.823	43.219	1995.024	1823.848
-24.809	43.199	1992.647	1821.422
-23.794	43.253	1990.933	1820.270
-22.779	43.265	1989.345	1818.856
-21.765	43.299	1987.566	1817.457
-20.750	43.283	1986.031	1815.842
-19.736	43.331	1984.115	1814.449
-18.721	43.292	1982.720	1812.753
-17.706	43.303	1981.098	1811.291
-16.692	43.261	1979.214	1809.121
-15.677	43.306	1977.773	1808.135
-14.663	43.208	1976.223	1805.775
-13.648	43.212	1975.067	1804.682
-12.633	43.210	1974.165	1803.762
-11.619	43.169	1972.953	1802.221
-10.604	43.176	1971.173	1800.588
-9.590	43.278	1969.706	1800.087
-8.575	43.257	1968.105	1798.358
-7.560	43.240	1966.687	1796.848
-6.546	43.241	1965.158	1795.380
-5.531	43.286	1963.776	1794.454
-4.517	43.329	1962.196	1793.314
-3.502	43.254	1961.480	1791.922
-2.487	43.256	1960.210	1790.710
-1.473	43.281	1958.923	1789.689
-0.458	43.328	1954.846	1786.309
0.556	41.496	1934.814	1758.018
1.571	36.209	1910.731	1689.819
2.586	29.807	1925.849	1646.274
3.600	26.638	1959.367	1646.030
4.615	25.122	1954.966	1628.434
5.629	19.256	1852.550	1492.336
6.644	7.921	1722.882	1295.967
7.659	1.283	1676.099	1207.961
8.673	0.473	1672.099	1198.540
9.688	0.338	1670.965	1196.545
10.702	0.255	1669.182	1194.510
11.717	0.194	1666.832	1192.239
12.731	0.748	1665.966	1195.895
13.746	7.500	1681.505	1260.715
14.761	15.894	1698.159	1340.164
15.775	17.995	1700.056	1358.264
16.790	17.086	1697.156	1348.610
17.804	16.164	1693.532	1338.298
18.819	15.086	1690.410	1327.173
19.834	14.516	1687.784	1320.483
20.848	14.172	1686.117	1316.341
21.863	13.931	1683.942	1312.619
22.877	13.692	1682.703	1309.654
23.892	13.416	1681.747	1306.614
24.907	13.253	1680.956	1304.594
25.921	13.225	1679.519	1303.144
26.936	13.215	1678.221	1301.945
27.950	13.341	1677.587	1302.327
28.965	13.386	1676.998	1302.108
29.980	13.422	1676.238	1301.690
30.994	13.330	1675.856	1300.556
32.009	13.541	1674.089	1300.723
33.023	13.601	1673.383	1300.532
34.038	13.495	1672.589	1298.969
35.053	13.477	1671.564	1297.910
36.067	13.525	1670.129	1297.063
37.082	13.452	1669.097	1295.576
38.096	13.527	1667.650	1294.919
39.111	13.487	1667.137	1294.098
40.126	13.508	1667.017	1294.056
41.140	13.458	1665.894	1292.676
42.155	13.444	1664.283	1291.206
43.169	13.362	1662.528	1289.087
44.184	13.246	1662.237	1287.843
45.199	13.289	1660.547	1286.753
46.213	13.329	1659.616	1286.228
47.228	13.303	1657.979	1284.650
48.242	13.321	1657.047	1283.948
49.257	13.410	1655.740	1283.515
50.271	13.362	1654.747	1282.263
51.286	13.322	1653.332	1280.738
52.301	13.434	1652.280	1280.682
53.315	13.400	1650.734	1279.101
54.330	13.424	1649.128	1277.932
55.344	13.370	1647.241	1275.942
56.359	13.327	1646.053	1274.575
57.374	13.287	1645.137	1273.444
58.388	13.343	1643.672	1272.633
59.403	13.265	1642.268	1270.830
60.417	13.361	1641.106	1270.557
61.432	13.250	1639.856	1268.620
62.447	13.343	1638.186	1267.936
63.461	13.188	1637.065	1265.768
64.476	13.157	1636.192	1264.743
65.490	13.123	1635.569	1263.885
66.505	13.207	1634.233	1263.388
67.520	13.143	1633.340	1262.098
68.534	13.266	1631.715	1261.666
69.549	13.282	1630.603	1260.816
70.563	13.196	1629.739	1259.385
71.578	13.241	1628.296	1258.495
72.593	13.203	1627.022	1257.114
73.607	13.130	1626.195	1255.809
74.622	13.124	1625.092	1254.798
75.636	13.089	1624.547	1254.005
76.651	13.207	1622.885	1253.504
77.666	13.160	1621.921	1252.293
78.680	13.082	1621.145	1250.988
79.695	13.211	1619.876	1250.875
80.709	13.186	1618.883	1249.812
81.724	13.246	1618.168	1249.604
82.739	13.144	1617.593	1248.276
83.753	13.258	1616.240	1247.979
84.768	13.259	1615.725	1247.478
85.782	13.317	1614.805	1247.094
86.797	13.370	1613.825	1246.631
87.812	13.390	1613.119	1246.124
88.826	13.377	1611.245	1244.469
89.841	13.380	1610.186	1243.564
90.855	13.324	1609.460	1242.469
91.870	13.385	1608.264	1241.898
92.884	13.418	1606.707	1240.829
93.899	13.446	1606.215	1240.555
94.914	13.387	1605.124	1239.159
95.928	13.432	1603.798	1238.360
96.943	13.464	1602.628	1237.591
97.957	13.457	1601.323	1236.419
98.972	13.521	1599.297	1235.224
99.987	13.404	1597.988	1233.227
101.001	13.354	1596.631	1231.705
102.016	13.338	1595.121	1230.307
103.030	13.319	1593.960	1229.163
104.045	13.396	1592.844	1228.762
105.060	13.475	1591.434	1228.155
106.074	13.456	1589.658	1226.534
107.089	13.358	1588.101	1224.499
108.103	13.316	1586.646	1222.962
109.118	13.299	1585.508	1221.849
110.133	13.270	1583.543	1220.011
111.147	13.259	1582.306	1218.867
112.162	13.201	1581.441	1217.670
113.176	13.250	1579.697	1216.579
114.191	13.318	1578.230	1215.839
115.206	13.337	1576.950	1214.888
116.220	13.362	1576.089	1214.301
117.235	13.228	1574.982	1212.355
118.249	13.267	1573.596	1211.466
119.264	13.348	1572.158	1210.846
120.279	13.252	1570.525	1208.782
121.293	13.346	1568.943	1208.142
122.308	13.267	1567.457	1206.311
123.322	13.338	1565.854	1205.492
124.337	13.301	1564.646	1204.188
125.352	13.340	1563.405	1203.408
126.366	13.261	1562.469	1202.007
127.381	13.283	1561.385	1201.227
128.395	13.207	1560.262	1199.704
129.410	13.260	1558.657	1198.744
130.424	13.273	1557.414	1197.783
131.439	13.360	1555.796	1197.061
132.454	13.372	1554.711	1196.206
133.468	13.426	1553.165	1195.301
134.483	13.494	1551.744	1194.589
135.497	13.444	1550.800	1193.396
136.512	13.406	1549.469	1191.995
137.527	13.405	1548.314	1190.992
138.541	13.475	1546.976	1190.364
139.556	13.517	1545.014	1189.046
140.570	13.507	1543.394	1187.622
141.585	13.484	1542.764	1186.872
142.600	13.513	1541.876	1186.289
143.614	13.569	1539.788	1184.977
144.629	13.602	1538.897	1184.428
145.643	13.680	1537.399	1183.725
146.658	13.603	1536.628	1182.479
147.673	13.634	1534.701	1181.106
148.687	13.595	1533.371	1179.704
149.702	13.536	1531.710	1177.902
150.716	13.491	1530.179	1176.301
151.731	13.474	1528.940	1175.122
152.746	13.581	1527.114	1174.377
153.760	13.554	1525.700	1172.995
154.775	13.585	1524.470	1172.162
155.789	13.578	1523.424	1171.203
156.804	13.586	1522.133	1170.164
157.819	13.754	1520.544	1170.024
158.833	13.697	1519.765	1168.920
159.848	13.664	1518.827	1167.860
160.862	13.608	1517.543	1166.378
161.877	13.689	1516.216	1165.822
162.892	13.721	1515.316	1165.255
163.906	13.556	1513.964	1162.951
164.921	13.592	1512.497	1161.976
165.935	13.547	1511.615	1160.882
166.950	13.669	1510.080	1160.456
167.964	13.690	1509.139	1159.771
168.979	13.744	1508.066	1159.227
169.994	13.681	1507.153	1157.981
171.008	13.608	1506.299	1156.711
172.023	13.712	1505.092	1156.406
173.037	13.785	1503.909	1155.903
174.052	13.785	1502.717	1154.887
175.067	13.762	1502.024	1154.090
176.081	13.738	1500.678	1152.791
177.096	13.746	1499.138	1151.558
178.110	13.754	1497.541	1150.288
179.125	13.678	1496.863	1149.138
180.140	13.736	1495.536	1148.416
181.154	13.723	1494.786	1147.651
182.169	13.815	1493.208	1146.972
183.183	13.829	1492.206	1146.199
184.198	13.808	1491.344	1145.288
185.213	13.913	1489.824	1144.746
186.227	13.870	1488.917	1143.652
187.242	13.920	1487.954	1143.152
188.256	13.986	1486.640	1142.500
189.271	13.976	1485.772	1141.664
190.286	14.049	1484.399	1141.009
191.300	14.030	1483.152	1139.818
192.315	13.890	1481.979	1137.854
193.329	13.746	1480.969	1135.989
194.344	13.835	1479.854	1135.648
195.359	13.806	1478.770	1134.514
196.373	13.859	1477.806	1134.039
197.388	13.880	1476.673	1133.212
198.402	13.958	1475.820	1132.989
199.417	14.004	1474.394	1132.103
200.432	14.060	1473.507	1131.706
201.446	14.121	1472.772	1131.459
202.461	14.118	1471.283	1130.191
203.475	14.094	1470.327	1129.192
204.490	14.219	1469.159	1129.044
205.504	14.144	1468.337	1127.803
206.519	14.182	1466.880	1126.843
207.534	14.151	1465.805	1125.711
208.548	14.135	1464.699	1124.651
209.563	14.099	1463.610	1123.474
210.577	14.162	1462.908	1123.260
211.592	14.157	1461.844	1122.312
212.607	14.188	1461.227	1121.944
213.621	14.283	1460.156	1121.663
214.636	14.264	1459.686	1121.077
215.650	14.278	1458.664	1120.286
216.665	14.270	1457.569	1119.293
217.680	14.273	1456.895	1118.697
218.694	14.427	1455.839	1118.821
219.709	14.440	1455.065	1118.213
220.723	14.393	1453.716	1116.760
221.738	14.384	1453.404	1116.363
222.753	14.380	1452.100	1115.238
223.767	14.330	1451.165	1114.086
224.782	14.400	1449.944	1113.519
225.796	14.462	1449.089	1113.173
226.811	14.360	1448.487	1111.936
227.826	14.489	1447.558	1111.986
228.840	14.579	1446.399	1111.592
229.855	14.467	1445.716	1110.228
230.869	14.538	1444.846	1109.928
231.884	14.442	1443.748	1108.350
232.899	14.467	1442.415	1107.396
233.913	14.470	1441.364	1106.513
234.928	14.347	1440.251	1104.742
235.942	14.352	1439.301	1103.951
236.957	14.458	1437.754	1103.368
237.972	14.432	1437.031	1102.541
238.986	14.568	1435.220	1101.955
240.001	14.427	1434.724	1100.545
241.015	14.540	1433.588	1100.324
242.030	14.521	1432.337	1099.139
243.045	14.612	1431.566	1099.051
244.059	14.581	1430.680	1098.068
245.074	14.609	1429.706	1097.407
246.088	14.612	1428.853	1096.678
247.103	14.643	1428.372	1096.411
248.117	14.668	1427.574	1095.870
249.132	14.746	1426.916	1095.776
250.147	14.823	1426.162	1095.603
251.161	14.763	1425.621	1094.700
252.176	14.846	1424.912	1094.600
253.190	14.942	1423.862	1094.327
254.205	14.862	1423.348	1093.312
255.220	14.983	1421.954	1092.937
256.234	15.004	1421.572	1092.682
257.249	14.944	1421.119	1091.846
258.263	15.030	1419.360	1090.955
259.278	14.958	1418.951	1090.077
260.293	15.015	1417.815	1089.478
261.307	15.076	1416.867	1089.049
262.322	15.155	1416.129	1088.899
263.336	15.092	1415.571	1087.968
264.351	15.177	1414.537	1087.627
265.366	15.188	1413.311	1086.659
266.380	15.161	1412.597	1085.839
267.395	15.199	1411.410	1085.076
268.409	15.180	1410.949	1084.505
269.424	15.218	1409.433	1083.489
270.439	15.123	1408.597	1082.137
271.453	15.189	1407.640	1081.731
272.468	15.214	1406.937	1081.259
273.482	15.225	1406.171	1080.640
274.497	15.157	1405.455	1079.561
275.512	15.127	1404.350	1078.421
276.526	15.240	1403.744	1078.591
277.541	15.268	1402.458	1077.685
278.555	15.174	1401.899	1076.558
279.570	15.279	1400.775	1076.270
280.585	15.333	1399.959	1075.896
281.599	15.344	1399.085	1075.201
282.614	15.372	1398.169	1074.579
283.628	15.351	1397.036	1073.478
284.643	15.344	1396.207	1072.701
285.657	15.269	1395.308	1071.439
286.672	15.394	1393.973	1071.116
287.687	15.350	1393.229	1070.168
288.701	15.370	1392.222	1069.428
289.716	15.427	1391.549	1069.177
290.730	15.402	1390.908	1068.429
291.745	15.472	1389.890	1068.002
292.760	15.425	1388.863	1066.816
293.774	15.429	1387.799	1065.932
294.789	15.490	1386.539	1065.255
295.803	15.535	1385.801	1064.882
296.818	15.508	1385.530	1064.409
297.833	15.559	1384.204	1063.619
298.847	15.496	1383.329	1062.453
299.862	15.455	1382.034	1061.105
300.876	15.537	1381.435	1061.070
301.891	15.551	1380.202	1060.117
302.906	15.557	1380.106	1059.989
303.920	15.678	1378.852	1059.696
304.935	15.661	1378.353	1059.106
305.949	15.707	1377.277	1058.479
306.964	15.745	1376.254	1057.839
307.979	15.864	1375.096	1057.600
308.993	15.717	1374.450	1056.089
310.008	15.785	1373.527	1055.711
311.022	15.786	1372.321	1054.700
312.037	15.781	1371.282	1053.775
313.052	15.856	1370.558	1053.595
314.066	15.889	1369.266	1052.713
315.081	15.826	1368.259	1051.455
316.095	15.810	1366.758	1050.105
317.110	15.745	1366.035	1049.054
318.125	15.746	1365.639	1048.661
319.139	15.772	1364.310	1047.711
320.154	15.821	1363.240	1047.101
321.168	15.792	1362.296	1046.104
322.183	15.762	1361.645	1045.325
323.197	15.727	1360.657	1044.258
324.212	15.772	1359.838	1043.815
325.227	15.890	1358.856	1043.701
326.241	15.938	1358.102	1043.324
327.256	15.860	1357.089	1041.972
328.270	15.882	1356.193	1041.329
329.285	15.954	1355.109	1040.847
330.300	15.945	1354.424	1040.176
331.314	15.942	1353.573	1039.413
332.329	15.950	1352.665	1038.673
333.343	15.904	1352.034	1037.811
334.358	15.983	1350.722	1037.199
335.373	15.943	1349.998	1036.305
336.387	16.047	1349.106	1036.168
337.402	16.044	1348.404	1035.516
338.416	16.090	1348.136	1035.506
339.431	16.140	1347.203	1035.003
340.446	16.106	1346.867	1034.442
341.460	16.173	1345.583	1033.779
342.475	16.127	1344.776	1032.786
343.489	16.122	1344.122	1032.161
344.504	16.247	1343.077	1032.027
345.519	16.190	1342.061	1030.807
346.533	16.351	1340.742	1030.686
347.548	16.345	1340.010	1029.996
348.562	16.349	1338.839	1029.031
349.577	16.301	1338.653	1028.502
350.592	16.387	1337.642	1028.159
351.606	16.314	1337.019	1027.149
352.621	16.326	1335.967	1026.320
353.635	16.304	1335.019	1025.365
354.650	16.259	1333.839	1024.094
355.665	16.256	1332.944	1023.300
356.679	16.341	1331.526	1022.636
357.694	16.411	1330.398	1022.105
358.708	16.385	1329.605	1021.248
359.723	16.391	1328.547	1020.382
360.738	16.505	1327.301	1020.021
361.752	16.433	1326.397	1018.803
362.767	16.409	1325.695	1018.029
363.781	16.457	1324.550	1017.347
364.796	16.514	1323.919	1017.115
365.810	16.481	1323.327	1016.369
366.825	16.560	1322.883	1016.418
367.840	16.440	1322.082	1014.992
368.854	16.611	1321.128	1015.195
369.869	16.686	1320.802	1015.304
370.883	16.667	1319.906	1014.413
371.898	16.738	1319.179	1014.187
372.913	16.656	1318.194	1012.847
373.927	16.686	1317.502	1012.408
374.942	16.723	1316.998	1012.152
375.956	16.740	1315.907	1011.323
376.971	16.771	1315.046	1010.756
377.986	16.762	1314.094	1009.888
379.000	16.747	1313.316	1009.110
380.015	16.762	1312.980	1008.848
381.029	16.850	1311.845	1008.411
382.044	16.771	1311.748	1007.781
383.059	16.737	1310.957	1006.879
384.073	16.786	1310.232	1006.522
385.088	16.758	1309.705	1005.865
386.102	16.908	1308.607	1005.820
387.117	16.986	1307.730	1005.522
388.132	16.869	1307.149	1004.290
389.146	16.933	1306.060	1003.748
390.161	16.873	1305.513	1002.882
391.175	16.890	1304.702	1002.267
392.190	16.898	1304.267	1001.894
393.205	16.868	1303.262	1000.858
394.219	16.960	1302.040	1000.375
395.234	17.055	1300.617	999.747
396.248	17.003	1299.449	998.460
397.263	17.081	1297.955	997.680
398.278	17.033	1296.798	996.421
399.292	16.973	1295.734	995.162
400.307	16.937	1294.736	994.097
401.321	16.828	1293.822	992.671
402.336	16.968	1293.024	992.789
403.350	17.013	1291.995	992.175
404.365	16.954	1291.062	991.023
405.380	17.138	1290.021	991.214
406.394	17.110	1289.017	990.190
407.409	17.095	1288.049	989.273
408.423	16.981	1288.249	988.671
409.438	17.177	1287.555	989.195
410.453	17.222	1286.525	988.578
411.467	17.288	1285.474	988.063
412.482	17.190	1285.495	987.426
413.496	17.240	1284.934	987.196
414.511	17.342	1283.601	986.678
415.526	17.372	1282.681	986.059
416.540	17.330	1282.221	985.375
417.555	17.443	1281.675	985.520
418.569	17.320	1281.195	984.352
419.584	17.455	1280.582	984.577
420.599	17.458	1279.529	983.694
421.613	71.797	1310.727	1318.568
422.628	71.008	1315.279	1318.674
