DTS Sentinel unit serial number:	SN413079Multiplexer serial number:	ORYXHardware model number:	OX4-SRSoftware version number:	ORYX F/W v4.00 Oryx Data Collector v3.7.2.0data status	okinstallation	princeton_trtdifferential loss correction	single-endedforward channel	channel 4reverse channel	N/Adate	2019/09/17time	15:09:35forward acquisition time	60.00reverse acquisition time	0.00gamma	496.2192k internal	0.2293k external	0.2293temperature offset calibration	0.9983default loss term (dB/km)	0.3790temperature slope calibration	1.0000multiplexer offset coefficient	1.0000multiplexer slope coefficient	1.0000fibre end	0.00T internal ref (°C)	37.62T ext. ref 1 (°C)	0.38T ext. ref 2 (°C)	34.35length (m)	temperature (°C)	Stokes	anti-Stokes-747.200	-40.713	-0.047	0.025
-746.185	213.594	-0.221	0.357
-745.171	-124.969	-0.268	0.042
-744.156	-200.000	-0.009	0.476
-743.142	312.042	0.102	0.195
-742.127	81.513	-0.287	0.318
-741.112	-200.000	0.036	0.292
-740.098	800.000	-0.098	0.346
-739.083	547.979	-0.040	-0.098
-738.069	22.405	-0.159	0.133
-737.054	635.335	-0.125	-0.325
-736.039	59.669	-0.226	-0.228
-735.025	-200.000	-0.002	0.428
-734.010	1.591	-0.422	0.311
-732.996	26.544	-0.281	-0.240
-731.981	-200.000	-0.003	0.200
-730.966	-200.000	0.003	0.499
-729.952	155.982	-0.115	-0.162
-728.937	-105.515	-0.177	-0.041
-727.923	-46.283	-0.299	0.151
-726.908	-129.312	0.313	0.044
-725.894	170.441	0.080	0.118
-724.879	564.459	-0.157	0.390
-723.864	34.474	-0.197	-0.176
-722.850	133.386	0.093	0.123
-721.835	513.789	0.033	-0.078
-720.821	-200.000	-0.036	-0.305
-719.806	-59.810	-0.242	-0.106
-718.791	-111.970	0.293	0.060
-717.777	292.363	0.081	0.151
-716.762	-16.909	-0.293	-0.189
-715.748	206.236	0.168	-0.267
-714.733	-115.758	-0.226	0.043
-713.718	-200.000	0.042	-0.189
-712.704	800.000	0.026	-0.094
-711.689	94.794	0.167	0.195
-710.675	116.881	0.210	-0.264
-709.660	421.046	0.134	-0.293
-708.645	-46.156	-0.188	-0.094
-707.631	-146.522	0.205	-0.018
-706.616	-200.000	-0.001	0.177
-705.602	800.000	0.036	-0.155
-704.587	-105.656	-0.006	0.001
-703.572	-12.343	-0.329	0.219
-702.558	-56.321	0.438	0.199
-701.543	-157.707	0.302	-0.018
-700.529	212.515	0.235	-0.379
-699.514	-200.000	-0.009	-0.318
-698.499	-164.206	0.200	0.009
-697.485	49.002	0.290	0.278
-696.470	-174.176	0.082	0.002
-695.456	-70.444	-0.307	0.119
-694.441	167.243	0.154	-0.223
-693.426	155.022	-0.171	-0.240
-692.412	-200.000	0.048	-0.240
-691.397	175.206	-0.186	-0.275
-690.383	57.548	-0.076	0.076
-689.368	183.505	0.184	-0.277
-688.354	79.159	-0.141	0.154
-687.339	273.620	0.058	-0.105
-686.324	223.892	0.242	-0.399
-685.310	-121.849	0.255	0.043
-684.295	-12.624	0.117	0.078
-683.281	-87.903	0.371	0.114
-682.266	-200.000	-0.059	-0.322
-681.251	257.616	0.138	0.243
-680.237	-84.270	-0.248	0.080
-679.222	-200.000	-0.031	-0.194
-678.208	130.581	-0.134	0.176
-677.193	800.000	-0.045	-0.134
-676.178	54.095	0.128	-0.125
-675.164	-200.000	0.045	-0.321
-674.149	201.267	0.033	0.051
-673.135	15.341	0.100	0.080
-672.120	-200.000	-0.013	-0.077
-671.105	354.540	0.121	-0.246
-670.091	-64.752	-0.374	-0.154
-669.076	-75.676	-0.166	-0.060
-668.062	-98.488	0.109	-0.028
-667.047	-173.958	0.260	0.008
-666.032	-200.000	-0.009	0.190
-665.018	10.494	-0.223	0.174
-664.003	99.041	0.023	0.027
-662.989	-74.960	0.153	0.056
-661.974	24.711	0.335	0.283
-660.959	82.412	0.259	-0.286
-659.945	-200.000	-0.052	0.257
-658.930	-162.097	0.268	-0.014
-657.916	-200.000	-0.070	0.362
-656.901	489.536	-0.152	0.355
-655.886	-200.000	-0.089	-0.469
-654.872	-120.606	0.268	0.046
-653.857	-79.422	0.238	-0.082
-652.843	560.703	-0.109	0.269
-651.828	-200.000	0.024	-0.121
-650.814	477.669	-0.186	-0.428
-649.799	-71.586	0.196	-0.075
-648.784	-200.000	-0.035	0.288
-647.770	-200.000	0.011	-0.306
-646.755	-200.000	-0.018	0.323
-645.741	-29.631	-0.119	0.069
-644.726	-84.737	0.145	-0.046
-643.711	-115.686	0.289	-0.055
-642.697	552.240	-0.188	-0.461
-641.682	427.865	0.116	0.255
-640.668	130.952	-0.095	-0.124
-639.653	-87.671	-0.188	-0.058
-638.638	-35.640	0.346	0.191
-637.624	-200.000	-0.006	-0.082
-636.609	-41.369	-0.280	0.147
-635.595	800.000	0.111	-0.462
-634.580	359.042	-0.169	-0.343
-633.565	194.986	0.089	-0.138
-632.551	146.038	-0.049	-0.068
-631.536	-79.531	-0.201	0.069
-630.522	210.336	0.122	-0.195
-629.507	42.588	-0.182	0.168
-628.492	-200.000	-0.034	-0.310
-627.478	-134.418	-0.144	-0.018
-626.463	-200.000	-0.014	-0.175
-625.449	148.772	0.075	-0.104
-624.434	-63.568	-0.322	-0.135
-623.419	-73.281	0.211	-0.079
-622.405	156.185	-0.033	-0.047
-621.390	268.191	-0.068	-0.122
-620.376	-200.000	-0.025	-0.163
-619.361	-62.870	0.347	-0.146
-618.346	-42.183	-0.034	-0.018
-617.332	-57.943	0.092	0.041
-616.317	366.610	0.098	-0.202
-615.303	-111.875	0.203	-0.042
-614.288	800.000	-0.007	0.022
-613.273	-129.335	0.228	-0.032
-612.259	0.539	0.130	0.095
-611.244	-200.000	-0.055	0.323
-610.230	-137.329	0.326	0.038
-609.215	800.000	-0.057	0.254
-608.201	24.340	0.123	-0.104
-607.186	276.454	-0.171	-0.310
-606.171	-4.916	0.088	0.062
-605.157	-159.331	-0.090	-0.005
-604.142	62.481	-0.071	-0.072
-603.128	237.481	0.037	-0.063
-602.113	-200.000	0.025	-0.119
-601.098	-200.000	-0.005	-0.079
-600.084	-200.000	0.026	-0.121
-599.069	800.000	0.012	-0.046
-598.055	-106.293	-0.098	0.022
-597.040	-200.000	-0.025	0.125
-596.025	-30.637	0.321	0.185
-595.011	-121.705	0.171	-0.029
-593.996	-64.739	-0.226	0.093
-592.982	-4.201	0.454	0.320
-591.967	800.000	0.008	0.029
-590.952	-101.550	-0.190	-0.047
-589.938	277.293	0.168	0.305
-588.923	59.335	-0.228	0.229
-587.909	-32.045	0.063	0.036
-586.894	800.000	0.002	-0.006
-585.879	-117.612	0.358	0.066
-584.865	142.844	0.084	0.114
-583.850	-23.670	-0.178	0.108
-582.836	321.724	-0.133	-0.257
-581.821	329.324	0.017	-0.034
-580.806	409.616	-0.046	-0.099
-579.792	786.073	-0.049	-0.136
-578.777	800.000	-0.087	0.334
-577.763	-53.025	0.083	-0.039
-576.748	44.022	-0.111	0.104
-575.733	47.543	-0.100	0.095
-574.719	196.465	0.111	-0.171
-573.704	-200.000	0.004	-0.109
-572.690	-200.000	0.020	0.192
-571.675	-160.657	-0.254	0.014
-570.661	767.541	-0.137	-0.380
-569.646	800.000	-0.131	-0.424
-568.631	35.960	0.032	0.029
-567.617	-200.000	0.034	0.205
-566.602	-75.072	0.245	0.089
-565.588	-200.000	0.070	-0.507
-564.573	376.525	-0.053	-0.110
-563.558	-130.407	0.183	-0.025
-562.544	9.173	-0.040	0.031
-561.529	-200.000	0.054	0.264
-560.515	49.262	0.156	0.149
-559.500	800.000	-0.120	-0.457
-558.485	-98.006	0.044	-0.012
-557.471	-36.412	0.221	-0.121
-556.456	41.789	0.206	0.190
-555.442	451.398	0.122	0.273
-554.427	120.980	-0.224	0.283
-553.412	98.839	0.155	-0.182
-552.398	-200.000	0.042	-0.297
-551.383	-55.939	-0.357	-0.162
-550.369	-200.000	0.014	-0.224
-549.354	21.334	-0.186	0.154
-548.339	30.033	-0.148	-0.128
-547.325	354.386	-0.070	0.140
-546.310	-200.000	0.070	0.338
-545.296	-200.000	-0.006	-0.304
-544.281	-42.795	0.166	-0.086
-543.266	144.935	0.102	0.139
-542.252	-93.645	0.315	0.088
-541.237	-43.171	0.077	-0.039
-540.223	8.434	-0.088	-0.067
-539.208	-168.434	-0.216	0.008
-538.193	-14.845	0.229	0.149
-537.179	-89.560	-0.133	-0.040
-536.164	-200.000	0.039	0.229
-535.150	-200.000	0.051	0.259
-534.135	-174.252	-0.109	-0.003
-533.121	-51.950	0.230	0.109
-532.106	-200.000	-0.005	0.101
-531.091	-186.308	0.228	-0.003
-530.077	800.000	-0.081	0.289
-529.062	169.605	-0.247	0.358
-528.048	63.981	0.146	0.149
-527.033	671.600	-0.019	0.050
-526.018	-120.473	-0.389	-0.067
-525.004	-132.787	0.185	-0.024
-523.989	-121.567	0.197	-0.033
-522.975	14.222	-0.182	0.144
-521.960	-47.550	0.124	-0.061
-520.945	-200.000	0.016	0.092
-519.931	-200.000	0.025	0.220
-518.916	-3.114	-0.158	0.112
-517.902	-120.438	-0.382	0.066
-516.887	-73.796	-0.359	0.132
-515.872	-200.000	0.000	0.190
-514.858	-100.577	0.236	-0.059
-513.843	84.556	0.361	0.401
-512.829	-118.453	-0.107	-0.019
-511.814	-160.171	-0.125	0.007
-510.799	45.336	-0.154	0.144
-509.785	166.771	0.112	0.161
-508.770	-2.701	-0.085	-0.061
-507.756	-130.556	-0.248	-0.034
-506.741	-64.498	-0.156	-0.064
-505.726	-4.337	0.076	0.053
-504.712	-200.000	-0.072	0.339
-503.697	-200.000	0.015	0.079
-502.683	-162.232	0.541	0.027
-501.668	-200.000	-0.016	-0.312
-500.653	20.022	0.062	-0.050
-499.639	18.765	0.131	-0.107
-498.624	322.382	0.198	-0.382
-497.610	-19.017	-0.038	0.024
-496.595	514.317	0.100	0.236
-495.581	-141.726	0.410	-0.042
-494.566	-155.882	0.068	-0.004
-493.551	538.269	0.097	0.234
-492.537	-200.000	0.007	0.145
-491.522	-200.000	-0.080	0.465
-490.508	-149.360	-0.266	-0.021
-489.493	800.000	-0.027	0.085
-488.478	41.411	0.057	0.052
-487.464	-200.000	-0.030	-0.452
-486.449	15.309	0.335	-0.266
-485.435	800.000	-0.045	0.172
-484.420	-137.142	-0.156	0.018
-483.405	53.617	0.105	-0.102
-482.391	-77.564	-0.448	-0.157
-481.376	800.000	0.074	-0.269
-480.362	-119.270	-0.201	-0.035
-479.347	800.000	0.100	0.332
-478.332	3.108	-0.226	0.166
-477.318	-69.445	0.205	-0.080
-476.303	800.000	-0.112	-0.359
-475.289	98.066	-0.194	0.226
-474.274	-200.000	0.034	0.000
-473.259	-81.034	0.152	0.051
-472.245	178.905	0.056	-0.083
-471.230	-176.588	-0.358	-0.009
-470.216	-4.697	-0.277	0.193
-469.201	-200.000	0.113	0.000
-468.186	-19.614	-0.075	-0.047
-467.172	271.818	-0.103	-0.184
-466.157	-34.868	0.490	-0.271
-465.143	-200.000	-0.016	-0.188
-464.128	141.369	0.182	0.244
-463.113	800.000	0.097	-0.295
-462.099	-200.000	0.028	-0.320
-461.084	-200.000	0.081	0.422
-460.070	-36.575	0.185	-0.101
-459.055	65.928	0.181	0.186
-458.040	33.589	-0.126	0.111
-457.026	-92.818	0.308	0.087
-456.011	-200.000	0.024	0.168
-454.997	164.808	-0.253	-0.361
-453.982	800.000	0.080	-0.287
-452.968	-200.000	-0.008	0.073
-451.953	-117.271	0.219	0.040
-450.938	-76.978	-0.036	0.013
-449.924	800.000	-0.065	-0.191
-448.909	-200.000	0.001	0.076
-447.895	800.000	-0.054	-0.202
-446.880	-141.051	0.275	-0.028
-445.865	12.192	-0.050	-0.039
-444.851	277.285	0.120	0.216
-443.836	-66.589	-0.176	0.071
-442.822	-128.081	0.319	0.046
-441.807	446.886	-0.103	0.229
-440.792	-10.614	0.132	-0.088
-439.778	-200.000	0.001	0.121
-438.763	-118.307	-0.104	0.019
-437.749	756.155	-0.058	0.159
-436.734	-200.000	0.141	-0.001
-435.719	-34.058	0.071	-0.040
-434.705	262.676	0.165	-0.290
-433.690	-3.088	-0.222	0.157
-432.676	-110.592	-0.115	-0.024
-431.661	-200.000	0.022	0.188
-430.646	800.000	-0.076	-0.223
-429.632	437.409	-0.147	-0.325
-428.617	-95.669	0.357	-0.097
-427.603	-200.000	0.008	0.156
-426.588	9.843	-0.431	-0.330
-425.573	63.733	-0.147	-0.149
-424.559	-54.036	0.242	0.111
-423.544	179.061	-0.113	-0.167
-422.530	-200.000	-0.009	-0.050
-421.515	-34.932	-0.352	-0.194
-420.500	64.580	-0.184	-0.188
-419.486	114.618	0.130	0.161
-418.471	-200.000	-0.006	-0.176
-417.457	-20.694	0.082	-0.051
-416.442	-52.233	0.278	0.130
-415.428	800.000	0.135	-0.416
-414.413	-30.933	-0.160	-0.091
-413.398	52.367	0.208	-0.201
-412.384	106.293	-0.104	0.125
-411.369	-44.087	0.183	0.093
-410.355	-130.705	-0.472	0.064
-409.340	-25.285	-0.158	-0.094
-408.325	292.547	0.015	-0.028
-407.311	-200.000	0.088	-0.438
-406.296	13.042	0.111	-0.087
-405.282	213.850	0.182	0.290
-404.267	-33.953	0.419	0.233
-403.252	502.444	0.135	0.316
-402.238	-87.138	-0.467	0.143
-401.223	-200.000	-0.008	-0.085
-400.209	401.886	-0.111	-0.236
-399.194	-156.038	-0.385	-0.025
-398.179	-200.000	0.038	-0.344
-397.165	154.222	0.127	-0.176
-396.150	-122.534	-0.021	0.003
-395.136	360.144	0.108	0.219
-394.121	-124.405	0.331	-0.052
-393.106	800.000	0.023	0.096
-392.092	-38.167	-0.352	-0.188
-391.077	800.000	0.009	-0.033
-390.063	409.544	0.100	-0.214
-389.048	138.554	-0.120	-0.159
-388.033	205.269	-0.016	-0.025
-387.019	-89.164	-0.275	0.082
-386.004	800.000	-0.053	-0.182
-384.990	-176.571	0.072	0.002
-383.975	-200.000	0.048	-0.212
-382.960	502.431	0.132	0.308
-381.946	352.081	-0.083	0.165
-380.931	-110.801	0.369	0.077
-379.917	-200.000	0.050	-0.531
-378.902	-123.054	-0.286	-0.046
-377.888	47.575	0.112	-0.106
-376.873	-72.086	0.187	0.070
-375.858	22.511	-0.570	-0.471
-374.844	105.971	0.108	0.129
-373.829	-200.000	-0.007	0.278
-372.815	800.000	-0.053	-0.168
-371.800	115.894	-0.175	-0.216
-370.785	-200.000	-0.032	0.387
-369.771	219.946	0.083	-0.134
-368.756	-79.428	0.220	-0.075
-367.742	-58.450	-0.180	-0.079
-366.727	52.751	-0.348	0.336
-365.712	-124.520	-0.258	0.040
-364.698	243.537	0.065	-0.110
-363.683	391.033	-0.107	-0.224
-362.669	800.000	0.029	0.124
-361.654	81.786	-0.269	-0.293
-360.639	71.952	-0.119	0.125
-359.625	181.151	0.107	0.159
-358.610	-94.990	-0.106	0.029
-357.596	800.000	-0.099	0.301
-356.581	0.711	-0.159	0.115
-355.566	-132.752	0.206	0.026
-354.552	-200.000	0.020	-0.113
-353.537	800.000	-0.032	0.101
-352.523	95.568	-0.105	0.121
-351.508	-157.565	0.585	-0.035
-350.493	103.379	0.108	-0.128
-349.479	-112.646	-0.628	-0.126
-348.464	-200.000	0.013	-0.130
-347.450	-192.733	0.296	0.003
-346.435	-38.174	0.242	-0.129
-345.420	115.459	0.045	0.055
-344.406	-81.405	0.160	0.053
-343.391	-104.058	0.306	0.072
-342.377	-200.000	-0.062	-0.391
-341.362	61.020	-0.069	0.069
-340.348	800.000	-0.032	-0.092
-339.333	110.894	0.226	0.274
-338.318	-70.964	0.204	-0.077
-337.304	800.000	-0.101	-0.444
-336.289	119.995	-0.035	0.044
-335.275	199.554	-0.047	0.073
-334.260	102.769	0.036	-0.042
-333.245	112.689	-0.122	-0.149
-332.231	800.000	0.029	0.102
-331.216	36.569	-0.095	0.084
-330.202	187.499	-0.038	0.058
-329.187	-200.000	0.041	-0.297
-328.172	-3.456	0.033	-0.023
-327.158	65.812	0.240	0.245
-326.143	28.953	-0.091	-0.078
-325.129	-45.557	-0.343	-0.171
-324.114	282.159	0.044	0.080
-323.099	-120.142	0.051	-0.009
-322.085	-75.418	-0.173	0.062
-321.070	-200.000	0.050	0.231
-320.056	50.343	-0.173	0.165
-319.041	-59.692	0.218	0.094
-318.026	-104.129	0.309	0.072
-317.012	-200.000	-0.006	0.224
-315.997	800.000	-0.091	0.318
-314.983	-200.000	0.023	0.146
-313.968	161.295	-0.148	0.208
-312.953	-176.688	-0.304	-0.008
-311.939	800.000	-0.074	-0.245
-310.924	-59.872	0.279	0.120
-309.910	800.000	-0.147	0.468
-308.895	-23.006	0.389	0.236
-307.880	754.708	0.159	0.432
-306.866	-46.341	-0.121	-0.060
-305.851	150.322	0.105	-0.143
-304.837	-200.000	-0.046	0.613
-303.822	354.468	-0.084	0.169
-302.807	800.000	0.053	0.222
-301.793	-82.876	-0.052	0.017
-300.778	-200.000	0.006	0.058
-299.764	800.000	0.033	-0.106
-298.749	183.338	-0.127	-0.188
-297.735	-178.216	-0.355	-0.008
-296.720	154.602	0.107	0.148
-295.705	-114.980	-0.213	0.041
-294.691	120.711	-0.137	-0.172
-293.676	251.948	-0.188	0.321
-292.662	-85.685	-0.357	-0.111
-291.647	-125.979	-0.124	-0.019
-290.632	243.428	-0.046	-0.077
-289.618	-200.000	0.009	0.309
-288.603	-162.872	-0.217	-0.011
-287.589	657.211	0.106	0.273
-286.574	14.980	-0.330	-0.259
-285.559	-64.161	0.014	-0.006
-284.545	9.098	-0.587	0.446
-283.530	171.201	0.052	-0.075
-282.516	225.668	-0.081	0.131
-281.501	-20.374	0.091	0.057
-280.486	254.673	-0.092	-0.158
-279.472	126.729	0.174	0.221
-278.457	705.804	-0.071	-0.189
-277.443	-124.654	0.178	0.028
-276.428	-200.000	-0.022	0.294
-275.413	-5.623	0.248	-0.171
-274.399	-139.375	0.214	-0.023
-273.384	-200.000	-0.051	-0.306
-272.370	289.817	-0.078	0.142
-271.355	578.161	0.047	-0.115
-270.340	704.389	-0.099	0.262
-269.326	800.000	-0.063	-0.191
-268.311	-155.416	0.072	0.005
-267.297	-145.889	0.274	-0.024
-266.282	-53.533	-0.201	0.092
-265.267	800.000	0.056	-0.196
-264.253	48.826	0.329	0.310
-263.238	-50.049	0.158	-0.075
-262.224	-83.035	-0.049	-0.016
-261.209	800.000	0.054	-0.201
-260.195	-17.345	-0.072	-0.046
-259.180	800.000	0.088	0.298
-258.165	-162.314	0.127	-0.006
-257.151	220.186	-0.158	-0.254
-256.136	65.115	-0.163	0.166
-255.122	201.880	-0.139	0.216
-254.107	-10.402	-0.036	0.024
-253.092	800.000	-0.151	0.448
-252.078	-200.000	0.006	0.139
-251.063	-192.414	0.292	0.003
-250.049	-53.637	-0.027	-0.013
-249.034	-172.685	-0.210	-0.007
-248.019	156.494	0.044	0.061
-247.005	-129.791	-0.153	-0.021
-245.990	442.831	0.117	0.257
-244.976	-20.126	0.154	0.095
-243.961	-200.000	0.015	0.332
-242.946	45.037	0.112	0.103
-241.932	563.762	0.041	0.099
-240.917	170.796	0.136	0.195
-239.903	73.643	0.110	0.116
-238.888	31.315	0.200	-0.173
-237.873	-63.355	0.016	0.007
-236.859	116.322	0.068	-0.084
-235.844	800.000	-0.029	0.096
-234.830	12.738	0.130	-0.101
-233.815	154.472	0.216	-0.297
-232.800	77.142	0.011	0.012
-231.786	-122.417	-0.280	0.046
-230.771	511.142	-0.020	-0.047
-229.757	493.981	-0.044	-0.102
-228.742	-108.811	-0.055	-0.012
-227.727	-102.008	-0.174	0.042
-226.713	45.009	-0.222	-0.205
-225.698	-200.000	-0.042	-0.222
-224.684	-47.467	-0.186	-0.091
-223.669	-129.455	-0.292	-0.041
-222.655	562.049	0.139	-0.336
-221.640	-200.000	0.022	0.142
-220.625	3.760	0.181	0.133
-219.611	-200.000	-0.006	-0.367
-218.596	108.196	-0.094	0.113
-217.582	30.537	-0.333	-0.285
-216.567	800.000	-0.080	0.281
-215.552	-200.000	-0.025	-0.132
-214.538	2.386	0.117	0.085
-213.523	-200.000	-0.035	0.166
-212.509	-20.699	-0.116	-0.071
-211.494	800.000	0.102	-0.285
-210.479	94.304	-0.106	-0.120
-209.465	275.549	-0.166	-0.295
-208.450	69.292	0.102	0.105
-207.436	-170.349	0.204	0.007
-206.421	800.000	-0.063	-0.179
-205.406	-97.229	0.113	0.030
-204.392	-197.597	0.397	0.002
-203.377	-7.030	-0.106	-0.072
-202.363	179.903	-0.076	-0.112
-201.348	318.395	-0.083	-0.157
-200.333	-2.506	0.342	0.240
-199.319	416.537	-0.140	0.299
-198.304	-200.000	0.048	-0.218
-197.290	-200.000	0.016	0.085
-196.275	-200.000	-0.033	0.268
-195.260	257.643	-0.150	-0.258
-194.246	119.805	-0.228	-0.283
-193.231	10.110	-0.194	-0.148
-192.217	-53.707	0.096	0.044
-191.202	-33.352	0.395	0.219
-190.187	-9.168	0.347	-0.232
-189.173	-151.292	0.225	0.017
-188.158	106.861	-0.131	0.156
-187.144	64.066	0.144	0.145
-186.129	800.000	0.043	-0.152
-185.114	16.611	-0.176	0.139
-184.100	-161.072	0.492	0.026
-183.085	524.351	-0.095	-0.225
-182.071	-73.575	0.093	-0.034
-181.056	-200.000	-0.008	-0.145
-180.042	-1.969	0.154	-0.108
-179.027	-197.418	-0.086	-0.001
-178.012	369.638	0.021	0.042
-176.998	31.540	-0.253	-0.218
-175.983	-103.553	-0.233	0.055
-174.969	529.837	-0.053	-0.125
-173.954	135.518	0.186	-0.242
-172.939	324.090	0.064	0.122
-171.925	-141.025	0.240	-0.025
-170.910	800.000	-0.016	-0.059
-169.896	-17.019	-0.227	-0.143
-168.881	-150.552	0.011	-0.001
-167.866	-200.000	-0.027	0.189
-166.852	-200.000	-0.002	-0.258
-165.837	-13.749	-0.288	0.187
-164.823	-200.000	0.030	0.369
-163.808	-78.711	-0.690	-0.236
-162.793	-33.854	-0.282	-0.155
-161.779	-200.000	0.131	-0.000
-160.764	-153.803	0.342	-0.023
-159.750	639.710	-0.160	0.408
-158.735	80.937	0.146	0.158
-157.720	-76.218	-0.325	0.115
-156.706	53.501	0.099	0.095
-155.691	-148.234	-0.172	0.014
-154.677	-88.149	0.269	-0.081
-153.662	519.891	0.024	-0.055
-152.647	180.134	-0.042	-0.062
-151.633	47.273	0.026	-0.024
-150.618	-20.480	-0.169	0.104
-149.604	-108.059	0.553	0.120
-148.589	137.818	-0.172	0.226
-147.574	9.386	0.104	0.079
-146.560	-97.877	0.250	0.065
-145.545	-56.573	0.215	0.095
-144.531	203.094	-0.074	-0.114
-143.516	-187.578	0.308	-0.004
-142.502	-151.384	-0.323	-0.024
-141.487	121.380	-0.196	-0.245
-140.472	-1.565	0.043	-0.030
-139.458	800.000	-0.123	0.445
-138.443	83.912	-0.064	-0.070
-137.429	-75.675	0.169	0.060
-136.414	86.892	-0.095	-0.105
-135.399	-200.000	-0.062	0.364
-134.385	-56.050	-0.256	0.114
-133.370	-125.138	-0.224	0.034
-132.356	-92.836	0.444	-0.124
-131.341	-156.525	0.389	-0.024
-130.326	-26.534	0.268	-0.157
-129.312	36.012	0.045	-0.040
-128.297	135.174	0.179	-0.233
-127.283	-144.168	0.311	-0.029
-126.268	715.189	0.027	0.072
-125.253	-4.529	-0.243	-0.168
-124.239	79.168	0.333	0.356
-123.224	-14.654	0.323	0.207
-122.210	-200.000	-0.027	-0.197
-121.195	-59.518	-0.162	-0.070
-120.180	-34.443	0.217	0.119
-119.166	-53.886	-0.079	0.036
-118.151	-200.000	0.006	-0.206
-117.137	191.202	-0.061	0.092
-116.122	-71.306	0.122	-0.046
-115.107	307.097	-0.093	0.173
-114.093	26.357	-0.239	-0.200
-113.078	-170.383	0.219	-0.008
-112.064	-18.537	0.086	0.054
-111.049	-65.855	-0.066	-0.026
-110.034	800.000	0.042	0.176
-109.020	-200.000	-0.038	0.181
-108.005	-200.000	-0.007	0.034
-106.991	800.000	-0.033	-0.129
-105.976	-57.809	-0.355	0.155
-104.962	800.000	0.043	0.180
-103.947	-189.628	-0.134	0.002
-102.932	-50.054	0.171	-0.081
-101.918	-144.954	0.151	-0.014
-100.903	65.281	-0.328	0.331
-99.889	60.514	0.138	0.137
-98.874	159.221	0.164	-0.227
-97.859	54.566	-0.078	0.075
-96.845	-200.000	0.001	-0.184
-95.830	-162.005	0.048	0.002
-94.816	4.386	-0.168	-0.123
-93.801	-174.564	-0.117	0.003
-92.786	212.933	0.159	-0.250
-91.772	-0.782	0.198	0.140
-90.757	-111.388	0.249	-0.051
-89.743	-200.000	-0.028	0.284
-88.728	405.118	-0.042	0.089
-87.713	-51.324	0.154	-0.072
-86.699	109.593	-0.061	0.073
-85.684	-116.406	0.338	0.062
-84.670	120.879	-0.079	-0.098
-83.655	-61.133	0.059	-0.025
-82.640	269.310	-0.126	0.220
-81.626	-167.420	-0.255	-0.010
-80.611	-90.447	-0.358	0.103
-79.597	800.000	-0.112	-0.318
-78.582	-90.894	0.144	0.041
-77.567	44.512	-0.089	0.081
-76.553	392.434	-0.142	0.295
-75.538	-92.261	-0.220	-0.062
-74.524	144.368	0.169	0.225
-73.509	697.138	0.046	-0.119
-72.494	-200.000	-0.007	0.135
-71.480	-41.469	-0.267	0.137
-70.465	194.692	0.149	0.225
-69.451	-56.305	-0.158	0.070
-68.436	-200.000	-0.250	0.000
-67.422	-200.000	-0.002	0.148
-66.407	800.000	-0.082	0.263
-65.392	56.501	0.421	-0.408
-64.378	45.473	0.252	0.232
-63.363	164.899	-0.125	-0.176
-62.349	-59.450	-0.156	-0.067
-61.334	98.196	-0.726	-0.833
-60.319	-63.927	0.581	0.237
-59.305	800.000	-0.206	-0.733
-58.290	300.470	0.493	0.907
-57.276	510.807	0.653	1.513
-56.261	-200.000	85.366	508.656
-55.246	443.617	1406.679	3072.075
-54.232	140.316	2634.940	3462.873
-53.217	101.081	2407.288	2789.533
-52.203	43.755	2143.515	1954.089
-51.188	39.230	2052.461	1829.047
-50.173	37.775	2032.371	1797.657
-49.159	50.077	2077.468	1952.537
-48.144	53.275	2097.664	2001.315
-47.130	40.213	2057.782	1842.654
-46.115	37.665	2046.329	1808.693
-45.100	37.594	2043.564	1805.521
-44.086	37.643	2040.660	1803.337
-43.071	37.473	2038.204	1799.520
-42.057	37.415	2036.518	1797.420
-41.042	37.526	2034.284	1796.402
-40.027	37.487	2032.736	1794.607
-39.013	37.554	2030.170	1792.890
-37.998	37.568	2028.407	1791.391
-36.984	37.573	2026.543	1789.721
-35.969	37.547	2024.670	1787.751
-34.954	37.619	2022.711	1786.609
-33.940	37.637	2021.034	1785.224
-32.925	37.736	2018.918	1784.190
-31.911	37.746	2017.711	1783.149
-30.896	37.675	2016.386	1781.259
-29.881	37.688	2014.883	1779.977
-28.867	37.701	2013.219	1778.552
-27.852	37.687	2010.903	1776.311
-26.838	37.735	2008.886	1774.895
-25.823	37.643	2007.324	1772.610
-24.809	37.656	2005.076	1770.674
-23.794	37.623	2004.241	1769.564
-22.779	37.588	2002.386	1767.536
-21.765	37.586	2000.435	1765.729
-20.750	37.602	1998.748	1764.314
-19.736	37.536	1997.370	1762.424
-18.721	37.638	1995.267	1761.428
-17.706	37.605	1993.830	1759.788
-16.692	37.562	1991.922	1757.646
-15.677	37.612	1990.349	1756.640
-14.663	37.652	1988.806	1755.571
-13.648	37.661	1987.629	1754.542
-12.633	37.723	1986.466	1754.005
-11.619	37.573	1985.410	1751.651
-10.604	37.586	1983.880	1750.346
-9.590	37.641	1982.419	1749.481
-8.575	37.648	1980.616	1747.885
-7.560	37.651	1979.729	1747.063
-6.546	37.599	1978.373	1745.328
-5.531	37.653	1977.145	1744.658
-4.517	37.641	1975.624	1743.140
-3.502	37.631	1974.489	1741.984
-2.487	37.618	1973.026	1740.501
-1.473	37.669	1972.268	1740.224
-0.458	37.755	1968.033	1737.188
0.556	36.325	1948.984	1713.175
1.571	32.426	1928.661	1660.831
2.586	27.483	1950.096	1634.895
3.600	25.563	1985.757	1647.086
4.615	24.651	1980.999	1634.657
5.629	19.034	1875.333	1498.545
6.644	7.776	1745.202	1302.689
7.659	1.078	1700.629	1215.709
8.673	0.529	1696.561	1208.298
9.688	0.422	1695.335	1206.463
10.702	0.370	1693.723	1204.793
11.717	0.209	1690.759	1201.294
12.731	0.828	1690.749	1206.114
13.746	8.138	1707.626	1276.746
14.761	16.714	1724.268	1358.142
15.775	18.355	1724.910	1371.688
16.790	17.096	1721.621	1358.876
17.804	16.072	1718.258	1347.922
18.819	15.084	1714.872	1337.259
19.834	14.472	1712.629	1330.508
20.848	14.134	1710.863	1326.326
21.863	13.842	1709.260	1322.633
22.877	13.612	1707.366	1319.224
23.892	13.365	1706.114	1316.177
24.907	13.242	1705.131	1314.324
25.921	13.277	1703.562	1313.275
26.936	13.263	1702.879	1312.518
27.950	13.245	1702.127	1311.677
28.965	13.427	1701.066	1312.189
29.980	13.386	1700.890	1311.611
30.994	13.483	1699.419	1311.129
32.009	13.561	1698.358	1310.811
33.023	13.510	1697.961	1309.986
34.038	13.516	1696.857	1309.071
35.053	13.570	1695.741	1308.517
36.067	13.485	1694.669	1306.905
37.082	13.492	1693.417	1305.880
38.096	13.525	1692.249	1305.120
39.111	13.444	1692.352	1304.445
40.126	13.499	1690.872	1303.628
41.140	13.517	1690.089	1303.046
42.155	13.356	1689.041	1300.859
43.169	13.346	1686.926	1299.032
44.184	13.332	1686.067	1298.149
45.199	13.322	1684.939	1297.089
46.213	13.258	1683.894	1295.666
47.228	13.287	1682.392	1294.621
48.242	13.296	1681.893	1294.193
49.257	13.383	1680.521	1293.702
50.271	13.477	1679.069	1293.211
51.286	13.390	1677.500	1291.209
52.301	13.442	1676.159	1290.464
53.315	13.444	1674.508	1289.094
54.330	13.434	1673.368	1288.023
55.344	13.355	1671.792	1286.085
56.359	13.476	1669.711	1285.308
57.374	13.357	1668.949	1283.686
58.388	13.284	1668.072	1282.330
59.403	13.321	1666.818	1281.537
60.417	13.252	1665.028	1279.518
61.432	13.236	1664.577	1278.934
62.447	13.299	1662.650	1277.825
63.461	13.240	1661.474	1276.351
64.476	13.231	1660.533	1275.449
65.490	13.254	1659.305	1274.569
66.505	13.176	1658.053	1272.895
67.520	13.215	1656.964	1272.243
68.534	13.174	1655.989	1271.066
69.549	13.229	1654.550	1270.277
70.563	13.284	1653.150	1269.511
71.578	13.231	1652.384	1268.399
72.593	13.265	1650.644	1267.213
73.607	13.180	1649.683	1265.715
74.622	13.168	1649.075	1265.040
75.636	13.169	1647.949	1264.072
76.651	13.194	1646.792	1263.268
77.666	13.161	1646.166	1262.420
78.680	13.125	1644.986	1261.129
79.695	13.252	1643.776	1261.064
80.709	13.158	1642.829	1259.505
81.724	13.257	1641.695	1259.279
82.739	13.331	1640.526	1258.833
83.753	13.298	1639.758	1257.885
84.768	13.382	1638.479	1257.431
85.782	13.364	1638.550	1257.238
86.797	13.428	1637.422	1256.742
87.812	13.369	1636.524	1255.498
88.826	13.351	1634.858	1253.972
89.841	13.279	1634.112	1252.740
90.855	13.380	1632.671	1252.290
91.870	13.359	1631.691	1251.267
92.884	13.471	1630.812	1251.333
93.899	13.407	1629.411	1249.665
94.914	13.416	1628.335	1248.793
95.928	13.488	1627.186	1248.349
96.943	13.557	1625.592	1247.529
97.957	13.465	1624.182	1245.646
98.972	13.430	1622.913	1244.299
99.987	13.474	1621.188	1243.201
101.001	13.487	1619.771	1242.099
102.016	13.440	1618.209	1240.442
103.030	13.426	1616.746	1239.104
104.045	13.372	1615.665	1237.761
105.060	13.386	1613.949	1236.441
106.074	13.438	1612.857	1235.885
107.089	13.358	1610.786	1233.590
108.103	13.278	1609.509	1231.908
109.118	13.282	1608.066	1230.727
110.133	13.254	1606.546	1229.244
111.147	13.236	1605.130	1227.917
112.162	13.232	1604.347	1227.183
113.176	13.177	1603.207	1225.793
114.191	13.366	1600.788	1225.233
115.206	13.351	1599.417	1223.963
116.220	13.416	1598.317	1223.499
117.235	13.400	1596.975	1222.240
118.249	13.316	1595.730	1220.562
119.264	13.334	1594.425	1219.588
120.279	13.222	1593.468	1217.925
121.293	13.350	1591.823	1217.500
122.308	13.273	1590.253	1215.629
123.322	13.338	1588.869	1214.934
124.337	13.324	1587.576	1213.742
125.352	13.322	1585.984	1212.398
126.366	13.312	1584.800	1211.314
127.381	13.250	1583.906	1210.068
128.395	13.349	1582.535	1209.642
129.410	13.347	1581.119	1208.436
130.424	13.275	1579.723	1206.733
131.439	13.206	1579.127	1205.671
132.454	13.318	1577.251	1204.951
133.468	13.329	1576.046	1204.001
134.483	13.396	1574.194	1202.966
135.497	13.471	1573.090	1202.564
136.512	13.506	1571.587	1201.557
137.527	13.351	1570.605	1199.581
138.541	13.362	1569.279	1198.542
139.556	13.429	1567.506	1197.565
140.570	13.393	1566.394	1196.352
141.585	13.466	1564.940	1195.658
142.600	13.534	1563.524	1194.965
143.614	13.507	1562.611	1193.962
144.629	13.571	1561.011	1193.098
145.643	13.558	1559.787	1191.959
146.658	13.600	1558.165	1190.918
147.673	13.580	1556.852	1189.669
148.687	13.456	1555.527	1187.659
149.702	13.521	1553.727	1186.648
150.716	13.529	1551.815	1185.137
151.731	13.550	1550.349	1184.064
152.746	13.451	1549.412	1182.537
153.760	13.552	1547.132	1181.412
154.775	13.503	1546.225	1180.268
155.789	13.565	1545.142	1179.778
156.804	13.634	1543.356	1178.800
157.819	13.663	1542.024	1177.881
158.833	13.573	1541.052	1176.398
159.848	13.655	1540.180	1176.210
160.862	13.657	1538.986	1175.211
161.877	13.728	1538.272	1175.059
162.892	13.685	1536.512	1173.307
163.906	13.613	1535.331	1171.796
164.921	13.576	1533.729	1170.203
165.935	13.611	1532.559	1169.455
166.950	13.602	1531.978	1168.843
167.964	13.636	1530.404	1167.783
168.979	13.672	1529.582	1167.306
169.994	13.667	1528.377	1166.244
171.008	13.676	1527.532	1165.560
172.023	13.713	1526.354	1164.820
173.037	13.716	1524.880	1163.614
174.052	13.826	1523.750	1163.420
175.067	13.779	1522.874	1162.318
176.081	13.695	1521.983	1160.946
177.096	13.772	1519.850	1159.753
178.110	13.767	1518.707	1158.747
179.125	13.775	1517.821	1158.025
180.140	13.782	1516.530	1156.986
181.154	13.747	1515.537	1155.884
182.169	13.783	1513.943	1154.814
183.183	13.788	1513.041	1154.060
184.198	13.819	1512.144	1153.489
185.213	13.903	1510.938	1153.049
186.227	13.897	1509.762	1152.010
187.242	13.917	1508.898	1151.384
188.256	13.923	1507.990	1150.632
189.271	13.983	1506.568	1149.863
190.286	13.921	1505.507	1148.523
191.300	13.959	1504.220	1147.701
192.315	13.870	1502.941	1146.005
193.329	13.715	1502.525	1144.522
194.344	13.785	1501.029	1143.761
195.359	13.736	1500.086	1142.601
196.373	13.838	1498.805	1142.227
197.388	13.865	1497.879	1141.607
198.402	13.988	1496.769	1141.503
199.417	13.991	1495.602	1140.533
200.432	14.137	1494.534	1140.623
201.446	14.153	1493.337	1139.716
202.461	14.170	1492.385	1139.006
203.475	14.200	1491.284	1138.270
204.490	14.188	1489.968	1137.084
205.504	14.232	1488.723	1136.332
206.519	14.145	1488.082	1135.147
207.534	14.134	1487.181	1134.285
208.548	14.156	1485.617	1133.141
209.563	14.108	1484.743	1132.050
210.577	14.111	1483.936	1131.354
211.592	14.119	1483.175	1130.730
212.607	14.176	1481.879	1130.024
213.621	14.266	1481.388	1130.160
214.636	14.321	1480.221	1129.548
215.650	14.234	1479.689	1128.448
216.665	14.242	1478.752	1127.688
217.680	14.296	1477.796	1127.224
218.694	14.292	1476.854	1126.379
219.709	14.353	1475.972	1126.021
220.723	14.440	1475.004	1125.773
221.738	14.429	1474.125	1124.929
222.753	14.344	1473.064	1123.447
223.767	14.319	1472.530	1122.769
224.782	14.357	1471.519	1122.152
225.796	14.461	1470.135	1121.702
226.811	14.392	1469.747	1120.838
227.826	14.445	1468.544	1120.179
228.840	14.481	1467.458	1119.495
229.855	14.539	1466.910	1119.366
230.869	14.358	1465.913	1117.291
231.884	14.582	1464.391	1117.533
232.899	14.517	1463.442	1116.274
233.913	14.373	1462.557	1114.541
234.928	14.399	1461.015	1113.437
235.942	14.446	1460.065	1112.928
236.957	14.415	1459.038	1111.839
237.972	14.418	1458.011	1110.983
238.986	14.511	1456.851	1110.618
240.001	14.488	1455.635	1109.438
241.015	14.543	1454.387	1108.760
242.030	14.491	1453.362	1107.532
243.045	14.590	1452.197	1107.204
244.059	14.604	1451.465	1106.641
245.074	14.605	1450.471	1105.790
246.088	14.639	1450.134	1105.663
247.103	14.666	1449.210	1105.035
248.117	14.721	1448.323	1104.627
249.132	14.747	1447.287	1103.914
250.147	14.744	1446.859	1103.465
251.161	14.913	1446.156	1103.947
252.176	14.793	1445.861	1102.837
253.190	14.892	1444.752	1102.543
254.205	14.844	1444.237	1101.736
255.220	14.957	1442.935	1101.387
256.234	14.986	1442.447	1101.109
257.249	14.981	1441.394	1100.173
258.263	14.994	1440.716	1099.646
259.278	15.049	1439.371	1098.881
260.293	15.068	1438.753	1098.438
261.307	15.043	1437.568	1097.275
262.322	15.141	1437.065	1097.432
263.336	15.133	1435.989	1096.461
264.351	15.150	1435.063	1095.772
265.366	15.178	1434.290	1095.270
266.380	15.135	1433.846	1094.549
267.395	15.180	1432.622	1093.814
268.409	15.144	1431.704	1092.782
269.424	15.155	1430.688	1091.983
270.439	15.177	1429.610	1091.203
271.453	15.234	1427.871	1090.150
272.468	15.169	1427.608	1089.431
273.482	15.252	1426.584	1089.090
274.497	15.205	1425.680	1088.000
275.512	15.222	1424.943	1087.452
276.526	15.215	1424.724	1087.142
277.541	15.190	1423.147	1085.683
278.555	15.277	1422.047	1085.309
279.570	15.240	1421.263	1084.375
280.585	15.313	1420.032	1083.812
281.599	15.373	1419.520	1083.713
282.614	15.308	1418.818	1082.660
283.628	15.386	1417.124	1081.775
284.643	15.338	1416.291	1080.737
285.657	15.350	1415.286	1079.951
286.672	15.327	1414.586	1079.172
287.687	15.317	1413.900	1078.491
288.701	15.262	1412.946	1077.316
289.716	15.450	1411.632	1077.421
290.730	15.399	1411.235	1076.694
291.745	15.391	1410.240	1075.788
292.760	15.439	1408.734	1074.854
293.774	15.428	1407.546	1073.780
294.789	15.520	1406.365	1073.371
295.803	15.590	1405.780	1073.282
296.818	15.557	1405.345	1072.640
297.833	15.500	1404.275	1071.366
298.847	15.518	1402.981	1070.397
299.862	15.552	1402.131	1069.876
300.876	15.566	1401.264	1069.207
301.891	15.588	1399.891	1068.204
302.906	15.601	1399.373	1067.797
303.920	15.613	1399.118	1067.587
304.935	15.649	1398.022	1066.882
305.949	15.743	1396.935	1066.553
306.964	15.775	1396.247	1066.136
307.979	15.765	1395.553	1065.448
308.993	15.815	1394.605	1064.950
310.008	15.793	1393.382	1063.777
311.022	15.744	1392.445	1062.659
312.037	15.854	1391.450	1062.505
313.052	15.821	1390.590	1061.543
314.066	15.921	1389.469	1061.227
315.081	15.779	1388.500	1059.496
316.095	15.771	1387.429	1058.533
317.110	15.770	1386.279	1057.560
318.125	15.804	1385.026	1056.724
319.139	15.785	1384.322	1055.971
320.154	15.800	1383.800	1055.574
321.168	15.799	1382.299	1054.327
322.183	15.744	1381.473	1053.263
323.197	15.813	1380.481	1052.846
324.212	15.885	1379.705	1052.612
325.227	15.937	1378.918	1052.241
326.241	15.905	1378.097	1051.319
327.256	15.942	1376.986	1050.614
328.270	15.932	1376.227	1049.875
329.285	15.886	1375.248	1048.748
330.300	15.827	1374.948	1048.061
331.314	15.785	1373.863	1046.881
332.329	15.935	1372.588	1046.748
333.343	15.910	1371.798	1045.895
334.358	15.871	1370.953	1044.920
335.373	15.996	1370.157	1044.993
336.387	15.955	1369.396	1044.071
337.402	16.029	1368.611	1043.834
338.416	16.095	1367.794	1043.528
339.431	16.106	1367.003	1042.899
340.446	16.085	1366.409	1042.228
341.460	16.072	1365.641	1041.465
342.475	16.154	1364.305	1040.863
343.489	16.252	1363.566	1040.814
344.504	16.259	1362.748	1040.136
345.519	16.366	1361.650	1039.865
346.533	16.344	1360.213	1038.542
347.548	16.286	1359.610	1037.631
348.562	16.327	1359.028	1037.350
349.577	16.376	1358.101	1036.849
350.592	16.332	1357.601	1036.109
351.606	16.322	1356.809	1035.350
352.621	16.257	1355.523	1033.878
353.635	16.336	1354.358	1033.385
354.650	16.270	1353.396	1032.151
355.665	16.268	1352.595	1031.441
356.679	16.410	1351.511	1031.390
357.694	16.345	1350.085	1029.812
358.708	16.383	1348.960	1029.092
359.723	16.393	1348.157	1028.451
360.738	16.362	1347.709	1027.828
361.752	16.393	1346.404	1026.933
362.767	16.370	1345.218	1025.796
363.781	16.402	1344.339	1025.228
364.796	16.394	1343.814	1024.691
365.810	16.370	1343.121	1023.927
366.825	16.393	1342.231	1023.294
367.840	16.580	1341.440	1023.735
368.854	16.656	1340.522	1023.402
369.869	16.647	1340.080	1022.918
370.883	16.602	1339.644	1022.223
371.898	16.715	1338.376	1021.850
372.913	16.741	1337.448	1021.207
373.927	16.599	1336.512	1019.544
374.942	16.653	1335.635	1019.114
375.956	16.708	1335.598	1019.322
376.971	16.670	1334.587	1018.236
377.986	16.706	1333.788	1017.753
379.000	16.736	1332.862	1017.137
380.015	16.780	1332.190	1016.795
381.029	16.874	1331.128	1016.458
382.044	16.773	1330.497	1015.280
383.059	16.900	1329.505	1015.198
384.073	16.944	1328.783	1014.820
385.088	16.861	1328.463	1013.987
386.102	16.839	1327.833	1013.288
387.117	16.975	1326.806	1013.223
388.132	16.864	1326.380	1012.145
389.146	16.942	1325.046	1011.507
390.161	16.915	1324.282	1010.671
391.175	16.812	1323.478	1009.356
392.190	16.880	1322.821	1009.169
393.205	16.930	1322.158	1008.871
394.219	16.992	1320.706	1008.040
395.234	16.937	1319.716	1006.873
396.248	17.039	1318.231	1006.256
397.263	17.029	1316.906	1005.093
398.278	16.987	1315.616	1003.772
399.292	17.040	1313.880	1002.671
400.307	16.988	1313.621	1002.078
401.321	16.911	1313.045	1001.095
402.336	16.896	1311.661	999.860
403.350	16.978	1310.097	999.067
404.365	17.046	1309.648	999.037
405.380	17.041	1308.791	998.263
406.394	17.055	1307.807	997.504
407.409	17.082	1306.985	996.951
408.423	17.072	1306.740	996.616
409.438	17.108	1305.827	996.044
410.453	17.252	1304.906	996.098
411.467	17.244	1304.211	995.429
412.482	17.246	1304.079	995.254
413.496	17.284	1302.967	994.540
414.511	17.280	1302.118	993.782
415.526	17.489	1301.216	994.226
416.540	17.276	1301.005	992.733
417.555	17.375	1300.465	992.810
418.569	17.433	1299.318	992.186
419.584	17.369	1299.309	991.714
420.599	17.463	1298.291	991.401
421.613	85.696	1339.275	1414.854
422.628	84.589	1345.256	1414.976
