DTS Sentinel unit serial number:	SN413079Multiplexer serial number:	ORYXHardware model number:	OX4-SRSoftware version number:	ORYX F/W v4.00 Oryx Data Collector v3.7.2.0data status	okinstallation	princeton_trtdifferential loss correction	single-endedforward channel	channel 4reverse channel	N/Adate	2019/09/14time	19:41:35forward acquisition time	60.00reverse acquisition time	0.00gamma	496.2192k internal	0.2304k external	0.2304temperature offset calibration	1.0099default loss term (dB/km)	0.3790temperature slope calibration	1.0000multiplexer offset coefficient	1.0000multiplexer slope coefficient	1.0000fibre end	0.00T internal ref (°C)	34.50T ext. ref 1 (°C)	4.87T ext. ref 2 (°C)	28.76length (m)	temperature (°C)	Stokes	anti-Stokes-747.200	-200.000	-0.021	-0.154
-746.185	-128.385	-0.208	0.030
-745.171	800.000	-0.088	-0.286
-744.156	-54.279	-0.046	0.021
-743.142	40.144	-0.117	0.107
-742.127	800.000	-0.116	0.412
-741.112	-90.486	0.133	0.039
-740.098	381.122	-0.060	0.125
-739.083	-183.047	0.324	-0.006
-738.069	-73.790	-0.168	0.062
-737.054	-90.873	-0.090	-0.026
-736.039	-68.178	-0.242	0.096
-735.025	413.122	0.066	0.143
-734.010	-111.303	-0.312	-0.065
-732.996	34.420	-0.215	0.191
-731.981	-200.000	-0.016	-0.207
-730.966	-94.676	0.148	-0.041
-729.952	-200.000	-0.032	-0.247
-728.937	353.574	0.046	-0.092
-727.923	-1.591	-0.119	-0.085
-726.908	74.095	0.346	-0.370
-725.894	-200.000	-0.007	0.278
-724.879	-21.419	0.035	-0.021
-723.864	800.000	-0.119	-0.446
-722.850	258.104	-0.165	-0.289
-721.835	800.000	0.103	0.372
-720.821	186.543	0.031	-0.046
-719.806	113.518	-0.039	-0.048
-718.791	24.693	0.260	-0.219
-717.777	-165.912	0.343	-0.015
-716.762	165.375	-0.016	-0.022
-715.748	82.418	0.078	0.086
-714.733	742.585	-0.050	-0.137
-713.718	-200.000	0.065	-0.322
-712.704	800.000	0.068	-0.207
-711.689	-52.172	-0.179	-0.084
-710.675	719.928	-0.098	-0.266
-709.660	-37.912	-0.060	0.032
-708.645	-200.000	0.013	-0.115
-707.631	-200.000	-0.170	0.000
-706.616	85.368	-0.135	-0.151
-705.602	-200.000	0.013	-0.107
-704.587	169.673	0.052	-0.075
-703.572	254.626	0.049	-0.084
-702.558	16.590	-0.157	-0.126
-701.543	61.385	-0.160	-0.161
-700.529	604.476	-0.046	-0.117
-699.514	-53.425	0.040	-0.019
-698.499	222.736	-0.138	-0.225
-697.485	283.617	0.128	-0.233
-696.470	-180.628	0.252	-0.005
-695.456	17.600	-0.172	0.139
-694.441	580.253	-0.049	0.121
-693.426	-200.000	-0.029	-0.306
-692.412	23.273	0.494	-0.412
-691.397	149.702	-0.341	-0.470
-690.383	800.000	0.078	0.340
-689.368	-141.162	-0.320	-0.033
-688.354	196.733	0.156	0.242
-687.339	-59.008	-0.159	0.070
-686.324	-200.000	0.024	-0.135
-685.310	331.777	-0.140	-0.275
-684.295	64.179	-0.061	0.062
-683.281	-200.000	-0.045	-0.290
-682.266	-124.288	0.319	-0.051
-681.251	800.000	0.057	0.231
-680.237	560.826	-0.149	-0.367
-679.222	-45.587	-0.466	0.234
-678.208	71.963	-0.301	-0.318
-677.193	-27.513	-0.102	0.060
-676.178	97.682	-0.344	-0.402
-675.164	482.669	-0.108	-0.248
-674.149	142.295	-0.082	-0.111
-673.135	51.789	-0.210	0.203
-672.120	-165.161	0.401	-0.018
-671.105	800.000	0.037	-0.115
-670.091	-200.000	0.027	-0.147
-669.076	-75.094	-0.167	0.061
-668.062	462.658	-0.098	-0.223
-667.047	-157.659	0.219	0.013
-666.032	800.000	0.023	0.094
-665.018	185.672	-0.033	-0.050
-664.003	800.000	-0.062	-0.184
-662.989	-200.000	0.013	0.196
-661.974	211.973	0.132	-0.211
-660.959	-148.937	-0.191	0.016
-659.945	-200.000	-0.016	0.192
-658.930	466.219	-0.134	-0.304
-657.916	54.263	-0.108	0.106
-656.901	219.627	-0.143	-0.232
-655.886	54.491	-0.100	-0.098
-654.872	-88.665	-0.230	0.069
-653.857	31.183	0.261	-0.227
-652.843	-162.897	-0.109	0.005
-651.828	-104.552	0.417	-0.098
-650.814	-8.119	-0.133	-0.091
-649.799	-200.000	-0.008	-0.075
-648.784	800.000	-0.035	-0.144
-647.770	-36.775	0.017	0.009
-646.755	-66.758	-0.132	-0.053
-645.741	-5.014	-0.221	0.154
-644.726	-200.000	-0.011	-0.114
-643.711	-200.000	-0.021	-0.122
-642.697	-160.118	-0.166	-0.009
-641.682	256.099	0.031	0.054
-640.668	-200.000	-0.047	0.308
-639.653	-103.508	0.134	-0.032
-638.638	800.000	-0.041	0.142
-637.624	-0.936	-0.074	-0.053
-636.609	-72.008	0.091	0.034
-635.595	800.000	0.057	0.224
-634.580	-85.274	-0.087	-0.028
-633.565	569.549	-0.055	0.137
-632.551	116.063	-0.067	-0.083
-631.536	800.000	-0.006	-0.022
-630.522	-65.917	-0.066	0.027
-629.507	-200.000	-0.031	-0.168
-628.492	-126.312	0.225	0.034
-627.478	83.894	-0.135	0.150
-626.463	206.048	0.217	0.341
-625.449	466.762	0.056	-0.128
-624.434	14.823	0.112	0.089
-623.419	-90.652	-0.154	-0.045
-622.405	-28.282	0.203	0.119
-621.390	-200.000	-0.020	-0.230
-620.376	-71.705	-0.152	0.058
-619.361	-9.742	-0.238	-0.161
-618.346	-200.000	-0.012	-0.270
-617.332	-181.813	-0.104	0.002
-616.317	45.647	-0.122	-0.114
-615.303	645.837	0.048	-0.125
-614.288	-200.000	-0.004	0.185
-613.273	-168.432	0.216	-0.008
-612.259	-27.753	0.066	0.039
-611.244	-166.513	0.226	0.010
-610.230	-107.693	0.464	0.103
-609.215	53.649	-0.139	-0.135
-608.201	-80.947	-0.160	-0.054
-607.186	53.539	-0.088	0.086
-606.171	16.958	-0.136	-0.109
-605.157	-108.238	0.319	-0.070
-604.142	-80.877	-0.112	0.038
-603.128	-65.541	0.116	0.047
-602.113	-67.300	0.079	-0.032
-601.098	28.580	-0.104	-0.089
-600.084	397.108	-0.113	-0.239
-599.069	43.970	-0.405	0.376
-598.055	800.000	-0.044	-0.137
-597.040	514.718	0.088	-0.208
-596.025	-183.730	0.218	0.004
-595.011	143.771	0.065	-0.088
-593.996	-33.241	-0.168	-0.094
-592.982	800.000	0.031	0.093
-591.967	-55.568	0.273	-0.124
-590.952	125.326	-0.281	0.359
-589.938	-123.626	0.099	0.016
-588.923	-167.746	-0.080	-0.003
-587.909	-200.000	-0.024	-0.361
-586.894	-143.701	-0.377	-0.036
-585.879	250.541	0.106	-0.183
-584.865	120.986	-0.284	-0.358
-583.850	-74.568	0.158	0.058
-582.836	-92.815	-0.228	-0.064
-581.821	423.912	-0.108	-0.236
-580.806	-15.270	-0.257	0.167
-579.792	-125.458	-0.174	0.027
-578.777	-200.000	0.005	0.087
-577.763	561.711	0.042	-0.102
-576.748	-113.250	-0.175	0.035
-575.733	-91.342	-0.163	0.047
-574.719	800.000	0.018	0.077
-573.704	-200.000	-0.015	-0.085
-572.690	-102.799	0.142	0.034
-571.675	60.342	-0.036	0.036
-570.661	72.720	0.304	-0.321
-569.646	800.000	0.018	0.075
-568.631	145.254	-0.069	0.093
-567.617	-200.000	-0.010	-0.047
-566.602	265.608	-0.133	-0.235
-565.588	11.220	0.210	-0.163
-564.573	-79.952	0.203	-0.069
-563.558	438.626	-0.085	-0.188
-562.544	-34.273	-0.029	0.016
-561.529	-118.066	-0.212	-0.038
-560.515	800.000	-0.133	-0.375
-559.500	-13.789	0.083	0.054
-558.485	-200.000	-0.002	0.348
-557.471	-32.195	-0.530	-0.299
-556.456	-200.000	0.032	-0.193
-555.442	-200.000	-0.047	-0.225
-554.427	516.335	-0.093	0.219
-553.412	48.247	0.324	0.306
-552.398	51.764	0.116	0.112
-551.383	-200.000	-0.066	-0.443
-550.369	10.395	-0.013	0.010
-549.354	233.920	-0.200	-0.333
-548.339	-56.121	0.090	0.040
-547.325	-161.234	-0.329	-0.017
-546.310	153.500	-0.144	-0.200
-545.296	446.931	0.138	-0.307
-544.281	-200.000	-0.013	-0.270
-543.266	-172.154	-0.257	0.008
-542.252	-200.000	-0.056	-0.369
-541.237	-200.000	0.034	0.254
-540.223	-75.246	-0.215	-0.078
-539.208	73.426	0.222	-0.235
-538.193	-200.000	-0.043	0.226
-537.179	-44.983	-0.257	-0.129
-536.164	245.904	-0.171	-0.290
-535.150	21.699	0.285	-0.234
-534.135	800.000	0.084	-0.252
-533.121	551.795	-0.082	0.199
-532.106	628.808	0.127	0.324
-531.091	-200.000	-0.008	0.150
-530.077	581.582	-0.027	0.067
-529.062	-99.986	0.050	-0.013
-528.048	-94.216	0.119	0.033
-527.033	-200.000	0.030	-0.280
-526.018	-200.000	-0.011	-0.279
-525.004	-108.646	0.125	0.027
-523.989	-40.188	0.123	0.064
-522.975	-74.814	0.235	-0.085
-521.960	-200.000	-0.008	-0.079
-520.945	-181.381	-0.147	-0.003
-519.931	-93.205	0.240	-0.067
-518.916	-119.926	-0.180	-0.031
-517.902	800.000	-0.037	0.124
-516.887	800.000	-0.082	0.311
-515.872	-30.952	0.272	0.155
-514.858	-139.762	0.156	0.017
-513.843	-59.628	-0.076	-0.033
-512.829	1.144	0.160	0.116
-511.814	-164.110	0.195	-0.009
-510.799	-113.750	0.148	0.029
-509.785	-139.094	-0.360	-0.039
-508.770	388.434	0.149	0.312
-507.756	195.242	0.114	-0.175
-506.741	220.364	0.189	-0.306
-505.726	-200.000	-0.002	-0.080
-504.712	399.264	0.114	-0.241
-503.697	34.226	-0.307	-0.270
-502.683	18.814	0.186	-0.150
-501.668	-120.159	0.582	-0.100
-500.653	493.510	-0.118	-0.274
-499.639	800.000	0.117	-0.464
-498.624	180.109	0.057	-0.084
-497.610	800.000	0.083	-0.262
-496.595	-200.000	-0.064	0.506
-495.581	800.000	-0.158	0.583
-494.566	-3.998	0.340	-0.237
-493.551	283.352	0.114	-0.206
-492.537	526.097	-0.124	0.295
-491.522	-200.000	-0.015	0.083
-490.508	39.484	-0.434	-0.392
-489.493	381.401	0.020	-0.040
-488.478	-200.000	-0.021	-0.144
-487.464	64.793	0.016	0.017
-486.449	-60.638	0.151	0.064
-485.435	-22.571	0.146	-0.089
-484.420	-22.416	0.216	-0.132
-483.405	-200.000	0.022	0.170
-482.391	-61.973	-0.082	-0.035
-481.376	192.152	0.100	0.152
-480.362	-32.738	0.061	-0.034
-479.347	-118.426	0.202	0.036
-478.332	-101.472	0.114	-0.028
-477.318	-200.000	0.017	0.197
-476.303	-108.772	0.133	-0.029
-475.289	144.767	-0.003	-0.005
-474.274	26.281	-0.131	-0.110
-473.259	-126.265	0.231	0.035
-472.245	59.474	0.182	0.181
-471.230	-64.359	-0.223	-0.091
-470.216	-37.599	0.022	0.012
-469.201	190.642	0.314	-0.475
-468.186	-200.000	-0.008	0.045
-467.172	134.008	-0.189	-0.246
-466.157	395.993	-0.076	-0.159
-465.143	20.763	0.027	0.022
-464.128	-64.949	-0.191	0.078
-463.113	-21.541	-0.176	0.108
-462.099	800.000	0.048	0.188
-461.084	13.265	-0.092	0.072
-460.070	32.643	-0.117	0.102
-459.055	-200.000	-0.027	0.171
-458.040	-44.905	0.383	0.192
-457.026	-22.531	-0.075	-0.046
-456.011	-200.000	0.000	-0.370
-454.997	188.418	-0.026	0.039
-453.982	-151.104	-0.289	0.022
-452.968	110.388	0.121	-0.146
-451.953	800.000	0.113	-0.333
-450.938	-200.000	-0.049	-0.287
-449.924	32.322	-0.181	-0.157
-448.909	-122.053	-0.271	0.045
-447.895	-200.000	-0.071	0.332
-446.880	-103.197	0.138	-0.033
-445.865	-104.689	-0.102	-0.024
-444.851	-200.000	0.012	0.074
-443.836	-7.495	-0.198	-0.135
-442.822	-65.932	-0.242	-0.097
-441.807	-17.782	-0.296	-0.187
-440.792	-74.571	0.359	-0.130
-439.778	235.539	0.070	-0.117
-438.763	-118.612	-0.116	0.021
-437.749	586.336	-0.086	0.213
-436.734	194.173	-0.154	-0.234
-435.719	228.720	0.090	-0.147
-434.705	36.060	0.247	0.219
-433.690	800.000	0.038	-0.122
-432.676	-200.000	-0.009	-0.048
-431.661	436.429	-0.192	0.420
-430.646	-200.000	-0.001	0.059
-429.632	800.000	0.092	-0.305
-428.617	-0.308	0.229	0.163
-427.603	495.157	-0.120	0.276
-426.588	-48.577	0.316	-0.153
-425.573	-176.663	0.442	-0.011
-424.559	595.549	-0.112	0.279
-423.544	-114.212	0.095	-0.018
-422.530	-200.000	-0.019	-0.126
-421.515	-133.724	-0.473	-0.059
-420.500	138.258	-0.038	-0.050
-419.486	68.516	-0.159	0.164
-418.471	11.535	0.157	0.121
-417.457	-12.202	-0.359	0.236
-416.442	-199.177	-0.291	0.002
-415.428	283.229	0.122	0.219
-414.413	800.000	-0.056	0.177
-413.398	28.635	0.134	-0.114
-412.384	-54.691	-0.121	-0.055
-411.369	-24.727	-0.248	0.148
-410.355	-65.994	-0.035	-0.014
-409.340	-158.680	-0.169	-0.010
-408.325	112.424	0.252	0.307
-407.311	-200.000	0.012	0.208
-406.296	-51.783	-0.291	0.136
-405.282	-150.051	0.183	0.014
-404.267	189.452	-0.189	-0.285
-403.252	160.506	-0.084	-0.118
-402.238	-92.756	-0.071	0.020
-401.223	-118.123	-0.062	-0.011
-400.209	57.992	0.230	-0.226
-399.194	800.000	-0.092	-0.290
-398.179	286.137	0.067	-0.122
-397.165	-18.768	0.248	0.155
-396.150	-129.384	0.126	0.018
-395.136	-200.000	-0.014	-0.334
-394.121	62.763	-0.195	-0.196
-393.106	-106.624	-0.391	0.087
-392.092	158.909	0.261	-0.364
-391.077	14.388	-0.244	-0.191
-390.063	-200.000	0.059	0.283
-389.048	-107.699	0.096	0.021
-388.033	-200.000	-0.019	0.205
-387.019	800.000	-0.090	-0.329
-386.004	-200.000	-0.003	0.334
-384.990	800.000	-0.054	0.201
-383.975	37.193	0.306	-0.272
-382.960	-157.039	0.219	0.013
-381.946	47.316	-0.206	-0.192
-380.931	549.864	0.021	-0.052
-379.917	27.160	-0.153	0.129
-378.902	209.528	0.050	0.078
-377.888	174.507	-0.091	0.132
-376.873	91.975	-0.130	-0.146
-375.858	139.841	0.130	-0.172
-374.844	-20.810	0.049	-0.030
-373.829	-104.461	0.163	-0.038
-372.815	800.000	0.024	-0.097
-371.800	800.000	0.080	-0.310
-370.785	-135.291	-0.198	0.024
-369.771	-200.000	-0.020	0.199
-368.756	-200.000	0.020	-0.103
-367.742	119.630	0.100	0.124
-366.727	800.000	-0.042	0.141
-365.712	800.000	-0.105	0.425
-364.698	-34.443	0.147	0.081
-363.683	-153.802	-0.083	0.006
-362.669	-75.429	0.295	-0.105
-361.654	-103.496	0.262	0.062
-360.639	-94.562	-0.105	0.029
-359.625	-200.000	0.020	0.496
-358.610	-116.586	-0.258	-0.048
-357.596	418.373	-0.113	0.242
-356.581	-107.957	0.387	0.084
-355.566	111.759	-0.152	0.184
-354.552	170.420	-0.215	0.309
-353.537	-200.000	-0.012	-0.082
-352.523	-200.000	-0.007	-0.353
-351.508	96.844	-0.135	-0.156
-350.493	243.769	0.097	-0.163
-349.479	37.390	-0.113	0.101
-348.464	-7.910	0.228	0.154
-347.450	-55.096	0.051	0.023
-346.435	-28.255	-0.275	-0.159
-345.420	91.625	0.274	0.309
-344.406	800.000	0.084	0.300
-343.391	252.449	0.123	0.210
-342.377	-130.847	0.198	-0.027
-341.362	297.519	0.066	0.121
-340.348	-200.000	-0.002	-0.113
-339.333	800.000	0.015	0.043
-338.318	-91.365	0.379	0.109
-337.304	228.251	0.005	0.008
-336.289	205.368	-0.123	0.192
-335.275	720.146	-0.096	0.256
-334.260	-200.000	0.093	-0.421
-333.245	-54.279	-0.196	0.089
-332.231	-11.888	0.149	-0.098
-331.216	-183.506	-0.193	-0.003
-330.202	-141.971	0.476	-0.048
-329.187	-16.807	-0.341	-0.216
-328.172	21.786	-0.150	-0.122
-327.158	86.421	-0.184	0.203
-326.143	-155.510	0.274	0.018
-325.129	-34.258	0.106	0.058
-324.114	800.000	-0.108	0.346
-323.099	-200.000	0.043	0.387
-322.085	73.395	-0.090	0.094
-321.070	133.652	-0.044	-0.057
-320.056	-78.453	-0.211	-0.072
-319.041	265.979	0.045	0.078
-318.026	-39.679	0.109	0.057
-317.012	800.000	-0.027	-0.089
-315.997	800.000	0.084	0.318
-314.983	-185.142	-0.318	-0.005
-313.968	-169.287	0.396	-0.015
-312.953	800.000	0.043	0.174
-311.939	-121.664	-0.013	-0.002
-310.924	-26.251	0.114	-0.067
-309.910	-136.223	-0.235	0.028
-308.895	35.580	0.126	-0.110
-307.880	240.033	-0.124	-0.206
-306.866	38.246	0.204	0.181
-305.851	800.000	0.073	0.287
-304.837	-173.134	0.205	-0.006
-303.822	158.337	0.357	-0.495
-302.807	-200.000	0.065	-0.287
-301.793	76.254	0.042	-0.044
-300.778	-200.000	0.062	-0.279
-299.764	-44.229	-0.285	-0.143
-298.749	16.543	-0.189	0.149
-297.735	374.633	-0.090	0.182
-296.720	220.697	0.095	0.152
-295.705	-80.474	-0.119	0.040
-294.691	-200.000	0.022	0.181
-293.676	118.761	0.435	0.538
-292.662	-114.826	-0.276	-0.053
-291.647	-73.485	-0.195	-0.071
-290.632	109.697	0.161	0.193
-289.618	-123.509	0.305	0.049
-288.603	669.267	-0.044	-0.113
-287.589	186.596	0.149	-0.221
-286.574	-100.804	-0.270	-0.066
-285.559	-147.968	-0.283	-0.024
-284.545	654.361	0.049	-0.125
-283.530	116.606	-0.096	0.118
-282.516	-200.000	0.006	0.101
-281.501	-71.308	-0.168	-0.063
-280.486	83.931	0.223	-0.243
-279.472	800.000	0.014	0.044
-278.457	-25.595	0.169	0.100
-277.443	800.000	0.077	0.272
-276.428	-200.000	0.018	-0.214
-275.413	-32.278	0.153	-0.086
-274.399	386.590	-0.167	0.344
-273.384	-6.120	0.134	0.092
-272.370	606.637	-0.026	0.064
-271.355	262.626	0.140	-0.243
-270.340	287.023	0.182	-0.329
-269.326	-200.000	-0.031	-0.269
-268.311	428.472	0.064	-0.137
-267.297	-82.103	0.176	0.057
-266.282	13.500	-0.286	-0.222
-265.267	20.464	0.110	0.089
-264.253	-42.801	0.162	-0.082
-263.238	800.000	-0.080	0.222
-262.224	31.092	0.181	0.155
-261.209	327.638	0.076	0.145
-260.195	169.495	-0.033	-0.047
-259.180	-200.000	0.020	0.223
-258.165	59.621	0.297	0.293
-257.151	-200.000	0.036	0.314
-256.136	-200.000	0.008	0.146
-255.122	-150.406	-0.235	-0.018
-254.107	-22.595	0.135	-0.082
-253.092	399.512	0.078	-0.163
-252.078	29.469	-0.093	-0.079
-251.063	-3.068	0.229	0.160
-250.049	261.629	0.271	-0.469
-249.034	-22.496	-0.481	0.291
-248.019	-109.517	0.409	0.086
-247.005	77.799	0.045	0.048
-245.990	708.157	-0.058	0.153
-244.976	-153.754	-0.068	-0.005
-243.961	-200.000	-0.029	-0.205
-242.946	-114.100	0.200	-0.039
-241.932	-115.587	0.055	0.010
-240.917	-200.000	-0.028	-0.183
-239.903	-73.594	-0.398	-0.145
-238.888	1.405	-0.047	0.034
-237.873	-39.388	-0.030	0.016
-236.859	-200.000	-0.000	-0.135
-235.844	-166.663	0.117	0.005
-234.830	611.572	0.123	0.308
-233.815	-70.057	0.253	0.096
-232.800	129.725	-0.096	-0.122
-231.786	800.000	0.107	0.301
-230.771	256.830	-0.158	-0.271
-229.757	1.815	-0.241	0.173
-228.742	746.563	-0.151	0.405
-227.727	237.943	0.074	-0.122
-226.713	-36.460	-0.369	0.198
-225.698	307.739	0.146	0.271
-224.684	112.882	0.230	0.279
-223.669	800.000	-0.073	0.232
-222.655	256.780	0.069	0.118
-221.640	-138.643	0.105	0.012
-220.625	-200.000	-0.012	-0.153
-219.611	800.000	0.060	0.197
-218.596	-125.092	-0.273	-0.042
-217.582	-72.460	-0.420	-0.155
-216.567	30.031	0.015	-0.013
-215.552	-150.905	0.082	-0.006
-214.538	-200.000	0.017	0.223
-213.523	-59.059	-0.071	-0.030
-212.509	63.385	-0.254	-0.254
-211.494	-37.143	-0.074	0.040
-210.479	800.000	-0.135	-0.404
-209.465	-200.000	-0.012	-0.103
-208.450	800.000	0.079	0.240
-207.436	-53.806	0.162	-0.074
-206.421	800.000	0.044	0.138
-205.406	-179.236	-0.191	-0.004
-204.392	48.898	-0.131	0.123
-203.377	53.914	0.149	-0.143
-202.363	-63.258	0.274	0.113
-201.348	-117.106	0.170	-0.031
-200.333	800.000	0.008	0.028
-199.319	-60.786	0.314	0.133
-198.304	457.974	-0.130	-0.289
-197.290	800.000	-0.004	0.017
-196.275	109.426	0.171	0.204
-195.260	-200.000	-0.040	0.359
-194.246	139.033	-0.198	-0.260
-193.231	-200.000	-0.022	-0.109
-192.217	77.557	0.255	0.271
-191.202	-200.000	0.013	0.409
-190.187	800.000	-0.042	0.177
-189.173	184.688	-0.223	-0.330
-188.158	661.032	-0.163	0.419
-187.144	-131.986	-0.047	-0.006
-186.129	33.719	0.189	-0.164
-185.114	-101.397	-0.214	-0.052
-184.100	-200.000	-0.008	0.451
-183.085	625.240	-0.007	-0.017
-182.071	800.000	-0.028	0.096
-181.056	124.877	0.311	-0.390
-180.042	-29.541	0.296	0.168
-179.027	-61.602	-0.171	-0.071
-178.012	67.877	-0.130	0.132
-176.998	78.437	-0.116	0.124
-175.983	54.135	-0.299	-0.287
-174.969	113.263	-0.161	0.195
-173.954	-171.384	0.119	-0.004
-172.939	-120.388	0.191	0.032
-171.925	-53.630	0.233	0.106
-170.910	132.203	-0.109	0.140
-169.896	20.611	-0.013	-0.010
-168.881	202.663	0.127	-0.195
-167.866	-80.092	-0.191	-0.064
-166.852	800.000	0.055	0.224
-165.837	-200.000	-0.011	0.328
-164.823	-21.155	-0.201	0.122
-163.808	-92.772	-0.224	0.062
-162.793	636.611	0.058	-0.147
-161.779	295.159	0.126	-0.229
-160.764	107.788	-0.110	-0.130
-159.750	-90.589	0.101	0.029
-158.735	-101.322	0.226	0.055
-157.720	18.210	-0.095	0.075
-156.706	800.000	-0.043	0.131
-155.691	-34.490	-0.039	0.021
-154.677	-18.024	-0.108	-0.067
-153.662	261.361	0.142	0.245
-152.647	-23.202	-0.163	-0.098
-151.633	-57.023	-0.095	0.042
-150.618	86.694	0.161	-0.176
-149.604	-200.000	-0.029	0.196
-148.589	-200.000	-0.011	-0.198
-147.574	370.802	0.024	0.048
-146.560	347.760	-0.046	-0.089
-145.545	-81.256	-0.191	-0.063
-144.531	644.860	-0.056	-0.143
-143.516	800.000	-0.117	-0.345
-142.502	-36.701	0.176	0.094
-141.487	-200.000	-0.044	0.199
-140.472	-41.988	0.146	-0.074
-139.458	-200.000	-0.021	-0.290
-138.443	520.682	0.200	-0.467
-137.429	457.235	0.119	-0.262
-136.414	800.000	-0.111	-0.382
-135.399	800.000	-0.073	0.281
-134.385	-68.917	-0.180	0.069
-133.370	-133.945	-0.398	0.049
-132.356	744.096	-0.096	-0.257
-131.341	-200.000	0.054	-0.294
-130.326	800.000	0.150	-0.548
-129.312	-99.942	0.217	0.054
-128.297	149.913	-0.092	0.124
-127.283	148.440	-0.140	0.188
-126.268	27.165	-0.246	0.205
-125.253	-99.112	-0.216	0.054
-124.239	-200.000	-0.031	0.212
-123.224	-200.000	-0.048	0.301
-122.210	-175.194	-0.170	-0.005
-121.195	-108.358	0.133	-0.028
-120.180	-26.580	0.200	0.116
-119.166	276.933	0.093	-0.165
-118.151	185.356	-0.243	0.358
-117.137	-44.302	-0.069	-0.034
-116.122	-200.000	0.032	0.224
-115.107	-142.345	0.304	-0.030
-114.093	800.000	0.066	-0.211
-113.078	800.000	0.022	-0.093
-112.064	-136.672	0.223	0.026
-111.049	-109.940	0.212	0.044
-110.034	221.154	0.222	0.354
-109.020	-7.784	-0.042	-0.028
-108.005	572.393	0.282	0.683
-106.991	-200.000	0.017	0.189
-105.976	42.687	0.152	0.138
-104.962	-34.227	0.248	-0.135
-103.947	-200.000	-0.016	-0.430
-102.932	377.091	-0.125	0.253
-101.918	-151.085	-0.295	0.022
-100.903	-200.000	0.035	-0.159
-99.889	-200.000	-0.070	-0.337
-98.874	-200.000	-0.011	0.116
-97.859	-190.749	0.401	-0.004
-96.845	409.784	-0.023	-0.049
-95.830	-0.631	0.402	-0.283
-94.816	-118.841	-0.036	-0.006
-93.801	150.274	-0.214	-0.288
-92.786	166.938	0.140	0.197
-91.772	39.139	-0.178	0.158
-90.757	-80.360	-0.093	-0.031
-89.743	13.916	-0.053	-0.041
-88.728	-139.263	-0.130	-0.014
-87.713	-95.218	-0.414	-0.111
-86.699	-29.333	0.219	-0.125
-85.684	800.000	-0.067	0.212
-84.670	-105.719	-0.213	-0.048
-83.655	-153.969	0.170	-0.011
-82.640	-52.644	-0.103	-0.047
-81.626	-78.887	0.085	0.029
-80.611	-200.000	-0.036	-0.157
-79.597	6.633	-0.187	-0.138
-78.582	33.871	-0.185	0.159
-77.567	-61.792	-0.097	-0.040
-76.553	-97.434	-0.351	-0.091
-75.538	-200.000	0.011	-0.210
-74.524	-83.907	-0.367	-0.116
-73.509	23.585	0.229	-0.187
-72.494	-96.953	-0.146	0.038
-71.480	-140.894	-0.165	-0.017
-70.465	-120.723	-0.256	-0.043
-69.451	-142.856	-0.259	0.025
-68.436	-83.512	-0.076	-0.024
-67.422	-69.765	-0.220	0.083
-66.407	-65.928	0.093	-0.037
-65.392	34.526	0.216	0.187
-64.378	458.479	0.137	-0.302
-63.363	53.732	-0.139	0.132
-62.349	-200.000	0.029	-0.463
-61.334	86.010	-0.783	-0.855
-60.319	-54.284	0.694	0.312
-59.305	-200.000	-0.135	-0.854
-58.290	-200.000	0.308	1.385
-57.276	240.506	0.577	0.953
-56.261	-200.000	97.534	581.063
-55.246	629.391	1395.207	3496.777
-54.232	186.909	2599.073	3838.640
-53.217	111.185	2318.391	2768.439
-52.203	41.053	2067.973	1851.059
-51.188	36.180	1981.869	1730.322
-50.173	34.632	1963.997	1700.877
-49.159	49.589	2015.411	1880.731
-48.144	52.196	2035.246	1922.709
-47.130	36.947	1992.235	1746.016
-46.115	34.477	1980.942	1713.886
-45.100	34.354	1978.142	1710.287
-44.086	34.281	1976.451	1708.106
-43.071	34.361	1973.116	1705.872
-42.057	34.297	1971.489	1703.827
-41.042	34.284	1969.657	1702.054
-40.027	34.362	1967.089	1700.466
-39.013	34.372	1965.184	1698.842
-37.998	34.454	1963.414	1697.976
-36.984	34.454	1961.729	1696.451
-35.969	34.382	1959.979	1694.226
-34.954	34.445	1958.174	1693.165
-33.940	34.400	1956.703	1691.419
-32.925	34.475	1955.155	1690.683
-31.911	34.457	1953.536	1689.058
-30.896	34.537	1951.816	1688.210
-29.881	34.530	1950.031	1686.533
-28.867	34.596	1948.489	1685.716
-27.852	34.538	1947.045	1683.892
-26.838	34.498	1945.279	1681.946
-25.823	34.578	1943.200	1680.783
-24.809	34.546	1941.078	1678.598
-23.794	34.616	1939.229	1677.546
-22.779	34.527	1937.463	1675.170
-21.765	34.525	1936.377	1674.149
-20.750	34.503	1934.209	1672.019
-19.736	34.493	1933.347	1671.120
-18.721	34.573	1931.430	1670.091
-17.706	34.563	1930.360	1669.018
-16.692	34.478	1928.657	1666.734
-15.677	34.516	1927.254	1665.790
-14.663	34.616	1925.162	1664.787
-13.648	34.537	1924.276	1663.261
-12.633	34.562	1923.067	1662.372
-11.619	34.499	1921.745	1660.612
-10.604	34.464	1920.482	1659.150
-9.590	34.455	1918.886	1657.634
-8.575	34.487	1917.884	1656.980
-7.560	34.575	1916.449	1656.431
-6.546	34.512	1915.176	1654.720
-5.531	34.493	1913.761	1653.267
-4.517	34.571	1912.334	1652.646
-3.502	34.534	1911.611	1651.635
-2.487	34.503	1910.444	1650.297
-1.473	34.498	1909.906	1649.721
-0.458	34.526	1904.712	1645.411
0.556	34.651	1884.898	1615.854
1.571	30.112	1864.920	1560.470
2.586	25.868	1886.261	1541.961
3.600	24.581	1921.911	1559.736
4.615	23.871	1916.648	1549.139
5.629	18.375	1815.350	1421.650
6.644	9.436	1697.032	1259.208
7.659	5.295	1659.612	1199.599
8.673	4.928	1656.906	1194.725
9.688	4.838	1655.605	1192.992
10.702	4.917	1653.889	1192.249
11.717	4.816	1651.389	1189.575
12.731	5.310	1650.397	1192.524
13.746	10.971	1663.797	1245.550
14.761	18.351	1679.662	1314.157
15.775	20.551	1681.809	1332.602
16.790	19.752	1677.809	1323.199
17.804	18.630	1674.870	1312.190
18.819	17.572	1672.064	1301.798
19.834	16.926	1669.649	1294.870
20.848	16.643	1667.888	1291.229
21.863	16.417	1666.542	1288.354
22.877	16.139	1664.898	1284.844
23.892	16.046	1663.291	1282.782
24.907	15.908	1662.451	1280.972
25.921	15.873	1661.487	1279.853
26.936	15.899	1660.684	1279.315
27.950	15.911	1659.761	1278.585
28.965	15.939	1659.219	1278.264
29.980	15.983	1658.109	1277.634
30.994	16.086	1656.920	1277.387
32.009	16.130	1656.180	1277.030
33.023	16.270	1655.578	1277.518
34.038	16.202	1654.687	1276.198
35.053	16.250	1652.746	1274.955
36.067	16.188	1651.898	1273.718
37.082	16.112	1650.399	1271.880
38.096	16.125	1649.894	1271.475
39.111	16.114	1649.039	1270.617
40.126	16.176	1648.731	1270.738
41.140	16.128	1647.525	1269.331
42.155	15.988	1646.102	1267.072
43.169	15.900	1644.417	1265.005
44.184	15.864	1643.433	1263.863
45.199	15.775	1642.191	1262.130
46.213	15.731	1641.295	1260.997
47.228	15.816	1640.121	1260.618
48.242	15.890	1639.130	1260.302
49.257	15.975	1638.646	1260.454
50.271	16.054	1636.753	1259.473
51.286	16.031	1635.239	1258.026
52.301	15.990	1634.043	1256.693
53.315	15.981	1632.668	1255.454
54.330	16.036	1630.843	1254.347
55.344	15.909	1629.218	1252.047
56.359	15.809	1628.562	1250.686
57.374	15.781	1627.390	1249.464
58.388	15.913	1626.066	1249.324
59.403	15.863	1624.734	1247.819
60.417	15.810	1622.985	1245.970
61.432	15.798	1622.130	1245.114
62.447	15.828	1621.007	1244.367
63.461	15.693	1620.099	1242.558
64.476	15.738	1619.057	1241.982
65.490	15.727	1617.593	1240.666
66.505	15.691	1616.438	1239.410
67.520	15.675	1615.834	1238.719
68.534	15.625	1615.285	1237.815
69.549	15.716	1613.848	1237.277
70.563	15.804	1612.642	1236.891
71.578	15.677	1611.294	1234.814
72.593	15.655	1610.298	1233.782
73.607	15.625	1608.947	1232.415
74.622	15.556	1607.815	1230.932
75.636	15.555	1607.303	1230.427
76.651	15.607	1606.283	1229.916
77.666	15.552	1605.386	1228.718
78.680	15.592	1604.373	1228.128
79.695	15.611	1603.728	1227.666
80.709	15.696	1602.395	1227.150
81.724	15.686	1602.040	1226.702
82.739	15.735	1601.189	1226.298
83.753	15.787	1600.380	1225.951
84.768	15.976	1599.078	1226.219
85.782	15.965	1598.659	1225.709
86.797	16.086	1597.859	1225.865
87.812	16.022	1596.998	1224.630
88.826	16.002	1596.231	1223.788
89.841	15.972	1595.050	1222.561
90.855	15.958	1593.819	1221.404
91.870	16.041	1592.682	1221.031
92.884	16.017	1591.641	1219.948
93.899	15.992	1590.741	1218.966
94.914	16.142	1589.283	1218.832
95.928	16.138	1588.144	1217.819
96.943	16.200	1586.718	1217.068
97.957	16.219	1585.004	1215.779
98.972	16.109	1583.788	1213.946
99.987	16.076	1582.558	1212.663
101.001	16.120	1580.682	1211.433
102.016	16.094	1579.058	1209.890
103.030	16.012	1578.170	1208.520
104.045	16.060	1576.817	1207.719
105.060	16.053	1575.430	1206.499
106.074	16.013	1573.977	1204.993
107.089	15.937	1572.915	1203.528
108.103	15.734	1570.940	1200.462
109.118	15.759	1569.425	1199.382
110.133	15.657	1568.092	1197.526
111.147	15.699	1566.866	1196.781
112.162	15.720	1565.556	1195.825
113.176	15.832	1563.921	1195.264
114.191	15.777	1562.887	1193.982
115.206	15.836	1561.307	1193.087
116.220	15.839	1560.437	1192.335
117.235	15.799	1558.936	1190.803
118.249	15.833	1557.873	1190.126
119.264	15.851	1556.524	1189.114
120.279	15.794	1555.181	1187.586
121.293	15.715	1553.635	1185.743
122.308	15.681	1552.443	1184.486
123.322	15.710	1550.841	1183.360
124.337	15.705	1549.020	1181.832
125.352	15.676	1548.145	1180.861
126.366	15.639	1547.272	1179.827
127.381	15.672	1545.798	1178.833
128.395	15.611	1544.625	1177.402
129.410	15.652	1543.645	1176.837
130.424	15.660	1542.101	1175.617
131.439	15.702	1540.944	1174.920
132.454	15.853	1539.214	1174.554
133.468	15.797	1537.950	1173.096
134.483	15.791	1536.576	1171.898
135.497	15.803	1535.740	1171.242
136.512	15.931	1534.062	1170.750
137.527	15.959	1532.334	1169.519
138.541	15.879	1531.578	1168.283
139.556	15.944	1529.743	1167.235
140.570	16.020	1528.558	1166.755
141.585	16.008	1527.763	1165.963
142.600	16.131	1526.239	1165.546
143.614	16.108	1525.192	1164.480
144.629	16.223	1524.160	1164.386
145.643	16.316	1522.865	1163.935
146.658	16.266	1521.330	1162.315
147.673	16.255	1520.028	1161.140
148.687	16.083	1518.428	1158.634
149.702	16.034	1517.134	1157.208
150.716	15.989	1515.535	1155.575
151.731	15.970	1514.520	1154.566
152.746	16.126	1512.486	1153.985
153.760	16.031	1511.487	1152.468
154.775	16.021	1510.247	1151.354
155.789	16.142	1509.033	1151.153
156.804	16.164	1508.010	1150.421
157.819	16.278	1506.538	1149.973
158.833	16.091	1505.450	1147.769
159.848	16.167	1504.527	1147.477
160.862	16.263	1502.851	1146.749
161.877	16.362	1501.936	1146.627
162.892	16.271	1500.610	1144.896
163.906	16.090	1499.343	1142.597
164.921	16.051	1497.748	1141.017
165.935	16.072	1496.963	1140.460
166.950	16.192	1495.769	1140.263
167.964	16.180	1494.541	1139.143
168.979	16.221	1493.570	1138.581
169.994	16.207	1492.712	1137.728
171.008	16.134	1491.624	1136.311
172.023	16.250	1490.608	1136.213
173.037	16.215	1489.688	1135.175
174.052	16.365	1488.593	1135.248
175.067	16.340	1487.742	1134.335
176.081	16.320	1486.082	1132.835
177.096	16.119	1485.079	1130.618
178.110	16.131	1483.528	1129.421
179.125	16.204	1482.112	1128.730
180.140	16.245	1481.135	1128.159
181.154	16.282	1480.400	1127.748
182.169	16.300	1479.239	1126.884
183.183	16.295	1478.094	1125.878
184.198	16.415	1477.245	1125.930
185.213	16.383	1476.213	1124.837
186.227	16.430	1474.756	1123.934
187.242	16.548	1473.954	1124.009
188.256	16.549	1473.093	1123.261
189.271	16.562	1471.990	1122.403
190.286	16.590	1471.095	1121.809
191.300	16.584	1469.721	1120.621
192.315	16.348	1468.529	1118.050
193.329	16.200	1466.833	1115.684
194.344	16.052	1465.956	1113.939
195.359	16.249	1464.628	1114.134
196.373	16.272	1463.705	1113.487
197.388	16.322	1463.307	1113.411
198.402	16.449	1462.323	1113.402
199.417	16.548	1460.818	1112.811
200.432	16.695	1460.017	1113.066
201.446	16.793	1459.016	1112.847
202.461	16.730	1458.356	1111.834
203.475	16.888	1456.818	1111.600
204.490	16.835	1456.224	1110.703
205.504	16.825	1454.912	1109.538
206.519	16.674	1453.779	1107.584
207.534	16.684	1452.069	1106.253
208.548	16.557	1451.611	1104.971
209.563	16.538	1450.445	1103.862
210.577	16.639	1449.339	1103.582
211.592	16.660	1448.322	1102.850
212.607	16.784	1448.036	1103.343
213.621	16.791	1447.276	1102.711
214.636	17.008	1445.779	1102.884
215.650	16.776	1445.158	1100.806
216.665	16.823	1444.342	1100.389
217.680	16.847	1443.790	1100.025
218.694	16.884	1443.291	1099.793
219.709	16.967	1441.787	1099.088
220.723	16.951	1441.027	1098.302
221.738	16.910	1439.999	1097.158
222.753	16.946	1439.268	1096.740
223.767	16.916	1438.570	1095.915
224.782	16.988	1437.586	1095.532
225.796	16.965	1436.641	1094.570
226.811	17.044	1435.870	1094.392
227.826	17.086	1434.900	1093.828
228.840	17.088	1433.926	1093.001
229.855	16.963	1433.022	1091.409
230.869	16.961	1432.248	1090.710
231.884	17.048	1430.825	1090.092
232.899	16.988	1429.753	1088.792
233.913	16.949	1428.157	1087.231
234.928	16.812	1427.542	1085.786
235.942	16.932	1426.151	1085.401
236.957	16.868	1424.631	1083.739
237.972	16.875	1423.395	1082.747
238.986	16.755	1422.930	1081.535
240.001	16.953	1421.811	1081.848
241.015	16.934	1420.855	1080.904
242.030	16.974	1419.573	1080.090
243.045	16.984	1418.607	1079.325
244.059	17.041	1417.918	1079.062
245.074	17.073	1416.988	1078.467
246.088	17.077	1416.611	1078.109
247.103	17.153	1415.801	1077.881
248.117	17.172	1414.707	1077.073
249.132	17.240	1413.783	1076.702
250.147	17.378	1413.402	1077.190
251.161	17.428	1413.250	1077.300
252.176	17.525	1412.894	1077.544
253.190	17.623	1411.459	1076.971
254.205	17.645	1410.681	1076.424
255.220	17.703	1410.147	1076.290
256.234	17.843	1408.702	1075.971
257.249	17.687	1408.275	1074.568
258.263	17.554	1407.701	1073.195
259.278	17.710	1406.185	1072.927
260.293	17.734	1405.204	1072.235
261.307	17.683	1404.859	1071.558
262.322	17.819	1404.097	1071.736
263.336	17.819	1403.421	1071.125
264.351	17.856	1402.168	1070.303
265.366	17.865	1401.344	1069.638
266.380	17.893	1400.660	1069.195
267.395	17.786	1399.514	1067.555
268.409	17.890	1398.516	1067.351
269.424	17.873	1397.594	1066.445
270.439	17.729	1396.756	1064.813
271.453	17.783	1395.493	1064.094
272.468	17.793	1394.639	1063.411
273.482	17.723	1394.309	1062.630
274.497	17.691	1392.942	1061.292
275.512	17.612	1392.481	1060.358
276.526	17.738	1391.565	1060.351
277.541	17.684	1390.260	1058.923
278.555	17.710	1389.122	1058.124
279.570	17.676	1388.690	1057.491
280.585	17.863	1387.776	1057.866
281.599	17.868	1387.097	1057.282
282.614	17.947	1386.535	1057.253
283.628	17.976	1384.456	1055.752
284.643	17.894	1383.627	1054.519
285.657	17.912	1382.880	1053.969
286.672	17.864	1382.117	1052.996
287.687	17.841	1380.982	1051.898
288.701	17.940	1379.784	1051.498
289.716	17.866	1379.621	1050.825
290.730	17.896	1378.538	1050.093
291.745	17.932	1377.093	1049.124
292.760	17.973	1376.273	1048.655
293.774	18.008	1375.239	1047.988
294.789	18.029	1374.238	1047.262
295.803	17.963	1373.939	1046.540
296.818	18.063	1373.417	1046.662
297.833	18.029	1372.374	1045.562
298.847	17.996	1371.212	1044.385
299.862	17.993	1369.989	1043.341
300.876	18.062	1369.088	1042.986
301.891	18.103	1368.038	1042.342
302.906	18.141	1367.364	1041.967
303.920	18.106	1366.607	1041.084
304.935	18.130	1366.018	1040.691
305.949	18.304	1365.184	1041.020
306.964	18.294	1364.208	1040.125
307.979	18.429	1363.620	1040.404
308.993	18.297	1362.783	1038.874
310.008	18.277	1361.479	1037.667
311.022	18.331	1360.776	1037.368
312.037	18.429	1359.557	1036.938
313.052	18.428	1358.846	1036.296
314.066	18.366	1357.881	1035.093
315.081	18.207	1357.059	1033.417
316.095	18.323	1355.053	1032.500
317.110	18.158	1354.308	1030.845
318.125	18.203	1353.570	1030.460
319.139	18.178	1352.829	1029.655
320.154	18.231	1351.703	1029.027
321.168	18.122	1350.791	1027.585
322.183	18.147	1350.001	1027.044
323.197	18.214	1349.144	1026.707
324.212	18.370	1347.502	1026.301
325.227	18.254	1347.546	1025.549
326.241	18.334	1346.493	1025.132
327.256	18.383	1345.613	1024.668
328.270	18.238	1345.248	1023.433
329.285	18.247	1344.214	1022.606
330.300	18.335	1342.779	1021.951
331.314	18.368	1341.917	1021.402
332.329	18.355	1340.913	1020.470
333.343	18.255	1340.558	1019.513
334.358	18.491	1339.364	1019.917
335.373	18.320	1338.803	1018.382
336.387	18.429	1337.803	1018.180
337.402	18.492	1337.450	1018.193
338.416	18.462	1336.802	1017.437
339.431	18.603	1335.871	1017.474
340.446	18.620	1335.427	1017.146
341.460	18.708	1333.978	1016.474
342.475	18.633	1333.603	1015.655
343.489	18.738	1332.696	1015.496
344.504	18.796	1331.886	1015.129
345.519	18.880	1330.756	1014.675
346.533	18.892	1329.620	1013.786
347.548	18.891	1328.803	1013.069
348.562	18.936	1328.106	1012.713
349.577	18.894	1327.631	1012.013
350.592	18.997	1325.954	1011.253
351.606	18.880	1325.491	1010.124
352.621	18.867	1323.885	1008.732
353.635	18.728	1322.952	1007.119
354.650	18.761	1322.199	1006.651
355.665	18.718	1321.717	1005.940
356.679	18.756	1320.078	1004.826
357.694	18.756	1319.360	1004.190
358.708	18.869	1318.058	1003.770
359.723	18.961	1317.303	1003.643
360.738	18.952	1316.343	1002.775
361.752	18.870	1315.373	1001.468
362.767	18.864	1314.599	1000.754
363.781	18.946	1313.309	1000.160
364.796	18.884	1313.230	999.648
365.810	18.921	1312.686	999.365
366.825	19.128	1311.328	999.441
367.840	19.237	1310.318	999.218
368.854	19.201	1310.341	998.939
369.869	19.220	1309.530	998.340
370.883	19.286	1308.928	998.178
371.898	19.265	1307.969	997.237
372.913	19.175	1307.455	996.236
373.927	19.249	1306.190	995.608
374.942	19.177	1305.433	994.529
375.956	19.251	1304.856	994.426
376.971	19.285	1304.049	993.922
377.986	19.245	1302.982	992.792
379.000	19.250	1302.553	992.406
380.015	19.323	1301.681	992.070
381.029	19.377	1301.131	991.872
382.044	19.434	1300.299	991.481
383.059	19.415	1299.774	990.884
384.073	19.398	1299.138	990.215
385.088	19.416	1298.212	989.524
386.102	19.570	1297.228	989.568
387.117	19.410	1296.813	988.245
388.132	19.436	1296.160	987.812
389.146	19.458	1294.633	986.685
390.161	19.333	1294.089	985.467
391.175	19.297	1293.553	984.766
392.190	19.341	1292.653	984.246
393.205	19.411	1291.526	983.700
394.219	19.467	1290.904	983.459
395.234	19.488	1289.595	982.496
396.248	19.615	1288.074	981.973
397.263	19.435	1286.922	979.982
398.278	19.427	1285.570	978.821
399.292	19.319	1284.674	977.443
400.307	19.406	1283.253	976.763
401.321	19.294	1282.581	975.534
402.336	19.300	1281.546	974.695
403.350	19.328	1280.455	973.936
404.365	19.421	1279.573	973.702
405.380	19.282	1278.865	972.296
406.394	19.346	1278.048	971.948
407.409	19.535	1277.363	972.408
408.423	19.654	1276.551	972.371
409.438	19.726	1275.863	972.166
410.453	19.604	1275.613	971.205
411.467	19.762	1274.910	971.474
412.482	19.756	1274.240	970.839
413.496	19.771	1273.620	970.369
414.511	19.876	1272.850	970.286
415.526	19.845	1272.373	969.659
416.540	19.860	1271.432	968.944
417.555	19.904	1270.724	968.564
418.569	19.938	1270.151	968.233
419.584	19.946	1269.737	967.874
420.599	19.938	1269.021	967.194
421.613	141.425	1431.137	1791.263
422.628	135.895	1454.721	1791.393
