DTS Sentinel unit serial number:	SN413079Multiplexer serial number:	ORYXHardware model number:	OX4-SRSoftware version number:	ORYX F/W v4.00 Oryx Data Collector v3.7.2.0data status	okinstallation	princeton_trtdifferential loss correction	single-endedforward channel	channel 4reverse channel	N/Adate	2019/09/17time	15:41:35forward acquisition time	60.00reverse acquisition time	0.00gamma	496.2192k internal	0.2290k external	0.2290temperature offset calibration	0.9984default loss term (dB/km)	0.3790temperature slope calibration	1.0000multiplexer offset coefficient	1.0000multiplexer slope coefficient	1.0000fibre end	0.00T internal ref (°C)	38.78T ext. ref 1 (°C)	0.38T ext. ref 2 (°C)	36.47length (m)	temperature (°C)	Stokes	anti-Stokes-747.200	-52.848	0.329	0.155
-746.185	115.011	-0.127	-0.159
-745.171	-1.323	-0.128	-0.093
-744.156	-200.000	-0.006	-0.038
-743.142	13.117	0.256	-0.203
-742.127	9.653	-0.261	0.203
-741.112	640.083	-0.162	0.423
-740.098	385.868	-0.099	0.209
-739.083	227.382	-0.085	0.141
-738.069	-200.000	0.025	-0.168
-737.054	-10.407	-0.197	-0.134
-736.039	471.185	-0.231	-0.531
-735.025	-153.851	0.218	0.015
-734.010	-81.517	0.035	-0.012
-732.996	500.105	-0.087	-0.205
-731.981	157.230	0.122	-0.173
-730.966	-88.995	-0.200	-0.060
-729.952	-171.990	-0.427	0.014
-728.937	-30.162	0.013	-0.008
-727.923	800.000	0.070	-0.205
-726.908	800.000	-0.027	0.116
-725.894	503.257	-0.048	0.115
-724.879	-107.228	-0.372	0.084
-723.864	-200.000	0.038	-0.227
-722.850	173.227	-0.035	0.051
-721.835	800.000	-0.104	-0.299
-720.821	236.822	0.123	0.208
-719.806	-101.320	-0.432	0.108
-718.791	164.165	0.188	-0.271
-717.777	68.725	0.092	0.096
-716.762	-200.000	-0.038	0.375
-715.748	7.806	-0.230	0.177
-714.733	134.396	0.072	0.096
-713.718	-200.000	-0.014	-0.072
-712.704	176.269	-0.288	-0.428
-711.689	-67.468	0.065	-0.026
-710.675	-200.000	-0.042	-0.379
-709.660	191.885	0.134	-0.206
-708.645	-69.764	0.345	0.135
-707.631	206.804	0.182	-0.290
-706.616	800.000	0.115	-0.379
-705.602	-134.657	-0.025	-0.003
-704.587	11.398	-0.092	-0.072
-703.572	-200.000	0.002	-0.135
-702.558	-200.000	-0.042	0.290
-701.543	-53.572	-0.168	0.078
-700.529	252.873	-0.085	0.148
-699.514	9.360	0.390	0.302
-698.499	-200.000	0.004	-0.106
-697.485	67.921	-0.162	-0.169
-696.470	62.136	0.100	-0.102
-695.456	800.000	0.030	0.133
-694.441	800.000	0.030	0.093
-693.426	-200.000	-0.001	-0.207
-692.412	44.301	-0.304	0.285
-691.397	-64.320	-0.315	0.131
-690.383	-15.936	-0.412	-0.268
-689.368	-113.543	-0.125	0.025
-688.354	283.663	0.057	0.105
-687.339	800.000	0.066	0.189
-686.324	-200.000	0.024	0.149
-685.310	-147.180	-0.315	-0.027
-684.295	800.000	0.048	0.214
-683.281	647.886	0.086	-0.225
-682.266	308.070	-0.116	-0.222
-681.251	374.199	-0.082	-0.171
-680.237	800.000	0.066	-0.197
-679.222	-86.308	0.067	0.021
-678.208	-185.096	0.307	0.005
-677.193	224.694	-0.117	-0.193
-676.178	-155.000	-0.252	0.017
-675.164	87.336	0.054	0.061
-674.149	-95.883	0.227	-0.062
-673.135	-104.113	0.235	-0.056
-672.120	-7.426	0.176	-0.122
-671.105	170.251	0.012	-0.017
-670.091	-22.783	0.100	0.061
-669.076	800.000	-0.027	-0.087
-668.062	232.706	0.031	0.052
-667.047	28.367	-0.182	0.157
-666.032	-5.995	0.170	0.119
-665.018	-155.231	-0.195	-0.013
-664.003	-81.397	-0.332	0.112
-662.989	-138.530	0.360	0.040
-661.974	-200.000	0.009	0.182
-660.959	244.792	-0.028	0.048
-659.945	-8.994	-0.254	-0.174
-658.930	-42.498	0.059	-0.030
-657.916	-163.858	0.230	0.011
-656.901	-200.000	-0.061	0.286
-655.886	90.066	-0.093	-0.106
-654.872	-110.432	0.202	-0.043
-653.857	-65.575	-0.276	0.113
-652.843	-47.315	0.070	-0.035
-651.828	98.694	0.082	-0.097
-650.814	-200.000	0.017	-0.201
-649.799	-34.324	0.249	0.140
-648.784	-200.000	-0.027	0.257
-647.770	160.246	-0.086	-0.122
-646.755	-126.892	-0.043	0.006
-645.741	-95.677	0.395	-0.108
-644.726	-200.000	-0.002	0.079
-643.711	-39.741	0.138	-0.074
-642.697	12.609	0.080	-0.063
-641.682	-57.390	0.203	-0.091
-640.668	-112.192	0.117	-0.024
-639.653	-158.703	-0.314	0.018
-638.638	-8.114	0.169	-0.116
-637.624	-200.000	0.009	0.229
-636.609	-0.677	-0.108	-0.078
-635.595	-53.395	-0.163	-0.076
-634.580	-21.818	-0.143	-0.089
-633.565	800.000	0.029	-0.100
-632.551	139.101	0.169	-0.227
-631.536	-137.618	0.320	-0.037
-630.522	-200.000	0.033	0.320
-629.507	500.267	-0.117	0.276
-628.492	154.138	-0.151	0.211
-627.478	-200.000	-0.003	-0.074
-626.463	-116.331	-0.143	0.027
-625.449	-136.375	-0.317	0.038
-624.434	-133.745	0.133	-0.017
-623.419	163.376	-0.110	0.157
-622.405	-93.061	0.135	0.038
-621.390	800.000	-0.066	0.246
-620.376	-23.015	-0.136	0.084
-619.361	0.239	-0.285	0.207
-618.346	-18.235	0.074	0.047
-617.332	17.486	-0.126	0.102
-616.317	-25.260	0.163	0.098
-615.303	800.000	0.100	0.414
-614.288	-187.883	-0.332	0.004
-613.273	800.000	-0.086	0.294
-612.259	39.368	0.290	0.265
-611.244	-200.000	0.064	-0.288
-610.230	-200.000	-0.016	-0.211
-609.215	800.000	0.054	0.218
-608.201	208.529	-0.175	-0.279
-607.186	-118.155	0.255	-0.046
-606.171	-101.968	-0.128	-0.031
-605.157	195.854	0.105	-0.163
-604.142	-180.408	-0.166	0.004
-603.128	305.349	0.036	0.068
-602.113	365.978	-0.179	0.369
-601.098	-200.000	0.054	-0.256
-600.084	-120.027	0.396	-0.069
-599.069	93.666	0.030	-0.035
-598.055	-200.000	0.022	0.173
-597.040	-64.898	0.316	0.130
-596.025	-60.772	-0.529	0.228
-595.011	448.009	-0.108	0.241
-593.996	694.636	-0.112	0.300
-592.982	-34.482	0.199	-0.111
-591.967	-61.050	0.100	0.043
-590.952	-200.000	-0.033	-0.312
-589.938	800.000	-0.059	-0.199
-588.923	-9.123	-0.042	0.028
-587.909	800.000	0.072	-0.206
-586.894	-72.348	-0.309	-0.116
-585.879	107.711	0.099	0.119
-584.865	-200.000	-0.050	0.242
-583.850	251.262	0.092	-0.160
-582.836	-180.459	-0.106	0.002
-581.821	800.000	-0.037	0.112
-580.806	-200.000	0.016	-0.277
-579.792	221.152	0.060	-0.097
-578.777	-200.000	0.025	-0.112
-577.763	200.302	-0.211	0.330
-576.748	-200.000	0.011	0.135
-575.733	-44.283	-0.135	-0.069
-574.719	800.000	0.068	0.231
-573.704	-60.152	-0.194	-0.084
-572.690	-157.090	0.313	-0.019
-571.675	-200.000	-0.000	-0.118
-570.661	-114.051	0.263	0.052
-569.646	-200.000	-0.034	0.174
-568.631	35.104	-0.170	-0.152
-567.617	-200.000	-0.049	0.307
-566.602	120.192	0.204	-0.257
-565.588	-200.000	0.011	0.266
-564.573	-200.000	-0.023	-0.386
-563.558	-35.892	-0.090	-0.050
-562.544	-200.000	-0.022	-0.267
-561.529	800.000	0.033	0.135
-560.515	-200.000	-0.018	-0.391
-559.500	-66.346	0.070	-0.028
-558.485	135.097	0.193	-0.255
-557.471	-20.444	-0.345	0.216
-556.456	87.661	0.178	-0.200
-555.442	545.956	-0.122	-0.296
-554.427	40.523	-0.311	-0.285
-553.412	-52.683	0.196	0.092
-552.398	-200.000	-0.031	-0.212
-551.383	101.767	-0.057	0.067
-550.369	218.910	-0.026	-0.043
-549.354	-83.802	0.222	-0.072
-548.339	800.000	0.112	0.337
-547.325	-152.416	0.060	-0.004
-546.310	430.280	0.065	0.144
-545.296	116.421	-0.127	0.158
-544.281	-128.445	0.032	0.005
-543.266	-70.528	0.213	0.082
-542.252	73.620	0.320	0.341
-541.237	-200.000	0.030	-0.171
-540.223	620.348	0.119	0.304
-539.208	800.000	0.073	-0.254
-538.193	67.506	-0.148	-0.153
-537.179	-86.053	-0.219	-0.069
-536.164	-200.000	-0.025	-0.151
-535.150	-168.791	0.374	0.014
-534.135	302.538	-0.050	-0.094
-533.121	-72.218	0.092	0.034
-532.106	-138.920	-0.176	-0.019
-531.091	800.000	-0.137	-0.529
-530.077	65.627	-0.279	-0.287
-529.062	-200.000	0.047	-0.218
-528.048	800.000	0.021	-0.088
-527.033	-127.594	-0.074	0.011
-526.018	-181.840	-0.244	-0.005
-525.004	-23.535	0.351	0.214
-523.989	35.581	0.127	-0.113
-522.975	-200.000	-0.020	-0.413
-521.960	-200.000	-0.035	-0.415
-520.945	800.000	0.100	0.301
-519.931	-76.934	-0.369	-0.131
-518.916	-200.000	0.012	-0.290
-517.902	55.415	-0.166	0.163
-516.887	563.629	0.063	-0.156
-515.872	800.000	-0.042	0.129
-514.858	125.104	-0.258	0.331
-513.843	113.233	-0.161	-0.198
-512.829	-37.086	0.179	-0.097
-511.814	-96.144	-0.237	0.064
-510.799	-37.471	0.263	-0.143
-509.785	158.603	0.123	-0.173
-508.770	256.950	-0.089	0.156
-507.756	487.869	0.044	-0.101
-506.741	-40.113	0.359	0.190
-505.726	-111.310	-0.237	-0.049
-504.712	114.923	-0.076	-0.094
-503.697	-116.121	-0.201	-0.038
-502.683	-200.000	-0.032	0.352
-501.668	-63.483	0.236	-0.099
-500.653	489.886	-0.003	0.007
-499.639	-183.647	-0.257	0.004
-498.624	194.754	-0.065	-0.100
-497.610	372.291	0.147	0.303
-496.595	134.901	0.117	-0.154
-495.581	139.913	-0.238	0.318
-494.566	79.161	0.155	-0.168
-493.551	-200.000	-0.017	0.106
-492.537	-200.000	0.025	-0.140
-491.522	800.000	0.051	0.155
-490.508	-200.000	-0.053	-0.386
-489.493	491.374	-0.116	-0.270
-488.478	-46.444	-0.219	0.109
-487.464	-200.000	-0.043	-0.390
-486.449	800.000	0.033	0.102
-485.435	-18.020	0.271	0.172
-484.420	230.999	0.151	-0.252
-483.405	-200.000	-0.001	-0.023
-482.391	32.833	-0.190	-0.167
-481.376	560.703	0.158	0.387
-480.362	-101.477	0.037	-0.009
-479.347	-106.279	0.249	-0.056
-478.332	-200.000	0.017	0.093
-477.318	-200.000	0.019	-0.173
-476.303	-22.627	-0.271	0.166
-475.289	29.879	0.430	-0.372
-474.274	-76.590	0.228	-0.081
-473.259	220.613	0.183	-0.298
-472.245	407.498	-0.086	0.185
-471.230	-200.000	-0.016	-0.107
-470.216	155.368	0.041	0.057
-469.201	-46.065	-0.161	0.080
-468.186	800.000	0.030	0.114
-467.172	800.000	0.048	0.202
-466.157	-52.561	0.558	0.261
-465.143	276.104	-0.094	0.170
-464.128	240.993	0.101	-0.170
-463.113	394.716	0.218	0.460
-462.099	-80.562	0.276	-0.093
-461.084	800.000	-0.063	0.203
-460.070	129.595	0.103	-0.133
-459.055	112.022	-0.029	-0.035
-458.040	-117.535	0.361	0.066
-457.026	47.224	0.079	0.075
-456.011	-140.509	-0.282	-0.030
-454.997	95.024	0.276	0.318
-453.982	-7.138	-0.155	0.106
-452.968	-65.340	-0.096	0.039
-451.953	-71.184	-0.283	-0.108
-450.938	-94.413	-0.294	0.081
-449.924	169.277	0.084	-0.122
-448.909	-24.760	0.355	-0.214
-447.895	-200.000	-0.039	-0.474
-446.880	42.607	-0.105	0.097
-445.865	-200.000	-0.007	-0.156
-444.851	197.332	-0.159	-0.246
-443.836	-200.000	0.017	0.141
-442.822	53.859	-0.030	0.029
-441.807	-26.215	-0.127	0.075
-440.792	33.166	-0.106	-0.093
-439.778	-152.614	0.303	0.022
-438.763	800.000	-0.022	0.096
-437.749	253.909	0.178	0.308
-436.734	784.794	0.026	0.073
-435.719	-160.432	0.176	-0.010
-434.705	-83.312	0.225	-0.073
-433.690	-4.392	0.210	-0.147
-432.676	-33.595	0.210	0.118
-431.661	-83.826	-0.321	-0.103
-430.646	105.583	-0.014	-0.017
-429.632	3.719	-0.103	-0.076
-428.617	168.402	-0.147	-0.212
-427.603	-200.000	-0.002	0.213
-426.588	64.801	-0.081	0.083
-425.573	-200.000	-0.029	-0.494
-424.559	69.666	-0.127	-0.132
-423.544	57.436	-0.133	0.132
-422.530	223.411	-0.090	0.147
-421.515	190.545	-0.157	-0.238
-420.500	220.364	-0.070	-0.114
-419.486	95.819	0.283	0.326
-418.471	-170.150	0.120	-0.004
-417.457	-100.972	0.347	-0.086
-416.442	-51.392	0.154	0.073
-415.428	367.667	-0.102	-0.209
-414.413	-115.445	-0.066	-0.013
-413.398	-78.948	0.239	-0.082
-412.384	-200.000	0.016	-0.213
-411.369	113.380	-0.201	-0.247
-410.355	-157.491	-0.078	-0.005
-409.340	491.591	0.088	-0.205
-408.325	-3.217	0.171	-0.121
-407.311	-131.074	0.118	-0.016
-406.296	-96.516	0.279	0.074
-405.282	-127.811	0.396	0.058
-404.267	800.000	-0.057	-0.201
-403.252	800.000	0.123	-0.426
-402.238	452.847	-0.099	-0.220
-401.223	-66.445	-0.359	0.144
-400.209	-200.000	0.076	-0.426
-399.194	-66.777	-0.289	0.116
-398.179	-200.000	-0.020	0.255
-397.165	226.307	0.201	-0.329
-396.150	-1.527	-0.294	-0.209
-395.136	-116.718	0.156	-0.029
-394.121	-89.183	0.228	0.068
-393.106	89.250	0.138	-0.155
-392.092	-200.000	0.036	0.230
-391.077	22.642	-0.134	0.111
-390.063	-161.509	0.122	-0.006
-389.048	31.640	0.078	-0.068
-388.033	800.000	-0.054	-0.162
-387.019	2.894	-0.346	-0.254
-386.004	-19.666	-0.269	-0.168
-384.990	123.675	0.267	0.338
-383.975	-115.049	0.152	-0.029
-382.960	-183.941	0.178	-0.003
-381.946	-159.495	-0.221	-0.012
-380.931	-200.000	0.036	-0.262
-379.917	212.022	-0.078	0.124
-378.902	-25.706	0.173	0.103
-377.888	-0.542	-0.286	0.205
-376.873	-115.977	-0.101	0.019
-375.858	41.290	0.142	0.130
-374.844	-12.086	-0.271	0.179
-373.829	-30.840	-0.231	0.132
-372.815	-125.695	-0.155	0.024
-371.800	-200.000	0.068	-0.337
-370.785	140.276	0.163	0.217
-369.771	-200.000	-0.004	-0.315
-368.756	-66.914	-0.052	-0.021
-367.742	-200.000	-0.000	-0.126
-366.727	374.375	0.132	0.272
-365.712	120.476	0.112	0.140
-364.698	227.315	-0.113	0.185
-363.683	-200.000	-0.042	-0.282
-362.669	-129.024	0.145	-0.021
-361.654	800.000	-0.030	0.120
-360.639	415.592	-0.052	-0.111
-359.625	-42.228	-0.181	-0.094
-358.610	-200.000	0.034	0.204
-357.596	456.841	-0.188	0.420
-356.581	139.174	-0.067	0.089
-355.566	9.044	-0.170	-0.129
-354.552	-12.857	0.098	-0.064
-353.537	-46.938	0.129	0.063
-352.523	800.000	-0.041	0.134
-351.508	185.703	-0.099	0.149
-350.493	18.873	-0.175	0.142
-349.479	-76.311	0.226	-0.080
-348.464	265.383	0.102	-0.179
-347.450	369.664	0.137	-0.279
-346.435	-200.000	-0.005	-0.279
-345.420	411.280	-0.090	-0.192
-344.406	-66.018	-0.170	-0.068
-343.391	800.000	-0.085	-0.284
-342.377	163.993	-0.130	-0.185
-341.362	-40.947	-0.200	0.104
-340.348	397.740	-0.075	0.158
-339.333	-40.736	-0.118	0.062
-338.318	-58.727	-0.061	0.027
-337.304	-4.944	-0.238	0.165
-336.289	-200.000	0.007	0.050
-335.275	-200.000	-0.074	0.385
-334.260	233.554	0.250	-0.415
-333.245	-200.000	0.038	-0.284
-332.231	282.051	0.059	0.106
-331.216	157.893	-0.271	0.379
-330.202	-200.000	-0.009	0.519
-329.187	-200.000	-0.006	-0.119
-328.172	-28.707	-0.054	-0.031
-327.158	-200.000	0.068	0.333
-326.143	-70.914	-0.434	0.165
-325.129	-75.969	-0.135	-0.048
-324.114	-200.000	0.021	-0.127
-323.099	65.045	-0.118	-0.121
-322.085	-200.000	0.032	-0.235
-321.070	-33.138	0.233	0.130
-320.056	-200.000	0.077	0.347
-319.041	120.075	0.119	-0.149
-318.026	153.136	0.112	0.154
-317.012	-134.238	-0.289	-0.036
-315.997	113.084	0.176	-0.215
-314.983	311.090	0.067	-0.127
-313.968	36.409	0.036	0.032
-312.953	108.271	0.213	0.256
-311.939	-200.000	0.023	-0.143
-310.924	-105.987	-0.188	0.043
-309.910	-200.000	-0.007	-0.147
-308.895	-119.727	-0.152	-0.026
-307.880	298.296	-0.053	0.098
-306.866	-120.916	0.265	-0.045
-305.851	-114.211	0.175	-0.034
-304.837	433.969	0.061	-0.133
-303.822	-0.762	0.142	-0.101
-302.807	162.781	-0.115	-0.162
-301.793	-122.954	-0.374	-0.061
-300.778	314.525	0.224	0.424
-299.764	23.919	0.077	0.064
-298.749	88.470	-0.200	0.223
-297.735	118.134	-0.190	0.236
-296.720	664.668	-0.051	0.132
-295.705	130.418	0.107	0.138
-294.691	-200.000	-0.021	-0.192
-293.676	595.706	-0.079	-0.197
-292.662	-4.899	-0.323	-0.224
-291.647	-200.000	-0.019	0.168
-290.632	207.713	-0.084	-0.133
-289.618	480.291	-0.066	0.150
-288.603	-53.175	-0.223	0.103
-287.589	-28.591	0.080	-0.046
-286.574	-200.000	0.043	0.461
-285.559	-200.000	-0.036	0.214
-284.545	-128.350	-0.126	0.018
-283.530	800.000	0.097	-0.336
-282.516	-151.151	-0.243	-0.018
-281.501	413.580	0.034	0.073
-280.486	543.389	-0.221	0.531
-279.472	146.528	-0.090	-0.121
-278.457	-90.595	0.316	0.092
-277.443	-39.635	0.071	-0.037
-276.428	-100.131	0.304	-0.076
-275.413	13.682	-0.231	-0.181
-274.399	-95.246	-0.144	-0.039
-273.384	-31.152	0.152	0.086
-272.370	-200.000	0.002	0.343
-271.355	-41.579	-0.176	-0.091
-270.340	-132.470	0.326	-0.042
-269.326	-200.000	0.002	-0.020
-268.311	154.136	0.087	-0.120
-267.297	-29.660	0.318	0.183
-266.282	-16.798	-0.141	0.089
-265.267	-70.014	0.123	0.047
-264.253	398.466	0.020	-0.042
-263.238	-178.271	-0.367	-0.009
-262.224	-55.704	0.156	0.070
-261.209	328.189	0.056	0.108
-260.195	-200.000	-0.091	0.584
-259.180	418.261	-0.082	0.175
-258.165	-105.070	0.213	-0.049
-257.151	321.297	-0.089	0.170
-256.136	-150.906	-0.212	-0.016
-255.122	59.008	-0.182	-0.180
-254.107	-200.000	-0.062	0.302
-253.092	164.324	-0.163	0.231
-252.078	-167.078	0.134	-0.005
-251.063	-65.101	-0.200	0.081
-250.049	-5.182	0.056	-0.039
-249.034	604.002	0.055	0.138
-248.019	357.421	-0.072	0.145
-247.005	29.763	-0.088	0.075
-245.990	38.657	0.173	-0.155
-244.976	-147.204	0.231	-0.020
-243.961	-104.388	-0.335	-0.078
-242.946	-20.890	-0.234	0.144
-241.932	-125.995	0.311	0.047
-240.917	6.984	-0.048	-0.036
-239.903	-82.054	0.365	-0.120
-238.888	562.245	-0.124	-0.301
-237.873	5.995	0.102	0.076
-236.859	85.901	0.182	-0.201
-235.844	-85.690	-0.067	0.021
-234.830	-102.457	-0.185	-0.045
-233.815	133.484	0.308	0.400
-232.800	51.366	0.022	0.021
-231.786	-35.150	0.113	-0.062
-230.771	800.000	-0.065	0.266
-229.757	-116.388	-0.268	-0.050
-228.742	68.931	-0.324	0.334
-227.727	787.742	-0.051	-0.140
-226.713	-200.000	0.015	-0.077
-225.698	-107.131	0.288	0.064
-224.684	-164.380	0.146	-0.007
-223.669	-108.562	0.281	-0.061
-222.655	-22.717	0.168	-0.102
-221.640	-103.855	0.139	-0.033
-220.625	86.849	0.171	0.190
-219.611	10.028	0.189	-0.144
-218.596	-200.000	0.021	0.148
-217.582	-200.000	0.006	0.224
-216.567	-13.629	0.024	0.016
-215.552	-30.897	0.241	0.137
-214.538	-52.243	0.115	-0.053
-213.523	-23.931	-0.083	0.050
-212.509	-86.349	0.225	-0.069
-211.494	55.808	-0.024	0.023
-210.479	232.616	-0.145	-0.239
-209.465	240.955	-0.184	0.309
-208.450	800.000	-0.069	0.211
-207.436	217.176	-0.037	-0.058
-206.421	-19.439	-0.151	-0.094
-205.406	376.744	-0.077	0.158
-204.392	-20.888	0.101	-0.062
-203.377	-185.922	-0.111	0.002
-202.363	-59.841	-0.087	0.037
-201.348	800.000	0.049	0.173
-200.333	-113.238	0.032	-0.006
-199.319	-200.000	-0.020	-0.148
-198.304	-118.778	0.317	-0.056
-197.290	800.000	-0.130	-0.436
-196.275	-200.000	-0.092	0.470
-195.260	-137.627	0.425	-0.048
-194.246	800.000	-0.043	-0.186
-193.231	800.000	0.094	0.287
-192.217	-104.623	-0.088	0.020
-191.202	140.582	-0.067	0.089
-190.187	-78.990	0.131	0.045
-189.173	800.000	-0.140	-0.404
-188.158	-200.000	0.040	-0.178
-187.144	-200.000	-0.030	-0.309
-186.129	364.683	-0.082	-0.166
-185.114	-92.445	0.174	-0.049
-184.100	-102.270	0.140	-0.034
-183.085	104.177	0.097	0.114
-182.071	-100.545	-0.194	0.048
-181.056	-138.557	-0.081	-0.009
-180.042	800.000	-0.057	-0.229
-179.027	307.650	-0.118	0.221
-178.012	-161.306	0.339	0.018
-176.998	25.865	-0.201	-0.168
-175.983	763.483	-0.070	-0.191
-174.969	2.519	-0.058	0.042
-173.954	-172.526	-0.432	-0.014
-172.939	-105.419	-0.150	-0.034
-171.925	800.000	-0.017	0.066
-170.910	220.668	0.030	-0.048
-169.896	-87.077	-0.185	0.056
-168.881	-37.634	0.266	0.142
-167.866	114.147	-0.117	-0.142
-166.852	61.040	0.165	-0.164
-165.837	-200.000	-0.054	0.315
-164.823	-200.000	-0.039	-0.342
-163.808	-200.000	-0.001	-0.064
-162.793	128.627	-0.245	0.312
-161.779	205.392	0.128	-0.199
-160.764	-200.000	0.007	-0.383
-159.750	10.276	-0.036	0.027
-158.735	779.217	-0.059	0.162
-157.720	-95.710	0.144	-0.039
-156.706	117.717	0.048	0.059
-155.691	-105.353	-0.163	-0.037
-154.677	-52.121	-0.083	-0.039
-153.662	-126.595	-0.231	0.034
-152.647	7.827	0.137	0.102
-151.633	147.917	-0.158	0.214
-150.618	555.846	0.081	-0.196
-149.604	-200.000	0.026	0.239
-148.589	-200.000	0.087	0.398
-147.574	6.016	0.296	0.219
-146.560	25.214	0.197	0.164
-145.545	-200.000	0.006	0.028
-144.531	230.917	-0.100	0.164
-143.516	800.000	-0.056	-0.168
-142.502	-151.713	0.304	-0.022
-141.487	800.000	-0.023	0.087
-140.472	227.538	-0.151	0.245
-139.458	-200.000	0.017	0.197
-138.443	-56.051	0.266	0.118
-137.429	-82.181	-0.255	0.083
-136.414	800.000	0.015	0.047
-135.399	-126.496	0.304	-0.045
-134.385	522.784	-0.017	0.039
-133.370	-130.837	0.421	0.056
-132.356	164.490	0.053	-0.075
-131.341	20.022	-0.137	-0.111
-130.326	-82.685	0.293	-0.095
-129.312	-96.918	-0.070	0.018
-128.297	91.765	0.121	0.136
-127.283	-79.570	-0.088	0.030
-126.268	49.971	-0.075	-0.071
-125.253	160.396	0.180	-0.251
-124.239	-200.000	0.030	0.363
-123.224	-38.459	-0.332	0.175
-122.210	248.208	-0.148	0.251
-121.195	467.171	0.033	-0.073
-120.180	6.215	0.108	-0.080
-119.166	26.660	0.137	0.115
-118.151	-200.000	-0.051	0.334
-117.137	41.193	0.083	-0.075
-116.122	800.000	0.026	0.103
-115.107	-23.031	0.122	0.074
-114.093	-87.679	-0.204	-0.062
-113.078	-200.000	0.026	0.166
-112.064	56.194	0.163	0.158
-111.049	-91.895	-0.304	-0.086
-110.034	570.351	0.085	0.207
-109.020	-83.109	-0.200	0.064
-108.005	-146.283	-0.179	-0.016
-106.991	566.432	0.185	0.448
-105.976	416.729	0.020	0.043
-104.962	-133.583	-0.376	-0.047
-103.947	-69.198	-0.245	0.094
-102.932	45.400	-0.220	0.203
-101.918	49.357	0.191	-0.179
-100.903	339.476	-0.174	0.340
-99.889	-15.270	0.211	-0.135
-98.874	-200.000	0.006	0.029
-97.859	-148.253	-0.286	-0.024
-96.845	-118.758	0.365	0.064
-95.830	-190.074	0.241	0.003
-94.816	-49.491	-0.353	-0.168
-93.801	70.796	0.068	-0.070
-92.786	-66.698	-0.223	0.088
-91.772	-36.880	-0.181	-0.097
-90.757	800.000	0.114	-0.420
-89.743	-5.484	0.268	-0.184
-88.728	-17.041	-0.202	0.127
-87.713	800.000	0.079	0.259
-86.699	379.423	0.037	-0.075
-85.684	800.000	0.073	0.264
-84.670	122.599	-0.014	-0.017
-83.655	51.193	-0.102	0.097
-82.640	-78.289	-0.188	-0.064
-81.626	75.925	0.146	0.154
-80.611	800.000	-0.032	-0.129
-79.597	-150.680	0.107	0.008
-78.582	26.322	0.174	0.145
-77.567	146.630	-0.205	-0.275
-76.553	532.705	-0.108	-0.255
-75.538	462.534	-0.053	-0.119
-74.524	-129.462	-0.033	-0.005
-73.509	-60.479	-0.062	-0.026
-72.494	-200.000	-0.009	-0.042
-71.480	-2.026	-0.015	0.010
-70.465	-200.000	0.075	-0.339
-69.451	-165.647	-0.148	0.006
-68.436	-200.000	-0.002	-0.175
-67.422	-200.000	0.006	0.239
-66.407	-45.940	-0.262	-0.129
-65.392	-83.174	0.215	-0.069
-64.378	-76.651	0.322	-0.113
-63.363	187.049	-0.250	0.371
-62.349	-2.397	-0.128	0.090
-61.334	85.736	-0.547	-0.600
-60.319	19.704	0.326	0.262
-59.305	307.494	-0.407	-0.756
-58.290	264.735	0.370	0.642
-57.276	257.859	0.664	1.140
-56.261	-200.000	79.262	505.796
-55.246	471.028	1368.457	3069.335
-54.232	140.730	2616.865	3447.230
-53.217	102.660	2408.892	2810.235
-52.203	45.116	2147.598	1973.238
-51.188	40.411	2054.516	1843.992
-50.173	38.880	2034.453	1811.785
-49.159	50.983	2075.175	1961.037
-48.144	54.512	2095.647	2013.230
-47.130	41.409	2058.648	1856.707
-46.115	38.844	2047.095	1822.423
-45.100	38.690	2044.602	1818.705
-44.086	38.705	2041.853	1816.326
-43.071	38.628	2039.949	1813.846
-42.057	38.681	2037.613	1812.187
-41.042	38.673	2035.415	1810.080
-40.027	38.702	2033.308	1808.408
-39.013	38.678	2031.609	1806.604
-37.998	38.793	2029.039	1805.301
-36.984	38.732	2027.323	1803.144
-35.969	38.802	2025.464	1802.065
-34.954	38.679	2024.406	1799.917
-33.940	38.775	2022.281	1798.836
-32.925	38.761	2020.971	1797.477
-31.911	38.796	2018.942	1795.920
-30.896	38.792	2017.088	1794.163
-29.881	38.797	2015.742	1792.939
-28.867	38.826	2013.838	1791.438
-27.852	38.817	2012.306	1789.928
-26.838	38.927	2009.620	1788.468
-25.823	38.779	2008.219	1785.800
-24.809	38.729	2006.830	1784.040
-23.794	38.820	2004.906	1783.089
-22.779	38.737	2003.107	1780.662
-21.765	38.729	2001.329	1778.937
-20.750	38.792	1999.425	1777.749
-19.736	38.784	1997.892	1776.239
-18.721	38.766	1996.362	1774.648
-17.706	38.840	1994.566	1773.647
-16.692	38.711	1993.293	1771.279
-15.677	38.753	1991.090	1769.628
-14.663	38.815	1989.576	1768.771
-13.648	38.800	1988.358	1767.483
-12.633	38.853	1987.457	1767.092
-11.619	38.837	1985.844	1765.442
-10.604	38.750	1984.857	1763.718
-9.590	38.838	1983.053	1762.835
-8.575	38.789	1981.808	1761.220
-7.560	38.732	1980.665	1759.614
-6.546	38.898	1978.849	1759.426
-5.531	38.888	1977.372	1757.951
-4.517	38.835	1976.079	1756.256
-3.502	38.828	1975.044	1755.202
-2.487	38.789	1973.849	1753.727
-1.473	38.784	1972.985	1752.845
-0.458	39.050	1968.541	1751.198
0.556	37.895	1950.334	1730.167
1.571	34.274	1931.098	1681.067
2.586	29.511	1951.424	1656.004
3.600	27.519	1987.598	1668.331
4.615	26.321	1983.453	1653.747
5.629	20.204	1876.435	1511.255
6.644	8.189	1743.827	1306.457
7.659	1.209	1698.694	1216.690
8.673	0.472	1694.491	1207.678
9.688	0.435	1692.899	1206.140
10.702	0.383	1691.577	1204.679
11.717	0.230	1689.185	1201.645
12.731	0.836	1688.289	1205.736
13.746	8.338	1705.066	1277.821
14.761	16.943	1722.545	1360.102
15.775	18.498	1722.726	1372.583
16.790	17.255	1718.915	1359.486
17.804	16.162	1715.596	1348.010
18.819	15.128	1712.534	1337.239
19.834	14.495	1710.315	1330.340
20.848	14.271	1708.234	1326.812
21.863	13.905	1706.602	1322.516
22.877	13.669	1704.943	1319.234
23.892	13.524	1703.331	1316.721
24.907	13.296	1702.712	1314.310
25.921	13.296	1701.477	1313.244
26.936	13.372	1700.103	1312.666
27.950	13.394	1699.305	1312.111
28.965	13.338	1699.177	1311.454
29.980	13.370	1698.295	1310.910
30.994	13.494	1697.091	1310.848
32.009	13.573	1695.901	1310.432
33.023	13.586	1695.191	1309.868
34.038	13.557	1694.636	1309.094
35.053	13.588	1693.417	1308.281
36.067	13.524	1692.075	1306.630
37.082	13.494	1691.016	1305.460
38.096	13.598	1689.901	1305.303
39.111	13.558	1689.208	1304.337
40.126	13.552	1688.606	1303.706
41.140	13.568	1687.560	1302.912
42.155	13.433	1686.489	1300.907
43.169	13.401	1684.710	1299.172
44.184	13.398	1683.802	1298.328
45.199	13.317	1682.491	1296.573
46.213	13.303	1681.814	1295.822
47.228	13.332	1680.528	1294.941
48.242	13.420	1679.014	1294.353
49.257	13.461	1677.865	1293.669
50.271	13.432	1676.815	1292.518
51.286	13.387	1675.511	1291.054
52.301	13.435	1674.238	1290.328
53.315	13.451	1672.780	1289.214
54.330	13.480	1671.042	1287.993
55.344	13.393	1669.410	1285.940
56.359	13.461	1667.855	1285.157
57.374	13.476	1666.879	1284.408
58.388	13.430	1665.849	1283.147
59.403	13.302	1664.878	1281.291
60.417	13.310	1663.139	1279.898
61.432	13.217	1661.883	1278.106
62.447	13.376	1660.487	1278.144
63.461	13.300	1659.628	1276.784
64.476	13.306	1658.528	1275.871
65.490	13.300	1656.932	1274.486
66.505	13.304	1656.179	1273.821
67.520	13.267	1655.082	1272.582
68.534	13.230	1654.189	1271.497
69.549	13.329	1652.696	1270.995
70.563	13.355	1651.761	1270.364
71.578	13.355	1650.278	1269.112
72.593	13.298	1649.282	1267.801
73.607	13.308	1647.859	1266.667
74.622	13.238	1646.859	1265.251
75.636	13.124	1646.269	1263.810
76.651	13.209	1645.151	1263.492
77.666	13.209	1644.210	1262.660
78.680	13.176	1642.896	1261.289
79.695	13.250	1642.172	1261.182
80.709	13.278	1640.739	1260.181
81.724	13.214	1640.476	1259.386
82.739	13.353	1639.211	1259.362
83.753	13.289	1638.529	1258.234
84.768	13.387	1637.211	1257.856
85.782	13.475	1636.296	1257.712
86.797	13.550	1635.891	1257.863
87.812	13.426	1634.709	1255.901
88.826	13.437	1633.189	1254.707
89.841	13.331	1632.370	1253.162
90.855	13.405	1631.256	1252.754
91.870	13.488	1630.054	1252.346
92.884	13.529	1629.177	1251.875
93.899	13.515	1628.329	1251.008
94.914	13.455	1627.665	1249.930
95.928	13.555	1625.428	1248.853
96.943	13.498	1624.397	1247.526
97.957	13.494	1623.261	1246.513
98.972	13.497	1621.469	1245.049
99.987	13.450	1620.512	1243.849
101.001	13.532	1618.656	1242.930
102.016	13.527	1616.993	1241.503
103.030	13.493	1615.617	1240.088
104.045	13.450	1615.142	1239.287
105.060	13.566	1613.084	1238.469
106.074	13.542	1611.689	1237.105
107.089	13.386	1610.761	1235.121
108.103	13.398	1609.282	1233.966
109.118	13.369	1607.423	1232.216
110.133	13.355	1605.893	1230.828
111.147	13.293	1605.152	1229.694
112.162	13.402	1603.721	1229.298
113.176	13.381	1601.996	1227.715
114.191	13.482	1600.725	1227.373
115.206	13.419	1599.719	1226.032
116.220	13.438	1598.357	1225.020
117.235	13.487	1596.671	1223.977
118.249	13.422	1595.570	1222.545
119.264	13.478	1594.165	1221.779
120.279	13.393	1593.227	1220.324
121.293	13.368	1591.426	1218.654
122.308	13.316	1589.895	1216.988
123.322	13.355	1588.922	1216.422
124.337	13.420	1586.754	1215.136
125.352	13.400	1585.720	1214.084
126.366	13.327	1584.958	1212.861
127.381	13.313	1583.808	1211.768
128.395	13.401	1582.551	1211.348
129.410	13.411	1580.893	1210.042
130.424	13.435	1579.537	1209.071
131.439	13.467	1578.436	1208.356
132.454	13.439	1577.130	1207.048
133.468	13.481	1575.281	1205.827
134.483	13.471	1574.147	1204.780
135.497	13.494	1572.277	1203.409
136.512	13.542	1571.258	1202.876
137.527	13.562	1569.643	1201.674
138.541	13.519	1568.403	1200.308
139.556	13.497	1567.316	1199.208
140.570	13.529	1565.869	1198.232
141.585	13.574	1564.621	1197.498
142.600	13.608	1563.096	1196.466
143.614	13.619	1562.012	1195.610
144.629	13.661	1560.275	1194.477
145.643	13.631	1558.961	1193.151
146.658	13.636	1557.990	1192.338
147.673	13.701	1556.002	1191.180
148.687	13.573	1555.198	1189.536
149.702	13.541	1553.370	1187.806
150.716	13.522	1551.826	1186.386
151.731	13.661	1550.014	1185.887
152.746	13.514	1549.195	1184.102
153.760	13.548	1547.609	1183.029
154.775	13.659	1546.302	1182.720
155.789	13.616	1545.029	1181.333
156.804	13.763	1543.551	1181.146
157.819	13.665	1542.519	1179.552
158.833	13.713	1541.033	1178.654
159.848	13.759	1539.691	1177.852
160.862	13.803	1538.644	1177.256
161.877	13.795	1537.037	1175.868
162.892	13.814	1536.330	1175.354
163.906	13.767	1534.679	1173.660
164.921	13.669	1533.813	1172.199
165.935	13.656	1532.583	1171.065
166.950	13.695	1531.646	1170.522
167.964	13.775	1530.014	1169.734
168.979	13.721	1529.381	1168.761
169.994	13.782	1528.184	1168.177
171.008	13.831	1526.753	1167.326
172.023	13.749	1526.476	1166.428
173.037	13.806	1525.251	1165.793
174.052	13.860	1523.828	1164.980
175.067	13.867	1522.740	1164.098
176.081	13.807	1521.266	1162.448
177.096	13.867	1519.889	1161.712
178.110	13.836	1518.250	1160.140
179.125	13.755	1517.257	1158.707
180.140	13.886	1516.071	1158.613
181.154	13.923	1514.711	1157.733
182.169	13.881	1514.496	1157.175
183.183	13.906	1512.868	1155.998
184.198	13.865	1512.146	1155.059
185.213	13.902	1510.879	1154.249
186.227	14.062	1509.449	1154.164
187.242	13.978	1508.619	1152.847
188.256	14.067	1507.339	1152.382
189.271	14.090	1506.237	1151.595
190.286	14.154	1505.047	1151.030
191.300	14.047	1504.212	1149.547
192.315	13.927	1503.063	1147.740
193.329	13.885	1501.686	1146.294
194.344	13.907	1500.289	1145.281
195.359	13.959	1499.262	1144.751
196.373	13.996	1497.940	1143.899
197.388	14.076	1497.283	1143.841
198.402	14.038	1496.490	1142.874
199.417	14.061	1495.580	1142.239
200.432	14.125	1494.231	1141.547
201.446	14.250	1492.993	1141.358
202.461	14.231	1492.007	1140.373
203.475	14.228	1491.025	1139.497
204.490	14.244	1489.852	1138.612
205.504	14.283	1488.614	1137.828
206.519	14.224	1487.766	1136.676
207.534	14.302	1486.302	1135.992
208.548	14.182	1485.651	1134.573
209.563	14.281	1484.130	1133.985
210.577	14.198	1483.300	1132.690
211.592	14.346	1482.056	1132.646
212.607	14.357	1481.268	1132.014
213.621	14.345	1480.726	1131.419
214.636	14.397	1479.591	1130.804
215.650	14.495	1478.573	1130.593
216.665	14.418	1477.601	1129.227
217.680	14.394	1476.994	1128.504
218.694	14.456	1476.487	1128.435
219.709	14.538	1475.342	1128.017
220.723	14.527	1473.843	1126.693
221.738	14.457	1473.260	1125.678
222.753	14.461	1472.109	1124.727
223.767	14.496	1471.174	1124.143
224.782	14.513	1470.093	1123.337
225.796	14.486	1469.747	1122.792
226.811	14.587	1468.720	1122.587
227.826	14.602	1467.568	1121.705
228.840	14.507	1467.146	1120.644
229.855	14.590	1465.796	1120.070
230.869	14.516	1464.908	1118.801
231.884	14.587	1464.094	1118.551
232.899	14.588	1462.645	1117.357
233.913	14.524	1461.683	1116.090
234.928	14.534	1460.461	1115.129
235.942	14.466	1459.349	1113.729
236.957	14.560	1457.870	1113.126
237.972	14.588	1456.810	1112.403
238.986	14.490	1455.855	1110.924
240.001	14.598	1455.357	1111.165
241.015	14.605	1453.468	1109.672
242.030	14.605	1452.312	1108.691
243.045	14.642	1451.667	1108.345
244.059	14.601	1451.268	1107.673
245.074	14.704	1449.910	1107.217
246.088	14.672	1449.502	1106.596
247.103	14.713	1448.439	1105.961
248.117	14.772	1447.255	1105.347
249.132	14.862	1446.452	1105.234
250.147	14.820	1445.927	1104.458
251.161	14.905	1445.366	1104.488
252.176	14.929	1444.533	1103.916
253.190	14.954	1444.023	1103.591
254.205	14.915	1443.106	1102.536
255.220	15.055	1442.209	1102.678
256.234	15.095	1441.349	1102.187
257.249	14.979	1440.644	1100.787
258.263	15.082	1439.327	1100.360
259.278	15.166	1438.263	1100.002
260.293	15.132	1437.640	1099.204
261.307	15.128	1436.692	1098.355
262.322	15.227	1436.396	1098.676
263.336	15.124	1435.530	1097.245
264.351	15.263	1434.088	1096.955
265.366	15.253	1433.068	1096.014
266.380	15.170	1432.494	1094.934
267.395	15.198	1431.623	1094.353
268.409	15.299	1430.173	1093.805
269.424	15.246	1429.787	1093.073
270.439	15.108	1429.116	1091.561
271.453	15.230	1427.372	1090.929
272.468	15.305	1426.562	1090.702
273.482	15.330	1425.658	1090.076
274.497	15.253	1424.992	1088.965
275.512	15.376	1423.768	1088.733
276.526	15.237	1423.260	1087.346
277.541	15.342	1422.230	1087.147
278.555	15.318	1421.613	1086.423
279.570	15.348	1420.501	1085.670
280.585	15.338	1419.712	1084.905
281.599	15.328	1419.051	1084.239
282.614	15.389	1418.268	1083.938
283.628	15.402	1416.696	1082.726
284.643	15.456	1415.741	1082.247
285.657	15.375	1414.381	1080.590
286.672	15.398	1413.906	1080.282
287.687	15.443	1412.901	1079.710
288.701	15.384	1411.963	1078.514
289.716	15.464	1410.830	1078.070
290.730	15.518	1410.318	1077.932
291.745	15.512	1409.094	1076.857
292.760	15.497	1408.405	1076.140
293.774	15.531	1406.753	1075.004
294.789	15.515	1406.226	1074.404
295.803	15.666	1405.066	1074.388
296.818	15.674	1404.437	1073.858
297.833	15.702	1403.061	1072.894
298.847	15.645	1402.455	1071.968
299.862	15.601	1401.515	1070.876
300.876	15.618	1400.611	1070.200
301.891	15.558	1399.830	1069.125
302.906	15.613	1398.499	1068.367
303.920	15.772	1397.845	1068.779
304.935	15.787	1397.178	1068.274
305.949	15.757	1396.415	1067.401
306.964	15.895	1395.509	1067.493
307.979	15.875	1394.679	1066.635
308.993	15.849	1393.330	1065.343
310.008	15.929	1392.600	1065.201
311.022	15.988	1391.393	1064.555
312.037	15.886	1390.715	1063.299
313.052	15.888	1389.695	1062.435
314.066	15.953	1388.768	1062.045
315.081	15.922	1387.333	1060.658
316.095	15.847	1386.481	1059.439
317.110	15.873	1385.335	1058.631
318.125	15.932	1384.312	1058.131
319.139	15.836	1383.904	1057.122
320.154	15.859	1382.740	1056.283
321.168	15.779	1382.064	1055.167
322.183	15.911	1380.999	1055.092
323.197	15.876	1380.165	1054.141
324.212	15.955	1379.338	1053.908
325.227	15.998	1377.832	1052.933
326.241	15.937	1377.421	1052.148
327.256	16.015	1376.589	1051.906
328.270	15.962	1375.757	1050.845
329.285	15.981	1374.630	1050.011
330.300	15.926	1373.833	1048.967
331.314	15.966	1372.646	1048.217
332.329	16.039	1371.751	1047.891
333.343	15.957	1371.091	1046.784
334.358	16.093	1369.936	1046.654
335.373	16.126	1369.330	1046.309
336.387	16.058	1368.682	1045.295
337.402	16.196	1367.853	1045.428
338.416	16.148	1367.209	1044.543
339.431	16.189	1366.722	1044.335
340.446	16.222	1365.849	1043.781
341.460	16.266	1364.669	1043.052
342.475	16.278	1364.110	1042.608
343.489	16.326	1363.390	1042.266
344.504	16.370	1361.909	1041.309
345.519	16.328	1361.193	1040.413
346.533	16.304	1360.152	1039.379
347.548	16.374	1359.533	1039.241
348.562	16.426	1358.752	1038.873
349.577	16.448	1357.664	1038.083
350.592	16.413	1357.137	1037.378
351.606	16.387	1355.947	1036.215
352.621	16.476	1354.832	1035.818
353.635	16.327	1354.011	1034.184
354.650	16.303	1353.464	1033.529
355.665	16.360	1351.925	1032.608
356.679	16.371	1351.071	1031.933
357.694	16.420	1349.659	1031.061
358.708	16.434	1348.629	1030.270
359.723	16.477	1347.592	1029.649
360.738	16.509	1346.732	1029.095
361.752	16.560	1345.283	1028.209
362.767	16.455	1344.778	1027.093
363.781	16.551	1343.890	1026.906
364.796	16.532	1343.096	1026.090
365.810	16.529	1342.378	1025.432
366.825	16.603	1341.520	1025.140
367.840	16.710	1340.635	1025.018
368.854	16.671	1339.951	1024.167
369.869	16.677	1339.850	1024.034
370.883	16.841	1338.893	1024.205
371.898	16.795	1338.024	1023.171
372.913	16.751	1337.473	1022.392
373.927	16.747	1336.196	1021.304
374.942	16.859	1335.041	1021.008
375.956	16.823	1334.426	1020.229
376.971	16.818	1334.035	1019.811
377.986	16.845	1333.078	1019.150
379.000	16.906	1332.170	1018.733
380.015	16.926	1331.338	1018.125
381.029	16.866	1331.187	1017.559
382.044	16.902	1330.327	1017.031
383.059	16.942	1329.569	1016.601
384.073	16.929	1328.811	1015.851
385.088	16.953	1328.266	1015.487
386.102	16.992	1327.000	1014.662
387.117	17.049	1326.671	1014.664
388.132	17.073	1325.490	1013.816
389.146	16.977	1324.817	1012.635
390.161	16.984	1324.016	1011.976
391.175	16.960	1323.378	1011.258
392.190	17.058	1321.895	1010.616
393.205	17.063	1321.236	1010.054
394.219	17.075	1320.180	1009.230
395.234	17.159	1318.794	1008.576
396.248	17.056	1317.961	1007.238
397.263	17.037	1316.607	1006.005
398.278	17.093	1315.435	1005.348
399.292	17.109	1314.463	1004.616
400.307	17.020	1313.705	1003.419
401.321	16.987	1312.549	1002.254
402.336	17.114	1311.003	1001.733
403.350	17.131	1309.972	1000.958
404.365	17.083	1309.004	999.847
405.380	17.063	1308.551	999.296
406.394	17.085	1307.671	998.661
407.409	17.175	1307.051	998.632
408.423	17.159	1306.515	998.038
409.438	17.209	1305.856	997.743
410.453	17.338	1304.486	997.365
411.467	17.346	1303.934	996.899
412.482	17.391	1303.591	996.813
413.496	17.434	1302.674	996.271
414.511	17.427	1302.014	995.637
415.526	17.386	1301.334	994.792
416.540	17.463	1300.533	994.543
417.555	17.533	1299.288	993.910
418.569	17.529	1299.070	993.634
419.584	17.437	1299.006	992.958
420.599	17.523	1298.055	992.647
421.613	83.379	1334.992	1399.229
422.628	82.397	1340.354	1399.333
