DTS Sentinel unit serial number:	SN413079Multiplexer serial number:	ORYXHardware model number:	OX4-SRSoftware version number:	ORYX F/W v4.00 Oryx Data Collector v3.7.2.0data status	okinstallation	princeton_trtdifferential loss correction	single-endedforward channel	channel 4reverse channel	N/Adate	2019/09/16time	08:25:34forward acquisition time	60.00reverse acquisition time	0.00gamma	496.2192k internal	0.2313k external	0.2313temperature offset calibration	0.9977default loss term (dB/km)	0.3790temperature slope calibration	1.0000multiplexer offset coefficient	1.0000multiplexer slope coefficient	1.0000fibre end	0.00T internal ref (°C)	29.19T ext. ref 1 (°C)	11.88T ext. ref 2 (°C)	25.64length (m)	temperature (°C)	Stokes	anti-Stokes-747.200	262.162	0.192	0.338
-746.185	522.378	-0.135	0.321
-745.171	213.219	0.162	0.259
-744.156	-133.044	0.032	-0.004
-743.142	-169.982	-0.224	-0.008
-742.127	284.726	-0.019	0.034
-741.112	-52.985	-0.094	-0.044
-740.098	155.131	-0.158	-0.221
-739.083	47.528	0.280	0.264
-738.069	749.489	-0.099	0.272
-737.054	180.822	0.097	0.145
-736.039	-67.759	-0.320	-0.127
-735.025	-109.376	0.400	0.086
-734.010	-47.841	-0.255	-0.125
-732.996	-68.344	-0.246	0.097
-731.981	-13.081	-0.234	-0.154
-730.966	114.618	-0.308	-0.380
-729.952	131.403	0.170	-0.222
-728.937	-156.004	-0.176	0.011
-727.923	283.346	-0.249	-0.453
-726.908	-183.988	-0.150	0.003
-725.894	72.468	-0.102	0.108
-724.879	-56.850	0.127	-0.057
-723.864	-200.000	-0.003	-0.058
-722.850	800.000	0.022	0.068
-721.835	-22.233	-0.103	-0.063
-720.821	-200.000	0.027	0.168
-719.806	-149.389	-0.204	0.016
-718.791	-0.980	0.031	0.022
-717.777	-200.000	0.060	0.348
-716.762	-175.403	0.306	0.008
-715.748	-200.000	-0.003	0.036
-714.733	-200.000	-0.001	0.050
-713.718	78.685	0.299	0.324
-712.704	800.000	-0.076	-0.222
-711.689	-200.000	0.006	0.138
-710.675	-91.678	0.283	-0.082
-709.660	-200.000	0.036	-0.212
-708.645	164.664	0.100	0.143
-707.631	7.215	-0.027	0.020
-706.616	29.963	0.303	-0.261
-705.602	-72.383	-0.238	0.089
-704.587	14.957	0.124	0.098
-703.572	-200.000	-0.019	-0.102
-702.558	71.186	-0.201	0.211
-701.543	800.000	-0.054	-0.155
-700.529	190.119	-0.085	-0.129
-699.514	15.884	0.025	-0.020
-698.499	800.000	-0.082	0.294
-697.485	-146.496	0.048	-0.004
-696.470	24.167	-0.104	0.087
-695.456	62.203	0.041	-0.041
-694.441	-200.000	-0.037	0.170
-693.426	12.422	0.235	-0.183
-692.412	248.946	-0.042	0.071
-691.397	-0.871	-0.127	0.091
-690.383	-58.068	0.037	-0.016
-689.368	-132.857	-0.162	-0.021
-688.354	800.000	0.091	-0.328
-687.339	-200.000	-0.030	0.136
-686.324	-153.242	-0.247	-0.017
-685.310	-200.000	-0.012	0.093
-684.295	-144.771	-0.127	-0.012
-683.281	800.000	-0.184	-0.542
-682.266	412.808	0.123	-0.265
-681.251	800.000	-0.072	-0.249
-680.237	-117.796	-0.217	0.039
-679.222	636.375	0.045	-0.115
-678.208	-200.000	-0.003	-0.215
-677.193	-126.868	0.241	-0.036
-676.178	-200.000	0.030	-0.143
-675.164	800.000	0.081	-0.244
-674.149	-65.811	-0.231	0.094
-673.135	-200.000	-0.025	0.164
-672.120	-88.061	0.166	-0.051
-671.105	-171.396	-0.306	0.010
-670.091	-125.173	0.282	0.044
-669.076	800.000	-0.074	0.260
-668.062	10.342	-0.436	0.335
-667.047	-77.056	0.044	0.016
-666.032	-109.894	0.214	0.045
-665.018	152.417	-0.064	-0.089
-664.003	-99.088	0.164	0.042
-662.989	56.644	-0.204	-0.200
-661.974	800.000	-0.054	0.185
-660.959	-200.000	0.027	0.302
-659.945	-63.839	0.112	0.046
-658.930	-63.913	-0.250	0.103
-657.916	800.000	0.067	-0.202
-656.901	202.733	0.140	0.218
-655.886	-17.617	0.323	-0.205
-654.872	800.000	0.085	-0.303
-653.857	-200.000	0.018	-0.321
-652.843	800.000	-0.104	-0.350
-651.828	800.000	0.094	-0.332
-650.814	6.152	-0.136	0.102
-649.799	212.320	0.098	-0.156
-648.784	-51.099	0.184	-0.087
-647.770	-50.672	-0.163	0.077
-646.755	-71.938	-0.076	0.029
-645.741	46.027	-0.125	-0.116
-644.726	-135.676	0.181	-0.022
-643.711	-7.453	-0.075	-0.051
-642.697	800.000	-0.097	-0.274
-641.682	800.000	-0.091	0.392
-640.668	35.817	0.163	0.145
-639.653	486.760	-0.053	-0.123
-638.638	8.802	0.321	0.244
-637.624	-121.106	-0.441	0.075
-636.609	-200.000	0.074	-0.384
-635.595	-117.330	-0.032	0.006
-634.580	-200.000	0.032	0.155
-633.565	-79.801	-0.318	0.108
-632.551	0.098	-0.227	-0.163
-631.536	-42.522	-0.251	-0.129
-630.522	602.914	-0.117	-0.293
-629.507	147.302	0.048	-0.066
-628.492	55.383	-0.129	-0.126
-627.478	-114.213	-0.167	0.032
-626.463	139.432	0.003	-0.004
-625.449	107.152	-0.198	-0.237
-624.434	-200.000	0.002	-0.155
-623.419	800.000	-0.079	-0.263
-622.405	-200.000	-0.030	-0.221
-621.390	85.875	0.034	0.038
-620.376	114.145	-0.188	0.231
-619.361	197.163	0.125	-0.193
-618.346	634.620	0.057	0.146
-617.332	197.649	0.160	-0.246
-616.317	210.610	0.145	-0.230
-615.303	-81.627	-0.096	-0.032
-614.288	58.511	0.128	-0.126
-613.273	800.000	0.090	-0.352
-612.259	-200.000	0.076	0.363
-611.244	-200.000	-0.012	-0.084
-610.230	583.368	0.101	-0.250
-609.215	75.828	-0.353	-0.377
-608.201	-155.072	0.295	0.020
-607.186	219.802	0.125	0.202
-606.171	-119.851	-0.155	-0.027
-605.157	12.585	-0.266	0.207
-604.142	-77.001	-0.358	0.126
-603.128	124.189	0.047	0.060
-602.113	-125.641	-0.177	0.027
-601.098	-107.154	-0.191	0.043
-600.084	-101.124	-0.011	0.003
-599.069	-86.070	-0.103	-0.032
-598.055	-200.000	-0.021	0.223
-597.040	228.798	0.034	-0.056
-596.025	52.972	-0.123	-0.118
-595.011	-200.000	-0.018	0.193
-593.996	509.733	-0.087	0.204
-592.982	800.000	0.032	0.138
-591.967	-200.000	0.261	-0.000
-590.952	-200.000	-0.008	0.070
-589.938	-84.806	-0.146	0.046
-588.923	262.719	0.066	-0.116
-587.909	-200.000	-0.060	-0.263
-586.894	-34.136	-0.455	-0.252
-585.879	480.352	0.045	-0.103
-584.865	-184.019	0.388	0.007
-583.850	82.809	-0.203	-0.222
-582.836	-71.106	0.089	-0.034
-581.821	-75.611	0.216	-0.077
-580.806	21.828	0.190	0.156
-579.792	-200.000	0.010	0.245
-578.777	502.663	-0.085	0.198
-577.763	-43.103	-0.324	0.165
-576.748	-62.217	0.256	0.108
-575.733	9.299	-0.121	0.092
-574.719	615.738	-0.089	-0.225
-573.704	-110.918	0.042	-0.009
-572.690	4.805	-0.201	0.149
-571.675	-66.056	0.335	0.135
-570.661	312.070	0.139	-0.263
-569.646	99.879	0.154	-0.180
-568.631	-200.000	-0.086	-0.398
-567.617	168.128	-0.160	-0.230
-566.602	32.249	0.165	0.144
-565.588	697.814	0.102	-0.270
-564.573	163.694	0.172	-0.243
-563.558	-20.209	-0.218	0.135
-562.544	-18.471	-0.264	-0.166
-561.529	198.650	-0.057	0.088
-560.515	112.610	0.106	-0.130
-559.500	101.407	0.093	-0.109
-558.485	118.670	0.053	0.066
-557.471	-200.000	0.007	-0.422
-556.456	-200.000	0.016	-0.106
-555.442	-29.002	-0.232	0.134
-554.427	88.503	-0.110	0.123
-553.412	4.892	-0.131	-0.097
-552.398	800.000	0.091	-0.342
-551.383	-79.720	0.538	-0.183
-550.369	37.648	-0.176	-0.157
-549.354	-200.000	0.021	0.109
-548.339	-119.746	-0.300	-0.052
-547.325	461.847	0.053	0.119
-546.310	-200.000	0.013	0.100
-545.296	34.611	-0.378	0.333
-544.281	-114.322	-0.423	-0.082
-543.266	161.528	0.227	-0.320
-542.252	-200.000	-0.026	0.178
-541.237	20.007	-0.175	-0.142
-540.223	169.906	-0.066	0.094
-539.208	5.582	0.256	0.190
-538.193	800.000	-0.062	0.261
-537.179	-63.813	-0.122	-0.050
-536.164	-200.000	0.056	0.377
-535.150	-112.607	0.188	0.038
-534.135	99.823	0.226	-0.263
-533.121	-89.773	-0.123	0.036
-532.106	-37.005	0.233	0.125
-531.091	40.278	0.142	-0.129
-530.077	3.121	-0.238	0.174
-529.062	800.000	0.069	0.199
-528.048	161.118	-0.200	0.281
-527.033	-200.000	-0.061	0.320
-526.018	-200.000	-0.005	0.190
-525.004	1.089	0.171	0.123
-523.989	-85.114	0.256	0.081
-522.975	580.440	-0.097	0.240
-521.960	15.898	0.038	-0.030
-520.945	-37.284	-0.125	-0.067
-519.931	14.378	0.280	-0.219
-518.916	-104.827	0.170	-0.039
-517.902	-61.113	0.364	-0.154
-516.887	-37.758	0.262	-0.140
-515.872	647.225	0.093	0.238
-514.858	80.813	0.151	-0.164
-513.843	-63.913	-0.036	0.015
-512.829	-200.000	-0.013	0.134
-511.814	-96.017	0.146	-0.039
-510.799	-200.000	0.140	0.001
-509.785	-41.990	-0.234	-0.121
-508.770	-33.386	0.165	-0.092
-507.756	-108.115	0.129	-0.028
-506.741	800.000	-0.026	0.109
-505.726	252.426	0.021	0.036
-504.712	800.000	0.033	-0.105
-503.697	-172.251	0.074	0.002
-502.683	800.000	0.049	0.150
-501.668	-200.000	-0.023	0.242
-500.653	-15.095	0.109	-0.070
-499.639	-106.570	-0.184	-0.041
-498.624	-54.572	-0.109	-0.050
-497.610	-59.484	-0.082	0.035
-496.595	-53.187	0.232	0.107
-495.581	198.069	0.038	-0.059
-494.566	800.000	-0.066	-0.223
-493.551	69.228	-0.402	-0.415
-492.537	373.373	-0.038	0.077
-491.522	-42.129	-0.138	-0.071
-490.508	-100.632	-0.160	-0.040
-489.493	800.000	-0.018	-0.077
-488.478	-158.920	0.131	-0.007
-487.464	-53.687	0.126	-0.058
-486.449	277.755	-0.059	-0.105
-485.435	-200.000	0.034	-0.199
-484.420	-200.000	0.031	-0.245
-483.405	-152.484	-0.119	-0.009
-482.391	-200.000	-0.010	-0.204
-481.376	-166.937	0.202	0.008
-480.362	258.316	-0.159	-0.275
-479.347	48.718	-0.101	0.095
-478.332	88.000	-0.139	0.155
-477.318	800.000	0.062	0.194
-476.303	-200.000	0.020	0.164
-475.289	-200.000	-0.035	0.227
-474.274	-105.064	0.339	0.078
-473.259	176.544	-0.074	-0.107
-472.245	-200.000	0.025	0.225
-471.230	-84.317	-0.380	0.121
-470.216	-63.055	-0.056	0.023
-469.201	-10.388	0.178	0.119
-468.186	445.590	-0.043	-0.095
-467.172	44.332	-0.130	-0.120
-466.157	-46.862	0.322	-0.158
-465.143	25.420	0.227	-0.189
-464.128	-200.000	-0.012	0.247
-463.113	800.000	0.025	-0.099
-462.099	-23.276	0.178	-0.107
-461.084	18.398	-0.161	-0.129
-460.070	-82.072	-0.466	0.153
-459.055	-200.000	0.037	-0.182
-458.040	11.948	0.070	-0.054
-457.026	590.566	-0.111	0.274
-456.011	-95.221	0.300	0.081
-454.997	-112.560	-0.282	0.056
-453.982	41.989	-0.089	-0.081
-452.968	52.519	0.229	0.219
-451.953	-22.747	0.347	-0.210
-450.938	-79.472	0.226	0.077
-449.924	289.462	-0.096	0.174
-448.909	15.251	0.185	-0.146
-447.895	-89.957	0.077	-0.023
-446.880	-76.566	0.081	0.029
-445.865	-55.635	0.169	-0.076
-444.851	-200.000	0.024	-0.134
-443.836	736.725	0.063	-0.170
-442.822	-200.000	0.029	-0.161
-441.807	-24.585	-0.108	-0.064
-440.792	-69.881	-0.211	0.081
-439.778	-178.363	-0.302	0.007
-438.763	-76.027	0.428	-0.152
-437.749	-77.546	0.341	0.119
-436.734	-192.942	-0.200	0.002
-435.719	-200.000	0.002	-0.190
-434.705	-34.453	0.277	-0.152
-433.690	-190.586	-0.046	-0.000
-432.676	452.246	-0.077	-0.171
-431.661	137.105	-0.129	-0.169
-430.646	800.000	-0.145	0.408
-429.632	76.508	0.096	0.102
-428.617	-200.000	-0.007	0.422
-427.603	162.260	0.079	-0.111
-426.588	265.760	-0.144	-0.252
-425.573	-40.502	-0.228	0.119
-424.559	-16.855	0.128	-0.081
-423.544	800.000	-0.090	0.325
-422.530	-200.000	0.010	0.092
-421.515	-26.541	-0.184	0.108
-420.500	175.669	-0.056	-0.082
-419.486	-59.455	-0.123	-0.053
-418.471	78.138	-0.089	0.095
-417.457	184.493	0.310	-0.460
-416.442	-200.000	0.021	0.205
-415.428	146.200	0.103	-0.138
-414.413	-132.258	0.273	-0.035
-413.398	157.619	0.290	-0.402
-412.384	-200.000	0.005	-0.109
-411.369	-133.196	0.395	0.050
-410.355	-200.000	0.006	0.050
-409.340	-37.959	-0.245	-0.130
-408.325	197.582	0.161	0.245
-407.311	800.000	0.057	-0.185
-406.296	655.257	-0.060	-0.154
-405.282	-200.000	0.018	-0.226
-404.267	43.009	0.109	-0.099
-403.252	276.915	-0.121	-0.216
-402.238	-200.000	0.002	0.193
-401.223	-117.270	0.244	0.044
-400.209	776.773	-0.013	-0.036
-399.194	-157.436	-0.400	-0.024
-398.179	70.725	0.150	-0.155
-397.165	-94.085	0.146	-0.040
-396.150	33.180	0.196	-0.170
-395.136	-117.019	-0.151	-0.028
-394.121	-138.692	0.070	-0.008
-393.106	-112.264	-0.215	-0.043
-392.092	246.433	0.117	-0.197
-391.077	681.917	-0.074	0.193
-390.063	800.000	-0.083	0.308
-389.048	-16.481	-0.355	0.225
-388.033	-128.202	0.254	0.036
-387.019	7.412	-0.160	0.119
-386.004	319.960	0.094	0.178
-384.990	235.274	-0.132	-0.218
-383.975	-57.358	0.198	0.087
-382.960	-100.508	0.314	0.078
-381.946	-191.656	-0.490	-0.005
-380.931	-91.207	0.111	0.032
-379.917	412.948	0.067	0.142
-378.902	-78.144	-0.263	0.091
-377.888	87.400	-0.012	0.014
-376.873	30.620	0.235	0.201
-375.858	-43.301	-0.212	-0.107
-374.844	-11.776	0.081	0.053
-373.829	-200.000	-0.000	0.100
-372.815	-154.336	-0.273	0.018
-371.800	283.087	0.043	0.077
-370.785	67.089	0.064	0.065
-369.771	55.659	0.126	-0.122
-368.756	800.000	-0.089	0.293
-367.742	112.807	-0.160	-0.194
-366.727	-25.937	-0.190	-0.112
-365.712	-60.439	0.287	0.122
-364.698	-32.810	-0.293	-0.163
-363.683	-110.650	0.060	-0.012
-362.669	-200.000	0.050	0.311
-361.654	33.051	-0.062	0.054
-360.639	-160.618	-0.110	-0.006
-359.625	-175.079	-0.230	0.006
-358.610	163.336	0.111	0.156
-357.596	-47.245	-0.059	-0.029
-356.581	-182.525	0.205	-0.004
-355.566	104.559	-0.075	0.089
-354.552	800.000	-0.120	-0.387
-353.537	-65.349	0.325	-0.131
-352.523	180.224	-0.025	0.037
-351.508	296.147	-0.093	0.170
-350.493	246.315	-0.148	-0.250
-349.479	-18.841	0.045	0.028
-348.464	-200.000	0.032	-0.205
-347.450	-74.698	-0.245	-0.088
-346.435	-200.000	-0.010	-0.473
-345.420	12.211	0.054	0.041
-344.406	116.370	0.036	-0.044
-343.391	127.822	-0.053	-0.067
-342.377	800.000	0.083	-0.347
-341.362	-141.831	0.108	0.011
-340.348	-200.000	0.004	0.067
-339.333	-200.000	0.064	0.282
-338.318	-200.000	0.037	-0.182
-337.304	-79.857	0.097	0.032
-336.289	221.783	-0.090	0.144
-335.275	-126.348	-0.519	-0.077
-334.260	185.848	-0.029	-0.044
-333.245	-200.000	-0.027	-0.183
-332.231	494.177	0.048	-0.109
-331.216	-64.842	-0.110	0.044
-330.202	-87.941	0.259	-0.078
-329.187	-160.763	-0.253	0.013
-328.172	183.583	0.215	0.317
-327.158	144.719	-0.174	0.232
-326.143	-88.425	-0.112	0.033
-325.129	92.098	0.130	0.146
-324.114	-64.093	0.185	0.075
-323.099	-49.910	0.236	0.112
-322.085	46.153	-0.185	0.171
-321.070	-91.412	0.222	-0.063
-320.056	-200.000	0.024	-0.206
-319.041	-82.854	0.108	-0.035
-318.026	800.000	-0.091	0.313
-317.012	-200.000	0.026	-0.242
-315.997	-56.386	-0.415	0.184
-314.983	204.306	0.163	0.252
-313.968	-142.266	0.139	-0.014
-312.953	-12.731	-0.199	0.129
-311.939	-46.826	0.179	0.087
-310.924	224.709	0.132	-0.212
-309.910	231.249	0.075	-0.122
-308.895	353.028	-0.083	0.164
-307.880	-117.655	-0.318	0.057
-306.866	-54.243	-0.403	-0.182
-305.851	-171.038	0.086	0.003
-304.837	800.000	-0.068	-0.286
-303.822	55.101	0.058	-0.055
-302.807	800.000	-0.023	0.089
-301.793	428.185	0.107	0.231
-300.778	-63.804	-0.291	0.119
-299.764	-200.000	-0.007	0.250
-298.749	-90.816	0.233	-0.067
-297.735	-200.000	-0.019	-0.142
-296.720	479.528	-0.099	0.225
-295.705	-200.000	-0.041	0.194
-294.691	155.733	0.043	0.059
-293.676	-71.463	0.231	0.086
-292.662	800.000	-0.091	0.294
-291.647	800.000	-0.125	-0.375
-290.632	-9.557	-0.256	0.170
-289.618	-126.665	-0.358	-0.053
-288.603	508.083	0.172	0.398
-287.589	451.305	0.099	0.218
-286.574	25.592	0.220	-0.183
-285.559	-126.076	0.349	0.052
-284.545	-108.229	-0.404	-0.087
-283.530	363.855	0.073	0.145
-282.516	-200.000	-0.022	0.122
-281.501	-16.824	0.066	0.042
-280.486	-200.000	-0.019	-0.259
-279.472	-200.000	-0.022	0.108
-278.457	800.000	-0.084	-0.238
-277.443	152.395	0.076	0.103
-276.428	-103.417	-0.217	0.051
-275.413	-200.000	-0.050	-0.270
-274.399	800.000	0.060	0.239
-273.384	-15.936	-0.105	0.067
-272.370	-46.599	0.082	-0.040
-271.355	-200.000	-0.042	0.254
-270.340	-128.663	-0.176	0.025
-269.326	173.099	0.197	-0.283
-268.311	468.581	-0.067	0.151
-267.297	-10.638	0.298	0.196
-266.282	41.349	-0.085	-0.077
-265.267	-200.000	-0.003	-0.042
-264.253	92.054	0.222	-0.249
-263.238	-112.577	-0.171	0.034
-262.224	37.719	0.213	0.188
-261.209	-43.186	-0.107	0.054
-260.195	555.434	0.020	0.049
-259.180	800.000	-0.026	0.103
-258.165	-46.950	0.092	-0.045
-257.151	229.492	-0.027	-0.044
-256.136	-38.175	0.120	-0.063
-255.122	100.480	0.300	0.346
-254.107	307.709	0.108	0.201
-253.092	-125.059	0.356	-0.054
-252.078	-67.035	0.107	0.042
-251.063	-200.000	-0.009	0.100
-250.049	-31.189	0.097	0.054
-249.034	80.296	0.103	0.110
-248.019	465.233	0.007	0.015
-247.005	-61.154	0.326	0.137
-245.990	-98.251	0.240	0.061
-244.976	-127.966	-0.150	-0.021
-243.961	-140.107	-0.295	0.031
-242.946	-131.297	-0.288	-0.038
-241.932	800.000	0.090	-0.262
-240.917	125.844	0.188	0.236
-239.903	181.703	-0.054	0.079
-238.888	-109.554	-0.240	0.050
-237.873	589.760	-0.025	-0.061
-236.859	-77.172	-0.150	0.052
-235.844	-11.471	0.197	0.129
-234.830	-44.657	0.105	-0.052
-233.815	800.000	0.088	0.292
-232.800	287.306	0.130	0.233
-231.786	-139.394	-0.054	0.006
-230.771	-131.896	0.300	-0.039
-229.757	-200.000	0.088	-0.465
-228.742	-200.000	-0.018	-0.118
-227.727	136.742	-0.207	0.269
-226.713	-48.488	0.217	0.104
-225.698	222.731	0.152	0.244
-224.684	-154.671	-0.283	-0.019
-223.669	168.359	0.141	-0.199
-222.655	342.626	-0.033	0.064
-221.640	-200.000	0.008	0.107
-220.625	-11.547	0.060	0.039
-219.611	-61.703	-0.172	0.072
-218.596	-55.288	-0.163	0.073
-217.582	-60.234	-0.263	-0.111
-216.567	800.000	-0.103	0.344
-215.552	4.427	-0.082	-0.059
-214.538	800.000	0.081	0.246
-213.523	261.719	0.166	0.285
-212.509	-200.000	0.015	0.110
-211.494	-200.000	-0.007	-0.234
-210.479	-44.043	0.214	-0.107
-209.465	-69.511	-0.193	-0.073
-208.450	-200.000	-0.054	-0.443
-207.436	29.906	0.098	-0.083
-206.421	52.849	-0.192	-0.182
-205.406	-92.171	0.018	0.005
-204.392	81.177	-0.102	-0.109
-203.377	-97.545	0.130	-0.033
-202.363	-151.168	0.214	0.016
-201.348	-123.008	0.187	0.030
-200.333	-9.310	-0.071	-0.047
-199.319	-69.076	0.513	-0.196
-198.304	-200.000	0.073	-0.401
-197.290	506.176	0.067	-0.153
-196.275	800.000	0.108	0.340
-195.260	203.775	0.129	0.198
-194.246	14.238	0.356	0.275
-193.231	-200.000	0.033	-0.170
-192.217	-152.517	0.126	0.009
-191.202	94.395	-0.146	-0.165
-190.187	-31.683	-0.224	0.125
-189.173	91.356	0.197	-0.219
-188.158	-109.025	-0.324	0.069
-187.144	-0.884	0.118	0.083
-186.129	-143.270	-0.192	0.018
-185.114	-72.530	0.110	0.040
-184.100	-112.854	0.167	0.033
-183.085	-88.121	0.133	-0.040
-182.071	-45.054	-0.272	0.134
-181.056	-6.021	0.248	-0.168
-180.042	415.403	-0.100	-0.212
-179.027	-165.538	-0.134	0.006
-178.012	52.047	0.051	0.048
-176.998	800.000	-0.061	0.253
-175.983	-125.293	-0.143	0.022
-174.969	-115.517	-0.055	-0.010
-173.954	-200.000	-0.069	0.334
-172.939	-173.756	0.085	-0.002
-171.925	-20.568	-0.193	0.118
-170.910	-64.188	0.229	-0.093
-169.896	-85.406	-0.230	0.071
-168.881	-200.000	-0.005	0.124
-167.866	-172.558	-0.352	-0.011
-166.852	-200.000	0.003	0.229
-165.837	800.000	0.062	-0.250
-164.823	84.024	0.074	0.080
-163.808	-50.477	0.222	0.104
-162.793	-200.000	-0.023	-0.389
-161.779	-53.693	-0.319	0.144
-160.764	-34.945	-0.196	-0.106
-159.750	-101.120	-0.342	-0.083
-158.735	-20.899	0.174	-0.106
-157.720	367.713	-0.049	0.098
-156.706	800.000	0.120	0.442
-155.691	-200.000	0.021	-0.355
-154.677	-200.000	-0.002	0.168
-153.662	800.000	-0.047	-0.137
-152.647	-37.264	0.181	-0.096
-151.633	83.556	-0.365	0.395
-150.618	-97.328	0.241	-0.062
-149.604	-38.399	0.104	-0.054
-148.589	387.011	0.119	-0.244
-147.574	13.488	-0.284	0.218
-146.560	-107.052	-0.166	-0.036
-145.545	-26.400	0.232	-0.135
-144.531	-99.407	0.295	0.074
-143.516	-200.000	-0.058	-0.000
-142.502	-88.378	0.283	-0.084
-141.487	92.156	0.223	-0.249
-140.472	336.246	0.088	-0.169
-139.458	341.308	0.099	-0.191
-138.443	-200.000	-0.011	0.082
-137.429	287.668	0.067	0.120
-136.414	-157.265	0.361	0.022
-135.399	-2.433	0.041	-0.029
-134.385	253.083	0.144	-0.244
-133.370	-52.668	-0.106	0.048
-132.356	273.896	-0.041	-0.072
-131.341	-5.824	0.168	0.114
-130.326	534.246	-0.081	-0.191
-129.312	194.063	-0.092	0.138
-128.297	-161.856	-0.433	-0.022
-127.283	-90.250	-0.080	-0.023
-126.268	241.874	-0.167	-0.277
-125.253	62.060	0.161	0.159
-124.239	125.175	0.277	0.346
-123.224	-134.990	0.208	0.025
-122.210	-200.000	-0.035	-0.257
-121.195	800.000	0.058	-0.181
-120.180	304.075	0.135	0.248
-119.166	14.380	-0.131	0.101
-118.151	4.344	-0.258	-0.187
-117.137	-200.000	0.014	0.120
-116.122	66.992	-0.215	0.217
-115.107	-12.863	0.316	0.204
-114.093	133.291	0.026	-0.033
-113.078	63.333	-0.225	0.223
-112.064	-147.086	-0.150	-0.013
-111.049	-146.322	0.396	-0.034
-110.034	-111.499	0.302	-0.061
-109.020	-200.000	0.007	0.159
-108.005	334.850	-0.219	0.420
-106.991	66.987	0.147	-0.148
-105.976	246.597	0.122	-0.204
-104.962	70.694	0.106	0.109
-103.947	800.000	-0.012	-0.043
-102.932	189.735	-0.181	0.269
-101.918	800.000	-0.059	0.218
-100.903	-104.068	0.313	0.072
-99.889	-15.649	-0.231	0.145
-98.874	-200.000	0.021	0.205
-97.859	800.000	0.078	-0.241
-96.845	105.380	-0.050	0.059
-95.830	800.000	0.092	-0.269
-94.816	117.259	0.232	0.282
-93.801	210.677	-0.088	0.137
-92.786	-65.914	0.360	0.142
-91.772	157.285	0.083	-0.114
-90.757	800.000	0.030	-0.088
-89.743	-200.000	-0.039	-0.244
-88.728	-200.000	-0.057	0.384
-87.713	-200.000	-0.021	-0.102
-86.699	-59.314	0.082	-0.035
-85.684	41.389	0.364	-0.326
-84.670	137.028	-0.190	-0.245
-83.655	-200.000	0.065	-0.425
-82.640	41.070	-0.086	-0.077
-81.626	-75.774	-0.398	-0.139
-80.611	-105.891	-0.161	-0.036
-79.597	-200.000	0.071	-0.327
-78.582	-200.000	-0.034	0.388
-77.567	800.000	0.051	-0.187
-76.553	-200.000	0.072	-0.337
-75.538	20.273	0.064	0.051
-74.524	-200.000	-0.027	-0.159
-73.509	-47.753	0.231	0.110
-72.494	791.280	0.064	-0.175
-71.480	427.727	-0.025	-0.053
-70.465	800.000	-0.059	-0.171
-69.451	114.763	-0.117	0.141
-68.436	-82.497	-0.195	-0.063
-67.422	800.000	-0.117	-0.351
-66.407	142.170	0.117	-0.153
-65.392	800.000	-0.050	-0.160
-64.378	-37.741	-0.161	0.084
-63.363	393.374	-0.082	0.169
-62.349	-200.000	-0.011	-0.064
-61.334	46.141	-0.951	-0.870
-60.319	24.210	0.403	0.329
-59.305	800.000	-0.428	-1.192
-58.290	336.316	0.583	1.117
-57.276	243.407	0.882	1.459
-56.261	-200.000	106.763	577.577
-55.246	432.449	1481.099	3171.489
-54.232	142.249	2685.106	3517.663
-53.217	95.317	2340.696	2633.553
-52.203	35.388	2089.462	1809.719
-51.188	30.782	2004.895	1694.599
-50.173	29.361	1987.879	1667.313
-49.159	45.109	2044.152	1859.398
-48.144	45.368	2061.000	1877.026
-47.130	31.483	2019.596	1713.175
-46.115	29.229	2008.436	1683.077
-45.100	29.101	2005.707	1679.557
-44.086	29.211	2001.892	1677.296
-43.071	29.088	2000.145	1674.649
-42.057	29.026	1998.376	1672.538
-41.042	29.033	1996.526	1670.988
-40.027	29.093	1994.436	1669.711
-39.013	29.178	1992.144	1668.500
-37.998	29.093	1990.767	1666.508
-36.984	29.090	1988.611	1664.616
-35.969	29.129	1986.565	1663.187
-34.954	29.098	1985.118	1661.628
-33.940	29.127	1983.605	1660.560
-32.925	29.178	1981.847	1659.476
-31.911	29.201	1979.883	1657.979
-30.896	29.172	1978.708	1656.666
-29.881	29.217	1976.867	1655.467
-28.867	29.248	1975.116	1654.212
-27.852	29.335	1973.133	1653.265
-26.838	29.200	1971.685	1650.772
-25.823	29.235	1969.666	1649.331
-24.809	29.240	1967.704	1647.673
-23.794	29.220	1965.834	1645.856
-22.779	29.230	1964.354	1644.644
-21.765	29.162	1963.250	1643.050
-20.750	29.261	1961.006	1641.990
-19.736	29.196	1959.981	1640.483
-18.721	29.133	1958.725	1638.810
-17.706	29.214	1956.230	1637.375
-16.692	29.241	1953.939	1635.630
-15.677	29.158	1953.073	1634.108
-14.663	29.214	1951.784	1633.461
-13.648	29.195	1950.193	1631.892
-12.633	29.191	1949.658	1631.344
-11.619	29.190	1947.506	1629.470
-10.604	29.161	1946.314	1628.154
-9.590	29.127	1945.436	1627.057
-8.575	29.205	1943.483	1626.044
-7.560	29.239	1942.639	1625.574
-6.546	29.327	1940.792	1624.738
-5.531	29.198	1939.938	1622.820
-4.517	29.208	1938.613	1621.737
-3.502	29.196	1937.266	1620.442
-2.487	29.213	1935.994	1619.465
-1.473	29.239	1935.219	1618.978
-0.458	29.283	1930.220	1615.122
0.556	27.624	1910.914	1590.572
1.571	23.926	1893.630	1544.006
2.586	20.546	1917.128	1533.270
3.600	19.796	1953.158	1555.204
4.615	19.650	1948.959	1550.412
5.629	17.908	1854.173	1460.000
6.644	14.193	1747.397	1345.801
7.659	12.095	1715.373	1304.351
8.673	11.925	1712.559	1300.745
9.688	11.966	1710.485	1299.383
10.702	11.845	1709.308	1297.416
11.717	11.784	1705.843	1294.182
12.731	12.112	1704.478	1295.625
13.746	14.670	1710.166	1320.091
14.761	17.536	1715.642	1346.894
15.775	18.082	1715.110	1350.680
16.790	17.408	1711.564	1342.449
17.804	16.281	1708.882	1331.343
18.819	15.330	1705.012	1320.725
19.834	14.756	1701.799	1313.605
20.848	14.260	1701.109	1309.062
21.863	14.067	1699.046	1305.837
22.877	13.720	1698.018	1302.210
23.892	13.483	1696.335	1298.941
24.907	13.369	1695.613	1297.379
25.921	13.339	1694.054	1295.837
26.936	13.356	1693.533	1295.463
27.950	13.467	1691.919	1294.979
28.965	13.519	1691.566	1295.003
29.980	13.466	1691.094	1294.108
30.994	13.538	1689.596	1293.415
32.009	13.645	1688.782	1293.512
33.023	13.629	1687.965	1292.645
34.038	13.687	1686.960	1292.210
35.053	13.690	1685.678	1291.141
36.067	13.648	1683.989	1289.402
37.082	13.537	1683.482	1288.039
38.096	13.597	1681.880	1287.167
39.111	13.642	1681.489	1287.102
40.126	13.714	1680.197	1286.558
41.140	13.611	1679.620	1285.205
42.155	13.562	1677.911	1283.406
43.169	13.360	1676.820	1280.888
44.184	13.405	1675.672	1280.250
45.199	13.293	1674.602	1278.449
46.213	13.449	1672.689	1278.084
47.228	13.438	1671.560	1277.022
48.242	13.476	1670.102	1276.091
49.257	13.558	1669.207	1275.927
50.271	13.500	1668.148	1274.554
51.286	13.537	1666.571	1273.522
52.301	13.519	1665.459	1272.420
53.315	13.541	1663.766	1271.180
54.330	13.566	1662.046	1269.947
55.344	13.474	1660.551	1267.991
56.359	13.441	1659.200	1266.593
57.374	13.491	1658.212	1266.111
58.388	13.487	1657.276	1265.250
59.403	13.386	1656.002	1263.399
60.417	13.385	1654.283	1261.965
61.432	13.260	1653.936	1260.632
62.447	13.384	1652.588	1260.443
63.461	13.272	1651.275	1258.476
64.476	13.247	1650.399	1257.504
65.490	13.335	1648.756	1256.811
66.505	13.271	1648.017	1255.652
67.520	13.295	1646.704	1254.724
68.534	13.250	1645.954	1253.702
69.549	13.360	1644.542	1253.346
70.563	13.358	1643.438	1252.377
71.578	13.400	1642.010	1251.494
72.593	13.336	1641.073	1250.186
73.607	13.236	1640.520	1248.897
74.622	13.337	1638.665	1248.140
75.636	13.216	1638.307	1246.844
76.651	13.210	1637.770	1246.278
77.666	13.198	1636.774	1245.323
78.680	13.264	1635.618	1244.830
79.695	13.233	1634.924	1243.959
80.709	13.344	1633.276	1243.424
81.724	13.351	1632.574	1242.834
82.739	13.345	1632.007	1242.247
83.753	13.373	1631.207	1241.739
84.768	13.479	1630.077	1241.568
85.782	13.500	1629.108	1240.877
86.797	13.587	1628.347	1240.838
87.812	13.538	1627.650	1239.830
88.826	13.508	1626.243	1238.423
89.841	13.466	1625.208	1237.214
90.855	13.541	1624.173	1236.871
91.870	13.491	1623.134	1235.603
92.884	13.523	1622.194	1235.013
93.899	13.550	1621.211	1234.358
94.914	13.619	1619.422	1233.403
95.928	13.571	1618.801	1232.463
96.943	13.715	1617.402	1232.360
97.957	13.597	1616.123	1230.398
98.972	13.613	1614.315	1229.031
99.987	13.593	1612.863	1227.665
101.001	13.544	1610.959	1225.748
102.016	13.557	1609.903	1224.929
103.030	13.542	1608.421	1223.583
104.045	13.537	1607.215	1222.519
105.060	13.588	1605.795	1221.710
106.074	13.594	1604.334	1220.536
107.089	13.554	1602.645	1218.848
108.103	13.366	1601.417	1216.425
109.118	13.297	1600.083	1214.794
110.133	13.329	1598.378	1213.628
111.147	13.301	1596.805	1212.120
112.162	13.305	1595.936	1211.381
113.176	13.374	1594.422	1210.632
114.191	13.413	1592.945	1209.692
115.206	13.391	1592.007	1208.708
116.220	13.455	1590.453	1207.890
117.235	13.391	1589.303	1206.439
118.249	13.435	1587.653	1205.401
119.264	13.418	1586.515	1204.309
120.279	13.363	1585.233	1202.828
121.293	13.336	1583.574	1201.266
122.308	13.343	1582.367	1200.297
123.322	13.344	1580.291	1198.625
124.337	13.251	1579.275	1197.073
125.352	13.240	1577.804	1195.775
126.366	13.451	1576.254	1196.019
127.381	13.352	1575.140	1194.350
128.395	13.352	1574.570	1193.816
129.410	13.306	1572.984	1192.174
130.424	13.355	1571.395	1191.218
131.439	13.330	1570.393	1190.171
132.454	13.405	1568.594	1189.243
133.468	13.491	1567.136	1188.653
134.483	13.365	1565.793	1186.624
135.497	13.495	1564.060	1186.135
136.512	13.486	1562.837	1185.042
137.527	13.473	1561.871	1184.108
138.541	13.542	1560.007	1183.084
139.556	13.523	1559.161	1182.202
140.570	13.466	1558.055	1180.855
141.585	13.640	1556.156	1180.550
142.600	13.589	1555.350	1179.470
143.614	13.557	1554.456	1178.460
144.629	13.622	1552.824	1177.581
145.643	13.632	1551.721	1176.708
146.658	13.725	1550.024	1175.977
147.673	13.700	1548.352	1174.425
148.687	13.593	1547.041	1172.570
149.702	13.610	1546.054	1171.839
150.716	13.648	1543.830	1170.321
151.731	13.612	1542.266	1168.779
152.746	13.592	1541.146	1167.684
153.760	13.618	1539.932	1166.846
154.775	13.645	1538.544	1165.882
155.789	13.769	1537.044	1165.508
156.804	13.685	1535.872	1163.931
157.819	13.735	1534.862	1163.413
158.833	13.766	1533.645	1162.603
159.848	13.752	1532.671	1161.663
160.862	13.876	1531.302	1161.391
161.877	13.836	1530.485	1160.386
162.892	13.762	1529.088	1158.710
163.906	13.706	1527.147	1156.743
164.921	13.700	1526.334	1155.988
165.935	13.643	1525.282	1154.688
166.950	13.702	1524.285	1154.242
167.964	13.706	1523.066	1153.248
168.979	13.824	1521.684	1152.920
169.994	13.740	1520.771	1151.542
171.008	13.751	1519.644	1150.664
172.023	13.831	1518.283	1150.081
173.037	13.862	1517.422	1149.546
174.052	13.972	1516.356	1149.399
175.067	13.877	1515.378	1147.896
176.081	13.891	1514.126	1146.945
177.096	13.791	1512.692	1145.067
178.110	13.813	1510.937	1143.788
179.125	13.775	1510.265	1142.917
180.140	13.891	1508.926	1142.601
181.154	13.930	1507.992	1142.060
182.169	13.851	1507.432	1140.992
183.183	13.905	1505.760	1139.995
184.198	13.976	1504.553	1139.466
185.213	13.914	1503.834	1138.398
186.227	14.019	1502.382	1137.919
187.242	14.006	1501.741	1137.241
188.256	14.050	1500.251	1136.314
189.271	14.050	1499.352	1135.534
190.286	14.131	1497.729	1134.754
191.300	14.027	1497.116	1133.482
192.315	13.898	1495.784	1131.491
193.329	13.803	1494.213	1129.555
194.344	13.803	1493.190	1128.685
195.359	13.807	1492.409	1128.024
196.373	13.831	1491.492	1127.389
197.388	14.075	1489.850	1127.703
198.402	14.046	1489.303	1126.995
199.417	14.063	1488.108	1126.108
200.432	14.173	1486.661	1125.655
201.446	14.270	1485.472	1125.309
202.461	14.334	1484.970	1125.263
203.475	14.361	1483.489	1124.224
204.490	14.364	1482.633	1123.494
205.504	14.242	1481.855	1121.983
206.519	14.223	1480.382	1120.640
207.534	14.196	1479.224	1119.483
208.548	14.234	1477.655	1118.456
209.563	14.300	1476.531	1117.945
210.577	14.331	1475.750	1117.469
211.592	14.263	1475.292	1116.567
212.607	14.264	1474.749	1116.063
213.621	14.303	1473.840	1115.534
214.636	14.332	1473.185	1115.135
215.650	14.382	1471.887	1114.385
216.665	14.419	1471.093	1113.936
217.680	14.344	1470.440	1112.839
218.694	14.443	1469.371	1112.594
219.709	14.485	1468.605	1112.199
220.723	14.517	1467.432	1111.421
221.738	14.415	1466.981	1110.303
222.753	14.469	1465.656	1109.565
223.767	14.469	1465.186	1109.112
224.782	14.589	1463.187	1108.292
225.796	14.544	1462.756	1107.570
226.811	14.623	1461.539	1107.073
227.826	14.620	1461.151	1106.661
228.840	14.595	1460.124	1105.624
229.855	14.542	1458.827	1104.189
230.869	14.497	1458.295	1103.390
231.884	14.554	1457.250	1102.885
232.899	14.553	1455.915	1101.769
233.913	14.563	1454.270	1100.491
234.928	14.493	1453.305	1099.204
235.942	14.447	1452.481	1098.181
236.957	14.482	1450.960	1097.160
237.972	14.431	1450.056	1096.045
238.986	14.575	1448.228	1095.511
240.001	14.574	1447.719	1095.025
241.015	14.627	1446.674	1094.485
242.030	14.517	1445.934	1093.104
243.045	14.643	1444.810	1092.986
244.059	14.639	1443.998	1092.251
245.074	14.610	1442.943	1091.166
246.088	14.651	1442.579	1091.063
247.103	14.776	1441.355	1090.856
248.117	14.784	1440.832	1090.414
249.132	14.815	1439.860	1089.781
250.147	14.800	1439.569	1089.371
251.161	14.940	1438.836	1089.631
252.176	15.013	1438.243	1089.561
253.190	15.162	1436.558	1089.157
254.205	15.072	1436.263	1088.249
255.220	15.077	1435.478	1087.593
256.234	15.109	1434.913	1087.278
257.249	15.144	1433.675	1086.469
258.263	15.042	1433.194	1085.349
259.278	15.159	1431.992	1085.097
260.293	15.093	1431.196	1083.971
261.307	15.198	1430.221	1083.814
262.322	15.270	1429.109	1083.342
263.336	15.323	1428.392	1083.045
264.351	15.281	1427.351	1081.889
265.366	15.204	1426.797	1080.879
266.380	15.346	1425.456	1080.683
267.395	15.366	1424.363	1079.884
268.409	15.298	1424.051	1079.115
269.424	15.299	1422.856	1078.122
270.439	15.346	1421.790	1077.519
271.453	15.282	1420.914	1076.347
272.468	15.317	1419.753	1075.600
273.482	15.243	1419.097	1074.535
274.497	15.287	1418.361	1074.163
275.512	15.320	1417.203	1073.404
276.526	15.284	1416.745	1072.729
277.541	15.236	1415.865	1071.661
278.555	15.323	1414.754	1071.281
279.570	15.249	1413.846	1070.030
280.585	15.252	1413.062	1069.356
281.599	15.449	1412.165	1069.844
282.614	15.408	1411.260	1068.799
283.628	15.396	1410.036	1067.703
284.643	15.391	1408.686	1066.553
285.657	15.340	1407.581	1065.298
286.672	15.426	1406.914	1065.246
287.687	15.402	1405.839	1064.182
288.701	15.451	1404.234	1063.185
289.716	15.347	1404.634	1062.734
290.730	15.463	1403.343	1062.400
291.745	15.505	1402.101	1061.629
292.760	15.525	1401.213	1060.992
293.774	15.491	1400.201	1059.917
294.789	15.422	1399.328	1058.728
295.803	15.646	1398.504	1059.420
296.818	15.595	1397.546	1058.277
297.833	15.599	1396.446	1057.380
298.847	15.574	1395.959	1056.758
299.862	15.639	1394.163	1055.715
300.876	15.646	1393.634	1055.265
301.891	15.592	1392.799	1054.197
302.906	15.661	1392.121	1054.024
303.920	15.613	1391.202	1052.936
304.935	15.767	1390.599	1053.352
305.949	15.778	1389.334	1052.369
306.964	15.846	1389.177	1052.579
307.979	15.961	1387.447	1051.897
308.993	15.935	1386.812	1051.160
310.008	15.852	1386.019	1049.948
311.022	15.828	1384.931	1048.883
312.037	15.890	1383.762	1048.287
313.052	15.850	1383.067	1047.421
314.066	15.880	1382.115	1046.793
315.081	15.853	1380.857	1045.577
316.095	15.833	1379.545	1044.370
317.110	15.796	1378.547	1043.291
318.125	15.900	1377.628	1043.149
319.139	15.884	1376.796	1042.326
320.154	15.836	1375.620	1041.049
321.168	15.820	1374.741	1040.192
322.183	15.845	1373.866	1039.596
323.197	15.767	1373.012	1038.374
324.212	15.936	1371.506	1038.183
325.227	15.980	1371.141	1038.088
326.241	15.923	1370.600	1037.237
327.256	15.904	1369.529	1036.215
328.270	15.982	1368.600	1035.898
329.285	15.982	1367.631	1035.074
330.300	15.924	1366.648	1033.885
331.314	16.064	1365.586	1033.851
332.329	15.991	1364.886	1032.781
333.343	15.974	1363.852	1031.803
334.358	16.087	1363.179	1031.890
335.373	16.004	1362.430	1030.728
336.387	16.062	1361.598	1030.362
337.402	16.128	1360.792	1030.060
338.416	16.159	1359.984	1029.546
339.431	16.129	1359.697	1029.057
340.446	16.109	1358.816	1028.178
341.460	16.209	1357.756	1027.893
342.475	16.247	1356.984	1027.452
343.489	16.256	1356.322	1026.911
344.504	16.297	1354.969	1026.044
345.519	16.364	1354.018	1025.642
346.533	16.449	1352.923	1025.238
347.548	16.380	1352.221	1024.198
348.562	16.376	1351.500	1023.536
349.577	16.385	1350.947	1023.082
350.592	16.543	1349.775	1023.056
351.606	16.405	1348.809	1021.399
352.621	16.300	1347.604	1019.763
353.635	16.295	1346.594	1018.877
354.650	16.284	1345.811	1018.132
355.665	16.330	1344.939	1017.657
356.679	16.353	1343.721	1016.785
357.694	16.507	1342.158	1016.438
358.708	16.392	1341.697	1015.308
359.723	16.406	1340.620	1014.489
360.738	16.503	1339.515	1014.143
361.752	16.483	1338.331	1013.035
362.767	16.456	1337.206	1011.931
363.781	16.474	1336.611	1011.499
364.796	16.624	1335.924	1011.788
365.810	16.632	1334.952	1011.010
366.825	16.618	1334.130	1010.217
367.840	16.649	1333.854	1010.104
368.854	16.639	1332.861	1009.202
369.869	16.803	1331.987	1009.425
370.883	16.745	1331.768	1008.826
371.898	16.764	1330.708	1008.049
372.913	16.717	1330.524	1007.542
373.927	16.737	1329.215	1006.579
374.942	16.721	1328.589	1005.919
375.956	16.757	1327.706	1005.378
376.971	16.819	1326.799	1004.966
377.986	16.755	1325.978	1003.876
379.000	16.814	1324.782	1003.236
380.015	16.799	1324.558	1002.886
381.029	16.814	1324.086	1002.526
382.044	16.951	1323.245	1002.613
383.059	17.021	1322.017	1002.010
384.073	17.034	1321.248	1001.412
385.088	16.846	1321.400	1000.331
386.102	16.975	1320.146	1000.053
387.117	17.041	1318.945	999.442
388.132	16.958	1318.887	998.819
389.146	16.968	1317.505	997.745
390.161	16.981	1316.904	997.277
391.175	16.994	1315.788	996.420
392.190	17.013	1314.884	995.759
393.205	17.035	1314.403	995.434
394.219	17.042	1313.102	994.402
395.234	17.175	1311.678	994.013
396.248	17.019	1310.885	992.416
397.263	17.103	1309.659	991.890
398.278	17.142	1308.312	991.007
399.292	17.073	1306.600	989.222
400.307	17.072	1305.859	988.570
401.321	17.031	1305.274	987.799
402.336	17.059	1303.849	986.797
403.350	16.975	1303.018	985.591
404.365	17.012	1301.998	984.948
405.380	17.018	1301.345	984.404
406.394	17.086	1300.329	983.939
407.409	17.097	1299.798	983.518
408.423	17.205	1298.924	983.396
409.438	17.187	1298.181	982.636
410.453	17.239	1297.665	982.462
411.467	17.306	1296.956	982.223
412.482	17.400	1296.492	982.328
413.496	17.345	1295.950	981.514
414.511	17.412	1294.986	981.084
415.526	17.579	1293.752	981.023
416.540	17.608	1292.907	980.464
417.555	17.519	1292.644	979.667
418.569	17.525	1291.961	979.098
419.584	17.485	1291.838	978.685
420.599	17.507	1290.533	977.736
421.613	95.012	1354.462	1469.834
422.628	93.196	1363.745	1469.925
