DTS Sentinel unit serial number:	SN413079Multiplexer serial number:	ORYXHardware model number:	OX4-SRSoftware version number:	ORYX F/W v4.00 Oryx Data Collector v3.7.2.0data status	okinstallation	princeton_trtdifferential loss correction	single-endedforward channel	channel 4reverse channel	N/Adate	2019/09/17time	21:45:34forward acquisition time	60.00reverse acquisition time	0.00gamma	496.2192k internal	0.2328k external	0.2328temperature offset calibration	0.9995default loss term (dB/km)	0.3790temperature slope calibration	1.0000multiplexer offset coefficient	1.0000multiplexer slope coefficient	1.0000fibre end	0.00T internal ref (°C)	26.55T ext. ref 1 (°C)	0.19T ext. ref 2 (°C)	19.15length (m)	temperature (°C)	Stokes	anti-Stokes-747.200	140.345	0.076	-0.100
-746.185	-22.031	-0.138	-0.085
-745.171	24.557	0.180	0.150
-744.156	-200.000	0.055	0.289
-743.142	-112.443	0.264	-0.053
-742.127	800.000	-0.092	0.344
-741.112	-80.922	0.225	0.075
-740.098	299.588	0.057	-0.105
-739.083	-2.161	0.261	0.185
-738.069	62.916	-0.173	0.174
-737.054	-157.277	0.366	0.022
-736.039	-8.485	-0.273	0.185
-735.025	80.652	0.294	0.319
-734.010	121.543	-0.057	-0.071
-732.996	800.000	-0.093	-0.365
-731.981	-183.065	-0.302	0.005
-730.966	207.698	0.149	-0.235
-729.952	-200.000	0.030	-0.147
-728.937	-200.000	0.007	-0.259
-727.923	800.000	-0.036	0.115
-726.908	187.503	-0.214	0.322
-725.894	800.000	-0.043	0.173
-724.879	20.958	0.247	-0.202
-723.864	-117.972	-0.158	-0.028
-722.850	-200.000	0.051	-0.366
-721.835	-68.703	-0.288	0.112
-720.821	86.992	-0.104	0.116
-719.806	-91.923	-0.146	0.042
-718.791	-42.385	0.147	0.075
-717.777	-64.058	0.381	-0.157
-716.762	800.000	0.075	0.292
-715.748	155.196	0.031	0.043
-714.733	544.564	0.081	-0.194
-713.718	800.000	0.050	-0.141
-712.704	45.817	-0.190	-0.176
-711.689	-133.038	-0.358	0.046
-710.675	-24.593	-0.129	0.077
-709.660	-200.000	-0.005	0.331
-708.645	142.009	0.073	0.098
-707.631	-42.167	-0.062	0.032
-706.616	-132.859	0.193	-0.025
-705.602	-200.000	0.017	0.487
-704.587	345.036	0.096	0.190
-703.572	-99.406	-0.219	-0.056
-702.558	-52.299	-0.196	-0.092
-701.543	800.000	0.034	0.147
-700.529	-104.624	0.119	-0.028
-699.514	-114.078	-0.110	0.021
-698.499	248.675	-0.215	0.367
-697.485	31.870	-0.213	0.185
-696.470	-47.023	0.266	-0.131
-695.456	-25.895	0.389	0.231
-694.441	-138.478	0.071	0.008
-693.426	800.000	-0.108	-0.351
-692.412	-200.000	0.004	0.520
-691.397	333.073	-0.142	0.276
-690.383	1.198	-0.099	0.072
-689.368	-51.639	0.053	0.025
-688.354	106.494	-0.319	0.381
-687.339	441.763	-0.072	0.158
-686.324	376.825	-0.072	-0.149
-685.310	-180.473	-0.138	0.003
-684.295	800.000	-0.112	-0.357
-683.281	-38.404	-0.388	-0.206
-682.266	61.723	0.307	0.307
-681.251	34.976	-0.241	-0.212
-680.237	-135.680	-0.190	-0.023
-679.222	216.413	-0.163	-0.261
-678.208	19.863	0.119	0.096
-677.193	-200.000	-0.044	-0.318
-676.178	-29.894	0.028	0.016
-675.164	-52.599	-0.185	-0.086
-674.149	133.822	0.183	-0.238
-673.135	-119.182	-0.172	0.030
-672.120	-200.000	-0.028	-0.155
-671.105	-20.960	0.196	-0.121
-670.091	215.527	-0.190	-0.302
-669.076	71.745	0.272	-0.284
-668.062	-50.396	0.195	-0.092
-667.047	-168.623	-0.273	0.010
-666.032	37.420	0.080	0.072
-665.018	-200.000	-0.003	0.103
-664.003	-200.000	-0.046	-0.355
-662.989	178.120	-0.027	0.040
-661.974	202.773	-0.032	0.050
-660.959	-200.000	-0.014	0.077
-659.945	-200.000	0.070	0.334
-658.930	-200.000	-0.031	0.215
-657.916	1.432	-0.162	-0.117
-656.901	-75.224	-0.151	0.054
-655.886	-124.157	0.132	-0.021
-654.872	231.650	-0.106	0.175
-653.857	-78.163	-0.131	-0.045
-652.843	-127.692	-0.332	-0.048
-651.828	-200.000	-0.002	0.097
-650.814	800.000	0.091	-0.317
-649.799	-68.279	0.158	-0.062
-648.784	218.067	0.240	0.385
-647.770	-200.000	0.031	-0.313
-646.755	-200.000	0.023	-0.158
-645.741	250.266	-0.104	0.176
-644.726	-152.811	-0.228	-0.016
-643.711	234.859	-0.205	-0.340
-642.697	-5.413	-0.160	0.110
-641.682	-123.403	-0.217	0.035
-640.668	-40.224	0.126	-0.066
-639.653	800.000	-0.118	-0.394
-638.638	368.681	0.056	-0.114
-637.624	-53.299	0.231	0.106
-636.609	-200.000	0.065	-0.379
-635.595	800.000	-0.040	-0.146
-634.580	-10.146	-0.137	-0.091
-633.565	-76.750	-0.020	0.007
-632.551	-37.113	-0.212	0.114
-631.536	663.812	-0.098	-0.255
-630.522	312.076	-0.049	-0.093
-629.507	-97.411	-0.153	-0.040
-628.492	50.710	-0.166	0.158
-627.478	-107.816	-0.207	-0.045
-626.463	-38.328	-0.163	-0.086
-625.449	-167.206	0.260	0.011
-624.434	164.870	0.139	0.197
-623.419	-200.000	0.350	-0.000
-622.405	-72.167	-0.297	-0.111
-621.390	-200.000	-0.019	-0.305
-620.376	-97.784	-0.096	-0.025
-619.361	51.297	0.123	-0.117
-618.346	187.146	0.083	0.125
-617.332	-131.196	-0.409	0.054
-616.317	373.823	0.126	-0.257
-615.303	166.309	-0.219	-0.311
-614.288	22.087	-0.185	0.152
-613.273	-42.719	-0.241	0.123
-612.259	800.000	0.058	-0.198
-611.244	250.108	-0.082	-0.140
-610.230	-171.762	-0.183	-0.006
-609.215	116.330	-0.128	0.158
-608.201	553.630	-0.090	0.216
-607.186	69.516	-0.184	0.190
-606.171	77.697	-0.030	-0.032
-605.157	-96.071	-0.184	0.049
-604.142	-200.000	0.112	-0.001
-603.128	-128.786	0.183	-0.026
-602.113	88.393	-0.191	-0.213
-601.098	46.149	-0.175	0.163
-600.084	49.613	0.086	0.081
-599.069	-128.059	0.126	-0.018
-598.055	-134.107	-0.181	0.022
-597.040	82.889	0.140	-0.152
-596.025	-200.000	-0.036	-0.249
-595.011	278.375	0.020	0.036
-593.996	121.791	-0.057	-0.071
-592.982	279.003	-0.079	-0.140
-591.967	2.713	-0.094	-0.069
-590.952	-58.093	-0.374	-0.163
-589.938	81.798	-0.177	0.192
-588.923	-200.000	-0.073	-0.383
-587.909	99.513	-0.241	0.280
-586.894	607.501	-0.151	0.378
-585.879	-121.465	-0.023	0.004
-584.865	-200.000	-0.003	0.219
-583.850	-21.513	0.137	-0.083
-582.836	-144.954	0.134	-0.012
-581.821	124.522	0.186	0.235
-580.806	-19.434	0.132	0.082
-579.792	-172.698	-0.149	0.005
-578.777	51.870	0.271	-0.258
-577.763	-120.806	-0.288	-0.049
-576.748	-200.000	-0.023	-0.153
-575.733	-117.610	0.423	-0.076
-574.719	-119.831	0.146	-0.025
-573.704	140.689	-0.039	0.052
-572.690	496.443	0.044	-0.100
-571.675	-68.159	0.036	-0.014
-570.661	769.561	0.074	-0.203
-569.646	-4.794	-0.252	0.174
-568.631	-200.000	0.025	0.166
-567.617	87.891	-0.299	-0.332
-566.602	-151.712	0.105	0.008
-565.588	800.000	-0.032	-0.110
-564.573	292.458	-0.070	-0.127
-563.558	707.409	0.092	-0.243
-562.544	800.000	-0.104	0.308
-561.529	-110.020	0.430	0.090
-560.515	452.827	0.078	-0.172
-559.500	27.747	0.315	0.266
-558.485	-200.000	-0.044	-0.261
-557.471	-95.019	-0.180	0.049
-556.456	68.887	0.196	-0.202
-555.442	800.000	0.031	0.103
-554.427	-200.000	0.003	-0.072
-553.412	-31.489	0.182	0.102
-552.398	-83.264	0.165	-0.053
-551.383	-200.000	-0.039	-0.464
-550.369	429.836	-0.068	0.146
-549.354	-46.373	-0.084	0.041
-548.339	251.384	0.095	-0.161
-547.325	-146.448	-0.116	-0.010
-546.310	-32.199	-0.238	0.133
-545.296	800.000	-0.058	-0.221
-544.281	-163.386	0.197	0.009
-543.266	-50.859	0.003	-0.001
-542.252	-141.250	0.118	0.012
-541.237	-130.872	0.329	0.044
-540.223	-200.000	0.000	0.060
-539.208	-84.962	-0.043	-0.013
-538.193	-127.177	-0.290	0.042
-537.179	-200.000	0.025	-0.204
-536.164	-32.357	-0.064	0.036
-535.150	-92.802	-0.102	-0.029
-534.135	-143.688	0.269	-0.025
-533.121	-34.845	-0.236	0.129
-532.106	-46.227	0.302	0.149
-531.091	53.088	0.231	-0.221
-530.077	329.667	0.079	-0.152
-529.062	800.000	-0.036	0.119
-528.048	67.532	0.125	-0.128
-527.033	-55.499	0.249	0.112
-526.018	108.522	-0.166	-0.198
-525.004	15.409	-0.141	-0.111
-523.989	-98.520	0.057	-0.015
-522.975	-200.000	-0.005	-0.299
-521.960	-200.000	-0.027	0.394
-520.945	-127.611	-0.236	0.034
-519.931	47.761	-0.066	0.062
-518.916	-200.000	0.045	-0.360
-517.902	171.162	0.083	-0.118
-516.887	-73.310	-0.314	0.115
-515.872	800.000	-0.041	0.138
-514.858	-91.385	-0.110	-0.032
-513.843	93.729	-0.219	-0.248
-512.829	-126.037	0.234	0.035
-511.814	-125.094	0.109	0.017
-510.799	-200.000	-0.011	-0.170
-509.785	800.000	0.018	-0.064
-508.770	51.299	0.101	-0.096
-507.756	49.065	0.241	0.226
-506.741	-33.707	0.121	0.067
-505.726	-43.715	-0.126	0.063
-504.712	-112.852	-0.079	0.016
-503.697	-174.585	0.061	-0.002
-502.683	97.920	-0.007	0.008
-501.668	-98.670	0.257	-0.065
-500.653	63.387	-0.252	-0.252
-499.639	800.000	0.022	-0.086
-498.624	23.261	0.027	-0.022
-497.610	-145.197	-0.352	-0.032
-496.595	22.929	0.081	-0.066
-495.581	-93.914	-0.226	0.062
-494.566	-128.372	0.192	0.027
-493.551	-6.821	-0.118	0.080
-492.537	-5.546	0.117	-0.080
-491.522	-200.000	0.007	-0.107
-490.508	32.469	-0.211	-0.182
-489.493	51.543	0.168	-0.160
-488.478	-13.010	0.214	0.139
-487.464	190.760	0.107	0.161
-486.449	203.990	-0.270	0.417
-485.435	135.041	-0.284	-0.368
-484.420	-28.307	-0.132	0.076
-483.405	-12.101	0.038	0.025
-482.391	-41.678	0.332	-0.170
-481.376	-200.000	-0.022	-0.130
-480.362	-2.640	0.191	0.133
-479.347	-182.874	-0.234	0.004
-478.332	-200.000	-0.015	0.154
-477.318	-56.305	0.196	-0.087
-476.303	44.451	0.128	0.117
-475.289	586.399	0.123	0.302
-474.274	223.142	0.125	-0.200
-473.259	800.000	0.053	0.162
-472.245	89.672	0.194	0.216
-471.230	121.451	-0.212	0.263
-470.216	-98.496	-0.214	-0.055
-469.201	-147.779	-0.030	-0.002
-468.186	-200.000	-0.038	-0.268
-467.172	-61.638	0.289	0.121
-466.157	3.104	0.161	-0.117
-465.143	24.431	-0.373	0.307
-464.128	56.011	0.229	0.221
-463.113	312.800	-0.071	-0.133
-462.099	-42.995	-0.150	-0.076
-461.084	184.074	0.084	0.124
-460.070	-4.483	0.160	-0.110
-459.055	14.013	-0.123	0.095
-458.040	-53.328	0.426	-0.194
-457.026	-44.555	0.041	0.020
-456.011	-122.018	-0.135	0.022
-454.997	-200.000	-0.034	0.202
-453.982	593.450	-0.081	0.199
-452.968	6.715	0.189	0.140
-451.953	800.000	-0.055	-0.198
-450.938	-200.000	-0.021	0.098
-449.924	614.545	-0.066	-0.164
-448.909	516.793	0.033	-0.076
-447.895	-200.000	-0.038	-0.171
-446.880	130.655	0.157	-0.201
-445.865	-49.740	0.165	0.078
-444.851	-108.728	-0.157	0.034
-443.836	100.798	0.163	-0.189
-442.822	52.233	0.174	0.165
-441.807	67.209	-0.199	0.202
-440.792	-46.375	-0.177	0.087
-439.778	-123.380	0.393	-0.062
-438.763	87.102	0.171	-0.189
-437.749	-130.219	-0.089	-0.012
-436.734	800.000	-0.101	0.348
-435.719	152.026	-0.039	-0.053
-434.705	-136.860	0.164	-0.019
-433.690	205.646	-0.084	-0.130
-432.676	-101.898	0.139	0.034
-431.661	-200.000	-0.027	0.237
-430.646	-141.024	0.195	0.020
-429.632	-24.640	-0.241	0.143
-428.617	800.000	-0.049	-0.190
-427.603	80.310	-0.274	-0.294
-426.588	6.407	0.264	-0.195
-425.573	-127.708	-0.074	0.011
-424.559	230.169	-0.136	-0.222
-423.544	-25.384	-0.184	-0.108
-422.530	-49.330	-0.251	-0.119
-421.515	-12.529	0.022	-0.014
-420.500	800.000	0.050	0.192
-419.486	-200.000	0.009	-0.154
-418.471	122.732	-0.305	-0.380
-417.457	-29.826	0.288	0.163
-416.442	23.540	-0.242	0.198
-415.428	4.875	0.087	-0.064
-414.413	113.126	0.152	-0.183
-413.398	-132.424	-0.172	0.022
-412.384	-79.465	-0.115	-0.039
-411.369	97.899	-0.109	0.124
-410.355	-83.835	0.028	-0.009
-409.340	-200.000	-0.041	0.241
-408.325	162.488	0.268	0.373
-407.311	-51.881	0.151	-0.070
-406.296	-175.327	0.376	0.010
-405.282	421.297	-0.135	-0.289
-404.267	76.119	0.146	0.154
-403.252	532.308	-0.068	-0.161
-402.238	-11.600	-0.349	-0.228
-401.223	-200.000	-0.036	0.251
-400.209	-50.048	0.252	0.119
-399.194	56.794	-0.164	0.159
-398.179	47.173	0.087	-0.081
-397.165	-64.546	-0.075	-0.030
-396.150	-50.028	0.067	-0.032
-395.136	800.000	0.026	0.095
-394.121	178.846	0.045	-0.065
-393.106	398.424	0.109	0.227
-392.092	39.015	0.076	0.068
-391.077	-10.060	0.109	-0.072
-390.063	501.437	-0.030	-0.069
-389.048	79.265	0.185	-0.197
-388.033	-200.000	-0.043	0.265
-387.019	12.184	0.182	0.139
-386.004	754.344	-0.083	0.223
-384.990	-200.000	0.019	-0.086
-383.975	124.467	-0.145	0.181
-382.960	136.616	0.052	0.068
-381.946	196.853	-0.109	0.165
-380.931	-200.000	-0.035	0.213
-379.917	-95.336	-0.221	-0.059
-378.902	-130.483	0.052	0.007
-377.888	-34.190	-0.155	0.084
-376.873	-200.000	-0.026	-0.175
-375.858	-33.083	-0.213	0.117
-374.844	-28.156	0.179	-0.103
-373.829	-200.000	0.009	-0.127
-372.815	700.038	-0.057	0.150
-371.800	800.000	-0.060	0.170
-370.785	-19.831	-0.084	-0.051
-369.771	-155.654	0.170	0.011
-368.756	-200.000	0.027	-0.349
-367.742	-200.000	-0.016	-0.182
-366.727	-66.141	-0.102	0.040
-365.712	157.306	-0.198	-0.272
-364.698	737.150	-0.142	-0.378
-363.683	800.000	0.073	-0.240
-362.669	449.345	-0.186	-0.407
-361.654	3.634	-0.084	-0.061
-360.639	13.857	0.449	0.347
-359.625	-104.036	0.130	-0.030
-358.610	-86.269	-0.226	0.069
-357.596	182.025	0.037	0.055
-356.581	-200.000	-0.056	0.320
-355.566	-183.805	0.297	-0.005
-354.552	371.969	-0.127	0.256
-353.537	-185.408	-0.227	0.003
-352.523	-45.586	0.035	-0.017
-351.508	-36.867	0.220	0.117
-350.493	-200.000	-0.009	0.066
-349.479	-142.357	-0.163	0.016
-348.464	225.010	0.320	0.513
-347.450	800.000	-0.028	0.081
-346.435	138.510	0.107	-0.139
-345.420	-200.000	-0.001	-0.032
-344.406	394.762	0.142	0.294
-343.391	-200.000	-0.008	0.092
-342.377	417.066	-0.130	-0.274
-341.362	-24.393	0.177	-0.105
-340.348	91.798	0.043	0.048
-339.333	-200.000	0.035	0.162
-338.318	-4.056	0.098	-0.068
-337.304	-136.829	0.122	-0.014
-336.289	123.933	0.166	-0.206
-335.275	522.686	-0.151	-0.351
-334.260	66.823	0.051	0.051
-333.245	4.838	0.298	0.217
-332.231	15.666	-0.253	-0.197
-331.216	-43.966	-0.230	0.115
-330.202	-200.000	0.019	-0.101
-329.187	34.575	0.287	-0.248
-328.172	-65.163	-0.230	0.092
-327.158	-84.641	-0.224	-0.070
-326.143	-200.000	0.008	-0.238
-325.129	-178.114	-0.274	0.006
-324.114	228.465	-0.201	0.324
-323.099	-87.712	0.038	-0.011
-322.085	-150.168	-0.312	0.024
-321.070	800.000	-0.077	-0.264
-320.056	52.098	0.202	0.191
-319.041	-200.000	-0.036	0.277
-318.026	79.538	0.195	-0.207
-317.012	-40.117	-0.055	-0.028
-315.997	-200.000	-0.009	-0.057
-314.983	-70.104	0.231	0.087
-313.968	-181.187	0.388	-0.008
-312.953	-93.475	-0.266	-0.073
-311.939	800.000	0.050	0.139
-310.924	-200.000	0.018	0.212
-309.910	800.000	0.053	-0.148
-308.895	319.838	-0.115	0.217
-307.880	73.465	-0.183	-0.190
-306.866	577.560	0.073	0.176
-305.851	-14.941	0.240	0.152
-304.837	107.463	0.112	-0.132
-303.822	118.743	-0.177	0.217
-302.807	126.732	-0.206	-0.259
-301.793	340.350	-0.161	-0.311
-300.778	62.599	0.164	0.163
-299.764	-70.759	0.240	0.090
-298.749	-187.456	0.343	-0.005
-297.735	-200.000	0.029	0.198
-296.720	-137.702	-0.500	0.056
-295.705	-110.256	0.124	0.026
-294.691	623.383	0.058	-0.146
-293.676	-159.680	-0.397	0.022
-292.662	-73.208	0.213	0.077
-291.647	-200.000	-0.002	-0.369
-290.632	800.000	0.078	-0.222
-289.618	-200.000	0.053	0.255
-288.603	-163.134	-0.399	0.019
-287.589	800.000	-0.066	-0.188
-286.574	-200.000	0.004	-0.201
-285.559	-25.428	-0.320	0.187
-284.545	-79.435	0.202	-0.068
-283.530	168.613	0.042	-0.059
-282.516	-200.000	0.044	-0.242
-281.501	-132.389	-0.082	0.010
-280.486	800.000	0.127	0.380
-279.472	232.398	0.067	-0.110
-278.457	-40.804	0.391	-0.200
-277.443	-200.000	-0.010	-0.232
-276.428	41.504	0.135	-0.121
-275.413	450.490	0.130	0.284
-274.399	0.046	-0.269	0.190
-273.384	800.000	-0.072	-0.234
-272.370	536.058	0.108	-0.253
-271.355	18.484	-0.192	0.152
-270.340	-200.000	-0.003	0.094
-269.326	126.472	-0.237	0.297
-268.311	-200.000	0.015	0.322
-267.297	-40.876	0.265	-0.136
-266.282	207.554	0.092	0.141
-265.267	-31.359	0.260	0.145
-264.253	-114.922	-0.159	-0.030
-263.238	-159.747	-0.178	0.010
-262.224	-124.506	-0.034	0.005
-261.209	99.589	0.156	-0.179
-260.195	181.621	-0.156	-0.227
-259.180	800.000	0.034	-0.125
-258.165	-129.454	-0.082	-0.011
-257.151	53.958	0.086	0.081
-256.136	6.907	0.103	0.076
-255.122	-12.784	0.209	-0.135
-254.107	-176.624	-0.162	-0.004
-253.092	208.897	0.029	-0.045
-252.078	722.329	-0.050	0.132
-251.063	534.492	-0.079	-0.184
-250.049	-80.571	0.455	0.150
-249.034	-60.018	0.090	-0.038
-248.019	791.646	-0.119	0.323
-247.005	190.970	-0.111	-0.166
-245.990	89.602	-0.207	0.228
-244.976	213.089	0.031	0.048
-243.961	16.733	-0.211	0.165
-242.946	206.785	0.102	0.157
-241.932	-59.292	-0.274	-0.116
-240.917	308.837	-0.039	0.071
-239.903	57.919	-0.108	0.105
-238.888	-55.086	0.069	-0.030
-237.873	-168.542	0.184	-0.007
-236.859	-200.000	0.015	0.170
-235.844	-200.000	-0.001	0.143
-234.830	57.700	-0.253	-0.244
-233.815	-80.496	0.506	0.167
-232.800	-52.746	-0.355	0.162
-231.786	116.026	0.145	-0.176
-230.771	-122.115	0.343	0.056
-229.757	411.811	0.095	0.199
-228.742	-164.604	0.307	-0.014
-227.727	81.944	0.293	0.313
-226.713	118.888	-0.231	-0.282
-225.698	234.375	-0.199	-0.324
-224.684	-200.000	-0.004	-0.168
-223.669	177.436	0.009	-0.013
-222.655	521.926	-0.194	-0.450
-221.640	-200.000	0.034	-0.339
-220.625	757.762	0.029	0.078
-219.611	-44.286	0.257	-0.127
-218.596	-26.577	-0.152	0.088
-217.582	422.276	0.142	0.301
-216.567	-32.805	0.199	-0.109
-215.552	659.117	-0.081	0.206
-214.538	112.647	0.102	-0.122
-213.523	-108.156	0.158	0.034
-212.509	-12.967	0.125	0.080
-211.494	28.486	-0.360	-0.300
-210.479	800.000	-0.027	-0.077
-209.465	303.628	-0.067	0.123
-208.450	-200.000	-0.011	0.175
-207.436	-79.996	-0.129	0.043
-206.421	-58.824	0.244	0.104
-205.406	800.000	0.048	-0.206
-204.392	-199.793	-0.162	0.001
-203.377	-4.972	-0.251	0.171
-202.363	-57.095	-0.173	0.075
-201.348	-188.013	0.288	-0.004
-200.333	-116.431	-0.144	0.026
-199.319	431.612	-0.051	0.109
-198.304	-167.259	0.043	0.002
-197.290	161.367	0.210	0.289
-196.275	-25.164	0.265	0.155
-195.260	800.000	-0.109	-0.463
-194.246	-139.710	-0.194	0.020
-193.231	279.408	0.014	0.025
-192.217	800.000	0.157	0.642
-191.202	172.136	-0.105	0.149
-190.187	31.644	0.316	0.268
-189.173	-69.495	-0.289	-0.109
-188.158	-200.000	-0.005	-0.092
-187.144	-4.766	0.233	-0.159
-186.129	59.215	0.186	0.180
-185.114	-101.376	0.240	0.058
-184.100	-83.473	0.355	0.112
-183.085	-175.994	0.240	0.006
-182.071	-140.611	-0.079	0.008
-181.056	-59.784	-0.091	-0.039
-180.042	-25.502	-0.387	0.226
-179.027	-54.894	0.140	0.062
-178.012	400.907	0.187	0.386
-176.998	207.196	0.026	0.039
-175.983	-16.248	0.366	0.229
-174.969	36.404	-0.252	0.219
-173.954	393.563	0.064	0.131
-172.939	-200.000	-0.048	0.315
-171.925	-200.000	0.038	0.174
-170.910	-200.000	0.025	0.284
-169.896	184.249	0.077	-0.112
-168.881	800.000	0.062	-0.213
-167.866	269.401	0.095	-0.164
-166.852	-140.294	-0.310	-0.032
-165.837	517.394	0.078	0.180
-164.823	-46.407	-0.105	-0.051
-163.808	-28.104	-0.329	0.187
-162.793	800.000	-0.016	-0.051
-161.779	-3.831	-0.105	-0.072
-160.764	170.018	0.344	-0.485
-159.750	-116.174	-0.259	0.047
-158.735	-200.000	-0.003	0.080
-157.720	-48.494	0.023	-0.011
-156.706	-200.000	-0.025	0.228
-155.691	-200.000	0.026	0.288
-154.677	255.581	-0.172	0.291
-153.662	-200.000	0.000	-0.159
-152.647	260.388	0.108	-0.183
-151.633	-42.807	-0.220	0.110
-150.618	25.811	0.226	0.185
-149.604	114.327	0.103	0.124
-148.589	-200.000	0.022	0.125
-147.574	-200.000	-0.031	-0.242
-146.560	32.148	-0.120	-0.102
-145.545	-92.861	0.158	-0.044
-144.531	-200.000	-0.028	-0.171
-143.516	-141.021	-0.323	-0.033
-142.502	-124.494	0.218	-0.033
-141.487	11.049	-0.140	-0.105
-140.472	-200.000	-0.018	-0.199
-139.458	-200.000	-0.000	-0.207
-138.443	575.388	-0.159	-0.381
-137.429	-110.277	0.149	-0.031
-136.414	-200.000	0.033	0.154
-135.399	-97.956	0.020	-0.005
-134.385	800.000	0.020	-0.084
-133.370	-43.706	0.058	0.029
-132.356	37.538	-0.067	-0.059
-131.341	-172.740	0.113	-0.003
-130.326	113.478	-0.031	0.037
-129.312	-72.627	0.306	0.111
-128.297	19.984	-0.210	0.167
-127.283	-97.572	0.084	-0.021
-126.268	286.143	-0.026	0.046
-125.253	-115.782	0.380	0.070
-124.239	724.203	-0.045	-0.117
-123.224	-57.770	0.066	0.029
-122.210	-179.149	0.258	0.006
-121.195	-44.132	-0.103	0.051
-120.180	62.199	0.167	0.164
-119.166	15.760	-0.216	0.167
-118.151	-97.379	-0.227	0.058
-117.137	-125.666	0.183	-0.027
-116.122	50.260	-0.323	0.300
-115.107	65.428	0.019	-0.018
-114.093	26.390	-0.105	-0.086
-113.078	51.201	0.196	0.183
-112.064	-134.622	0.125	-0.015
-111.049	-14.365	-0.112	0.071
-110.034	-108.146	-0.166	0.035
-109.020	-70.648	-0.099	0.037
-108.005	371.773	-0.077	0.154
-106.991	-134.943	0.190	0.023
-105.976	-200.000	-0.013	0.083
-104.962	43.308	0.225	-0.202
-103.947	-200.000	0.030	0.178
-102.932	619.693	-0.140	-0.346
-101.918	800.000	0.174	-0.585
-100.903	346.246	-0.055	0.107
-99.889	800.000	-0.114	0.312
-98.874	-86.732	0.180	-0.054
-97.859	-200.000	0.037	-0.272
-96.845	-12.270	0.135	0.087
-95.830	-26.564	0.009	-0.005
-94.816	800.000	0.061	0.254
-93.801	-169.255	-0.289	-0.010
-92.786	326.369	-0.111	0.209
-91.772	216.208	-0.338	0.528
-90.757	800.000	0.052	0.207
-89.743	-146.671	0.173	0.015
-88.728	800.000	-0.100	0.288
-87.713	800.000	-0.043	0.173
-86.699	-68.030	0.165	0.063
-85.684	-200.000	0.065	0.428
-84.670	22.885	-0.237	-0.191
-83.655	-200.000	0.002	-0.119
-82.640	-13.680	-0.090	-0.057
-81.626	-122.511	-0.179	-0.029
-80.611	360.404	-0.100	0.197
-79.597	3.253	0.257	-0.184
-78.582	-64.974	0.251	0.099
-77.567	74.034	0.045	-0.046
-76.553	352.476	0.044	0.085
-75.538	619.516	0.129	0.318
-74.524	-142.223	-0.112	0.011
-73.509	-9.412	-0.121	0.080
-72.494	-54.610	-0.127	0.056
-71.480	376.685	-0.110	-0.221
-70.465	121.228	0.188	0.230
-69.451	-30.009	0.248	0.138
-68.436	-133.357	-0.313	-0.039
-67.422	372.204	0.074	-0.147
-66.407	545.196	-0.086	0.202
-65.392	-35.546	0.229	0.122
-64.378	-71.419	-0.068	-0.025
-63.363	-200.000	-0.018	0.202
-62.349	-78.028	0.235	0.080
-61.334	73.169	-1.110	-1.139
-60.319	23.728	0.919	0.743
-59.305	800.000	-0.352	-1.295
-58.290	172.919	1.020	1.441
-57.276	800.000	0.604	1.637
-56.261	-200.000	114.581	629.210
-55.246	449.553	1495.872	3235.469
-54.232	148.564	2663.800	3529.375
-53.217	91.432	2295.186	2528.816
-52.203	32.737	2043.575	1734.005
-51.188	28.397	1959.257	1624.024
-50.173	27.097	1941.864	1598.118
-49.159	43.178	2005.145	1794.767
-48.144	42.388	2020.575	1801.416
-47.130	28.771	1976.841	1641.688
-46.115	26.596	1966.606	1613.760
-45.100	26.517	1963.082	1610.097
-44.086	26.471	1960.993	1607.917
-43.071	26.373	1958.648	1605.055
-42.057	26.365	1957.129	1603.681
-41.042	26.401	1955.346	1602.471
-40.027	26.450	1952.933	1600.867
-39.013	26.444	1951.067	1599.217
-37.998	26.415	1949.694	1597.773
-36.984	26.454	1947.853	1596.543
-35.969	26.402	1946.486	1594.906
-34.954	26.457	1944.625	1593.802
-33.940	26.519	1942.546	1592.577
-32.925	26.578	1941.092	1591.847
-31.911	26.528	1939.867	1590.338
-30.896	26.585	1937.567	1588.887
-29.881	26.596	1935.986	1587.625
-28.867	26.622	1934.905	1586.905
-27.852	26.676	1932.895	1585.659
-26.838	26.616	1931.639	1584.049
-25.823	26.635	1929.916	1582.740
-24.809	26.592	1928.211	1580.903
-23.794	26.557	1926.492	1579.119
-22.779	26.642	1924.502	1578.169
-21.765	26.526	1923.004	1575.864
-20.750	26.588	1921.440	1575.060
-19.736	26.620	1919.557	1573.731
-18.721	26.577	1918.168	1572.160
-17.706	26.603	1916.436	1570.901
-16.692	26.516	1915.114	1569.000
-15.677	26.545	1913.122	1567.558
-14.663	26.603	1911.744	1566.872
-13.648	26.561	1910.582	1565.497
-12.633	26.559	1909.742	1564.723
-11.619	26.579	1908.221	1563.590
-10.604	26.556	1906.658	1562.045
-9.590	26.533	1905.570	1560.900
-8.575	26.417	1904.877	1559.265
-7.560	26.617	1902.569	1559.039
-6.546	26.580	1901.663	1557.914
-5.531	26.527	1900.503	1556.445
-4.517	26.603	1898.995	1555.804
-3.502	26.516	1898.197	1554.344
-2.487	26.515	1897.262	1553.502
-1.473	26.513	1895.756	1552.193
-0.458	26.539	1890.669	1548.186
0.556	24.494	1870.244	1517.161
1.571	19.677	1850.940	1460.753
2.586	15.396	1871.966	1440.542
3.600	14.277	1905.875	1456.717
4.615	14.200	1898.543	1450.321
5.629	11.007	1802.353	1350.261
6.644	4.396	1690.170	1214.522
7.659	0.585	1656.060	1160.647
8.673	0.249	1652.654	1155.579
9.688	0.292	1651.233	1154.817
10.702	0.156	1650.455	1153.127
11.717	0.044	1646.742	1149.574
12.731	0.562	1645.307	1152.430
13.746	5.665	1656.005	1198.947
14.761	13.189	1670.857	1267.505
15.775	16.797	1676.200	1299.159
16.790	16.918	1675.596	1299.504
17.804	15.901	1672.548	1289.244
18.819	14.983	1669.282	1279.594
19.834	14.404	1666.720	1273.097
20.848	14.182	1665.156	1270.093
21.863	13.919	1663.586	1266.779
22.877	13.689	1662.044	1263.737
23.892	13.429	1660.717	1260.634
24.907	13.317	1660.112	1259.214
25.921	13.224	1658.787	1257.392
26.936	13.294	1658.062	1257.259
27.950	13.356	1656.564	1256.483
28.965	13.421	1656.212	1256.597
29.980	13.437	1655.714	1256.234
30.994	13.469	1654.955	1255.787
32.009	13.610	1653.279	1255.470
33.023	13.562	1652.778	1254.620
34.038	13.638	1651.934	1254.440
35.053	13.570	1651.023	1253.123
36.067	13.458	1649.830	1251.262
37.082	13.483	1648.888	1250.624
38.096	13.431	1647.546	1249.102
39.111	13.483	1647.219	1249.137
40.126	13.510	1646.215	1248.471
41.140	13.465	1645.445	1247.437
42.155	13.409	1643.669	1245.557
43.169	13.369	1642.482	1244.249
44.184	13.255	1641.604	1242.613
45.199	13.237	1640.329	1241.403
46.213	13.321	1638.972	1240.901
47.228	13.328	1637.801	1239.953
48.242	13.323	1636.423	1238.763
49.257	13.442	1635.496	1238.846
50.271	13.429	1634.010	1237.514
51.286	13.395	1633.197	1236.535
52.301	13.345	1631.449	1234.728
53.315	13.422	1630.229	1234.270
54.330	13.412	1628.848	1233.036
55.344	13.322	1627.583	1231.303
56.359	13.367	1625.734	1230.131
57.374	13.371	1624.507	1229.125
58.388	13.399	1623.376	1228.361
59.403	13.320	1622.012	1226.637
60.417	13.209	1620.825	1224.807
61.432	13.232	1619.683	1224.010
62.447	13.233	1618.632	1223.114
63.461	13.225	1617.420	1222.028
64.476	13.273	1615.879	1221.109
65.490	13.245	1614.846	1220.013
66.505	13.242	1613.347	1218.753
67.520	13.228	1612.695	1218.050
68.534	13.217	1611.664	1217.082
69.549	13.287	1610.001	1216.234
70.563	13.284	1609.030	1215.372
71.578	13.177	1608.026	1213.718
72.593	13.200	1606.921	1212.949
73.607	13.124	1606.567	1212.017
74.622	13.105	1604.904	1210.514
75.636	13.134	1603.654	1209.679
76.651	13.104	1602.581	1208.537
77.666	13.135	1602.016	1208.230
78.680	13.184	1600.737	1207.517
79.695	13.212	1599.871	1206.966
80.709	13.158	1598.987	1205.798
81.724	13.187	1598.206	1205.315
82.739	13.309	1596.996	1205.181
83.753	13.303	1595.993	1204.277
84.768	13.281	1595.557	1203.682
85.782	13.356	1594.447	1203.278
86.797	13.443	1593.471	1203.068
87.812	13.374	1592.727	1201.901
88.826	13.348	1591.858	1200.947
89.841	13.364	1590.483	1199.923
90.855	13.406	1589.329	1199.250
91.870	13.415	1587.751	1198.018
92.884	13.407	1587.011	1197.297
93.899	13.352	1586.558	1196.452
94.914	13.397	1585.068	1195.548
95.928	13.473	1583.752	1194.995
96.943	13.476	1582.717	1194.129
97.957	13.461	1581.080	1192.685
98.972	13.444	1579.984	1191.626
99.987	13.481	1578.270	1190.500
101.001	13.424	1576.763	1188.846
102.016	13.365	1575.679	1187.501
103.030	13.431	1574.143	1186.706
104.045	13.566	1572.570	1186.384
105.060	13.489	1571.162	1184.665
106.074	13.411	1570.197	1183.278
107.089	13.449	1568.405	1182.090
108.103	13.267	1566.756	1179.450
109.118	13.369	1565.649	1179.239
110.133	13.278	1563.901	1177.166
111.147	13.245	1563.037	1176.176
112.162	13.310	1561.443	1175.337
113.176	13.374	1559.592	1174.298
114.191	13.379	1559.142	1173.887
115.206	13.337	1557.830	1172.495
116.220	13.299	1556.835	1171.377
117.235	13.380	1555.031	1170.489
118.249	13.479	1553.355	1169.825
119.264	13.358	1552.897	1168.522
120.279	13.302	1551.826	1167.212
121.293	13.356	1549.771	1165.946
122.308	13.299	1548.410	1164.420
123.322	13.349	1546.850	1163.494
124.337	13.203	1545.784	1161.564
125.352	13.365	1543.723	1161.047
126.366	13.253	1543.107	1159.694
127.381	13.244	1542.432	1159.021
128.395	13.196	1540.850	1157.394
129.410	13.311	1539.331	1156.960
130.424	13.282	1538.269	1155.853
131.439	13.304	1536.947	1154.910
132.454	13.396	1535.309	1154.218
133.468	13.406	1534.143	1153.310
134.483	13.301	1532.749	1151.431
135.497	13.348	1531.567	1150.768
136.512	13.331	1530.366	1149.647
137.527	13.477	1528.668	1149.283
138.541	13.480	1527.136	1148.048
139.556	13.412	1526.484	1146.986
140.570	13.476	1524.599	1145.910
141.585	13.452	1523.390	1144.739
142.600	13.508	1522.162	1144.098
143.614	13.509	1521.226	1143.302
144.629	13.573	1520.049	1142.757
145.643	13.554	1519.082	1141.796
146.658	13.637	1517.490	1141.068
147.673	13.657	1515.483	1139.598
148.687	13.609	1514.239	1138.234
149.702	13.550	1512.763	1136.619
150.716	13.550	1511.257	1135.384
151.731	13.511	1510.171	1134.201
152.746	13.485	1508.761	1132.865
153.760	13.562	1507.235	1132.145
154.775	13.543	1506.495	1131.362
155.789	13.591	1504.398	1130.009
156.804	13.567	1503.811	1129.308
157.819	13.704	1502.093	1128.853
158.833	13.656	1501.206	1127.759
159.848	13.733	1500.358	1127.543
160.862	13.800	1498.932	1126.825
161.877	13.715	1498.004	1125.453
162.892	13.676	1496.516	1123.972
163.906	13.750	1494.743	1123.043
164.921	13.656	1494.246	1121.932
165.935	13.633	1493.025	1120.761
166.950	13.683	1491.933	1120.179
167.964	13.655	1491.098	1119.266
168.979	13.686	1490.364	1118.822
169.994	13.674	1488.988	1117.608
171.008	13.786	1487.759	1117.342
172.023	13.736	1486.856	1116.232
173.037	13.827	1485.651	1115.836
174.052	13.840	1484.649	1115.075
175.067	13.854	1483.368	1114.106
176.081	13.788	1482.730	1113.089
177.096	13.704	1481.206	1111.283
178.110	13.789	1479.200	1110.249
179.125	13.824	1478.194	1109.629
180.140	13.870	1477.163	1109.063
181.154	13.794	1476.704	1108.112
182.169	13.917	1475.165	1107.679
183.183	13.843	1473.848	1106.099
184.198	13.894	1472.839	1105.587
185.213	13.922	1471.791	1104.884
186.227	13.962	1470.676	1104.220
187.242	13.891	1470.011	1103.151
188.256	14.062	1468.838	1103.307
189.271	14.046	1467.822	1102.341
190.286	14.034	1466.807	1101.398
191.300	13.962	1465.695	1099.992
192.315	13.934	1464.574	1098.866
193.329	13.806	1463.002	1096.744
194.344	13.821	1462.090	1096.061
195.359	13.875	1460.738	1095.306
196.373	13.862	1460.133	1094.674
197.388	13.934	1459.208	1094.357
198.402	14.031	1458.308	1094.224
199.417	14.134	1456.498	1093.443
200.432	14.035	1456.527	1092.717
201.446	14.114	1454.878	1091.906
202.461	14.169	1453.673	1091.266
203.475	14.205	1453.014	1090.907
204.490	14.212	1451.895	1090.015
205.504	14.160	1450.427	1088.477
206.519	14.158	1449.566	1087.724
207.534	14.255	1447.794	1086.932
208.548	14.214	1446.824	1085.839
209.563	14.187	1445.957	1084.917
210.577	14.214	1445.285	1084.490
211.592	14.251	1444.553	1084.087
212.607	14.276	1443.767	1083.564
213.621	14.333	1442.993	1083.263
214.636	14.367	1441.910	1082.573
215.650	14.271	1441.293	1081.387
216.665	14.407	1440.035	1081.232
217.680	14.379	1439.685	1080.689
218.694	14.382	1438.575	1079.780
219.709	14.504	1437.604	1079.749
220.723	14.477	1436.423	1078.593
221.738	14.532	1435.379	1078.065
222.753	14.406	1435.099	1076.949
223.767	14.500	1433.911	1076.566
224.782	14.480	1432.821	1075.527
225.796	14.471	1432.000	1074.754
226.811	14.554	1431.377	1074.730
227.826	14.592	1430.293	1074.060
228.840	14.588	1429.354	1073.240
229.855	14.612	1428.540	1072.683
230.869	14.489	1427.873	1071.301
231.884	14.499	1426.552	1070.274
232.899	14.574	1425.065	1069.550
233.913	14.527	1424.155	1068.468
234.928	14.518	1423.036	1067.479
235.942	14.455	1421.927	1066.148
236.957	14.508	1420.850	1065.584
237.972	14.433	1419.964	1064.347
238.986	14.471	1418.840	1063.650
240.001	14.511	1417.757	1063.002
241.015	14.587	1416.553	1062.487
242.030	14.599	1415.514	1061.690
243.045	14.627	1414.570	1061.067
244.059	14.600	1413.538	1060.030
245.074	14.678	1413.313	1060.265
246.088	14.592	1412.364	1058.911
247.103	14.678	1411.602	1058.792
248.117	14.730	1410.764	1058.397
249.132	14.724	1410.043	1057.725
250.147	14.814	1409.114	1057.503
251.161	14.815	1409.013	1057.340
252.176	14.853	1407.794	1056.571
253.190	14.964	1407.221	1056.750
254.205	14.987	1406.162	1056.009
255.220	15.011	1405.273	1055.399
256.234	15.043	1404.712	1055.086
257.249	15.077	1403.775	1054.502
258.263	15.087	1402.420	1053.455
259.278	15.002	1401.894	1052.430
260.293	15.044	1401.098	1052.005
261.307	15.050	1400.652	1051.614
262.322	15.070	1399.345	1050.664
263.336	15.210	1398.844	1051.076
264.351	15.201	1398.023	1050.310
265.366	15.201	1396.621	1049.162
266.380	15.236	1395.706	1048.598
267.395	15.239	1394.951	1047.960
268.409	15.245	1394.195	1047.332
269.424	15.332	1392.722	1046.678
270.439	15.284	1391.676	1045.501
271.453	15.218	1390.953	1044.456
272.468	15.335	1390.078	1044.433
273.482	15.167	1389.765	1043.057
274.497	15.215	1388.536	1042.344
275.512	15.286	1387.604	1041.991
276.526	15.256	1387.175	1041.391
277.541	15.267	1385.875	1040.393
278.555	15.272	1385.153	1039.787
279.570	15.289	1384.618	1039.398
280.585	15.312	1383.952	1038.953
281.599	15.343	1382.701	1038.110
282.614	15.333	1382.149	1037.543
283.628	15.391	1380.550	1036.610
284.643	15.376	1379.370	1035.539
285.657	15.504	1378.213	1035.369
286.672	15.358	1377.459	1033.812
287.687	15.452	1376.643	1033.686
288.701	15.418	1375.525	1032.547
289.716	15.420	1375.066	1032.122
290.730	15.502	1373.921	1031.675
291.745	15.500	1373.253	1031.071
292.760	15.512	1372.369	1030.390
293.774	15.618	1371.111	1030.005
294.789	15.507	1370.359	1028.667
295.803	15.621	1369.170	1028.381
296.818	15.568	1368.850	1027.729
297.833	15.628	1367.496	1026.986
298.847	15.637	1366.910	1026.511
299.862	15.621	1365.591	1025.332
300.876	15.613	1365.087	1024.813
301.891	15.622	1363.810	1023.820
302.906	15.615	1363.299	1023.301
303.920	15.668	1362.622	1023.026
304.935	15.761	1361.985	1023.024
305.949	15.858	1360.860	1022.677
306.964	15.750	1360.296	1021.504
307.979	15.866	1359.498	1021.519
308.993	15.940	1358.118	1020.844
310.008	15.923	1357.197	1019.956
311.022	15.810	1356.408	1018.587
312.037	15.866	1355.333	1018.031
313.052	15.885	1354.479	1017.413
314.066	15.943	1353.377	1016.848
315.081	15.875	1352.793	1015.907
316.095	15.792	1351.748	1014.532
317.110	15.887	1350.443	1014.032
318.125	15.871	1349.369	1013.041
319.139	15.870	1348.643	1012.403
320.154	15.847	1347.744	1011.498
321.168	15.800	1347.205	1010.722
322.183	15.866	1345.547	1009.786
323.197	15.813	1345.058	1009.008
324.212	15.868	1344.358	1008.727
325.227	15.942	1343.671	1008.562
326.241	15.842	1342.418	1006.934
327.256	16.011	1341.284	1007.005
328.270	15.975	1340.976	1006.468
329.285	15.931	1339.904	1005.312
330.300	15.949	1339.377	1004.940
331.314	15.970	1338.607	1004.394
332.329	15.949	1337.575	1003.406
333.343	15.951	1336.739	1002.702
334.358	15.975	1335.560	1001.876
335.373	16.065	1334.694	1001.671
336.387	16.183	1333.756	1001.578
337.402	16.122	1333.245	1000.741
338.416	16.159	1332.267	1000.142
339.431	16.138	1332.317	999.963
340.446	16.108	1331.434	999.037
341.460	16.212	1330.291	998.705
342.475	16.272	1329.348	998.264
343.489	16.262	1328.488	997.471
344.504	16.312	1327.195	996.707
345.519	16.288	1326.366	995.857
346.533	16.317	1325.673	995.417
347.548	16.369	1324.514	994.768
348.562	16.340	1323.667	993.868
349.577	16.440	1323.029	993.889
350.592	16.389	1322.517	993.117
351.606	16.375	1321.401	992.111
352.621	16.357	1320.064	990.915
353.635	16.403	1319.522	990.688
354.650	16.323	1318.532	989.387
355.665	16.342	1317.448	988.597
356.679	16.292	1316.988	987.877
357.694	16.437	1315.694	987.662
358.708	16.442	1314.320	986.572
359.723	16.456	1313.516	985.967
360.738	16.392	1312.551	984.781
361.752	16.441	1311.344	984.072
362.767	16.576	1310.327	984.009
363.781	16.609	1309.255	983.309
364.796	16.478	1309.087	982.336
365.810	16.556	1308.302	982.112
366.825	16.560	1307.497	981.440
367.840	16.570	1306.448	980.624
368.854	16.690	1305.870	980.801
369.869	16.627	1305.645	980.183
370.883	16.674	1305.152	979.998
371.898	16.745	1303.904	979.383
372.913	16.657	1303.109	978.191
373.927	16.704	1302.162	977.665
374.942	16.750	1301.555	977.386
375.956	16.783	1300.456	976.664
376.971	16.717	1299.864	975.756
377.986	16.790	1299.245	975.623
379.000	16.764	1298.217	974.615
380.015	16.856	1297.567	974.569
381.029	16.880	1296.891	974.115
382.044	16.847	1296.413	973.478
383.059	17.023	1295.260	973.540
384.073	17.004	1294.451	972.733
385.088	16.959	1293.952	972.016
386.102	16.967	1293.553	971.676
387.117	16.941	1292.816	970.889
388.132	17.092	1291.928	970.997
389.146	17.037	1290.800	969.750
390.161	17.005	1290.047	968.916
391.175	16.919	1289.463	967.901
392.190	16.944	1288.724	967.403
393.205	17.046	1287.845	967.238
394.219	17.106	1286.980	966.845
395.234	17.180	1285.495	966.067
396.248	17.246	1284.237	965.410
397.263	16.894	1283.404	962.697
398.278	17.070	1281.882	962.470
399.292	17.057	1280.737	961.452
400.307	17.008	1279.946	960.494
401.321	16.955	1279.139	959.505
402.336	16.968	1277.999	958.641
403.350	17.047	1276.593	957.944
404.365	17.085	1275.809	957.485
405.380	17.107	1275.545	957.326
406.394	17.098	1274.337	956.285
407.409	17.194	1273.515	956.127
408.423	17.212	1272.938	955.708
409.438	17.256	1272.429	955.487
410.453	17.313	1271.759	955.220
411.467	17.322	1270.911	954.549
412.482	17.317	1270.355	954.021
413.496	17.381	1269.611	953.736
414.511	17.346	1268.740	952.801
415.526	17.348	1267.816	952.033
416.540	17.334	1267.070	951.309
417.555	17.455	1266.570	951.526
418.569	17.490	1266.174	951.341
419.584	17.558	1265.372	951.034
420.599	17.506	1264.664	950.127
421.613	99.134	1356.736	1481.954
422.628	96.457	1370.089	1482.030
