DTS Sentinel unit serial number:	SN413079Multiplexer serial number:	ORYXHardware model number:	OX4-SRSoftware version number:	ORYX F/W v4.00 Oryx Data Collector v3.7.2.0data status	okinstallation	princeton_trtdifferential loss correction	single-endedforward channel	channel 4reverse channel	N/Adate	2019/09/17time	22:41:35forward acquisition time	60.00reverse acquisition time	0.00gamma	496.2192k internal	0.2330k external	0.2330temperature offset calibration	0.9996default loss term (dB/km)	0.3790temperature slope calibration	1.0000multiplexer offset coefficient	1.0000multiplexer slope coefficient	1.0000fibre end	0.00T internal ref (°C)	25.12T ext. ref 1 (°C)	0.19T ext. ref 2 (°C)	18.49length (m)	temperature (°C)	Stokes	anti-Stokes-747.200	-41.990	0.266	0.137
-746.185	-200.000	0.045	0.235
-745.171	-71.896	0.436	0.163
-744.156	147.154	-0.121	0.163
-743.142	409.419	0.187	0.399
-742.127	419.717	-0.078	0.169
-741.112	800.000	-0.099	0.382
-740.098	-152.065	-0.347	0.025
-739.083	5.276	-0.205	0.152
-738.069	-200.000	0.031	-0.163
-737.054	-112.653	0.158	0.032
-736.039	237.635	-0.156	0.261
-735.025	800.000	0.067	0.289
-734.010	-51.372	-0.135	-0.064
-732.996	162.818	-0.204	-0.289
-731.981	-5.663	-0.197	-0.136
-730.966	-200.000	-0.009	0.062
-729.952	256.891	0.078	0.135
-728.937	-78.708	0.192	0.066
-727.923	-146.475	-0.481	0.042
-726.908	230.853	0.094	0.154
-725.894	232.945	0.049	0.081
-724.879	-200.000	0.011	0.320
-723.864	-200.000	0.053	0.371
-722.850	30.529	0.037	0.032
-721.835	-166.702	0.191	-0.008
-720.821	-50.410	0.032	0.015
-719.806	-200.000	0.039	-0.379
-718.791	247.009	-0.160	-0.272
-717.777	-38.746	-0.197	-0.105
-716.762	-145.191	0.131	-0.012
-715.748	79.273	-0.230	-0.248
-714.733	596.858	0.114	0.284
-713.718	-73.227	0.234	-0.086
-712.704	-81.590	-0.612	-0.202
-711.689	-200.000	-0.056	-0.288
-710.675	314.389	0.132	0.250
-709.660	-34.535	0.074	-0.041
-708.645	-70.630	-0.345	-0.131
-707.631	27.633	0.062	0.052
-706.616	-63.581	-0.146	-0.060
-705.602	-151.947	-0.176	0.013
-704.587	-157.388	-0.383	-0.023
-703.572	2.436	0.132	0.096
-702.558	-78.543	-0.270	-0.093
-701.543	800.000	0.131	-0.456
-700.529	-200.000	0.034	0.226
-699.514	-37.408	0.235	0.126
-698.499	-55.035	-0.214	0.097
-697.485	33.463	-0.139	0.121
-696.470	-90.653	-0.058	-0.017
-695.456	-200.000	0.038	-0.293
-694.441	481.425	0.050	-0.113
-693.426	-200.000	-0.036	-0.361
-692.412	2.955	-0.235	0.172
-691.397	108.204	-0.285	-0.341
-690.383	-106.719	-0.075	-0.017
-689.368	162.754	-0.123	-0.173
-688.354	-9.267	-0.205	0.138
-687.339	54.845	-0.094	0.091
-686.324	471.061	0.124	-0.281
-685.310	594.160	0.072	-0.179
-684.295	444.174	0.031	-0.069
-683.281	126.817	-0.177	-0.225
-682.266	-80.871	0.116	-0.039
-681.251	-177.592	0.445	0.011
-680.237	318.952	-0.131	-0.249
-679.222	-200.000	-0.104	0.502
-678.208	-200.000	-0.008	-0.042
-677.193	163.432	0.236	0.333
-676.178	-174.580	0.096	-0.003
-675.164	-150.370	0.203	-0.016
-674.149	447.145	0.067	-0.149
-673.135	-200.000	-0.012	0.290
-672.120	-200.000	-0.018	0.166
-671.105	318.841	-0.057	-0.109
-670.091	-200.000	-0.025	-0.390
-669.076	-199.818	0.157	0.001
-668.062	-163.149	-0.379	0.018
-667.047	-76.985	-0.185	-0.065
-666.032	-200.000	0.083	-0.457
-665.018	-126.664	0.118	0.018
-664.003	-42.476	-0.226	0.116
-662.989	-200.000	0.057	0.270
-661.974	26.168	0.257	-0.216
-660.959	-159.050	-0.032	0.002
-659.945	-98.978	-0.383	-0.097
-658.930	-161.803	0.196	0.010
-657.916	-23.721	-0.242	-0.146
-656.901	-100.156	-0.142	0.035
-655.886	-78.140	-0.230	0.080
-654.872	-107.392	-0.201	-0.044
-653.857	792.988	0.056	-0.155
-652.843	-66.535	-0.232	0.092
-651.828	784.051	-0.029	-0.079
-650.814	223.141	0.036	0.058
-649.799	-111.320	0.165	0.034
-648.784	-116.571	-0.194	-0.036
-647.770	366.137	-0.118	0.238
-646.755	-121.500	-0.194	-0.032
-645.741	397.816	-0.156	-0.327
-644.726	800.000	-0.042	0.150
-643.711	196.928	0.104	-0.159
-642.697	122.577	-0.093	0.117
-641.682	-153.117	-0.309	-0.022
-640.668	-21.719	-0.313	0.191
-639.653	-200.000	0.006	-0.212
-638.638	554.880	0.083	0.200
-637.624	-66.041	-0.127	-0.051
-636.609	614.565	0.070	-0.177
-635.595	51.081	-0.506	-0.481
-634.580	231.931	0.191	-0.314
-633.565	12.341	-0.043	0.033
-632.551	21.399	0.216	0.176
-631.536	79.445	-0.152	-0.163
-630.522	-9.039	-0.280	-0.188
-629.507	-200.000	-0.007	-0.166
-628.492	-10.749	0.228	-0.151
-627.478	-58.746	0.095	-0.041
-626.463	-188.311	-0.215	0.003
-625.449	-126.463	-0.024	0.004
-624.434	-200.000	-0.007	-0.069
-623.419	800.000	-0.010	-0.038
-622.405	-200.000	-0.012	-0.083
-621.390	52.348	-0.235	0.225
-620.376	-87.249	-0.203	0.062
-619.361	-200.000	-0.053	-0.262
-618.346	98.311	0.147	0.170
-617.332	159.543	-0.037	-0.051
-616.317	-168.403	0.191	-0.007
-615.303	-58.236	-0.301	-0.131
-614.288	-45.048	-0.142	0.071
-613.273	48.572	-0.288	0.270
-612.259	207.704	0.171	-0.267
-611.244	-109.197	-0.232	0.049
-610.230	-200.000	0.036	-0.213
-609.215	-26.517	-0.191	-0.112
-608.201	-200.000	-0.025	0.233
-607.186	435.852	-0.092	0.201
-606.171	145.602	-0.080	0.108
-605.157	800.000	-0.006	-0.019
-604.142	-67.911	0.141	-0.055
-603.128	59.034	-0.108	-0.106
-602.113	-30.463	-0.107	-0.061
-601.098	182.327	0.154	-0.227
-600.084	-114.743	0.360	0.069
-599.069	-200.000	-0.037	-0.208
-598.055	406.161	-0.070	0.147
-597.040	217.701	0.085	-0.135
-596.025	487.443	-0.205	0.469
-595.011	92.889	0.049	-0.055
-593.996	-105.250	-0.134	-0.030
-592.982	649.738	0.063	-0.162
-591.967	-50.402	0.117	-0.055
-590.952	-39.798	0.272	0.142
-589.938	-3.989	-0.244	0.169
-588.923	800.000	-0.022	0.064
-587.909	-200.000	-0.076	-0.552
-586.894	-200.000	0.000	0.024
-585.879	-87.044	0.324	-0.099
-584.865	-200.000	-0.010	0.171
-583.850	36.296	0.217	0.192
-582.836	219.889	0.049	0.079
-581.821	-68.043	-0.231	-0.090
-580.806	-99.245	-0.064	-0.016
-579.792	73.483	0.132	-0.138
-578.777	-200.000	-0.007	-0.166
-577.763	10.938	0.121	-0.093
-576.748	-35.971	0.173	0.093
-575.733	326.071	0.171	0.328
-574.719	-46.869	-0.368	-0.180
-573.704	-121.949	0.337	0.056
-572.690	-97.033	-0.271	0.071
-571.675	800.000	0.085	-0.237
-570.661	-200.000	0.094	-0.497
-569.646	-68.322	0.219	0.085
-568.631	-56.815	0.236	-0.104
-567.617	-1.734	0.131	0.092
-566.602	1.530	-0.165	-0.119
-565.588	-48.275	0.190	0.092
-564.573	-64.813	-0.068	-0.028
-563.558	800.000	-0.128	-0.418
-562.544	-102.932	0.243	0.058
-561.529	-67.611	-0.202	-0.079
-560.515	131.385	0.210	-0.270
-559.500	-200.000	-0.017	0.271
-558.485	-200.000	0.017	0.077
-557.471	52.134	-0.070	0.066
-556.456	-13.072	-0.121	-0.079
-555.442	293.439	0.042	0.077
-554.427	-120.878	0.273	-0.046
-553.412	800.000	0.033	-0.117
-552.398	-200.000	-0.028	-0.413
-551.383	571.678	-0.184	-0.449
-550.369	231.215	0.212	-0.346
-549.354	-200.000	-0.034	0.296
-548.339	-6.540	0.415	0.282
-547.325	800.000	0.059	0.222
-546.310	-200.000	-0.008	-0.259
-545.296	-200.000	0.058	-0.496
-544.281	-8.266	-0.350	-0.236
-543.266	97.693	-0.093	-0.107
-542.252	242.160	0.080	-0.134
-541.237	-13.421	0.120	0.077
-540.223	140.811	-0.099	-0.131
-539.208	-136.291	0.273	0.032
-538.193	-125.418	0.356	-0.054
-537.179	-90.174	0.262	-0.076
-536.164	-187.625	0.163	0.002
-535.150	16.599	0.232	0.183
-534.135	510.716	0.176	-0.409
-533.121	95.819	0.034	0.039
-532.106	-167.591	-0.244	0.010
-531.091	-200.000	0.004	-0.206
-530.077	-140.627	-0.123	0.013
-529.062	62.843	0.302	0.302
-528.048	345.247	0.091	0.178
-527.033	774.148	-0.043	-0.117
-526.018	-62.039	-0.096	-0.040
-525.004	-200.000	0.057	0.298
-523.989	367.049	-0.137	0.277
-522.975	-58.774	-0.188	-0.081
-521.960	-200.000	-0.046	0.466
-520.945	-6.103	-0.384	0.262
-519.931	27.504	-0.077	0.065
-518.916	344.601	-0.117	-0.229
-517.902	-50.694	0.275	-0.129
-516.887	21.083	-0.278	0.225
-515.872	-200.000	-0.044	0.225
-514.858	-56.939	-0.280	0.124
-513.843	116.974	-0.075	0.092
-512.829	26.928	-0.094	-0.079
-511.814	-22.323	0.041	0.025
-510.799	-93.506	-0.145	-0.040
-509.785	32.872	0.144	-0.124
-508.770	66.536	0.065	-0.066
-507.756	-55.986	-0.119	-0.053
-506.741	17.796	-0.123	-0.098
-505.726	-106.778	0.355	-0.079
-504.712	482.581	-0.130	-0.295
-503.697	169.696	-0.057	0.081
-502.683	-68.291	-0.262	-0.102
-501.668	-69.583	0.147	-0.056
-500.653	800.000	-0.028	-0.119
-499.639	-20.887	-0.221	-0.135
-498.624	63.038	0.195	-0.194
-497.610	430.655	-0.039	-0.084
-496.595	-200.000	-0.035	-0.415
-495.581	32.736	0.259	0.224
-494.566	-200.000	0.040	-0.219
-493.551	155.072	-0.136	-0.186
-492.537	-16.464	0.131	-0.083
-491.522	-200.000	-0.053	0.293
-490.508	379.267	0.064	-0.130
-489.493	-200.000	-0.000	-0.076
-488.478	-200.000	-0.024	-0.336
-487.464	24.571	-0.037	0.031
-486.449	800.000	-0.166	-0.469
-485.435	800.000	0.070	0.225
-484.420	-7.692	-0.127	0.086
-483.405	472.093	-0.098	-0.221
-482.391	-129.905	-0.316	0.043
-481.376	13.475	0.195	0.151
-480.362	33.587	-0.297	0.257
-479.347	-200.000	0.013	0.326
-478.332	73.279	0.108	0.113
-477.318	154.907	0.245	0.336
-476.303	125.525	0.313	-0.394
-475.289	-34.642	-0.146	0.079
-474.274	177.077	0.047	-0.068
-473.259	-191.416	0.390	-0.004
-472.245	-74.062	-0.391	-0.141
-471.230	800.000	0.100	-0.364
-470.216	800.000	0.025	-0.079
-469.201	-113.527	-0.203	0.040
-468.186	32.671	-0.096	0.082
-467.172	-200.000	-0.029	0.226
-466.157	141.377	-0.212	0.280
-465.143	88.743	-0.131	-0.145
-464.128	317.072	0.132	0.248
-463.113	-67.085	0.072	0.028
-462.099	23.921	-0.158	0.129
-461.084	-200.000	-0.030	0.146
-460.070	202.727	-0.068	0.105
-459.055	800.000	-0.069	0.212
-458.040	-118.555	0.292	-0.051
-457.026	800.000	0.052	0.159
-456.011	-200.000	0.053	-0.373
-454.997	206.650	0.194	0.301
-453.982	-200.000	-0.021	0.170
-452.968	800.000	0.049	-0.211
-451.953	76.535	-0.222	-0.235
-450.938	-61.794	-0.137	-0.057
-449.924	47.544	0.041	0.038
-448.909	-200.000	-0.004	0.120
-447.895	72.207	-0.267	0.276
-446.880	-128.298	0.108	-0.015
-445.865	132.290	-0.104	-0.134
-444.851	29.311	-0.128	0.108
-443.836	-92.996	-0.085	0.023
-442.822	-138.904	-0.332	-0.036
-441.807	-72.621	0.188	-0.069
-440.792	-95.485	0.243	0.065
-439.778	569.214	-0.148	-0.358
-438.763	-200.000	0.020	0.199
-437.749	142.590	0.227	-0.300
-436.734	422.654	-0.142	-0.304
-435.719	-200.000	-0.012	-0.170
-434.705	-3.270	0.097	0.067
-433.690	534.888	-0.170	0.400
-432.676	-69.708	0.270	-0.103
-431.661	-21.429	-0.043	-0.026
-430.646	-100.411	0.351	-0.087
-429.632	4.784	0.248	-0.182
-428.617	-97.855	0.427	0.110
-427.603	145.174	-0.352	-0.468
-426.588	-69.250	0.190	-0.073
-425.573	621.811	0.040	-0.100
-424.559	38.500	-0.218	0.193
-423.544	800.000	-0.045	0.188
-422.530	45.264	-0.018	-0.016
-421.515	-200.000	-0.029	-0.207
-420.500	-58.840	0.259	0.112
-419.486	227.322	0.150	0.242
-418.471	-140.342	-0.211	-0.022
-417.457	800.000	0.042	-0.116
-416.442	44.192	-0.257	-0.235
-415.428	-95.332	0.272	-0.073
-414.413	617.052	-0.008	-0.020
-413.398	-200.000	-0.021	0.166
-412.384	-85.561	-0.259	-0.080
-411.369	-200.000	-0.045	0.202
-410.355	-77.640	-0.125	0.043
-409.340	201.987	0.093	0.143
-408.325	176.322	-0.178	0.256
-407.311	-88.779	0.310	0.091
-406.296	-200.000	0.056	-0.267
-405.282	-4.916	0.141	0.097
-404.267	800.000	-0.055	-0.225
-403.252	416.885	-0.059	0.125
-402.238	-200.000	-0.022	-0.147
-401.223	-30.999	-0.304	-0.171
-400.209	546.527	-0.030	0.072
-399.194	17.680	-0.364	0.288
-398.179	-200.000	0.067	0.560
-397.165	-93.944	0.189	-0.052
-396.150	-9.566	0.172	0.114
-395.136	-41.591	0.073	0.037
-394.121	800.000	-0.062	0.191
-393.106	-200.000	-0.004	-0.043
-392.092	-200.000	-0.005	0.071
-391.077	-140.750	-0.521	-0.053
-390.063	283.353	0.102	-0.182
-389.048	800.000	0.078	-0.234
-388.033	-200.000	0.020	-0.195
-387.019	-200.000	-0.003	-0.165
-386.004	-84.999	-0.226	-0.070
-384.990	-200.000	0.037	-0.226
-383.975	30.461	-0.229	-0.194
-382.960	800.000	-0.029	-0.119
-381.946	757.420	-0.142	-0.381
-380.931	67.323	0.329	-0.333
-379.917	12.581	0.039	-0.030
-378.902	696.324	-0.102	-0.266
-377.888	-174.252	-0.229	0.007
-376.873	-200.000	-0.016	0.084
-375.858	800.000	-0.105	-0.332
-374.844	-126.838	0.296	-0.043
-373.829	28.180	0.119	0.100
-372.815	452.529	0.148	0.324
-371.800	42.925	-0.437	0.395
-370.785	-22.610	0.162	0.097
-369.771	-55.696	-0.131	0.058
-368.756	37.115	-0.036	0.031
-367.742	-89.719	0.224	-0.065
-366.727	21.136	-0.072	-0.058
-365.712	-113.592	-0.232	0.045
-364.698	24.368	-0.154	0.127
-363.683	-151.126	0.108	0.008
-362.669	531.887	0.042	-0.099
-361.654	79.647	-0.181	0.193
-360.639	800.000	-0.120	-0.330
-359.625	-132.405	-0.132	0.017
-358.610	800.000	-0.046	0.191
-357.596	-66.117	0.222	-0.088
-356.581	-66.865	-0.153	-0.060
-355.566	-84.719	0.187	0.058
-354.552	-122.620	0.282	-0.045
-353.537	-200.000	-0.040	-0.298
-352.523	34.616	-0.183	0.159
-351.508	245.116	-0.175	0.291
-350.493	-200.000	-0.019	-0.372
-349.479	282.158	-0.173	0.307
-348.464	-44.616	-0.317	0.157
-347.450	-200.000	-0.030	-0.139
-346.435	521.850	0.036	-0.083
-345.420	10.994	0.309	0.234
-344.406	13.322	0.166	0.128
-343.391	800.000	-0.063	0.226
-342.377	-44.544	0.161	0.080
-341.362	-1.949	0.174	-0.121
-340.348	-108.757	-0.124	0.026
-339.333	169.673	0.155	-0.219
-338.318	460.027	-0.173	0.383
-337.304	670.549	0.177	0.453
-336.289	-102.073	-0.159	0.038
-335.275	-108.352	-0.149	0.032
-334.260	-2.558	-0.125	-0.087
-333.245	-47.390	-0.418	-0.201
-332.231	800.000	-0.055	-0.192
-331.216	800.000	0.030	0.110
-330.202	-144.900	0.348	-0.032
-329.187	-200.000	-0.025	-0.144
-328.172	43.437	0.152	0.138
-327.158	-200.000	0.012	0.053
-326.143	-2.219	-0.246	0.171
-325.129	-70.617	0.075	0.028
-324.114	-35.986	0.145	0.077
-323.099	800.000	-0.131	0.422
-322.085	-148.519	0.265	-0.021
-321.070	-1.702	0.098	-0.068
-320.056	11.048	-0.224	0.169
-319.041	800.000	0.026	0.081
-318.026	-100.049	0.245	0.061
-317.012	64.121	-0.195	-0.194
-315.997	175.188	0.304	0.437
-314.983	-200.000	0.015	-0.224
-313.968	-20.651	-0.045	0.027
-312.953	-133.097	-0.144	-0.018
-311.939	-12.669	-0.099	0.064
-310.924	229.819	-0.203	-0.329
-309.910	-105.036	-0.218	-0.049
-308.895	411.154	-0.187	0.393
-307.880	27.692	0.245	-0.205
-306.866	-151.500	0.056	-0.004
-305.851	-41.437	0.105	0.053
-304.837	-98.357	-0.210	0.053
-303.822	-200.000	0.019	-0.173
-302.807	-37.227	0.323	0.171
-301.793	7.270	0.236	-0.174
-300.778	69.991	-0.093	-0.095
-299.764	213.594	-0.061	-0.096
-298.749	134.495	-0.014	0.018
-297.735	234.533	0.079	0.129
-296.720	-136.367	-0.165	-0.019
-295.705	-200.000	-0.007	0.200
-294.691	-77.435	0.165	-0.057
-293.676	229.282	0.010	0.016
-292.662	-160.146	-0.090	0.005
-291.647	-51.123	0.062	-0.029
-290.632	47.570	0.383	-0.353
-289.618	-154.834	-0.670	-0.044
-288.603	-81.825	0.085	0.028
-287.589	-36.650	-0.307	0.163
-286.574	-26.405	-0.200	-0.116
-285.559	286.739	0.027	0.047
-284.545	-13.998	0.215	-0.137
-283.530	-105.954	0.077	0.017
-282.516	-200.000	0.021	-0.224
-281.501	-121.468	0.334	0.055
-280.486	800.000	0.026	0.098
-279.472	215.984	-0.253	0.397
-278.457	32.050	0.178	0.152
-277.443	23.277	-0.163	0.132
-276.428	-200.000	0.019	0.465
-275.413	-5.776	0.342	-0.232
-274.399	-18.245	0.214	0.133
-273.384	34.647	-0.305	0.264
-272.370	402.106	0.016	0.033
-271.355	-22.981	0.382	0.228
-270.340	68.155	0.308	-0.312
-269.326	-91.833	0.148	0.042
-268.311	-155.287	0.059	-0.004
-267.297	13.460	-0.153	-0.117
-266.282	-65.136	0.161	0.064
-265.267	323.467	-0.050	-0.094
-264.253	-76.845	-0.401	-0.139
-263.238	-15.191	0.123	-0.077
-262.224	-100.683	0.364	-0.089
-261.209	203.010	-0.149	-0.228
-260.195	66.496	-0.310	0.311
-259.180	-200.000	-0.004	0.185
-258.165	-13.918	0.129	0.082
-257.151	-11.741	0.141	0.091
-256.136	-200.000	0.003	0.197
-255.122	296.259	0.083	-0.150
-254.107	11.334	-0.092	0.070
-253.092	-160.201	0.451	-0.024
-252.078	-82.645	-0.147	0.047
-251.063	256.055	0.129	0.218
-250.049	-200.000	-0.003	0.296
-249.034	800.000	-0.073	0.259
-248.019	-137.914	0.190	0.021
-247.005	76.381	-0.055	-0.057
-245.990	-34.047	0.319	-0.173
-244.976	-16.343	-0.244	0.153
-243.961	-200.000	0.040	0.201
-242.946	800.000	0.097	-0.315
-241.932	65.240	-0.070	0.070
-240.917	-87.322	0.414	0.124
-239.903	-200.000	0.044	0.274
-238.888	646.363	0.127	0.320
-237.873	482.577	-0.070	-0.157
-236.859	-200.000	0.017	0.194
-235.844	722.179	-0.046	0.122
-234.830	19.271	0.033	-0.026
-233.815	189.819	-0.088	0.131
-232.800	-17.086	0.447	-0.278
-231.786	-38.679	-0.335	-0.174
-230.771	800.000	0.025	0.107
-229.757	800.000	0.060	0.171
-228.742	-168.038	0.014	-0.001
-227.727	-124.106	-0.032	0.005
-226.713	-200.000	-0.055	0.269
-225.698	-200.000	-0.060	-0.276
-224.684	-200.000	-0.003	0.154
-223.669	800.000	-0.122	0.352
-222.655	116.342	-0.108	-0.131
-221.640	-200.000	0.028	-0.182
-220.625	-92.433	-0.298	-0.083
-219.611	99.422	-0.149	-0.171
-218.596	28.352	0.174	0.145
-217.582	-129.818	-0.008	0.001
-216.567	-200.000	-0.012	-0.078
-215.552	160.318	0.086	-0.119
-214.538	-187.658	0.258	-0.003
-213.523	40.184	0.189	-0.167
-212.509	-10.824	-0.432	-0.281
-211.494	-54.585	-0.249	0.111
-210.479	15.161	-0.147	0.114
-209.465	-79.138	-0.109	0.036
-208.450	51.673	0.243	0.228
-207.436	800.000	-0.096	0.372
-206.421	800.000	0.045	0.130
-205.406	49.401	0.207	-0.192
-204.392	-145.698	-0.213	0.019
-203.377	-200.000	0.030	0.288
-202.363	248.778	-0.110	-0.183
-201.348	-40.231	-0.129	-0.066
-200.333	-3.798	0.107	0.073
-199.319	-89.275	0.526	0.153
-198.304	51.575	0.035	-0.032
-197.290	210.233	0.093	0.144
-196.275	-164.858	0.219	0.010
-195.260	520.702	0.021	0.048
-194.246	64.153	0.089	0.088
-193.231	800.000	0.052	0.178
-192.217	-200.000	-0.050	0.294
-191.202	167.263	0.091	0.128
-190.187	39.719	0.030	-0.027
-189.173	327.728	-0.089	0.169
-188.158	-112.606	-0.228	0.045
-187.144	800.000	-0.074	-0.305
-186.129	106.762	-0.061	-0.072
-185.114	-29.669	0.440	-0.248
-184.100	-97.628	0.151	-0.038
-183.085	63.238	0.119	-0.117
-182.071	-200.000	-0.015	0.190
-181.056	-98.122	0.440	-0.112
-180.042	-18.053	0.197	0.122
-179.027	-200.000	0.094	0.414
-178.012	-85.923	-0.461	-0.141
-176.998	800.000	0.023	0.094
-175.983	145.307	0.161	0.212
-174.969	-120.769	0.094	-0.016
-173.954	-200.000	-0.025	-0.128
-172.939	28.687	-0.145	-0.121
-171.925	-143.131	0.471	-0.045
-170.910	26.796	0.127	-0.105
-169.896	-11.927	0.274	0.177
-168.881	-101.486	-0.250	-0.060
-167.866	-200.000	0.026	0.144
-166.852	800.000	-0.067	0.217
-165.837	-155.231	-0.343	0.022
-164.823	-159.375	0.217	-0.012
-163.808	800.000	0.069	0.215
-162.793	800.000	-0.076	-0.270
-161.779	-79.575	-0.114	0.038
-160.764	-68.287	-0.280	0.107
-159.750	-16.178	-0.194	0.121
-158.735	465.281	-0.056	-0.123
-157.720	-200.000	0.008	-0.206
-156.706	216.306	0.235	0.367
-155.691	27.412	0.164	0.136
-154.677	28.466	-0.047	0.040
-153.662	16.032	-0.265	-0.205
-152.647	67.172	0.136	-0.136
-151.633	36.285	-0.195	-0.169
-150.618	52.798	0.113	0.106
-149.604	-152.903	0.144	-0.010
-148.589	-54.494	0.305	0.136
-147.574	-79.265	-0.299	0.100
-146.560	30.676	0.288	0.242
-145.545	127.923	-0.190	0.237
-144.531	406.882	0.092	-0.191
-143.516	311.960	0.192	0.355
-142.502	-10.458	-0.198	0.129
-141.487	800.000	0.027	-0.097
-140.472	-46.429	0.215	0.104
-139.458	-134.111	0.315	-0.038
-138.443	-93.208	-0.277	-0.076
-137.429	-61.122	0.284	-0.118
-136.414	-55.102	0.089	0.039
-135.399	-63.027	0.194	0.079
-134.385	167.525	0.043	-0.060
-133.370	-145.202	-0.147	0.013
-132.356	59.648	-0.171	-0.166
-131.341	-40.007	-0.097	-0.050
-130.326	449.610	-0.059	-0.128
-129.312	174.548	-0.136	0.193
-128.297	186.592	0.055	0.080
-127.283	-14.049	-0.180	0.114
-126.268	63.547	-0.107	0.106
-125.253	92.844	0.053	-0.059
-124.239	46.363	-0.252	-0.229
-123.224	800.000	0.149	0.421
-122.210	55.774	-0.152	0.145
-121.195	-110.403	0.165	-0.034
-120.180	-27.645	-0.190	-0.108
-119.166	474.478	0.180	0.399
-118.151	86.247	0.376	0.407
-117.137	800.000	0.062	0.203
-116.122	570.640	0.093	0.221
-115.107	-200.000	0.033	-0.201
-114.093	352.538	0.149	0.291
-113.078	490.806	-0.121	0.273
-112.064	265.574	-0.127	-0.217
-111.049	800.000	0.068	-0.208
-110.034	-29.873	-0.203	0.114
-109.020	800.000	0.038	-0.149
-108.005	-117.186	0.307	0.055
-106.991	-21.996	0.180	0.108
-105.976	581.585	-0.133	0.319
-104.962	800.000	-0.074	0.252
-103.947	-169.991	-0.146	0.005
-102.932	18.655	-0.213	-0.167
-101.918	-4.591	-0.195	0.132
-100.903	-121.248	0.147	-0.024
-99.889	-46.158	0.092	0.045
-98.874	-129.157	-0.508	-0.070
-97.859	487.464	0.031	0.069
-96.845	545.067	0.168	-0.393
-95.830	-123.514	-0.115	-0.018
-94.816	-31.022	0.153	-0.085
-93.801	-70.578	0.241	-0.089
-92.786	234.002	0.055	0.089
-91.772	668.215	-0.087	0.221
-90.757	635.984	0.031	-0.077
-89.743	643.200	0.121	-0.302
-88.728	23.134	-0.107	0.086
-87.713	800.000	0.063	-0.257
-86.699	31.238	-0.300	-0.253
-85.684	-200.000	0.001	0.561
-84.670	325.802	0.095	0.178
-83.655	-77.724	-0.223	-0.076
-82.640	142.162	-0.177	0.230
-81.626	-97.530	-0.458	-0.117
-80.611	24.273	0.092	-0.075
-79.597	-187.139	0.403	0.005
-78.582	800.000	0.096	0.380
-77.567	800.000	-0.071	0.246
-76.553	-200.000	0.066	0.292
-75.538	-28.956	0.217	-0.122
-74.524	7.743	0.253	-0.186
-73.509	46.352	-0.178	-0.162
-72.494	9.928	0.168	-0.125
-71.480	-74.271	-0.014	-0.005
-70.465	-61.755	0.436	0.179
-69.451	800.000	-0.096	-0.352
-68.436	-10.608	0.292	-0.189
-67.422	-104.158	0.304	0.069
-66.407	-62.214	0.407	0.167
-65.392	-165.332	-0.291	0.013
-64.378	204.304	0.196	0.298
-63.363	800.000	0.124	-0.421
-62.349	214.889	0.135	-0.209
-61.334	35.810	-1.020	-0.880
-60.319	89.530	0.681	0.744
-59.305	344.051	-0.538	-1.035
-58.290	176.364	1.051	1.496
-57.276	763.200	0.526	1.401
-56.261	-200.000	119.579	613.321
-55.246	403.781	1532.631	3162.273
-54.232	145.856	2687.776	3531.581
-53.217	87.922	2298.657	2497.521
-52.203	31.191	2047.330	1721.664
-51.188	26.897	1964.908	1614.183
-50.173	25.668	1948.451	1589.754
-49.159	41.487	2017.214	1789.091
-48.144	40.486	2031.183	1792.372
-47.130	27.272	1984.845	1633.671
-46.115	25.178	1973.937	1605.904
-45.100	25.090	1971.113	1602.751
-44.086	25.045	1968.281	1599.985
-43.071	24.955	1966.549	1597.707
-42.057	24.962	1964.208	1595.810
-41.042	24.954	1962.254	1594.082
-40.027	25.026	1960.281	1593.059
-39.013	25.033	1958.285	1591.439
-37.998	25.067	1956.351	1590.106
-36.984	25.127	1954.622	1589.165
-35.969	25.032	1953.090	1587.021
-34.954	25.059	1951.153	1585.625
-33.940	25.120	1950.204	1585.328
-32.925	25.165	1948.058	1583.918
-31.911	25.115	1946.712	1582.314
-30.896	25.184	1945.054	1581.514
-29.881	25.180	1943.992	1580.550
-28.867	25.118	1942.711	1578.907
-27.852	25.267	1940.155	1578.076
-26.838	25.172	1938.504	1575.833
-25.823	25.081	1937.310	1574.003
-24.809	25.208	1934.662	1572.902
-23.794	25.106	1933.679	1571.148
-22.779	25.179	1931.467	1569.926
-21.765	25.154	1930.578	1568.916
-20.750	25.254	1928.021	1567.656
-19.736	25.099	1927.135	1565.518
-18.721	25.151	1925.672	1564.718
-17.706	25.103	1924.202	1563.048
-16.692	25.154	1922.266	1561.853
-15.677	25.142	1920.412	1560.186
-14.663	25.092	1919.176	1558.680
-13.648	25.128	1918.094	1558.052
-12.633	25.134	1917.177	1557.299
-11.619	25.111	1915.803	1555.922
-10.604	25.089	1914.337	1554.477
-9.590	25.158	1912.731	1553.712
-8.575	25.113	1911.385	1552.170
-7.560	25.160	1909.753	1551.182
-6.546	25.154	1908.909	1550.388
-5.531	25.077	1908.061	1548.972
-4.517	25.205	1906.733	1548.941
-3.502	25.129	1905.193	1546.968
-2.487	25.096	1904.075	1545.714
-1.473	25.161	1903.202	1545.503
-0.458	25.187	1898.223	1541.622
0.556	23.221	1878.370	1511.709
1.571	18.765	1859.311	1458.476
2.586	14.760	1881.251	1441.080
3.600	13.797	1915.444	1458.678
4.615	13.486	1908.660	1450.657
5.629	10.458	1810.568	1350.785
6.644	4.071	1698.598	1217.074
7.659	0.545	1665.487	1166.038
8.673	0.274	1662.540	1161.782
9.688	0.157	1661.168	1159.821
10.702	0.232	1659.493	1159.124
11.717	0.087	1656.223	1155.629
12.731	0.530	1655.093	1158.137
13.746	5.440	1664.792	1202.642
14.761	12.767	1679.932	1270.146
15.775	16.516	1685.922	1303.516
16.790	16.858	1685.122	1305.414
17.804	15.923	1682.270	1295.895
18.819	14.941	1678.956	1285.685
19.834	14.369	1676.616	1279.386
20.848	14.046	1675.406	1275.874
21.863	13.973	1673.378	1273.658
22.877	13.591	1672.055	1269.610
23.892	13.455	1670.734	1267.455
24.907	13.340	1669.894	1265.821
25.921	13.351	1668.157	1264.476
26.936	13.344	1666.962	1263.409
27.950	13.350	1666.573	1263.049
28.965	13.364	1666.164	1262.730
29.980	13.447	1665.291	1262.593
30.994	13.475	1664.271	1261.920
32.009	13.550	1662.985	1261.402
33.023	13.574	1662.503	1261.112
34.038	13.583	1661.468	1260.281
35.053	13.586	1660.422	1259.399
36.067	13.500	1659.105	1257.636
37.082	13.532	1658.164	1257.053
38.096	13.487	1657.291	1255.935
39.111	13.508	1656.574	1255.443
40.126	13.502	1655.544	1254.507
41.140	13.559	1654.106	1253.740
42.155	13.364	1653.207	1251.472
43.169	13.365	1651.661	1250.195
44.184	13.293	1650.791	1248.884
45.199	13.254	1649.745	1247.686
46.213	13.402	1648.547	1247.785
47.228	13.317	1647.245	1246.049
48.242	13.363	1646.045	1245.379
49.257	13.414	1644.570	1244.535
50.271	13.330	1643.953	1243.329
51.286	13.373	1642.825	1242.691
52.301	13.377	1641.119	1241.316
53.315	13.489	1639.378	1240.733
54.330	13.411	1638.576	1239.430
55.344	13.399	1636.444	1237.621
56.359	13.329	1635.792	1236.490
57.374	13.362	1634.894	1235.951
58.388	13.364	1633.138	1234.527
59.403	13.229	1632.579	1232.992
60.417	13.230	1631.319	1231.938
61.432	13.308	1629.184	1230.797
62.447	13.278	1628.142	1229.677
63.461	13.248	1626.865	1228.383
64.476	13.220	1625.698	1227.182
65.490	13.328	1623.819	1226.453
66.505	13.295	1622.748	1225.293
67.520	13.219	1622.350	1224.319
68.534	13.276	1621.387	1223.908
69.549	13.192	1620.736	1222.686
70.563	13.264	1618.829	1221.676
71.578	13.337	1617.395	1221.021
72.593	13.261	1616.406	1219.603
73.607	13.245	1615.684	1218.834
74.622	13.181	1614.596	1217.439
75.636	13.226	1613.103	1216.534
76.651	13.095	1612.582	1215.066
77.666	13.161	1611.501	1214.629
78.680	13.152	1610.978	1214.061
79.695	13.099	1609.935	1212.784
80.709	13.219	1608.218	1212.262
81.724	13.223	1607.473	1211.624
82.739	13.175	1607.275	1211.011
83.753	13.273	1605.665	1210.408
84.768	13.330	1605.093	1210.289
85.782	13.355	1604.232	1209.714
86.797	13.443	1603.422	1209.641
87.812	13.481	1601.846	1208.623
88.826	13.357	1601.429	1207.296
89.841	13.342	1599.884	1205.913
90.855	13.343	1598.785	1204.986
91.870	13.458	1598.062	1205.171
92.884	13.502	1596.395	1204.130
93.899	13.450	1595.765	1203.171
94.914	13.443	1594.736	1202.238
95.928	13.553	1593.278	1201.832
96.943	13.554	1592.066	1200.814
97.957	13.505	1590.360	1199.071
98.972	13.440	1589.240	1197.647
99.987	13.426	1587.721	1196.299
101.001	13.418	1586.125	1194.927
102.016	13.390	1584.680	1193.533
103.030	13.402	1583.208	1192.404
104.045	13.425	1582.195	1191.702
105.060	13.446	1580.719	1190.639
106.074	13.427	1579.406	1189.405
107.089	13.382	1577.495	1187.537
108.103	13.338	1576.315	1186.231
109.118	13.340	1575.211	1185.306
110.133	13.269	1573.511	1183.413
111.147	13.308	1572.416	1182.764
112.162	13.301	1571.403	1181.850
113.176	13.308	1569.664	1180.491
114.191	13.334	1568.390	1179.613
115.206	13.386	1567.193	1178.977
116.220	13.413	1565.512	1177.796
117.235	13.332	1564.705	1176.509
118.249	13.305	1563.030	1174.956
119.264	13.412	1561.702	1174.617
120.279	13.318	1560.408	1172.868
121.293	13.326	1558.759	1171.585
122.308	13.327	1557.628	1170.634
123.322	13.260	1556.458	1169.183
124.337	13.164	1555.091	1167.368
125.352	13.226	1553.971	1166.863
126.366	13.296	1552.659	1166.268
127.381	13.311	1550.974	1165.004
128.395	13.303	1550.024	1164.135
129.410	13.285	1548.632	1162.861
130.424	13.239	1547.351	1161.471
131.439	13.375	1546.095	1161.378
132.454	13.318	1545.017	1160.066
133.468	13.374	1543.775	1159.425
134.483	13.455	1541.363	1158.079
135.497	13.409	1540.624	1157.100
136.512	13.428	1539.275	1156.113
137.527	13.459	1537.493	1154.894
138.541	13.391	1536.179	1153.331
139.556	13.346	1535.308	1152.260
140.570	13.339	1533.938	1151.083
141.585	13.467	1532.326	1150.661
142.600	13.479	1531.331	1149.889
143.614	13.610	1529.898	1149.621
144.629	13.603	1528.903	1148.725
145.643	13.606	1527.426	1147.535
146.658	13.650	1526.029	1146.692
147.673	13.657	1524.396	1145.407
148.687	13.651	1523.007	1144.223
149.702	13.490	1521.881	1142.163
150.716	13.560	1520.087	1141.197
151.731	13.510	1518.864	1139.835
152.746	13.576	1517.317	1139.027
153.760	13.525	1515.911	1137.519
154.775	13.590	1515.180	1137.317
155.789	13.579	1513.966	1136.231
156.804	13.669	1512.254	1135.462
157.819	13.708	1510.739	1134.490
158.833	13.627	1510.301	1133.510
159.848	13.720	1508.962	1133.037
160.862	13.648	1507.952	1131.685
161.877	13.793	1506.844	1131.748
162.892	13.739	1505.237	1130.068
163.906	13.658	1504.047	1128.524
164.921	13.594	1502.758	1127.022
165.935	13.674	1501.795	1126.747
166.950	13.633	1501.052	1125.807
167.964	13.732	1499.276	1125.052
168.979	13.674	1499.304	1124.580
169.994	13.720	1497.062	1123.107
171.008	13.732	1496.591	1122.734
172.023	13.666	1495.297	1121.221
173.037	13.763	1494.041	1120.833
174.052	13.839	1492.809	1120.323
175.067	13.813	1491.708	1119.220
176.081	13.744	1490.845	1118.009
177.096	13.837	1489.468	1117.505
178.110	13.712	1487.857	1115.359
179.125	13.727	1487.052	1114.757
180.140	13.777	1485.788	1114.043
181.154	13.777	1484.876	1113.261
182.169	13.753	1483.744	1112.157
183.183	13.834	1482.360	1111.565
184.198	13.882	1481.592	1111.210
185.213	13.984	1480.157	1110.717
186.227	14.014	1479.116	1110.037
187.242	13.908	1478.582	1108.830
188.256	13.982	1477.580	1108.472
189.271	13.937	1476.190	1107.036
190.286	13.995	1474.820	1106.296
191.300	14.033	1473.791	1105.676
192.315	13.902	1472.598	1103.816
193.329	13.959	1471.104	1102.975
194.344	13.909	1470.371	1101.995
195.359	13.851	1469.525	1100.883
196.373	13.940	1468.061	1100.275
197.388	14.003	1467.302	1100.029
198.402	13.945	1466.565	1098.993
199.417	14.118	1465.110	1098.951
200.432	14.098	1464.008	1097.891
201.446	14.164	1462.939	1097.428
202.461	14.194	1462.107	1096.906
203.475	14.242	1460.891	1096.212
204.490	14.295	1459.631	1095.519
205.504	14.178	1458.514	1093.818
206.519	14.161	1457.712	1093.003
207.534	14.186	1456.387	1092.079
208.548	14.174	1455.742	1091.417
209.563	14.226	1454.202	1090.510
210.577	14.251	1453.328	1089.923
211.592	14.213	1452.737	1089.135
212.607	14.268	1451.646	1088.575
213.621	14.249	1451.027	1087.893
214.636	14.398	1449.873	1087.907
215.650	14.421	1448.718	1087.094
216.665	14.273	1448.530	1085.889
217.680	14.374	1447.001	1085.306
218.694	14.458	1446.365	1085.281
219.709	14.390	1445.918	1084.408
220.723	14.414	1444.645	1083.511
221.738	14.463	1443.651	1082.984
222.753	14.384	1442.961	1081.864
223.767	14.350	1442.284	1081.037
224.782	14.364	1440.609	1079.777
225.796	14.473	1439.756	1079.745
226.811	14.565	1438.477	1079.291
227.826	14.530	1438.245	1078.792
228.840	14.432	1437.590	1077.571
229.855	14.517	1436.354	1077.098
230.869	14.472	1435.644	1076.182
231.884	14.520	1434.354	1075.427
232.899	14.506	1433.103	1074.303
233.913	14.496	1432.200	1073.470
234.928	14.504	1430.926	1072.473
235.942	14.541	1429.530	1071.568
236.957	14.458	1428.731	1070.342
237.972	14.392	1427.743	1069.083
238.986	14.435	1426.465	1068.305
240.001	14.463	1425.470	1067.645
241.015	14.554	1424.171	1067.158
242.030	14.574	1423.160	1066.439
243.045	14.564	1422.219	1065.574
244.059	14.685	1421.449	1065.674
245.074	14.625	1420.221	1064.274
246.088	14.655	1419.538	1063.864
247.103	14.711	1419.366	1063.995
248.117	14.661	1418.671	1063.062
249.132	14.704	1417.451	1062.329
250.147	14.830	1417.058	1062.739
251.161	14.954	1416.079	1062.702
252.176	15.007	1415.185	1062.271
253.190	14.980	1414.703	1061.641
254.205	14.941	1413.758	1060.596
255.220	14.958	1413.070	1060.090
256.234	14.945	1412.127	1059.206
257.249	15.039	1411.180	1058.997
258.263	15.074	1410.112	1058.325
259.278	15.104	1409.348	1057.849
260.293	15.015	1408.680	1056.689
261.307	15.085	1407.699	1056.304
262.322	15.114	1407.020	1055.882
263.336	15.135	1406.323	1055.399
264.351	15.285	1404.986	1055.248
265.366	15.251	1403.888	1054.114
266.380	15.243	1403.037	1053.331
267.395	15.220	1402.513	1052.701
268.409	15.177	1401.971	1051.931
269.424	15.292	1400.695	1051.601
270.439	15.286	1399.509	1050.578
271.453	15.296	1398.563	1049.842
272.468	15.248	1397.637	1048.751
273.482	15.175	1396.990	1047.714
274.497	15.196	1396.354	1047.277
275.512	15.238	1395.189	1046.572
276.526	15.159	1394.577	1045.530
277.541	15.257	1393.042	1044.896
278.555	15.272	1392.433	1044.439
279.570	15.346	1391.580	1044.167
280.585	15.332	1390.754	1043.369
281.599	15.400	1389.902	1043.060
282.614	15.396	1389.258	1042.463
283.628	15.386	1388.062	1041.406
284.643	15.424	1387.048	1040.789
285.657	15.374	1385.690	1039.372
286.672	15.318	1385.073	1038.468
287.687	15.416	1384.090	1038.246
288.701	15.441	1382.882	1037.403
289.716	15.393	1382.168	1036.482
290.730	15.462	1381.536	1036.339
291.745	15.479	1380.224	1035.367
292.760	15.596	1379.164	1035.206
293.774	15.548	1378.156	1034.061
294.789	15.569	1376.928	1033.176
295.803	15.536	1376.428	1032.504
296.818	15.672	1375.355	1032.444
297.833	15.558	1374.638	1031.118
298.847	15.534	1373.636	1030.124
299.862	15.564	1372.403	1029.293
300.876	15.603	1371.604	1028.840
301.891	15.610	1370.744	1028.150
302.906	15.662	1370.479	1028.178
303.920	15.674	1369.630	1027.522
304.935	15.698	1368.774	1026.935
305.949	15.709	1368.012	1026.340
306.964	15.881	1367.238	1026.717
307.979	15.842	1365.878	1025.371
308.993	15.743	1365.254	1024.209
310.008	15.734	1364.807	1023.727
311.022	15.798	1363.466	1023.017
312.037	15.830	1362.207	1022.180
313.052	15.920	1360.961	1021.701
314.066	15.901	1360.299	1020.999
315.081	15.802	1359.479	1019.693
316.095	15.791	1358.518	1018.811
317.110	15.710	1357.646	1017.577
318.125	15.819	1356.669	1017.414
319.139	15.782	1355.968	1016.578
320.154	15.839	1354.794	1015.950
321.168	15.769	1354.030	1014.862
322.183	15.863	1352.848	1014.457
323.197	15.773	1352.185	1013.326
324.212	15.904	1351.224	1013.302
325.227	15.955	1350.081	1012.665
326.241	15.970	1349.263	1012.051
327.256	15.899	1348.674	1011.091
328.270	15.919	1347.520	1010.262
329.285	15.867	1346.857	1009.360
330.300	15.973	1345.361	1008.786
331.314	15.936	1344.832	1008.080
332.329	15.982	1343.781	1007.474
333.343	15.945	1342.942	1006.540
334.358	15.953	1342.245	1005.971
335.373	16.050	1341.481	1005.893
336.387	16.052	1340.751	1005.264
337.402	16.093	1339.800	1004.708
338.416	16.123	1338.864	1004.099
339.431	16.094	1338.820	1003.800
340.446	16.080	1338.438	1003.345
341.460	16.213	1337.039	1002.997
342.475	16.316	1335.923	1002.683
343.489	16.246	1335.233	1001.663
344.504	16.357	1334.383	1001.590
345.519	16.236	1333.155	999.866
346.533	16.317	1332.406	999.695
347.548	16.366	1331.280	999.052
348.562	16.392	1330.638	998.636
349.577	16.452	1329.839	998.299
350.592	16.468	1328.773	997.507
351.606	16.404	1327.934	996.412
352.621	16.375	1326.663	995.197
353.635	16.348	1326.284	994.665
354.650	16.340	1325.153	993.682
355.665	16.363	1324.370	993.146
356.679	16.234	1323.366	991.544
357.694	16.395	1321.895	991.299
358.708	16.412	1321.043	990.674
359.723	16.407	1320.097	989.846
360.738	16.399	1319.281	989.097
361.752	16.473	1317.884	988.399
362.767	16.476	1316.954	987.633
363.781	16.440	1316.133	986.716
364.796	16.440	1315.699	986.307
365.810	16.479	1314.779	985.756
366.825	16.523	1314.177	985.470
367.840	16.647	1313.234	985.399
368.854	16.648	1312.569	984.818
369.869	16.594	1312.246	984.177
370.883	16.708	1311.313	984.051
371.898	16.737	1310.527	983.543
372.913	16.709	1309.720	982.692
373.927	16.793	1308.827	982.418
374.942	16.694	1308.033	981.165
375.956	16.795	1307.107	980.965
376.971	16.754	1306.520	980.200
377.986	16.686	1305.975	979.311
379.000	16.809	1304.864	979.106
380.015	16.710	1304.354	978.062
381.029	16.854	1303.450	978.131
382.044	16.875	1302.461	977.419
383.059	16.932	1301.893	977.240
384.073	16.954	1301.143	976.716
385.088	17.011	1300.270	976.302
386.102	16.904	1299.861	975.290
387.117	16.929	1299.294	974.924
388.132	16.884	1298.800	974.208
389.146	16.979	1297.381	973.601
390.161	16.904	1296.657	972.546
391.175	16.966	1295.597	972.019
392.190	16.960	1294.613	971.158
393.205	17.032	1293.997	971.021
394.219	17.019	1293.068	970.167
395.234	16.996	1292.251	969.334
396.248	17.003	1290.874	968.255
397.263	17.053	1289.612	967.508
398.278	17.023	1288.512	966.429
399.292	17.024	1287.184	965.350
400.307	17.004	1286.029	964.289
401.321	16.952	1285.151	963.246
402.336	16.938	1284.261	962.415
403.350	17.050	1283.546	962.431
404.365	17.023	1282.263	961.230
405.380	16.995	1281.810	960.648
406.394	17.058	1280.793	960.153
407.409	17.107	1280.004	959.756
408.423	17.225	1279.236	959.761
409.438	17.201	1278.394	958.912
410.453	17.309	1277.674	958.893
411.467	17.382	1276.890	958.634
412.482	17.399	1276.101	958.049
413.496	17.350	1276.017	957.627
414.511	17.391	1275.040	957.040
415.526	17.393	1274.446	956.521
416.540	17.358	1273.592	955.598
417.555	17.359	1272.933	955.027
418.569	17.471	1272.265	955.069
419.584	17.462	1271.935	954.688
420.599	17.566	1270.928	954.429
421.613	99.571	1358.099	1484.608
422.628	97.034	1370.748	1484.695
