DTS Sentinel unit serial number:	SN413079Multiplexer serial number:	ORYXHardware model number:	OX4-SRSoftware version number:	ORYX F/W v4.00 Oryx Data Collector v3.7.2.0data status	okinstallation	princeton_trtdifferential loss correction	single-endedforward channel	channel 4reverse channel	N/Adate	2019/09/14time	14:29:35forward acquisition time	60.00reverse acquisition time	0.00gamma	496.2192k internal	0.2289k external	0.2289temperature offset calibration	1.0145default loss term (dB/km)	0.3790temperature slope calibration	1.0000multiplexer offset coefficient	1.0000multiplexer slope coefficient	1.0000fibre end	0.00T internal ref (°C)	39.09T ext. ref 1 (°C)	5.08T ext. ref 2 (°C)	35.78length (m)	temperature (°C)	Stokes	anti-Stokes-747.200	366.937	0.125	-0.258
-746.185	-200.000	-0.017	0.309
-745.171	-77.526	-0.216	0.077
-744.156	32.981	-0.091	0.081
-743.142	-168.409	-0.053	0.002
-742.127	800.000	0.124	0.482
-741.112	-91.156	-0.229	0.067
-740.098	-85.034	0.281	0.090
-739.083	35.470	0.173	-0.156
-738.069	245.480	0.156	0.269
-737.054	800.000	0.036	0.155
-736.039	-200.000	-0.016	-0.221
-735.025	-58.603	-0.087	0.038
-734.010	-31.408	0.197	0.114
-732.996	-200.000	-0.018	0.163
-731.981	-135.734	0.152	0.018
-730.966	130.130	-0.122	0.160
-729.952	276.998	0.119	-0.216
-728.937	140.407	0.038	-0.051
-727.923	5.730	0.227	-0.172
-726.908	-200.000	0.035	-0.219
-725.894	-150.665	-0.240	-0.019
-724.879	155.223	-0.054	-0.076
-723.864	-180.368	-0.181	0.004
-722.850	-200.000	-0.006	0.274
-721.835	800.000	-0.058	0.181
-720.821	800.000	-0.072	-0.324
-719.806	-72.376	-0.378	-0.143
-718.791	569.462	0.095	0.238
-717.777	-161.764	-0.319	0.017
-716.762	297.319	-0.135	-0.254
-715.748	-144.732	-0.069	0.007
-714.733	-124.341	-0.246	-0.039
-713.718	155.819	-0.193	-0.272
-712.704	-72.299	0.074	0.028
-711.689	-200.000	0.361	0.001
-710.675	107.738	0.180	-0.219
-709.660	43.904	0.103	-0.097
-708.645	330.599	0.034	0.067
-707.631	143.637	0.116	-0.158
-706.616	-157.738	-0.063	0.004
-705.602	-109.710	-0.144	-0.031
-704.587	-162.864	0.072	-0.004
-703.572	-39.867	-0.531	-0.284
-702.558	-95.738	-0.237	-0.065
-701.543	-200.000	-0.063	0.411
-700.529	75.552	0.099	0.107
-699.514	-48.259	-0.041	-0.020
-698.499	-166.260	-0.196	-0.008
-697.485	44.637	-0.111	0.105
-696.470	289.353	0.137	0.254
-695.456	-188.574	0.199	0.003
-694.441	-17.228	-0.150	-0.096
-693.426	-200.000	-0.081	0.412
-692.412	800.000	-0.080	0.252
-691.397	115.430	-0.003	-0.003
-690.383	800.000	0.041	0.133
-689.368	-69.376	0.098	0.038
-688.354	476.631	-0.197	-0.455
-687.339	80.076	-0.348	0.383
-686.324	144.867	0.012	-0.017
-685.310	-200.000	-0.020	0.123
-684.295	-121.136	0.153	0.026
-683.281	-14.023	-0.145	-0.096
-682.266	193.972	-0.162	-0.251
-681.251	-153.338	-0.277	-0.020
-680.237	14.959	-0.310	-0.248
-679.222	-46.075	0.275	0.139
-678.208	104.969	-0.006	0.007
-677.193	480.329	-0.099	-0.229
-676.178	-79.853	-0.302	-0.104
-675.164	167.552	-0.225	0.327
-674.149	21.731	0.142	-0.118
-673.135	800.000	-0.061	-0.187
-672.120	72.435	-0.082	0.088
-671.105	-200.000	-0.030	0.246
-670.091	-200.000	0.003	-0.136
-669.076	2.425	-0.146	0.108
-668.062	-200.000	-0.008	-0.056
-667.047	-24.598	-0.118	-0.072
-666.032	-200.000	-0.012	0.400
-665.018	-50.204	0.150	0.072
-664.003	800.000	0.041	-0.150
-662.989	34.489	-0.099	-0.088
-661.974	87.224	0.266	0.300
-660.959	800.000	0.042	-0.131
-659.945	-200.000	0.231	-0.001
-658.930	6.422	-0.135	-0.102
-657.916	145.615	0.122	-0.167
-656.901	-200.000	0.000	-0.101
-655.886	168.045	0.138	0.201
-654.872	-111.276	0.184	0.038
-653.857	800.000	-0.036	-0.122
-652.843	321.201	-0.143	-0.278
-651.828	-200.000	-0.034	0.164
-650.814	114.527	-0.218	-0.271
-649.799	-50.785	-0.053	0.025
-648.784	185.118	-0.139	0.211
-647.770	74.162	-0.180	0.193
-646.755	130.183	-0.069	0.090
-645.741	-69.740	-0.105	0.041
-644.726	-158.997	0.282	-0.016
-643.711	-200.000	-0.006	-0.222
-642.697	337.046	0.034	0.067
-641.682	800.000	-0.034	0.111
-640.668	-92.343	0.168	-0.048
-639.653	634.597	-0.011	-0.029
-638.638	800.000	0.036	-0.123
-637.624	-56.181	0.282	-0.128
-636.609	675.662	-0.076	-0.203
-635.595	285.530	-0.069	-0.127
-634.580	-138.300	-0.238	0.027
-633.565	-16.203	-0.233	0.151
-632.551	-200.000	-0.037	0.232
-631.536	144.908	-0.018	-0.025
-630.522	-2.349	0.205	0.147
-629.507	-17.919	0.209	0.134
-628.492	-200.000	0.060	-0.319
-627.478	269.124	0.088	0.157
-626.463	-54.310	-0.212	-0.098
-625.449	22.991	0.214	0.179
-624.434	67.431	-0.128	0.133
-623.419	-200.000	-0.033	0.398
-622.405	125.958	-0.081	0.104
-621.390	-58.336	-0.221	-0.098
-620.376	82.942	0.284	-0.315
-619.361	-200.000	-0.019	0.218
-618.346	76.542	-0.217	-0.234
-617.332	800.000	-0.042	-0.183
-616.317	359.549	0.031	-0.063
-615.303	-29.546	-0.225	-0.131
-614.288	58.907	-0.024	0.024
-613.273	-200.000	-0.244	0.001
-612.259	-128.936	0.360	-0.052
-611.244	-200.000	0.014	-0.077
-610.230	264.563	-0.119	-0.211
-609.215	99.204	-0.071	-0.084
-608.201	800.000	-0.023	0.090
-607.186	-15.640	-0.112	-0.073
-606.171	-200.000	0.005	-0.355
-605.157	-107.906	0.073	0.016
-604.142	800.000	-0.109	0.306
-603.128	-200.000	0.036	-0.168
-602.113	679.771	0.044	0.117
-601.098	800.000	-0.094	0.289
-600.084	213.226	-0.198	-0.318
-599.069	96.845	-0.197	-0.230
-598.055	-200.000	0.046	-0.364
-597.040	-61.339	-0.150	-0.064
-596.025	319.020	-0.167	-0.323
-595.011	-145.938	-0.416	0.038
-593.996	-200.000	0.009	-0.078
-592.982	-97.370	-0.251	-0.067
-591.967	800.000	0.086	-0.306
-590.952	-104.128	0.504	-0.119
-589.938	42.597	-0.103	0.096
-588.923	-0.752	-0.438	-0.317
-587.909	-135.697	-0.025	-0.003
-586.894	-200.000	-0.020	-0.143
-585.879	-74.286	-0.224	0.083
-584.865	174.420	-0.158	-0.232
-583.850	314.455	-0.103	0.198
-582.836	-51.142	-0.318	0.152
-581.821	-168.833	0.411	-0.016
-580.806	-200.000	-0.024	-0.146
-579.792	128.175	-0.213	0.276
-578.777	-200.000	0.006	0.047
-577.763	-200.000	-0.012	-0.069
-576.748	-200.000	-0.008	0.101
-575.733	-200.000	-0.010	-0.175
-574.719	-200.000	-0.040	0.258
-573.704	-95.690	0.154	0.042
-572.690	113.381	0.192	0.237
-571.675	80.861	0.049	-0.054
-570.661	638.385	0.127	-0.328
-569.646	-51.611	0.037	0.017
-568.631	336.887	0.172	-0.341
-567.617	-56.034	-0.164	0.075
-566.602	-146.923	0.207	-0.018
-565.588	-66.113	0.128	0.052
-564.573	-132.978	-0.140	-0.018
-563.558	800.000	0.038	0.144
-562.544	3.929	0.140	-0.104
-561.529	800.000	-0.033	-0.112
-560.515	800.000	0.015	0.044
-559.500	-200.000	0.004	-0.087
-558.485	-200.000	0.059	-0.337
-557.471	-200.000	-0.089	-0.483
-556.456	-200.000	-0.048	-0.327
-555.442	586.162	0.105	0.264
-554.427	287.245	-0.034	0.062
-553.412	-200.000	0.024	-0.165
-552.398	-89.447	0.125	-0.037
-551.383	7.681	0.025	-0.019
-550.369	324.239	0.116	-0.226
-549.354	-75.857	-0.489	0.176
-548.339	-35.992	0.315	0.173
-547.325	372.723	-0.055	0.114
-546.310	180.704	0.191	-0.286
-545.296	-117.839	0.081	0.015
-544.281	-6.921	0.110	-0.076
-543.266	-14.882	-0.184	0.120
-542.252	-95.946	-0.267	0.072
-541.237	-200.000	0.030	0.291
-540.223	-200.000	-0.000	-0.187
-539.208	-200.000	0.020	0.160
-538.193	102.361	0.197	0.234
-537.179	-200.000	-0.028	-0.135
-536.164	112.017	0.137	0.168
-535.150	-164.618	0.190	-0.009
-534.135	12.851	0.146	0.115
-533.121	-58.011	-0.147	0.065
-532.106	-28.872	-0.158	0.092
-531.091	-200.000	0.016	0.236
-530.077	54.532	0.162	0.158
-529.062	800.000	0.053	0.193
-528.048	129.862	0.151	-0.196
-527.033	39.130	-0.126	0.115
-526.018	-200.000	0.026	-0.253
-525.004	320.500	-0.079	-0.152
-523.989	52.253	0.125	-0.121
-522.975	61.244	-0.337	-0.340
-521.960	-200.000	0.030	-0.299
-520.945	-80.561	0.286	0.097
-519.931	285.222	0.095	0.174
-518.916	-138.665	-0.116	0.013
-517.902	16.826	-0.167	0.134
-516.887	24.859	0.083	-0.070
-515.872	16.111	-0.179	-0.143
-514.858	351.644	0.029	0.058
-513.843	-95.689	-0.366	-0.100
-512.829	-200.000	0.021	0.223
-511.814	-69.291	0.320	-0.125
-510.799	35.082	-0.107	0.095
-509.785	117.452	-0.042	0.053
-508.770	-156.520	0.186	-0.012
-507.756	254.913	-0.070	0.121
-506.741	34.985	-0.066	0.059
-505.726	-121.510	-0.218	-0.037
-504.712	-131.876	0.040	0.005
-503.697	82.015	-0.122	0.134
-502.683	74.729	0.145	0.155
-501.668	494.140	0.092	-0.214
-500.653	-200.000	-0.004	-0.048
-499.639	36.181	0.133	0.119
-498.624	278.105	0.065	0.117
-497.610	-200.000	-0.033	0.245
-496.595	432.179	-0.017	-0.037
-495.581	256.422	0.049	0.086
-494.566	800.000	-0.019	-0.064
-493.551	143.332	-0.047	0.064
-492.537	-75.610	-0.164	0.059
-491.522	-21.176	0.219	0.136
-490.508	800.000	-0.042	0.154
-489.493	28.525	0.308	-0.265
-488.478	-200.000	-0.012	0.092
-487.464	-24.901	-0.193	-0.116
-486.449	297.315	-0.080	-0.150
-485.435	-200.000	-0.057	-0.547
-484.420	292.180	0.189	0.350
-483.405	579.487	0.062	0.154
-482.391	-27.951	0.142	-0.084
-481.376	1.508	-0.230	-0.168
-480.362	-30.044	-0.404	0.233
-479.347	-112.767	0.236	0.048
-478.332	800.000	0.051	-0.214
-477.318	-173.473	0.190	-0.006
-476.303	265.316	-0.042	-0.075
-475.289	-53.894	0.209	0.097
-474.274	-200.000	0.018	-0.262
-473.259	105.957	0.345	0.414
-472.245	-200.000	-0.039	0.293
-471.230	800.000	-0.068	0.237
-470.216	-200.000	-0.011	-0.284
-469.201	430.510	0.085	0.187
-468.186	42.504	0.075	-0.070
-467.172	800.000	0.073	0.285
-466.157	-19.246	-0.158	-0.099
-465.143	406.671	-0.116	0.247
-464.128	800.000	0.117	0.392
-463.113	-138.795	0.175	0.019
-462.099	-106.186	-0.267	-0.061
-461.084	800.000	-0.048	-0.154
-460.070	800.000	0.035	-0.100
-459.055	-4.877	0.045	0.032
-458.040	800.000	-0.009	-0.032
-457.026	-200.000	-0.003	0.080
-456.011	-93.430	-0.095	-0.027
-454.997	55.547	-0.053	-0.052
-453.982	800.000	0.103	-0.365
-452.968	-169.920	0.234	-0.008
-451.953	-98.461	-0.074	-0.019
-450.938	-10.273	-0.349	0.235
-449.924	-200.000	0.075	0.625
-448.909	97.777	-0.038	0.044
-447.895	201.585	0.197	-0.307
-446.880	-120.816	-0.492	0.084
-445.865	16.193	0.087	0.069
-444.851	45.198	-0.087	0.081
-443.836	800.000	0.044	0.166
-442.822	-9.248	0.104	-0.071
-441.807	-200.000	0.021	0.117
-440.792	-200.000	-0.054	-0.275
-439.778	-106.980	-0.128	-0.029
-438.763	-35.203	0.212	0.117
-437.749	-55.678	0.315	-0.143
-436.734	609.012	-0.085	0.215
-435.719	-200.000	0.039	0.229
-434.705	-200.000	-0.043	-0.223
-433.690	58.423	-0.080	-0.079
-432.676	-88.299	-0.157	-0.047
-431.661	152.813	-0.105	0.145
-430.646	-157.216	-0.305	-0.019
-429.632	-118.484	-0.232	0.042
-428.617	-111.097	0.096	0.020
-427.603	419.279	-0.036	0.077
-426.588	-58.495	0.219	0.096
-425.573	44.943	0.069	0.064
-424.559	-200.000	-0.004	-0.264
-423.544	282.488	-0.081	-0.148
-422.530	-75.080	-0.086	0.031
-421.515	800.000	0.055	0.183
-420.500	-116.687	-0.515	-0.096
-419.486	375.652	0.176	0.362
-418.471	-28.145	-0.277	0.162
-417.457	3.597	0.093	0.069
-416.442	-142.133	-0.142	-0.014
-415.428	38.335	0.017	0.015
-414.413	-75.266	-0.192	0.070
-413.398	-143.774	-0.189	-0.018
-412.384	105.681	-0.046	0.055
-411.369	-131.310	0.356	-0.048
-410.355	168.188	-0.137	-0.198
-409.340	-113.964	0.463	-0.091
-408.325	12.978	-0.178	-0.139
-407.311	-200.000	-0.047	-0.229
-406.296	-200.000	0.026	-0.146
-405.282	148.816	-0.118	-0.161
-404.267	173.499	0.157	-0.228
-403.252	319.400	0.079	-0.152
-402.238	-81.568	-0.127	-0.042
-401.223	124.979	0.252	-0.321
-400.209	371.940	-0.147	-0.303
-399.194	22.296	0.160	0.132
-398.179	800.000	0.078	-0.229
-397.165	800.000	0.137	0.477
-396.150	61.610	0.383	0.386
-395.136	-85.908	-0.273	0.085
-394.121	10.559	-0.154	-0.119
-393.106	800.000	0.048	-0.212
-392.092	-169.301	-0.427	-0.016
-391.077	-77.335	0.156	0.055
-390.063	237.887	0.129	0.217
-389.048	21.222	0.388	-0.318
-388.033	800.000	-0.074	0.229
-387.019	-200.000	-0.011	-0.212
-386.004	-100.078	-0.268	0.067
-384.990	-141.426	0.135	-0.014
-383.975	349.594	0.015	-0.031
-382.960	312.053	-0.073	0.139
-381.946	51.448	0.279	-0.267
-380.931	-200.000	0.013	-0.373
-379.917	-33.677	-0.202	-0.113
-378.902	-68.443	0.074	0.029
-377.888	800.000	-0.052	0.169
-376.873	-200.000	0.056	0.361
-375.858	-97.636	0.355	-0.093
-374.844	68.702	0.266	0.276
-373.829	257.835	-0.075	0.131
-372.815	-200.000	-0.037	-0.334
-371.800	800.000	0.048	-0.136
-370.785	507.937	-0.079	-0.185
-369.771	-76.998	0.229	-0.081
-368.756	53.766	-0.156	0.151
-367.742	-200.000	-0.027	-0.210
-366.727	-69.758	-0.186	-0.072
-365.712	21.870	0.179	0.147
-364.698	-8.152	-0.036	0.025
-363.683	-200.000	0.012	-0.227
-362.669	18.711	-0.117	-0.094
-361.654	800.000	0.002	-0.007
-360.639	-200.000	-0.039	0.228
-359.625	-86.633	-0.203	-0.063
-358.610	-152.957	0.363	0.026
-357.596	243.473	-0.122	0.206
-356.581	-200.000	-0.064	-0.311
-355.566	800.000	0.033	0.133
-354.552	635.884	-0.048	-0.122
-353.537	-52.688	-0.181	-0.084
-352.523	-136.775	-0.088	0.010
-351.508	-80.454	-0.139	-0.047
-350.493	159.727	0.097	0.136
-349.479	249.896	-0.111	0.190
-348.464	-34.928	-0.362	0.199
-347.450	-125.721	0.201	-0.031
-346.435	-200.000	0.012	0.150
-345.420	-200.000	-0.028	0.310
-344.406	37.700	0.128	-0.114
-343.391	95.033	0.161	-0.185
-342.377	198.981	0.101	-0.156
-341.362	-150.322	-0.160	0.012
-340.348	-33.954	-0.205	0.114
-339.333	-200.000	-0.020	-0.143
-338.318	104.085	0.084	0.100
-337.304	-136.982	-0.199	0.023
-336.289	69.809	-0.098	0.102
-335.275	-98.564	0.069	-0.018
-334.260	519.956	-0.029	-0.068
-333.245	749.998	0.041	0.111
-332.231	-85.739	-0.098	0.031
-331.216	-200.000	-0.012	-0.335
-330.202	-155.759	0.270	0.017
-329.187	-107.348	-0.017	-0.004
-328.172	35.242	-0.159	0.141
-327.158	615.448	-0.052	0.131
-326.143	-14.941	0.312	0.201
-325.129	23.160	0.087	0.072
-324.114	-43.175	0.179	-0.091
-323.099	-73.689	0.198	-0.073
-322.085	-151.334	0.047	0.004
-321.070	28.737	-0.077	-0.066
-320.056	-55.816	-0.334	0.150
-319.041	38.704	-0.256	0.230
-318.026	29.507	0.138	-0.118
-317.012	-106.647	-0.254	-0.057
-315.997	800.000	0.151	0.545
-314.983	-127.394	-0.224	0.033
-313.968	-58.103	-0.093	0.041
-312.953	-99.335	0.206	-0.052
-311.939	-57.414	-0.148	-0.066
-310.924	121.609	-0.164	0.206
-309.910	-78.029	-0.372	-0.129
-308.895	-200.000	-0.021	-0.210
-307.880	-115.947	0.437	-0.082
-306.866	-200.000	-0.052	-0.266
-305.851	-175.361	-0.145	-0.004
-304.837	0.304	-0.357	-0.257
-303.822	83.643	-0.106	0.117
-302.807	-24.923	-0.136	0.081
-301.793	-200.000	0.043	-0.240
-300.778	16.305	0.412	0.328
-299.764	33.436	-0.220	-0.192
-298.749	-138.551	-0.274	-0.030
-297.735	-80.885	0.106	-0.035
-296.720	39.085	-0.119	-0.107
-295.705	79.932	0.070	0.075
-294.691	146.216	0.199	0.269
-293.676	800.000	-0.075	0.307
-292.662	463.756	0.113	-0.253
-291.647	54.281	0.084	-0.082
-290.632	-31.232	-0.160	0.091
-289.618	597.118	0.130	0.324
-288.603	229.897	-0.131	-0.216
-287.589	140.939	-0.085	0.113
-286.574	-34.932	0.253	-0.139
-285.559	67.162	-0.104	0.107
-284.545	-200.000	-0.013	0.285
-283.530	800.000	0.006	0.024
-282.516	-37.195	0.226	-0.122
-281.501	-73.505	-0.228	-0.084
-280.486	-73.304	0.113	0.042
-279.472	-145.296	-0.132	0.012
-278.457	-150.706	0.272	-0.021
-277.443	196.158	0.063	-0.096
-276.428	155.391	-0.045	-0.063
-275.413	37.205	0.209	-0.187
-274.399	-72.602	0.086	-0.032
-273.384	272.770	0.079	-0.140
-272.370	-200.000	0.018	0.323
-271.355	171.949	0.087	0.125
-270.340	-200.000	-0.020	-0.100
-269.326	432.505	-0.098	-0.213
-268.311	-134.357	0.456	0.056
-267.297	130.614	-0.238	0.307
-266.282	194.472	0.106	0.162
-265.267	800.000	0.088	-0.263
-264.253	339.533	0.010	0.019
-263.238	133.360	0.084	0.110
-262.224	164.050	0.068	-0.096
-261.209	800.000	-0.089	-0.279
-260.195	-200.000	-0.072	0.387
-259.180	400.272	-0.097	0.204
-258.165	326.465	-0.059	-0.113
-257.151	294.172	-0.054	0.099
-256.136	388.801	-0.070	-0.146
-255.122	-200.000	0.010	-0.079
-254.107	-86.617	0.122	-0.037
-253.092	-59.484	0.069	-0.030
-252.078	136.211	-0.098	-0.128
-251.063	535.807	0.148	-0.353
-250.049	-78.824	-0.188	-0.064
-249.034	60.390	0.040	0.040
-248.019	-86.587	-0.056	-0.017
-247.005	583.551	-0.090	-0.222
-245.990	-29.794	0.117	-0.067
-244.976	-117.826	0.215	0.039
-243.961	-37.704	-0.230	0.123
-242.946	-71.608	-0.052	-0.020
-241.932	800.000	-0.086	0.264
-240.917	-141.549	0.212	-0.022
-239.903	-30.993	0.131	0.074
-238.888	83.412	0.075	0.082
-237.873	-200.000	0.007	0.106
-236.859	235.707	0.162	-0.269
-235.844	42.736	-0.138	-0.126
-234.830	800.000	-0.011	-0.039
-233.815	-134.149	-0.177	-0.022
-232.800	-155.732	-0.079	-0.005
-231.786	-113.299	0.182	0.036
-230.771	-119.532	-0.229	-0.040
-229.757	800.000	0.044	-0.134
-228.742	534.528	0.100	-0.239
-227.727	-37.296	-0.077	0.041
-226.713	-54.715	-0.394	-0.179
-225.698	426.531	0.095	-0.206
-224.684	125.049	0.129	-0.163
-223.669	26.341	0.135	-0.113
-222.655	194.716	0.212	-0.322
-221.640	-13.035	0.217	0.142
-220.625	78.925	-0.206	0.221
-219.611	201.370	-0.140	0.216
-218.596	-200.000	-0.009	0.219
-217.582	-20.278	0.199	0.123
-216.567	-120.306	0.136	0.023
-215.552	347.488	0.024	0.047
-214.538	-84.529	-0.286	0.091
-213.523	267.403	-0.079	0.139
-212.509	191.566	-0.113	-0.171
-211.494	-94.226	0.169	-0.046
-210.479	633.124	0.065	0.165
-209.465	800.000	0.066	0.251
-208.450	139.398	-0.151	-0.200
-207.436	777.239	0.127	-0.348
-206.421	-200.000	-0.006	-0.182
-205.406	100.033	0.183	0.212
-204.392	-18.679	-0.176	0.110
-203.377	-68.938	-0.108	-0.042
-202.363	733.993	0.066	0.177
-201.348	5.941	0.224	0.167
-200.333	-21.296	0.156	0.096
-199.319	-175.673	-0.066	-0.002
-198.304	174.190	-0.149	0.216
-197.290	-200.000	0.015	-0.235
-196.275	69.609	-0.037	-0.039
-195.260	-200.000	0.009	0.304
-194.246	36.588	0.084	0.074
-193.231	-126.031	-0.400	-0.060
-192.217	-101.732	0.168	0.041
-191.202	-111.082	0.231	-0.048
-190.187	-200.000	-0.040	-0.557
-189.173	-142.522	0.275	0.027
-188.158	-200.000	-0.027	0.359
-187.144	717.855	-0.023	-0.060
-186.129	184.354	-0.109	-0.162
-185.114	-107.349	0.152	-0.034
-184.100	800.000	0.094	-0.316
-183.085	27.043	-0.177	0.149
-182.071	133.236	0.174	0.225
-181.056	-162.479	0.314	0.016
-180.042	-120.474	-0.147	0.025
-179.027	-87.581	0.263	0.080
-178.012	-200.000	0.033	-0.175
-176.998	-200.000	0.033	0.450
-175.983	-93.150	0.037	-0.010
-174.969	-58.288	0.399	0.174
-173.954	-200.000	0.011	0.239
-172.939	800.000	-0.114	0.339
-171.925	-116.128	0.098	0.018
-170.910	156.645	0.030	-0.042
-169.896	-200.000	-0.026	0.218
-168.881	-200.000	0.000	0.242
-167.866	-200.000	0.006	-0.044
-166.852	34.263	-0.328	-0.287
-165.837	-148.837	-0.202	-0.016
-164.823	-101.763	0.152	-0.037
-163.808	-45.063	-0.310	0.154
-162.793	-165.465	-0.163	0.007
-161.779	84.486	0.122	-0.133
-160.764	800.000	0.091	-0.314
-159.750	800.000	0.074	0.278
-158.735	-86.372	0.115	-0.036
-157.720	-57.161	0.297	0.131
-156.706	-127.845	0.346	0.050
-155.691	800.000	-0.044	0.165
-154.677	633.459	0.078	0.198
-153.662	509.585	-0.038	-0.087
-152.647	-148.222	0.149	0.012
-151.633	800.000	-0.020	-0.087
-150.618	83.350	0.142	0.155
-149.604	-151.227	0.180	-0.014
-148.589	-200.000	-0.039	0.221
-147.574	240.942	-0.115	-0.193
-146.560	35.152	0.202	-0.178
-145.545	-200.000	0.049	0.248
-144.531	800.000	-0.166	0.518
-143.516	-70.652	-0.113	-0.043
-142.502	730.493	-0.092	0.246
-141.487	-110.907	0.263	0.054
-140.472	-39.920	-0.286	-0.149
-139.458	60.243	0.065	0.064
-138.443	28.384	0.032	-0.027
-137.429	110.402	0.270	0.324
-136.414	556.190	-0.109	0.262
-135.399	529.244	0.080	-0.189
-134.385	137.103	0.183	0.239
-133.370	-0.301	0.160	-0.114
-132.356	-122.888	0.263	0.042
-131.341	676.875	0.121	-0.313
-130.326	-200.000	0.248	0.001
-129.312	435.728	-0.169	-0.369
-128.297	109.122	-0.295	-0.353
-127.283	-44.653	0.301	0.150
-126.268	206.321	-0.117	-0.182
-125.253	-61.336	-0.152	0.064
-124.239	-130.481	-0.040	-0.005
-123.224	310.290	0.110	0.206
-122.210	-18.222	0.089	-0.055
-121.195	-121.294	0.138	-0.023
-120.180	-200.000	0.028	0.281
-119.166	-62.961	-0.046	-0.019
-118.151	497.582	-0.155	-0.357
-117.137	-19.986	-0.142	-0.088
-116.122	-27.541	0.198	0.115
-115.107	40.739	0.129	0.116
-114.093	179.424	0.242	-0.354
-113.078	201.354	-0.201	-0.310
-112.064	-2.918	-0.289	0.202
-111.049	-21.823	0.288	0.175
-110.034	-200.000	-0.039	-0.223
-109.020	-70.667	0.304	0.115
-108.005	18.154	0.179	0.143
-106.991	-200.000	0.025	0.130
-105.976	-197.097	-0.303	-0.002
-104.962	192.327	0.161	0.243
-103.947	-200.000	-0.026	0.146
-102.932	-200.000	-0.029	0.284
-101.918	414.367	0.154	-0.328
-100.903	800.000	0.058	0.242
-99.889	-105.707	-0.305	0.069
-98.874	331.788	-0.083	0.160
-97.859	12.438	0.230	-0.178
-96.845	5.378	0.169	-0.124
-95.830	-200.000	-0.010	0.113
-94.816	-200.000	0.108	-0.491
-93.801	-89.373	-0.284	-0.083
-92.786	-36.601	0.380	0.204
-91.772	138.075	0.195	0.255
-90.757	-186.783	-0.117	0.002
-89.743	-77.487	0.178	0.062
-88.728	492.837	0.039	0.088
-87.713	-200.000	0.025	0.166
-86.699	15.276	-0.168	-0.132
-85.684	-200.000	-0.030	0.182
-84.670	-195.626	0.327	0.002
-83.655	-200.000	-0.083	-0.436
-82.640	-47.137	0.157	0.076
-81.626	-147.317	0.571	-0.048
-80.611	-61.492	0.197	-0.083
-79.597	-7.578	0.258	0.174
-78.582	23.118	0.119	-0.097
-77.567	33.992	-0.170	-0.148
-76.553	-200.000	-0.041	0.355
-75.538	334.459	-0.103	-0.199
-74.524	312.954	-0.113	-0.212
-73.509	800.000	-0.047	0.135
-72.494	149.302	0.087	0.117
-71.480	46.042	0.134	0.124
-70.465	800.000	-0.026	-0.081
-69.451	-200.000	0.066	0.322
-68.436	800.000	0.107	-0.463
-67.422	-106.045	0.112	-0.025
-66.407	-94.802	0.258	-0.070
-65.392	86.800	0.197	0.217
-64.378	-121.029	0.246	-0.041
-63.363	-107.390	0.318	0.070
-62.349	-28.309	-0.169	-0.097
-61.334	13.838	-1.029	-0.798
-60.319	-200.000	0.019	0.314
-59.305	800.000	-0.211	-0.881
-58.290	516.030	0.335	0.780
-57.276	800.000	0.378	1.546
-56.261	-200.000	79.622	500.339
-55.246	552.918	1364.516	3271.075
-54.232	179.607	2604.127	3804.106
-53.217	112.807	2393.932	2892.700
-52.203	45.567	2130.638	1962.847
-51.188	40.800	2037.081	1832.739
-50.173	39.169	2017.084	1799.752
-49.159	51.468	2057.787	1949.920
-48.144	55.214	2078.441	2004.059
-47.130	41.823	2040.875	1845.304
-46.115	39.089	2030.357	1810.573
-45.100	39.110	2027.373	1808.039
-44.086	39.059	2024.750	1805.152
-43.071	38.979	2022.680	1802.504
-42.057	38.992	2020.648	1800.744
-41.042	38.985	2018.653	1798.827
-40.027	38.954	2017.032	1797.031
-39.013	39.054	2014.518	1795.632
-37.998	39.005	2012.880	1793.656
-36.984	39.061	2010.389	1791.872
-35.969	39.046	2008.795	1790.243
-34.954	38.985	2007.623	1788.575
-33.940	39.091	2005.672	1787.730
-32.925	39.152	2004.148	1786.850
-31.911	39.119	2002.345	1784.876
-30.896	39.129	2000.197	1782.979
-29.881	39.070	1999.150	1781.440
-28.867	39.134	1997.471	1780.450
-27.852	39.191	1995.294	1778.963
-26.838	39.210	1993.003	1777.019
-25.823	39.136	1991.498	1774.941
-24.809	39.226	1989.482	1773.881
-23.794	39.072	1988.312	1771.380
-22.779	39.139	1985.902	1769.768
-21.765	39.123	1984.277	1768.100
-20.750	39.132	1982.792	1766.786
-19.736	39.099	1981.432	1765.215
-18.721	39.075	1979.774	1763.446
-17.706	39.089	1978.630	1762.487
-16.692	39.065	1976.519	1760.317
-15.677	39.108	1974.802	1759.106
-14.663	39.021	1973.336	1756.955
-13.648	39.081	1972.372	1756.564
-12.633	39.170	1970.854	1755.936
-11.619	39.124	1969.504	1754.254
-10.604	39.104	1968.018	1752.683
-9.590	39.078	1966.712	1751.214
-8.575	39.047	1965.566	1749.850
-7.560	39.118	1963.655	1748.714
-6.546	39.109	1962.621	1747.637
-5.531	39.073	1961.061	1745.860
-4.517	39.087	1959.836	1744.825
-3.502	39.154	1958.471	1744.134
-2.487	39.018	1957.499	1741.993
-1.473	39.024	1956.830	1741.383
-0.458	39.253	1951.928	1738.976
0.556	40.821	1932.975	1713.609
1.571	36.688	1912.234	1659.704
2.586	32.242	1934.013	1639.777
3.600	30.789	1970.666	1657.779
4.615	29.128	1965.099	1638.188
5.629	21.987	1858.032	1488.486
6.644	10.859	1731.401	1298.496
7.659	5.574	1689.392	1225.592
8.673	5.153	1685.588	1219.439
9.688	5.077	1684.294	1217.799
10.702	5.074	1682.777	1216.574
11.717	5.016	1680.388	1214.290
12.731	5.537	1680.297	1218.171
13.746	12.470	1696.622	1284.215
14.761	20.814	1714.720	1363.408
15.775	22.202	1714.684	1374.116
16.790	20.697	1710.746	1359.090
17.804	19.589	1706.946	1347.316
18.819	18.626	1703.481	1336.956
19.834	17.971	1701.067	1329.846
20.848	17.667	1699.259	1325.949
21.863	17.434	1697.703	1322.810
22.877	17.202	1696.694	1320.106
23.892	17.003	1695.229	1317.302
24.907	16.898	1694.371	1315.706
25.921	16.876	1692.780	1314.179
26.936	16.867	1692.117	1313.482
27.950	16.902	1690.990	1312.758
28.965	16.912	1690.621	1312.436
29.980	17.017	1689.570	1312.318
30.994	17.127	1688.695	1312.368
32.009	17.142	1687.947	1311.789
33.023	17.177	1686.893	1311.120
34.038	17.258	1686.194	1311.086
35.053	17.213	1684.598	1309.382
36.067	17.106	1683.624	1307.686
37.082	17.038	1682.074	1305.843
38.096	17.097	1681.660	1305.864
39.111	17.144	1680.673	1305.341
40.126	17.097	1680.170	1304.473
41.140	17.148	1678.833	1303.713
42.155	17.055	1677.106	1301.540
43.169	16.821	1676.128	1298.875
44.184	16.821	1674.256	1297.305
45.199	16.828	1673.397	1296.584
46.213	16.812	1671.966	1295.233
47.228	16.816	1671.234	1294.584
48.242	16.938	1669.691	1294.209
49.257	17.050	1669.200	1294.563
50.271	17.098	1667.348	1293.380
51.286	17.003	1666.265	1291.706
52.301	17.102	1664.796	1291.207
53.315	17.027	1663.423	1289.455
54.330	17.002	1662.106	1288.129
55.344	16.933	1660.672	1286.382
56.359	16.911	1658.712	1284.583
57.374	16.810	1658.063	1283.204
58.388	16.853	1656.866	1282.483
59.403	16.842	1655.195	1280.997
60.417	16.732	1653.593	1278.814
61.432	16.726	1653.154	1278.312
62.447	16.728	1651.244	1276.737
63.461	16.753	1650.137	1275.962
64.476	16.749	1649.141	1275.046
65.490	16.628	1648.200	1273.291
66.505	16.591	1647.072	1272.030
67.520	16.614	1646.484	1271.640
68.534	16.689	1645.121	1271.039
69.549	16.664	1644.176	1270.010
70.563	16.750	1642.392	1269.158
71.578	16.663	1641.229	1267.501
72.593	16.605	1640.506	1266.393
73.607	16.586	1639.312	1265.217
74.622	16.534	1638.070	1263.758
75.636	16.452	1637.689	1262.743
76.651	16.448	1636.902	1261.993
77.666	16.547	1636.258	1262.121
78.680	16.633	1634.953	1261.647
79.695	16.581	1633.987	1260.399
80.709	16.628	1633.098	1259.954
81.724	16.707	1632.340	1259.844
82.739	16.821	1631.434	1259.880
83.753	16.810	1630.424	1258.910
84.768	16.919	1629.772	1259.106
85.782	16.974	1629.060	1258.848
86.797	17.063	1628.379	1258.869
87.812	17.131	1627.344	1258.462
88.826	17.058	1625.687	1256.533
89.841	17.002	1624.620	1255.183
90.855	17.060	1623.569	1254.687
91.870	16.947	1623.095	1253.374
92.884	17.033	1622.215	1253.223
93.899	17.075	1620.904	1252.408
94.914	17.090	1620.010	1251.715
95.928	17.145	1618.397	1250.765
96.943	17.196	1616.844	1249.827
97.957	17.130	1615.476	1248.173
98.972	17.142	1613.957	1246.977
99.987	17.150	1612.440	1245.752
101.001	17.065	1610.762	1243.727
102.016	17.061	1609.318	1242.472
103.030	17.115	1607.818	1241.595
104.045	17.185	1606.683	1241.126
105.060	17.097	1605.647	1239.571
106.074	17.044	1603.972	1237.779
107.089	16.974	1602.418	1235.959
108.103	16.818	1600.757	1233.437
109.118	16.645	1599.221	1230.887
110.133	16.662	1597.369	1229.477
111.147	16.800	1595.821	1229.173
112.162	16.672	1594.976	1227.487
113.176	16.648	1594.011	1226.465
114.191	16.794	1592.186	1226.005
115.206	16.817	1591.066	1225.202
116.220	16.830	1589.742	1224.171
117.235	16.788	1588.243	1222.603
118.249	16.737	1587.034	1221.199
119.264	16.801	1586.033	1220.781
120.279	16.862	1584.351	1219.817
121.293	16.746	1583.014	1217.846
122.308	16.662	1582.005	1216.360
123.322	16.705	1580.017	1215.029
124.337	16.575	1578.860	1213.096
125.352	16.603	1577.431	1212.098
126.366	16.580	1576.319	1210.968
127.381	16.603	1575.127	1210.111
128.395	16.555	1574.439	1209.129
129.410	16.653	1572.705	1208.390
130.424	16.677	1571.629	1207.630
131.439	16.700	1569.939	1206.387
132.454	16.686	1569.163	1205.587
133.468	16.738	1567.927	1204.900
134.483	16.896	1565.919	1204.376
135.497	16.903	1564.787	1203.443
136.512	16.817	1563.925	1202.062
137.527	16.942	1561.797	1201.206
138.541	16.850	1561.117	1199.928
139.556	16.868	1559.423	1198.647
140.570	17.013	1558.023	1198.493
141.585	17.042	1556.669	1197.543
142.600	17.157	1555.534	1197.376
143.614	17.130	1554.510	1196.294
144.629	17.254	1553.223	1196.073
145.643	17.323	1551.539	1195.155
146.658	17.286	1550.668	1194.118
147.673	17.331	1549.144	1193.151
148.687	17.106	1547.817	1190.450
149.702	17.032	1546.495	1188.809
150.716	16.959	1544.478	1186.640
151.731	17.038	1542.850	1185.837
152.746	17.015	1541.522	1184.550
153.760	16.945	1540.134	1182.890
154.775	17.002	1539.193	1182.462
155.789	17.012	1538.094	1181.581
156.804	17.164	1536.248	1181.119
157.819	17.123	1535.789	1180.376
158.833	17.229	1534.549	1180.053
159.848	17.222	1533.210	1178.868
160.862	17.305	1531.884	1178.323
161.877	17.382	1530.920	1178.007
162.892	17.301	1529.321	1176.115
163.906	17.108	1528.204	1173.816
164.921	17.023	1527.314	1172.445
165.935	17.068	1526.103	1171.722
166.950	16.998	1525.507	1170.674
167.964	17.187	1524.001	1170.721
168.979	17.226	1522.879	1170.019
169.994	17.144	1521.916	1168.615
171.008	17.098	1521.231	1167.669
172.023	17.084	1519.652	1166.256
173.037	17.148	1518.776	1165.917
174.052	17.291	1517.345	1165.700
175.067	17.292	1516.763	1165.155
176.081	17.248	1515.770	1163.992
177.096	17.142	1513.774	1161.628
178.110	17.033	1512.571	1159.857
179.125	17.114	1511.269	1159.312
180.140	17.110	1510.599	1158.665
181.154	17.212	1509.335	1158.289
182.169	17.292	1508.280	1157.919
183.183	17.302	1506.830	1156.776
184.198	17.377	1506.224	1156.720
185.213	17.409	1505.587	1156.341
186.227	17.349	1504.725	1155.172
187.242	17.370	1503.457	1154.240
188.256	17.455	1502.174	1153.724
189.271	17.590	1500.761	1153.451
190.286	17.602	1500.131	1152.945
191.300	17.618	1498.659	1151.825
192.315	17.383	1497.367	1149.141
193.329	17.115	1496.054	1146.225
194.344	17.129	1494.763	1145.229
195.359	17.206	1493.735	1144.857
196.373	17.187	1493.151	1144.179
197.388	17.308	1492.022	1144.029
198.402	17.398	1491.176	1143.881
199.417	17.464	1489.684	1143.081
200.432	17.609	1489.374	1143.715
201.446	17.722	1488.445	1143.659
202.461	17.755	1487.360	1142.942
203.475	17.816	1486.252	1142.400
204.490	17.812	1485.349	1141.577
205.504	17.764	1483.985	1140.106
206.519	17.688	1482.484	1138.344
207.534	17.649	1481.304	1137.080
208.548	17.562	1480.293	1135.622
209.563	17.566	1479.184	1134.698
210.577	17.538	1478.517	1133.903
211.592	17.567	1477.527	1133.232
212.607	17.696	1476.827	1133.455
213.621	17.660	1476.436	1132.815
214.636	17.868	1475.192	1133.142
215.650	17.816	1473.922	1131.716
216.665	17.771	1473.321	1130.858
217.680	17.870	1472.274	1130.612
218.694	17.843	1471.653	1129.854
219.709	18.002	1470.988	1130.297
220.723	17.936	1470.141	1129.113
221.738	17.929	1468.839	1127.963
222.753	17.830	1467.872	1126.472
223.767	17.849	1467.178	1125.959
224.782	17.938	1465.820	1125.408
225.796	17.985	1464.937	1124.939
226.811	18.024	1463.932	1124.325
227.826	18.142	1463.300	1124.513
228.840	18.105	1462.196	1123.321
229.855	17.917	1461.354	1121.341
230.869	17.925	1460.288	1120.476
231.884	17.949	1459.259	1119.746
232.899	17.944	1458.079	1118.707
233.913	17.888	1456.912	1117.348
234.928	17.855	1455.817	1116.191
235.942	17.762	1454.147	1114.206
236.957	17.753	1453.432	1113.501
237.972	17.773	1452.176	1112.575
238.986	17.901	1450.469	1111.998
240.001	17.875	1449.595	1111.061
241.015	17.973	1448.391	1110.680
242.030	17.791	1448.156	1109.213
243.045	17.859	1446.916	1108.610
244.059	18.046	1446.085	1109.091
245.074	18.137	1444.909	1108.682
246.088	17.979	1444.874	1107.527
247.103	18.085	1443.997	1107.447
248.117	18.183	1443.055	1107.263
249.132	18.167	1442.488	1106.627
250.147	18.355	1441.703	1107.141
251.161	18.438	1441.234	1107.220
252.176	18.613	1440.202	1107.454
253.190	18.564	1440.046	1106.924
254.205	18.549	1439.293	1106.148
255.220	18.627	1438.165	1105.688
256.234	18.664	1437.555	1105.360
257.249	18.754	1436.424	1104.973
258.263	18.606	1435.680	1103.346
259.278	18.680	1434.308	1102.671
260.293	18.616	1433.854	1101.812
261.307	18.595	1433.041	1100.958
262.322	18.748	1432.334	1101.298
263.336	18.767	1431.790	1100.901
264.351	18.778	1430.171	1099.631
265.366	18.816	1429.460	1099.229
266.380	18.873	1428.608	1098.844
267.395	18.766	1427.597	1097.286
268.409	18.939	1426.564	1097.501
269.424	18.769	1425.577	1095.557
270.439	18.698	1424.503	1094.182
271.453	18.719	1423.643	1093.558
272.468	18.664	1422.952	1092.584
273.482	18.720	1421.934	1092.061
274.497	18.638	1420.852	1090.609
275.512	18.721	1419.793	1090.226
276.526	18.727	1419.267	1089.767
277.541	18.760	1418.021	1088.922
278.555	18.722	1417.172	1087.935
279.570	18.756	1416.290	1087.375
280.585	18.805	1415.433	1086.931
281.599	18.860	1414.995	1086.849
282.614	18.954	1413.967	1086.555
283.628	18.901	1412.554	1085.038
284.643	18.760	1411.730	1083.419
285.657	18.807	1410.433	1082.623
286.672	18.834	1409.896	1082.283
287.687	18.792	1408.865	1081.136
288.701	18.907	1407.279	1080.546
289.716	18.856	1406.995	1079.913
290.730	18.950	1406.146	1079.752
291.745	18.934	1404.817	1078.538
292.760	18.863	1404.129	1077.471
293.774	19.018	1402.847	1077.363
294.789	18.957	1402.272	1076.442
295.803	19.016	1401.598	1076.197
296.818	19.098	1400.500	1075.772
297.833	19.080	1399.275	1074.626
298.847	18.971	1398.374	1073.155
299.862	18.934	1397.524	1072.181
300.876	19.001	1396.606	1071.797
301.891	18.967	1395.632	1070.744
302.906	19.013	1395.354	1070.720
303.920	19.152	1394.203	1070.609
304.935	19.185	1393.285	1070.013
305.949	19.209	1392.996	1069.843
306.964	19.402	1391.979	1070.169
307.979	19.401	1390.829	1069.180
308.993	19.381	1389.840	1068.204
310.008	19.258	1389.385	1066.999
311.022	19.253	1387.903	1065.736
312.037	19.381	1387.327	1065.987
313.052	19.317	1386.303	1064.712
314.066	19.394	1385.061	1064.136
315.081	19.308	1383.700	1062.472
316.095	19.218	1382.847	1061.165
317.110	19.112	1381.868	1059.670
318.125	19.156	1380.589	1058.864
319.139	19.106	1379.646	1057.737
320.154	19.244	1378.765	1057.816
321.168	19.166	1377.754	1056.473
322.183	19.117	1376.896	1055.416
323.197	19.246	1375.836	1055.304
324.212	19.285	1374.854	1054.697
325.227	19.264	1374.517	1054.215
326.241	19.323	1373.274	1053.528
327.256	19.411	1372.183	1053.137
328.270	19.384	1371.547	1052.393
329.285	19.411	1370.364	1051.557
330.300	19.200	1369.928	1049.843
331.314	19.348	1368.652	1049.669
332.329	19.255	1367.975	1048.491
333.343	19.310	1366.891	1047.903
334.358	19.304	1366.220	1047.260
335.373	19.524	1365.463	1047.922
336.387	19.409	1364.800	1046.624
337.402	19.447	1364.420	1046.470
338.416	19.437	1363.640	1045.721
339.431	19.521	1362.548	1045.299
340.446	19.584	1361.665	1044.907
341.460	19.682	1360.835	1044.773
342.475	19.769	1359.363	1044.074
343.489	19.770	1358.787	1043.548
344.504	19.793	1358.473	1043.351
345.519	19.846	1357.377	1042.738
346.533	19.893	1356.532	1042.279
347.548	19.925	1355.247	1041.390
348.562	19.944	1354.594	1040.912
349.577	19.975	1354.130	1040.652
350.592	19.916	1353.064	1039.385
351.606	19.822	1352.257	1038.105
352.621	19.706	1351.239	1036.538
353.635	19.708	1349.882	1035.415
354.650	19.704	1348.850	1034.511
355.665	19.593	1348.159	1033.227
356.679	19.721	1346.965	1032.986
357.694	19.734	1345.884	1032.144
358.708	19.811	1344.592	1031.518
359.723	19.832	1343.621	1030.806
360.738	19.950	1342.498	1030.557
361.752	19.873	1341.569	1029.294
362.767	19.859	1340.652	1028.419
363.781	19.837	1340.101	1027.770
364.796	19.943	1339.051	1027.505
365.810	19.896	1338.456	1026.678
366.825	20.039	1337.999	1027.083
367.840	19.968	1337.214	1025.974
368.854	20.195	1336.162	1026.419
369.869	20.236	1335.616	1026.151
370.883	20.283	1335.437	1026.201
371.898	20.262	1334.245	1025.067
372.913	20.186	1333.343	1023.836
373.927	20.132	1332.420	1022.717
374.942	20.193	1331.622	1022.371
375.956	20.129	1330.948	1021.386
376.971	20.364	1330.298	1022.184
377.986	20.176	1329.514	1020.387
379.000	20.214	1328.281	1019.574
380.015	20.250	1328.078	1019.539
381.029	20.416	1327.129	1019.691
382.044	20.457	1326.326	1019.227
383.059	20.439	1325.903	1018.705
384.073	20.462	1324.901	1017.983
385.088	20.478	1324.356	1017.565
386.102	20.433	1323.232	1016.349
387.117	20.507	1322.876	1016.416
388.132	20.412	1322.028	1015.120
389.146	20.386	1321.360	1014.367
390.161	20.295	1320.378	1012.994
391.175	20.280	1319.889	1012.439
392.190	20.278	1318.502	1011.275
393.205	20.356	1318.014	1011.263
394.219	20.414	1317.127	1010.833
395.234	20.540	1315.584	1010.293
396.248	20.462	1314.433	1008.865
397.263	20.443	1312.779	1007.395
398.278	20.380	1311.658	1006.080
399.292	20.444	1310.613	1005.559
400.307	20.324	1309.423	1003.868
401.321	20.361	1308.037	1002.926
402.336	20.272	1307.153	1001.646
403.350	20.181	1306.288	1000.369
404.365	20.303	1305.017	1000.011
405.380	20.320	1304.422	999.567
406.394	20.363	1303.829	999.272
407.409	20.373	1303.009	998.613
408.423	20.540	1302.624	999.190
409.438	20.635	1301.720	998.950
410.453	20.668	1301.237	998.680
411.467	20.720	1300.570	998.380
412.482	20.776	1299.960	998.144
413.496	20.896	1298.911	997.940
414.511	20.869	1298.054	997.037
415.526	20.832	1297.591	996.383
416.540	20.962	1296.840	996.460
417.555	20.973	1296.205	995.947
418.569	20.985	1295.689	995.528
419.584	20.931	1295.380	994.897
420.599	20.917	1294.514	994.062
421.613	136.010	1423.046	1756.429
422.628	131.698	1441.768	1756.543
