DTS Sentinel unit serial number:	SN413079Multiplexer serial number:	ORYXHardware model number:	OX4-SRSoftware version number:	ORYX F/W v4.00 Oryx Data Collector v3.7.2.0data status	okinstallation	princeton_trtdifferential loss correction	single-endedforward channel	channel 4reverse channel	N/Adate	2019/09/13time	15:37:35forward acquisition time	60.00reverse acquisition time	0.00gamma	496.2192k internal	0.2298k external	0.2298temperature offset calibration	1.0216default loss term (dB/km)	0.3790temperature slope calibration	1.0000multiplexer offset coefficient	1.0000multiplexer slope coefficient	1.0000fibre end	0.00T internal ref (°C)	34.94T ext. ref 1 (°C)	4.76T ext. ref 2 (°C)	29.33length (m)	temperature (°C)	Stokes	anti-Stokes-747.200	-200.000	0.032	0.156
-746.185	-200.000	-0.028	0.333
-745.171	88.143	-0.020	0.023
-744.156	800.000	0.097	0.318
-743.142	-14.457	-0.498	0.327
-742.127	-14.777	-0.174	0.114
-741.112	-57.385	0.410	0.184
-740.098	92.120	0.154	0.176
-739.083	-200.000	0.020	0.204
-738.069	-99.782	-0.206	0.053
-737.054	-200.000	-0.010	0.049
-736.039	-68.527	-0.062	0.025
-735.025	800.000	-0.064	0.190
-734.010	-75.969	0.142	0.051
-732.996	-174.468	-0.429	0.013
-731.981	145.614	-0.018	-0.024
-730.966	268.104	-0.118	-0.210
-729.952	-38.502	-0.141	0.076
-728.937	-200.000	0.014	-0.177
-727.923	-110.317	0.100	-0.021
-726.908	53.045	0.077	0.076
-725.894	49.500	-0.017	-0.017
-724.879	-19.389	-0.065	-0.041
-723.864	-200.000	0.003	0.138
-722.850	-17.314	-0.312	0.200
-721.835	-70.054	0.160	-0.062
-720.821	139.483	0.043	0.057
-719.806	44.431	-0.303	-0.284
-718.791	57.207	0.341	-0.339
-717.777	-200.000	-0.046	0.347
-716.762	-84.040	-0.100	-0.033
-715.748	-88.090	0.332	-0.101
-714.733	-113.033	0.051	-0.010
-713.718	64.029	0.051	-0.053
-712.704	76.318	-0.262	0.283
-711.689	179.188	0.036	-0.054
-710.675	-66.737	-0.121	0.049
-709.660	-106.868	-0.275	0.062
-708.645	-59.831	-0.284	-0.124
-707.631	481.632	0.063	0.145
-706.616	22.471	0.203	-0.169
-705.602	-72.587	-0.427	-0.160
-704.587	6.059	-0.241	-0.182
-703.572	58.409	0.119	-0.119
-702.558	-200.000	0.026	0.261
-701.543	-54.424	-0.330	0.152
-700.529	-200.000	0.001	0.040
-699.514	-200.000	-0.005	0.102
-698.499	12.977	-0.228	0.179
-697.485	800.000	-0.042	0.133
-696.470	-146.497	0.111	-0.010
-695.456	800.000	0.033	0.142
-694.441	-105.196	-0.077	0.018
-693.426	151.661	0.133	-0.184
-692.412	184.282	0.141	0.213
-691.397	333.756	-0.195	-0.384
-690.383	-75.436	0.309	0.112
-689.368	-200.000	-0.037	0.186
-688.354	7.403	0.167	-0.127
-687.339	483.346	0.077	0.178
-686.324	53.071	0.253	-0.246
-685.310	189.297	0.162	-0.248
-684.295	201.812	-0.052	0.081
-683.281	-173.967	-0.284	0.009
-682.266	-159.349	-0.170	-0.010
-681.251	-117.637	-0.275	-0.050
-680.237	-136.450	0.256	-0.030
-679.222	-75.138	0.246	0.090
-678.208	-64.436	-0.085	-0.035
-677.193	-200.000	0.060	-0.339
-676.178	84.768	0.169	-0.189
-675.164	-200.000	0.000	0.037
-674.149	260.931	0.051	-0.091
-673.135	3.710	-0.091	-0.068
-672.120	-192.542	-0.193	-0.002
-671.105	551.061	-0.097	-0.236
-670.091	106.454	-0.165	0.199
-669.076	732.446	-0.073	-0.198
-668.062	-200.000	-0.003	-0.029
-667.047	242.220	0.080	-0.136
-666.032	-29.180	0.257	-0.150
-665.018	800.000	0.030	-0.119
-664.003	-199.614	0.048	0.000
-662.989	476.539	0.065	-0.149
-661.974	75.184	0.137	-0.147
-660.959	-200.000	-0.054	-0.310
-659.945	-200.000	-0.024	-0.177
-658.930	-59.257	-0.505	-0.221
-657.916	-69.215	-0.226	-0.088
-656.901	-83.972	0.121	-0.039
-655.886	-29.298	0.232	-0.135
-654.872	181.776	0.172	-0.257
-653.857	-200.000	-0.012	0.206
-652.843	-200.000	0.023	0.353
-651.828	303.404	0.048	0.091
-650.814	182.306	-0.179	-0.269
-649.799	45.700	-0.269	0.253
-648.784	-8.780	0.178	-0.122
-647.770	105.274	0.181	0.217
-646.755	-48.941	0.504	0.245
-645.741	-32.798	-0.137	0.077
-644.726	-74.758	-0.491	0.179
-643.711	160.739	-0.199	0.282
-642.697	-100.282	-0.319	-0.081
-641.682	-176.923	-0.389	-0.010
-640.668	185.312	0.093	0.141
-639.653	104.683	0.094	-0.113
-638.638	-136.287	-0.188	0.022
-637.624	103.364	-0.234	0.279
-636.609	-11.093	0.120	-0.080
-635.595	149.416	-0.031	-0.043
-634.580	-15.319	-0.091	-0.059
-633.565	43.941	0.222	-0.206
-632.551	-110.625	0.175	0.037
-631.536	2.388	0.418	-0.307
-630.522	194.435	-0.098	-0.150
-629.507	19.661	0.292	0.239
-628.492	-200.000	0.010	-0.076
-627.478	261.793	0.111	0.196
-626.463	-39.393	0.168	-0.089
-625.449	-200.000	0.003	-0.136
-624.434	800.000	0.085	0.336
-623.419	-154.641	-0.488	-0.033
-622.405	-23.270	0.364	0.222
-621.390	-58.124	-0.091	-0.040
-620.376	796.903	-0.042	-0.118
-619.361	800.000	-0.038	-0.119
-618.346	-200.000	-0.024	-0.273
-617.332	303.677	0.150	-0.283
-616.317	62.617	0.047	-0.047
-615.303	621.783	-0.079	0.202
-614.288	-200.000	0.012	-0.207
-613.273	33.597	0.178	-0.157
-612.259	411.157	0.088	-0.190
-611.244	15.239	0.294	0.234
-610.230	800.000	0.122	-0.498
-609.215	-23.706	-0.398	-0.242
-608.201	-3.610	0.158	-0.112
-607.186	800.000	-0.023	-0.068
-606.171	800.000	-0.150	-0.484
-605.157	800.000	0.143	-0.434
-604.142	477.690	0.118	-0.271
-603.128	-88.068	-0.289	-0.088
-602.113	501.141	0.124	0.292
-601.098	-12.910	0.175	0.115
-600.084	473.413	0.062	0.143
-599.069	-141.954	0.387	-0.039
-598.055	-200.000	0.013	-0.189
-597.040	-157.097	0.148	0.009
-596.025	516.841	-0.066	-0.156
-595.011	-56.768	-0.096	0.043
-593.996	-200.000	-0.012	0.069
-592.982	-103.427	0.401	-0.096
-591.967	-66.946	-0.275	0.110
-590.952	199.973	-0.104	-0.162
-589.938	-200.000	-0.021	-0.115
-588.923	-81.362	0.088	-0.029
-587.909	41.827	-0.105	-0.096
-586.894	-200.000	-0.001	-0.100
-585.879	153.970	-0.172	-0.239
-584.865	-61.252	0.095	0.040
-583.850	208.074	-0.080	-0.127
-582.836	-146.306	-0.322	0.029
-581.821	196.218	0.016	0.025
-580.806	-128.383	-0.318	0.046
-579.792	-68.433	0.059	-0.023
-578.777	119.236	-0.109	-0.136
-577.763	-94.709	0.185	-0.051
-576.748	-154.913	0.085	-0.006
-575.733	-115.695	-0.094	-0.018
-574.719	52.731	-0.236	0.229
-573.704	800.000	-0.047	0.200
-572.690	-200.000	-0.046	0.221
-571.675	-99.324	-0.052	-0.013
-570.661	800.000	-0.056	-0.206
-569.646	800.000	0.036	-0.156
-568.631	-200.000	0.019	-0.182
-567.617	-122.449	-0.129	0.021
-566.602	-80.257	-0.060	-0.020
-565.588	800.000	0.077	0.233
-564.573	-129.537	0.148	0.021
-563.558	77.135	-0.114	-0.123
-562.544	3.685	-0.168	0.124
-561.529	-138.116	0.268	0.030
-560.515	-20.159	-0.055	-0.034
-559.500	392.687	-0.084	0.178
-558.485	181.933	0.044	-0.065
-557.471	-147.056	0.432	0.037
-556.456	327.342	-0.115	0.223
-555.442	-13.159	-0.084	0.055
-554.427	99.694	0.169	0.199
-553.412	-80.295	-0.115	-0.039
-552.398	-158.046	0.395	0.024
-551.383	-198.576	0.219	0.001
-550.369	119.964	0.033	0.041
-549.354	-73.007	-0.390	0.145
-548.339	58.943	-0.137	-0.136
-547.325	-107.807	0.062	0.014
-546.310	-200.000	-0.037	-0.206
-545.296	39.734	0.080	-0.073
-544.281	-200.000	0.020	-0.149
-543.266	46.232	0.174	-0.163
-542.252	-200.000	-0.044	0.235
-541.237	-151.340	-0.190	-0.014
-540.223	-101.624	-0.230	-0.057
-539.208	-16.924	0.101	0.065
-538.193	597.366	-0.058	-0.145
-537.179	159.948	0.104	0.147
-536.164	-43.801	0.094	0.048
-535.150	-200.000	0.007	0.362
-534.135	650.221	-0.077	0.201
-533.121	-104.380	-0.381	-0.089
-532.106	-77.970	0.376	0.131
-531.091	138.681	0.147	0.196
-530.077	-180.661	0.353	-0.007
-529.062	-40.784	-0.186	0.098
-528.048	280.264	-0.180	-0.326
-527.033	-23.861	-0.209	-0.127
-526.018	-200.000	-0.018	-0.403
-525.004	-39.188	-0.282	0.150
-523.989	-200.000	0.045	0.236
-522.975	-200.000	0.009	0.093
-521.960	95.701	-0.084	0.097
-520.945	314.567	-0.126	-0.240
-519.931	800.000	0.077	-0.324
-518.916	800.000	0.056	-0.171
-517.902	-162.292	0.360	-0.018
-516.887	108.387	0.102	0.123
-515.872	-4.516	0.326	-0.228
-514.858	-68.604	0.155	-0.061
-513.843	-56.554	-0.071	-0.032
-512.829	404.837	0.104	-0.221
-511.814	-85.986	0.274	0.086
-510.799	-40.887	0.416	-0.217
-509.785	-69.636	-0.228	0.088
-508.770	-200.000	-0.006	0.143
-507.756	-38.218	0.326	0.175
-506.741	800.000	0.008	-0.027
-505.726	-200.000	-0.015	-0.259
-504.712	60.709	0.240	0.241
-503.697	-125.654	0.172	-0.026
-502.683	1.677	0.237	0.172
-501.668	-33.940	-0.271	0.151
-500.653	296.088	-0.081	0.149
-499.639	-154.981	-0.333	-0.022
-498.624	-200.000	-0.062	0.297
-497.610	-14.027	-0.176	-0.115
-496.595	-108.911	0.084	-0.018
-495.581	-200.000	-0.024	-0.136
-494.566	-151.817	-0.283	0.021
-493.551	158.005	-0.142	-0.199
-492.537	-73.381	-0.179	-0.066
-491.522	37.402	0.110	-0.098
-490.508	-200.000	0.033	-0.176
-489.493	-200.000	-0.003	0.228
-488.478	199.096	0.080	-0.123
-487.464	78.481	-0.221	0.239
-486.449	214.682	-0.100	0.160
-485.435	-114.078	0.112	0.022
-484.420	-154.099	-0.107	0.007
-483.405	-55.927	-0.379	-0.171
-482.391	189.184	0.030	0.046
-481.376	147.882	0.106	-0.144
-480.362	140.239	-0.177	-0.236
-479.347	37.506	0.141	-0.126
-478.332	-154.912	0.161	0.011
-477.318	405.473	0.068	0.144
-476.303	-86.956	-0.135	0.041
-475.289	38.830	0.188	0.170
-474.274	800.000	0.088	0.282
-473.259	800.000	-0.099	0.351
-472.245	468.958	-0.103	-0.234
-471.230	397.698	0.091	0.192
-470.216	800.000	0.012	-0.049
-469.201	229.958	0.040	0.065
-468.186	-97.035	0.260	-0.069
-467.172	748.487	-0.101	0.276
-466.157	27.549	0.082	-0.070
-465.143	-118.333	0.092	0.016
-464.128	-200.000	-0.002	0.108
-463.113	800.000	-0.023	-0.066
-462.099	124.015	0.060	-0.076
-461.084	1.318	-0.376	-0.273
-460.070	27.693	-0.186	-0.158
-459.055	-104.488	-0.340	-0.079
-458.040	-139.081	0.181	0.020
-457.026	-200.000	0.004	0.038
-456.011	34.105	0.029	-0.025
-454.997	416.311	0.042	-0.090
-453.982	800.000	-0.089	-0.325
-452.968	-71.458	0.260	0.098
-451.953	339.901	-0.130	0.256
-450.938	-93.505	-0.303	-0.084
-449.924	800.000	-0.027	-0.113
-448.909	304.969	-0.115	-0.215
-447.895	-107.566	0.543	-0.120
-446.880	800.000	-0.025	-0.108
-445.865	487.657	-0.178	-0.410
-444.851	419.664	0.189	-0.408
-443.836	152.749	0.252	-0.347
-442.822	8.259	0.101	0.077
-441.807	559.633	0.031	0.076
-440.792	53.671	0.165	0.160
-439.778	-79.838	-0.204	-0.069
-438.763	15.024	-0.135	-0.106
-437.749	-152.778	-0.046	0.003
-436.734	-67.457	-0.097	-0.038
-435.719	-200.000	-0.033	0.267
-434.705	-44.754	0.083	-0.042
-433.690	459.337	0.092	0.206
-432.676	-30.507	0.326	0.186
-431.661	-141.701	-0.323	0.033
-430.646	-200.000	0.018	0.098
-429.632	152.982	0.104	0.143
-428.617	482.732	0.035	-0.080
-427.603	-15.572	-0.187	-0.120
-426.588	306.452	0.152	0.285
-425.573	-38.660	0.088	0.047
-424.559	-50.483	-0.276	0.131
-423.544	326.531	-0.075	-0.144
-422.530	-123.985	0.294	0.047
-421.515	678.076	0.080	0.208
-420.500	88.977	-0.017	0.019
-419.486	-66.042	0.326	0.131
-418.471	-5.941	-0.193	-0.133
-417.457	20.899	-0.087	0.071
-416.442	-56.281	0.105	-0.047
-415.428	53.826	0.075	-0.073
-414.413	-65.478	-0.060	0.024
-413.398	262.243	-0.054	0.094
-412.384	711.304	-0.132	-0.353
-411.369	-132.445	0.219	0.028
-410.355	86.575	-0.091	-0.101
-409.340	-200.000	0.041	-0.257
-408.325	310.403	-0.026	0.050
-407.311	-28.720	0.297	-0.172
-406.296	-111.208	0.197	0.041
-405.282	-139.379	0.238	-0.026
-404.267	46.804	-0.029	-0.027
-403.252	36.959	0.213	0.189
-402.238	-131.304	-0.108	-0.014
-401.223	-80.535	-0.280	0.094
-400.209	-39.622	0.207	-0.109
-399.194	-14.445	-0.163	0.106
-398.179	114.469	-0.076	0.093
-397.165	448.937	-0.072	0.161
-396.150	48.805	-0.203	-0.191
-395.136	433.275	-0.079	-0.172
-394.121	-200.000	0.031	-0.209
-393.106	102.919	0.122	-0.143
-392.092	-92.890	0.161	0.045
-391.077	800.000	-0.028	-0.125
-390.063	175.542	-0.109	0.159
-389.048	-200.000	0.004	0.047
-388.033	-58.218	0.149	0.065
-387.019	-10.871	0.243	0.162
-386.004	137.467	-0.100	0.131
-384.990	245.309	-0.320	0.542
-383.975	199.352	0.144	-0.223
-382.960	-127.152	0.167	0.025
-381.946	98.537	0.120	-0.139
-380.931	-181.592	-0.079	0.002
-379.917	128.378	-0.154	-0.197
-378.902	28.684	0.150	-0.128
-377.888	-52.251	-0.407	-0.190
-376.873	249.578	-0.046	-0.078
-375.858	338.493	0.062	0.122
-374.844	631.804	-0.076	0.194
-373.829	-200.000	-0.058	0.389
-372.815	154.136	0.159	0.220
-371.800	-187.579	0.137	-0.002
-370.785	-21.948	0.181	-0.111
-369.771	-121.883	0.218	0.036
-368.756	-26.412	-0.352	0.208
-367.742	124.061	0.108	0.136
-366.727	12.261	0.147	0.114
-365.712	-200.000	0.050	-0.265
-364.698	-24.745	-0.210	-0.126
-363.683	-13.994	0.097	0.063
-362.669	-2.964	0.303	-0.212
-361.654	-132.966	0.224	0.029
-360.639	-92.589	-0.163	0.046
-359.625	635.806	-0.021	0.053
-358.610	-4.697	0.306	0.212
-357.596	-39.876	-0.370	0.194
-356.581	104.019	-0.274	-0.324
-355.566	-200.000	0.043	-0.221
-354.552	-34.684	-0.298	-0.164
-353.537	-110.015	0.378	0.079
-352.523	-23.702	-0.066	0.040
-351.508	457.644	-0.174	0.389
-350.493	-200.000	0.009	0.129
-349.479	-84.304	0.186	0.059
-348.464	-80.855	0.136	0.045
-347.450	-77.914	0.347	-0.120
-346.435	-84.639	0.163	-0.052
-345.420	-102.317	0.204	-0.049
-344.406	-200.000	-0.025	0.181
-343.391	-141.756	-0.234	-0.024
-342.377	-71.374	-0.272	0.102
-341.362	84.414	-0.151	0.166
-340.348	-200.000	-0.003	0.036
-339.333	-154.370	0.124	-0.008
-338.318	-200.000	-0.029	-0.206
-337.304	49.330	-0.122	0.115
-336.289	-200.000	-0.069	0.306
-335.275	-43.616	-0.184	0.093
-334.260	91.279	0.330	-0.372
-333.245	139.709	-0.196	-0.260
-332.231	-200.000	0.033	0.173
-331.216	26.644	0.146	0.123
-330.202	-59.677	-0.114	0.049
-329.187	-175.927	-0.352	-0.009
-328.172	20.053	0.199	-0.161
-327.158	-200.000	-0.010	0.225
-326.143	113.170	-0.168	0.204
-325.129	800.000	0.066	-0.190
-324.114	-200.000	-0.038	-0.300
-323.099	100.118	0.114	0.133
-322.085	-200.000	-0.004	0.164
-321.070	-46.033	-0.250	-0.124
-320.056	-30.961	0.071	0.040
-319.041	-7.774	0.161	0.109
-318.026	-200.000	-0.093	0.000
-317.012	181.749	-0.096	-0.142
-315.997	-200.000	-0.097	0.443
-314.983	-154.754	0.186	-0.012
-313.968	-200.000	-0.019	-0.119
-312.953	-80.790	0.102	0.034
-311.939	800.000	0.073	0.276
-310.924	-114.806	-0.326	-0.063
-309.910	-58.320	0.169	0.074
-308.895	-7.077	0.130	-0.088
-307.880	-200.000	-0.030	-0.200
-306.866	-23.594	0.310	-0.187
-305.851	-200.000	-0.006	0.057
-304.837	12.292	-0.049	-0.038
-303.822	348.540	0.134	0.266
-302.807	-126.481	-0.234	0.035
-301.793	29.102	-0.193	-0.164
-300.778	-127.089	0.367	-0.054
-299.764	50.364	0.092	-0.087
-298.749	-113.496	0.062	-0.012
-297.735	43.952	0.140	-0.128
-296.720	800.000	-0.065	-0.208
-295.705	96.917	0.067	-0.077
-294.691	167.984	0.166	-0.237
-293.676	-103.351	0.280	-0.066
-292.662	-119.587	0.083	0.014
-291.647	-180.251	0.236	0.005
-290.632	-159.816	-0.217	0.012
-289.618	-40.316	0.112	-0.058
-288.603	327.300	-0.158	0.303
-287.589	227.068	-0.017	0.027
-286.574	-169.823	0.217	0.008
-285.559	-86.529	-0.244	0.075
-284.545	-200.000	-0.001	0.147
-283.530	-200.000	-0.013	0.356
-282.516	-139.109	0.126	0.014
-281.501	144.962	-0.159	-0.213
-280.486	-200.000	0.022	-0.318
-279.472	-200.000	0.033	0.481
-278.457	51.052	0.127	0.120
-277.443	27.710	-0.272	0.229
-276.428	-200.000	0.043	-0.219
-275.413	-31.763	-0.170	-0.095
-274.399	-28.864	-0.209	-0.120
-273.384	-200.000	0.017	-0.132
-272.370	-200.000	-0.002	0.213
-271.355	6.375	0.417	-0.310
-270.340	50.650	-0.111	-0.105
-269.326	134.005	-0.246	-0.319
-268.311	115.120	0.234	0.286
-267.297	-110.384	-0.178	0.037
-266.282	85.219	-0.133	0.146
-265.267	-117.176	0.109	-0.020
-264.253	-86.295	0.236	0.073
-263.238	-119.685	-0.130	0.022
-262.224	800.000	0.107	0.365
-261.209	278.609	-0.098	0.174
-260.195	-200.000	-0.031	-0.349
-259.180	-200.000	-0.032	-0.202
-258.165	-99.138	0.388	0.098
-257.151	165.358	0.228	0.322
-256.136	-200.000	-0.015	-0.066
-255.122	95.169	-0.341	0.389
-254.107	800.000	-0.026	-0.111
-253.092	800.000	0.041	-0.179
-252.078	-67.770	-0.345	0.135
-251.063	728.563	-0.165	0.441
-250.049	-76.890	-0.205	0.072
-249.034	-193.621	-0.045	-0.000
-248.019	50.465	-0.263	-0.249
-247.005	-200.000	0.048	-0.536
-245.990	-200.000	-0.021	-0.110
-244.976	74.062	-0.130	0.137
-243.961	-42.990	0.335	0.170
-242.946	145.366	-0.145	0.194
-241.932	177.526	0.053	-0.077
-240.917	800.000	-0.014	-0.039
-239.903	-167.175	-0.185	0.008
-238.888	149.415	-0.097	0.131
-237.873	299.127	-0.096	0.177
-236.859	17.730	0.224	-0.178
-235.844	-149.723	-0.214	0.017
-234.830	244.990	0.086	-0.145
-233.815	22.385	-0.271	-0.222
-232.800	-72.213	-0.139	-0.051
-231.786	-200.000	0.028	-0.143
-230.771	-200.000	-0.018	-0.366
-229.757	-15.159	0.140	0.089
-228.742	51.590	0.177	0.168
-227.727	-105.562	-0.200	-0.045
-226.713	155.575	-0.227	-0.313
-225.698	-180.761	-0.180	0.004
-224.684	-130.414	0.045	0.006
-223.669	120.975	0.145	0.180
-222.655	76.981	-0.264	-0.280
-221.640	-133.917	0.265	0.033
-220.625	-200.000	0.005	0.115
-219.611	376.126	0.017	0.034
-218.596	71.487	0.042	-0.043
-217.582	-128.404	-0.181	0.026
-216.567	-29.815	0.255	0.145
-215.552	800.000	-0.073	0.203
-214.538	800.000	-0.111	0.322
-213.523	208.819	0.157	0.245
-212.509	-200.000	0.040	-0.196
-211.494	488.597	0.038	0.087
-210.479	114.723	-0.060	-0.073
-209.465	800.000	-0.026	-0.089
-208.450	-120.735	-0.218	-0.037
-207.436	-68.189	-0.244	0.095
-206.421	53.834	0.139	-0.133
-205.406	800.000	0.107	0.398
-204.392	323.496	0.249	0.474
-203.377	-121.679	0.184	-0.030
-202.363	-85.539	-0.405	-0.126
-201.348	357.877	-0.267	0.533
-200.333	-200.000	-0.054	0.260
-199.319	260.077	0.111	0.191
-198.304	-200.000	0.011	0.449
-197.290	203.134	-0.088	-0.136
-196.275	-200.000	-0.009	-0.113
-195.260	-107.514	-0.325	0.071
-194.246	68.090	0.051	-0.052
-193.231	800.000	0.097	-0.294
-192.217	-49.168	0.157	-0.075
-191.202	-32.376	-0.038	-0.021
-190.187	-73.223	0.197	-0.072
-189.173	141.407	0.261	0.344
-188.158	-35.813	0.119	-0.064
-187.144	-150.187	-0.240	-0.019
-186.129	101.741	-0.188	-0.219
-185.114	-200.000	0.068	-0.349
-184.100	232.355	0.054	0.088
-183.085	-36.804	-0.283	0.152
-182.071	-107.826	0.180	0.039
-181.056	-200.000	0.050	-0.252
-180.042	800.000	-0.078	-0.232
-179.027	-200.000	0.015	-0.092
-178.012	-66.443	0.143	0.057
-176.998	-52.576	0.244	-0.112
-175.983	-149.054	-0.156	-0.013
-174.969	-200.000	-0.013	0.127
-173.954	-85.989	-0.322	0.099
-172.939	800.000	0.130	-0.361
-171.925	-145.321	-0.157	-0.014
-170.910	-44.511	-0.137	0.068
-169.896	-126.906	0.177	0.026
-168.881	-200.000	0.030	0.241
-167.866	230.126	-0.196	0.319
-166.852	5.754	-0.156	-0.115
-165.837	-200.000	0.028	-0.387
-164.823	800.000	-0.081	0.340
-163.808	-65.017	-0.198	0.080
-162.793	-3.834	0.063	0.044
-161.779	-142.874	0.107	-0.010
-160.764	-200.000	0.014	0.122
-159.750	-178.848	-0.121	0.003
-158.735	-92.468	-0.077	0.021
-157.720	800.000	-0.080	-0.338
-156.706	-31.598	-0.146	0.082
-155.691	417.965	-0.131	0.279
-154.677	137.533	0.203	-0.265
-153.662	340.881	-0.088	0.171
-152.647	287.077	0.079	-0.142
-151.633	800.000	0.009	-0.025
-150.618	800.000	0.028	-0.086
-149.604	-99.765	0.521	-0.130
-148.589	-138.807	-0.238	0.026
-147.574	-200.000	0.069	0.332
-146.560	33.700	0.108	-0.094
-145.545	-80.888	-0.199	-0.066
-144.531	2.929	0.121	-0.088
-143.516	3.405	-0.117	0.085
-142.502	-200.000	-0.014	0.165
-141.487	-51.922	-0.110	-0.051
-140.472	-190.652	0.199	-0.002
-139.458	-8.497	-0.107	0.072
-138.443	-189.425	0.302	0.004
-137.429	-95.076	0.598	0.161
-136.414	61.006	-0.058	0.058
-135.399	-200.000	-0.161	-0.001
-134.385	276.439	-0.200	-0.354
-133.370	-200.000	-0.022	-0.137
-132.356	-11.711	0.198	0.129
-131.341	179.348	-0.167	0.244
-130.326	800.000	0.034	0.096
-129.312	53.065	-0.176	0.168
-128.297	-200.000	-0.009	0.110
-127.283	39.076	-0.199	-0.178
-126.268	87.803	-0.159	0.176
-125.253	14.183	0.199	-0.155
-124.239	-170.333	0.211	0.007
-123.224	-200.000	-0.105	0.461
-122.210	699.414	-0.083	0.217
-121.195	-178.732	0.290	-0.007
-120.180	800.000	0.074	-0.236
-119.166	-102.275	-0.298	-0.071
-118.151	782.720	0.081	0.222
-117.137	800.000	-0.081	0.239
-116.122	336.306	-0.081	-0.157
-115.107	-167.360	-0.146	0.006
-114.093	-46.616	-0.189	-0.092
-113.078	16.239	-0.265	-0.208
-112.064	259.967	0.172	-0.295
-111.049	800.000	0.064	-0.239
-110.034	73.098	0.224	0.233
-109.020	1.730	-0.301	0.216
-108.005	-200.000	0.003	-0.064
-106.991	101.306	-0.151	-0.175
-105.976	49.407	0.195	0.183
-104.962	-28.845	-0.139	-0.079
-103.947	800.000	-0.044	-0.174
-102.932	-200.000	0.001	0.103
-101.918	-58.237	-0.181	0.078
-100.903	-102.925	-0.181	0.043
-99.889	800.000	-0.108	0.313
-98.874	-126.454	0.390	0.058
-97.859	146.248	-0.111	0.149
-96.845	137.775	-0.206	-0.268
-95.830	526.113	-0.084	0.197
-94.816	-46.893	0.091	-0.044
-93.801	70.480	-0.076	0.078
-92.786	32.653	-0.175	0.151
-91.772	-84.838	-0.095	0.030
-90.757	-51.764	-0.163	-0.075
-89.743	405.121	0.130	0.273
-88.728	-0.609	-0.077	-0.055
-87.713	97.602	-0.088	0.100
-86.699	100.077	0.078	-0.090
-85.684	-74.804	0.176	-0.063
-84.670	79.941	-0.076	0.081
-83.655	800.000	-0.127	-0.389
-82.640	118.955	0.042	0.051
-81.626	331.120	0.034	-0.065
-80.611	94.835	0.151	0.171
-79.597	498.336	-0.013	0.030
-78.582	-74.147	0.185	-0.067
-77.567	-2.255	0.075	0.052
-76.553	-200.000	0.012	-0.101
-75.538	51.308	-0.160	0.151
-74.524	158.655	0.069	-0.095
-73.509	-42.083	0.166	-0.084
-72.494	90.935	-0.083	0.093
-71.480	800.000	-0.036	0.113
-70.465	-200.000	0.029	-0.195
-69.451	-200.000	0.017	-0.218
-68.436	-31.145	-0.178	-0.100
-67.422	-139.315	0.311	-0.033
-66.407	95.808	-0.232	-0.263
-65.392	18.263	0.291	-0.231
-64.378	-149.322	-0.067	-0.005
-63.363	-129.298	-0.234	0.032
-62.349	-39.322	0.293	0.153
-61.334	15.021	-0.958	-0.745
-60.319	82.071	0.379	0.408
-59.305	-200.000	0.097	-1.199
-58.290	100.983	0.740	0.855
-57.276	468.199	0.576	1.283
-56.261	-200.000	97.595	580.987
-55.246	636.374	1394.593	3518.332
-54.232	183.066	2615.928	3837.644
-53.217	113.167	2339.426	2818.779
-52.203	41.784	2086.574	1878.999
-51.188	36.715	1999.349	1754.570
-50.173	35.161	1980.595	1724.071
-49.159	49.544	2032.700	1900.947
-48.144	52.725	2051.781	1947.731
-47.130	37.434	2008.746	1769.081
-46.115	34.937	1997.799	1736.732
-45.100	34.861	1994.317	1732.948
-44.086	34.796	1992.082	1730.353
-43.071	34.827	1989.363	1728.199
-42.057	34.738	1987.190	1725.445
-41.042	34.774	1985.314	1724.066
-40.027	34.817	1983.695	1722.986
-39.013	34.871	1981.160	1721.202
-37.998	34.852	1979.537	1719.550
-36.984	34.859	1977.721	1717.969
-35.969	34.873	1976.188	1716.692
-34.954	34.889	1974.199	1715.040
-33.940	34.871	1972.541	1713.372
-32.925	34.945	1971.011	1712.633
-31.911	35.041	1968.956	1711.639
-30.896	35.015	1967.302	1709.904
-29.881	34.935	1966.339	1708.284
-28.867	34.950	1964.815	1707.022
-27.852	34.984	1962.591	1705.333
-26.838	34.986	1960.535	1703.493
-25.823	35.037	1958.964	1702.511
-24.809	34.975	1957.231	1700.387
-23.794	35.044	1955.394	1699.336
-22.779	34.939	1953.700	1696.864
-21.765	34.879	1952.507	1695.232
-20.750	34.920	1950.761	1694.010
-19.736	34.917	1949.246	1692.600
-18.721	34.956	1947.535	1691.397
-17.706	35.017	1945.576	1690.161
-16.692	34.910	1944.047	1687.825
-15.677	34.944	1942.202	1686.458
-14.663	34.953	1940.826	1685.275
-13.648	34.939	1940.138	1684.485
-12.633	34.921	1938.608	1682.930
-11.619	34.958	1937.131	1681.908
-10.604	34.927	1936.218	1680.773
-9.590	34.945	1934.345	1679.244
-8.575	34.946	1933.032	1678.041
-7.560	34.949	1931.961	1677.074
-6.546	34.974	1930.334	1675.815
-5.531	34.993	1928.958	1674.719
-4.517	34.934	1928.327	1673.588
-3.502	34.976	1926.609	1672.400
-2.487	34.958	1925.370	1671.101
-1.473	34.927	1925.061	1670.497
-0.458	34.994	1920.354	1666.924
0.556	37.415	1899.591	1636.813
1.571	32.293	1877.896	1575.204
2.586	27.395	1898.297	1550.570
3.600	25.801	1933.145	1565.060
4.615	24.584	1927.030	1549.422
5.629	19.089	1825.530	1422.403
6.644	10.025	1706.622	1259.294
7.659	5.124	1668.390	1193.563
8.673	4.735	1665.279	1188.265
9.688	4.766	1663.731	1187.291
10.702	4.725	1662.858	1186.250
11.717	4.814	1659.245	1184.245
12.731	5.508	1659.512	1189.607
13.746	11.835	1674.656	1248.762
14.761	20.094	1691.961	1324.964
15.775	22.929	1695.300	1349.143
16.790	22.439	1693.566	1343.909
17.804	21.367	1690.972	1333.559
18.819	20.517	1687.082	1323.902
19.834	19.850	1684.798	1316.911
20.848	19.647	1683.562	1314.289
21.863	19.549	1682.184	1312.347
22.877	19.351	1680.779	1309.633
23.892	19.177	1679.377	1307.104
24.907	19.055	1678.959	1305.740
25.921	19.060	1677.393	1304.444
26.936	19.031	1676.583	1303.481
27.950	18.989	1675.534	1302.230
28.965	19.095	1675.140	1302.609
29.980	19.059	1674.192	1301.488
30.994	19.257	1673.244	1302.133
32.009	19.337	1672.003	1301.652
33.023	19.438	1670.804	1301.366
34.038	19.423	1670.692	1301.054
35.053	19.487	1668.689	1299.861
36.067	19.310	1667.520	1297.503
37.082	19.227	1666.758	1296.166
38.096	19.198	1665.794	1295.085
39.111	19.246	1665.367	1294.998
40.126	19.359	1664.094	1294.747
41.140	19.371	1663.112	1293.956
42.155	19.164	1661.744	1291.226
43.169	18.891	1660.281	1287.930
44.184	18.794	1659.040	1286.121
45.199	18.737	1657.939	1284.732
46.213	18.796	1656.954	1284.294
47.228	18.926	1655.743	1284.217
48.242	19.013	1655.227	1284.349
49.257	19.103	1654.114	1284.043
50.271	19.170	1652.919	1283.506
51.286	19.107	1651.092	1281.500
52.301	19.124	1649.807	1280.516
53.315	19.176	1648.241	1279.573
54.330	19.025	1647.503	1277.769
55.344	19.040	1645.030	1275.851
56.359	18.807	1643.687	1272.968
57.374	18.925	1642.614	1272.894
58.388	19.005	1641.444	1272.466
59.403	18.892	1640.463	1270.757
60.417	18.786	1639.252	1268.929
61.432	18.794	1637.908	1267.833
62.447	18.747	1636.695	1266.438
63.461	18.627	1635.854	1264.789
64.476	18.546	1634.572	1263.090
65.490	18.554	1633.484	1262.198
66.505	18.483	1632.293	1260.641
67.520	18.576	1631.328	1260.465
68.534	18.622	1630.117	1259.758
69.549	18.630	1629.178	1258.982
70.563	18.628	1628.130	1258.046
71.578	18.627	1626.311	1256.520
72.593	18.574	1625.619	1255.487
73.607	18.542	1624.610	1254.358
74.622	18.314	1623.845	1251.995
75.636	18.420	1622.483	1251.605
76.651	18.486	1621.525	1251.241
77.666	18.419	1621.307	1250.470
78.680	18.505	1620.323	1250.226
79.695	18.635	1619.335	1250.304
80.709	18.572	1619.055	1249.517
81.724	18.669	1618.287	1249.519
82.739	18.783	1617.276	1249.461
83.753	18.867	1616.520	1249.377
84.768	19.031	1615.750	1249.860
85.782	19.130	1615.172	1250.020
86.797	19.343	1614.106	1250.633
87.812	19.261	1613.671	1249.591
88.826	19.293	1612.033	1248.439
89.841	19.165	1610.658	1246.336
90.855	19.177	1610.200	1245.960
91.870	19.285	1609.023	1245.722
92.884	19.368	1608.210	1245.581
93.899	19.288	1607.401	1244.270
94.914	19.389	1605.545	1243.449
95.928	19.293	1605.047	1242.263
96.943	19.400	1603.339	1241.599
97.957	19.325	1602.170	1240.046
98.972	19.244	1600.591	1238.134
99.987	19.265	1598.876	1236.842
101.001	19.222	1597.168	1235.105
102.016	19.249	1595.642	1234.008
103.030	19.238	1595.145	1233.435
104.045	19.310	1593.444	1232.525
105.060	19.226	1592.477	1231.067
106.074	19.193	1590.762	1229.399
107.089	19.070	1589.043	1227.083
108.103	18.761	1587.346	1223.469
109.118	18.590	1585.623	1220.812
110.133	18.562	1584.516	1219.656
111.147	18.582	1583.352	1218.789
112.162	18.655	1581.727	1217.949
113.176	18.660	1580.054	1216.594
114.191	18.854	1578.606	1216.741
115.206	18.764	1577.892	1215.444
116.220	18.846	1576.727	1215.023
117.235	18.853	1575.177	1213.771
118.249	18.826	1573.938	1212.518
119.264	18.777	1572.699	1211.112
120.279	18.662	1571.158	1209.006
121.293	18.597	1569.770	1207.373
122.308	18.659	1567.695	1206.107
123.322	18.511	1566.390	1203.955
124.337	18.452	1564.996	1202.361
125.352	18.430	1563.589	1201.021
126.366	18.418	1562.252	1199.803
127.381	18.442	1561.332	1199.161
128.395	18.520	1559.956	1198.540
129.410	18.511	1558.970	1197.616
130.424	18.467	1557.476	1196.058
131.439	18.506	1556.535	1195.501
132.454	18.614	1555.548	1195.390
133.468	18.719	1554.248	1195.018
134.483	18.809	1552.444	1194.150
135.497	18.758	1551.469	1192.937
136.512	18.917	1549.867	1192.700
137.527	18.785	1548.850	1190.898
138.541	18.880	1547.198	1190.182
139.556	18.876	1546.133	1189.231
140.570	18.946	1544.624	1188.449
141.585	19.061	1543.001	1187.888
142.600	19.169	1542.058	1187.799
143.614	19.227	1541.276	1187.494
144.629	19.320	1540.025	1187.065
145.643	19.364	1538.778	1186.305
146.658	19.343	1537.933	1185.404
147.673	19.260	1536.331	1183.492
148.687	19.150	1534.462	1181.190
149.702	19.026	1533.028	1179.133
150.716	19.007	1530.719	1177.123
151.731	18.947	1529.466	1175.647
152.746	18.844	1528.592	1174.164
153.760	18.900	1527.160	1173.345
154.775	18.894	1526.221	1172.478
155.789	19.028	1524.893	1172.268
156.804	19.143	1523.691	1172.021
157.819	19.165	1522.598	1171.226
158.833	19.211	1521.429	1170.537
159.848	19.246	1520.341	1169.838
160.862	19.311	1519.609	1169.611
161.877	19.336	1518.775	1169.037
162.892	19.324	1516.693	1167.248
163.906	19.100	1515.144	1164.433
164.921	18.949	1514.123	1162.526
165.935	18.871	1513.232	1161.217
166.950	18.948	1511.907	1160.616
167.964	19.104	1510.713	1160.647
168.979	19.063	1510.242	1159.908
169.994	19.094	1508.827	1158.924
171.008	19.008	1507.845	1157.488
172.023	19.043	1506.819	1156.833
173.037	19.070	1505.857	1156.178
174.052	19.266	1504.784	1156.564
175.067	19.346	1503.451	1155.977
176.081	19.150	1502.109	1153.527
177.096	18.943	1500.756	1150.999
178.110	18.829	1499.764	1149.375
179.125	18.986	1498.343	1149.231
180.140	19.052	1497.352	1148.814
181.154	19.036	1496.648	1148.064
182.169	19.205	1495.020	1147.842
183.183	19.255	1494.482	1147.661
184.198	19.385	1493.629	1147.767
185.213	19.385	1492.616	1146.889
186.227	19.414	1491.724	1146.290
187.242	19.406	1490.822	1145.445
188.256	19.453	1489.628	1144.738
189.271	19.578	1488.688	1144.744
190.286	19.569	1488.070	1144.107
191.300	19.451	1487.063	1142.448
192.315	19.190	1485.457	1139.389
193.329	18.898	1483.452	1135.821
194.344	18.884	1482.292	1134.744
195.359	19.026	1481.095	1134.662
196.373	19.051	1480.580	1134.334
197.388	19.209	1479.415	1134.375
198.402	19.295	1478.914	1134.461
199.417	19.484	1477.926	1134.845
200.432	19.668	1476.859	1135.133
201.446	19.713	1476.138	1134.774
202.461	19.697	1475.481	1134.062
203.475	19.815	1474.457	1133.947
204.490	19.943	1473.256	1133.762
205.504	19.867	1471.966	1132.174
206.519	19.668	1470.557	1129.688
207.534	19.574	1469.575	1128.221
208.548	19.464	1468.695	1126.725
209.563	19.479	1467.387	1125.723
210.577	19.463	1466.588	1124.902
211.592	19.569	1465.190	1124.427
212.607	19.525	1464.817	1123.754
213.621	19.613	1464.861	1124.257
214.636	19.806	1463.579	1124.431
215.650	19.762	1462.372	1123.117
216.665	19.678	1461.337	1121.680
217.680	19.752	1460.894	1121.718
218.694	19.977	1460.073	1122.447
219.709	19.915	1459.533	1121.532
220.723	19.943	1458.435	1120.771
221.738	19.885	1457.302	1119.422
222.753	19.933	1455.824	1118.500
223.767	19.861	1455.095	1117.379
224.782	19.860	1454.206	1116.588
225.796	19.863	1453.537	1115.998
226.811	19.973	1452.765	1116.011
227.826	20.092	1451.952	1116.058
228.840	20.071	1451.142	1115.200
229.855	19.791	1450.154	1112.539
230.869	19.773	1448.834	1111.317
231.884	19.835	1447.672	1110.723
232.899	19.833	1446.565	1109.762
233.913	19.753	1445.205	1108.111
234.928	19.684	1443.969	1106.619
235.942	19.545	1442.917	1104.824
236.957	19.653	1441.002	1103.956
237.972	19.579	1440.589	1103.067
238.986	19.640	1439.519	1102.538
240.001	19.683	1438.217	1101.718
241.015	19.633	1437.372	1100.656
242.030	19.730	1436.159	1100.248
243.045	19.731	1435.377	1099.553
244.059	19.767	1434.888	1099.314
245.074	19.931	1433.852	1099.464
246.088	19.963	1433.057	1098.963
247.103	19.911	1432.336	1097.979
248.117	19.956	1431.913	1097.846
249.132	20.172	1430.900	1098.339
250.147	20.235	1430.456	1098.296
251.161	20.416	1430.221	1099.170
252.176	20.644	1429.516	1099.968
253.190	20.670	1429.372	1099.926
254.205	20.665	1427.991	1098.733
255.220	20.783	1427.331	1098.875
256.234	20.907	1425.978	1098.520
257.249	20.811	1425.523	1097.467
258.263	20.727	1424.763	1096.255
259.278	20.864	1423.697	1096.198
260.293	20.790	1422.601	1094.790
261.307	20.728	1422.103	1093.922
262.322	20.797	1421.744	1093.981
263.336	20.784	1421.548	1093.651
264.351	20.828	1419.635	1092.362
265.366	20.942	1418.764	1092.305
266.380	20.894	1418.019	1091.337
267.395	20.914	1417.291	1090.804
268.409	20.891	1415.892	1089.492
269.424	20.828	1414.773	1088.140
270.439	20.713	1413.639	1086.450
271.453	20.782	1412.238	1085.712
272.468	20.710	1411.923	1084.920
273.482	20.601	1410.975	1083.420
274.497	20.554	1410.210	1082.439
275.512	20.603	1409.220	1081.892
276.526	20.665	1408.252	1081.441
277.541	20.535	1407.421	1079.898
278.555	20.559	1406.534	1079.272
279.570	20.631	1405.924	1079.153
280.585	20.716	1404.889	1078.788
281.599	20.848	1404.653	1079.331
282.614	21.009	1403.439	1079.298
283.628	21.009	1401.832	1077.966
284.643	20.771	1400.808	1075.614
285.657	20.720	1399.493	1074.196
286.672	20.732	1398.840	1073.674
287.687	20.705	1398.159	1072.888
288.701	20.809	1397.157	1072.669
289.716	20.785	1396.382	1071.830
290.730	20.742	1395.748	1070.980
291.745	20.822	1394.415	1070.355
292.760	20.756	1393.480	1069.141
293.774	20.883	1392.296	1068.917
294.789	20.865	1391.700	1068.252
295.803	20.963	1391.120	1068.311
296.818	21.050	1390.458	1068.240
297.833	20.986	1388.966	1066.610
298.847	20.797	1387.928	1064.565
299.862	20.779	1387.144	1063.759
300.876	20.901	1385.962	1063.504
301.891	20.830	1385.178	1062.375
302.906	21.021	1383.822	1062.404
303.920	21.013	1383.690	1062.157
304.935	21.142	1383.552	1062.742
305.949	21.243	1382.340	1062.333
306.964	21.287	1382.002	1062.245
307.979	21.450	1380.662	1062.112
308.993	21.427	1379.534	1061.011
310.008	21.274	1378.558	1059.239
311.022	21.278	1377.878	1058.646
312.037	21.314	1376.882	1058.007
313.052	21.386	1375.625	1057.383
314.066	21.286	1374.655	1055.939
315.081	21.185	1373.415	1054.284
316.095	21.026	1372.156	1052.267
317.110	20.965	1371.062	1050.965
318.125	20.897	1370.147	1049.759
319.139	20.895	1369.605	1049.239
320.154	20.962	1368.592	1048.776
321.168	20.925	1367.590	1047.695
322.183	20.908	1366.727	1046.834
323.197	21.050	1365.417	1046.589
324.212	21.074	1364.673	1046.072
325.227	21.086	1364.229	1045.713
326.241	21.074	1363.179	1044.740
327.256	21.034	1362.655	1044.009
328.270	21.076	1361.660	1043.403
329.285	21.027	1360.584	1042.197
330.300	20.911	1360.070	1041.015
331.314	21.052	1358.982	1040.934
332.329	20.976	1358.163	1039.763
333.343	21.013	1357.369	1039.282
334.358	21.179	1356.335	1039.384
335.373	21.154	1355.648	1038.621
336.387	21.291	1355.121	1038.937
337.402	21.250	1354.547	1038.166
338.416	21.420	1353.555	1038.319
339.431	21.354	1353.213	1037.576
340.446	21.447	1352.552	1037.527
341.460	21.463	1351.056	1036.381
342.475	21.629	1350.469	1036.821
343.489	21.742	1349.608	1036.737
344.504	21.820	1348.700	1036.410
345.519	21.923	1347.337	1035.882
346.533	21.882	1346.837	1035.162
347.548	21.892	1346.338	1034.747
348.562	21.977	1345.680	1034.648
349.577	21.957	1344.888	1033.830
350.592	21.856	1343.821	1032.329
351.606	21.684	1342.409	1030.140
352.621	21.575	1341.239	1028.510
353.635	21.435	1340.495	1027.023
354.650	21.355	1339.194	1025.468
355.665	21.428	1338.405	1025.203
356.679	21.440	1337.114	1024.190
357.694	21.546	1336.037	1023.897
358.708	21.691	1335.215	1024.021
359.723	21.689	1334.174	1023.121
360.738	21.799	1333.320	1023.020
361.752	21.721	1332.661	1021.971
362.767	21.662	1331.409	1020.573
363.781	21.777	1330.190	1020.221
364.796	21.804	1329.501	1019.756
365.810	21.813	1329.070	1019.390
366.825	21.970	1328.229	1019.567
367.840	21.878	1328.531	1019.174
368.854	22.124	1327.571	1019.772
369.869	22.218	1326.958	1019.757
370.883	22.280	1326.268	1019.499
371.898	22.214	1325.164	1018.175
372.913	22.141	1324.387	1017.065
373.927	21.962	1323.310	1015.113
374.942	22.041	1322.476	1014.844
375.956	22.113	1321.825	1014.666
376.971	22.182	1321.267	1014.545
377.986	22.203	1319.802	1013.456
379.000	22.255	1319.202	1013.202
380.015	22.243	1319.208	1013.048
381.029	22.319	1318.018	1012.480
382.044	22.399	1317.682	1012.597
383.059	22.325	1317.163	1011.683
384.073	22.472	1316.103	1011.622
385.088	22.351	1315.650	1010.488
386.102	22.352	1315.044	1009.941
387.117	22.400	1314.403	1009.636
388.132	22.308	1312.817	1007.798
389.146	22.171	1312.386	1006.594
390.161	22.247	1311.216	1006.044
391.175	21.999	1310.480	1003.973
392.190	22.106	1310.001	1004.128
393.205	22.070	1309.049	1003.102
394.219	22.266	1308.325	1003.579
395.234	22.345	1307.156	1003.045
396.248	22.418	1305.302	1001.946
397.263	22.069	1304.358	999.149
398.278	22.217	1302.802	998.707
399.292	22.202	1301.500	997.539
400.307	22.116	1299.900	995.738
401.321	21.908	1299.118	993.874
402.336	22.002	1298.220	993.631
403.350	21.914	1297.315	992.348
404.365	21.985	1296.802	992.273
405.380	22.092	1295.648	991.902
406.394	22.134	1294.980	991.542
407.409	22.186	1294.159	991.122
408.423	22.184	1293.845	990.781
409.438	22.412	1293.153	991.445
410.453	22.542	1292.778	991.802
411.467	22.507	1291.991	990.913
412.482	22.605	1291.359	990.890
413.496	22.699	1290.469	990.651
414.511	22.734	1290.091	990.469
415.526	22.754	1289.130	989.757
416.540	22.845	1288.705	989.850
417.555	22.966	1288.043	989.934
418.569	23.049	1287.513	989.903
419.584	22.966	1286.795	988.801
420.599	22.733	1286.415	987.117
421.613	144.448	1430.888	1789.955
422.628	139.440	1451.908	1790.082
