DTS Sentinel unit serial number:	SN413079Multiplexer serial number:	ORYXHardware model number:	OX4-SRSoftware version number:	ORYX F/W v4.00 Oryx Data Collector v3.7.2.0data status	okinstallation	princeton_trtdifferential loss correction	single-endedforward channel	channel 4reverse channel	N/Adate	2019/09/16time	12:57:35forward acquisition time	60.00reverse acquisition time	0.00gamma	496.2192k internal	0.2291k external	0.2291temperature offset calibration	0.9943default loss term (dB/km)	0.3790temperature slope calibration	1.0000multiplexer offset coefficient	1.0000multiplexer slope coefficient	1.0000fibre end	0.00T internal ref (°C)	40.50T ext. ref 1 (°C)	13.56T ext. ref 2 (°C)	37.47length (m)	temperature (°C)	Stokes	anti-Stokes-747.200	150.792	0.084	0.117
-746.185	42.365	0.123	0.115
-745.171	-200.000	0.090	0.560
-744.156	227.915	-0.213	0.354
-743.142	364.003	-0.135	-0.279
-742.127	50.887	-0.142	0.138
-741.112	-195.254	-0.115	-0.001
-740.098	-133.751	0.219	-0.028
-739.083	-90.368	-0.193	0.057
-738.069	-200.000	-0.093	0.594
-737.054	180.739	-0.181	-0.272
-736.039	289.862	0.029	0.054
-735.025	-44.216	-0.288	0.148
-734.010	-2.599	-0.267	0.192
-732.996	632.481	-0.097	-0.253
-731.981	-200.000	-0.021	-0.152
-730.966	-200.000	-0.019	0.155
-729.952	-93.220	0.069	-0.020
-728.937	-1.957	-0.065	0.047
-727.923	2.339	0.046	0.034
-726.908	35.880	-0.139	0.125
-725.894	-76.292	-0.405	-0.146
-724.879	-200.000	0.049	-0.361
-723.864	36.227	-0.210	0.190
-722.850	-50.890	0.271	0.131
-721.835	602.556	-0.134	-0.342
-720.821	-54.529	0.085	-0.040
-719.806	800.000	-0.070	0.232
-718.791	800.000	-0.051	0.172
-717.777	800.000	0.038	0.130
-716.762	35.939	0.082	-0.074
-715.748	612.534	0.083	0.213
-714.733	-95.189	-0.205	0.056
-713.718	-170.573	-0.161	0.006
-712.704	48.550	0.161	-0.155
-711.689	-5.906	-0.089	-0.062
-710.675	800.000	-0.072	0.250
-709.660	800.000	0.069	0.235
-708.645	23.341	0.142	0.120
-707.631	277.937	0.224	-0.408
-706.616	167.055	0.199	0.289
-705.602	800.000	-0.074	-0.228
-704.587	332.842	-0.089	-0.177
-703.572	-2.955	0.051	-0.036
-702.558	-81.975	-0.352	0.118
-701.543	-200.000	0.048	0.264
-700.529	800.000	0.035	0.120
-699.514	493.876	-0.155	-0.363
-698.499	-200.000	0.006	0.089
-697.485	-18.986	0.164	0.105
-696.470	21.557	-0.188	0.156
-695.456	-59.411	0.214	0.094
-694.441	-164.190	0.034	-0.002
-693.426	-42.604	0.318	-0.166
-692.412	355.722	0.020	-0.040
-691.397	-200.000	-0.026	0.213
-690.383	-126.375	-0.314	-0.048
-689.368	56.159	0.260	-0.258
-688.354	-200.000	0.054	-0.252
-687.339	44.665	0.258	0.243
-686.324	800.000	0.102	0.316
-685.310	47.352	-0.177	0.169
-684.295	-200.000	-0.006	0.062
-683.281	-200.000	-0.011	0.144
-682.266	147.740	-0.069	0.095
-681.251	57.350	0.142	-0.141
-680.237	-194.022	-0.139	-0.001
-679.222	-37.713	-0.412	-0.224
-678.208	159.790	0.170	-0.242
-677.193	-66.035	0.048	0.020
-676.178	800.000	0.045	-0.167
-675.164	120.698	-0.376	-0.477
-674.149	-136.865	0.164	-0.019
-673.135	121.578	0.094	0.119
-672.120	137.380	0.205	0.273
-671.105	58.122	0.152	-0.152
-670.091	-38.968	-0.099	0.053
-669.076	-161.270	0.178	0.009
-668.062	-113.375	0.185	-0.037
-667.047	-53.006	-0.230	-0.108
-666.032	769.500	-0.061	0.171
-665.018	311.291	0.084	0.162
-664.003	800.000	0.141	-0.402
-662.989	5.149	-0.232	-0.174
-661.974	48.095	0.052	0.050
-660.959	267.215	0.093	0.167
-659.945	-200.000	-0.015	0.208
-658.930	137.332	-0.065	-0.086
-657.916	800.000	0.061	0.184
-656.901	-67.055	0.300	-0.121
-655.886	800.000	0.092	-0.284
-654.872	-104.605	0.207	0.049
-653.857	-200.000	0.038	0.288
-652.843	-39.492	-0.316	0.169
-651.828	-200.000	-0.007	-0.375
-650.814	-70.804	0.131	-0.051
-649.799	15.713	-0.152	0.122
-648.784	-115.024	-0.171	-0.033
-647.770	-1.062	-0.196	0.142
-646.755	113.395	-0.058	0.072
-645.741	174.958	0.043	0.064
-644.726	107.689	-0.089	0.109
-643.711	-200.000	0.028	0.220
-642.697	-93.070	0.263	0.075
-641.682	145.595	0.189	-0.258
-640.668	62.663	-0.108	0.110
-639.653	-200.000	-0.052	0.246
-638.638	436.007	-0.069	-0.153
-637.624	-90.367	0.189	-0.056
-636.609	800.000	0.021	0.078
-635.595	-92.470	-0.129	-0.037
-634.580	234.737	0.151	-0.254
-633.565	-200.000	-0.092	0.709
-632.551	67.164	-0.068	-0.071
-631.536	-62.309	0.171	0.073
-630.522	0.028	0.093	0.067
-629.507	-50.586	0.103	0.050
-628.492	-96.397	-0.063	-0.017
-627.478	-9.995	-0.272	-0.184
-626.463	800.000	-0.047	0.164
-625.449	-139.720	-0.630	0.068
-624.434	-96.718	0.146	0.039
-623.419	-37.024	0.231	-0.126
-622.405	623.909	0.110	-0.282
-621.390	146.196	0.116	-0.159
-620.376	-158.610	0.084	-0.005
-619.361	199.846	0.100	0.156
-618.346	-72.814	-0.266	-0.100
-617.332	-14.169	-0.223	0.146
-616.317	137.607	0.101	0.135
-615.303	-167.639	0.260	-0.011
-614.288	-78.129	0.061	-0.021
-613.273	800.000	0.036	-0.161
-612.259	67.366	-0.248	0.258
-611.244	-71.056	-0.093	-0.036
-610.230	-94.852	-0.235	-0.065
-609.215	-7.948	-0.068	-0.047
-608.201	800.000	-0.105	0.378
-607.186	-102.422	0.018	0.004
-606.171	231.026	0.127	0.212
-605.157	-156.585	-0.324	0.020
-604.142	-200.000	-0.015	-0.106
-603.128	-200.000	-0.010	-0.100
-602.113	207.034	-0.015	0.024
-601.098	482.750	0.058	0.135
-600.084	128.928	-0.162	0.210
-599.069	633.783	0.031	0.080
-598.055	-52.234	-0.324	0.153
-597.040	-42.831	-0.162	-0.084
-596.025	-131.759	0.235	0.031
-595.011	-200.000	-0.013	-0.094
-593.996	-200.000	0.016	-0.160
-592.982	-200.000	0.060	-0.302
-591.967	800.000	-0.060	0.177
-590.952	-120.307	0.303	-0.053
-589.938	329.897	0.105	0.205
-588.923	48.184	-0.232	0.221
-587.909	-200.000	-0.024	0.158
-586.894	566.991	-0.036	-0.089
-585.879	443.618	-0.071	0.159
-584.865	223.776	-0.110	0.181
-583.850	-140.942	0.136	0.014
-582.836	-52.384	-0.097	-0.046
-581.821	16.714	0.230	-0.185
-580.806	33.909	-0.073	-0.064
-579.792	-107.798	-0.170	0.038
-578.777	24.976	0.150	-0.127
-577.763	373.426	-0.087	-0.181
-576.748	101.642	-0.178	0.211
-575.733	-118.656	0.208	0.037
-574.719	-44.386	-0.165	-0.084
-573.704	188.815	-0.146	0.223
-572.690	-30.561	0.114	-0.066
-571.675	800.000	-0.013	0.057
-570.661	29.846	-0.216	0.187
-569.646	-106.520	0.256	0.058
-568.631	-102.987	-0.349	-0.084
-567.617	800.000	0.104	-0.308
-566.602	-10.188	-0.116	-0.079
-565.588	-56.727	-0.076	-0.034
-564.573	323.033	0.160	0.310
-563.558	800.000	-0.088	-0.351
-562.544	-200.000	0.015	0.098
-561.529	800.000	-0.098	-0.385
-560.515	-200.000	0.003	-0.172
-559.500	386.809	-0.169	0.354
-558.485	260.120	0.076	0.133
-557.471	26.874	-0.100	-0.085
-556.456	76.705	0.126	-0.136
-555.442	-200.000	-0.057	0.380
-554.427	-76.481	-0.241	-0.086
-553.412	-200.000	0.053	-0.267
-552.398	100.694	0.132	-0.156
-551.383	236.571	-0.019	0.032
-550.369	-200.000	-0.026	0.189
-549.354	-90.296	-0.228	-0.067
-548.339	-29.118	-0.308	-0.179
-547.325	-200.000	-0.022	0.137
-546.310	174.965	0.092	0.135
-545.296	-69.255	0.165	0.064
-544.281	-200.000	0.056	0.375
-543.266	292.990	0.063	0.116
-542.252	-58.987	-0.187	0.082
-541.237	190.498	0.113	0.173
-540.223	-6.847	-0.040	0.028
-539.208	99.659	-0.081	-0.095
-538.193	-32.698	-0.075	0.043
-537.179	27.938	-0.087	0.075
-536.164	-111.936	0.233	0.048
-535.150	-200.000	-0.063	0.375
-534.135	45.054	0.107	-0.100
-533.121	-90.840	-0.511	-0.150
-532.106	16.937	-0.179	0.144
-531.091	-86.860	-0.058	0.018
-530.077	-45.926	-0.152	0.076
-529.062	-200.000	0.049	-0.223
-528.048	87.129	-0.153	0.171
-527.033	219.525	0.121	-0.197
-526.018	-154.401	-0.248	-0.017
-525.004	-200.000	-0.002	0.012
-523.989	-91.357	0.107	0.031
-522.975	246.832	-0.082	-0.141
-521.960	20.698	-0.129	-0.106
-520.945	46.504	0.078	-0.073
-519.931	-200.000	0.069	-0.355
-518.916	-151.335	0.157	-0.012
-517.902	-200.000	0.021	-0.228
-516.887	86.415	0.129	0.145
-515.872	-31.593	-0.211	0.120
-514.858	-190.084	0.349	0.004
-513.843	401.880	0.088	-0.188
-512.829	-5.809	-0.221	0.153
-511.814	-200.000	-0.034	0.302
-510.799	-200.000	-0.064	-0.000
-509.785	106.801	0.140	-0.169
-508.770	-61.419	0.293	0.125
-507.756	66.303	0.197	-0.203
-506.741	94.011	-0.162	-0.187
-505.726	313.403	-0.126	0.241
-504.712	-146.044	-0.140	0.013
-503.697	-5.280	0.156	0.109
-502.683	800.000	0.049	-0.139
-501.668	-104.777	-0.249	-0.058
-500.653	800.000	0.101	0.300
-499.639	-62.053	-0.440	0.186
-498.624	-99.823	-0.306	-0.078
-497.610	-72.697	0.296	-0.111
-496.595	-117.260	-0.092	0.017
-495.581	-71.782	0.216	0.082
-494.566	-200.000	0.042	0.314
-493.551	-200.000	-0.076	-0.446
-492.537	-180.843	0.134	0.003
-491.522	-16.678	0.133	-0.085
-490.508	76.561	-0.180	-0.193
-489.493	185.544	0.065	-0.098
-488.478	800.000	-0.026	-0.079
-487.464	-200.000	-0.004	-0.220
-486.449	-200.000	0.031	-0.229
-485.435	-11.501	-0.105	-0.070
-484.420	800.000	-0.010	-0.038
-483.405	-156.235	0.188	-0.012
-482.391	-200.000	-0.009	-0.060
-481.376	97.756	0.098	-0.115
-480.362	-129.374	0.106	-0.015
-479.347	-200.000	-0.016	-0.071
-478.332	800.000	-0.056	-0.230
-477.318	-179.292	-0.205	0.005
-476.303	-51.894	-0.093	0.044
-475.289	258.492	0.019	0.034
-474.274	2.186	0.370	-0.271
-473.259	298.809	0.174	-0.324
-472.245	146.069	0.167	-0.227
-471.230	-96.131	-0.123	0.033
-470.216	99.773	0.158	-0.185
-469.201	166.080	0.135	0.194
-468.186	-168.135	0.476	-0.019
-467.172	800.000	-0.047	0.190
-466.157	210.299	0.107	0.170
-465.143	800.000	0.036	-0.124
-464.128	-31.498	0.159	0.091
-463.113	476.248	-0.235	0.538
-462.099	-22.934	0.125	0.076
-461.084	-56.610	0.265	-0.119
-460.070	800.000	0.059	-0.217
-459.055	-48.469	-0.285	-0.139
-458.040	281.634	0.057	-0.103
-457.026	-200.000	0.076	-0.390
-456.011	-148.968	0.531	-0.043
-454.997	-111.328	-0.362	-0.075
-453.982	75.434	-0.102	0.109
-452.968	-57.000	0.157	0.070
-451.953	343.387	0.067	-0.133
-450.938	272.872	0.128	0.229
-449.924	53.409	-0.129	0.125
-448.909	800.000	0.075	-0.224
-447.895	291.313	0.146	0.269
-446.880	391.064	0.051	-0.106
-445.865	-135.229	-0.069	-0.008
-444.851	16.699	0.150	-0.120
-443.836	-71.613	-0.153	0.058
-442.822	282.587	-0.240	0.435
-441.807	-200.000	-0.036	-0.286
-440.792	-32.637	-0.068	-0.038
-439.778	-133.581	-0.064	0.008
-438.763	-200.000	-0.017	0.142
-437.749	-176.197	0.259	-0.007
-436.734	-10.450	0.108	-0.072
-435.719	-30.126	-0.104	0.060
-434.705	-101.087	0.140	0.035
-433.690	306.238	0.155	0.293
-432.676	-15.560	0.138	0.089
-431.661	800.000	-0.089	-0.254
-430.646	255.191	0.145	-0.250
-429.632	360.551	0.182	-0.369
-428.617	38.097	-0.034	-0.031
-427.603	-3.453	-0.099	-0.070
-426.588	-200.000	0.030	0.311
-425.573	-200.000	-0.003	-0.236
-424.559	-200.000	-0.062	-0.315
-423.544	526.597	-0.071	-0.169
-422.530	397.074	-0.256	-0.542
-421.515	71.177	0.029	-0.030
-420.500	225.428	-0.098	-0.161
-419.486	-150.728	0.242	0.019
-418.471	375.457	0.129	0.266
-417.457	12.943	0.255	0.199
-416.442	-200.000	-0.025	0.629
-415.428	-200.000	0.034	0.252
-414.413	-120.682	0.144	0.025
-413.398	-45.093	0.207	-0.104
-412.384	-94.549	0.228	-0.063
-411.369	-103.266	-0.110	-0.026
-410.355	-200.000	-0.007	0.266
-409.340	68.100	0.105	-0.109
-408.325	683.644	-0.149	0.393
-407.311	280.064	-0.140	0.253
-406.296	20.043	-0.107	-0.087
-405.282	65.110	0.115	-0.118
-404.267	-86.635	0.153	-0.047
-403.252	-15.290	-0.227	-0.146
-402.238	4.944	0.129	-0.096
-401.223	-200.000	-0.012	0.056
-400.209	490.236	-0.035	0.081
-399.194	-200.000	0.044	0.240
-398.179	60.569	-0.222	0.222
-397.165	800.000	-0.088	-0.349
-396.150	-179.712	0.326	0.007
-395.136	126.553	0.138	-0.176
-394.121	300.615	0.151	-0.281
-393.106	768.898	-0.131	0.361
-392.092	-54.097	0.021	-0.009
-391.077	300.485	0.142	0.265
-390.063	529.634	0.114	-0.271
-389.048	-30.191	-0.168	-0.096
-388.033	-200.000	-0.010	0.060
-387.019	26.028	-0.057	-0.048
-386.004	96.505	-0.203	-0.234
-384.990	800.000	-0.044	0.136
-383.975	71.734	0.071	-0.075
-382.960	-90.479	0.143	0.042
-381.946	26.226	0.209	-0.176
-380.931	30.542	-0.184	0.159
-379.917	-200.000	-0.046	-0.368
-378.902	-54.497	-0.212	-0.097
-377.888	-195.988	-0.188	0.001
-376.873	668.432	0.052	-0.135
-375.858	366.045	0.108	0.221
-374.844	-42.315	0.175	0.090
-373.829	142.670	-0.093	-0.125
-372.815	36.811	-0.107	-0.095
-371.800	-69.382	0.233	-0.090
-370.785	-200.000	-0.016	0.088
-369.771	-33.471	-0.147	-0.082
-368.756	600.543	0.082	-0.206
-367.742	175.257	0.084	-0.122
-366.727	223.647	-0.041	-0.067
-365.712	-66.299	0.286	0.115
-364.698	-200.000	-0.009	0.142
-363.683	-135.523	-0.222	-0.027
-362.669	202.327	-0.175	-0.272
-361.654	-200.000	0.040	0.365
-360.639	-113.429	0.104	0.021
-359.625	103.090	0.187	-0.221
-358.610	-78.027	-0.218	0.076
-357.596	105.001	-0.243	-0.290
-356.581	-200.000	-0.036	0.226
-355.566	-36.225	-0.173	0.094
-354.552	800.000	-0.007	-0.026
-353.537	-200.000	-0.022	0.160
-352.523	111.159	-0.126	0.154
-351.508	135.991	0.206	0.271
-350.493	-11.575	0.112	-0.074
-349.479	-105.394	0.203	0.047
-348.464	-34.851	0.340	-0.187
-347.450	-200.000	-0.003	0.034
-346.435	-87.971	0.045	-0.014
-345.420	333.666	0.066	0.130
-344.406	-200.000	0.030	0.191
-343.391	138.535	-0.123	-0.163
-342.377	352.203	0.072	0.145
-341.362	417.082	-0.077	0.166
-340.348	57.223	-0.089	-0.087
-339.333	-117.587	-0.336	-0.061
-338.318	301.322	0.174	-0.324
-337.304	28.321	0.179	0.152
-336.289	-126.235	0.152	0.023
-335.275	220.705	0.086	-0.140
-334.260	-51.571	-0.325	0.153
-333.245	695.903	-0.077	-0.203
-332.231	-200.000	-0.031	-0.226
-331.216	800.000	0.055	-0.209
-330.202	197.265	-0.084	0.129
-329.187	10.475	-0.219	0.168
-328.172	347.350	0.088	-0.175
-327.158	590.824	0.100	-0.248
-326.143	-118.489	-0.217	0.039
-325.129	-61.529	-0.290	-0.123
-324.114	800.000	0.115	0.393
-323.099	800.000	0.049	-0.167
-322.085	-59.733	0.204	0.088
-321.070	125.289	0.076	-0.097
-320.056	800.000	0.142	0.597
-319.041	-86.962	0.212	-0.065
-318.026	-159.402	0.280	-0.016
-317.012	18.672	0.010	-0.008
-315.997	-11.769	0.069	0.045
-314.983	306.459	0.052	0.098
-313.968	800.000	0.047	0.163
-312.953	-28.092	0.170	-0.099
-311.939	228.091	0.111	-0.182
-310.924	42.554	0.167	0.153
-309.910	-82.850	0.274	0.089
-308.895	-200.000	0.020	-0.334
-307.880	-68.772	0.270	0.105
-306.866	142.973	0.280	0.375
-305.851	-181.382	-0.132	0.003
-304.837	-44.682	-0.113	-0.057
-303.822	-200.000	-0.012	0.238
-302.807	-200.000	-0.025	0.182
-301.793	33.543	-0.242	-0.212
-300.778	323.771	-0.192	-0.368
-299.764	-33.871	0.092	0.051
-298.749	232.511	-0.140	0.231
-297.735	10.472	-0.069	-0.053
-296.720	-101.893	0.314	-0.076
-295.705	-23.581	0.215	-0.130
-294.691	-200.000	0.031	0.242
-293.676	148.551	-0.060	-0.081
-292.662	-143.597	-0.142	-0.014
-291.647	-117.109	-0.265	-0.049
-290.632	-163.254	-0.271	0.013
-289.618	54.198	0.085	0.082
-288.603	-14.379	0.193	-0.125
-287.589	-60.755	-0.250	0.106
-286.574	-13.453	-0.177	-0.116
-285.559	-200.000	0.014	-0.241
-284.545	-162.316	0.210	-0.011
-283.530	-200.000	0.013	-0.298
-282.516	-200.000	-0.060	-0.349
-281.501	-23.000	-0.420	-0.255
-280.486	-119.821	0.310	-0.054
-279.472	-200.000	-0.012	0.113
-278.457	800.000	0.072	0.227
-277.443	6.246	-0.344	-0.257
-276.428	-26.042	0.086	-0.051
-275.413	-125.023	0.315	0.049
-274.399	9.327	0.163	-0.124
-273.384	-69.589	-0.217	-0.083
-272.370	105.323	0.020	-0.023
-271.355	8.492	0.223	-0.169
-270.340	-200.000	-0.044	-0.307
-269.326	-120.077	-0.338	-0.058
-268.311	-90.501	0.296	-0.086
-267.297	-110.670	-0.520	0.108
-266.282	206.748	-0.086	0.135
-265.267	106.441	0.088	0.105
-264.253	170.860	0.073	-0.105
-263.238	800.000	-0.030	-0.104
-262.224	-47.185	-0.093	0.046
-261.209	800.000	0.114	-0.373
-260.195	800.000	0.028	0.084
-259.180	183.944	-0.194	0.289
-258.165	403.256	-0.155	-0.327
-257.151	113.795	-0.088	-0.107
-256.136	-102.839	-0.054	-0.013
-255.122	261.837	0.036	0.062
-254.107	217.550	-0.164	0.263
-253.092	-53.803	0.231	-0.106
-252.078	-110.215	0.313	-0.066
-251.063	176.581	-0.111	-0.163
-250.049	229.040	0.128	0.210
-249.034	-16.480	0.277	0.176
-248.019	391.745	-0.084	-0.176
-247.005	100.870	-0.133	-0.155
-245.990	137.433	-0.092	-0.120
-244.976	-88.293	-0.291	-0.087
-243.961	132.602	0.123	0.159
-242.946	-200.000	-0.004	-0.129
-241.932	-181.277	-0.299	0.006
-240.917	14.794	-0.074	0.058
-239.903	-42.014	-0.243	0.125
-238.888	7.832	-0.093	0.070
-237.873	-196.228	0.233	-0.002
-236.859	35.921	0.127	0.112
-235.844	-97.757	0.268	0.070
-234.830	212.899	-0.244	0.386
-233.815	33.710	0.046	0.040
-232.800	261.397	0.104	0.180
-231.786	-80.306	-0.228	0.077
-230.771	740.658	0.149	-0.402
-229.757	-62.064	-0.231	0.097
-228.742	-108.100	-0.243	-0.053
-227.727	-56.681	0.144	0.064
-226.713	-200.000	0.007	-0.145
-225.698	-58.980	-0.441	0.191
-224.684	-200.000	0.044	0.226
-223.669	496.247	0.068	0.157
-222.655	109.216	0.095	0.114
-221.640	410.609	0.138	0.293
-220.625	-200.000	0.013	-0.064
-219.611	59.503	0.015	0.015
-218.596	800.000	-0.044	-0.132
-217.582	-200.000	-0.022	-0.116
-216.567	-27.413	0.102	-0.059
-215.552	-200.000	-0.023	0.226
-214.538	-200.000	-0.003	0.408
-213.523	104.916	0.155	-0.184
-212.509	-147.365	-0.182	-0.015
-211.494	-200.000	-0.033	-0.307
-210.479	-64.570	-0.294	0.120
-209.465	800.000	-0.123	-0.422
-208.450	-119.782	-0.306	-0.053
-207.436	-200.000	-0.008	0.079
-206.421	-72.601	-0.051	0.019
-205.406	434.486	-0.175	-0.381
-204.392	141.878	0.145	-0.192
-203.377	-200.000	0.093	0.437
-202.363	642.668	-0.131	0.336
-201.348	-98.579	0.182	-0.047
-200.333	-6.612	-0.187	0.127
-199.319	380.812	0.109	0.223
-198.304	-200.000	-0.065	-0.289
-197.290	101.465	-0.104	0.122
-196.275	578.107	0.113	0.276
-195.260	178.387	0.127	0.186
-194.246	800.000	-0.093	-0.327
-193.231	-200.000	-0.015	0.251
-192.217	38.798	0.270	0.241
-191.202	-59.241	-0.090	-0.039
-190.187	190.001	0.147	-0.222
-189.173	-55.015	0.431	0.194
-188.158	216.033	-0.135	0.215
-187.144	-200.000	-0.021	0.158
-186.129	-179.681	-0.066	0.001
-185.114	40.197	0.306	-0.276
-184.100	800.000	-0.079	-0.236
-183.085	27.108	0.152	0.128
-182.071	-17.855	0.089	-0.056
-181.056	-200.000	-0.006	0.241
-180.042	-63.547	0.201	-0.083
-179.027	-78.084	-0.395	-0.136
-178.012	-178.670	0.088	0.002
-176.998	109.606	0.190	-0.228
-175.983	800.000	-0.080	-0.308
-174.969	-155.437	0.551	0.036
-173.954	147.898	0.062	0.084
-172.939	117.187	-0.120	0.147
-171.925	-178.050	-0.216	0.005
-170.910	-85.354	-0.370	-0.116
-169.896	73.312	-0.179	0.187
-168.881	-62.435	-0.193	0.080
-167.866	-16.682	-0.207	-0.131
-166.852	169.620	0.189	-0.271
-165.837	-200.000	0.065	0.367
-164.823	-143.769	0.072	0.007
-163.808	-42.239	0.373	-0.191
-162.793	268.819	-0.038	-0.067
-161.779	-200.000	0.027	-0.136
-160.764	10.834	0.210	0.160
-159.750	76.687	0.170	0.180
-158.735	800.000	0.067	0.246
-157.720	149.973	-0.042	-0.057
-156.706	-50.133	-0.415	-0.196
-155.691	68.171	0.153	-0.157
-154.677	69.879	0.230	0.237
-153.662	-200.000	0.037	0.273
-152.647	26.912	-0.160	-0.134
-151.633	-135.183	0.061	0.007
-150.618	-11.653	-0.146	0.096
-149.604	7.881	-0.147	-0.110
-148.589	-200.000	-0.076	0.401
-147.574	485.743	-0.132	-0.301
-146.560	53.401	0.138	0.133
-145.545	67.578	0.319	0.326
-144.531	800.000	0.062	0.194
-143.516	-200.000	-0.019	-0.313
-142.502	-52.690	-0.183	0.084
-141.487	-153.948	0.420	-0.029
-140.472	800.000	0.048	-0.183
-139.458	2.088	0.087	0.063
-138.443	145.396	0.189	-0.253
-137.429	800.000	0.071	-0.226
-136.414	-200.000	0.027	-0.215
-135.399	-200.000	-0.035	-0.254
-134.385	-167.179	-0.318	0.013
-133.370	-29.290	-0.218	0.125
-132.356	-200.000	-0.034	0.246
-131.341	-135.151	-0.163	-0.020
-130.326	-200.000	0.019	0.233
-129.312	149.290	-0.230	0.311
-128.297	-173.856	0.070	-0.002
-127.283	-69.068	0.240	-0.092
-126.268	800.000	-0.182	0.529
-125.253	-200.000	0.024	0.267
-124.239	-68.618	-0.279	0.108
-123.224	77.477	-0.201	-0.213
-122.210	-157.699	0.169	-0.010
-121.195	54.007	0.111	0.106
-120.180	-185.441	-0.427	0.007
-119.166	-98.380	-0.051	-0.013
-118.151	-51.753	0.200	0.093
-117.137	800.000	0.096	0.316
-116.122	755.724	-0.109	-0.294
-115.107	692.508	0.077	0.201
-114.093	-12.317	0.138	-0.090
-113.078	-9.808	-0.180	0.120
-112.064	386.660	-0.115	0.237
-111.049	227.329	0.069	0.112
-110.034	-22.133	-0.079	0.048
-109.020	120.980	-0.194	0.241
-108.005	598.972	0.087	-0.216
-106.991	-133.454	0.087	-0.011
-105.976	800.000	0.134	0.473
-104.962	-8.354	0.052	-0.035
-103.947	-58.716	-0.053	-0.023
-102.932	-200.000	-0.083	0.000
-101.918	110.751	-0.365	-0.438
-100.903	174.563	0.151	0.219
-99.889	-106.612	-0.255	0.057
-98.874	800.000	-0.043	-0.162
-97.859	-61.758	0.039	-0.016
-96.845	-12.318	-0.276	0.180
-95.830	-78.959	0.198	0.067
-94.816	63.166	-0.073	-0.073
-93.801	-200.000	0.002	-0.052
-92.786	-200.000	0.002	-0.503
-91.772	310.214	0.127	0.237
-90.757	73.999	-0.080	0.083
-89.743	-26.236	-0.072	0.042
-88.728	401.177	-0.063	0.131
-87.713	-200.000	0.187	-0.000
-86.699	800.000	0.112	-0.322
-85.684	302.487	0.111	-0.204
-84.670	-152.114	-0.299	-0.022
-83.655	-150.839	-0.364	-0.028
-82.640	800.000	0.132	0.479
-81.626	-200.000	0.010	0.228
-80.611	-96.645	-0.228	0.060
-79.597	349.549	0.032	-0.064
-78.582	800.000	0.082	0.282
-77.567	289.929	0.178	0.322
-76.553	74.356	0.217	0.227
-75.538	-98.184	-0.008	0.002
-74.524	-47.340	-0.185	0.090
-73.509	29.645	-0.056	0.047
-72.494	-96.147	0.193	-0.051
-71.480	-6.294	-0.103	0.070
-70.465	-200.000	-0.025	0.168
-69.451	115.332	-0.041	-0.051
-68.436	-107.806	-0.283	-0.062
-67.422	-28.737	0.344	-0.197
-66.407	86.670	0.088	-0.097
-65.392	-79.300	0.420	-0.142
-64.378	-176.215	-0.140	0.004
-63.363	-46.370	-0.110	-0.054
-62.349	-76.464	0.147	0.051
-61.334	17.730	-0.746	-0.592
-60.319	-7.713	0.602	0.406
-59.305	-200.000	0.212	-1.017
-58.290	-46.417	0.447	0.219
-57.276	800.000	0.572	1.745
-56.261	-200.000	76.814	516.855
-55.246	504.502	1340.515	3093.466
-54.232	140.738	2600.050	3424.333
-53.217	106.194	2406.477	2841.473
-52.203	47.242	2142.172	1988.243
-51.188	42.267	2046.528	1853.559
-50.173	40.594	2026.893	1820.369
-49.159	52.669	2065.815	1967.242
-48.144	57.133	2085.747	2027.450
-47.130	43.259	2050.004	1865.590
-46.115	40.556	2038.963	1830.563
-45.100	40.463	2035.992	1826.969
-44.086	40.394	2033.751	1824.245
-43.071	40.367	2031.096	1821.548
-42.057	40.283	2028.888	1818.724
-41.042	40.352	2026.999	1817.586
-40.027	40.353	2024.905	1815.650
-39.013	40.451	2023.024	1814.786
-37.998	40.419	2021.232	1812.812
-36.984	40.455	2018.792	1810.880
-35.969	40.356	2017.428	1808.687
-34.954	40.502	2015.219	1807.962
-33.940	40.439	2013.996	1806.216
-32.925	40.546	2011.784	1805.143
-31.911	40.503	2010.479	1803.502
-30.896	40.577	2008.382	1802.228
-29.881	40.548	2007.077	1800.724
-28.867	40.627	2004.904	1799.411
-27.852	40.640	2003.352	1798.071
-26.838	40.508	2001.214	1794.887
-25.823	40.521	1999.061	1793.000
-24.809	40.575	1997.009	1791.571
-23.794	40.519	1996.074	1790.163
-22.779	40.568	1994.094	1788.750
-21.765	40.525	1992.191	1786.585
-20.750	40.436	1990.723	1784.401
-19.736	40.470	1989.157	1783.228
-18.721	40.481	1987.721	1781.977
-17.706	40.500	1986.210	1780.719
-16.692	40.463	1984.149	1778.463
-15.677	40.519	1981.955	1776.930
-14.663	40.505	1980.813	1775.715
-13.648	40.491	1979.860	1774.664
-12.633	40.558	1977.987	1773.509
-11.619	40.475	1976.619	1771.472
-10.604	40.468	1975.658	1770.477
-9.590	40.493	1974.408	1769.512
-8.575	40.580	1972.444	1768.453
-7.560	40.546	1971.395	1767.148
-6.546	40.495	1970.312	1765.652
-5.531	40.505	1968.923	1764.423
-4.517	40.542	1967.403	1763.323
-3.502	40.545	1966.149	1762.156
-2.487	40.547	1964.985	1761.058
-1.473	40.520	1964.181	1760.030
-0.458	40.660	1959.847	1757.315
0.556	38.347	1940.846	1732.390
1.571	34.325	1919.961	1678.261
2.586	29.783	1941.055	1655.989
3.600	28.279	1978.050	1673.669
4.615	26.905	1973.973	1657.525
5.629	23.165	1876.190	1542.738
6.644	17.323	1760.367	1399.435
7.659	13.990	1721.663	1341.680
8.673	13.598	1718.046	1335.578
9.688	13.659	1716.880	1335.052
10.702	13.638	1714.575	1332.965
11.717	13.356	1712.381	1328.878
12.731	13.738	1712.026	1331.552
13.746	17.663	1720.336	1369.502
14.761	20.761	1725.331	1398.281
15.775	19.153	1719.347	1380.423
16.790	17.219	1713.224	1359.920
17.804	15.944	1710.604	1347.528
18.819	14.827	1706.921	1335.583
19.834	14.281	1703.891	1328.740
20.848	13.790	1702.691	1323.767
21.863	13.530	1700.503	1319.877
22.877	13.247	1699.260	1316.544
23.892	13.026	1697.825	1313.555
24.907	12.827	1696.579	1310.898
25.921	12.886	1695.442	1310.373
26.936	12.918	1694.471	1309.761
27.950	12.946	1693.647	1309.230
28.965	13.076	1692.768	1309.467
29.980	13.065	1692.035	1308.692
30.994	13.073	1691.444	1308.186
32.009	13.179	1689.996	1307.783
33.023	13.207	1688.886	1307.033
34.038	13.214	1688.199	1306.444
35.053	13.172	1687.138	1305.174
36.067	13.194	1685.078	1303.641
37.082	13.112	1684.339	1302.305
38.096	13.130	1683.319	1301.539
39.111	13.208	1682.290	1301.244
40.126	13.205	1681.193	1300.256
41.140	13.236	1680.233	1299.646
42.155	13.073	1679.202	1297.451
43.169	12.912	1677.840	1295.019
44.184	12.997	1676.222	1294.323
45.199	12.915	1675.391	1292.924
46.213	12.824	1674.223	1291.194
47.228	12.913	1673.580	1291.280
48.242	12.988	1671.982	1290.519
49.257	13.076	1670.907	1290.268
50.271	13.097	1669.312	1289.084
51.286	13.004	1668.658	1287.737
52.301	13.086	1667.098	1287.064
53.315	13.119	1665.375	1285.871
54.330	13.045	1663.983	1284.108
55.344	13.006	1662.681	1282.684
56.359	12.957	1660.822	1280.762
57.374	12.981	1660.123	1280.289
58.388	12.966	1658.944	1279.156
59.403	12.976	1657.271	1277.829
60.417	12.945	1655.977	1276.477
61.432	12.824	1655.008	1274.685
62.447	12.846	1653.871	1273.865
63.461	12.894	1652.774	1273.276
64.476	12.802	1651.928	1271.799
65.490	12.810	1650.653	1270.770
66.505	12.794	1649.346	1269.530
67.520	12.918	1648.269	1269.543
68.534	12.926	1647.194	1268.664
69.549	12.906	1646.125	1267.570
70.563	12.905	1644.846	1266.469
71.578	12.912	1643.201	1265.141
72.593	12.895	1642.733	1264.543
73.607	12.731	1641.948	1262.571
74.622	12.702	1640.598	1261.196
75.636	12.695	1639.913	1260.501
76.651	12.749	1638.312	1259.573
77.666	12.819	1637.567	1259.425
78.680	12.745	1636.649	1258.040
79.695	12.758	1635.759	1257.346
80.709	12.843	1635.146	1257.415
81.724	12.779	1634.350	1256.199
82.739	12.819	1633.334	1255.612
83.753	12.958	1632.157	1255.654
84.768	12.959	1631.421	1254.986
85.782	13.074	1630.511	1255.049
86.797	13.098	1629.900	1254.654
87.812	13.104	1628.678	1253.647
88.826	13.029	1627.527	1252.082
89.841	13.043	1626.098	1250.976
90.855	13.027	1625.646	1250.393
91.870	13.015	1624.504	1249.318
92.884	12.995	1623.363	1248.177
93.899	13.086	1622.103	1247.787
94.914	13.079	1620.931	1246.723
95.928	13.188	1619.772	1246.539
96.943	13.201	1618.622	1245.643
97.957	13.110	1617.083	1243.666
98.972	13.186	1615.194	1242.670
99.987	13.100	1614.319	1241.239
101.001	13.139	1611.982	1239.632
102.016	13.120	1610.437	1238.190
103.030	13.108	1609.364	1237.167
104.045	13.067	1608.175	1235.832
105.060	13.113	1606.843	1235.047
106.074	13.114	1604.943	1233.483
107.089	12.961	1604.030	1231.529
108.103	12.949	1602.021	1229.785
109.118	12.873	1600.168	1227.693
110.133	12.844	1599.048	1226.509
111.147	12.859	1597.730	1225.498
112.162	12.959	1596.398	1225.115
113.176	12.877	1595.549	1223.744
114.191	12.914	1594.120	1222.816
115.206	12.974	1592.709	1222.067
116.220	12.994	1591.530	1221.204
117.235	12.912	1590.210	1219.477
118.249	12.977	1588.635	1218.641
119.264	12.921	1587.757	1217.442
120.279	12.979	1586.259	1216.617
121.293	12.997	1584.739	1215.477
122.308	12.909	1583.155	1213.506
123.322	12.817	1581.795	1211.682
124.337	12.934	1579.969	1211.032
125.352	12.979	1578.948	1210.477
126.366	12.921	1577.449	1208.793
127.381	12.944	1576.352	1208.016
128.395	12.834	1576.073	1206.884
129.410	12.964	1573.841	1206.024
130.424	12.915	1572.831	1204.784
131.439	12.898	1571.600	1203.613
132.454	12.974	1570.068	1202.884
133.468	13.010	1568.794	1202.060
134.483	13.079	1567.032	1201.109
135.497	13.064	1565.980	1200.090
136.512	12.940	1565.183	1198.468
137.527	13.133	1563.499	1198.473
138.541	13.100	1562.206	1197.135
139.556	13.108	1560.929	1196.113
140.570	13.027	1559.700	1194.477
141.585	13.106	1558.203	1193.794
142.600	13.218	1556.741	1193.379
143.614	13.190	1555.593	1192.189
144.629	13.160	1554.577	1191.089
145.643	13.304	1552.843	1190.693
146.658	13.339	1551.816	1190.051
147.673	13.307	1550.039	1188.357
148.687	13.307	1548.399	1186.991
149.702	13.189	1547.362	1185.248
150.716	13.089	1545.699	1183.151
151.731	13.142	1544.077	1182.188
152.746	13.141	1542.982	1181.239
153.760	13.248	1541.238	1180.557
154.775	13.132	1540.552	1179.100
155.789	13.221	1539.399	1178.747
156.804	13.284	1537.618	1177.727
157.819	13.250	1536.361	1176.418
158.833	13.382	1534.847	1176.094
159.848	13.346	1533.942	1175.040
160.862	13.420	1532.803	1174.594
161.877	13.427	1531.750	1173.730
162.892	13.455	1529.988	1172.474
163.906	13.279	1529.028	1170.392
164.921	13.149	1528.102	1168.654
165.935	13.263	1526.497	1168.132
166.950	13.198	1525.705	1166.966
167.964	13.318	1524.696	1166.937
168.979	13.322	1523.437	1165.896
169.994	13.363	1522.597	1165.443
171.008	13.305	1521.674	1164.225
172.023	13.377	1520.585	1163.791
173.037	13.357	1519.787	1162.940
174.052	13.460	1517.844	1162.074
175.067	13.510	1517.013	1161.684
176.081	13.453	1515.975	1160.384
177.096	13.413	1514.617	1158.961
178.110	13.339	1513.165	1157.234
179.125	13.322	1512.462	1156.475
180.140	13.386	1510.854	1155.590
181.154	13.424	1510.141	1155.207
182.169	13.448	1509.120	1154.492
183.183	13.458	1507.784	1153.436
184.198	13.482	1506.713	1152.680
185.213	13.510	1505.554	1151.890
186.227	13.553	1504.579	1151.342
187.242	13.631	1503.266	1150.774
188.256	13.628	1502.081	1149.744
189.271	13.714	1501.035	1149.437
190.286	13.755	1499.640	1148.552
191.300	13.609	1499.216	1147.114
192.315	13.493	1497.634	1145.001
193.329	13.330	1496.585	1142.969
194.344	13.350	1495.325	1142.046
195.359	13.483	1494.175	1141.985
196.373	13.527	1493.440	1141.623
197.388	13.533	1492.513	1140.853
198.402	13.561	1491.227	1139.968
199.417	13.549	1490.446	1139.185
200.432	13.678	1488.888	1138.776
201.446	13.738	1488.131	1138.509
202.461	13.796	1487.224	1138.116
203.475	13.845	1485.924	1137.355
204.490	13.859	1484.940	1136.594
205.504	13.898	1483.410	1135.590
206.519	13.841	1482.419	1134.340
207.534	13.790	1481.249	1133.000
208.548	13.781	1479.834	1131.752
209.563	13.701	1479.078	1130.529
210.577	13.813	1477.860	1130.265
211.592	13.859	1476.921	1129.761
212.607	13.833	1476.460	1129.128
213.621	13.869	1476.192	1129.071
214.636	14.014	1474.822	1128.903
215.650	13.920	1473.956	1127.506
216.665	13.978	1472.876	1126.973
217.680	13.955	1472.382	1126.342
218.694	14.118	1471.318	1126.531
219.709	13.977	1470.872	1125.133
220.723	14.075	1469.277	1124.479
221.738	13.985	1468.757	1123.368
222.753	14.044	1467.611	1122.790
223.767	14.061	1466.706	1122.115
224.782	14.095	1465.843	1121.590
225.796	14.100	1464.593	1120.563
226.811	14.197	1463.912	1120.600
227.826	14.176	1463.540	1120.074
228.840	14.209	1461.986	1119.009
229.855	14.222	1461.202	1118.393
230.869	14.110	1460.541	1117.035
231.884	14.131	1459.718	1116.451
232.899	14.160	1458.263	1115.430
233.913	14.118	1456.767	1113.906
234.928	14.132	1455.559	1112.983
235.942	14.118	1454.352	1111.864
236.957	14.085	1453.207	1110.668
237.972	14.085	1452.000	1109.647
238.986	14.125	1450.778	1108.883
240.001	14.192	1450.292	1108.860
241.015	14.214	1448.958	1107.889
242.030	14.176	1448.019	1106.817
243.045	14.217	1446.896	1106.134
244.059	14.190	1446.312	1105.413
245.074	14.262	1445.263	1104.990
246.088	14.340	1444.241	1104.627
247.103	14.253	1443.881	1103.678
248.117	14.319	1443.215	1103.509
249.132	14.324	1442.041	1102.546
250.147	14.344	1441.500	1102.169
251.161	14.494	1440.923	1102.620
252.176	14.567	1440.390	1102.601
253.190	14.606	1439.329	1101.945
254.205	14.623	1438.471	1101.309
255.220	14.701	1437.650	1101.091
256.234	14.670	1436.774	1100.119
257.249	14.688	1435.754	1099.361
258.263	14.705	1435.064	1098.845
259.278	14.660	1434.218	1097.807
260.293	14.678	1432.635	1096.618
261.307	14.685	1431.872	1095.981
262.322	14.796	1431.676	1096.462
263.336	14.882	1430.508	1096.036
264.351	14.831	1429.717	1094.999
265.366	14.869	1428.624	1094.312
266.380	14.807	1428.346	1093.595
267.395	14.903	1427.243	1093.286
268.409	14.907	1426.108	1092.342
269.424	14.905	1425.108	1091.469
270.439	14.824	1423.945	1089.949
271.453	14.839	1423.113	1089.316
272.468	14.933	1421.736	1088.776
273.482	14.921	1421.445	1088.381
274.497	14.836	1420.612	1087.091
275.512	14.912	1419.338	1086.514
276.526	14.885	1418.632	1085.702
277.541	14.834	1417.824	1084.656
278.555	14.872	1416.683	1083.935
279.570	14.964	1415.751	1083.722
280.585	15.006	1414.574	1082.995
281.599	14.978	1414.111	1082.366
282.614	15.061	1413.311	1082.198
283.628	15.057	1412.014	1081.082
284.643	15.068	1410.803	1080.127
285.657	14.869	1409.951	1078.099
286.672	15.000	1409.081	1078.184
287.687	15.099	1408.216	1078.060
288.701	15.061	1407.196	1076.943
289.716	15.146	1405.932	1076.424
290.730	15.057	1405.767	1075.629
291.745	15.148	1404.097	1074.843
292.760	15.019	1403.696	1073.612
293.774	15.094	1402.779	1073.295
294.789	15.178	1401.313	1072.618
295.803	15.141	1400.776	1071.878
296.818	15.211	1399.920	1071.572
297.833	15.135	1399.083	1070.356
298.847	15.089	1397.898	1069.055
299.862	15.061	1397.022	1068.115
300.876	15.208	1395.756	1067.989
301.891	15.171	1394.889	1066.997
302.906	15.323	1393.857	1067.077
303.920	15.308	1393.298	1066.462
304.935	15.333	1392.348	1065.798
305.949	15.457	1391.499	1065.844
306.964	15.410	1390.981	1065.049
307.979	15.472	1389.958	1064.568
308.993	15.467	1388.987	1063.699
310.008	15.467	1388.232	1063.027
311.022	15.430	1387.020	1061.767
312.037	15.490	1386.451	1061.618
313.052	15.527	1385.039	1060.680
314.066	15.522	1384.356	1060.027
315.081	15.428	1383.261	1058.506
316.095	15.455	1382.001	1057.616
317.110	15.386	1381.183	1056.463
318.125	15.528	1379.559	1056.018
319.139	15.456	1379.268	1055.249
320.154	15.487	1377.951	1054.347
321.168	15.476	1377.435	1053.785
322.183	15.446	1376.202	1052.565
323.197	15.354	1375.685	1051.495
324.212	15.509	1374.431	1051.416
325.227	15.485	1374.119	1050.932
326.241	15.517	1373.077	1050.243
327.256	15.552	1372.132	1049.651
328.270	15.610	1370.898	1048.975
329.285	15.518	1370.386	1047.914
330.300	15.530	1369.150	1046.953
331.314	15.542	1368.439	1046.388
332.329	15.562	1367.524	1045.722
333.343	15.497	1366.971	1044.800
334.358	15.650	1365.318	1044.400
335.373	15.705	1364.660	1044.144
336.387	15.730	1364.070	1043.756
337.402	15.767	1362.979	1043.057
338.416	15.739	1362.340	1042.301
339.431	15.681	1362.262	1041.788
340.446	15.734	1361.312	1041.302
341.460	15.796	1360.234	1040.766
342.475	15.804	1359.243	1039.969
343.489	15.890	1358.216	1039.618
344.504	15.932	1357.122	1038.947
345.519	15.873	1356.405	1037.944
346.533	15.962	1355.668	1037.839
347.548	15.975	1354.607	1037.014
348.562	16.000	1353.640	1036.337
349.577	15.994	1353.271	1035.924
350.592	16.030	1352.475	1035.442
351.606	15.972	1351.298	1034.095
352.621	15.959	1349.948	1032.892
353.635	15.896	1349.020	1031.702
354.650	15.825	1348.560	1030.826
355.665	15.938	1347.304	1030.465
356.679	15.913	1346.343	1029.487
357.694	15.989	1345.064	1028.880
358.708	16.031	1343.688	1027.994
359.723	16.081	1342.938	1027.636
360.738	16.052	1341.731	1026.442
361.752	16.029	1340.991	1025.648
362.767	16.151	1339.788	1025.375
363.781	16.093	1339.183	1024.469
364.796	16.075	1338.792	1023.969
365.810	16.096	1337.611	1023.104
366.825	16.163	1337.055	1022.996
367.840	16.170	1336.341	1022.402
368.854	16.205	1335.515	1021.890
369.869	16.267	1335.072	1021.840
370.883	16.332	1334.298	1021.549
371.898	16.390	1333.392	1021.111
372.913	16.286	1332.570	1019.767
373.927	16.247	1331.879	1018.910
374.942	16.258	1330.911	1018.150
375.956	16.368	1329.909	1017.953
376.971	16.431	1329.198	1017.696
377.986	16.429	1328.444	1017.020
379.000	16.502	1327.512	1016.652
380.015	16.407	1326.516	1015.229
381.029	16.519	1325.973	1015.396
382.044	16.475	1325.380	1014.589
383.059	16.543	1324.694	1014.385
384.073	16.501	1324.375	1013.794
385.088	16.521	1323.408	1013.090
386.102	16.517	1323.064	1012.707
387.117	16.712	1322.000	1012.970
388.132	16.591	1321.191	1011.542
389.146	16.601	1319.812	1010.456
390.161	16.455	1319.276	1009.082
391.175	16.459	1318.753	1008.619
392.190	16.514	1318.331	1008.531
393.205	16.595	1316.641	1007.635
394.219	16.645	1315.920	1007.290
395.234	16.746	1314.297	1006.557
396.248	16.561	1313.371	1004.662
397.263	16.659	1312.186	1004.250
398.278	16.701	1310.657	1003.237
399.292	16.756	1309.404	1002.518
400.307	16.669	1308.493	1001.215
401.321	16.570	1307.876	1000.069
402.336	16.587	1306.564	999.076
403.350	16.642	1305.195	998.270
404.365	16.668	1304.557	997.845
405.380	16.604	1303.254	996.385
406.394	16.594	1303.269	996.245
407.409	16.690	1302.355	996.023
408.423	16.777	1301.880	996.088
409.438	16.764	1301.006	995.253
410.453	16.919	1300.213	995.469
411.467	16.866	1299.236	994.317
412.482	16.922	1299.025	994.401
413.496	16.925	1298.265	993.746
414.511	17.072	1297.523	993.953
415.526	17.045	1296.371	992.822
416.540	17.034	1295.769	992.211
417.555	17.064	1295.066	991.759
418.569	17.072	1294.317	991.147
419.584	17.039	1294.242	990.810
420.599	16.992	1293.640	989.981
421.613	79.466	1328.396	1376.261
422.628	78.558	1333.470	1376.384
