DTS Sentinel unit serial number:	SN413079Multiplexer serial number:	ORYXHardware model number:	OX4-SRSoftware version number:	ORYX F/W v4.00 Oryx Data Collector v3.7.2.0data status	okinstallation	princeton_trtdifferential loss correction	single-endedforward channel	channel 4reverse channel	N/Adate	2019/09/15time	11:21:34forward acquisition time	60.00reverse acquisition time	0.00gamma	496.2192k internal	0.2298k external	0.2298temperature offset calibration	1.0017default loss term (dB/km)	0.3790temperature slope calibration	1.0000multiplexer offset coefficient	1.0000multiplexer slope coefficient	1.0000fibre end	0.00T internal ref (°C)	34.30T ext. ref 1 (°C)	5.03T ext. ref 2 (°C)	29.53length (m)	temperature (°C)	Stokes	anti-Stokes-747.200	128.556	-0.050	0.065
-746.185	103.026	-0.158	0.189
-745.171	199.327	-0.206	0.323
-744.156	-200.000	0.024	0.211
-743.142	-113.386	-0.145	-0.029
-742.127	-158.150	-0.375	-0.022
-741.112	-145.930	-0.410	-0.037
-740.098	-133.186	-0.419	0.054
-739.083	-200.000	-0.033	-0.335
-738.069	-200.000	0.014	0.446
-737.054	-103.113	-0.092	-0.022
-736.039	-200.000	-0.022	-0.237
-735.025	13.018	0.350	0.276
-734.010	800.000	-0.058	0.183
-732.996	-52.838	0.065	-0.031
-731.981	791.629	0.083	0.232
-730.966	-200.000	0.002	-0.081
-729.952	269.504	-0.173	-0.310
-728.937	-26.632	0.100	-0.060
-727.923	-91.435	0.178	-0.052
-726.908	68.072	-0.059	-0.062
-725.894	-95.747	0.056	-0.015
-724.879	21.539	-0.205	-0.170
-723.864	800.000	0.042	-0.170
-722.850	-120.695	-0.324	-0.056
-721.835	323.941	-0.079	-0.154
-720.821	54.177	-0.123	-0.121
-719.806	-13.346	-0.127	-0.084
-718.791	158.066	-0.193	0.273
-717.777	-73.266	0.125	0.047
-716.762	246.880	0.124	0.214
-715.748	-82.967	-0.095	0.031
-714.733	58.554	0.181	-0.182
-713.718	-52.754	-0.424	0.199
-712.704	-12.528	0.136	0.091
-711.689	-72.902	0.287	0.107
-710.675	-11.080	0.142	0.096
-709.660	-100.969	0.125	-0.031
-708.645	-53.061	-0.315	0.147
-707.631	151.269	-0.096	-0.134
-706.616	302.369	-0.047	0.089
-705.602	406.323	0.060	-0.128
-704.587	-200.000	-0.101	-0.453
-703.572	800.000	-0.099	-0.290
-702.558	-57.291	-0.225	-0.101
-701.543	78.140	0.081	0.088
-700.529	-155.434	0.271	-0.018
-699.514	-131.117	-0.096	0.013
-698.499	-10.480	0.180	0.122
-697.485	-76.688	-0.039	-0.014
-696.470	800.000	0.070	-0.298
-695.456	-136.350	-0.099	0.012
-694.441	329.195	0.093	0.183
-693.426	-157.959	0.048	0.003
-692.412	268.153	-0.144	-0.256
-691.397	-200.000	-0.014	-0.513
-690.383	152.612	-0.114	0.159
-689.368	67.197	0.057	0.059
-688.354	-85.854	-0.129	0.041
-687.339	104.132	-0.139	-0.166
-686.324	66.482	-0.120	0.124
-685.310	778.630	0.086	-0.239
-684.295	65.450	0.180	0.185
-683.281	-200.000	0.000	-0.136
-682.266	-74.060	0.071	-0.026
-681.251	-22.802	0.064	0.039
-680.237	180.838	0.062	-0.093
-679.222	75.355	0.237	0.254
-678.208	130.767	-0.235	0.307
-677.193	-109.290	0.478	0.103
-676.178	-6.219	-0.362	-0.252
-675.164	-77.090	-0.110	0.039
-674.149	206.787	-0.042	0.067
-673.135	-49.793	0.230	0.111
-672.120	-23.104	-0.371	0.228
-671.105	400.592	-0.041	0.088
-670.091	144.980	0.074	-0.100
-669.076	-39.055	0.130	0.070
-668.062	-108.660	-0.427	-0.093
-667.047	-98.155	0.343	0.090
-666.032	-27.301	-0.052	0.031
-665.018	-150.634	0.117	-0.009
-664.003	-91.881	-0.112	-0.032
-662.989	201.314	-0.114	-0.178
-661.974	144.912	-0.213	-0.289
-660.959	-56.940	0.161	-0.072
-659.945	-200.000	-0.005	0.548
-658.930	427.957	0.127	0.278
-657.916	-105.021	-0.423	0.099
-656.901	-200.000	0.040	-0.298
-655.886	-91.156	-0.202	0.059
-654.872	-125.549	-0.269	0.042
-653.857	-200.000	-0.031	-0.139
-652.843	182.113	-0.134	-0.200
-651.828	-200.000	-0.036	0.163
-650.814	163.054	-0.279	-0.399
-649.799	-38.568	-0.220	0.118
-648.784	-80.963	0.326	-0.110
-647.770	-11.512	-0.040	-0.027
-646.755	217.269	-0.143	0.231
-645.741	21.897	-0.209	0.174
-644.726	800.000	0.047	0.198
-643.711	-200.000	-0.488	-0.000
-642.697	5.779	0.072	0.054
-641.682	-139.857	-0.367	-0.040
-640.668	-200.000	0.031	-0.146
-639.653	343.099	0.137	-0.272
-638.638	-187.444	-0.431	0.006
-637.624	-114.257	-0.410	-0.080
-636.609	119.267	0.069	0.087
-635.595	-200.000	0.001	0.166
-634.580	-200.000	0.043	0.337
-633.565	96.998	-0.096	0.112
-632.551	170.634	0.081	-0.118
-631.536	-4.404	0.119	-0.084
-630.522	317.768	-0.145	-0.280
-629.507	-104.636	0.242	-0.057
-628.492	90.602	0.113	-0.129
-627.478	115.896	-0.253	-0.314
-626.463	-200.000	0.044	0.268
-625.449	-200.000	0.024	-0.135
-624.434	-36.497	-0.082	0.045
-623.419	623.400	0.132	-0.339
-622.405	-200.000	0.006	-0.091
-621.390	800.000	-0.051	-0.178
-620.376	-72.247	-0.063	-0.024
-619.361	-12.246	0.233	-0.155
-618.346	800.000	0.051	-0.189
-617.332	603.212	0.130	0.328
-616.317	-76.086	-0.121	0.043
-615.303	-153.548	0.189	0.013
-614.288	727.564	-0.112	0.304
-613.273	105.832	-0.077	0.092
-612.259	-85.073	0.227	0.072
-611.244	604.638	-0.147	0.371
-610.230	79.802	0.277	0.302
-609.215	89.932	0.216	0.245
-608.201	170.994	-0.083	-0.120
-607.186	296.948	0.062	-0.115
-606.171	91.970	0.050	0.057
-605.157	-97.494	-0.350	0.092
-604.142	800.000	-0.101	-0.336
-603.128	498.997	0.111	0.260
-602.113	-53.512	-0.208	0.096
-601.098	-102.587	0.303	-0.073
-600.084	-12.359	0.254	-0.169
-599.069	-200.000	-0.042	-0.238
-598.055	-200.000	-0.008	-0.182
-597.040	409.085	0.103	0.222
-596.025	90.719	0.251	-0.286
-595.011	-28.971	-0.337	-0.197
-593.996	89.204	0.123	0.140
-592.982	64.599	-0.156	0.160
-591.967	-107.595	0.012	0.003
-590.952	-200.000	0.031	0.360
-589.938	-193.168	0.158	0.001
-588.923	-113.191	-0.339	0.068
-587.909	800.000	0.076	0.299
-586.894	-124.829	-0.180	0.028
-585.879	-200.000	0.067	0.349
-584.865	-106.692	-0.479	-0.108
-583.850	-114.889	0.273	0.053
-582.836	-200.000	-0.064	-0.288
-581.821	161.408	0.343	-0.487
-580.806	-200.000	0.025	0.198
-579.792	546.198	-0.079	0.193
-578.777	-36.842	-0.167	0.091
-577.763	-112.421	0.196	-0.040
-576.748	-50.519	0.210	0.101
-575.733	-44.302	0.127	-0.064
-574.719	-72.828	-0.132	0.049
-573.704	22.274	-0.236	0.195
-572.690	109.425	-0.104	-0.126
-571.675	-46.527	0.381	-0.189
-570.661	85.042	-0.103	-0.114
-569.646	-133.428	-0.160	-0.020
-568.631	-43.204	-0.122	0.063
-567.617	-200.000	-0.039	-0.333
-566.602	-26.499	0.448	0.266
-565.588	26.108	0.234	-0.198
-564.573	223.537	-0.064	0.104
-563.558	-35.997	0.190	-0.104
-562.544	-36.310	-0.277	-0.151
-561.529	103.083	0.086	0.102
-560.515	-82.740	-0.085	-0.028
-559.500	47.087	0.196	0.185
-558.485	415.037	-0.066	0.142
-557.471	800.000	0.012	-0.042
-556.456	-101.552	0.196	0.048
-555.442	344.806	0.083	-0.165
-554.427	-200.000	-0.057	-0.345
-553.412	-200.000	-0.001	-0.261
-552.398	-200.000	-0.007	0.161
-551.383	-23.257	-0.094	-0.057
-550.369	-43.399	-0.074	-0.038
-549.354	587.636	0.031	0.076
-548.339	-200.000	-0.039	-0.201
-547.325	65.741	-0.135	0.139
-546.310	526.668	0.111	-0.264
-545.296	277.221	0.139	0.250
-544.281	39.373	0.158	-0.143
-543.266	-200.000	0.060	-0.345
-542.252	-172.422	-0.035	-0.001
-541.237	-10.708	0.169	0.113
-540.223	615.649	-0.092	0.233
-539.208	53.198	0.190	-0.184
-538.193	-70.816	-0.274	0.105
-537.179	162.037	-0.064	0.091
-536.164	-51.895	0.090	0.042
-535.150	-1.319	-0.124	-0.089
-534.135	800.000	-0.063	-0.199
-533.121	-99.688	0.265	-0.067
-532.106	-52.618	0.188	-0.088
-531.091	68.724	-0.126	0.131
-530.077	261.932	-0.186	-0.326
-529.062	410.998	-0.135	-0.290
-528.048	-106.948	-0.350	0.078
-527.033	800.000	-0.113	0.360
-526.018	-200.000	0.035	-0.329
-525.004	-161.288	0.439	-0.023
-523.989	-15.773	0.141	0.091
-522.975	800.000	-0.092	0.261
-521.960	-200.000	0.047	-0.256
-520.945	-200.000	0.002	0.190
-519.931	-59.843	-0.198	0.086
-518.916	-200.000	0.005	-0.139
-517.902	-200.000	0.039	0.251
-516.887	-11.734	-0.325	0.216
-515.872	-200.000	0.016	-0.098
-514.858	-161.250	0.117	-0.006
-513.843	-26.996	-0.214	-0.126
-512.829	-102.084	0.136	-0.033
-511.814	109.030	0.043	-0.052
-510.799	105.479	-0.169	0.202
-509.785	-142.672	0.145	0.014
-508.770	60.008	-0.252	0.252
-507.756	292.519	-0.031	0.056
-506.741	51.457	0.278	0.267
-505.726	-115.396	-0.075	0.014
-504.712	-200.000	-0.036	-0.175
-503.697	-200.000	-0.003	0.226
-502.683	-34.116	-0.251	-0.140
-501.668	-109.048	0.106	-0.023
-500.653	-200.000	0.086	-0.434
-499.639	-2.282	-0.273	0.193
-498.624	800.000	-0.047	0.157
-497.610	-108.978	-0.119	0.026
-496.595	-200.000	-0.057	-0.309
-495.581	-84.911	0.145	0.046
-494.566	-3.263	-0.091	-0.064
-493.551	529.879	-0.150	-0.359
-492.537	800.000	0.153	-0.458
-491.522	599.550	-0.050	0.125
-490.508	222.181	-0.063	0.102
-489.493	28.637	-0.192	0.164
-488.478	-90.052	-0.131	0.039
-487.464	-141.382	-0.148	0.015
-486.449	-200.000	0.010	0.422
-485.435	59.081	-0.036	-0.036
-484.420	800.000	0.029	-0.122
-483.405	80.633	0.157	-0.171
-482.391	207.402	-0.141	0.223
-481.376	46.704	-0.389	0.365
-480.362	-200.000	-0.010	0.068
-479.347	-156.627	-0.096	0.006
-478.332	180.018	-0.071	-0.105
-477.318	468.263	0.079	-0.180
-476.303	16.499	-0.197	-0.157
-475.289	78.130	0.252	0.271
-474.274	-157.780	0.202	0.012
-473.259	-30.697	0.255	0.146
-472.245	-92.507	-0.199	-0.056
-471.230	-86.948	0.148	0.046
-470.216	-145.302	-0.292	0.027
-469.201	-135.951	0.214	-0.025
-468.186	337.222	0.063	0.124
-467.172	136.848	-0.108	0.143
-466.157	-14.591	-0.094	0.061
-465.143	225.299	0.073	0.119
-464.128	-200.000	0.001	-0.233
-463.113	151.194	-0.051	-0.070
-462.099	-70.350	0.193	-0.074
-461.084	-16.108	-0.146	0.094
-460.070	371.816	0.072	0.148
-459.055	-84.879	0.227	-0.072
-458.040	69.944	-0.119	0.124
-457.026	-11.020	0.102	0.068
-456.011	194.236	0.133	-0.204
-454.997	-131.775	0.227	-0.030
-453.982	-48.232	0.177	-0.086
-452.968	50.888	0.135	0.129
-451.953	137.072	-0.214	0.282
-450.938	-116.263	-0.194	-0.036
-449.924	-88.271	0.117	0.035
-448.909	264.880	-0.009	0.016
-447.895	-119.463	-0.199	0.035
-446.880	-44.894	-0.362	-0.182
-445.865	800.000	-0.039	-0.161
-444.851	137.271	0.062	0.082
-443.836	119.165	-0.037	-0.046
-442.822	-47.284	0.354	0.174
-441.807	-200.000	0.009	-0.247
-440.792	102.912	0.232	-0.274
-439.778	-200.000	-0.038	-0.289
-438.763	-52.132	0.250	-0.117
-437.749	436.629	-0.056	0.124
-436.734	18.020	0.427	-0.343
-435.719	-148.700	0.144	-0.012
-434.705	-200.000	0.038	0.246
-433.690	42.050	0.227	0.207
-432.676	-12.317	-0.178	0.117
-431.661	112.369	0.255	-0.311
-430.646	251.933	-0.092	0.159
-429.632	-200.000	-0.027	0.137
-428.617	-200.000	-0.040	0.290
-427.603	-57.227	-0.436	0.193
-426.588	-101.032	-0.162	-0.040
-425.573	-73.868	0.220	0.081
-424.559	-160.248	-0.336	0.018
-423.544	117.130	0.046	-0.057
-422.530	-200.000	0.046	0.283
-421.515	-112.204	-0.183	-0.037
-420.500	-148.946	0.189	0.015
-419.486	-96.393	0.167	-0.045
-418.471	544.442	0.115	0.277
-417.457	-200.000	-0.019	0.321
-416.442	-8.347	-0.247	-0.167
-415.428	542.933	0.047	-0.113
-414.413	-54.868	0.475	-0.216
-413.398	2.681	-0.122	-0.089
-412.384	800.000	-0.061	-0.250
-411.369	-69.147	0.040	-0.015
-410.355	-200.000	-0.019	-0.085
-409.340	-200.000	-0.035	0.204
-408.325	273.601	0.074	-0.132
-407.311	631.412	0.142	-0.362
-406.296	190.952	0.050	-0.076
-405.282	-162.660	0.146	0.007
-404.267	486.588	0.026	0.059
-403.252	91.439	-0.110	0.125
-402.238	-147.154	-0.187	0.016
-401.223	-3.804	0.290	-0.203
-400.209	-86.329	-0.254	0.079
-399.194	19.770	-0.148	0.120
-398.179	-200.000	0.003	-0.187
-397.165	-38.338	-0.268	-0.143
-396.150	-159.336	-0.364	0.021
-395.136	-3.785	-0.179	-0.125
-394.121	70.645	-0.101	-0.105
-393.106	-146.644	0.245	-0.021
-392.092	421.678	-0.094	-0.203
-391.077	-175.096	0.092	-0.003
-390.063	-200.000	0.023	-0.180
-389.048	-115.821	0.181	-0.034
-388.033	87.291	-0.094	-0.104
-387.019	-8.406	0.158	-0.107
-386.004	138.555	0.183	0.242
-384.990	-180.172	-0.290	0.006
-383.975	-200.000	0.033	-0.213
-382.960	-170.744	0.194	-0.007
-381.946	800.000	0.024	0.077
-380.931	800.000	-0.006	0.026
-379.917	-200.000	-0.023	-0.166
-378.902	-54.187	-0.042	0.019
-377.888	345.975	-0.084	0.167
-376.873	-76.833	-0.408	-0.144
-375.858	393.021	0.087	-0.183
-374.844	27.599	-0.169	0.143
-373.829	-89.248	0.185	0.055
-372.815	-172.085	0.080	0.003
-371.800	-182.539	0.157	0.003
-370.785	-200.000	0.018	-0.168
-369.771	346.287	-0.141	-0.279
-368.756	-26.384	0.082	0.048
-367.742	6.348	0.274	0.205
-366.727	166.138	-0.090	-0.129
-365.712	87.819	0.110	0.123
-364.698	5.458	0.157	0.117
-363.683	221.208	-0.110	0.177
-362.669	-62.123	-0.244	0.102
-361.654	-15.454	-0.113	0.073
-360.639	800.000	0.120	-0.452
-359.625	-60.129	0.290	-0.125
-358.610	-156.182	0.083	0.005
-357.596	425.945	0.002	0.004
-356.581	64.124	0.349	0.353
-355.566	428.018	-0.086	0.188
-354.552	-126.505	-0.166	-0.025
-353.537	-200.000	-0.000	-0.006
-352.523	-200.000	-0.029	0.187
-351.508	781.745	-0.122	0.336
-350.493	-10.209	-0.211	0.141
-349.479	-34.481	0.227	-0.125
-348.464	699.877	0.035	-0.092
-347.450	157.905	0.140	-0.195
-346.435	64.452	0.135	-0.137
-345.420	121.918	0.183	0.230
-344.406	450.193	-0.067	-0.149
-343.391	163.391	0.062	0.087
-342.377	-200.000	-0.059	0.347
-341.362	-124.554	-0.559	0.087
-340.348	413.064	0.094	-0.202
-339.333	-31.069	-0.171	0.097
-338.318	-129.318	-0.374	0.052
-337.304	-200.000	-0.038	0.248
-336.289	124.880	0.107	0.135
-335.275	1.100	0.250	0.180
-334.260	446.869	0.084	0.186
-333.245	-14.254	-0.143	0.092
-332.231	31.173	-0.083	-0.071
-331.216	734.703	-0.135	-0.362
-330.202	-33.309	0.063	0.035
-329.187	-109.493	0.399	0.085
-328.172	284.023	-0.093	0.167
-327.158	223.983	-0.110	-0.178
-326.143	-189.661	0.367	0.004
-325.129	800.000	0.043	-0.162
-324.114	37.739	0.155	0.138
-323.099	-74.168	0.087	0.032
-322.085	253.484	-0.112	-0.192
-321.070	134.741	-0.166	-0.216
-320.056	-21.071	0.106	-0.065
-319.041	-149.714	0.333	-0.026
-318.026	800.000	-0.087	0.325
-317.012	-103.595	-0.285	-0.067
-315.997	300.277	-0.304	-0.563
-314.983	7.927	0.302	-0.227
-313.968	-45.814	-0.093	0.046
-312.953	228.750	0.126	0.206
-311.939	-124.594	-0.177	-0.028
-310.924	277.847	0.083	-0.149
-309.910	-200.000	-0.054	-0.257
-308.895	178.219	-0.139	-0.203
-307.880	-63.656	-0.143	0.059
-306.866	-97.184	0.186	0.049
-305.851	94.043	-0.249	-0.283
-304.837	123.993	-0.140	0.176
-303.822	-34.732	0.049	-0.027
-302.807	103.962	0.032	-0.038
-301.793	800.000	-0.035	-0.142
-300.778	-77.132	0.444	-0.155
-299.764	800.000	-0.094	-0.261
-298.749	577.036	0.132	-0.325
-297.735	-35.590	-0.093	-0.050
-296.720	-200.000	0.002	-0.438
-295.705	-181.140	-0.062	-0.001
-294.691	335.051	-0.085	-0.166
-293.676	800.000	-0.042	0.172
-292.662	-200.000	0.040	-0.318
-291.647	-76.383	0.194	0.068
-290.632	176.099	0.130	0.189
-289.618	552.175	0.099	0.238
-288.603	241.292	0.099	0.166
-287.589	800.000	0.040	0.167
-286.574	-82.938	0.271	-0.088
-285.559	-44.879	-0.061	0.031
-284.545	18.854	-0.268	0.216
-283.530	-79.932	-0.180	-0.061
-282.516	92.197	-0.168	-0.189
-281.501	-48.837	0.138	0.066
-280.486	205.891	0.037	-0.058
-279.472	62.164	-0.092	-0.092
-278.457	800.000	-0.082	0.259
-277.443	-124.697	-0.249	-0.039
-276.428	126.455	-0.162	-0.206
-275.413	-200.000	-0.027	0.131
-274.399	-200.000	-0.046	0.246
-273.384	98.200	-0.176	0.203
-272.370	-200.000	-0.014	0.225
-271.355	33.102	-0.369	0.321
-270.340	-108.163	0.097	0.021
-269.326	-88.442	0.124	0.037
-268.311	-200.000	-0.046	0.432
-267.297	3.553	0.060	-0.044
-266.282	440.088	-0.080	0.176
-265.267	-200.000	0.014	0.155
-264.253	-21.301	-0.122	-0.075
-263.238	58.216	-0.105	0.103
-262.224	211.494	0.123	0.194
-261.209	-167.030	0.165	-0.007
-260.195	-2.837	-0.197	0.138
-259.180	-46.914	0.218	0.107
-258.165	132.939	0.183	0.237
-257.151	-21.988	0.083	-0.050
-256.136	717.766	0.035	0.094
-255.122	-200.000	0.048	0.483
-254.107	13.844	0.167	0.130
-253.092	-4.242	0.145	-0.100
-252.078	79.369	0.075	-0.080
-251.063	-122.299	-0.118	0.019
-250.049	406.976	-0.040	0.084
-249.034	-200.000	0.005	0.097
-248.019	693.893	-0.027	0.072
-247.005	-171.471	0.176	0.006
-245.990	769.785	0.068	-0.186
-244.976	-200.000	-0.050	-0.266
-243.961	284.062	-0.100	0.181
-242.946	800.000	0.103	0.293
-241.932	113.302	0.082	0.099
-240.917	-82.859	-0.308	0.100
-239.903	-101.749	0.016	0.004
-238.888	9.675	-0.117	-0.089
-237.873	-200.000	0.065	-0.329
-236.859	800.000	-0.035	0.144
-235.844	-77.711	0.147	0.051
-234.830	-61.928	-0.048	0.020
-233.815	310.492	-0.200	-0.375
-232.800	-200.000	-0.020	-0.191
-231.786	264.837	0.017	-0.030
-230.771	492.528	-0.079	-0.182
-229.757	-200.000	0.004	0.398
-228.742	128.252	-0.157	0.200
-227.727	800.000	-0.093	0.287
-226.713	-138.526	0.200	0.022
-225.698	156.159	0.124	-0.171
-224.684	-124.730	0.537	0.083
-223.669	800.000	0.037	-0.154
-222.655	143.005	-0.164	-0.218
-221.640	270.452	-0.147	-0.259
-220.625	-25.198	0.040	0.024
-219.611	-125.999	0.181	0.027
-218.596	112.945	-0.173	0.209
-217.582	-82.509	0.167	0.054
-216.567	110.160	0.219	-0.263
-215.552	30.745	0.279	0.239
-214.538	-11.380	0.189	-0.124
-213.523	57.716	0.166	0.162
-212.509	-200.000	-0.007	0.279
-211.494	-200.000	0.024	0.126
-210.479	95.130	-0.117	-0.133
-209.465	346.923	-0.052	0.102
-208.450	-200.000	-0.018	-0.327
-207.436	186.107	0.088	0.131
-206.421	800.000	-0.113	0.322
-205.406	800.000	0.041	-0.129
-204.392	-113.092	-0.103	0.020
-203.377	117.274	0.154	0.189
-202.363	461.167	-0.051	0.113
-201.348	34.343	0.085	-0.074
-200.333	-200.000	0.006	0.086
-199.319	231.295	0.099	-0.162
-198.304	800.000	0.067	0.222
-197.290	800.000	0.049	0.147
-196.275	532.220	0.128	0.302
-195.260	-7.627	0.051	-0.034
-194.246	-200.000	-0.020	0.175
-193.231	488.870	-0.107	-0.245
-192.217	71.533	-0.284	-0.294
-191.202	800.000	0.061	-0.210
-190.187	-60.673	0.056	0.024
-189.173	800.000	-0.031	-0.132
-188.158	51.826	-0.333	0.317
-187.144	800.000	0.016	0.068
-186.129	-59.587	0.310	-0.133
-185.114	58.461	-0.130	-0.127
-184.100	98.230	-0.185	-0.213
-183.085	94.223	-0.119	-0.135
-182.071	800.000	-0.084	-0.334
-181.056	-45.929	0.392	0.193
-180.042	-126.388	-0.343	0.051
-179.027	375.037	0.051	-0.105
-178.012	800.000	-0.049	-0.152
-176.998	-163.014	-0.213	0.010
-175.983	157.827	0.107	-0.148
-174.969	800.000	0.083	0.264
-173.954	85.978	-0.098	-0.107
-172.939	-88.184	-0.196	-0.058
-171.925	-155.400	-0.223	-0.014
-170.910	195.792	0.115	-0.175
-169.896	-129.164	-0.489	0.068
-168.881	-98.265	0.285	0.073
-167.866	382.855	0.121	-0.248
-166.852	487.670	0.099	-0.226
-165.837	-95.190	0.095	0.025
-164.823	25.971	-0.286	-0.238
-163.808	308.641	0.123	0.229
-162.793	-200.000	0.021	0.226
-161.779	-200.000	-0.007	-0.180
-160.764	207.341	0.108	-0.168
-159.750	-200.000	0.057	0.286
-158.735	-120.785	0.170	0.029
-157.720	28.996	0.110	-0.093
-156.706	423.080	-0.104	-0.223
-155.691	-133.404	-0.090	0.011
-154.677	44.355	-0.024	0.022
-153.662	-200.000	-0.034	-0.253
-152.647	-107.562	-0.009	0.002
-151.633	-117.559	0.375	-0.068
-150.618	-116.861	0.239	0.044
-149.604	-200.000	-0.065	0.436
-148.589	-200.000	0.191	-0.000
-147.574	-200.000	-0.009	0.123
-146.560	-17.715	-0.079	0.049
-145.545	800.000	0.072	0.286
-144.531	97.862	0.061	0.070
-143.516	9.231	0.128	0.096
-142.502	272.261	0.181	-0.318
-141.487	-200.000	0.043	-0.297
-140.472	238.231	-0.166	-0.275
-139.458	-187.310	-0.325	0.004
-138.443	350.342	0.076	-0.150
-137.429	-52.856	-0.124	0.057
-136.414	-87.066	-0.181	-0.055
-135.399	800.000	0.106	-0.413
-134.385	-14.346	0.215	0.138
-133.370	-102.144	-0.098	-0.023
-132.356	-89.322	-0.264	-0.077
-131.341	-200.000	0.022	-0.154
-130.326	100.064	0.138	-0.160
-129.312	800.000	0.046	-0.150
-128.297	-200.000	0.005	-0.049
-127.283	40.300	0.112	-0.101
-126.268	162.892	-0.113	0.158
-125.253	206.331	-0.217	0.337
-124.239	88.940	-0.104	0.116
-123.224	69.469	0.227	-0.233
-122.210	-200.000	0.036	-0.398
-121.195	99.214	0.208	0.240
-120.180	800.000	0.069	0.231
-119.166	-151.893	-0.147	-0.011
-118.151	50.358	-0.255	-0.240
-117.137	-177.398	0.300	0.007
-116.122	-16.124	0.105	-0.066
-115.107	-127.544	0.260	0.038
-114.093	-82.249	0.142	-0.046
-113.078	-84.573	-0.348	-0.109
-112.064	118.553	0.121	0.149
-111.049	-200.000	0.009	0.054
-110.034	-200.000	0.084	0.398
-109.020	-135.029	0.282	-0.034
-108.005	-34.774	0.218	-0.118
-106.991	465.186	0.108	-0.240
-105.976	-24.580	0.236	-0.140
-104.962	64.390	0.179	-0.180
-103.947	-62.686	0.267	-0.110
-102.932	-200.000	0.021	-0.438
-101.918	102.498	0.105	-0.122
-100.903	149.219	0.195	-0.263
-99.889	-200.000	-0.003	-0.152
-98.874	-200.000	0.005	0.490
-97.859	87.582	0.048	-0.053
-96.845	614.648	-0.056	0.141
-95.830	-89.270	0.542	-0.159
-94.816	-34.301	0.188	-0.103
-93.801	-158.736	-0.248	0.014
-92.786	78.320	0.260	0.276
-91.772	-97.300	0.089	-0.023
-90.757	-150.353	0.183	0.014
-89.743	84.840	-0.083	0.091
-88.728	-38.810	0.143	0.075
-87.713	800.000	0.053	0.172
-86.699	0.011	-0.182	0.129
-85.684	661.359	-0.073	0.187
-84.670	245.506	-0.200	-0.335
-83.655	616.256	0.093	0.231
-82.640	-134.105	-0.175	-0.022
-81.626	-92.560	-0.205	0.057
-80.611	-94.290	-0.217	-0.059
-79.597	800.000	0.060	0.225
-78.582	283.223	-0.205	0.366
-77.567	800.000	0.019	-0.067
-76.553	-200.000	0.086	0.418
-75.538	-133.026	0.461	0.058
-74.524	105.406	-0.046	-0.054
-73.509	-103.421	-0.236	-0.055
-72.494	177.020	-0.159	-0.230
-71.480	303.887	-0.164	0.302
-70.465	-67.448	-0.266	0.104
-69.451	-113.196	-0.124	-0.024
-68.436	44.903	0.177	-0.162
-67.422	-83.763	-0.303	0.096
-66.407	106.955	0.263	0.311
-65.392	75.174	-0.162	0.170
-64.378	479.561	-0.039	0.088
-63.363	-153.095	0.266	-0.019
-62.349	-32.269	-0.145	0.080
-61.334	46.184	-0.870	-0.801
-60.319	-89.313	0.612	0.179
-59.305	248.206	-0.487	-0.819
-58.290	145.830	0.671	0.894
-57.276	360.881	0.780	1.553
-56.261	-200.000	96.617	568.637
-55.246	618.677	1398.083	3490.155
-54.232	182.929	2615.744	3837.226
-53.217	110.500	2340.822	2796.189
-52.203	40.924	2086.050	1870.977
-51.188	35.936	1998.543	1747.302
-50.173	34.420	1980.312	1717.644
-49.159	48.625	2032.079	1892.580
-48.144	51.445	2051.357	1936.226
-47.130	36.759	2009.290	1763.915
-46.115	34.266	1997.775	1731.119
-45.100	34.174	1994.664	1727.519
-44.086	34.248	1992.067	1725.873
-43.071	34.063	1990.217	1722.526
-42.057	34.059	1987.285	1719.884
-41.042	34.118	1985.274	1718.603
-40.027	34.149	1983.704	1717.456
-39.013	34.152	1981.793	1715.758
-37.998	34.173	1979.571	1713.960
-36.984	34.235	1977.300	1712.484
-35.969	34.221	1975.432	1710.668
-34.954	34.323	1973.315	1709.683
-33.940	34.282	1972.458	1708.505
-32.925	34.285	1970.644	1706.894
-31.911	34.252	1969.336	1705.397
-30.896	34.253	1967.186	1703.483
-29.881	34.297	1965.418	1702.274
-28.867	34.295	1964.728	1701.591
-27.852	34.330	1962.293	1699.723
-26.838	34.285	1960.501	1697.705
-25.823	34.343	1958.311	1696.261
-24.809	34.241	1957.070	1694.207
-23.794	34.350	1954.982	1693.302
-22.779	34.292	1953.128	1691.113
-21.765	34.280	1951.975	1689.943
-20.750	34.349	1950.140	1688.898
-19.736	34.274	1949.093	1687.259
-18.721	34.387	1946.892	1686.286
-17.706	34.375	1945.503	1684.912
-16.692	34.293	1943.980	1682.806
-15.677	34.320	1942.180	1681.414
-14.663	34.409	1940.612	1680.778
-13.648	34.299	1939.616	1678.873
-12.633	34.355	1938.487	1678.324
-11.619	34.358	1937.313	1677.266
-10.604	34.304	1935.409	1675.082
-9.590	34.397	1933.916	1674.541
-8.575	34.317	1932.734	1672.744
-7.560	34.319	1931.911	1671.987
-6.546	34.355	1930.302	1670.841
-5.531	34.340	1929.316	1669.786
-4.517	34.353	1928.444	1669.086
-3.502	34.311	1927.066	1667.456
-2.487	34.276	1926.067	1666.222
-1.473	34.336	1925.217	1665.942
-0.458	34.350	1920.535	1661.951
0.556	33.314	1900.182	1635.001
1.571	29.082	1881.192	1582.235
2.586	24.929	1903.130	1564.351
3.600	23.810	1939.298	1583.972
4.615	23.362	1934.869	1576.232
5.629	18.231	1835.094	1451.409
6.644	9.598	1715.302	1287.812
7.659	5.430	1678.045	1227.077
8.673	5.139	1674.361	1221.998
9.688	5.023	1673.158	1220.102
10.702	5.036	1671.770	1219.084
11.717	4.903	1669.109	1215.997
12.731	5.493	1668.020	1219.698
13.746	11.329	1682.203	1275.725
14.761	18.240	1697.172	1341.320
15.775	19.490	1696.833	1350.725
16.790	18.199	1693.273	1337.688
17.804	17.116	1689.955	1326.490
18.819	16.105	1686.508	1315.778
19.834	15.470	1683.507	1308.374
20.848	15.174	1682.284	1305.001
21.863	14.884	1680.726	1301.425
22.877	14.582	1679.880	1298.304
23.892	14.368	1678.219	1295.239
24.907	14.311	1677.099	1293.820
25.921	14.338	1676.154	1293.184
26.936	14.256	1674.918	1291.476
27.950	14.304	1674.212	1291.192
28.965	14.404	1673.610	1291.390
29.980	14.393	1672.920	1290.658
30.994	14.593	1671.153	1290.727
32.009	14.564	1670.183	1289.640
33.023	14.613	1669.754	1289.577
34.038	14.675	1668.392	1288.888
35.053	14.593	1667.172	1287.199
36.067	14.512	1665.644	1285.277
37.082	14.533	1664.508	1284.448
38.096	14.446	1663.793	1283.114
39.111	14.581	1662.798	1283.271
40.126	14.558	1661.921	1282.308
41.140	14.485	1661.236	1281.100
42.155	14.418	1659.664	1279.265
43.169	14.309	1658.063	1277.076
44.184	14.254	1657.026	1275.745
45.199	14.289	1655.787	1274.946
46.213	14.250	1655.153	1274.051
47.228	14.243	1653.828	1272.860
48.242	14.282	1652.581	1272.085
49.257	14.412	1651.551	1272.175
50.271	14.432	1650.544	1271.443
51.286	14.428	1649.080	1270.171
52.301	14.521	1647.128	1269.260
53.315	14.502	1645.691	1267.896
54.330	14.451	1644.411	1266.408
55.344	14.281	1643.259	1264.124
56.359	14.376	1640.947	1262.950
57.374	14.320	1640.039	1261.719
58.388	14.367	1638.880	1261.070
59.403	14.301	1637.642	1259.501
60.417	14.228	1636.183	1257.718
61.432	14.259	1635.171	1257.063
62.447	14.262	1634.329	1256.327
63.461	14.246	1633.201	1255.227
64.476	14.157	1631.713	1253.304
65.490	14.135	1631.365	1252.765
66.505	14.140	1629.649	1251.372
67.520	14.182	1628.730	1250.870
68.534	14.197	1627.583	1249.990
69.549	14.181	1626.826	1249.177
70.563	14.234	1625.670	1248.580
71.578	14.191	1624.235	1247.041
72.593	14.152	1623.438	1246.031
73.607	14.090	1621.958	1244.316
74.622	14.017	1621.003	1242.928
75.636	13.995	1620.154	1242.003
76.651	14.095	1619.322	1242.001
77.666	14.078	1618.422	1241.073
78.680	14.079	1617.994	1240.643
79.695	14.196	1616.540	1240.292
80.709	14.092	1615.767	1238.813
81.724	14.147	1614.952	1238.488
82.739	14.259	1614.348	1238.751
83.753	14.254	1613.135	1237.677
84.768	14.323	1612.643	1237.700
85.782	14.422	1611.309	1237.299
86.797	14.455	1611.186	1237.341
87.812	14.520	1609.805	1236.658
88.826	14.533	1608.291	1235.477
89.841	14.339	1607.516	1233.337
90.855	14.269	1607.193	1232.465
91.870	14.464	1605.095	1232.184
92.884	14.442	1604.498	1231.453
93.899	14.512	1603.034	1230.741
94.914	14.551	1601.781	1229.957
95.928	14.511	1601.421	1229.278
96.943	14.590	1599.722	1228.449
97.957	14.593	1598.285	1227.252
98.972	14.572	1596.889	1225.917
99.987	14.538	1595.197	1224.266
101.001	14.519	1593.279	1222.547
102.016	14.437	1592.318	1221.098
103.030	14.411	1590.876	1219.693
104.045	14.337	1590.168	1218.501
105.060	14.464	1588.275	1217.874
106.074	14.407	1587.143	1216.476
107.089	14.420	1585.511	1215.217
108.103	14.216	1583.968	1212.439
109.118	14.117	1582.690	1210.631
110.133	14.133	1581.050	1209.389
111.147	14.157	1579.865	1208.547
112.162	14.262	1578.352	1208.050
113.176	14.168	1576.948	1206.183
114.191	14.297	1575.298	1205.752
115.206	14.385	1574.131	1205.384
116.220	14.298	1573.082	1203.846
117.235	14.296	1571.537	1202.542
118.249	14.255	1570.434	1201.296
119.264	14.264	1569.093	1200.233
120.279	14.336	1567.326	1199.287
121.293	14.291	1566.134	1197.952
122.308	14.220	1564.453	1196.048
123.322	14.153	1563.016	1194.358
124.337	14.206	1561.777	1193.690
125.352	14.174	1560.236	1192.173
126.366	14.206	1559.149	1191.467
127.381	14.161	1557.955	1190.128
128.395	14.146	1557.206	1189.341
129.410	14.109	1556.099	1188.130
130.424	14.175	1554.507	1187.281
131.439	14.282	1552.548	1186.444
132.454	14.277	1551.122	1185.215
133.468	14.274	1550.363	1184.507
134.483	14.373	1548.595	1183.750
135.497	14.402	1547.316	1182.878
136.512	14.385	1546.508	1182.035
137.527	14.469	1544.696	1181.141
138.541	14.399	1543.549	1179.662
139.556	14.394	1542.344	1178.600
140.570	14.499	1540.766	1178.032
141.585	14.467	1539.851	1177.006
142.600	14.509	1538.830	1176.417
143.614	14.520	1537.511	1175.382
144.629	14.699	1535.735	1175.176
145.643	14.630	1534.766	1173.848
146.658	14.661	1533.607	1173.078
147.673	14.522	1532.135	1170.866
148.687	14.547	1530.303	1169.540
149.702	14.544	1529.125	1168.517
150.716	14.475	1527.373	1166.589
151.731	14.473	1526.494	1165.800
152.746	14.527	1524.520	1164.566
153.760	14.526	1523.303	1163.529
154.775	14.490	1522.196	1162.331
155.789	14.593	1520.619	1161.743
156.804	14.654	1519.209	1160.982
157.819	14.640	1518.471	1160.220
158.833	14.662	1517.564	1159.575
159.848	14.671	1516.815	1158.968
160.862	14.735	1515.109	1158.003
161.877	14.773	1513.763	1157.138
162.892	14.700	1512.618	1155.655
163.906	14.542	1511.743	1153.788
164.921	14.523	1509.970	1152.201
165.935	14.563	1509.280	1151.847
166.950	14.621	1507.813	1151.026
167.964	14.678	1506.835	1150.575
168.979	14.656	1506.087	1149.748
169.994	14.590	1505.215	1148.524
171.008	14.675	1504.165	1148.211
172.023	14.675	1502.861	1147.108
173.037	14.676	1501.783	1146.198
174.052	14.659	1500.764	1145.196
175.067	14.794	1499.713	1145.221
176.081	14.674	1498.357	1143.265
177.096	14.653	1496.837	1141.859
178.110	14.588	1495.386	1140.203
179.125	14.551	1494.735	1139.358
180.140	14.672	1493.646	1139.249
181.154	14.682	1492.529	1138.366
182.169	14.772	1490.858	1137.606
183.183	14.719	1490.355	1136.760
184.198	14.903	1489.190	1137.023
185.213	14.901	1488.372	1136.283
186.227	14.951	1486.470	1135.066
187.242	14.899	1486.350	1134.521
188.256	14.905	1484.895	1133.353
189.271	14.953	1483.595	1132.584
190.286	15.041	1482.572	1132.299
191.300	15.054	1481.731	1131.643
192.315	14.865	1480.219	1129.112
193.329	14.667	1479.241	1126.933
194.344	14.719	1477.876	1126.145
195.359	14.650	1477.335	1125.169
196.373	14.786	1476.075	1125.021
197.388	14.813	1475.205	1124.443
198.402	14.995	1473.826	1124.514
199.417	15.004	1473.001	1123.842
200.432	15.084	1472.234	1123.695
201.446	15.149	1470.767	1122.916
202.461	15.180	1470.150	1122.552
203.475	15.148	1469.246	1121.547
204.490	15.308	1467.667	1121.314
205.504	15.167	1467.559	1120.188
206.519	15.246	1465.373	1118.947
207.534	15.161	1464.441	1117.569
208.548	15.156	1463.321	1116.582
209.563	15.134	1462.183	1115.469
210.577	15.068	1461.639	1114.520
211.592	15.110	1460.721	1113.999
212.607	15.194	1459.872	1113.813
213.621	15.320	1458.935	1113.836
214.636	15.251	1458.149	1112.679
215.650	15.130	1457.495	1111.275
216.665	15.324	1456.383	1111.615
217.680	15.227	1455.871	1110.484
218.694	15.372	1454.665	1110.423
219.709	15.453	1453.585	1110.036
220.723	15.431	1452.684	1109.105
221.738	15.434	1452.138	1108.610
222.753	15.313	1451.045	1106.881
223.767	15.425	1449.940	1106.677
224.782	15.293	1449.161	1105.114
225.796	15.440	1448.083	1105.162
226.811	15.415	1447.684	1104.600
227.826	15.557	1446.276	1104.362
228.840	15.491	1445.578	1103.294
229.855	15.427	1444.393	1101.876
230.869	15.454	1443.645	1101.384
231.884	15.445	1442.079	1100.031
232.899	15.393	1441.323	1099.018
233.913	15.329	1440.407	1097.801
234.928	15.462	1438.791	1097.339
235.942	15.405	1437.736	1096.065
236.957	15.294	1436.814	1094.545
237.972	15.331	1435.418	1093.625
238.986	15.257	1434.329	1092.214
240.001	15.378	1433.527	1092.295
241.015	15.412	1432.749	1091.828
242.030	15.429	1431.526	1090.912
243.045	15.476	1430.323	1090.202
244.059	15.551	1429.294	1089.805
245.074	15.612	1428.533	1089.530
246.088	15.616	1427.633	1088.769
247.103	15.424	1427.542	1087.363
248.117	15.533	1426.837	1087.434
249.132	15.739	1425.307	1087.503
250.147	15.764	1424.811	1087.190
251.161	15.791	1424.928	1087.359
252.176	15.950	1423.753	1087.389
253.190	16.047	1423.377	1087.631
254.205	15.979	1421.792	1085.887
255.220	15.931	1421.243	1085.062
256.234	16.084	1420.744	1085.574
257.249	16.001	1419.563	1084.041
258.263	16.040	1419.045	1083.797
259.278	16.066	1417.449	1082.651
260.293	16.115	1416.480	1082.130
261.307	16.068	1416.431	1081.697
262.322	16.116	1415.280	1081.029
263.336	16.197	1414.496	1080.849
264.351	16.175	1413.730	1080.028
265.366	16.135	1412.729	1078.912
266.380	16.308	1411.499	1078.986
267.395	16.294	1410.471	1078.013
268.409	16.149	1410.129	1076.735
269.424	16.186	1408.993	1076.005
270.439	16.186	1407.921	1075.091
271.453	16.161	1406.698	1073.905
272.468	16.153	1405.585	1072.909
273.482	16.231	1404.982	1072.848
274.497	16.147	1404.346	1071.735
275.512	16.215	1403.333	1071.297
276.526	16.299	1402.404	1071.028
277.541	16.221	1401.683	1069.886
278.555	16.176	1400.944	1068.943
279.570	16.256	1399.747	1068.439
280.585	16.318	1398.890	1068.086
281.599	16.324	1398.288	1067.570
282.614	16.444	1397.046	1067.283
283.628	16.299	1396.262	1065.676
284.643	16.306	1395.362	1064.936
285.657	16.214	1394.064	1063.273
286.672	16.264	1393.197	1062.834
287.687	16.329	1392.273	1062.445
288.701	16.259	1391.410	1061.248
289.716	16.278	1390.477	1060.564
290.730	16.395	1389.676	1060.594
291.745	16.365	1388.600	1059.490
292.760	16.350	1387.582	1058.525
293.774	16.496	1386.665	1058.646
294.789	16.470	1385.359	1057.395
295.803	16.563	1384.743	1057.414
296.818	16.641	1383.602	1056.931
297.833	16.554	1383.058	1055.883
298.847	16.451	1381.809	1054.195
299.862	16.380	1381.462	1053.392
300.876	16.443	1379.861	1052.469
301.891	16.547	1379.138	1052.474
302.906	16.603	1378.361	1052.133
303.920	16.553	1377.687	1051.218
304.935	16.597	1377.167	1051.002
305.949	16.625	1376.507	1050.577
306.964	16.702	1375.676	1050.331
307.979	16.839	1374.221	1049.970
308.993	16.870	1373.278	1049.354
310.008	16.679	1372.976	1047.844
311.022	16.741	1371.557	1047.052
312.037	16.806	1370.671	1046.684
313.052	16.885	1369.582	1046.248
314.066	16.816	1368.920	1045.224
315.081	16.716	1367.741	1043.619
316.095	16.577	1366.628	1041.820
317.110	16.621	1365.698	1041.287
318.125	16.558	1365.170	1040.407
319.139	16.710	1363.712	1040.138
320.154	16.672	1362.746	1039.074
321.168	16.689	1361.979	1038.500
322.183	16.660	1360.846	1037.371
323.197	16.788	1359.557	1037.080
324.212	16.785	1358.849	1036.428
325.227	16.739	1358.365	1035.687
326.241	16.834	1357.337	1035.388
327.256	16.801	1356.525	1034.480
328.270	16.859	1355.698	1034.112
329.285	16.779	1354.956	1032.966
330.300	16.797	1354.000	1032.251
331.314	16.894	1352.744	1031.794
332.329	16.884	1351.748	1030.885
333.343	16.775	1350.977	1029.544
334.358	16.822	1350.243	1029.178
335.373	16.925	1349.495	1029.142
336.387	16.950	1348.911	1028.754
337.402	17.053	1347.912	1028.525
338.416	16.935	1347.364	1027.307
339.431	17.015	1346.634	1027.137
340.446	17.095	1345.756	1026.863
341.460	17.124	1344.768	1026.191
342.475	17.136	1344.160	1025.711
343.489	17.131	1343.520	1025.105
344.504	17.322	1342.221	1025.170
345.519	17.220	1341.383	1023.829
346.533	17.299	1340.216	1023.320
347.548	17.381	1339.464	1023.151
348.562	17.361	1338.379	1022.108
349.577	17.340	1338.110	1021.688
350.592	17.381	1337.098	1021.069
351.606	17.270	1336.406	1019.790
352.621	17.224	1335.091	1018.415
353.635	17.244	1333.790	1017.457
354.650	17.142	1333.289	1016.374
355.665	17.234	1332.014	1015.860
356.679	17.346	1330.282	1015.118
357.694	17.370	1329.711	1014.735
358.708	17.289	1329.070	1013.675
359.723	17.359	1327.943	1013.140
360.738	17.332	1326.949	1012.131
361.752	17.412	1325.917	1011.732
362.767	17.250	1325.239	1010.163
363.781	17.403	1323.847	1009.921
364.796	17.368	1323.173	1009.107
365.810	17.432	1322.401	1008.809
366.825	17.534	1321.940	1008.973
367.840	17.483	1321.267	1008.069
368.854	17.557	1320.688	1007.975
369.869	17.675	1320.112	1008.146
370.883	17.643	1319.173	1007.147
371.898	17.651	1318.565	1006.642
372.913	17.639	1317.645	1005.783
373.927	17.585	1316.533	1004.526
374.942	17.694	1316.078	1004.733
375.956	17.650	1315.387	1003.858
376.971	17.651	1314.584	1003.162
377.986	17.719	1313.284	1002.478
379.000	17.649	1312.629	1001.479
380.015	17.702	1311.983	1001.207
381.029	17.735	1311.614	1001.031
382.044	17.774	1310.620	1000.415
383.059	17.904	1309.742	1000.414
384.073	17.850	1309.124	999.538
385.088	17.856	1308.642	999.118
386.102	17.982	1307.526	998.914
387.117	17.882	1306.893	997.760
388.132	17.919	1306.024	997.226
389.146	17.881	1304.719	995.919
390.161	17.855	1304.130	995.224
391.175	17.815	1303.377	994.329
392.190	17.769	1302.793	993.528
393.205	17.899	1301.796	993.437
394.219	17.985	1300.394	992.783
395.234	17.970	1299.644	992.035
396.248	17.976	1298.281	990.938
397.263	17.849	1297.318	989.381
398.278	17.885	1295.753	988.309
399.292	17.919	1294.216	987.247
400.307	17.797	1293.533	985.930
401.321	17.750	1292.718	984.954
402.336	17.816	1291.388	984.232
403.350	17.873	1290.452	983.761
404.365	17.833	1289.576	982.778
405.380	17.817	1289.186	982.300
406.394	17.919	1288.213	982.059
407.409	18.004	1287.513	981.927
408.423	17.990	1286.412	980.916
409.438	18.143	1285.682	981.150
410.453	18.232	1284.762	980.872
411.467	18.204	1284.386	980.339
412.482	18.300	1283.872	980.413
413.496	18.356	1283.245	980.164
414.511	18.312	1282.532	979.281
415.526	18.393	1281.833	979.128
416.540	18.364	1281.681	978.758
417.555	18.414	1280.420	977.992
418.569	18.455	1279.674	977.571
419.584	18.308	1279.449	976.473
420.599	18.298	1279.057	976.029
421.613	137.526	1430.813	1789.740
422.628	132.441	1452.873	1789.852
