DTS Sentinel unit serial number:	SN413079Multiplexer serial number:	ORYXHardware model number:	OX4-SRSoftware version number:	ORYX F/W v4.00 Oryx Data Collector v3.7.2.0data status	okinstallation	princeton_trtdifferential loss correction	single-endedforward channel	channel 4reverse channel	N/Adate	2019/09/18time	01:25:34forward acquisition time	60.00reverse acquisition time	0.00gamma	496.2192k internal	0.2334k external	0.2334temperature offset calibration	0.9996default loss term (dB/km)	0.3790temperature slope calibration	1.0000multiplexer offset coefficient	1.0000multiplexer slope coefficient	1.0000fibre end	0.00T internal ref (°C)	23.12T ext. ref 1 (°C)	0.17T ext. ref 2 (°C)	16.92length (m)	temperature (°C)	Stokes	anti-Stokes-747.200	-200.000	-0.058	0.539
-746.185	-75.108	-0.412	0.148
-745.171	-200.000	0.060	0.320
-744.156	-200.000	0.019	0.381
-743.142	6.147	-0.073	0.054
-742.127	-195.669	0.092	0.001
-741.112	-200.000	0.028	0.200
-740.098	-200.000	0.039	0.354
-739.083	-44.020	0.110	-0.056
-738.069	-79.769	-0.059	-0.020
-737.054	-200.000	-0.034	-0.177
-736.039	58.403	0.184	0.181
-735.025	-70.253	0.355	-0.135
-734.010	-55.330	-0.204	-0.092
-732.996	599.386	0.088	-0.219
-731.981	-200.000	0.021	0.140
-730.966	-74.137	0.153	0.056
-729.952	520.537	-0.103	-0.242
-728.937	-116.762	0.353	0.065
-727.923	508.748	0.096	-0.225
-726.908	-105.531	-0.259	-0.059
-725.894	11.101	-0.026	0.020
-724.879	367.589	-0.082	-0.166
-723.864	-200.000	0.038	-0.192
-722.850	-95.727	-0.197	0.053
-721.835	-14.123	-0.253	0.164
-720.821	88.984	0.095	0.106
-719.806	353.155	-0.030	-0.060
-718.791	-54.523	-0.115	0.052
-717.777	800.000	-0.123	0.460
-716.762	-115.470	-0.426	-0.080
-715.748	-200.000	0.004	0.098
-714.733	87.023	-0.315	-0.349
-713.718	-52.024	0.208	-0.097
-712.704	800.000	0.087	0.264
-711.689	173.535	-0.168	-0.243
-710.675	-104.083	0.131	-0.031
-709.660	800.000	-0.035	0.144
-708.645	-37.074	0.214	0.115
-707.631	800.000	-0.081	0.237
-706.616	-192.145	-0.263	-0.003
-705.602	-3.625	-0.229	-0.160
-704.587	-131.545	-0.166	0.022
-703.572	800.000	0.049	0.153
-702.558	-78.661	0.126	0.043
-701.543	800.000	0.088	0.360
-700.529	-138.325	0.123	0.014
-699.514	-31.777	0.323	0.182
-698.499	-127.480	0.120	-0.017
-697.485	-110.845	0.259	-0.053
-696.470	-53.885	0.282	-0.129
-695.456	-200.000	0.001	-0.272
-694.441	5.057	0.245	-0.181
-693.426	-62.883	0.179	-0.074
-692.412	71.365	-0.108	-0.113
-691.397	-17.554	0.231	0.145
-690.383	-200.000	-0.028	0.145
-689.368	-118.542	0.160	0.028
-688.354	-24.314	-0.262	-0.157
-687.339	-98.536	0.104	-0.027
-686.324	65.186	-0.172	0.174
-685.310	-200.000	-0.026	-0.147
-684.295	148.309	-0.207	-0.280
-683.281	152.625	0.133	-0.182
-682.266	-200.000	0.010	0.198
-681.251	-76.798	-0.073	-0.026
-680.237	-200.000	0.017	0.144
-679.222	-200.000	0.022	0.347
-678.208	-38.398	-0.219	-0.116
-677.193	176.065	-0.097	0.141
-676.178	24.960	0.238	-0.198
-675.164	800.000	0.021	-0.072
-674.149	223.880	-0.294	-0.476
-673.135	-200.000	0.003	-0.146
-672.120	-200.000	-0.022	-0.183
-671.105	1.499	-0.158	-0.114
-670.091	242.325	0.176	-0.296
-669.076	497.376	0.070	0.160
-668.062	150.782	0.126	-0.171
-667.047	88.134	-0.187	-0.208
-666.032	-56.847	0.132	0.058
-665.018	-150.638	0.051	-0.004
-664.003	800.000	0.042	-0.125
-662.989	2.705	-0.125	0.091
-661.974	-200.000	0.040	-0.255
-660.959	6.756	0.409	0.305
-659.945	138.594	-0.092	0.121
-658.930	84.013	-0.104	0.114
-657.916	-99.962	0.071	0.018
-656.901	249.228	0.055	-0.093
-655.886	-200.000	0.027	0.243
-654.872	-71.260	-0.242	-0.091
-653.857	28.440	0.085	0.072
-652.843	-39.314	-0.158	0.083
-651.828	-56.395	0.180	-0.080
-650.814	130.185	0.137	-0.176
-649.799	-112.380	0.122	-0.024
-648.784	-37.955	0.212	0.113
-647.770	727.547	0.111	-0.297
-646.755	800.000	-0.050	-0.219
-645.741	21.870	0.381	0.311
-644.726	-200.000	-0.055	-0.262
-643.711	141.721	-0.138	-0.184
-642.697	-84.458	0.037	0.012
-641.682	125.949	0.040	-0.050
-640.668	8.072	-0.300	-0.225
-639.653	-169.565	-0.102	0.004
-638.638	465.306	-0.032	0.071
-637.624	39.966	-0.273	-0.245
-636.609	50.266	-0.169	-0.159
-635.595	50.981	0.126	-0.120
-634.580	-108.993	-0.184	-0.039
-633.565	-105.834	-0.087	0.020
-632.551	238.132	-0.119	-0.197
-631.536	-31.099	0.319	0.180
-630.522	800.000	0.096	0.369
-629.507	-88.447	-0.338	0.101
-628.492	800.000	-0.030	0.128
-627.478	-200.000	-0.051	0.531
-626.463	800.000	-0.086	0.325
-625.449	-200.000	0.015	-0.264
-624.434	183.798	-0.195	0.289
-623.419	-49.620	-0.112	-0.053
-622.405	-200.000	-0.005	0.181
-621.390	-6.551	0.196	0.134
-620.376	105.062	0.184	0.218
-619.361	-30.104	0.184	0.105
-618.346	-138.688	-0.154	-0.017
-617.332	-200.000	-0.075	-0.462
-616.317	108.470	0.200	0.239
-615.303	88.081	-0.249	0.277
-614.288	749.940	0.054	-0.147
-613.273	527.813	0.128	-0.301
-612.259	-200.000	-0.050	0.291
-611.244	-112.055	-0.340	0.068
-610.230	-200.000	0.004	-0.282
-609.215	800.000	-0.156	-0.515
-608.201	800.000	-0.155	-0.444
-607.186	63.612	-0.160	-0.160
-606.171	-139.092	-0.265	-0.029
-605.157	-107.240	-0.364	-0.080
-604.142	-123.631	0.129	0.020
-603.128	800.000	-0.107	0.316
-602.113	-27.109	0.110	0.064
-601.098	-109.979	-0.019	-0.004
-600.084	-15.913	-0.267	-0.170
-599.069	-114.394	-0.292	0.056
-598.055	-38.582	-0.200	-0.106
-597.040	625.295	-0.041	-0.102
-596.025	-200.000	-0.020	-0.235
-595.011	95.271	-0.052	0.059
-593.996	-200.000	-0.008	-0.346
-592.982	-200.000	-0.036	-0.370
-591.967	-148.855	0.047	-0.004
-590.952	65.987	-0.320	0.324
-589.938	99.869	0.190	0.220
-588.923	-110.783	0.212	0.044
-587.909	98.788	0.203	-0.234
-586.894	183.174	0.055	-0.081
-585.879	302.258	0.113	-0.209
-584.865	-165.205	-0.591	0.026
-583.850	8.003	0.018	-0.013
-582.836	-200.000	0.064	-0.320
-581.821	372.680	0.114	-0.231
-580.806	85.333	0.255	0.279
-579.792	-1.756	-0.126	0.088
-578.777	271.738	-0.111	-0.196
-577.763	-164.799	-0.220	-0.010
-576.748	96.600	0.211	0.242
-575.733	4.801	-0.236	-0.173
-574.719	-125.171	0.170	0.026
-573.704	-131.532	0.458	-0.060
-572.690	-140.536	-0.241	0.025
-571.675	-200.000	0.030	0.162
-570.661	350.360	-0.069	-0.136
-569.646	-200.000	-0.008	0.390
-568.631	-24.973	-0.208	0.123
-567.617	-154.959	0.078	0.005
-566.602	-187.575	-0.279	0.004
-565.588	144.087	0.149	0.199
-564.573	-200.000	0.002	0.038
-563.558	13.914	0.028	0.022
-562.544	-200.000	-0.016	-0.091
-561.529	306.103	-0.019	-0.036
-560.515	-136.888	0.111	-0.013
-559.500	115.892	-0.158	0.193
-558.485	-29.044	0.048	0.028
-557.471	325.745	0.076	0.144
-556.456	71.731	0.258	0.267
-555.442	-200.000	-0.013	-0.235
-554.427	52.525	0.143	0.136
-553.412	-85.571	0.404	0.125
-552.398	-200.000	-0.033	-0.379
-551.383	231.229	-0.291	-0.476
-550.369	20.164	-0.032	-0.026
-549.354	-200.000	-0.001	0.081
-548.339	-133.461	-0.240	-0.030
-547.325	373.402	0.061	0.123
-546.310	-200.000	0.019	-0.173
-545.296	-66.268	0.237	0.094
-544.281	-108.888	0.100	0.021
-543.266	603.673	0.152	-0.378
-542.252	220.248	0.147	0.235
-541.237	-200.000	0.011	0.203
-540.223	362.793	-0.048	-0.096
-539.208	-200.000	-0.057	-0.265
-538.193	76.792	-0.163	0.173
-537.179	-44.863	0.275	-0.137
-536.164	-125.186	-0.127	-0.019
-535.150	-95.762	0.165	0.044
-534.135	-200.000	-0.022	0.099
-533.121	-145.824	-0.168	-0.015
-532.106	-180.458	0.301	0.006
-531.091	329.387	-0.285	-0.547
-530.077	27.195	-0.263	-0.220
-529.062	5.222	-0.185	0.136
-528.048	-137.886	-0.452	-0.050
-527.033	800.000	0.017	0.061
-526.018	-200.000	-0.003	-0.260
-525.004	800.000	0.007	0.031
-523.989	-42.204	0.331	-0.169
-522.975	205.556	0.116	-0.180
-521.960	116.311	-0.031	0.037
-520.945	-56.822	0.352	0.155
-519.931	-50.083	-0.077	-0.036
-518.916	29.291	0.139	-0.117
-517.902	-64.380	0.206	0.083
-516.887	-44.663	-0.133	-0.066
-515.872	-45.702	0.247	0.122
-514.858	-18.638	-0.208	0.129
-513.843	-83.918	-0.145	-0.046
-512.829	-146.730	-0.584	0.050
-511.814	800.000	0.038	0.118
-510.799	26.405	0.200	0.167
-509.785	19.228	-0.306	-0.245
-508.770	-65.531	0.197	-0.079
-507.756	-142.459	0.192	0.019
-506.741	-121.651	-0.191	0.032
-505.726	-200.000	-0.032	-0.216
-504.712	324.569	-0.066	-0.125
-503.697	-31.623	-0.079	0.044
-502.683	452.471	0.116	0.255
-501.668	5.099	-0.172	-0.126
-500.653	267.498	-0.153	-0.267
-499.639	13.038	-0.244	0.188
-498.624	-83.142	-0.215	-0.069
-497.610	-200.000	-0.009	-0.360
-496.595	-65.179	0.185	-0.074
-495.581	-100.054	-0.270	-0.067
-494.566	-92.957	0.179	-0.050
-493.551	20.821	0.133	-0.107
-492.537	-166.716	0.297	0.012
-491.522	-50.728	0.206	-0.096
-490.508	-106.834	0.153	-0.034
-489.493	800.000	0.012	-0.041
-488.478	157.177	-0.046	-0.064
-487.464	-18.556	-0.234	-0.145
-486.449	-9.986	-0.130	-0.086
-485.435	-97.147	-0.140	0.036
-484.420	800.000	-0.038	-0.148
-483.405	800.000	-0.050	0.139
-482.391	278.768	0.051	0.091
-481.376	-57.819	-0.082	0.036
-480.362	67.900	-0.249	-0.253
-479.347	116.799	-0.140	-0.170
-478.332	800.000	-0.055	0.204
-477.318	-144.077	0.161	0.015
-476.303	-13.438	0.062	-0.040
-475.289	-80.664	-0.322	-0.106
-474.274	190.864	-0.126	-0.188
-473.259	367.391	-0.178	0.358
-472.245	342.994	0.195	-0.380
-471.230	16.433	0.187	0.147
-470.216	-200.000	-0.033	-0.336
-469.201	179.201	-0.351	-0.511
-468.186	-47.581	0.204	-0.098
-467.172	-38.255	-0.124	-0.065
-466.157	800.000	-0.053	-0.190
-465.143	124.002	0.221	0.276
-464.128	67.819	-0.200	0.203
-463.113	-200.000	0.009	-0.043
-462.099	800.000	-0.116	0.317
-461.084	26.432	-0.162	-0.134
-460.070	-57.731	-0.142	-0.062
-459.055	-200.000	0.028	-0.197
-458.040	-98.794	-0.045	0.011
-457.026	217.018	0.099	-0.156
-456.011	10.597	-0.125	0.094
-454.997	-200.000	0.007	-0.132
-453.982	-22.940	0.034	-0.020
-452.968	275.700	-0.172	0.303
-451.953	-200.000	0.052	-0.245
-450.938	88.263	-0.131	0.144
-449.924	-200.000	0.004	0.295
-448.909	-200.000	-0.012	-0.103
-447.895	-68.854	0.247	0.095
-446.880	-200.000	0.021	-0.310
-445.865	-132.375	-0.373	-0.048
-444.851	-120.357	0.229	0.039
-443.836	-200.000	0.008	-0.261
-442.822	157.813	-0.065	0.089
-441.807	241.004	0.132	-0.219
-440.792	117.272	0.183	0.224
-439.778	800.000	-0.028	-0.083
-438.763	-200.000	0.009	-0.219
-437.749	-200.000	0.085	0.508
-436.734	1.490	0.109	-0.078
-435.719	385.972	-0.149	0.305
-434.705	-43.797	-0.179	-0.089
-433.690	800.000	0.090	0.366
-432.676	-134.020	0.390	0.048
-431.661	-130.309	-0.127	-0.017
-430.646	-200.000	0.004	0.040
-429.632	164.477	-0.116	-0.162
-428.617	-0.384	0.252	0.178
-427.603	-1.217	-0.080	0.056
-426.588	346.101	-0.072	0.140
-425.573	-200.000	0.014	0.148
-424.559	-160.699	-0.512	-0.027
-423.544	158.553	-0.137	0.189
-422.530	21.019	-0.350	0.282
-421.515	23.450	0.088	-0.072
-420.500	27.590	-0.060	-0.050
-419.486	-40.139	0.230	0.119
-418.471	-134.330	0.053	0.007
-417.457	-200.000	-0.042	0.335
-416.442	11.829	-0.276	0.210
-415.428	-193.064	-0.059	0.001
-414.413	-128.105	-0.259	-0.037
-413.398	696.323	-0.120	-0.313
-412.384	-112.649	-0.062	0.012
-411.369	-90.533	-0.475	-0.136
-410.355	-83.356	0.205	0.065
-409.340	14.106	-0.200	0.155
-408.325	-27.720	-0.199	0.115
-407.311	25.935	-0.183	0.152
-406.296	-31.483	-0.197	-0.110
-405.282	-86.700	-0.119	0.036
-404.267	800.000	-0.039	-0.150
-403.252	479.880	-0.078	0.175
-402.238	319.704	-0.119	-0.224
-401.223	-200.000	0.036	0.310
-400.209	-55.889	0.199	-0.088
-399.194	45.999	-0.148	0.136
-398.179	-162.108	0.363	-0.018
-397.165	162.648	0.104	-0.144
-396.150	800.000	-0.074	0.296
-395.136	29.157	0.061	0.051
-394.121	-200.000	-0.029	0.214
-393.106	431.726	0.139	0.298
-392.092	-19.617	0.192	0.118
-391.077	-94.694	0.159	0.043
-390.063	-200.000	0.013	-0.116
-389.048	193.998	0.219	-0.328
-388.033	-200.000	0.002	-0.038
-387.019	-57.323	0.110	0.048
-386.004	274.855	-0.106	0.187
-384.990	-200.000	0.015	0.169
-383.975	83.463	0.175	-0.189
-382.960	196.953	-0.131	-0.198
-381.946	-27.131	-0.255	0.147
-380.931	-200.000	0.002	-0.131
-379.917	52.216	0.372	0.351
-378.902	-64.944	-0.493	-0.197
-377.888	58.594	0.238	0.231
-376.873	-135.947	0.245	0.029
-375.858	-15.291	-0.298	0.189
-374.844	-196.201	0.119	0.001
-373.829	2.909	0.164	-0.118
-372.815	66.602	-0.281	0.283
-371.800	17.196	0.071	0.056
-370.785	-19.214	0.160	0.098
-369.771	-47.316	0.119	-0.058
-368.756	-200.000	0.020	-0.360
-367.742	383.097	-0.158	-0.323
-366.727	-35.469	-0.261	0.140
-365.712	707.720	0.092	0.242
-364.698	111.202	-0.127	0.151
-363.683	800.000	-0.071	-0.222
-362.669	220.362	0.052	-0.082
-361.654	-32.219	0.080	-0.044
-360.639	-41.717	0.103	-0.052
-359.625	-38.682	0.168	0.088
-358.610	-56.828	-0.264	0.116
-357.596	112.745	0.186	0.223
-356.581	800.000	-0.089	0.261
-355.566	-131.045	0.153	0.020
-354.552	-158.796	0.470	-0.027
-353.537	-123.612	-0.339	-0.053
-352.523	37.480	0.105	-0.093
-351.508	800.000	-0.035	-0.128
-350.493	800.000	0.013	-0.036
-349.479	-20.468	0.233	0.142
-348.464	-200.000	-0.003	0.091
-347.450	-56.430	-0.137	-0.060
-346.435	-81.286	0.093	-0.030
-345.420	-31.754	0.268	0.149
-344.406	-129.582	-0.184	0.025
-343.391	-124.223	0.416	0.064
-342.377	-64.272	0.136	-0.055
-341.362	-200.000	0.040	-0.225
-340.348	44.329	-0.163	0.148
-339.333	-200.000	0.002	-0.178
-338.318	98.366	0.146	0.167
-337.304	-200.000	-0.001	-0.283
-336.289	302.842	-0.215	0.393
-335.275	-59.153	0.171	0.073
-334.260	416.605	-0.025	0.052
-333.245	6.303	-0.073	0.054
-332.231	266.083	-0.125	0.217
-331.216	-200.000	0.008	-0.080
-330.202	-200.000	0.021	-0.201
-329.187	-98.890	0.093	0.023
-328.172	84.410	0.147	-0.159
-327.158	800.000	0.013	-0.038
-326.143	291.794	-0.095	-0.171
-325.129	267.685	0.131	-0.227
-324.114	499.710	0.130	0.296
-323.099	800.000	0.071	0.203
-322.085	-200.000	-0.009	0.052
-321.070	-200.000	-0.003	0.094
-320.056	800.000	-0.013	-0.052
-319.041	-146.219	0.466	-0.040
-318.026	-78.888	-0.206	-0.069
-317.012	-200.000	0.041	0.282
-315.997	-36.899	0.213	-0.113
-314.983	-116.071	-0.026	-0.005
-313.968	-113.455	-0.173	0.033
-312.953	103.186	-0.091	0.105
-311.939	-36.662	0.235	0.125
-310.924	-23.785	-0.191	-0.113
-309.910	-143.457	-0.067	0.006
-308.895	-88.173	0.097	0.029
-307.880	695.455	-0.100	-0.259
-306.866	-200.000	-0.001	-0.030
-305.851	112.586	0.087	-0.104
-304.837	28.589	-0.165	0.138
-303.822	236.451	0.117	-0.191
-302.807	64.788	-0.191	-0.190
-301.793	-43.935	0.122	0.061
-300.778	-200.000	-0.037	-0.247
-299.764	800.000	0.116	-0.342
-298.749	-29.877	-0.246	0.139
-297.735	-135.043	0.048	0.006
-296.720	174.252	-0.154	0.219
-295.705	62.217	0.131	0.129
-294.691	-200.000	-0.020	-0.452
-293.676	494.691	0.147	0.333
-292.662	-200.000	0.063	-0.282
-291.647	489.620	0.122	-0.275
-290.632	-139.290	0.388	-0.041
-289.618	374.770	-0.137	0.276
-288.603	124.648	-0.144	-0.178
-287.589	288.948	-0.133	-0.237
-286.574	-10.464	0.171	-0.112
-285.559	2.043	-0.268	0.191
-284.545	648.381	-0.030	0.077
-283.530	130.107	-0.092	0.116
-282.516	-200.000	-0.057	0.305
-281.501	-176.689	0.232	0.006
-280.486	-33.322	0.366	0.200
-279.472	374.516	0.024	0.049
-278.457	280.551	0.099	0.174
-277.443	-27.737	-0.112	0.064
-276.428	44.936	-0.231	0.209
-275.413	-35.583	0.281	-0.151
-274.399	-61.597	-0.417	-0.173
-273.384	650.230	0.225	-0.569
-272.370	36.291	0.178	-0.155
-271.355	415.527	0.112	0.235
-270.340	169.228	0.202	-0.285
-269.326	4.103	0.373	-0.269
-268.311	235.276	-0.160	0.261
-267.297	-200.000	-0.021	-0.204
-266.282	-140.938	0.299	-0.030
-265.267	-200.000	-0.030	0.146
-264.253	81.408	-0.053	0.057
-263.238	99.015	0.194	-0.221
-262.224	-200.000	-0.017	0.090
-261.209	173.617	0.077	-0.110
-260.195	-99.116	0.388	0.097
-259.180	-200.000	-0.053	0.463
-258.165	-142.289	0.272	0.027
-257.151	800.000	-0.060	0.231
-256.136	-58.088	-0.108	0.047
-255.122	-135.934	-0.427	0.050
-254.107	-200.000	0.033	0.291
-253.092	-111.647	0.138	0.028
-252.078	143.354	-0.148	0.194
-251.063	800.000	0.036	0.154
-250.049	800.000	-0.065	0.229
-249.034	167.338	0.154	-0.215
-248.019	228.099	-0.142	0.228
-247.005	-64.501	-0.108	0.043
-245.990	304.566	-0.081	-0.148
-244.976	-200.000	-0.024	0.157
-243.961	-200.000	0.027	-0.203
-242.946	66.461	-0.086	0.086
-241.932	226.240	0.115	0.185
-240.917	26.769	-0.081	0.067
-239.903	-80.222	0.343	-0.113
-238.888	800.000	0.068	0.271
-237.873	-200.000	-0.018	-0.273
-236.859	389.974	0.113	0.231
-235.844	-110.957	-0.247	-0.050
-234.830	-57.543	0.244	-0.105
-233.815	638.149	-0.108	0.271
-232.800	-175.850	0.127	-0.003
-231.786	-150.497	0.263	-0.020
-230.771	100.923	0.041	0.047
-229.757	98.822	0.256	0.291
-228.742	240.548	0.096	-0.158
-227.727	-17.413	-0.158	0.098
-226.713	701.760	-0.105	0.273
-225.698	-179.897	0.204	-0.004
-224.684	800.000	-0.052	-0.195
-223.669	267.343	0.178	-0.306
-222.655	15.117	-0.225	0.173
-221.640	800.000	-0.121	0.366
-220.625	0.775	0.122	0.086
-219.611	-41.851	-0.044	-0.022
-218.596	-200.000	-0.077	-0.334
-217.582	448.255	-0.049	0.106
-216.567	-153.784	0.014	0.001
-215.552	-2.077	0.261	-0.181
-214.538	-16.625	0.092	-0.057
-213.523	-15.135	0.286	0.180
-212.509	-42.968	0.069	-0.034
-211.494	800.000	0.063	0.175
-210.479	-23.917	-0.155	0.092
-209.465	-52.418	0.162	-0.074
-208.450	-200.000	0.061	0.271
-207.436	-21.397	0.102	0.061
-206.421	-200.000	-0.039	0.305
-205.406	-108.104	-0.477	0.102
-204.392	-96.666	0.148	0.038
-203.377	-145.631	0.301	-0.027
-202.363	-47.150	-0.379	0.182
-201.348	-37.494	0.131	0.069
-200.333	574.235	-0.173	0.415
-199.319	-84.374	0.038	0.012
-198.304	268.273	0.164	-0.283
-197.290	-200.000	0.009	0.050
-196.275	-200.000	0.032	0.143
-195.260	-99.144	0.096	0.024
-194.246	-200.000	0.030	-0.231
-193.231	323.647	0.105	-0.197
-192.217	136.329	0.088	0.113
-191.202	-200.000	0.009	-0.174
-190.187	90.961	-0.223	0.246
-189.173	-152.892	0.177	0.012
-188.158	15.606	0.065	-0.050
-187.144	-114.228	0.037	-0.007
-186.129	-200.000	0.041	-0.190
-185.114	800.000	-0.024	0.102
-184.100	138.009	-0.148	0.191
-183.085	128.768	0.087	0.109
-182.071	-200.000	0.034	-0.181
-181.056	301.134	0.119	0.215
-180.042	-12.915	0.117	0.075
-179.027	-87.673	0.415	0.123
-178.012	22.325	-0.290	0.233
-176.998	-83.158	-0.055	-0.017
-175.983	243.495	0.123	-0.202
-174.969	-200.000	-0.028	0.194
-173.954	13.481	0.262	-0.200
-172.939	-200.000	0.062	-0.360
-171.925	-108.932	0.267	-0.056
-170.910	-99.945	-0.195	0.048
-169.896	24.098	0.367	-0.298
-168.881	-57.355	-0.199	0.086
-167.866	40.690	0.151	-0.133
-166.852	142.400	-0.213	0.277
-165.837	-200.000	0.015	-0.223
-164.823	89.195	0.275	-0.301
-163.808	-200.000	0.060	-0.509
-162.793	-200.000	-0.091	-0.407
-161.779	-200.000	-0.025	-0.123
-160.764	-130.047	0.095	-0.013
-159.750	1.998	0.254	0.180
-158.735	800.000	0.057	-0.232
-157.720	-36.534	-0.225	0.119
-156.706	-200.000	-0.029	0.206
-155.691	42.676	0.052	-0.046
-154.677	-200.000	-0.044	0.284
-153.662	-57.283	-0.125	0.054
-152.647	156.464	-0.103	-0.139
-151.633	-146.288	-0.247	-0.021
-150.618	244.555	-0.200	0.330
-149.604	4.307	0.314	-0.226
-148.589	20.343	0.092	-0.073
-147.574	130.564	-0.210	0.265
-146.560	162.570	0.179	0.247
-145.545	262.059	-0.120	-0.204
-144.531	-53.426	-0.150	0.068
-143.516	-92.578	-0.279	-0.077
-142.502	242.551	-0.129	0.211
-141.487	-40.192	0.104	-0.053
-140.472	-104.999	0.125	0.028
-139.458	147.910	-0.064	-0.084
-138.443	-6.729	0.104	0.069
-137.429	37.777	0.023	0.020
-136.414	30.841	-0.131	-0.110
-135.399	-115.773	-0.162	0.030
-134.385	-179.696	-0.237	0.005
-133.370	-125.671	0.264	0.039
-132.356	-102.391	0.171	-0.040
-131.341	-137.462	0.424	-0.047
-130.326	321.757	-0.046	0.086
-129.312	-27.914	0.057	-0.032
-128.297	106.702	-0.234	-0.272
-127.283	190.794	-0.064	0.095
-126.268	30.434	-0.137	0.115
-125.253	-154.894	-0.283	-0.018
-124.239	2.668	0.182	0.129
-123.224	800.000	-0.026	0.090
-122.210	528.498	-0.158	-0.366
-121.195	-53.110	0.119	0.054
-120.180	217.888	0.012	0.019
-119.166	429.427	-0.109	0.231
-118.151	-118.279	-0.104	0.018
-117.137	-115.131	0.166	0.031
-116.122	284.780	-0.061	0.108
-115.107	387.302	0.103	-0.208
-114.093	82.243	-0.042	0.044
-113.078	92.041	0.150	0.165
-112.064	-116.297	-0.190	-0.035
-111.049	-7.337	0.149	-0.099
-110.034	-58.549	-0.063	-0.027
-109.020	-131.698	0.306	0.039
-108.005	-200.000	-0.034	0.290
-106.991	337.565	0.051	-0.097
-105.976	410.935	0.092	-0.192
-104.962	130.335	-0.069	0.087
-103.947	332.579	-0.028	-0.053
-102.932	28.110	0.231	0.191
-101.918	53.167	0.115	0.108
-100.903	363.807	0.087	-0.171
-99.889	-28.701	0.197	0.111
-98.874	133.448	0.084	-0.106
-97.859	-124.517	0.063	-0.010
-96.845	-200.000	0.072	0.335
-95.830	78.140	0.212	0.222
-94.816	-87.227	0.200	0.060
-93.801	676.963	-0.098	-0.248
-92.786	309.294	-0.070	-0.128
-91.772	246.724	0.070	-0.116
-90.757	256.487	0.179	0.301
-89.743	-65.079	0.252	0.100
-88.728	-166.067	0.044	-0.002
-87.713	-200.000	-0.028	-0.171
-86.699	800.000	-0.060	-0.201
-85.684	-30.740	0.374	-0.207
-84.670	-144.957	0.438	-0.039
-83.655	-200.000	-0.023	0.334
-82.640	-51.233	0.146	-0.067
-81.626	626.666	0.055	-0.137
-80.611	72.879	-0.196	0.200
-79.597	83.391	0.145	-0.154
-78.582	8.915	-0.104	-0.077
-77.567	-125.347	0.129	0.019
-76.553	-96.390	0.275	0.071
-75.538	-24.356	0.370	0.216
-74.524	56.631	-0.069	0.066
-73.509	-200.000	0.054	0.298
-72.494	144.383	0.161	0.211
-71.480	-100.914	0.176	0.042
-70.465	800.000	-0.057	-0.197
-69.451	57.892	0.281	0.270
-68.436	54.603	-0.292	-0.275
-67.422	185.495	0.124	0.180
-66.407	52.024	-0.140	0.131
-65.392	253.521	0.124	0.207
-64.378	-64.744	-0.071	0.028
-63.363	111.824	0.049	-0.058
-62.349	-200.000	0.178	0.820
-61.334	169.160	-0.741	-1.035
-60.319	69.584	0.700	0.705
-59.305	800.000	-0.472	-1.284
-58.290	354.821	0.815	1.586
-57.276	574.214	0.516	1.231
-56.261	-200.000	125.164	667.735
-55.246	420.789	1580.139	3313.102
-54.232	139.147	2747.542	3534.482
-53.217	87.337	2330.882	2522.098
-52.203	29.675	2072.707	1725.560
-51.188	24.875	1988.275	1612.090
-50.173	23.710	1971.933	1588.364
-49.159	42.146	2044.875	1816.164
-48.144	40.048	2057.910	1808.500
-47.130	25.396	2009.548	1633.815
-46.115	23.244	1998.543	1605.316
-45.100	23.114	1994.775	1601.049
-44.086	23.017	1992.849	1598.566
-43.071	23.061	1990.344	1596.884
-42.057	23.030	1988.604	1595.147
-41.042	22.942	1986.874	1592.901
-40.027	22.982	1984.779	1591.524
-39.013	23.036	1982.823	1590.374
-37.998	23.111	1981.294	1589.758
-36.984	23.083	1979.371	1587.906
-35.969	23.041	1977.731	1586.153
-34.954	22.995	1975.819	1584.143
-33.940	23.067	1974.312	1583.510
-32.925	23.132	1972.760	1582.789
-31.911	23.143	1971.144	1581.522
-30.896	23.114	1969.903	1580.207
-29.881	23.120	1968.492	1579.066
-28.867	23.248	1966.744	1578.742
-27.852	23.136	1965.024	1576.304
-26.838	23.211	1962.548	1574.921
-25.823	23.170	1961.337	1573.521
-24.809	23.063	1960.112	1571.525
-23.794	23.186	1957.366	1570.357
-22.779	23.221	1955.655	1569.231
-21.765	23.109	1954.601	1567.328
-20.750	23.155	1953.295	1566.628
-19.736	23.162	1951.074	1564.842
-18.721	23.224	1949.445	1564.025
-17.706	23.195	1947.857	1562.430
-16.692	23.134	1946.579	1560.805
-15.677	23.173	1944.833	1559.685
-14.663	23.111	1943.628	1558.117
-13.648	23.076	1942.600	1556.919
-12.633	23.134	1941.104	1556.169
-11.619	23.076	1939.987	1554.699
-10.604	23.092	1938.548	1553.627
-9.590	23.110	1937.099	1552.564
-8.575	23.151	1935.337	1551.446
-7.560	23.167	1933.833	1550.321
-6.546	23.122	1932.832	1549.060
-5.531	23.221	1931.309	1548.646
-4.517	23.195	1930.337	1547.583
-3.502	23.145	1929.109	1546.097
-2.487	23.126	1927.951	1544.944
-1.473	23.123	1927.351	1544.371
-0.458	23.206	1922.048	1540.781
0.556	21.372	1901.366	1511.311
1.571	17.116	1882.931	1460.009
2.586	13.239	1906.656	1444.454
3.600	12.450	1940.582	1463.005
4.615	12.402	1934.170	1457.622
5.629	9.602	1835.305	1359.395
6.644	3.671	1723.441	1229.320
7.659	0.527	1690.565	1181.186
8.673	0.206	1688.452	1177.099
9.688	0.226	1686.707	1175.933
10.702	0.180	1685.414	1174.568
11.717	0.048	1681.672	1170.834
12.731	0.445	1680.106	1172.726
13.746	5.016	1689.695	1214.989
14.761	12.106	1704.660	1281.209
15.775	16.219	1711.076	1318.104
16.790	16.714	1711.189	1321.944
17.804	15.821	1707.717	1312.181
18.819	14.982	1704.259	1302.879
19.834	14.370	1701.870	1296.175
20.848	14.090	1700.413	1292.773
21.863	13.820	1699.499	1289.868
22.877	13.612	1697.777	1286.835
23.892	13.356	1696.500	1283.765
24.907	13.264	1695.223	1281.970
25.921	13.230	1693.883	1280.580
26.936	13.266	1693.201	1280.228
27.950	13.351	1691.585	1279.551
28.965	13.400	1690.891	1279.298
29.980	13.306	1691.006	1278.543
30.994	13.405	1690.079	1278.494
32.009	13.472	1688.775	1277.914
33.023	13.543	1687.492	1277.377
34.038	13.543	1687.244	1277.077
35.053	13.576	1685.687	1276.034
36.067	13.480	1684.624	1274.381
37.082	13.459	1683.471	1273.229
38.096	13.427	1682.690	1272.281
39.111	13.469	1682.011	1271.978
40.126	13.531	1681.707	1272.115
41.140	13.435	1680.570	1270.408
42.155	13.366	1679.200	1268.730
43.169	13.327	1677.763	1267.227
44.184	13.323	1676.623	1266.224
45.199	13.217	1676.040	1264.860
46.213	13.295	1674.210	1263.966
47.228	13.303	1673.413	1263.317
48.242	13.351	1671.911	1262.433
49.257	13.458	1670.512	1262.084
50.271	13.424	1669.359	1260.842
51.286	13.446	1668.442	1260.204
52.301	13.464	1666.705	1258.916
53.315	13.411	1665.676	1257.623
54.330	13.407	1663.909	1256.151
55.344	13.314	1663.041	1254.678
56.359	13.331	1661.215	1253.316
57.374	13.340	1660.548	1252.769
58.388	13.420	1658.917	1252.038
59.403	13.352	1657.348	1250.226
60.417	13.300	1656.360	1248.977
61.432	13.336	1654.836	1247.989
62.447	13.279	1653.879	1246.727
63.461	13.199	1652.791	1245.195
64.476	13.225	1651.820	1244.553
65.490	13.188	1650.255	1242.980
66.505	13.227	1649.362	1242.492
67.520	13.216	1648.237	1241.455
68.534	13.228	1647.108	1240.585
69.549	13.252	1645.750	1239.631
70.563	13.262	1644.367	1238.554
71.578	13.272	1643.284	1237.702
72.593	13.208	1642.291	1236.363
73.607	13.220	1641.057	1235.421
74.622	13.194	1639.828	1234.187
75.636	13.116	1639.360	1233.143
76.651	13.220	1638.236	1232.964
77.666	13.226	1637.149	1232.084
78.680	13.203	1636.607	1231.397
79.695	13.183	1635.799	1230.531
80.709	13.170	1634.575	1229.405
81.724	13.278	1633.824	1229.537
82.739	13.261	1632.948	1228.639
83.753	13.379	1631.478	1228.304
84.768	13.370	1630.967	1227.742
85.782	13.319	1630.365	1226.799
86.797	13.418	1629.491	1226.769
87.812	13.403	1628.244	1225.611
88.826	13.408	1626.777	1224.435
89.841	13.398	1625.381	1223.200
90.855	13.361	1624.579	1222.214
91.870	13.354	1623.577	1221.302
92.884	13.448	1622.265	1220.899
93.899	13.449	1621.707	1220.377
94.914	13.485	1620.037	1219.282
95.928	13.407	1619.267	1218.018
96.943	13.494	1617.687	1217.365
97.957	13.540	1615.857	1216.212
98.972	13.437	1614.662	1214.454
99.987	13.504	1613.414	1213.894
101.001	13.455	1611.582	1212.050
102.016	13.417	1610.159	1210.600
103.030	13.507	1608.414	1209.835
104.045	13.505	1607.954	1209.370
105.060	13.402	1607.042	1207.822
106.074	13.427	1605.147	1206.476
107.089	13.428	1603.537	1205.165
108.103	13.383	1602.107	1203.657
109.118	13.348	1600.191	1201.853
110.133	13.293	1598.766	1200.278
111.147	13.310	1597.835	1199.601
112.162	13.212	1596.621	1197.872
113.176	13.338	1595.499	1197.834
114.191	13.330	1593.788	1196.388
115.206	13.408	1592.470	1195.854
116.220	13.375	1591.334	1194.657
117.235	13.311	1590.108	1193.172
118.249	13.262	1588.961	1191.853
119.264	13.309	1587.629	1191.086
120.279	13.279	1586.216	1189.703
121.293	13.289	1584.633	1188.481
122.308	13.308	1583.094	1187.362
123.322	13.268	1581.409	1185.704
124.337	13.380	1579.615	1185.053
125.352	13.210	1578.957	1183.239
126.366	13.305	1577.425	1182.667
127.381	13.337	1576.257	1181.917
128.395	13.314	1575.303	1180.934
129.410	13.223	1573.836	1179.081
130.424	13.200	1572.623	1177.904
131.439	13.338	1571.141	1177.667
132.454	13.315	1569.790	1176.387
133.468	13.290	1568.565	1175.192
134.483	13.408	1566.717	1174.537
135.497	13.362	1565.290	1173.038
136.512	13.377	1564.108	1172.158
137.527	13.389	1562.944	1171.267
138.541	13.391	1561.442	1170.047
139.556	13.401	1560.395	1169.234
140.570	13.397	1559.248	1168.239
141.585	13.504	1557.442	1167.538
142.600	13.522	1556.680	1166.991
143.614	13.518	1554.902	1165.525
144.629	13.610	1553.580	1165.082
145.643	13.648	1552.527	1164.452
146.658	13.668	1550.893	1163.263
147.673	13.613	1549.500	1161.735
148.687	13.657	1547.523	1160.459
149.702	13.675	1545.901	1159.265
150.716	13.535	1544.526	1157.154
151.731	13.535	1542.979	1155.891
152.746	13.576	1541.968	1155.313
153.760	13.651	1540.056	1154.301
154.775	13.557	1539.417	1153.067
155.789	13.654	1537.827	1152.446
156.804	13.636	1536.848	1151.488
157.819	13.641	1535.890	1150.701
158.833	13.699	1534.285	1149.799
159.848	13.725	1533.364	1149.190
160.862	13.734	1532.119	1148.217
161.877	13.825	1530.802	1147.757
162.892	13.713	1529.564	1145.954
163.906	13.607	1528.645	1144.432
164.921	13.666	1527.174	1143.633
165.935	13.673	1526.047	1142.740
166.950	13.719	1524.654	1141.915
167.964	13.634	1523.827	1140.608
168.979	13.818	1522.709	1140.934
169.994	13.737	1521.163	1139.120
171.008	13.807	1520.153	1138.741
172.023	13.731	1518.882	1137.170
173.037	13.791	1518.059	1136.862
174.052	13.807	1516.918	1136.020
175.067	13.830	1515.987	1135.379
176.081	13.800	1515.239	1134.513
177.096	13.768	1513.263	1132.709
178.110	13.784	1511.734	1131.579
179.125	13.775	1511.301	1131.089
180.140	13.713	1510.121	1129.683
181.154	13.880	1508.687	1129.652
182.169	13.971	1507.309	1129.137
183.183	13.940	1506.456	1128.187
184.198	13.817	1505.412	1126.473
185.213	13.944	1504.405	1126.476
186.227	13.984	1503.354	1125.860
187.242	13.968	1502.797	1125.239
188.256	14.079	1500.715	1124.330
189.271	14.001	1499.787	1123.007
190.286	14.066	1499.283	1122.967
191.300	13.966	1498.303	1121.462
192.315	13.909	1496.698	1119.778
193.329	13.862	1495.516	1118.476
194.344	13.878	1494.532	1117.748
195.359	13.902	1493.190	1116.808
196.373	13.880	1492.694	1116.193
197.388	13.982	1490.995	1115.505
198.402	14.062	1490.001	1115.203
199.417	14.181	1488.678	1114.907
200.432	14.106	1488.261	1113.997
201.446	14.218	1486.800	1113.552
202.461	14.228	1485.744	1112.732
203.475	14.280	1484.628	1112.147
204.490	14.207	1483.836	1110.967
205.504	14.296	1482.902	1110.765
206.519	14.146	1481.958	1108.956
207.534	14.230	1480.127	1108.049
208.548	14.197	1479.146	1106.992
209.563	14.106	1478.385	1105.723
210.577	14.230	1477.286	1105.628
211.592	14.236	1476.165	1104.731
212.607	14.413	1475.265	1105.130
213.621	14.367	1474.700	1104.304
214.636	14.368	1473.834	1103.568
215.650	14.338	1472.742	1102.456
216.665	14.393	1471.597	1101.864
217.680	14.349	1470.939	1100.979
218.694	14.335	1470.295	1100.309
219.709	14.364	1469.142	1099.537
220.723	14.445	1468.199	1099.270
221.738	14.459	1467.547	1098.776
222.753	14.457	1466.231	1097.680
223.767	14.409	1465.637	1096.827
224.782	14.346	1464.433	1095.414
225.796	14.449	1463.684	1095.434
226.811	14.504	1462.902	1095.113
227.826	14.621	1461.931	1095.054
228.840	14.453	1460.982	1093.145
229.855	14.526	1459.998	1092.792
230.869	14.519	1459.201	1092.052
231.884	14.525	1457.777	1090.928
232.899	14.514	1456.962	1090.149
233.913	14.477	1455.882	1089.003
234.928	14.511	1454.573	1088.148
235.942	14.430	1453.418	1086.661
236.957	14.442	1452.469	1085.935
237.972	14.431	1451.151	1084.782
238.986	14.547	1449.959	1084.546
240.001	14.515	1449.263	1083.723
241.015	14.506	1447.913	1082.559
242.030	14.561	1446.840	1082.018
243.045	14.564	1445.890	1081.233
244.059	14.591	1445.215	1080.808
245.074	14.720	1444.117	1080.725
246.088	14.758	1443.182	1080.173
247.103	14.697	1442.765	1079.372
248.117	14.742	1441.770	1078.822
249.132	14.715	1441.158	1078.097
250.147	14.901	1439.866	1078.237
251.161	14.800	1439.740	1077.390
252.176	14.936	1438.873	1077.526
253.190	15.018	1438.241	1077.483
254.205	14.976	1437.095	1076.262
255.220	15.041	1436.329	1076.012
256.234	15.121	1435.505	1075.810
257.249	15.055	1434.622	1074.629
258.263	15.102	1433.787	1074.213
259.278	15.044	1432.825	1073.026
260.293	15.145	1431.849	1072.845
261.307	15.130	1431.015	1072.031
262.322	15.158	1430.047	1071.389
263.336	15.176	1429.470	1070.974
264.351	15.246	1428.106	1070.305
265.366	15.167	1427.708	1069.412
266.380	15.232	1426.581	1068.887
267.395	15.397	1425.179	1068.789
268.409	15.281	1424.818	1067.689
269.424	15.273	1423.908	1066.856
270.439	15.341	1422.307	1066.001
271.453	15.195	1421.894	1064.666
272.468	15.267	1420.757	1064.179
273.482	15.289	1419.979	1063.640
274.497	15.257	1419.253	1062.800
275.512	15.236	1418.539	1062.040
276.526	15.178	1417.685	1060.939
277.541	15.292	1416.213	1060.461
278.555	15.298	1415.472	1059.851
279.570	15.296	1414.765	1059.215
280.585	15.420	1413.548	1058.995
281.599	15.441	1412.791	1058.464
282.614	15.421	1412.014	1057.664
283.628	15.518	1410.326	1056.918
284.643	15.430	1409.725	1055.819
285.657	15.408	1408.853	1054.936
286.672	15.468	1407.811	1054.436
287.687	15.363	1406.774	1052.909
288.701	15.412	1405.945	1052.500
289.716	15.473	1405.083	1052.148
290.730	15.555	1404.239	1051.936
291.745	15.524	1403.360	1050.989
292.760	15.492	1402.799	1050.275
293.774	15.588	1401.251	1049.621
294.789	15.466	1400.334	1048.085
295.803	15.513	1400.263	1048.230
296.818	15.467	1398.969	1046.884
297.833	15.661	1397.401	1046.823
298.847	15.685	1396.615	1046.292
299.862	15.557	1395.344	1044.454
300.876	15.642	1394.273	1044.087
301.891	15.668	1393.599	1043.647
302.906	15.631	1393.230	1043.053
303.920	15.782	1391.940	1042.927
304.935	15.712	1391.812	1042.304
305.949	15.757	1391.023	1041.901
306.964	15.812	1389.889	1041.298
307.979	15.787	1389.011	1040.395
308.993	15.901	1387.774	1040.081
310.008	15.848	1386.499	1038.706
311.022	15.896	1385.472	1038.142
312.037	15.869	1384.872	1037.437
313.052	15.933	1383.572	1036.763
314.066	15.877	1382.827	1035.768
315.081	15.901	1381.739	1035.011
316.095	15.920	1380.544	1034.137
317.110	15.841	1379.779	1032.991
318.125	15.788	1379.325	1032.234
319.139	15.927	1378.316	1032.240
320.154	15.932	1377.045	1031.229
321.168	15.894	1376.100	1030.194
322.183	15.819	1375.642	1029.302
323.197	15.874	1374.511	1028.702
324.212	16.008	1372.873	1028.201
325.227	15.996	1372.769	1027.963
326.241	15.918	1371.756	1026.634
327.256	16.003	1370.648	1026.231
328.270	16.011	1369.932	1025.658
329.285	16.006	1369.003	1024.836
330.300	15.954	1367.782	1023.518
331.314	15.940	1367.280	1022.968
332.329	16.044	1366.486	1022.911
333.343	15.938	1365.523	1021.460
334.358	15.976	1365.073	1021.264
335.373	16.066	1364.108	1020.996
336.387	16.137	1362.843	1020.386
337.402	16.092	1362.650	1019.878
338.416	16.141	1361.709	1019.380
339.431	16.163	1360.981	1018.880
340.446	16.195	1360.325	1018.492
341.460	16.276	1359.058	1017.940
342.475	16.348	1357.675	1017.250
343.489	16.290	1357.307	1016.534
344.504	16.335	1356.460	1016.078
345.519	16.301	1355.543	1015.097
346.533	16.389	1354.402	1014.682
347.548	16.502	1353.227	1014.388
348.562	16.453	1353.147	1013.947
349.577	16.379	1352.720	1013.094
350.592	16.418	1351.517	1012.336
351.606	16.345	1350.173	1010.805
352.621	16.286	1349.191	1009.629
353.635	16.393	1348.073	1009.342
354.650	16.430	1347.020	1008.680
355.665	16.462	1346.310	1008.254
356.679	16.518	1344.964	1007.488
357.694	16.392	1344.316	1006.165
358.708	16.511	1342.717	1005.590
359.723	16.496	1342.066	1004.921
360.738	16.520	1341.228	1004.348
361.752	16.538	1340.043	1003.480
362.767	16.505	1339.293	1002.630
363.781	16.493	1338.064	1001.553
364.796	16.606	1337.336	1001.587
365.810	16.597	1336.687	1000.957
366.825	16.642	1335.819	1000.484
367.840	16.637	1335.337	1000.009
368.854	16.653	1334.574	999.443
369.869	16.739	1334.003	999.436
370.883	16.758	1333.285	998.920
371.898	16.708	1332.201	997.725
372.913	16.769	1331.247	997.282
373.927	16.679	1330.768	996.305
374.942	16.743	1329.674	995.773
375.956	16.750	1329.409	995.528
376.971	16.880	1327.965	995.122
377.986	16.838	1327.535	994.465
379.000	16.829	1326.614	993.634
380.015	16.857	1325.671	993.001
381.029	16.957	1324.990	992.994
382.044	16.994	1324.372	992.659
383.059	17.073	1323.683	992.515
384.073	17.005	1323.005	991.522
385.088	16.897	1322.985	990.790
386.102	16.969	1321.841	990.265
387.117	17.139	1320.791	990.381
388.132	17.112	1319.940	989.499
389.146	16.975	1319.203	988.060
390.161	17.020	1318.449	987.668
391.175	16.911	1318.082	986.671
392.190	17.057	1316.711	986.409
393.205	16.956	1316.383	985.485
394.219	17.054	1314.996	984.930
395.234	17.134	1313.402	984.116
396.248	17.082	1312.463	983.020
397.263	17.079	1311.139	981.928
398.278	17.084	1309.487	980.628
399.292	17.028	1308.706	979.634
400.307	17.127	1307.657	979.337
401.321	17.093	1306.830	978.434
402.336	17.093	1305.569	977.404
403.350	17.118	1304.100	976.360
404.365	17.044	1304.047	975.808
405.380	17.112	1303.074	975.386
406.394	17.162	1302.276	974.990
407.409	17.192	1301.401	974.418
408.423	17.208	1300.561	973.796
409.438	17.328	1300.183	974.114
410.453	17.324	1299.195	973.263
411.467	17.376	1298.180	972.714
412.482	17.422	1297.722	972.547
413.496	17.305	1297.569	971.681
414.511	17.404	1296.574	971.411
415.526	17.489	1295.522	971.023
416.540	17.422	1295.097	970.236
417.555	17.508	1294.278	970.030
418.569	17.494	1293.947	969.614
419.584	17.513	1292.781	968.761
420.599	17.523	1292.645	968.634
421.613	99.985	1361.034	1487.163
422.628	98.007	1370.919	1487.254
