DTS Sentinel unit serial number:	SN413079Multiplexer serial number:	ORYXHardware model number:	OX4-SRSoftware version number:	ORYX F/W v4.00 Oryx Data Collector v3.7.2.0data status	okinstallation	princeton_trtdifferential loss correction	single-endedforward channel	channel 4reverse channel	N/Adate	2019/09/12time	23:01:35forward acquisition time	60.00reverse acquisition time	0.00gamma	496.2192k internal	0.2316k external	0.2316temperature offset calibration	1.0178default loss term (dB/km)	0.3790temperature slope calibration	1.0000multiplexer offset coefficient	1.0000multiplexer slope coefficient	1.0000fibre end	0.00T internal ref (°C)	29.31T ext. ref 1 (°C)	3.75T ext. ref 2 (°C)	23.92length (m)	temperature (°C)	Stokes	anti-Stokes-747.200	-200.000	0.024	0.134
-746.185	800.000	-0.095	0.291
-745.171	-200.000	0.018	0.110
-744.156	800.000	-0.086	0.255
-743.142	-133.536	-0.167	0.021
-742.127	-141.415	0.252	0.026
-741.112	-18.805	0.115	-0.072
-740.098	-200.000	-0.022	0.210
-739.083	-200.000	0.034	0.290
-738.069	-129.392	-0.252	-0.035
-737.054	-147.978	0.147	-0.012
-736.039	-97.981	-0.278	-0.073
-735.025	-160.154	0.513	0.028
-734.010	-172.523	-0.151	0.005
-732.996	-183.714	0.230	0.004
-731.981	295.204	0.229	-0.425
-730.966	-9.525	0.141	-0.095
-729.952	37.364	-0.192	-0.172
-728.937	-97.552	-0.174	0.046
-727.923	-22.674	-0.357	-0.218
-726.908	137.904	0.110	0.146
-725.894	-134.952	0.196	-0.024
-724.879	-200.000	0.027	0.148
-723.864	-200.000	-0.028	-0.263
-722.850	-8.744	0.157	-0.106
-721.835	136.567	-0.062	-0.082
-720.821	169.159	-0.135	0.195
-719.806	239.925	0.067	0.112
-718.791	19.735	-0.135	0.110
-717.777	-96.518	-0.326	-0.087
-716.762	800.000	-0.046	0.195
-715.748	-200.000	0.042	0.361
-714.733	-38.919	0.204	0.109
-713.718	73.526	-0.018	0.019
-712.704	187.564	-0.112	-0.169
-711.689	-83.383	0.293	-0.095
-710.675	-83.815	-0.021	0.007
-709.660	-200.000	0.008	-0.300
-708.645	260.650	-0.037	-0.065
-707.631	-3.215	0.174	0.123
-706.616	-104.539	0.206	-0.048
-705.602	-21.520	0.447	0.275
-704.587	-54.502	-0.084	-0.038
-703.572	-81.068	-0.167	0.056
-702.558	-200.000	0.023	0.219
-701.543	13.969	-0.113	-0.089
-700.529	66.323	-0.202	0.207
-699.514	8.818	-0.150	0.115
-698.499	-200.000	-0.008	-0.071
-697.485	800.000	0.093	-0.310
-696.470	143.911	0.216	-0.291
-695.456	91.289	-0.110	-0.125
-694.441	555.034	-0.077	-0.186
-693.426	-109.148	-0.301	0.065
-692.412	12.045	-0.078	-0.061
-691.397	80.055	-0.036	-0.039
-690.383	-88.221	-0.361	-0.109
-689.368	-200.000	-0.032	0.325
-688.354	270.147	0.195	-0.347
-687.339	-200.000	-0.057	-0.292
-686.324	-200.000	0.034	-0.198
-685.310	322.448	-0.036	0.070
-684.295	-135.890	0.066	0.008
-683.281	71.632	0.316	0.332
-682.266	199.298	-0.223	-0.346
-681.251	-9.716	0.219	-0.147
-680.237	-84.748	0.207	0.066
-679.222	139.921	0.215	-0.286
-678.208	-39.651	0.266	0.141
-677.193	292.120	0.140	-0.257
-676.178	-24.601	0.099	0.060
-675.164	-82.251	0.097	0.032
-674.149	-131.128	-0.256	0.034
-673.135	50.869	0.193	-0.185
-672.120	171.980	-0.175	-0.254
-671.105	199.272	-0.208	0.322
-670.091	-100.741	0.256	0.064
-669.076	800.000	0.107	-0.300
-668.062	-37.768	-0.165	-0.089
-667.047	-194.415	-0.172	-0.001
-666.032	201.569	-0.062	0.097
-665.018	-32.112	0.155	0.087
-664.003	248.763	-0.113	-0.193
-662.989	382.360	0.117	-0.244
-661.974	-76.046	0.098	0.035
-660.959	-112.059	-0.125	0.025
-659.945	-11.070	0.195	0.130
-658.930	470.455	-0.101	-0.229
-657.916	-81.326	-0.267	0.089
-656.901	-200.000	-0.011	0.158
-655.886	-200.000	-0.019	-0.500
-654.872	38.909	0.118	-0.106
-653.857	-200.000	0.010	0.123
-652.843	263.216	-0.228	0.400
-651.828	94.780	0.315	0.361
-650.814	-200.000	-0.029	-0.231
-649.799	-133.957	0.351	0.044
-648.784	169.027	-0.118	-0.171
-647.770	800.000	-0.221	-0.621
-646.755	-8.441	-0.171	-0.116
-645.741	-200.000	0.011	-0.129
-644.726	-146.482	-0.105	-0.009
-643.711	800.000	-0.050	0.217
-642.697	447.408	-0.092	-0.204
-641.682	541.494	-0.186	0.447
-640.668	-163.318	0.241	-0.012
-639.653	-200.000	-0.038	-0.242
-638.638	-32.156	0.108	0.061
-637.624	800.000	-0.062	0.184
-636.609	-108.374	-0.075	-0.016
-635.595	-200.000	0.010	0.137
-634.580	131.425	0.218	0.283
-633.565	80.263	0.051	-0.055
-632.551	366.314	0.059	-0.121
-631.536	-58.644	-0.193	0.084
-630.522	-142.913	-0.307	-0.030
-629.507	134.653	0.123	-0.161
-628.492	245.446	-0.076	-0.129
-627.478	800.000	-0.085	-0.290
-626.463	-200.000	-0.029	-0.251
-625.449	-149.781	-0.225	0.018
-624.434	800.000	0.057	-0.202
-623.419	331.858	0.067	-0.131
-622.405	97.291	-0.186	-0.215
-621.390	-17.553	0.153	-0.097
-620.376	-200.000	-0.002	-0.179
-619.361	-143.032	-0.117	0.011
-618.346	-110.090	-0.209	-0.044
-617.332	13.825	0.121	-0.095
-616.317	93.880	0.247	0.282
-615.303	-102.031	0.360	0.087
-614.288	-200.000	0.009	0.246
-613.273	-200.000	0.006	0.389
-612.259	-148.856	-0.236	0.019
-611.244	-96.865	0.143	-0.038
-610.230	73.458	0.051	-0.054
-609.215	348.111	-0.118	0.235
-608.201	155.881	-0.048	0.067
-607.186	351.849	-0.133	0.265
-606.171	46.278	-0.098	0.092
-605.157	-154.745	0.064	0.004
-604.142	-82.931	0.138	-0.045
-603.128	-134.902	-0.331	0.040
-602.113	-179.478	0.098	0.002
-601.098	42.033	-0.115	-0.105
-600.084	149.405	-0.091	-0.125
-599.069	-138.824	0.062	-0.007
-598.055	24.994	0.175	0.146
-597.040	2.910	0.058	-0.042
-596.025	-90.865	0.325	-0.094
-595.011	768.459	-0.098	-0.268
-593.996	29.637	0.201	-0.172
-592.982	-200.000	-0.002	0.163
-591.967	12.623	0.215	-0.167
-590.952	8.712	-0.170	0.129
-589.938	86.074	-0.062	-0.068
-588.923	37.236	0.119	-0.106
-587.909	800.000	0.131	-0.388
-586.894	46.912	-0.096	-0.090
-585.879	4.839	0.268	-0.198
-584.865	-200.000	-0.029	0.189
-583.850	800.000	-0.116	-0.386
-582.836	-151.431	-0.343	0.026
-581.821	-79.252	-0.450	0.153
-580.806	286.274	0.156	0.284
-579.792	-99.308	0.284	-0.072
-578.777	-13.430	0.212	-0.138
-577.763	-60.545	-0.316	0.135
-576.748	-68.403	-0.371	-0.145
-575.733	-57.280	0.217	0.096
-574.719	-151.801	-0.183	-0.014
-573.704	-153.061	0.110	-0.008
-572.690	86.491	0.013	0.015
-571.675	-200.000	0.019	0.216
-570.661	67.309	-0.075	-0.077
-569.646	86.236	-0.144	-0.160
-568.631	181.753	-0.101	0.149
-567.617	-19.533	0.147	-0.091
-566.602	-75.927	0.254	0.090
-565.588	-54.580	0.182	0.083
-564.573	17.372	-0.315	-0.252
-563.558	560.658	-0.075	-0.183
-562.544	-161.300	-0.048	0.002
-561.529	800.000	0.050	-0.219
-560.515	-144.874	0.286	-0.026
-559.500	-200.000	0.014	0.073
-558.485	243.437	0.036	0.061
-557.471	141.989	0.234	-0.312
-556.456	-144.083	0.340	-0.032
-555.442	25.496	-0.176	0.147
-554.427	-119.166	-0.127	0.022
-553.412	-200.000	-0.025	0.186
-552.398	-163.120	0.183	0.009
-551.383	-112.079	-0.437	0.088
-550.369	74.615	-0.168	0.178
-549.354	115.631	-0.204	0.250
-548.339	-151.344	-0.115	-0.009
-547.325	-200.000	-0.017	0.384
-546.310	-200.000	0.019	-0.404
-545.296	211.426	0.264	-0.418
-544.281	-136.622	0.286	-0.033
-543.266	-147.089	-0.275	-0.024
-542.252	65.884	0.261	-0.266
-541.237	-13.678	-0.133	-0.087
-540.223	-64.464	0.227	-0.093
-539.208	-200.000	0.003	0.262
-538.193	335.060	0.090	0.176
-537.179	-200.000	0.007	0.118
-536.164	22.295	-0.361	-0.296
-535.150	800.000	0.068	-0.240
-534.135	212.240	0.022	-0.035
-533.121	-200.000	-0.009	-0.062
-532.106	-78.873	0.425	0.145
-531.091	176.440	-0.113	-0.165
-530.077	800.000	-0.098	-0.293
-529.062	80.818	-0.032	0.035
-528.048	-139.780	0.321	-0.034
-527.033	99.238	-0.082	-0.095
-526.018	-176.861	-0.270	-0.007
-525.004	38.459	-0.036	-0.032
-523.989	-200.000	-0.013	-0.191
-522.975	-189.366	-0.156	-0.002
-521.960	183.604	0.028	-0.041
-520.945	800.000	0.063	-0.208
-519.931	444.471	0.196	-0.433
-518.916	156.805	0.268	0.372
-517.902	-13.578	-0.052	-0.034
-516.887	118.854	-0.189	-0.235
-515.872	-119.986	0.275	0.047
-514.858	287.015	-0.048	-0.088
-513.843	-100.987	-0.311	0.077
-512.829	256.883	-0.128	-0.221
-511.814	-200.000	-0.014	-0.296
-510.799	-87.312	0.167	0.051
-509.785	-10.021	-0.059	0.039
-508.770	-200.000	0.026	0.183
-507.756	-200.000	0.181	-0.001
-506.741	-76.683	-0.138	0.048
-505.726	-35.917	-0.307	-0.167
-504.712	-112.560	-0.297	0.059
-503.697	-162.510	0.279	-0.014
-502.683	164.526	-0.210	-0.297
-501.668	6.959	-0.110	-0.082
-500.653	-71.345	-0.141	0.053
-499.639	-41.553	0.349	0.180
-498.624	107.189	0.185	0.220
-497.610	-79.314	0.273	-0.093
-496.595	800.000	-0.018	-0.059
-495.581	61.485	-0.352	-0.351
-494.566	101.823	0.126	0.147
-493.551	256.288	-0.108	-0.187
-492.537	226.813	0.023	0.037
-491.522	3.955	-0.070	0.051
-490.508	185.419	-0.222	-0.331
-489.493	-116.511	-0.189	0.035
-488.478	199.534	-0.061	-0.094
-487.464	-194.296	0.398	0.003
-486.449	-96.161	-0.167	-0.045
-485.435	-128.646	-0.250	0.035
-484.420	755.138	-0.016	-0.042
-483.405	-74.526	0.377	-0.136
-482.391	187.848	0.185	0.277
-481.376	800.000	0.092	0.256
-480.362	-110.300	0.129	-0.027
-479.347	-200.000	0.012	-0.129
-478.332	-200.000	-0.038	0.184
-477.318	-109.734	0.242	-0.051
-476.303	-200.000	-0.041	0.255
-475.289	307.739	-0.243	-0.455
-474.274	-200.000	-0.010	-0.390
-473.259	23.280	-0.194	-0.160
-472.245	349.795	0.068	0.136
-471.230	30.110	-0.020	0.017
-470.216	-200.000	-0.034	0.255
-469.201	166.104	-0.028	-0.039
-468.186	-16.923	-0.126	-0.080
-467.172	-178.912	-0.293	0.007
-466.157	-101.027	-0.086	-0.021
-465.143	-45.194	-0.315	0.157
-464.128	-200.000	-0.044	-0.390
-463.113	197.371	0.055	0.084
-462.099	240.292	-0.131	0.219
-461.084	-137.837	-0.230	0.026
-460.070	-200.000	0.001	-0.239
-459.055	-89.190	-0.148	0.044
-458.040	-200.000	-0.002	-0.053
-457.026	-200.000	-0.019	-0.211
-456.011	538.580	0.129	0.306
-454.997	-108.791	0.236	0.051
-453.982	29.650	-0.106	0.091
-452.968	475.841	0.081	-0.183
-451.953	74.360	-0.074	0.078
-450.938	-200.000	-0.031	-0.222
-449.924	774.081	0.060	0.163
-448.909	12.138	0.098	0.075
-447.895	61.268	0.251	0.250
-446.880	-132.100	0.217	-0.028
-445.865	599.395	0.085	-0.212
-444.851	-103.380	-0.234	-0.055
-443.836	78.455	0.126	-0.135
-442.822	-20.834	0.156	0.096
-441.807	-200.000	0.114	-0.511
-440.792	26.076	-0.040	0.033
-439.778	-200.000	-0.026	-0.129
-438.763	-200.000	-0.019	0.163
-437.749	-70.087	0.184	0.070
-436.734	800.000	0.170	-0.470
-435.719	269.290	-0.108	-0.190
-434.705	0.111	-0.305	0.217
-433.690	800.000	-0.048	0.205
-432.676	800.000	0.102	0.290
-431.661	87.922	0.116	0.128
-430.646	-148.037	0.202	0.017
-429.632	127.479	-0.257	-0.327
-428.617	48.972	0.223	0.209
-427.603	-35.850	0.087	0.047
-426.588	-7.814	0.240	-0.162
-425.573	-70.534	-0.377	-0.143
-424.559	28.360	-0.178	0.151
-423.544	191.023	0.163	-0.246
-422.530	-200.000	0.007	0.152
-421.515	37.177	-0.064	-0.056
-420.500	133.147	-0.186	0.240
-419.486	-57.006	-0.275	0.121
-418.471	800.000	0.067	-0.281
-417.457	707.685	0.044	0.116
-416.442	30.391	0.318	-0.271
-415.428	768.410	0.052	-0.140
-414.413	10.252	0.121	-0.092
-413.398	195.874	-0.051	-0.077
-412.384	695.378	0.119	0.313
-411.369	714.213	-0.078	0.208
-410.355	-196.712	0.407	-0.003
-409.340	-200.000	0.032	-0.222
-408.325	335.535	0.128	0.249
-407.311	-23.869	0.205	-0.122
-406.296	39.635	0.106	0.095
-405.282	800.000	-0.053	0.171
-404.267	221.754	0.103	0.166
-403.252	-200.000	-0.041	0.258
-402.238	-50.492	-0.124	-0.058
-401.223	499.546	0.113	-0.259
-400.209	-103.846	-0.052	-0.012
-399.194	-200.000	-0.007	0.061
-398.179	-200.000	-0.004	-0.034
-397.165	10.261	-0.172	0.131
-396.150	-200.000	0.047	-0.248
-395.136	-62.771	0.169	0.070
-394.121	-200.000	-0.016	0.272
-393.106	800.000	0.067	0.234
-392.092	10.268	-0.046	0.035
-391.077	-194.113	-0.210	0.002
-390.063	800.000	0.016	-0.044
-389.048	-200.000	-0.001	0.082
-388.033	-127.012	0.278	0.041
-387.019	-32.035	-0.143	0.080
-386.004	209.654	-0.071	-0.111
-384.990	794.669	0.052	-0.143
-383.975	17.499	-0.101	0.080
-382.960	3.299	0.121	0.088
-381.946	-88.861	-0.251	-0.074
-380.931	800.000	0.092	0.366
-379.917	800.000	-0.055	0.209
-378.902	-4.265	0.180	0.125
-377.888	338.773	-0.092	-0.180
-376.873	21.288	-0.116	0.094
-375.858	-118.882	-0.369	0.065
-374.844	-43.423	-0.363	0.183
-373.829	-200.000	0.019	0.225
-372.815	-110.032	0.221	0.046
-371.800	200.193	0.171	0.263
-370.785	-173.683	0.182	0.005
-369.771	110.610	0.095	0.114
-368.756	51.942	0.308	0.292
-367.742	-109.063	0.159	-0.034
-366.727	-200.000	0.010	0.208
-365.712	246.155	-0.166	0.280
-364.698	800.000	-0.063	0.237
-363.683	-149.993	0.235	-0.018
-362.669	223.507	0.173	0.278
-361.654	256.944	-0.141	0.242
-360.639	-99.592	0.319	-0.080
-359.625	-14.122	-0.110	-0.071
-358.610	-133.233	0.308	-0.039
-357.596	184.981	0.153	-0.227
-356.581	-67.692	-0.387	-0.151
-355.566	-69.260	-0.091	-0.035
-354.552	0.804	0.124	-0.088
-353.537	6.575	0.144	0.107
-352.523	370.558	0.161	0.326
-351.508	54.970	-0.238	0.230
-350.493	800.000	-0.101	0.350
-349.479	27.269	0.111	-0.093
-348.464	236.744	-0.092	0.152
-347.450	-200.000	-0.068	0.425
-346.435	-42.205	0.306	0.156
-345.420	-66.370	-0.242	-0.096
-344.406	-48.994	-0.184	-0.088
-343.391	-59.624	0.199	0.085
-342.377	-77.442	-0.231	-0.080
-341.362	-84.105	-0.048	-0.015
-340.348	-94.329	0.159	-0.043
-339.333	-115.886	0.159	0.030
-338.318	-43.943	0.314	-0.157
-337.304	-46.510	0.153	0.075
-336.289	-137.406	0.380	-0.043
-335.275	71.088	0.027	-0.028
-334.260	-77.531	-0.265	-0.092
-333.245	169.661	-0.060	0.085
-332.231	-200.000	-0.052	0.481
-331.216	277.114	0.091	0.162
-330.202	207.634	-0.057	0.089
-329.187	43.886	-0.089	0.081
-328.172	15.360	-0.200	0.156
-327.158	-105.441	-0.224	0.051
-326.143	-45.894	-0.133	-0.065
-325.129	-191.070	-0.097	0.001
-324.114	-200.000	0.005	0.052
-323.099	800.000	-0.050	0.200
-322.085	-200.000	-0.021	-0.162
-321.070	466.003	0.037	0.083
-320.056	-200.000	-0.046	-0.221
-319.041	-4.913	-0.379	0.260
-318.026	-14.358	0.202	-0.130
-317.012	-54.670	-0.326	0.147
-315.997	-200.000	0.009	-0.145
-314.983	23.184	0.098	0.080
-313.968	800.000	-0.072	-0.300
-312.953	97.883	0.180	-0.206
-311.939	-119.740	-0.298	0.051
-310.924	-33.427	0.105	-0.058
-309.910	-95.970	0.228	-0.060
-308.895	161.659	-0.282	0.393
-307.880	800.000	0.004	-0.013
-306.866	-112.459	-0.215	0.043
-305.851	-71.360	-0.184	-0.069
-304.837	18.113	-0.294	-0.234
-303.822	26.603	0.134	0.112
-302.807	177.479	-0.300	-0.436
-301.793	193.370	0.256	-0.385
-300.778	-84.285	0.138	-0.043
-299.764	-63.316	0.308	-0.126
-298.749	-148.234	0.208	-0.017
-297.735	-93.790	-0.181	-0.050
-296.720	-69.647	-0.149	-0.057
-295.705	607.803	0.082	0.204
-294.691	18.697	0.256	0.204
-293.676	-180.771	-0.091	-0.002
-292.662	239.475	-0.066	-0.110
-291.647	56.443	-0.145	0.141
-290.632	-174.808	-0.213	-0.006
-289.618	800.000	0.068	-0.263
-288.603	-62.064	-0.331	-0.138
-287.589	-200.000	0.017	-0.245
-286.574	-113.854	0.430	-0.083
-285.559	-63.284	-0.256	0.105
-284.545	-118.277	0.023	0.004
-283.530	106.356	-0.366	-0.432
-282.516	-63.776	-0.028	0.012
-281.501	800.000	0.034	0.104
-280.486	7.577	0.176	0.131
-279.472	104.129	-0.148	0.173
-278.457	121.201	-0.334	0.413
-277.443	192.586	-0.111	-0.166
-276.428	-200.000	-0.014	0.232
-275.413	206.557	0.159	-0.246
-274.399	106.657	0.113	-0.134
-273.384	-3.186	-0.136	-0.094
-272.370	-106.098	-0.152	-0.034
-271.355	-200.000	-0.075	0.580
-270.340	85.478	0.175	-0.191
-269.326	800.000	0.025	0.093
-268.311	23.534	0.092	0.075
-267.297	-25.196	-0.337	0.198
-266.282	-8.591	0.144	-0.096
-265.267	-200.000	0.019	0.172
-264.253	-4.926	0.187	-0.128
-263.238	-101.800	-0.265	0.064
-262.224	162.643	-0.214	-0.299
-261.209	131.131	-0.190	0.242
-260.195	-99.294	0.655	-0.164
-259.180	-71.902	-0.174	0.064
-258.165	202.201	-0.118	-0.181
-257.151	-100.025	-0.221	0.055
-256.136	800.000	0.126	0.422
-255.122	125.603	0.163	0.204
-254.107	800.000	0.031	0.095
-253.092	107.400	0.351	0.415
-252.078	358.621	-0.146	0.291
-251.063	-200.000	-0.015	0.112
-250.049	-200.000	-0.017	-0.599
-249.034	-189.962	0.258	-0.003
-248.019	-169.660	-0.333	0.012
-247.005	-58.815	-0.289	0.124
-245.990	-175.711	-0.171	0.005
-244.976	-44.194	0.072	-0.036
-243.961	-125.374	0.134	0.020
-242.946	-29.335	-0.452	-0.257
-241.932	-175.441	-0.223	0.006
-240.917	-200.000	0.015	-0.181
-239.903	800.000	0.049	-0.141
-238.888	33.541	0.044	-0.038
-237.873	-200.000	-0.006	-0.058
-236.859	-78.538	-0.233	0.079
-235.844	265.928	-0.033	0.058
-234.830	-105.674	0.334	0.075
-233.815	-200.000	-0.034	-0.149
-232.800	-23.592	-0.205	-0.122
-231.786	226.745	-0.140	0.225
-230.771	-80.162	-0.196	-0.065
-229.757	-200.000	-0.017	-0.124
-228.742	185.752	0.105	0.154
-227.727	581.252	-0.035	-0.084
-226.713	642.184	0.043	0.109
-225.698	188.047	-0.131	-0.195
-224.684	-200.000	-0.027	-0.172
-223.669	-98.366	-0.313	0.080
-222.655	786.007	0.153	-0.417
-221.640	166.434	-0.299	-0.421
-220.625	-91.699	0.196	-0.055
-219.611	565.251	0.076	0.183
-218.596	-162.145	-0.052	-0.003
-217.582	-135.972	-0.216	-0.025
-216.567	-117.584	0.240	-0.043
-215.552	11.484	0.092	0.070
-214.538	-96.107	-0.087	-0.023
-213.523	-48.309	-0.227	-0.109
-212.509	-72.706	-0.122	0.044
-211.494	359.679	0.191	0.378
-210.479	-200.000	-0.013	0.261
-209.465	103.075	0.156	-0.181
-208.450	-121.050	-0.285	0.047
-207.436	-200.000	-0.034	0.284
-206.421	35.311	0.206	0.179
-205.406	-141.156	0.167	0.017
-204.392	-33.379	0.152	0.084
-203.377	-200.000	0.024	-0.470
-202.363	-68.067	0.094	0.036
-201.348	651.711	-0.082	0.208
-200.333	30.024	-0.047	0.040
-199.319	-44.773	-0.145	-0.072
-198.304	-83.265	0.223	-0.071
-197.290	65.950	-0.280	-0.281
-196.275	1.968	0.179	-0.128
-195.260	-200.000	0.025	0.174
-194.246	-200.000	-0.003	0.140
-193.231	800.000	0.082	0.308
-192.217	-122.167	-0.310	-0.050
-191.202	240.085	0.098	0.161
-190.187	190.484	0.128	-0.190
-189.173	-200.000	0.017	0.355
-188.158	-200.000	0.017	0.224
-187.144	-43.969	-0.217	0.108
-186.129	-91.997	0.234	0.066
-185.114	-30.343	0.177	-0.100
-184.100	-33.715	0.202	0.110
-183.085	-168.242	-0.101	-0.004
-182.071	-124.570	-0.329	-0.051
-181.056	35.439	-0.060	-0.052
-180.042	37.850	0.278	-0.245
-179.027	-89.280	0.081	-0.024
-178.012	-117.699	0.605	0.108
-176.998	20.170	0.138	0.110
-175.983	-127.589	-0.329	0.047
-174.969	734.306	0.129	0.343
-173.954	-200.000	0.049	-0.324
-172.939	-187.038	0.183	0.002
-171.925	-19.400	0.139	0.085
-170.910	279.336	-0.029	0.051
-169.896	379.385	-0.085	-0.173
-168.881	800.000	-0.037	0.119
-167.866	-200.000	-0.028	0.202
-166.852	-48.975	0.123	-0.058
-165.837	529.487	0.089	0.209
-164.823	-87.422	0.202	-0.061
-163.808	-200.000	-0.038	0.213
-162.793	369.820	0.138	0.276
-161.779	-200.000	0.014	0.064
-160.764	-128.007	0.364	-0.052
-159.750	-140.007	0.110	0.012
-158.735	-120.861	-0.072	-0.012
-157.720	-200.000	-0.003	-0.259
-156.706	291.049	-0.060	-0.108
-155.691	622.295	-0.039	0.098
-154.677	61.640	0.237	-0.233
-153.662	141.092	0.124	0.162
-152.647	525.743	0.042	-0.099
-151.633	-30.520	0.539	-0.302
-150.618	-62.322	-0.329	-0.136
-149.604	-28.457	0.297	-0.169
-148.589	243.435	-0.035	0.058
-147.574	-15.438	0.251	0.159
-146.560	-18.301	-0.253	0.156
-145.545	-43.246	-0.166	0.083
-144.531	-89.943	0.393	-0.114
-143.516	93.196	-0.146	0.164
-142.502	-110.081	0.216	0.045
-141.487	341.491	0.117	0.225
-140.472	800.000	-0.026	0.090
-139.458	20.637	0.192	0.154
-138.443	-200.000	0.004	0.069
-137.429	-200.000	-0.057	0.254
-136.414	-200.000	0.011	0.139
-135.399	-87.327	0.246	0.074
-134.385	100.258	0.152	-0.175
-133.370	-9.074	-0.256	0.169
-132.356	-134.027	-0.329	-0.040
-131.341	3.576	-0.152	0.109
-130.326	13.226	0.273	-0.209
-129.312	-200.000	-0.009	-0.242
-128.297	-200.000	0.019	-0.092
-127.283	-200.000	-0.016	-0.327
-126.268	-6.755	0.139	-0.094
-125.253	167.349	-0.031	0.044
-124.239	-4.974	-0.134	0.092
-123.224	-22.669	0.335	-0.200
-122.210	11.666	0.142	-0.108
-121.195	-117.334	0.216	-0.039
-120.180	62.902	0.135	-0.134
-119.166	-39.699	-0.034	0.017
-118.151	-27.548	-0.423	-0.243
-117.137	456.113	0.030	-0.067
-116.122	169.912	0.168	-0.237
-115.107	-140.246	-0.234	-0.024
-114.093	496.824	0.062	-0.141
-113.078	-59.252	0.287	0.122
-112.064	800.000	0.010	0.044
-111.049	120.777	-0.298	0.366
-110.034	-108.355	0.133	-0.028
-109.020	370.065	-0.166	0.332
-108.005	-200.000	-0.003	-0.294
-106.991	-200.000	-0.012	0.149
-105.976	-193.087	-0.350	0.003
-104.962	2.476	0.089	0.063
-103.947	-200.000	0.069	0.381
-102.932	-200.000	-0.010	0.063
-101.918	-13.322	-0.120	0.077
-100.903	-200.000	0.027	0.208
-99.889	347.807	0.165	-0.321
-98.874	-79.207	0.160	0.054
-97.859	85.895	-0.104	-0.113
-96.845	155.120	0.062	-0.084
-95.830	-101.455	0.089	0.021
-94.816	77.000	-0.173	-0.182
-93.801	-200.000	0.025	-0.385
-92.786	800.000	-0.054	0.191
-91.772	800.000	-0.012	0.047
-90.757	-200.000	0.018	-0.170
-89.743	-49.233	-0.239	0.113
-88.728	-178.484	-0.249	-0.006
-87.713	-132.903	-0.320	0.040
-86.699	-126.266	0.193	-0.028
-85.684	382.707	0.101	-0.205
-84.670	-64.551	0.328	0.131
-83.655	-104.702	0.386	-0.088
-82.640	49.037	0.134	-0.124
-81.626	248.657	-0.180	-0.301
-80.611	15.484	-0.036	0.028
-79.597	800.000	0.080	0.265
-78.582	-41.181	0.059	-0.030
-77.567	336.044	0.147	0.281
-76.553	-200.000	-0.002	-0.125
-75.538	800.000	0.050	0.139
-74.524	429.061	-0.047	-0.101
-73.509	-46.860	-0.065	0.031
-72.494	489.604	0.076	0.173
-71.480	-82.102	0.171	-0.055
-70.465	-131.282	0.311	-0.041
-69.451	-200.000	0.011	0.128
-68.436	-150.630	0.269	-0.020
-67.422	344.497	-0.097	0.187
-66.407	-200.000	-0.007	0.062
-65.392	-200.000	-0.005	0.064
-64.378	800.000	0.046	0.163
-63.363	193.409	0.122	0.183
-62.349	800.000	0.038	0.108
-61.334	133.978	-0.796	-1.016
-60.319	145.721	0.447	0.590
-59.305	800.000	-0.342	-1.027
-58.290	313.872	0.568	1.054
-57.276	270.937	0.929	1.612
-56.261	-200.000	109.790	605.246
-55.246	498.316	1503.532	3413.756
-54.232	174.824	2693.643	3843.452
-53.217	99.836	2316.643	2645.488
-52.203	35.454	2065.537	1786.998
-51.188	31.178	1982.130	1676.461
-50.173	29.762	1965.799	1649.952
-49.159	45.092	2024.461	1838.636
-48.144	45.430	2040.143	1855.877
-47.130	31.624	1997.936	1693.592
-46.115	29.328	1987.565	1664.040
-45.100	29.354	1984.416	1661.577
-44.086	29.240	1982.210	1658.636
-43.071	29.210	1979.620	1656.137
-42.057	29.091	1978.081	1653.713
-41.042	29.145	1975.855	1652.271
-40.027	29.222	1974.180	1651.494
-39.013	29.279	1971.970	1650.091
-37.998	29.225	1970.047	1647.933
-36.984	29.247	1968.217	1646.531
-35.969	29.308	1965.774	1644.967
-34.954	29.270	1964.562	1643.551
-33.940	29.312	1962.762	1642.350
-32.925	29.407	1960.924	1641.597
-31.911	29.204	1959.857	1638.833
-30.896	29.314	1958.254	1638.407
-29.881	29.277	1956.576	1636.607
-28.867	29.310	1955.317	1635.783
-27.852	29.297	1953.168	1633.802
-26.838	29.376	1951.251	1632.832
-25.823	29.426	1949.204	1631.497
-24.809	29.286	1948.258	1629.407
-23.794	29.359	1946.134	1628.205
-22.779	29.342	1944.372	1626.520
-21.765	29.297	1942.944	1624.861
-20.750	29.280	1941.408	1623.368
-19.736	29.270	1940.044	1622.074
-18.721	29.346	1938.197	1621.133
-17.706	29.385	1936.236	1619.770
-16.692	29.389	1934.239	1618.068
-15.677	29.408	1932.908	1617.063
-14.663	29.369	1931.367	1615.363
-13.648	29.284	1930.853	1614.128
-12.633	29.328	1929.205	1613.066
-11.619	29.318	1927.794	1611.739
-10.604	29.354	1926.573	1610.967
-9.590	29.293	1925.103	1609.139
-8.575	29.331	1923.803	1608.324
-7.560	29.309	1922.713	1607.160
-6.546	29.321	1921.064	1605.819
-5.531	29.333	1919.832	1604.828
-4.517	29.321	1918.852	1603.840
-3.502	29.321	1917.907	1602.984
-2.487	29.330	1916.253	1601.620
-1.473	29.316	1915.079	1600.453
-0.458	29.440	1910.304	1597.475
0.556	30.896	1890.533	1567.852
1.571	26.617	1870.648	1515.505
2.586	22.378	1892.383	1497.003
3.600	21.317	1927.613	1515.545
4.615	20.738	1921.286	1505.430
5.629	16.369	1822.221	1391.764
6.644	8.194	1706.955	1240.277
7.659	4.117	1670.927	1182.913
8.673	3.729	1667.527	1177.445
9.688	3.757	1666.980	1177.170
10.702	3.784	1665.398	1176.155
11.717	3.740	1662.094	1173.378
12.731	4.210	1661.590	1176.486
13.746	9.804	1674.636	1228.304
14.761	18.679	1693.972	1310.439
15.775	23.301	1702.362	1352.187
16.790	23.785	1701.738	1355.263
17.804	23.102	1699.033	1347.791
18.819	22.311	1696.749	1339.835
19.834	21.952	1694.335	1335.080
20.848	21.907	1693.472	1333.941
21.863	21.848	1692.611	1332.699
22.877	21.786	1691.685	1331.375
23.892	21.684	1690.329	1329.416
24.907	21.669	1689.212	1328.309
25.921	21.561	1687.826	1326.287
26.936	21.517	1686.405	1324.715
27.950	21.529	1686.064	1324.422
28.965	21.588	1685.393	1324.221
29.980	21.633	1684.811	1323.993
30.994	21.755	1683.500	1323.765
32.009	21.779	1683.322	1323.686
33.023	22.026	1682.548	1324.826
34.038	22.044	1681.135	1323.730
35.053	21.882	1680.365	1321.792
36.067	21.751	1678.606	1319.303
37.082	21.695	1677.862	1318.183
38.096	21.670	1676.589	1316.871
39.111	21.768	1675.919	1316.968
40.126	21.794	1675.260	1316.526
41.140	21.809	1674.063	1315.583
42.155	21.528	1672.614	1312.221
43.169	21.218	1670.607	1308.210
44.184	21.076	1669.716	1306.330
45.199	21.183	1668.098	1305.754
46.213	21.189	1667.668	1305.342
47.228	21.356	1666.853	1305.843
48.242	21.503	1666.212	1306.317
49.257	21.618	1665.310	1306.354
50.271	21.705	1663.869	1305.759
51.286	21.509	1662.587	1303.173
52.301	21.648	1661.089	1302.923
53.315	21.597	1659.697	1301.331
54.330	21.584	1658.038	1299.820
55.344	21.337	1656.930	1297.004
56.359	21.244	1655.217	1294.859
57.374	21.235	1653.860	1293.621
58.388	21.233	1652.527	1292.448
59.403	21.121	1651.793	1290.930
60.417	21.033	1650.196	1288.916
61.432	21.005	1649.136	1287.771
62.447	20.870	1647.870	1285.672
63.461	20.869	1646.284	1284.308
64.476	20.877	1645.181	1283.392
65.490	20.701	1644.673	1281.590
66.505	20.894	1642.766	1281.410
67.520	20.721	1642.352	1279.703
68.534	20.761	1641.222	1278.998
69.549	20.897	1639.764	1278.752
70.563	20.783	1638.114	1276.512
71.578	20.779	1637.341	1275.767
72.593	20.582	1636.472	1273.536
73.607	20.585	1635.142	1272.412
74.622	20.512	1634.149	1270.993
75.636	20.522	1633.272	1270.272
76.651	20.556	1632.573	1269.861
77.666	20.713	1631.457	1270.030
78.680	20.641	1630.885	1268.946
79.695	20.671	1630.251	1268.560
80.709	20.783	1629.085	1268.357
81.724	20.889	1628.879	1268.853
82.739	21.097	1628.552	1270.003
83.753	21.167	1627.523	1269.598
84.768	21.370	1626.504	1270.161
85.782	21.593	1626.198	1271.434
86.797	21.748	1625.859	1272.178
87.812	21.961	1625.183	1273.083
88.826	21.884	1623.585	1271.159
89.841	21.699	1622.391	1268.774
90.855	21.632	1621.870	1267.770
91.870	21.657	1621.250	1267.353
92.884	21.908	1619.628	1267.790
93.899	21.914	1619.230	1267.409
94.914	22.000	1617.914	1266.887
95.928	21.995	1616.738	1265.813
96.943	21.884	1615.539	1263.968
97.957	21.883	1614.053	1262.680
98.972	21.916	1612.499	1261.597
99.987	21.821	1611.444	1259.976
101.001	21.803	1609.846	1258.481
102.016	21.792	1608.585	1257.308
103.030	21.766	1607.137	1255.876
104.045	21.784	1605.691	1254.767
105.060	21.774	1604.470	1253.632
106.074	21.605	1603.229	1251.341
107.089	21.490	1600.699	1248.436
108.103	21.144	1598.510	1244.148
109.118	20.928	1597.370	1241.618
110.133	20.749	1596.050	1239.205
111.147	20.763	1594.377	1237.895
112.162	20.671	1593.631	1236.553
113.176	20.833	1592.247	1236.525
114.191	20.918	1590.364	1235.552
115.206	20.915	1589.939	1235.094
116.220	20.918	1588.475	1233.863
117.235	20.930	1587.398	1233.005
118.249	20.977	1585.923	1232.082
119.264	20.912	1584.813	1230.649
120.279	20.664	1583.038	1227.414
121.293	20.699	1581.671	1226.492
122.308	20.565	1580.431	1224.479
123.322	20.562	1578.762	1223.056
124.337	20.464	1577.017	1220.908
125.352	20.416	1575.649	1219.402
126.366	20.343	1574.960	1218.249
127.381	20.424	1573.472	1217.558
128.395	20.437	1572.382	1216.704
129.410	20.265	1571.226	1214.491
130.424	20.323	1569.571	1213.509
131.439	20.360	1568.356	1212.722
132.454	20.585	1567.109	1213.226
133.468	20.701	1566.670	1213.582
134.483	20.897	1565.181	1213.691
135.497	20.993	1564.011	1213.341
136.512	20.940	1562.591	1211.769
137.527	20.908	1561.648	1210.705
138.541	21.007	1560.028	1210.031
139.556	21.068	1558.818	1209.406
140.570	21.040	1557.928	1208.418
141.585	21.264	1556.646	1208.862
142.600	21.294	1555.964	1208.438
143.614	21.429	1555.017	1208.526
144.629	21.661	1554.275	1209.447
145.643	21.848	1553.229	1209.812
146.658	21.737	1551.987	1207.972
147.673	21.606	1550.403	1205.730
148.687	21.493	1548.306	1203.221
149.702	21.315	1547.064	1200.923
150.716	21.120	1545.533	1198.292
151.731	20.962	1544.204	1196.072
152.746	20.835	1542.888	1194.074
153.760	20.958	1540.951	1193.309
154.775	20.938	1540.657	1192.838
155.789	21.172	1539.150	1193.166
156.804	21.308	1538.283	1193.320
157.819	21.350	1537.290	1192.730
158.833	21.382	1535.974	1191.819
159.848	21.492	1535.250	1191.906
160.862	21.793	1534.056	1192.920
161.877	21.686	1533.360	1191.542
162.892	21.445	1532.147	1188.860
163.906	21.089	1529.940	1184.627
164.921	20.900	1528.770	1182.329
165.935	20.755	1527.424	1180.203
166.950	20.900	1526.502	1180.368
167.964	21.119	1525.688	1181.117
168.979	21.117	1524.974	1180.443
169.994	21.116	1524.103	1179.663
171.008	21.082	1522.461	1178.055
172.023	21.044	1521.875	1177.243
173.037	21.137	1520.988	1177.080
174.052	21.294	1520.208	1177.426
175.067	21.475	1519.554	1178.035
176.081	21.269	1518.296	1175.571
177.096	21.013	1516.071	1172.023
178.110	20.838	1514.675	1169.665
179.125	20.905	1513.607	1169.186
180.140	20.983	1513.160	1169.265
181.154	21.065	1512.475	1169.181
182.169	21.259	1511.790	1169.845
183.183	21.410	1510.673	1169.890
184.198	21.407	1509.946	1169.202
185.213	21.532	1508.734	1168.992
186.227	21.623	1507.612	1168.631
187.242	21.612	1506.848	1167.861
188.256	21.703	1505.710	1167.479
189.271	21.816	1505.129	1167.681
190.286	21.872	1504.157	1167.193
191.300	21.820	1503.463	1166.205
192.315	21.455	1501.701	1162.314
193.329	21.064	1499.906	1158.223
194.344	20.963	1498.763	1156.570
195.359	21.102	1498.089	1156.866
196.373	21.066	1497.021	1155.706
197.388	21.005	1495.906	1154.333
198.402	21.101	1495.168	1154.300
199.417	21.389	1494.047	1155.234
200.432	21.724	1493.785	1157.145
201.446	21.846	1493.972	1157.989
202.461	21.951	1493.081	1157.893
203.475	21.982	1492.228	1157.332
204.490	22.105	1491.049	1157.126
205.504	21.932	1489.585	1154.747
206.519	21.581	1488.392	1151.416
207.534	21.424	1486.971	1149.180
208.548	21.399	1485.593	1147.850
209.563	21.203	1484.676	1145.751
210.577	21.281	1483.623	1145.354
211.592	21.328	1482.995	1145.072
212.607	21.257	1482.339	1144.003
213.621	21.565	1481.849	1145.539
214.636	21.869	1480.876	1146.667
215.650	21.780	1479.666	1145.053
216.665	21.565	1479.471	1143.397
217.680	21.760	1478.505	1143.822
218.694	21.941	1478.103	1144.585
219.709	22.082	1477.223	1144.725
220.723	22.152	1476.043	1144.165
221.738	21.923	1475.306	1142.000
222.753	21.868	1474.304	1140.765
223.767	21.842	1473.130	1139.587
224.782	21.806	1472.025	1138.402
225.796	21.874	1471.579	1138.396
226.811	22.141	1471.067	1139.631
227.826	22.133	1470.441	1138.992
228.840	21.994	1469.356	1137.152
229.855	21.783	1468.167	1134.767
230.869	21.734	1466.352	1132.943
231.884	21.646	1465.730	1131.794
232.899	21.683	1464.625	1131.083
233.913	21.484	1463.334	1128.697
234.928	21.319	1462.071	1126.562
235.942	21.231	1460.651	1124.804
236.957	21.307	1458.842	1123.797
237.972	21.136	1458.237	1122.134
238.986	21.152	1456.831	1121.053
240.001	21.141	1456.449	1120.592
241.015	21.234	1455.230	1120.153
242.030	21.285	1454.246	1119.622
243.045	21.385	1453.096	1119.279
244.059	21.522	1452.497	1119.591
245.074	21.728	1452.318	1120.673
246.088	21.725	1450.923	1119.481
247.103	21.848	1450.677	1119.974
248.117	21.802	1450.307	1119.295
249.132	22.056	1449.421	1120.135
250.147	22.267	1449.158	1121.179
251.161	22.471	1449.137	1122.362
252.176	22.835	1448.684	1124.232
253.190	22.813	1448.319	1123.705
254.205	22.966	1447.574	1124.005
255.220	23.019	1446.566	1123.458
256.234	23.046	1445.998	1123.090
257.249	23.107	1445.362	1122.879
258.263	22.999	1444.558	1121.475
259.278	22.948	1443.224	1120.012
260.293	22.860	1441.998	1118.409
261.307	22.943	1441.441	1118.400
262.322	23.083	1440.766	1118.667
263.336	23.040	1440.199	1117.852
264.351	23.048	1439.106	1116.956
265.366	23.047	1438.438	1116.333
266.380	23.132	1437.143	1115.765
267.395	23.129	1436.238	1114.943
268.409	23.012	1436.089	1113.992
269.424	22.897	1434.424	1111.882
270.439	22.818	1433.101	1110.257
271.453	22.691	1432.456	1108.863
272.468	22.731	1431.163	1108.017
273.482	22.489	1430.576	1105.942
274.497	22.465	1429.828	1105.114
275.512	22.505	1428.124	1103.954
276.526	22.472	1427.103	1102.858
277.541	22.400	1426.009	1101.465
278.555	22.437	1425.456	1101.169
279.570	22.629	1425.016	1101.933
280.585	22.726	1423.606	1101.352
281.599	22.978	1424.022	1103.150
282.614	23.076	1423.348	1103.143
283.628	22.832	1422.150	1100.593
284.643	22.790	1420.022	1098.592
285.657	22.522	1419.202	1096.188
286.672	22.547	1418.484	1095.692
287.687	22.506	1417.610	1094.667
288.701	22.636	1416.432	1094.465
289.716	22.627	1415.811	1093.837
290.730	22.573	1415.363	1093.059
291.745	22.553	1413.736	1091.579
292.760	22.616	1412.692	1091.070
293.774	22.597	1412.353	1090.590
294.789	22.773	1411.357	1090.817
295.803	22.795	1411.061	1090.624
296.818	22.976	1410.125	1090.921
297.833	22.926	1408.596	1089.334
298.847	22.568	1407.880	1086.480
299.862	22.672	1406.777	1086.172
300.876	22.584	1405.665	1084.672
301.891	22.683	1404.390	1084.202
302.906	22.702	1404.485	1084.295
303.920	22.864	1404.108	1084.904
304.935	23.012	1403.574	1085.309
305.949	23.178	1403.328	1086.038
306.964	23.319	1402.548	1086.202
307.979	23.436	1401.203	1085.782
308.993	23.241	1400.044	1083.597
310.008	23.099	1398.975	1081.805
311.022	23.191	1398.053	1081.557
312.037	23.064	1396.897	1079.789
313.052	23.178	1396.078	1079.760
314.066	23.134	1395.085	1078.630
315.081	22.835	1394.006	1075.873
316.095	22.649	1392.292	1073.325
317.110	22.368	1391.368	1070.806
318.125	22.467	1389.839	1070.140
319.139	22.465	1389.446	1069.732
320.154	22.479	1388.048	1068.641
321.168	22.482	1387.303	1067.995
322.183	22.617	1386.059	1067.759
323.197	22.466	1385.444	1066.277
324.212	22.582	1384.631	1066.258
325.227	22.615	1384.079	1065.937
326.241	22.643	1383.391	1065.483
327.256	22.768	1382.018	1065.083
328.270	22.733	1381.138	1064.101
329.285	22.602	1380.262	1062.545
330.300	22.510	1380.155	1061.815
331.314	22.564	1379.229	1061.330
332.329	22.555	1377.872	1060.137
333.343	22.590	1376.708	1059.359
334.358	22.592	1376.320	1058.980
335.373	22.820	1375.757	1059.822
336.387	23.001	1374.913	1060.162
337.402	23.034	1374.750	1060.145
338.416	23.077	1374.369	1060.013
339.431	23.132	1373.796	1059.809
340.446	23.136	1373.464	1059.480
341.460	23.363	1371.975	1059.596
342.475	23.493	1371.477	1059.892
343.489	23.722	1370.904	1060.728
344.504	23.707	1370.173	1059.975
345.519	23.788	1369.100	1059.535
346.533	23.887	1368.039	1059.210
347.548	23.847	1367.349	1058.345
348.562	23.903	1366.641	1058.035
349.577	24.037	1365.713	1058.019
350.592	23.798	1364.680	1055.707
351.606	23.451	1363.436	1052.591
352.621	23.099	1362.009	1049.306
353.635	23.002	1360.412	1047.408
354.650	22.908	1359.789	1046.285
355.665	22.773	1358.875	1044.685
356.679	23.025	1357.501	1045.030
357.694	23.103	1356.682	1044.767
358.708	23.145	1356.121	1044.489
359.723	23.293	1354.866	1044.301
360.738	23.299	1354.093	1043.651
361.752	23.281	1353.217	1042.778
362.767	23.402	1351.858	1042.348
363.781	23.227	1351.145	1040.681
364.796	23.232	1350.713	1040.284
365.810	23.391	1349.923	1040.518
366.825	23.661	1349.946	1042.024
367.840	23.787	1349.743	1042.516
368.854	23.995	1349.094	1043.140
369.869	23.998	1348.581	1042.670
370.883	24.213	1347.656	1043.125
371.898	24.101	1346.500	1041.482
372.913	23.926	1345.173	1039.339
373.927	23.800	1344.611	1038.079
374.942	23.689	1343.737	1036.663
375.956	23.901	1343.099	1037.318
376.971	24.045	1342.402	1037.528
377.986	23.854	1341.549	1035.663
379.000	23.864	1340.810	1035.058
380.015	24.008	1340.497	1035.560
381.029	24.197	1339.771	1036.010
382.044	24.271	1339.368	1036.038
383.059	24.295	1338.437	1035.361
384.073	24.262	1337.854	1034.631
385.088	24.218	1337.004	1033.626
386.102	24.143	1336.498	1032.705
387.117	24.230	1335.449	1032.307
388.132	24.090	1334.645	1030.788
389.146	23.628	1333.657	1027.259
390.161	23.633	1332.248	1026.113
391.175	23.591	1331.735	1025.384
392.190	23.498	1330.861	1024.082
393.205	23.602	1330.141	1024.036
394.219	23.926	1329.619	1025.416
395.234	24.080	1328.124	1025.055
396.248	24.027	1326.907	1023.724
397.263	23.634	1325.628	1020.387
398.278	23.699	1323.884	1019.324
399.292	23.672	1322.553	1018.058
400.307	23.557	1321.479	1016.481
401.321	23.543	1320.693	1015.708
402.336	23.384	1319.616	1013.879
403.350	23.371	1318.348	1012.742
404.365	23.303	1317.410	1011.544
405.380	23.414	1316.734	1011.568
406.394	23.542	1316.305	1011.876
407.409	23.649	1315.810	1012.020
408.423	23.664	1315.297	1011.618
409.438	24.038	1314.886	1013.340
410.453	24.173	1314.440	1013.676
411.467	24.224	1313.929	1013.486
412.482	24.308	1313.492	1013.537
413.496	24.453	1312.506	1013.508
414.511	24.454	1311.855	1012.922
415.526	24.550	1311.367	1013.002
416.540	24.625	1310.682	1012.808
417.555	24.809	1310.205	1013.389
418.569	24.805	1309.757	1012.931
419.584	24.689	1308.946	1011.556
420.599	24.460	1308.213	1009.605
421.613	146.135	1435.769	1797.451
422.628	141.688	1454.316	1797.557
