DTS Sentinel unit serial number:	SN413079Multiplexer serial number:	ORYXHardware model number:	OX4-SRSoftware version number:	ORYX F/W v4.00 Oryx Data Collector v3.7.2.0data status	okinstallation	princeton_trtdifferential loss correction	single-endedforward channel	channel 4reverse channel	N/Adate	2019/09/18time	18:45:35forward acquisition time	60.00reverse acquisition time	0.00gamma	496.2192k internal	0.2299k external	0.2299temperature offset calibration	1.0023default loss term (dB/km)	0.3790temperature slope calibration	1.0000multiplexer offset coefficient	1.0000multiplexer slope coefficient	1.0000fibre end	0.00T internal ref (°C)	37.47T ext. ref 1 (°C)	0.93T ext. ref 2 (°C)	27.80length (m)	temperature (°C)	Stokes	anti-Stokes-747.200	14.912	0.132	-0.105
-746.185	72.318	-0.200	0.212
-745.171	67.240	0.131	0.137
-744.156	-94.492	-0.233	-0.065
-743.142	-102.863	0.495	-0.120
-742.127	-55.758	-0.238	0.108
-741.112	-177.960	0.255	-0.006
-740.098	76.070	0.210	0.226
-739.083	-94.614	0.155	0.043
-738.069	114.729	-0.035	0.043
-737.054	137.071	-0.181	0.241
-736.039	11.696	-0.266	-0.208
-735.025	-200.000	0.030	0.142
-734.010	152.467	-0.196	0.273
-732.996	-200.000	0.023	-0.735
-731.981	79.307	-0.194	-0.212
-730.966	-104.626	0.246	0.058
-729.952	14.650	0.048	-0.038
-728.937	800.000	-0.041	-0.132
-727.923	429.384	-0.034	-0.074
-726.908	-76.525	-0.341	0.122
-725.894	-3.434	-0.111	-0.079
-724.879	15.096	0.294	-0.235
-723.864	-103.875	0.187	-0.045
-722.850	-200.000	-0.026	0.191
-721.835	-154.229	0.184	-0.013
-720.821	800.000	0.113	0.420
-719.806	-200.000	0.030	0.191
-718.791	119.584	-0.099	0.125
-717.777	36.143	-0.282	-0.253
-716.762	-0.767	-0.071	-0.051
-715.748	-200.000	-0.057	-0.390
-714.733	-91.351	0.269	0.078
-713.718	-175.434	-0.168	0.005
-712.704	-104.130	-0.060	0.014
-711.689	-113.874	0.194	0.038
-710.675	800.000	0.056	0.202
-709.660	-200.000	-0.047	0.271
-708.645	163.284	-0.268	0.384
-707.631	-200.000	0.099	-0.523
-706.616	-67.306	-0.320	-0.128
-705.602	-130.016	0.239	0.033
-704.587	18.795	0.123	0.100
-703.572	-8.447	0.196	0.135
-702.558	-160.012	0.263	0.015
-701.543	-200.000	0.053	-0.245
-700.529	261.914	0.065	-0.114
-699.514	-200.000	0.191	-0.001
-698.499	667.263	0.109	-0.287
-697.485	113.245	-0.186	-0.230
-696.470	-120.469	0.169	-0.029
-695.456	99.192	-0.216	-0.255
-694.441	338.794	-0.156	-0.310
-693.426	138.400	-0.168	-0.225
-692.412	-27.989	-0.257	0.152
-691.397	-65.953	-0.144	-0.059
-690.383	729.142	0.096	-0.261
-689.368	800.000	-0.025	-0.074
-688.354	-115.232	-0.237	0.046
-687.339	-158.064	-0.128	0.008
-686.324	-141.807	-0.356	-0.036
-685.310	-152.650	0.271	-0.020
-684.295	-200.000	-0.002	-0.142
-683.281	-64.959	0.395	0.162
-682.266	185.300	-0.232	0.351
-681.251	36.516	0.159	0.143
-680.237	-200.000	-0.005	-0.053
-679.222	-200.000	0.027	-0.154
-678.208	194.482	0.178	0.275
-677.193	56.602	0.059	-0.059
-676.178	-32.183	-0.081	-0.046
-675.164	-137.760	0.323	0.037
-674.149	-78.283	-0.290	0.101
-673.135	-200.000	-0.056	-0.275
-672.120	800.000	-0.055	0.234
-671.105	-200.000	0.020	0.218
-670.091	-175.291	-0.123	0.003
-669.076	-94.112	-0.224	-0.062
-668.062	383.378	-0.058	-0.121
-667.047	-66.249	0.222	-0.090
-666.032	150.210	0.163	-0.225
-665.018	-200.000	-0.033	-0.188
-664.003	-34.037	0.189	0.106
-662.989	-200.000	0.019	-0.140
-661.974	-96.649	0.178	-0.048
-660.959	0.138	-0.157	-0.114
-659.945	800.000	0.021	-0.069
-658.930	338.766	0.192	-0.380
-657.916	293.290	0.045	-0.084
-656.901	-200.000	-0.000	0.127
-655.886	-17.626	-0.265	-0.169
-654.872	800.000	0.053	0.199
-653.857	87.871	-0.163	0.184
-652.843	-132.052	0.128	0.017
-651.828	-37.292	-0.239	-0.130
-650.814	98.469	0.204	-0.239
-649.799	7.576	0.247	0.188
-648.784	-148.341	-0.148	0.012
-647.770	-62.198	-0.123	-0.052
-646.755	-117.999	-0.259	0.047
-645.741	247.515	-0.016	0.027
-644.726	641.604	0.070	0.180
-643.711	-34.881	-0.315	-0.175
-642.697	-200.000	-0.099	0.000
-641.682	-96.972	0.085	0.023
-640.668	586.871	0.029	0.073
-639.653	-200.000	0.032	0.269
-638.638	93.661	0.119	0.137
-637.624	32.378	0.236	-0.207
-636.609	135.699	0.224	-0.296
-635.595	800.000	0.050	0.152
-634.580	-200.000	-0.021	-0.314
-633.565	-38.665	0.072	0.039
-632.551	800.000	-0.025	0.075
-631.536	13.988	0.281	0.222
-630.522	269.632	-0.073	0.130
-629.507	-112.616	-0.054	-0.011
-628.492	57.486	0.131	0.130
-627.478	-200.000	-0.047	-0.216
-626.463	200.077	0.137	-0.214
-625.449	-32.036	0.317	0.180
-624.434	170.618	-0.163	-0.238
-623.419	18.025	0.152	-0.123
-622.405	39.392	-0.094	-0.085
-621.390	142.340	0.072	-0.098
-620.376	-199.706	-0.073	0.000
-619.361	28.733	-0.218	-0.188
-618.346	800.000	0.082	0.301
-617.332	740.468	-0.028	-0.076
-616.317	360.545	0.121	0.245
-615.303	409.698	0.070	0.150
-614.288	8.673	-0.104	0.080
-613.273	735.850	0.095	0.258
-612.259	276.469	0.050	0.090
-611.244	-200.000	0.029	-0.201
-610.230	-200.000	-0.024	-0.185
-609.215	-200.000	-0.016	-0.095
-608.201	-88.432	-0.272	0.083
-607.186	-148.821	0.255	-0.021
-606.171	182.962	-0.282	-0.422
-605.157	321.505	-0.101	0.194
-604.142	418.828	-0.083	0.180
-603.128	-200.000	-0.004	-0.153
-602.113	21.189	0.093	-0.077
-601.098	-143.827	-0.073	0.007
-600.084	800.000	-0.026	0.090
-599.069	800.000	-0.053	-0.155
-598.055	500.888	-0.142	0.331
-597.040	6.427	0.536	0.404
-596.025	-200.000	0.030	-0.147
-595.011	44.338	-0.198	0.184
-593.996	593.302	0.034	-0.084
-592.982	-105.512	0.185	-0.043
-591.967	-200.000	0.031	0.196
-590.952	222.999	0.055	0.091
-589.938	-39.921	0.014	0.008
-588.923	38.966	-0.177	-0.161
-587.909	414.119	0.108	0.234
-586.894	119.326	-0.087	-0.110
-585.879	-200.000	0.042	0.193
-584.865	118.791	0.186	0.233
-583.850	800.000	0.046	-0.154
-582.836	-98.519	-0.179	0.046
-581.821	-134.612	0.050	-0.006
-580.806	101.488	-0.075	0.089
-579.792	800.000	0.161	0.460
-578.777	800.000	0.050	0.200
-577.763	-81.961	0.251	0.083
-576.748	334.873	0.076	0.148
-575.733	-72.008	-0.221	0.083
-574.719	-200.000	-0.061	-0.333
-573.704	92.103	0.043	-0.049
-572.690	-48.341	0.211	-0.103
-571.675	-200.000	-0.005	-0.253
-570.661	-87.145	0.238	0.073
-569.646	800.000	0.012	0.047
-568.631	-200.000	0.017	0.269
-567.617	-200.000	-0.039	-0.263
-566.602	367.283	0.167	0.342
-565.588	800.000	-0.107	0.340
-564.573	-70.380	0.035	-0.013
-563.558	35.757	-0.272	-0.242
-562.544	800.000	-0.061	-0.244
-561.529	81.674	-0.250	-0.274
-560.515	-101.882	0.132	-0.032
-559.500	39.505	-0.197	0.178
-558.485	800.000	-0.088	-0.302
-557.471	65.524	0.112	-0.114
-556.456	85.382	0.125	-0.139
-555.442	-200.000	-0.006	0.227
-554.427	800.000	0.035	-0.114
-553.412	-92.497	0.067	-0.019
-552.398	-89.250	-0.371	0.111
-551.383	-200.000	-0.018	-0.289
-550.369	94.604	-0.083	-0.095
-549.354	-200.000	0.021	-0.263
-548.339	-33.733	0.131	0.073
-547.325	-6.672	0.132	0.091
-546.310	82.719	-0.012	-0.013
-545.296	-200.000	0.020	-0.218
-544.281	24.415	-0.065	0.055
-543.266	-118.619	0.601	0.107
-542.252	-97.759	-0.212	0.055
-541.237	448.088	-0.191	0.427
-540.223	-200.000	-0.028	0.184
-539.208	294.477	0.127	0.235
-538.193	-41.534	-0.061	0.032
-537.179	0.362	-0.189	0.136
-536.164	-174.286	0.037	0.001
-535.150	-200.000	-0.009	-0.164
-534.135	-44.005	-0.058	0.030
-533.121	16.961	0.245	0.196
-532.106	-110.699	-0.083	-0.017
-531.091	-163.310	-0.146	-0.007
-530.077	-133.191	0.196	-0.025
-529.062	-200.000	0.003	0.032
-528.048	200.270	-0.166	-0.259
-527.033	382.222	0.107	-0.222
-526.018	-43.044	0.184	-0.094
-525.004	-200.000	-0.024	-0.147
-523.989	-200.000	0.012	-0.310
-522.975	-200.000	-0.018	-0.167
-521.960	-35.515	-0.066	-0.036
-520.945	-89.689	0.094	-0.028
-519.931	70.886	-0.091	-0.095
-518.916	-61.339	0.091	0.039
-517.902	250.007	0.050	-0.085
-516.887	-100.638	-0.082	-0.021
-515.872	148.451	0.138	0.189
-514.858	-200.000	0.016	0.331
-513.843	71.730	-0.162	0.170
-512.829	800.000	-0.077	0.243
-511.814	462.364	-0.107	-0.242
-510.799	108.489	-0.105	0.126
-509.785	79.295	-0.231	0.251
-508.770	-200.000	0.004	0.084
-507.756	-10.769	-0.143	-0.095
-506.741	-28.649	-0.037	-0.022
-505.726	110.586	-0.148	0.180
-504.712	230.687	-0.097	0.161
-503.697	-200.000	0.057	-0.280
-502.683	-58.235	0.252	0.111
-501.668	83.161	-0.258	-0.284
-500.653	-27.130	0.076	0.044
-499.639	-200.000	0.013	0.142
-498.624	-200.000	-0.034	0.259
-497.610	36.854	0.261	0.233
-496.595	-77.856	0.125	0.044
-495.581	210.208	-0.101	-0.161
-494.566	-61.939	0.144	0.061
-493.551	-200.000	-0.011	0.229
-492.537	123.318	-0.171	0.216
-491.522	-68.339	-0.172	0.068
-490.508	134.581	-0.142	0.187
-489.493	800.000	0.039	0.137
-488.478	1.413	0.143	-0.104
-487.464	44.031	0.178	-0.164
-486.449	-57.274	-0.247	-0.110
-485.435	-200.000	-0.017	-0.156
-484.420	-200.000	0.074	-0.458
-483.405	39.416	0.142	0.128
-482.391	703.129	0.056	0.148
-481.376	4.770	0.198	-0.147
-480.362	105.718	0.206	-0.246
-479.347	-137.676	0.277	-0.031
-478.332	483.403	-0.071	-0.163
-477.318	-200.000	-0.030	0.366
-476.303	-121.194	0.032	0.005
-475.289	-160.976	-0.229	-0.012
-474.274	-19.293	0.231	-0.144
-473.259	-14.725	0.149	0.097
-472.245	670.577	0.070	-0.183
-471.230	800.000	0.043	0.146
-470.216	188.249	0.025	0.038
-469.201	-200.000	-0.066	0.318
-468.186	-22.600	-0.156	-0.095
-467.172	-200.000	0.010	0.076
-466.157	-200.000	0.004	-0.221
-465.143	-39.605	0.111	0.058
-464.128	-100.251	-0.112	-0.028
-463.113	-80.007	-0.202	0.069
-462.099	-200.000	0.043	0.391
-461.084	800.000	-0.094	-0.280
-460.070	368.098	0.074	-0.152
-459.055	48.760	-0.260	-0.246
-458.040	-7.235	-0.080	-0.055
-457.026	-47.729	-0.305	0.149
-456.011	34.841	-0.074	-0.065
-454.997	-47.769	-0.170	0.083
-453.982	419.524	-0.034	0.073
-452.968	123.530	0.014	-0.017
-451.953	194.834	0.210	0.321
-450.938	-152.888	-0.114	-0.008
-449.924	-79.933	0.098	-0.033
-448.909	-36.355	0.038	-0.021
-447.895	800.000	0.151	-0.422
-446.880	-70.527	-0.236	0.090
-445.865	-115.421	0.253	-0.048
-444.851	96.789	-0.123	0.142
-443.836	249.503	0.231	0.396
-442.822	136.774	0.132	-0.174
-441.807	-200.000	-0.043	-0.203
-440.792	-12.259	0.268	0.177
-439.778	-200.000	-0.015	0.174
-438.763	-200.000	0.026	-0.175
-437.749	717.934	0.061	-0.164
-436.734	-128.658	0.045	-0.006
-435.719	-200.000	-0.002	-0.043
-434.705	-157.269	-0.431	0.026
-433.690	-40.281	0.133	0.070
-432.676	253.383	0.190	0.328
-431.661	-145.401	0.186	-0.017
-430.646	-153.792	-0.071	0.005
-429.632	-38.367	0.207	-0.111
-428.617	-40.046	-0.251	-0.132
-427.603	381.678	-0.103	-0.213
-426.588	686.268	0.049	-0.130
-425.573	13.457	0.052	-0.041
-424.559	-64.674	0.134	0.055
-423.544	192.830	-0.007	0.011
-422.530	-200.000	0.029	-0.281
-421.515	-177.490	-0.238	-0.006
-420.500	-200.000	0.008	0.270
-419.486	-135.028	0.447	0.054
-418.471	-113.065	-0.404	-0.080
-417.457	-1.248	0.101	-0.072
-416.442	157.401	-0.165	-0.230
-415.428	-23.056	-0.282	-0.171
-414.413	120.595	0.079	0.099
-413.398	349.730	0.134	-0.266
-412.384	-200.000	-0.071	-0.326
-411.369	-198.169	0.188	-0.001
-410.355	471.607	-0.024	0.054
-409.340	-131.010	-0.317	-0.043
-408.325	-200.000	0.010	0.080
-407.311	-18.279	-0.271	0.171
-406.296	-1.878	0.167	0.118
-405.282	-19.678	-0.093	-0.058
-404.267	347.254	-0.099	-0.197
-403.252	3.438	0.166	-0.121
-402.238	351.481	0.074	0.148
-401.223	-65.145	0.124	0.050
-400.209	-72.700	-0.324	-0.120
-399.194	-200.000	0.011	-0.174
-398.179	37.360	-0.200	0.179
-397.165	-71.121	0.368	-0.139
-396.150	-72.821	-0.315	0.117
-395.136	-26.380	0.385	0.227
-394.121	-166.590	0.212	-0.009
-393.106	-117.764	0.331	0.060
-392.092	509.766	0.099	0.232
-391.077	136.085	-0.057	-0.075
-390.063	-182.533	-0.219	0.004
-389.048	205.565	-0.239	0.374
-388.033	-71.578	0.289	0.109
-387.019	123.016	0.196	0.247
-386.004	-4.865	-0.172	0.119
-384.990	68.067	0.106	-0.109
-383.975	-200.000	0.011	-0.159
-382.960	-200.000	0.001	-0.173
-381.946	-22.758	0.281	-0.171
-380.931	54.668	-0.239	-0.232
-379.917	-200.000	-0.013	-0.115
-378.902	-49.056	0.098	-0.047
-377.888	454.572	0.044	-0.099
-376.873	-74.260	0.128	0.047
-375.858	449.969	0.071	0.158
-374.844	351.324	0.115	0.229
-373.829	673.538	-0.044	0.114
-372.815	-56.871	-0.236	-0.105
-371.800	726.913	-0.039	-0.106
-370.785	-17.855	-0.144	0.091
-369.771	137.558	-0.101	0.133
-368.756	-200.000	-0.027	-0.217
-367.742	7.522	0.155	0.116
-366.727	483.361	0.093	0.213
-365.712	-200.000	-0.011	0.369
-364.698	-190.808	0.091	0.001
-363.683	263.286	-0.170	-0.298
-362.669	-135.049	0.295	-0.036
-361.654	441.892	0.142	0.313
-360.639	-200.000	-0.053	-0.415
-359.625	70.155	0.090	0.093
-358.610	29.926	0.130	0.112
-357.596	-49.325	-0.125	-0.060
-356.581	-130.345	-0.150	0.020
-355.566	179.241	-0.089	0.131
-354.552	-64.051	0.223	-0.092
-353.537	-0.969	-0.184	0.131
-352.523	176.333	-0.109	-0.159
-351.508	34.013	-0.031	-0.027
-350.493	800.000	-0.024	0.078
-349.479	800.000	0.062	-0.190
-348.464	-58.234	-0.110	0.048
-347.450	-31.179	-0.067	-0.038
-346.435	98.394	-0.105	0.122
-345.420	-200.000	0.039	-0.435
-344.406	-136.048	-0.435	-0.051
-343.391	-200.000	-0.002	0.052
-342.377	-200.000	-0.040	-0.235
-341.362	472.954	-0.022	-0.050
-340.348	800.000	0.056	-0.183
-339.333	113.500	0.170	-0.208
-338.318	149.442	-0.127	0.172
-337.304	800.000	-0.027	0.111
-336.289	299.079	-0.055	-0.101
-335.275	-77.076	0.250	0.088
-334.260	-26.093	-0.104	-0.061
-333.245	800.000	0.093	-0.278
-332.231	-5.033	-0.027	0.019
-331.216	225.723	0.073	0.119
-330.202	46.548	0.160	0.150
-329.187	-86.311	0.231	0.071
-328.172	-88.159	-0.322	-0.097
-327.158	-200.000	-0.002	0.023
-326.143	-36.093	-0.117	0.063
-325.129	-174.519	0.146	0.004
-324.114	66.880	0.095	-0.097
-323.099	-43.116	-0.163	-0.083
-322.085	-200.000	-0.036	-0.302
-321.070	46.540	0.121	0.113
-320.056	-72.859	0.075	-0.028
-319.041	144.632	0.171	0.230
-318.026	49.818	-0.132	-0.125
-317.012	120.060	0.170	-0.212
-315.997	-142.039	-0.231	-0.023
-314.983	194.888	0.158	-0.241
-313.968	-200.000	-0.052	-0.245
-312.953	-137.660	-0.193	-0.022
-311.939	-65.681	0.200	0.081
-310.924	-63.812	-0.027	0.011
-309.910	385.684	0.014	-0.030
-308.895	-200.000	0.027	-0.496
-307.880	-23.326	0.280	0.169
-306.866	-178.663	-0.182	0.004
-305.851	-154.119	-0.174	-0.012
-304.837	192.279	0.099	-0.150
-303.822	800.000	-0.080	-0.244
-302.807	40.168	-0.178	-0.161
-301.793	59.157	-0.162	0.160
-300.778	-104.428	0.164	-0.038
-299.764	800.000	0.077	0.290
-298.749	17.630	0.199	-0.159
-297.735	228.406	0.093	-0.152
-296.720	-200.000	0.015	-0.179
-295.705	-200.000	-0.003	-0.261
-294.691	68.426	0.078	-0.080
-293.676	-200.000	0.023	-0.184
-292.662	99.749	0.165	-0.191
-291.647	800.000	0.054	-0.166
-290.632	-187.978	-0.048	0.001
-289.618	23.599	0.055	0.045
-288.603	-29.699	-0.092	-0.052
-287.589	225.165	-0.142	0.230
-286.574	800.000	0.107	-0.309
-285.559	-200.000	0.224	0.000
-284.545	-7.109	0.078	0.053
-283.530	-200.000	0.039	0.221
-282.516	-200.000	-0.263	-0.001
-281.501	-126.925	-0.171	0.025
-280.486	630.485	0.028	-0.070
-279.472	-76.100	0.191	0.068
-278.457	800.000	0.129	-0.378
-277.443	443.513	-0.071	0.157
-276.428	-155.693	-0.172	0.011
-275.413	-200.000	-0.013	0.097
-274.399	13.335	-0.224	-0.174
-273.384	-25.976	-0.232	-0.137
-272.370	-200.000	0.015	0.204
-271.355	-50.340	-0.447	-0.212
-270.340	142.722	-0.243	0.323
-269.326	-200.000	-0.008	0.188
-268.311	-200.000	0.024	-0.174
-267.297	407.445	-0.153	0.324
-266.282	313.890	-0.195	0.368
-265.267	-200.000	0.011	0.192
-264.253	-200.000	-0.005	-0.200
-263.238	136.298	0.117	0.152
-262.224	-75.228	0.213	-0.076
-261.209	-121.060	0.236	-0.040
-260.195	108.872	-0.154	-0.184
-259.180	12.414	0.341	-0.263
-258.165	-38.672	0.219	0.116
-257.151	105.283	-0.209	0.247
-256.136	-129.041	0.173	-0.024
-255.122	232.041	0.023	0.038
-254.107	539.578	0.048	-0.115
-253.092	772.757	0.203	0.553
-252.078	-71.709	-0.105	-0.039
-251.063	-20.276	0.078	0.048
-250.049	-93.466	0.261	0.072
-249.034	26.680	-0.189	0.158
-248.019	249.080	0.027	-0.046
-247.005	-90.598	-0.161	0.047
-245.990	240.119	0.054	-0.089
-244.976	55.264	-0.216	-0.209
-243.961	-192.712	-0.084	0.001
-242.946	800.000	0.150	-0.473
-241.932	-200.000	-0.024	-0.159
-240.917	241.931	0.045	-0.075
-239.903	800.000	-0.109	0.349
-238.888	241.390	-0.144	0.240
-237.873	-200.000	0.007	-0.236
-236.859	-38.417	-0.057	-0.030
-235.844	-163.220	0.234	-0.011
-234.830	97.537	-0.356	0.409
-233.815	595.137	-0.147	0.363
-232.800	148.023	0.082	-0.110
-231.786	-149.060	-0.137	0.011
-230.771	-86.706	0.129	-0.039
-229.757	-19.005	0.125	-0.078
-228.742	-159.609	-0.216	0.012
-227.727	71.861	-0.073	0.076
-226.713	428.648	0.169	0.366
-225.698	-195.198	0.114	-0.001
-224.684	-71.493	0.478	-0.179
-223.669	486.960	0.058	0.131
-222.655	-74.683	-0.174	-0.062
-221.640	-168.615	-0.255	0.010
-220.625	355.533	-0.038	0.075
-219.611	-136.477	-0.061	-0.007
-218.596	112.633	0.084	0.101
-217.582	-77.632	-0.119	-0.041
-216.567	-20.137	-0.216	-0.133
-215.552	-12.043	0.236	0.154
-214.538	800.000	0.029	-0.123
-213.523	-200.000	-0.007	-0.039
-212.509	181.307	-0.284	-0.417
-211.494	-200.000	-0.068	0.310
-210.479	800.000	-0.071	-0.220
-209.465	-160.039	-0.095	-0.005
-208.450	-110.080	0.081	-0.017
-207.436	25.851	-0.008	0.006
-206.421	-19.632	-0.098	-0.061
-205.406	285.391	0.023	0.042
-204.392	40.738	-0.141	-0.127
-203.377	101.295	-0.069	0.080
-202.363	-42.953	-0.207	0.105
-201.348	-200.000	-0.019	-0.096
-200.333	125.072	-0.150	-0.188
-199.319	-7.980	0.150	0.101
-198.304	381.989	-0.043	-0.089
-197.290	-200.000	0.006	0.033
-196.275	172.333	0.262	-0.377
-195.260	305.468	-0.012	0.021
-194.246	-200.000	-0.002	0.179
-193.231	-15.481	0.168	0.107
-192.217	6.370	-0.133	-0.099
-191.202	414.290	0.031	-0.066
-190.187	265.817	0.042	-0.074
-189.173	95.871	-0.291	-0.331
-188.158	86.320	-0.264	0.290
-187.144	800.000	0.045	0.170
-186.129	-129.279	0.069	0.010
-185.114	142.750	0.259	0.343
-184.100	-36.511	0.259	0.139
-183.085	800.000	-0.098	0.402
-182.071	-40.606	-0.324	-0.168
-181.056	-200.000	-0.030	-0.172
-180.042	-200.000	0.057	-0.277
-179.027	60.916	0.173	-0.171
-178.012	-144.841	-0.259	-0.024
-176.998	-200.000	0.016	-0.119
-175.983	800.000	-0.042	-0.140
-174.969	239.452	-0.226	-0.376
-173.954	-62.857	0.195	0.080
-172.939	94.897	-0.159	-0.181
-171.925	-105.995	-0.235	-0.053
-170.910	800.000	-0.022	0.068
-169.896	128.274	0.226	0.287
-168.881	-200.000	0.030	0.429
-167.866	737.711	0.049	0.131
-166.852	800.000	-0.026	0.093
-165.837	-200.000	0.020	0.091
-164.823	89.845	0.218	0.242
-163.808	-167.283	0.363	-0.015
-162.793	-121.984	-0.262	-0.043
-161.779	-96.351	-0.156	0.041
-160.764	-25.932	-0.187	0.110
-159.750	-200.000	0.002	0.161
-158.735	-46.900	0.140	-0.068
-157.720	27.650	0.042	0.036
-156.706	17.518	0.191	-0.151
-155.691	-200.000	0.043	0.285
-154.677	800.000	0.011	-0.031
-153.662	-200.000	-0.017	-0.115
-152.647	-12.303	-0.009	0.006
-151.633	-64.526	-0.210	0.085
-150.618	166.413	-0.132	0.187
-149.604	-50.214	0.160	0.076
-148.589	-200.000	-0.019	-0.333
-147.574	-122.324	-0.206	-0.033
-146.560	-200.000	-0.003	0.105
-145.545	-155.007	0.096	-0.006
-144.531	800.000	-0.078	-0.218
-143.516	-200.000	-0.006	-0.327
-142.502	345.053	-0.145	0.284
-141.487	-82.794	-0.088	0.028
-140.472	-108.783	0.247	0.053
-139.458	800.000	0.111	-0.315
-138.443	188.093	-0.045	0.066
-137.429	272.850	-0.057	-0.100
-136.414	277.013	-0.050	-0.089
-135.399	-94.712	0.499	-0.135
-134.385	36.394	0.120	0.106
-133.370	-39.352	-0.338	-0.177
-132.356	-200.000	-0.020	-0.217
-131.341	-50.676	0.085	-0.040
-130.326	-108.511	0.147	-0.031
-129.312	-41.181	0.068	0.035
-128.297	-111.468	0.180	0.036
-127.283	291.414	0.023	0.042
-126.268	-200.000	-0.044	-0.372
-125.253	-200.000	0.036	0.194
-124.239	-200.000	0.057	-0.408
-123.224	186.057	-0.058	-0.086
-122.210	-64.208	-0.205	-0.083
-121.195	800.000	0.042	0.137
-120.180	800.000	-0.090	-0.306
-119.166	-140.213	0.126	-0.013
-118.151	115.405	0.047	-0.057
-117.137	-200.000	-0.028	0.191
-116.122	-112.542	0.294	0.058
-115.107	-200.000	0.003	0.251
-114.093	-75.408	0.110	0.039
-113.078	-165.902	-0.106	0.005
-112.064	-107.721	-0.061	0.013
-111.049	-54.920	0.320	-0.144
-110.034	800.000	-0.168	0.496
-109.020	158.337	0.072	-0.099
-108.005	-41.299	-0.165	0.085
-106.991	-68.124	0.109	-0.042
-105.976	-73.576	-0.206	-0.075
-104.962	135.154	0.146	0.189
-103.947	-15.115	-0.158	-0.101
-102.932	-55.714	-0.276	0.123
-101.918	-200.000	-0.060	0.406
-100.903	-98.151	0.149	-0.038
-99.889	-135.052	-0.126	-0.015
-98.874	114.008	0.076	0.092
-97.859	139.149	0.163	0.214
-96.845	-200.000	0.008	-0.183
-95.830	-6.326	0.181	0.123
-94.816	800.000	-0.041	0.136
-93.801	-185.461	-0.090	0.001
-92.786	-43.558	-0.320	0.161
-91.772	-15.979	0.056	-0.035
-90.757	-200.000	0.043	0.239
-89.743	-15.697	0.083	-0.052
-88.728	75.745	0.117	-0.123
-87.713	-200.000	0.054	-0.273
-86.699	561.410	-0.064	0.153
-85.684	800.000	-0.052	0.149
-84.670	800.000	-0.027	-0.114
-83.655	-172.882	0.290	0.009
-82.640	-136.137	-0.281	-0.033
-81.626	-200.000	-0.034	-0.451
-80.611	-126.125	0.276	0.041
-79.597	-73.626	0.045	-0.016
-78.582	-200.000	-0.007	-0.247
-77.567	9.118	-0.333	-0.250
-76.553	206.741	0.203	0.314
-75.538	-80.363	-0.116	0.038
-74.524	-85.300	-0.107	0.033
-73.509	-200.000	-0.032	0.404
-72.494	6.110	-0.137	-0.101
-71.480	-90.995	0.063	-0.018
-70.465	-200.000	0.030	0.151
-69.451	707.188	-0.072	0.189
-68.436	47.346	0.028	-0.026
-67.422	-14.267	-0.190	0.122
-66.407	554.901	-0.055	-0.131
-65.392	-66.417	-0.318	0.126
-64.378	-143.539	-0.117	-0.011
-63.363	553.553	-0.027	0.064
-62.349	-200.000	0.036	0.308
-61.334	1.754	-1.040	-0.745
-60.319	9.997	0.621	0.468
-59.305	605.525	-0.326	-0.806
-58.290	599.103	0.250	0.616
-57.276	800.000	0.533	1.490
-56.261	-200.000	91.418	528.929
-55.246	490.176	1393.745	3166.178
-54.232	146.051	2607.890	3474.258
-53.217	105.815	2363.664	2776.896
-52.203	44.225	2109.191	1921.835
-51.188	39.323	2019.131	1795.121
-50.173	37.693	1999.609	1762.959
-49.159	51.211	2047.906	1929.672
-48.144	54.094	2067.113	1974.118
-47.130	40.032	2025.631	1807.107
-46.115	37.562	2013.548	1773.768
-45.100	37.405	2011.204	1770.208
-44.086	37.351	2008.689	1767.427
-43.071	37.311	2005.671	1764.343
-42.057	37.298	2004.042	1762.723
-41.042	37.380	2002.124	1761.705
-40.027	37.377	2000.038	1759.773
-39.013	37.436	1997.732	1758.207
-37.998	37.439	1995.864	1756.525
-36.984	37.433	1993.943	1754.705
-35.969	37.330	1992.130	1752.118
-34.954	37.383	1990.550	1751.133
-33.940	37.396	1989.519	1750.271
-32.925	37.482	1987.609	1749.297
-31.911	37.546	1985.464	1747.917
-30.896	37.538	1983.822	1746.329
-29.881	37.540	1982.462	1745.077
-28.867	37.572	1980.511	1743.575
-27.852	37.516	1978.905	1741.593
-26.838	37.618	1976.435	1740.265
-25.823	37.526	1974.766	1737.900
-24.809	37.525	1973.359	1736.584
-23.794	37.512	1971.313	1734.599
-22.779	37.459	1969.714	1732.651
-21.765	37.421	1968.207	1730.925
-20.750	37.536	1966.238	1730.140
-19.736	37.485	1964.673	1728.241
-18.721	37.536	1963.047	1727.199
-17.706	37.418	1962.219	1725.353
-16.692	37.453	1959.894	1723.547
-15.677	37.436	1958.553	1722.151
-14.663	37.544	1957.003	1721.675
-13.648	37.452	1955.929	1719.854
-12.633	37.512	1954.076	1718.687
-11.619	37.401	1953.511	1717.133
-10.604	37.453	1951.771	1715.994
-9.590	37.426	1950.341	1714.438
-8.575	37.499	1948.714	1713.577
-7.560	37.480	1947.745	1712.496
-6.546	37.438	1946.104	1710.615
-5.531	37.446	1945.315	1709.923
-4.517	37.456	1943.428	1708.281
-3.502	37.392	1942.430	1706.776
-2.487	37.365	1941.091	1705.293
-1.473	37.437	1939.712	1704.647
-0.458	37.427	1935.735	1700.994
0.556	35.498	1913.560	1663.410
1.571	29.233	1887.065	1586.497
2.586	23.075	1903.245	1546.296
3.600	20.707	1936.780	1552.304
4.615	19.564	1931.258	1537.575
5.629	15.056	1831.922	1420.193
6.644	6.564	1711.852	1259.409
7.659	1.523	1671.533	1190.250
8.673	1.061	1667.750	1183.840
9.688	1.044	1666.485	1182.706
10.702	0.881	1665.351	1180.523
11.717	0.735	1662.821	1177.488
12.731	1.153	1662.324	1180.290
13.746	6.830	1673.948	1232.838
14.761	14.467	1688.803	1303.596
15.775	17.650	1692.761	1331.437
16.790	17.533	1691.417	1329.351
17.804	16.567	1688.510	1319.418
18.819	15.612	1685.016	1309.135
19.834	14.992	1682.639	1302.347
20.848	14.687	1680.968	1298.569
21.863	14.418	1679.455	1295.197
22.877	14.183	1677.786	1291.966
23.892	13.858	1676.540	1288.370
24.907	13.792	1675.598	1287.024
25.921	13.777	1674.123	1285.658
26.936	13.699	1673.554	1284.504
27.950	13.782	1672.624	1284.321
28.965	13.842	1671.898	1284.115
29.980	13.833	1671.391	1283.540
30.994	13.941	1670.466	1283.547
32.009	13.949	1669.069	1282.422
33.023	14.017	1668.057	1282.058
34.038	13.951	1667.842	1281.270
35.053	13.929	1666.861	1280.237
36.067	13.996	1665.482	1279.581
37.082	13.938	1664.110	1277.968
38.096	13.975	1663.076	1277.339
39.111	13.991	1662.838	1277.165
40.126	13.988	1661.680	1276.147
41.140	14.029	1660.751	1275.631
42.155	13.962	1659.081	1273.725
43.169	13.834	1657.924	1271.745
44.184	13.922	1656.873	1271.499
45.199	13.741	1656.058	1269.375
46.213	13.708	1654.635	1267.917
47.228	13.786	1653.669	1267.660
48.242	13.789	1652.555	1266.717
49.257	13.931	1650.546	1266.147
50.271	13.939	1649.887	1265.589
51.286	13.840	1648.767	1263.864
52.301	13.871	1647.216	1262.801
53.315	13.819	1645.861	1261.256
54.330	13.841	1644.337	1260.142
55.344	13.740	1642.581	1257.924
56.359	13.745	1641.182	1256.778
57.374	13.879	1640.152	1256.889
58.388	13.830	1639.150	1255.640
59.403	13.830	1637.863	1254.542
60.417	13.803	1636.236	1252.986
61.432	13.760	1635.379	1251.895
62.447	13.793	1633.980	1250.962
63.461	13.735	1632.824	1249.524
64.476	13.625	1632.282	1248.171
65.490	13.673	1630.772	1247.267
66.505	13.701	1629.577	1246.451
67.520	13.733	1628.253	1245.569
68.534	13.732	1627.059	1244.538
69.549	13.789	1625.737	1243.849
70.563	13.837	1624.445	1243.110
71.578	13.786	1623.243	1241.696
72.593	13.719	1622.284	1240.353
73.607	13.688	1621.635	1239.516
74.622	13.612	1620.224	1237.755
75.636	13.637	1619.495	1237.278
76.651	13.671	1618.342	1236.541
77.666	13.552	1617.894	1235.205
78.680	13.633	1616.625	1234.729
79.695	13.653	1615.560	1233.957
80.709	13.640	1614.689	1233.080
81.724	13.697	1613.280	1232.324
82.739	13.703	1613.031	1232.064
83.753	13.860	1611.695	1232.103
84.768	13.799	1610.688	1230.768
85.782	13.734	1610.322	1229.901
86.797	13.875	1609.019	1229.838
87.812	13.883	1608.148	1229.126
88.826	13.833	1606.663	1227.509
89.841	13.844	1605.347	1226.483
90.855	13.823	1604.700	1225.718
91.870	13.784	1603.737	1224.592
92.884	13.854	1602.787	1224.274
93.899	13.896	1601.505	1223.497
94.914	13.980	1600.004	1222.855
95.928	13.980	1598.851	1221.870
96.943	13.954	1597.602	1220.615
97.957	13.942	1595.952	1219.159
98.972	13.970	1594.273	1217.972
99.987	13.920	1592.986	1216.516
101.001	13.906	1591.882	1215.460
102.016	13.884	1589.918	1213.697
103.030	13.925	1588.256	1212.621
104.045	13.810	1587.749	1211.281
105.060	13.842	1586.414	1210.389
106.074	13.881	1584.511	1209.115
107.089	13.872	1583.165	1207.918
108.103	13.783	1582.341	1206.532
109.118	13.817	1580.870	1205.556
110.133	13.699	1579.453	1203.506
111.147	13.703	1578.283	1202.543
112.162	13.784	1576.912	1201.973
113.176	13.771	1575.132	1200.417
114.191	13.826	1573.947	1199.808
115.206	13.848	1572.643	1198.863
116.220	13.937	1571.197	1198.300
117.235	13.793	1570.222	1196.408
118.249	13.784	1569.014	1195.320
119.264	13.836	1567.698	1194.586
120.279	13.858	1566.364	1193.626
121.293	13.810	1564.923	1192.074
122.308	13.832	1563.604	1191.122
123.322	13.876	1562.043	1190.140
124.337	13.798	1560.303	1188.157
125.352	13.793	1559.661	1187.524
126.366	13.834	1558.408	1186.761
127.381	13.704	1557.207	1184.811
128.395	13.733	1556.110	1184.075
129.410	13.812	1554.547	1183.349
130.424	13.874	1552.693	1182.269
131.439	13.829	1551.963	1181.291
132.454	13.858	1550.432	1180.228
133.468	13.869	1549.025	1179.133
134.483	13.895	1547.413	1177.984
135.497	13.927	1546.590	1177.480
136.512	13.946	1545.010	1176.309
137.527	13.905	1543.956	1175.109
138.541	13.869	1542.529	1173.662
139.556	14.007	1540.823	1173.240
140.570	14.006	1539.810	1172.352
141.585	14.058	1538.111	1171.328
142.600	13.988	1537.019	1169.899
143.614	14.047	1535.753	1169.246
144.629	14.015	1534.682	1168.098
145.643	14.099	1533.141	1167.418
146.658	14.095	1531.824	1166.282
147.673	14.131	1530.047	1165.073
148.687	14.068	1528.985	1163.721
149.702	14.021	1527.535	1162.188
150.716	14.112	1525.545	1161.206
151.731	14.060	1524.049	1159.606
152.746	14.021	1522.823	1158.296
153.760	14.083	1521.253	1157.434
154.775	14.002	1520.441	1156.149
155.789	14.136	1519.247	1156.068
156.804	14.058	1517.805	1154.327
157.819	14.216	1516.517	1154.343
158.833	14.107	1515.444	1152.666
159.848	14.127	1514.155	1151.725
160.862	14.194	1512.830	1151.074
161.877	14.223	1511.385	1150.076
162.892	14.156	1510.492	1148.832
163.906	14.131	1509.226	1147.595
164.921	14.158	1507.634	1146.469
165.935	14.139	1506.482	1145.359
166.950	14.103	1505.537	1144.297
167.964	14.156	1504.197	1143.539
168.979	14.245	1503.401	1143.441
169.994	14.258	1501.914	1142.303
171.008	14.189	1501.246	1141.221
172.023	14.233	1500.377	1140.757
173.037	14.122	1499.427	1139.174
174.052	14.294	1497.555	1138.828
175.067	14.289	1496.531	1137.918
176.081	14.249	1495.743	1136.942
177.096	14.192	1494.160	1135.250
178.110	14.173	1493.165	1134.262
179.125	14.303	1491.538	1133.811
180.140	14.202	1490.581	1132.299
181.154	14.391	1489.213	1132.439
182.169	14.380	1488.202	1131.499
183.183	14.391	1486.683	1130.320
184.198	14.294	1486.201	1129.197
185.213	14.354	1484.934	1128.537
186.227	14.448	1483.871	1128.267
187.242	14.422	1482.972	1127.309
188.256	14.574	1481.507	1127.122
189.271	14.549	1480.671	1126.214
190.286	14.478	1479.900	1125.048
191.300	14.478	1479.112	1124.354
192.315	14.266	1478.144	1122.087
193.329	14.259	1476.636	1120.796
194.344	14.308	1475.796	1120.392
195.359	14.366	1474.217	1119.485
196.373	14.344	1473.067	1118.359
197.388	14.443	1471.944	1118.074
198.402	14.525	1470.836	1117.681
199.417	14.580	1470.237	1117.496
200.432	14.604	1469.126	1116.717
201.446	14.599	1467.921	1115.668
202.461	14.740	1466.434	1115.377
203.475	14.707	1465.880	1114.636
204.490	14.647	1464.931	1113.420
205.504	14.680	1463.758	1112.646
206.519	14.725	1462.120	1111.603
207.534	14.703	1461.249	1110.695
208.548	14.637	1460.378	1109.499
209.563	14.687	1459.268	1108.889
210.577	14.674	1458.403	1108.045
211.592	14.723	1457.464	1107.562
212.607	14.773	1456.480	1107.046
213.621	14.674	1456.667	1106.437
214.636	14.751	1455.217	1105.742
215.650	14.793	1454.010	1105.006
216.665	14.817	1453.495	1104.679
217.680	14.763	1452.823	1103.714
218.694	14.835	1451.990	1103.455
219.709	14.885	1450.681	1102.693
220.723	14.904	1449.891	1102.121
221.738	14.956	1448.795	1101.532
222.753	14.912	1448.160	1100.665
223.767	14.858	1447.004	1099.334
224.782	14.898	1446.555	1099.159
225.796	14.948	1445.371	1098.490
226.811	14.986	1444.293	1097.821
227.826	14.943	1443.748	1097.025
228.840	14.917	1442.960	1096.159
229.855	14.928	1441.701	1095.180
230.869	14.954	1440.757	1094.537
231.884	14.967	1439.892	1093.866
232.899	14.955	1438.493	1092.632
233.913	14.914	1437.513	1091.521
234.928	15.072	1436.064	1091.356
235.942	15.012	1434.757	1089.875
236.957	15.004	1433.639	1088.876
237.972	14.961	1432.690	1087.778
238.986	14.894	1431.903	1086.649
240.001	14.926	1430.902	1086.003
241.015	15.019	1429.588	1085.510
242.030	15.071	1428.307	1084.782
243.045	15.090	1427.590	1084.263
244.059	15.161	1426.830	1084.046
245.074	15.150	1425.619	1082.964
246.088	15.110	1425.128	1082.235
247.103	15.164	1424.437	1081.962
248.117	15.231	1423.006	1081.210
249.132	15.302	1422.354	1081.082
250.147	15.272	1421.625	1080.236
251.161	15.331	1421.191	1080.188
252.176	15.339	1420.688	1079.764
253.190	15.321	1420.233	1079.209
254.205	15.356	1418.912	1078.330
255.220	15.334	1417.955	1077.371
256.234	15.433	1417.084	1077.249
257.249	15.543	1416.450	1077.377
258.263	15.479	1415.688	1076.288
259.278	15.542	1414.321	1075.561
260.293	15.491	1413.547	1074.548
261.307	15.510	1412.901	1074.084
262.322	15.593	1411.990	1073.830
263.336	15.566	1411.422	1073.125
264.351	15.608	1410.174	1072.354
265.366	15.655	1409.306	1071.896
266.380	15.655	1408.351	1071.073
267.395	15.712	1407.337	1070.570
268.409	15.767	1406.889	1070.487
269.424	15.732	1405.675	1069.245
270.439	15.656	1404.822	1068.019
271.453	15.638	1403.688	1066.949
272.468	15.690	1403.018	1066.675
273.482	15.709	1402.495	1066.306
274.497	15.650	1401.926	1065.401
275.512	15.766	1400.466	1064.933
276.526	15.692	1399.746	1063.826
277.541	15.636	1398.675	1062.564
278.555	15.838	1397.899	1063.153
279.570	15.793	1396.957	1062.060
280.585	15.834	1395.836	1061.372
281.599	15.785	1395.624	1060.810
282.614	15.813	1394.495	1060.029
283.628	15.890	1393.125	1059.378
284.643	15.872	1391.885	1058.229
285.657	15.855	1391.069	1057.411
286.672	15.875	1390.394	1056.930
287.687	15.953	1389.217	1056.431
288.701	15.876	1388.185	1055.070
289.716	15.904	1387.530	1054.652
290.730	15.861	1387.047	1053.922
291.745	15.890	1385.906	1053.146
292.760	15.959	1385.351	1053.062
293.774	16.074	1383.848	1052.547
294.789	15.952	1383.181	1051.182
295.803	16.069	1381.967	1050.896
296.818	16.059	1381.133	1050.109
297.833	16.135	1380.412	1049.938
298.847	16.030	1379.088	1048.187
299.862	15.968	1378.356	1047.149
300.876	16.057	1377.540	1046.989
301.891	16.117	1376.220	1046.269
302.906	16.163	1375.690	1046.059
303.920	16.230	1375.168	1045.985
304.935	16.108	1374.048	1044.285
305.949	16.166	1373.618	1044.227
306.964	16.244	1372.684	1043.906
307.979	16.277	1371.622	1043.210
308.993	16.242	1370.865	1042.322
310.008	16.294	1369.689	1041.658
311.022	16.265	1368.582	1040.547
312.037	16.334	1367.594	1040.126
313.052	16.323	1366.716	1039.300
314.066	16.295	1365.702	1038.265
315.081	16.391	1364.347	1037.735
316.095	16.294	1363.747	1036.588
317.110	16.259	1362.867	1035.614
318.125	16.249	1362.117	1034.890
319.139	16.262	1361.145	1034.137
320.154	16.331	1359.909	1033.531
321.168	16.358	1359.004	1032.920
322.183	16.306	1358.034	1031.770
323.197	16.415	1357.154	1031.677
324.212	16.498	1355.791	1031.058
325.227	16.390	1355.589	1030.150
326.241	16.429	1354.385	1029.382
327.256	16.426	1353.568	1028.652
328.270	16.417	1352.870	1027.978
329.285	16.484	1351.874	1027.538
330.300	16.481	1351.092	1026.833
331.314	16.450	1350.196	1025.871
332.329	16.407	1349.995	1025.366
333.343	16.500	1348.118	1024.416
334.358	16.508	1347.443	1023.860
335.373	16.546	1346.775	1023.495
336.387	16.578	1345.893	1022.924
337.402	16.429	1345.332	1021.505
338.416	16.502	1344.679	1021.361
339.431	16.555	1343.883	1020.990
340.446	16.634	1342.879	1020.610
341.460	16.610	1342.282	1019.919
342.475	16.555	1341.530	1018.928
343.489	16.755	1340.286	1019.095
344.504	16.694	1339.526	1018.064
345.519	16.761	1338.176	1017.351
346.533	16.831	1337.367	1017.064
347.548	16.785	1336.631	1016.140
348.562	16.851	1335.683	1015.722
349.577	16.850	1335.089	1015.173
350.592	16.868	1334.045	1014.398
351.606	16.854	1333.169	1013.557
352.621	16.857	1332.371	1012.881
353.635	16.890	1330.941	1011.901
354.650	16.758	1330.730	1010.865
355.665	16.814	1329.628	1010.274
356.679	16.858	1328.194	1009.353
357.694	16.856	1327.372	1008.630
358.708	16.843	1326.085	1007.482
359.723	16.885	1325.262	1007.017
360.738	16.898	1324.138	1006.154
361.752	16.990	1323.152	1005.861
362.767	17.035	1321.992	1005.159
363.781	16.930	1321.321	1003.933
364.796	17.049	1320.506	1003.934
365.810	16.935	1320.155	1002.899
366.825	17.011	1319.352	1002.654
367.840	17.053	1318.594	1002.233
368.854	17.122	1317.745	1001.911
369.869	17.122	1317.201	1001.407
370.883	17.253	1316.287	1001.393
371.898	17.110	1315.923	1000.188
372.913	17.207	1314.760	999.788
373.927	17.114	1313.925	998.513
374.942	17.159	1313.322	998.230
375.956	17.178	1312.635	997.737
376.971	17.233	1311.702	997.262
377.986	17.243	1310.547	996.354
379.000	17.193	1310.243	995.739
380.015	17.388	1309.030	995.874
381.029	17.347	1308.809	995.377
382.044	17.312	1308.005	994.471
383.059	17.379	1307.107	994.094
384.073	17.351	1306.516	993.390
385.088	17.290	1306.122	992.647
386.102	17.497	1304.949	992.874
387.117	17.464	1303.913	991.803
388.132	17.497	1303.399	991.518
389.146	17.383	1302.823	990.330
390.161	17.476	1301.550	989.814
391.175	17.451	1301.328	989.416
392.190	17.505	1300.424	988.954
393.205	17.457	1299.303	987.736
394.219	17.545	1298.449	987.507
395.234	17.532	1297.196	986.393
396.248	17.516	1295.707	985.079
397.263	17.577	1294.684	984.568
398.278	17.481	1293.114	982.735
399.292	17.477	1292.621	982.250
400.307	17.427	1291.473	980.999
401.321	17.490	1290.198	980.307
402.336	17.531	1289.510	979.934
403.350	17.643	1287.944	979.301
404.365	17.586	1287.235	978.351
405.380	17.620	1286.616	977.986
406.394	17.738	1285.458	977.697
407.409	17.687	1285.119	977.062
408.423	17.712	1284.215	976.429
409.438	17.660	1283.787	975.721
410.453	17.792	1282.738	975.592
411.467	17.732	1282.341	974.859
412.482	17.819	1281.286	974.469
413.496	17.817	1280.787	973.992
414.511	17.921	1280.021	973.915
415.526	17.923	1279.214	973.230
416.540	17.867	1278.806	972.513
417.555	17.968	1277.939	972.339
418.569	17.862	1277.733	971.495
419.584	17.862	1277.304	971.082
420.599	18.007	1276.333	971.081
421.613	89.469	1339.891	1426.231
422.628	87.698	1349.121	1426.317
