DTS Sentinel unit serial number:	SN413079Multiplexer serial number:	ORYXHardware model number:	OX4-SRSoftware version number:	ORYX F/W v4.00 Oryx Data Collector v3.7.2.0data status	okinstallation	princeton_trtdifferential loss correction	single-endedforward channel	channel 4reverse channel	N/Adate	2019/09/18time	19:49:35forward acquisition time	60.00reverse acquisition time	0.00gamma	496.2192k internal	0.2316k external	0.2316temperature offset calibration	1.0035default loss term (dB/km)	0.3790temperature slope calibration	1.0000multiplexer offset coefficient	1.0000multiplexer slope coefficient	1.0000fibre end	0.00T internal ref (°C)	31.19T ext. ref 1 (°C)	1.05T ext. ref 2 (°C)	22.00length (m)	temperature (°C)	Stokes	anti-Stokes-747.200	-38.298	0.254	0.136
-746.185	-185.269	0.195	0.003
-745.171	323.101	0.070	0.135
-744.156	-200.000	-0.023	-0.226
-743.142	204.375	-0.117	-0.183
-742.127	325.326	-0.115	0.223
-741.112	-200.000	-0.023	0.118
-740.098	800.000	-0.030	0.127
-739.083	108.919	-0.140	0.169
-738.069	800.000	-0.067	0.239
-737.054	-121.773	-0.149	0.025
-736.039	-135.904	-0.051	-0.006
-735.025	-16.576	0.139	-0.089
-734.010	-25.262	0.071	-0.042
-732.996	-8.174	0.097	-0.066
-731.981	-71.631	-0.008	0.003
-730.966	800.000	0.058	-0.233
-729.952	-76.640	0.105	0.037
-728.937	-76.761	-0.278	-0.099
-727.923	-105.019	0.182	-0.042
-726.908	440.484	-0.137	-0.302
-725.894	-200.000	-0.027	-0.218
-724.879	-200.000	-0.011	0.164
-723.864	-74.608	0.170	0.062
-722.850	132.868	-0.269	-0.352
-721.835	-60.356	0.327	-0.141
-720.821	-200.000	-0.057	-0.312
-719.806	-200.000	0.028	-0.307
-718.791	-37.742	0.075	-0.040
-717.777	48.857	-0.129	-0.123
-716.762	800.000	0.097	0.402
-715.748	302.095	-0.043	-0.080
-714.733	132.909	0.108	-0.142
-713.718	-95.057	-0.111	-0.030
-712.704	-27.640	-0.171	0.101
-711.689	800.000	-0.046	0.180
-710.675	-94.566	-0.101	0.028
-709.660	-200.000	-0.024	0.123
-708.645	-172.438	0.277	0.009
-707.631	63.720	-0.179	0.182
-706.616	388.039	0.060	-0.127
-705.602	10.040	-0.174	0.134
-704.587	-200.000	0.051	0.355
-703.572	-77.682	-0.159	-0.056
-702.558	82.242	-0.190	0.208
-701.543	5.018	-0.267	-0.199
-700.529	-39.677	0.161	-0.085
-699.514	-18.860	-0.255	-0.160
-698.499	-75.895	0.191	0.068
-697.485	-146.784	0.153	-0.013
-696.470	-200.000	0.010	-0.259
-695.456	-81.009	-0.189	-0.063
-694.441	-200.000	0.022	0.163
-693.426	-33.429	0.155	0.087
-692.412	40.232	-0.142	-0.129
-691.397	800.000	0.010	0.029
-690.383	-33.088	0.170	-0.095
-689.368	-200.000	0.038	0.231
-688.354	727.420	-0.107	0.287
-687.339	92.626	0.131	-0.150
-686.324	422.331	-0.163	-0.353
-685.310	17.744	0.224	0.180
-684.295	-109.724	0.130	-0.028
-683.281	4.215	0.259	-0.192
-682.266	-120.083	-0.159	-0.028
-681.251	-200.000	-0.004	-0.151
-680.237	-200.000	0.094	-0.442
-679.222	257.457	-0.130	-0.225
-678.208	-88.477	0.084	0.025
-677.193	-140.384	0.100	-0.011
-676.178	800.000	-0.063	-0.189
-675.164	-27.633	-0.259	0.152
-674.149	60.741	-0.112	0.112
-673.135	-200.000	-0.004	-0.061
-672.120	-200.000	0.063	-0.493
-671.105	-112.059	0.133	-0.027
-670.091	205.579	-0.251	0.394
-669.076	-126.142	-0.194	-0.029
-668.062	85.267	-0.127	-0.141
-667.047	79.067	0.148	-0.160
-666.032	-29.618	-0.253	-0.146
-665.018	412.352	-0.162	0.348
-664.003	35.005	-0.156	-0.138
-662.989	-157.219	0.205	0.013
-661.974	-45.080	0.129	-0.065
-660.959	-76.183	-0.250	-0.089
-659.945	-107.946	0.314	-0.069
-658.930	83.249	-0.196	-0.215
-657.916	-41.414	-0.301	-0.156
-656.901	202.566	0.154	-0.239
-655.886	-81.634	-0.046	-0.015
-654.872	-57.413	0.109	-0.048
-653.857	800.000	-0.121	0.396
-652.843	-8.927	0.179	0.121
-651.828	-200.000	0.054	-0.264
-650.814	83.349	0.213	-0.234
-649.799	800.000	-0.078	-0.296
-648.784	-200.000	0.056	-0.398
-647.770	0.928	-0.311	0.225
-646.755	624.329	0.065	-0.164
-645.741	-39.623	-0.334	0.177
-644.726	-200.000	0.011	0.067
-643.711	-200.000	-0.022	0.124
-642.697	17.049	0.233	0.186
-641.682	253.090	0.174	0.299
-640.668	4.288	0.210	0.155
-639.653	502.136	0.218	0.507
-638.638	432.812	0.169	-0.369
-637.624	300.969	0.123	-0.229
-636.609	185.707	0.096	-0.145
-635.595	800.000	-0.042	-0.165
-634.580	800.000	-0.056	-0.168
-633.565	-31.054	0.121	-0.069
-632.551	389.423	-0.142	-0.296
-631.536	-79.148	0.224	-0.077
-630.522	427.719	-0.095	0.206
-629.507	-200.000	-0.043	-0.222
-628.492	254.538	-0.106	-0.184
-627.478	69.269	0.278	-0.288
-626.463	-200.000	-0.019	0.155
-625.449	-37.260	-0.217	-0.117
-624.434	421.321	0.101	-0.219
-623.419	236.304	0.158	0.263
-622.405	234.455	-0.110	0.184
-621.390	410.023	0.087	-0.185
-620.376	-124.613	-0.129	0.020
-619.361	-55.247	-0.203	-0.092
-618.346	-200.000	-0.036	-0.177
-617.332	735.697	-0.148	-0.401
-616.317	300.954	0.106	0.198
-615.303	-139.510	0.205	-0.022
-614.288	243.428	0.135	-0.228
-613.273	576.441	0.090	-0.222
-612.259	188.791	0.091	0.137
-611.244	16.440	0.059	-0.047
-610.230	-121.671	-0.097	0.016
-609.215	-110.637	-0.159	0.033
-608.201	295.077	0.063	-0.116
-607.186	-200.000	-0.051	-0.483
-606.171	-147.531	0.151	0.013
-605.157	800.000	-0.081	0.246
-604.142	-78.303	-0.177	0.061
-603.128	331.021	0.049	-0.095
-602.113	-98.693	0.233	-0.060
-601.098	-0.600	0.242	-0.173
-600.084	-12.527	-0.187	-0.123
-599.069	800.000	0.086	-0.282
-598.055	445.875	-0.059	-0.130
-597.040	-200.000	-0.000	0.159
-596.025	56.839	0.245	-0.240
-595.011	-131.639	0.181	-0.024
-593.996	-72.354	-0.121	0.045
-592.982	-200.000	0.023	-0.187
-591.967	44.548	0.176	-0.162
-590.952	347.722	-0.099	-0.196
-589.938	562.937	0.123	0.299
-588.923	-11.191	-0.059	-0.039
-587.909	-200.000	0.024	-0.204
-586.894	-69.450	0.150	0.058
-585.879	800.000	-0.064	-0.251
-584.865	-84.570	0.082	0.026
-583.850	234.569	-0.134	0.222
-582.836	73.565	-0.167	-0.176
-581.821	-200.000	0.000	-0.370
-580.806	-86.976	0.106	-0.033
-579.792	26.957	-0.209	-0.176
-578.777	-124.944	0.020	0.003
-577.763	-107.134	-0.112	0.025
-576.748	9.421	0.138	0.105
-575.733	-95.592	-0.299	-0.081
-574.719	-130.782	-0.151	-0.020
-573.704	-14.422	0.111	-0.072
-572.690	-54.373	-0.249	-0.114
-571.675	-9.558	-0.186	-0.125
-570.661	-16.959	0.226	0.143
-569.646	-140.380	-0.089	-0.009
-568.631	-115.596	-0.041	0.008
-567.617	800.000	-0.037	-0.126
-566.602	165.093	0.128	-0.182
-565.588	59.601	-0.187	-0.186
-564.573	715.582	0.091	-0.244
-563.558	273.201	-0.076	0.135
-562.544	669.316	-0.029	-0.074
-561.529	800.000	-0.140	-0.492
-560.515	-12.915	0.218	-0.143
-559.500	800.000	0.093	0.282
-558.485	-115.255	-0.252	0.048
-557.471	245.300	0.129	-0.219
-556.456	475.726	0.110	0.250
-555.442	45.748	-0.132	-0.123
-554.427	-200.000	-0.002	0.223
-553.412	-200.000	-0.002	0.084
-552.398	-47.033	0.317	0.155
-551.383	121.427	-0.242	-0.304
-550.369	212.625	-0.130	0.207
-549.354	-200.000	-0.022	0.356
-548.339	-39.158	-0.154	0.082
-547.325	60.341	-0.195	-0.194
-546.310	130.003	-0.106	0.136
-545.296	-48.645	0.429	0.207
-544.281	378.007	-0.156	-0.321
-543.266	-150.317	0.133	0.010
-542.252	20.803	-0.084	-0.068
-541.237	151.941	-0.192	0.263
-540.223	-99.341	-0.133	-0.034
-539.208	800.000	0.017	-0.073
-538.193	710.867	-0.040	0.106
-537.179	-200.000	-0.046	-0.293
-536.164	60.011	-0.161	-0.160
-535.150	-176.405	-0.049	0.001
-534.135	-140.749	0.151	0.016
-533.121	62.162	-0.092	0.092
-532.106	615.689	-0.105	0.264
-531.091	211.100	0.019	-0.030
-530.077	-171.319	-0.369	0.012
-529.062	-137.105	-0.395	-0.045
-528.048	-100.209	0.390	-0.097
-527.033	800.000	0.018	0.064
-526.018	-122.697	0.273	-0.044
-525.004	-36.270	0.325	-0.176
-523.989	800.000	0.061	-0.249
-522.975	34.257	0.069	0.061
-521.960	-150.040	0.298	0.023
-520.945	-173.380	0.080	-0.002
-519.931	-200.000	0.047	-0.307
-518.916	-200.000	-0.024	0.465
-517.902	-83.297	-0.420	-0.135
-516.887	-200.000	0.012	0.097
-515.872	800.000	-0.078	-0.285
-514.858	800.000	0.065	0.221
-513.843	-0.572	-0.075	0.053
-512.829	81.318	0.234	-0.253
-511.814	-176.288	0.186	0.005
-510.799	-43.995	0.099	-0.050
-509.785	800.000	0.012	-0.038
-508.770	529.951	-0.039	-0.094
-507.756	-73.512	0.306	0.112
-506.741	-86.308	0.290	-0.090
-505.726	-52.125	0.284	0.132
-504.712	171.720	-0.235	-0.339
-503.697	-155.916	-0.214	0.014
-502.683	12.729	0.090	0.069
-501.668	-200.000	-0.023	-0.122
-500.653	-131.385	0.038	-0.005
-499.639	21.216	0.122	-0.100
-498.624	0.866	-0.142	0.102
-497.610	-20.541	0.164	0.101
-496.595	378.278	-0.031	0.065
-495.581	37.135	-0.232	-0.206
-494.566	800.000	-0.080	-0.280
-493.551	-116.766	0.147	-0.027
-492.537	-121.767	-0.087	0.014
-491.522	129.352	-0.121	0.155
-490.508	800.000	0.029	-0.122
-489.493	-18.700	-0.285	-0.178
-488.478	-121.866	-0.137	0.023
-487.464	-200.000	0.019	-0.091
-486.449	-8.307	0.180	-0.122
-485.435	-151.956	-0.364	-0.027
-484.420	-74.312	-0.199	-0.072
-483.405	-17.291	-0.130	0.082
-482.391	800.000	0.019	0.059
-481.376	-53.309	0.298	-0.137
-480.362	-200.000	0.057	-0.610
-479.347	111.390	-0.060	0.072
-478.332	-200.000	0.052	0.334
-477.318	94.920	-0.264	-0.302
-476.303	-109.569	0.071	0.015
-475.289	-114.848	-0.274	0.052
-474.274	144.813	-0.105	-0.141
-473.259	-135.025	-0.341	-0.041
-472.245	2.698	-0.245	-0.178
-471.230	-200.000	-0.001	-0.014
-470.216	-200.000	-0.009	0.058
-469.201	176.873	0.113	-0.165
-468.186	-102.080	-0.098	0.024
-467.172	19.410	0.063	0.051
-466.157	343.106	-0.183	-0.359
-465.143	80.615	0.106	0.114
-464.128	0.019	-0.080	0.057
-463.113	-45.223	0.202	0.100
-462.099	-7.828	0.155	-0.105
-461.084	-11.930	0.208	0.136
-460.070	50.699	-0.364	-0.346
-459.055	-182.699	-0.415	0.008
-458.040	-200.000	-0.032	-0.260
-457.026	-154.879	0.094	-0.006
-456.011	800.000	0.040	-0.135
-454.997	-38.316	-0.220	-0.117
-453.982	-200.000	-0.074	0.402
-452.968	-3.147	-0.131	0.091
-451.953	3.984	-0.139	-0.102
-450.938	-200.000	0.006	-0.330
-449.924	-200.000	0.000	-0.143
-448.909	-124.986	0.052	0.008
-447.895	-58.308	0.301	0.131
-446.880	-53.329	-0.142	-0.065
-445.865	-117.548	-0.283	0.051
-444.851	69.502	0.086	-0.088
-443.836	203.647	0.302	0.468
-442.822	-21.078	0.106	0.065
-441.807	-137.172	0.476	0.054
-440.792	-48.729	0.231	0.111
-439.778	-200.000	0.013	0.316
-438.763	800.000	-0.033	0.142
-437.749	-34.976	0.150	-0.082
-436.734	617.717	-0.134	-0.337
-435.719	-152.215	-0.093	0.007
-434.705	-200.000	-0.013	0.332
-433.690	784.885	-0.082	0.224
-432.676	57.348	-0.141	0.138
-431.661	353.708	-0.081	-0.161
-430.646	80.570	-0.139	-0.150
-429.632	443.475	-0.130	-0.285
-428.617	-156.625	0.194	-0.012
-427.603	-200.000	0.013	-0.290
-426.588	-44.945	0.055	0.027
-425.573	-200.000	0.004	0.266
-424.559	765.638	-0.054	0.147
-423.544	-200.000	-0.054	0.267
-422.530	-92.251	-0.246	-0.069
-421.515	17.072	-0.311	-0.246
-420.500	87.580	0.194	0.215
-419.486	7.051	-0.296	-0.220
-418.471	-200.000	0.069	-0.511
-417.457	-29.528	0.167	-0.095
-416.442	-200.000	0.014	-0.388
-415.428	800.000	0.057	0.183
-414.413	178.840	-0.148	0.217
-413.398	-13.014	-0.203	0.132
-412.384	-200.000	0.004	-0.295
-411.369	516.528	0.052	-0.121
-410.355	-74.373	-0.348	-0.126
-409.340	-133.227	-0.258	0.033
-408.325	-200.000	-0.089	-0.404
-407.311	-3.308	-0.223	0.155
-406.296	34.894	0.154	-0.135
-405.282	-165.999	0.275	-0.012
-404.267	103.048	0.228	0.268
-403.252	121.348	-0.045	-0.057
-402.238	-29.359	0.251	-0.143
-401.223	1.715	-0.310	-0.223
-400.209	-108.656	-0.083	-0.018
-399.194	-95.252	-0.322	0.087
-398.179	-200.000	-0.036	0.217
-397.165	-101.728	-0.318	-0.077
-396.150	29.712	0.254	-0.216
-395.136	291.077	0.079	-0.143
-394.121	715.792	0.084	-0.223
-393.106	149.069	-0.223	0.302
-392.092	75.817	-0.140	0.148
-391.077	800.000	0.008	0.025
-390.063	272.387	0.096	-0.170
-389.048	-101.281	0.246	0.060
-388.033	-88.600	-0.118	-0.035
-387.019	800.000	0.048	-0.149
-386.004	-1.518	-0.219	-0.155
-384.990	-68.004	-0.144	0.056
-383.975	-122.587	0.197	0.032
-382.960	-200.000	0.023	0.240
-381.946	124.742	-0.067	0.085
-380.931	800.000	-0.043	0.169
-379.917	113.990	-0.194	-0.236
-378.902	342.596	-0.039	0.076
-377.888	368.940	-0.068	-0.138
-376.873	-66.470	0.101	-0.040
-375.858	20.866	-0.267	0.216
-374.844	74.251	-0.018	-0.019
-373.829	662.318	-0.097	0.249
-372.815	-68.078	-0.150	0.058
-371.800	800.000	0.052	-0.145
-370.785	20.208	0.413	0.333
-369.771	-200.000	0.002	-0.058
-368.756	-92.376	-0.037	-0.010
-367.742	-67.609	0.460	-0.180
-366.727	-200.000	-0.114	0.562
-365.712	222.267	-0.075	0.120
-364.698	114.795	-0.254	0.309
-363.683	461.264	0.085	-0.189
-362.669	-200.000	0.019	-0.286
-361.654	-103.936	-0.169	0.039
-360.639	-116.754	0.243	0.045
-359.625	800.000	-0.072	0.301
-358.610	800.000	-0.053	-0.176
-357.596	-200.000	0.023	-0.108
-356.581	800.000	-0.005	-0.018
-355.566	308.614	0.205	-0.381
-354.552	-200.000	0.006	-0.102
-353.537	147.002	0.208	-0.279
-352.523	36.450	0.152	-0.134
-351.508	-200.000	-0.042	0.257
-350.493	636.465	0.032	-0.080
-349.479	-185.321	0.154	0.002
-348.464	-75.984	0.224	0.079
-347.450	90.129	-0.037	0.042
-346.435	29.732	0.071	-0.060
-345.420	268.001	-0.124	-0.217
-344.406	-13.067	0.115	-0.074
-343.391	-80.104	-0.315	0.105
-342.377	800.000	-0.033	0.103
-341.362	178.828	-0.146	0.213
-340.348	20.652	-0.028	-0.022
-339.333	258.387	0.126	0.217
-338.318	-200.000	-0.008	0.069
-337.304	227.488	0.118	-0.192
-336.289	-74.111	-0.349	-0.126
-335.275	187.040	-0.167	0.248
-334.260	800.000	-0.084	-0.289
-333.245	-54.486	0.137	0.062
-332.231	5.275	0.083	-0.061
-331.216	44.917	-0.110	0.101
-330.202	-200.000	0.102	-0.470
-329.187	800.000	-0.076	0.238
-328.172	-200.000	0.026	0.198
-327.158	484.552	0.109	0.248
-326.143	34.032	-0.088	0.077
-325.129	-168.873	-0.127	-0.005
-324.114	2.673	0.068	0.049
-323.099	126.119	0.121	-0.153
-322.085	-71.624	0.223	-0.083
-321.070	-200.000	0.005	-0.024
-320.056	211.645	-0.154	0.241
-319.041	-44.906	0.046	0.023
-318.026	800.000	-0.075	0.272
-317.012	120.983	0.258	0.320
-315.997	-24.673	0.204	0.121
-314.983	-21.241	-0.119	0.072
-313.968	200.181	-0.171	-0.261
-312.953	245.467	-0.116	-0.194
-311.939	-200.000	0.008	-0.384
-310.924	800.000	-0.103	-0.359
-309.910	800.000	0.115	0.338
-308.895	-200.000	-0.005	0.140
-307.880	37.481	-0.190	0.168
-306.866	800.000	-0.116	-0.369
-305.851	708.151	-0.141	-0.370
-304.837	-200.000	0.009	0.241
-303.822	380.649	-0.088	0.179
-302.807	7.764	-0.173	0.129
-301.793	-127.123	-0.247	-0.036
-300.778	39.355	-0.100	0.089
-299.764	75.156	0.180	0.188
-298.749	13.036	-0.076	-0.059
-297.735	-193.009	-0.504	-0.004
-296.720	-19.122	-0.084	0.052
-295.705	800.000	-0.091	-0.398
-294.691	713.419	0.152	0.402
-293.676	609.677	0.006	0.016
-292.662	-10.855	0.139	0.091
-291.647	-200.000	0.003	0.046
-290.632	800.000	0.044	-0.175
-289.618	-46.157	-0.196	-0.096
-288.603	-200.000	0.054	0.487
-287.589	-145.779	-0.369	-0.033
-286.574	61.833	-0.231	-0.229
-285.559	-30.074	-0.220	0.124
-284.545	-63.018	0.187	0.077
-283.530	-200.000	-0.027	0.223
-282.516	-200.000	-0.121	-0.000
-281.501	89.422	0.182	0.202
-280.486	260.343	-0.182	0.312
-279.472	800.000	0.062	-0.172
-278.457	242.719	-0.104	-0.173
-277.443	-200.000	0.074	-0.377
-276.428	800.000	-0.097	0.333
-275.413	-21.988	0.204	-0.123
-274.399	610.926	0.131	0.327
-273.384	-200.000	-0.043	0.331
-272.370	-127.486	0.125	0.018
-271.355	-74.062	0.112	-0.040
-270.340	-132.483	-0.042	0.005
-269.326	-105.767	0.415	0.093
-268.311	171.880	0.143	0.204
-267.297	-200.000	0.029	0.200
-266.282	-200.000	0.081	0.373
-265.267	8.296	-0.094	0.070
-264.253	354.183	-0.105	-0.207
-263.238	49.592	0.330	-0.309
-262.224	800.000	0.065	-0.215
-261.209	94.415	0.162	0.183
-260.195	800.000	0.073	0.221
-259.180	711.985	0.077	0.204
-258.165	13.262	0.281	0.216
-257.151	800.000	-0.054	0.184
-256.136	219.339	-0.130	0.206
-255.122	641.059	0.151	-0.382
-254.107	-61.060	0.054	0.023
-253.092	800.000	-0.105	0.315
-252.078	-27.780	-0.177	0.102
-251.063	-170.957	-0.147	0.005
-250.049	-75.771	0.280	-0.099
-249.034	0.205	0.231	0.164
-248.019	800.000	-0.059	0.196
-247.005	-200.000	-0.008	0.061
-245.990	-200.000	-0.043	0.312
-244.976	800.000	-0.057	0.243
-243.961	113.865	-0.134	-0.161
-242.946	361.822	0.059	-0.117
-241.932	-74.449	0.391	0.140
-240.917	332.298	0.116	0.223
-239.903	-62.477	0.109	-0.045
-238.888	587.163	-0.079	0.192
-237.873	-98.090	0.060	-0.015
-236.859	-177.525	0.218	0.005
-235.844	297.100	0.117	0.214
-234.830	44.283	0.214	0.195
-233.815	388.007	0.166	-0.342
-232.800	88.837	0.056	-0.062
-231.786	-37.947	0.183	-0.096
-230.771	-25.146	0.256	-0.151
-229.757	-33.397	-0.272	-0.149
-228.742	-200.000	0.067	0.455
-227.727	-19.473	0.311	0.191
-226.713	-28.214	0.180	-0.103
-225.698	-11.833	-0.253	0.165
-224.684	-72.269	0.234	0.086
-223.669	-84.326	0.374	0.117
-222.655	800.000	0.010	-0.035
-221.640	-200.000	0.056	0.294
-220.625	9.149	0.309	0.232
-219.611	-137.108	-0.200	-0.023
-218.596	-6.718	0.096	-0.065
-217.582	-126.557	-0.241	-0.035
-216.567	114.490	0.105	0.127
-215.552	-110.982	-0.106	0.022
-214.538	-93.182	-0.126	-0.035
-213.523	-110.115	0.011	0.002
-212.509	69.254	-0.152	-0.155
-211.494	-78.059	0.171	0.058
-210.479	-128.212	0.168	-0.024
-209.465	800.000	0.054	-0.208
-208.450	5.249	0.131	0.096
-207.436	-119.890	-0.279	-0.048
-206.421	83.569	-0.094	0.101
-205.406	-171.744	0.168	0.005
-204.392	-71.028	0.530	-0.198
-203.377	-113.916	-0.293	0.056
-202.363	800.000	0.053	0.180
-201.348	800.000	0.099	0.285
-200.333	191.002	0.221	-0.329
-199.319	-1.332	-0.064	0.045
-198.304	9.406	-0.281	0.211
-197.290	104.969	-0.126	0.147
-196.275	526.661	-0.089	-0.208
-195.260	584.443	0.027	0.067
-194.246	699.081	0.098	0.255
-193.231	-9.722	-0.241	-0.159
-192.217	118.566	0.168	0.206
-191.202	283.951	-0.210	-0.375
-190.187	16.473	-0.162	0.127
-189.173	222.130	0.064	0.103
-188.158	-151.743	0.040	0.003
-187.144	86.713	-0.207	0.227
-186.129	117.902	0.097	0.118
-185.114	93.513	0.129	0.144
-184.100	93.740	0.054	0.061
-183.085	137.845	0.096	-0.125
-182.071	38.638	0.164	-0.145
-181.056	-200.000	0.043	0.217
-180.042	800.000	-0.065	0.271
-179.027	208.358	0.060	-0.093
-178.012	-42.684	0.496	0.250
-176.998	-109.810	0.024	0.005
-175.983	-28.542	-0.392	0.224
-174.969	-44.889	0.308	0.152
-173.954	43.509	-0.010	0.009
-172.939	306.071	-0.198	-0.364
-171.925	242.807	-0.138	-0.229
-170.910	800.000	0.045	0.130
-169.896	-200.000	-0.007	0.280
-168.881	-46.774	0.069	0.033
-167.866	505.558	-0.080	-0.184
-166.852	800.000	-0.027	0.095
-165.837	-177.051	0.511	0.013
-164.823	167.382	-0.179	0.252
-163.808	232.860	-0.406	0.660
-162.793	-56.000	0.118	0.052
-161.779	460.230	0.122	0.269
-160.764	-200.000	-0.011	-0.129
-159.750	-104.944	-0.175	0.040
-158.735	-83.100	0.493	0.157
-157.720	-50.527	0.111	0.052
-156.706	791.097	0.185	0.504
-155.691	96.093	-0.146	-0.165
-154.677	800.000	-0.022	0.072
-153.662	-40.457	0.160	0.083
-152.647	-53.657	-0.273	-0.123
-151.633	-166.514	-0.225	0.009
-150.618	-24.310	-0.075	-0.044
-149.604	357.202	0.133	0.263
-148.589	-200.000	0.091	0.492
-147.574	-120.037	0.134	-0.023
-146.560	330.333	0.090	0.171
-145.545	-69.626	0.108	0.041
-144.531	-49.538	0.215	0.101
-143.516	373.958	0.067	0.135
-142.502	-22.967	-0.392	0.234
-141.487	-114.941	-0.110	-0.021
-140.472	-115.739	0.154	0.029
-139.458	81.594	0.088	-0.094
-138.443	58.367	-0.159	0.154
-137.429	800.000	0.068	-0.241
-136.414	-15.967	0.128	0.081
-135.399	-130.602	-0.299	-0.040
-134.385	-200.000	0.012	-0.210
-133.370	-200.000	0.021	-0.359
-132.356	-200.000	0.031	0.137
-131.341	4.710	0.213	-0.154
-130.326	246.294	-0.120	-0.201
-129.312	-132.048	0.368	-0.047
-128.297	-118.042	0.103	-0.018
-127.283	38.736	0.176	-0.155
-126.268	127.142	0.048	-0.061
-125.253	-49.856	-0.063	0.030
-124.239	-13.193	-0.486	0.312
-123.224	-8.525	0.211	-0.140
-122.210	-200.000	0.034	0.169
-121.195	259.060	0.348	0.594
-120.180	142.502	0.085	-0.111
-119.166	-118.856	0.137	0.024
-118.151	81.593	0.156	0.166
-117.137	152.163	-0.038	-0.052
-116.122	54.968	0.245	0.234
-115.107	-68.042	0.105	-0.040
-114.093	146.196	0.159	0.211
-113.078	391.678	0.073	-0.149
-112.064	-28.234	0.388	0.222
-111.049	193.523	-0.255	0.381
-110.034	-134.423	-0.162	0.020
-109.020	-62.544	0.162	0.067
-108.005	107.288	-0.049	-0.058
-106.991	210.492	0.017	0.027
-105.976	-200.000	0.022	0.193
-104.962	5.542	0.227	-0.166
-103.947	-200.000	0.048	0.256
-102.932	127.126	-0.146	-0.183
-101.918	-0.209	0.240	-0.169
-100.903	-151.226	0.157	-0.012
-99.889	-2.796	0.312	0.215
-98.874	-200.000	0.053	0.266
-97.859	-48.128	-0.242	0.115
-96.845	401.970	-0.063	0.131
-95.830	-31.504	0.169	-0.094
-94.816	49.713	0.233	0.216
-93.801	800.000	-0.139	0.453
-92.786	-39.919	0.235	-0.121
-91.772	-2.025	0.057	0.040
-90.757	84.554	0.070	0.075
-89.743	-49.981	0.212	-0.099
-88.728	-200.000	0.036	0.460
-87.713	400.487	0.116	0.241
-86.699	224.608	0.121	-0.193
-85.684	31.985	0.126	0.107
-84.670	22.230	0.214	-0.172
-83.655	-2.187	-0.053	-0.037
-82.640	-78.319	0.230	-0.078
-81.626	200.535	0.111	-0.168
-80.611	77.367	-0.256	-0.268
-79.597	-29.493	0.172	0.097
-78.582	-94.135	0.266	0.072
-77.567	-200.000	-0.008	0.181
-76.553	428.477	0.050	-0.108
-75.538	-200.000	-0.018	0.254
-74.524	-90.665	-0.198	-0.056
-73.509	-23.278	-0.296	-0.176
-72.494	32.488	-0.215	-0.183
-71.480	109.469	-0.065	-0.077
-70.465	522.282	-0.074	-0.172
-69.451	-19.597	0.156	0.095
-68.436	-143.149	-0.408	0.039
-67.422	-68.655	0.130	0.050
-66.407	141.966	-0.070	-0.092
-65.392	-200.000	0.022	-0.125
-64.378	104.248	0.073	-0.084
-63.363	-38.111	-0.114	0.060
-62.349	203.459	0.167	0.255
-61.334	87.339	-0.811	-0.885
-60.319	66.017	0.546	0.547
-59.305	-200.000	-0.159	-1.005
-58.290	382.573	0.434	0.880
-57.276	550.172	0.751	1.776
-56.261	-200.000	107.165	617.411
-55.246	464.158	1478.654	3259.268
-54.232	144.998	2667.597	3517.737
-53.217	100.428	2319.579	2654.892
-52.203	37.861	2071.232	1814.676
-51.188	33.112	1988.057	1699.169
-50.173	31.520	1970.587	1669.972
-49.159	48.054	2026.002	1867.015
-48.144	48.741	2043.744	1889.509
-47.130	33.553	2002.402	1715.150
-46.115	31.196	1992.080	1684.994
-45.100	31.058	1989.086	1681.155
-44.086	31.002	1986.741	1678.603
-43.071	31.102	1984.113	1677.211
-42.057	31.110	1981.940	1675.381
-41.042	31.065	1980.265	1673.498
-40.027	31.070	1977.943	1671.513
-39.013	31.092	1976.386	1670.323
-37.998	31.163	1974.185	1669.037
-36.984	31.130	1972.667	1667.386
-35.969	31.128	1970.766	1665.701
-34.954	31.176	1969.107	1664.654
-33.940	31.163	1967.749	1663.326
-32.925	31.192	1965.903	1661.959
-31.911	31.234	1963.796	1660.483
-30.896	31.183	1962.290	1658.697
-29.881	31.169	1961.240	1657.620
-28.867	31.275	1959.071	1656.661
-27.852	31.213	1957.553	1654.760
-26.838	31.311	1955.658	1653.957
-25.823	31.284	1954.023	1652.270
-24.809	31.277	1952.211	1650.610
-23.794	31.207	1950.934	1648.849
-22.779	31.222	1948.429	1646.797
-21.765	31.246	1946.916	1645.666
-20.750	31.221	1945.291	1644.007
-19.736	31.225	1944.053	1642.931
-18.721	31.253	1941.902	1641.293
-17.706	31.244	1940.766	1640.190
-16.692	31.183	1939.373	1638.412
-15.677	31.177	1937.432	1636.650
-14.663	31.139	1936.336	1635.330
-13.648	31.126	1935.067	1634.084
-12.633	31.110	1933.936	1632.922
-11.619	31.167	1932.162	1631.854
-10.604	31.190	1930.802	1630.839
-9.590	31.143	1929.153	1628.974
-8.575	31.180	1927.633	1627.952
-7.560	31.242	1926.193	1627.205
-6.546	31.198	1925.035	1625.787
-5.531	31.141	1924.343	1624.641
-4.517	31.173	1922.857	1623.594
-3.502	31.201	1921.576	1622.698
-2.487	31.159	1920.864	1621.668
-1.473	31.170	1919.803	1620.801
-0.458	31.135	1914.843	1616.244
0.556	29.335	1893.451	1579.537
1.571	23.675	1869.315	1511.243
2.586	18.451	1888.246	1481.381
3.600	16.834	1921.880	1493.393
4.615	16.519	1917.122	1486.792
5.629	13.288	1819.387	1383.873
6.644	5.882	1703.709	1237.539
7.659	1.539	1666.202	1176.637
8.673	1.047	1663.393	1170.749
9.688	1.138	1661.901	1170.296
10.702	1.105	1660.588	1169.009
11.717	0.930	1657.999	1165.735
12.731	1.384	1656.961	1168.396
13.746	6.758	1667.851	1217.498
14.761	14.243	1682.618	1286.207
15.775	17.517	1687.455	1315.120
16.790	17.583	1686.703	1314.926
17.804	16.745	1682.811	1305.318
18.819	15.682	1680.018	1294.853
19.834	15.194	1677.645	1289.157
20.848	14.783	1675.770	1284.444
21.863	14.528	1674.253	1281.205
22.877	14.298	1672.846	1278.250
23.892	14.149	1671.347	1275.849
24.907	13.923	1670.642	1273.470
25.921	13.887	1669.505	1272.212
26.936	13.931	1668.817	1271.911
27.950	13.985	1667.586	1271.273
28.965	14.075	1667.111	1271.490
29.980	14.017	1666.432	1270.412
30.994	14.082	1665.530	1270.110
32.009	14.086	1664.465	1269.213
33.023	14.148	1663.843	1269.102
34.038	14.105	1662.560	1267.686
35.053	14.171	1660.996	1266.881
36.067	14.065	1660.524	1265.600
37.082	14.107	1659.170	1264.775
38.096	14.102	1658.523	1264.134
39.111	14.159	1657.632	1263.775
40.126	14.195	1656.577	1263.135
41.140	14.194	1655.335	1262.067
42.155	14.048	1654.404	1260.143
43.169	14.008	1653.088	1258.725
44.184	13.920	1652.195	1257.266
45.199	13.985	1650.967	1256.709
46.213	13.968	1649.605	1255.436
47.228	13.991	1648.620	1254.752
48.242	14.003	1647.160	1253.618
49.257	14.095	1645.995	1253.315
50.271	14.002	1644.869	1251.641
51.286	13.991	1643.639	1250.512
52.301	14.007	1642.343	1249.540
53.315	14.067	1641.153	1248.973
54.330	14.063	1638.963	1247.164
55.344	14.026	1637.525	1245.686
56.359	14.012	1636.351	1244.577
57.374	14.047	1635.317	1243.943
58.388	13.988	1634.352	1242.653
59.403	13.942	1632.910	1241.102
60.417	13.919	1631.365	1239.650
61.432	13.889	1630.747	1238.843
62.447	13.952	1628.833	1237.750
63.461	13.900	1628.086	1236.692
64.476	13.942	1626.599	1235.762
65.490	13.839	1625.733	1234.225
66.505	13.873	1624.250	1233.245
67.520	13.886	1623.589	1232.728
68.534	13.918	1622.355	1231.921
69.549	13.951	1621.385	1231.320
70.563	13.938	1619.974	1230.047
71.578	13.960	1618.061	1228.649
72.593	13.920	1617.356	1227.710
73.607	13.840	1616.671	1226.488
74.622	13.807	1615.632	1225.348
75.636	13.842	1614.643	1224.745
76.651	13.804	1613.544	1223.525
77.666	13.851	1612.915	1223.288
78.680	13.925	1611.655	1222.767
79.695	13.956	1610.419	1221.948
80.709	13.952	1609.610	1221.196
81.724	13.843	1609.592	1220.276
82.739	13.842	1608.307	1219.181
83.753	14.018	1607.082	1219.439
84.768	14.092	1605.731	1218.850
85.782	13.982	1605.486	1217.751
86.797	14.094	1604.251	1217.525
87.812	14.151	1603.227	1217.058
88.826	14.033	1602.111	1215.238
89.841	13.995	1601.081	1214.070
90.855	14.052	1599.667	1213.308
91.870	13.967	1598.654	1211.815
92.884	14.078	1597.506	1211.643
93.899	14.014	1596.784	1210.524
94.914	14.010	1595.510	1209.419
95.928	14.107	1594.363	1209.148
96.943	14.155	1592.749	1208.167
97.957	14.098	1591.068	1206.375
98.972	14.131	1589.795	1205.544
99.987	14.197	1587.951	1204.513
101.001	14.133	1586.291	1202.685
102.016	14.078	1585.346	1201.464
103.030	14.123	1583.613	1200.371
104.045	14.027	1582.997	1199.104
105.060	14.116	1581.055	1198.168
106.074	14.082	1579.935	1196.972
107.089	14.142	1578.122	1195.922
108.103	14.062	1576.746	1194.196
109.118	13.940	1575.555	1192.315
110.133	13.933	1574.535	1191.387
111.147	13.918	1573.581	1190.452
112.162	13.895	1572.379	1189.274
113.176	13.971	1570.673	1188.421
114.191	14.004	1569.387	1187.581
115.206	14.021	1568.360	1186.817
116.220	14.120	1566.409	1185.941
117.235	14.015	1565.844	1184.658
118.249	13.999	1564.001	1183.046
119.264	14.071	1563.082	1182.763
120.279	14.010	1561.450	1180.989
121.293	14.098	1560.027	1180.428
122.308	14.001	1558.560	1178.527
123.322	14.093	1556.916	1177.835
124.337	14.009	1555.561	1176.107
125.352	13.983	1554.616	1175.107
126.366	13.990	1553.573	1174.263
127.381	13.957	1552.268	1172.938
128.395	13.981	1551.445	1172.382
129.410	13.924	1550.157	1170.908
130.424	14.072	1547.778	1170.043
131.439	14.031	1547.035	1169.096
132.454	14.061	1545.359	1167.933
133.468	14.075	1544.622	1167.371
134.483	14.150	1542.629	1166.289
135.497	14.125	1541.726	1165.327
136.512	14.126	1540.011	1163.933
137.527	14.180	1538.616	1163.155
138.541	13.994	1538.013	1161.296
139.556	14.065	1536.137	1160.271
140.570	14.214	1534.340	1159.849
141.585	14.098	1533.587	1158.375
142.600	14.187	1532.194	1157.835
143.614	14.247	1530.570	1156.926
144.629	14.314	1529.081	1156.159
145.643	14.344	1528.124	1155.540
146.658	14.387	1526.433	1154.460
147.673	14.290	1525.306	1152.833
148.687	14.293	1524.011	1151.776
149.702	14.317	1522.114	1150.404
150.716	14.180	1520.840	1148.392
151.731	14.270	1518.811	1147.379
152.746	14.208	1518.109	1146.322
153.760	14.186	1516.437	1144.806
154.775	14.170	1515.489	1143.880
155.789	14.268	1513.876	1143.236
156.804	14.342	1512.781	1142.817
157.819	14.407	1511.236	1141.991
158.833	14.379	1510.167	1140.891
159.848	14.423	1509.423	1140.529
160.862	14.401	1508.245	1139.384
161.877	14.475	1506.976	1138.831
162.892	14.403	1505.804	1137.353
163.906	14.349	1504.551	1135.940
164.921	14.293	1503.292	1134.506
165.935	14.429	1501.667	1134.107
166.950	14.401	1501.205	1133.463
167.964	14.360	1500.305	1132.410
168.979	14.426	1499.005	1131.774
169.994	14.424	1497.896	1130.822
171.008	14.369	1497.663	1130.174
172.023	14.362	1496.194	1128.917
173.037	14.458	1494.472	1128.170
174.052	14.577	1493.248	1127.949
175.067	14.488	1492.458	1126.651
176.081	14.465	1491.582	1125.738
177.096	14.497	1489.860	1124.556
178.110	14.503	1488.618	1123.554
179.125	14.485	1487.767	1122.692
180.140	14.546	1486.597	1122.119
181.154	14.584	1485.467	1121.425
182.169	14.519	1484.530	1120.183
183.183	14.523	1483.541	1119.364
184.198	14.567	1482.778	1118.981
185.213	14.706	1481.296	1118.700
186.227	14.701	1480.098	1117.657
187.242	14.627	1479.048	1116.270
188.256	14.639	1478.400	1115.764
189.271	14.706	1477.161	1115.180
190.286	14.751	1475.879	1114.416
191.300	14.733	1474.642	1113.263
192.315	14.571	1473.676	1111.351
193.329	14.573	1472.621	1110.474
194.344	14.460	1471.869	1109.054
195.359	14.631	1469.821	1108.549
196.373	14.546	1469.477	1107.632
197.388	14.693	1468.081	1107.455
198.402	14.724	1466.810	1106.601
199.417	14.747	1466.102	1106.122
200.432	14.795	1465.155	1105.629
201.446	14.827	1464.379	1105.155
202.461	14.897	1462.596	1104.172
203.475	14.883	1461.330	1103.029
204.490	14.977	1460.400	1102.851
205.504	14.935	1459.516	1101.807
206.519	14.921	1458.414	1100.788
207.534	14.852	1457.207	1099.324
208.548	14.911	1455.827	1098.571
209.563	14.911	1455.375	1098.136
210.577	14.961	1454.352	1097.594
211.592	14.865	1453.337	1096.104
212.607	14.933	1452.509	1095.823
213.621	15.064	1451.794	1096.048
214.636	15.021	1450.904	1094.998
215.650	15.074	1449.753	1094.374
216.665	15.056	1448.746	1093.402
217.680	15.094	1448.231	1093.162
218.694	15.016	1447.645	1092.116
219.709	15.140	1446.556	1092.006
220.723	15.105	1445.606	1090.963
221.738	15.149	1444.696	1090.470
222.753	15.115	1443.666	1089.374
223.767	15.138	1442.683	1088.685
224.782	15.107	1441.835	1087.749
225.796	15.175	1441.064	1087.513
226.811	15.201	1439.987	1086.771
227.826	15.298	1439.100	1086.635
228.840	15.157	1438.954	1085.516
229.855	15.255	1437.523	1084.971
230.869	15.209	1436.426	1083.753
231.884	15.207	1435.454	1082.910
232.899	15.362	1433.846	1082.602
233.913	15.223	1433.465	1081.321
234.928	15.198	1432.147	1080.071
235.942	15.226	1430.951	1079.252
236.957	15.162	1429.729	1077.821
237.972	15.258	1428.283	1077.256
238.986	15.246	1427.547	1076.525
240.001	15.266	1426.712	1075.930
241.015	15.265	1425.622	1075.006
242.030	15.232	1424.603	1073.933
243.045	15.310	1423.476	1073.488
244.059	15.241	1423.182	1072.729
245.074	15.282	1421.973	1071.983
246.088	15.279	1421.404	1071.442
247.103	15.361	1420.520	1071.206
248.117	15.469	1419.521	1071.047
249.132	15.466	1418.785	1070.376
250.147	15.528	1417.960	1070.052
251.161	15.562	1417.490	1069.817
252.176	15.567	1416.734	1069.189
253.190	15.718	1415.951	1069.461
254.205	15.689	1414.998	1068.462
255.220	15.784	1413.828	1068.086
256.234	15.694	1413.277	1067.003
257.249	15.771	1412.639	1066.916
258.263	15.756	1411.658	1065.990
259.278	15.831	1410.571	1065.546
260.293	15.788	1409.690	1064.513
261.307	15.792	1408.635	1063.654
262.322	15.767	1408.490	1063.286
263.336	15.845	1407.568	1062.994
264.351	15.889	1406.398	1062.290
265.366	15.868	1405.927	1061.711
266.380	15.891	1404.584	1060.748
267.395	15.929	1403.748	1060.263
268.409	15.919	1402.796	1059.385
269.424	15.869	1402.229	1058.549
270.439	15.892	1401.084	1057.737
271.453	15.900	1399.931	1056.818
272.468	15.998	1398.656	1056.378
273.482	15.982	1398.111	1055.772
274.497	15.869	1397.682	1054.649
275.512	15.924	1396.624	1054.104
276.526	15.935	1395.902	1053.532
277.541	15.953	1394.779	1052.705
278.555	15.912	1393.766	1051.589
279.570	15.959	1393.110	1051.293
280.585	15.947	1392.295	1050.511
281.599	15.988	1391.384	1049.989
282.614	16.091	1390.214	1049.652
283.628	16.174	1389.082	1049.222
284.643	16.142	1387.607	1047.817
285.657	16.118	1387.015	1047.129
286.672	16.110	1386.287	1046.432
287.687	16.079	1385.299	1045.407
288.701	16.146	1384.236	1044.927
289.716	16.220	1383.663	1044.859
290.730	16.210	1382.521	1043.842
291.745	16.253	1381.711	1043.405
292.760	16.227	1380.582	1042.296
293.774	16.206	1379.913	1041.568
294.789	16.221	1379.006	1040.884
295.803	16.231	1378.249	1040.284
296.818	16.244	1377.278	1039.539
297.833	16.281	1376.174	1038.845
298.847	16.365	1375.111	1038.462
299.862	16.249	1374.243	1037.006
300.876	16.338	1373.189	1036.664
301.891	16.309	1372.392	1035.792
302.906	16.356	1371.397	1035.240
303.920	16.432	1370.863	1035.210
304.935	16.368	1370.134	1034.173
305.949	16.476	1369.177	1034.019
306.964	16.427	1368.573	1033.175
307.979	16.558	1367.603	1033.153
308.993	16.500	1366.843	1032.134
310.008	16.567	1365.470	1031.412
311.022	16.470	1364.458	1029.963
312.037	16.585	1363.380	1029.758
313.052	16.648	1362.620	1029.481
314.066	16.544	1361.619	1027.998
315.081	16.576	1360.436	1027.212
316.095	16.554	1359.534	1026.305
317.110	16.562	1358.928	1025.801
318.125	16.691	1357.479	1025.398
319.139	16.537	1356.990	1024.008
320.154	16.609	1355.813	1023.462
321.168	16.609	1355.337	1023.014
322.183	16.580	1354.004	1021.744
323.197	16.552	1353.106	1020.806
324.212	16.598	1352.133	1020.258
325.227	16.559	1351.500	1019.454
326.241	16.609	1350.702	1019.065
327.256	16.758	1349.565	1019.014
328.270	16.651	1348.962	1017.822
329.285	16.711	1348.059	1017.417
330.300	16.687	1347.528	1016.781
331.314	16.652	1346.469	1015.682
332.329	16.760	1345.459	1015.478
333.343	16.789	1344.383	1014.748
334.358	16.713	1343.431	1013.481
335.373	16.642	1343.178	1012.777
336.387	16.841	1341.730	1012.789
337.402	16.894	1341.069	1012.513
338.416	16.951	1340.424	1012.278
339.431	16.858	1340.029	1011.334
340.446	16.952	1339.115	1011.115
341.460	16.993	1338.049	1010.467
342.475	17.032	1337.181	1009.955
343.489	16.940	1336.340	1008.681
344.504	16.961	1335.674	1008.215
345.519	17.008	1334.877	1007.806
346.533	17.047	1333.989	1007.273
347.548	17.126	1333.112	1006.990
348.562	17.097	1332.014	1005.904
349.577	17.142	1331.395	1005.613
350.592	17.073	1331.016	1004.828
351.606	17.085	1329.866	1003.942
352.621	17.148	1328.063	1002.864
353.635	17.025	1327.520	1001.641
354.650	17.120	1326.784	1001.555
355.665	17.117	1325.503	1000.481
356.679	17.047	1325.085	999.665
357.694	17.039	1323.609	998.416
358.708	17.208	1321.921	998.046
359.723	17.309	1320.992	997.854
360.738	17.140	1320.356	996.290
361.752	17.203	1319.135	995.654
362.767	17.221	1318.217	994.978
363.781	17.181	1317.309	993.967
364.796	17.150	1316.765	993.288
365.810	17.275	1315.993	993.351
366.825	17.368	1315.114	993.143
367.840	17.425	1314.132	992.645
368.854	17.370	1313.950	992.099
369.869	17.399	1313.195	991.606
370.883	17.430	1312.630	991.275
371.898	17.446	1311.685	990.568
372.913	17.411	1310.978	989.743
373.927	17.476	1310.051	989.330
374.942	17.481	1308.979	988.464
375.956	17.529	1308.541	988.324
376.971	17.562	1307.752	987.834
377.986	17.464	1306.986	986.596
379.000	17.469	1306.216	985.958
380.015	17.527	1305.395	985.587
381.029	17.676	1304.457	985.655
382.044	17.473	1304.169	984.174
383.059	17.469	1303.663	983.685
384.073	17.667	1302.194	983.633
385.088	17.674	1301.668	983.187
386.102	17.687	1301.443	983.006
387.117	17.735	1300.274	982.308
388.132	17.709	1299.454	981.456
389.146	17.689	1298.713	980.691
390.161	17.618	1297.887	979.572
391.175	17.713	1297.075	979.419
392.190	17.689	1296.333	978.637
393.205	17.733	1295.772	978.380
394.219	17.773	1294.636	977.665
395.234	17.858	1293.125	976.920
396.248	17.790	1292.001	975.599
397.263	17.860	1290.652	974.892
398.278	17.827	1289.145	973.483
399.292	17.838	1288.372	972.875
400.307	17.794	1287.131	971.598
401.321	17.763	1286.335	970.735
402.336	17.799	1285.182	969.983
403.350	17.879	1284.275	969.671
404.365	17.831	1283.309	968.580
405.380	17.850	1282.715	968.155
406.394	17.831	1281.962	967.392
407.409	17.838	1281.540	967.031
408.423	17.885	1280.685	966.565
409.438	17.918	1280.286	966.364
410.453	17.966	1279.257	965.775
411.467	18.095	1278.099	965.543
412.482	17.939	1278.175	964.634
413.496	18.152	1277.018	964.875
414.511	18.012	1276.205	963.388
415.526	18.200	1275.211	963.613
416.540	18.263	1274.418	963.280
417.555	18.129	1274.364	962.399
418.569	18.094	1273.522	961.483
419.584	18.182	1273.072	961.553
420.599	18.218	1272.788	961.456
421.613	97.264	1352.936	1469.770
422.628	94.952	1364.573	1469.859
