DTS Sentinel unit serial number:	SN413079Multiplexer serial number:	ORYXHardware model number:	OX4-SRSoftware version number:	ORYX F/W v4.00 Oryx Data Collector v3.7.2.0data status	okinstallation	princeton_trtdifferential loss correction	single-endedforward channel	channel 4reverse channel	N/Adate	2019/09/17time	20:01:35forward acquisition time	60.00reverse acquisition time	0.00gamma	496.2192k internal	0.2315k external	0.2315temperature offset calibration	0.9986default loss term (dB/km)	0.3790temperature slope calibration	1.0000multiplexer offset coefficient	1.0000multiplexer slope coefficient	1.0000fibre end	0.00T internal ref (°C)	33.14T ext. ref 1 (°C)	0.23T ext. ref 2 (°C)	22.92length (m)	temperature (°C)	Stokes	anti-Stokes-747.200	223.346	-0.113	0.185
-746.185	-200.000	-0.005	-0.319
-745.171	189.341	0.177	-0.269
-744.156	-91.342	0.265	-0.077
-743.142	-21.751	-0.198	-0.122
-742.127	775.511	-0.070	0.194
-741.112	-168.380	-0.236	-0.009
-740.098	-39.296	-0.309	0.164
-739.083	-200.000	-0.004	0.164
-738.069	-52.839	-0.230	-0.108
-737.054	702.814	0.047	-0.126
-736.039	54.215	-0.159	-0.155
-735.025	-71.064	-0.306	-0.117
-734.010	68.505	-0.089	0.092
-732.996	265.600	0.250	0.441
-731.981	-18.037	0.141	0.089
-730.966	-22.056	0.202	-0.124
-729.952	800.000	0.026	0.107
-728.937	139.309	0.256	-0.342
-727.923	531.996	-0.027	0.065
-726.908	143.568	-0.093	0.126
-725.894	800.000	-0.073	0.214
-724.879	42.998	0.097	0.090
-723.864	-115.584	-0.265	0.050
-722.850	-23.689	-0.054	0.033
-721.835	-200.000	0.001	-0.332
-720.821	-200.000	-0.014	-0.132
-719.806	11.259	-0.236	0.183
-718.791	-137.098	0.122	-0.014
-717.777	800.000	0.014	0.046
-716.762	-55.386	0.251	-0.114
-715.748	-114.312	0.221	-0.043
-714.733	-108.163	-0.265	-0.058
-713.718	-141.026	0.229	0.024
-712.704	-124.156	0.104	0.016
-711.689	-104.983	-0.175	-0.041
-710.675	-93.362	0.059	-0.017
-709.660	-200.000	-0.007	-0.221
-708.645	-28.969	0.327	0.190
-707.631	-72.326	0.215	0.081
-706.616	-200.000	-0.017	0.086
-705.602	127.539	0.286	0.367
-704.587	308.909	0.098	0.185
-703.572	-200.000	-0.053	0.393
-702.558	-200.000	-0.259	-0.000
-701.543	-6.130	0.168	-0.116
-700.529	-48.075	0.227	-0.111
-699.514	96.104	-0.369	-0.426
-698.499	800.000	0.075	0.243
-697.485	800.000	0.027	0.082
-696.470	-60.291	0.035	-0.015
-695.456	-49.388	0.137	-0.066
-694.441	-169.919	-0.102	0.004
-693.426	55.714	-0.096	-0.094
-692.412	617.681	0.093	0.236
-691.397	16.312	-0.074	-0.059
-690.383	-191.093	-0.284	-0.003
-689.368	-72.991	-0.185	0.069
-688.354	-68.386	0.325	0.127
-687.339	117.519	0.331	0.412
-686.324	106.262	-0.066	-0.079
-685.310	89.109	-0.040	0.045
-684.295	77.285	-0.323	-0.347
-683.281	-161.553	-0.198	0.010
-682.266	412.782	0.101	0.217
-681.251	-200.000	-0.008	0.286
-680.237	504.883	-0.183	-0.429
-679.222	-200.000	-0.036	-0.308
-678.208	-48.890	-0.342	-0.166
-677.193	-200.000	0.009	0.041
-676.178	-159.712	0.250	0.014
-675.164	-200.000	-0.010	0.169
-674.149	10.882	-0.117	0.091
-673.135	204.958	0.212	0.333
-672.120	-200.000	0.015	-0.255
-671.105	-93.467	-0.240	0.067
-670.091	138.076	0.202	-0.267
-669.076	195.865	-0.031	0.048
-668.062	800.000	0.037	-0.144
-667.047	180.205	-0.113	-0.168
-666.032	-17.007	0.123	0.078
-665.018	-42.396	-0.157	0.081
-664.003	800.000	0.070	-0.261
-662.989	-73.726	-0.241	0.089
-661.974	431.071	0.090	-0.198
-660.959	47.500	0.087	0.081
-659.945	102.401	-0.114	-0.135
-658.930	-200.000	-0.020	-0.199
-657.916	-18.194	0.339	-0.214
-656.901	90.121	-0.106	-0.120
-655.886	-47.513	-0.030	0.015
-654.872	-59.837	-0.207	-0.089
-653.857	-41.056	-0.111	-0.058
-652.843	539.415	0.068	-0.163
-651.828	-78.302	-0.435	-0.151
-650.814	-91.766	-0.107	-0.031
-649.799	-48.323	0.129	-0.063
-648.784	358.215	-0.110	0.221
-647.770	800.000	0.042	0.169
-646.755	26.624	-0.072	0.061
-645.741	725.699	0.060	-0.161
-644.726	487.139	-0.039	-0.091
-643.711	-28.980	0.245	0.142
-642.697	-200.000	-0.014	-0.261
-641.682	-6.618	0.008	0.005
-640.668	23.853	-0.229	0.191
-639.653	-200.000	-0.005	0.187
-638.638	-131.126	-0.049	-0.007
-637.624	-35.293	0.361	0.198
-636.609	167.765	0.189	-0.271
-635.595	121.364	-0.121	0.153
-634.580	-120.915	0.177	0.030
-633.565	794.979	0.149	0.414
-632.551	-200.000	0.008	0.246
-631.536	60.001	-0.211	-0.211
-630.522	49.242	0.178	-0.169
-629.507	99.554	0.153	-0.179
-628.492	-29.732	0.325	0.187
-627.478	-44.125	-0.131	0.067
-626.463	-104.147	0.373	-0.087
-625.449	196.327	0.230	0.353
-624.434	604.999	-0.128	0.321
-623.419	-101.969	-0.096	0.023
-622.405	-200.000	0.087	-0.448
-621.390	399.315	-0.105	-0.222
-620.376	57.180	-0.118	-0.116
-619.361	-200.000	-0.001	-0.058
-618.346	800.000	-0.057	-0.186
-617.332	-75.167	-0.160	-0.058
-616.317	35.699	-0.385	-0.341
-615.303	437.495	-0.122	-0.268
-614.288	-62.274	-0.275	0.116
-613.273	-28.623	0.161	-0.093
-612.259	235.520	-0.026	0.044
-611.244	647.776	-0.058	0.150
-610.230	-200.000	0.028	0.216
-609.215	-22.226	-0.127	-0.078
-608.201	-21.263	0.147	-0.091
-607.186	-55.721	-0.112	0.051
-606.171	53.346	0.345	0.333
-605.157	13.122	0.281	0.219
-604.142	-16.134	0.229	-0.147
-603.128	317.272	0.108	0.205
-602.113	-200.000	-0.091	0.466
-601.098	800.000	0.032	-0.131
-600.084	800.000	0.012	-0.035
-599.069	-123.821	-0.329	-0.052
-598.055	441.387	-0.093	-0.206
-597.040	9.847	-0.182	-0.139
-596.025	197.812	0.120	-0.185
-595.011	-150.564	0.240	0.019
-593.996	191.149	-0.087	-0.132
-592.982	415.607	0.173	0.372
-591.967	-200.000	-0.042	0.277
-590.952	-20.034	-0.164	-0.102
-589.938	-175.462	-0.499	-0.014
-588.923	-200.000	-0.035	0.331
-587.909	-123.546	-0.251	-0.040
-586.894	-200.000	0.007	-0.109
-585.879	143.135	0.174	0.233
-584.865	-120.284	0.055	0.009
-583.850	-123.478	0.333	-0.053
-582.836	-45.992	-0.187	0.093
-581.821	302.073	0.155	0.289
-580.806	-135.797	-0.329	0.039
-579.792	433.056	0.076	0.165
-578.777	66.644	0.293	0.300
-577.763	-200.000	-0.055	-0.329
-576.748	-106.084	0.212	-0.048
-575.733	-60.980	0.186	-0.079
-574.719	639.704	0.041	-0.105
-573.704	-200.000	0.014	0.330
-572.690	186.499	-0.231	0.346
-571.675	17.147	-0.213	0.170
-570.661	71.049	0.047	-0.049
-569.646	-200.000	0.041	-0.251
-568.631	359.458	-0.114	0.229
-567.617	-101.766	-0.110	0.027
-566.602	-200.000	0.050	0.325
-565.588	-65.704	0.136	-0.055
-564.573	58.125	0.169	-0.167
-563.558	48.177	0.076	0.071
-562.544	574.796	0.021	-0.051
-561.529	78.465	0.230	-0.247
-560.515	552.834	0.141	-0.341
-559.500	290.457	-0.213	0.389
-558.485	2.790	-0.115	0.084
-557.471	-63.273	-0.107	-0.044
-556.456	-200.000	-0.015	-0.299
-555.442	-72.549	-0.161	-0.060
-554.427	79.619	0.225	0.243
-553.412	60.360	0.066	0.065
-552.398	111.927	0.170	-0.207
-551.383	307.484	-0.124	0.232
-550.369	-70.833	-0.186	0.071
-549.354	322.292	0.170	0.325
-548.339	-200.000	-0.001	0.560
-547.325	-200.000	-0.053	0.408
-546.310	50.774	-0.098	0.094
-545.296	-49.897	-0.138	0.066
-544.281	120.804	0.105	0.132
-543.266	-200.000	-0.088	0.565
-542.252	-85.627	-0.229	0.071
-541.237	-33.935	-0.156	-0.086
-540.223	-200.000	-0.002	0.447
-539.208	292.131	0.227	-0.416
-538.193	800.000	-0.054	-0.214
-537.179	-200.000	0.008	0.046
-536.164	70.844	0.105	-0.109
-535.150	184.034	0.146	0.217
-534.135	-65.597	0.165	-0.067
-533.121	800.000	-0.072	-0.226
-532.106	202.276	-0.311	-0.482
-531.091	-200.000	-0.002	0.097
-530.077	-200.000	-0.010	0.237
-529.062	-200.000	0.032	0.156
-528.048	800.000	-0.121	0.391
-527.033	-71.133	0.115	-0.044
-526.018	-200.000	0.002	0.072
-525.004	4.805	0.088	-0.065
-523.989	396.268	0.081	-0.170
-522.975	137.974	0.055	-0.072
-521.960	-20.340	0.145	-0.090
-520.945	-49.495	0.318	-0.152
-519.931	171.543	0.088	-0.127
-518.916	756.709	0.036	0.099
-517.902	-81.202	0.138	0.046
-516.887	-52.919	-0.243	-0.112
-515.872	-200.000	-0.010	-0.142
-514.858	-200.000	0.048	0.261
-513.843	93.683	-0.217	-0.247
-512.829	11.339	0.252	0.194
-511.814	800.000	0.018	0.056
-510.799	-134.615	0.284	0.035
-509.785	-200.000	-0.014	-0.222
-508.770	-120.219	-0.269	0.046
-507.756	-158.622	-0.229	-0.013
-506.741	355.319	-0.126	-0.252
-505.726	-200.000	0.030	-0.183
-504.712	-130.678	0.028	0.004
-503.697	-27.632	0.198	-0.115
-502.683	-200.000	-0.001	0.131
-501.668	8.393	0.330	-0.249
-500.653	426.194	0.042	-0.091
-499.639	800.000	0.042	0.140
-498.624	299.470	-0.080	-0.147
-497.610	121.077	-0.075	-0.094
-496.595	800.000	0.096	0.397
-495.581	-129.914	-0.234	0.032
-494.566	148.273	0.233	0.315
-493.551	-5.310	-0.262	-0.181
-492.537	163.807	-0.026	-0.036
-491.522	250.080	-0.140	-0.238
-490.508	-200.000	0.018	0.152
-489.493	43.699	0.173	0.158
-488.478	-5.899	0.091	-0.062
-487.464	109.885	0.070	0.085
-486.449	30.701	-0.135	0.116
-485.435	-103.205	-0.251	-0.059
-484.420	-93.943	-0.203	-0.056
-483.405	-200.000	-0.016	0.350
-482.391	629.402	0.062	-0.158
-481.376	-200.000	-0.044	0.283
-480.362	-200.000	-0.014	0.117
-479.347	800.000	0.040	0.142
-478.332	-160.253	0.097	0.005
-477.318	122.815	-0.079	0.099
-476.303	378.032	0.089	-0.183
-475.289	-200.000	0.117	0.000
-474.274	-61.101	-0.162	-0.069
-473.259	-93.012	-0.120	-0.034
-472.245	-29.456	0.192	-0.110
-471.230	-15.506	-0.245	-0.157
-470.216	-54.795	0.164	-0.074
-469.201	-200.000	0.017	-0.112
-468.186	800.000	-0.121	-0.441
-467.172	343.822	0.180	-0.354
-466.157	-200.000	0.015	-0.290
-465.143	800.000	-0.035	-0.102
-464.128	-98.630	0.094	-0.024
-463.113	-200.000	0.008	0.198
-462.099	299.144	0.131	-0.241
-461.084	-200.000	-0.026	-0.383
-460.070	-200.000	-0.091	-0.410
-459.055	-130.806	-0.066	-0.009
-458.040	-200.000	0.003	-0.069
-457.026	-79.381	-0.253	-0.086
-456.011	-128.987	-0.054	0.008
-454.997	-108.958	-0.362	0.077
-453.982	158.742	-0.161	0.224
-452.968	-54.383	0.149	-0.068
-451.953	57.616	-0.163	-0.160
-450.938	-67.342	-0.180	0.071
-449.924	89.934	0.075	0.084
-448.909	-200.000	0.015	-0.075
-447.895	-27.206	-0.135	0.079
-446.880	109.825	0.012	-0.014
-445.865	38.659	0.185	-0.166
-444.851	-48.297	0.114	0.055
-443.836	-15.433	-0.071	0.045
-442.822	584.270	0.134	-0.329
-441.807	-67.984	-0.116	0.045
-440.792	-200.000	-0.034	-0.189
-439.778	-99.359	-0.265	0.067
-438.763	13.706	0.058	0.045
-437.749	346.487	-0.158	0.311
-436.734	242.868	-0.190	0.318
-435.719	-81.637	-0.183	0.060
-434.705	-200.000	-0.046	-0.387
-433.690	-155.871	-0.089	0.006
-432.676	51.996	-0.171	0.163
-431.661	-89.119	0.282	-0.083
-430.646	83.497	0.058	-0.064
-429.632	800.000	-0.031	0.093
-428.617	-135.922	0.107	-0.013
-427.603	-200.000	0.006	-0.308
-426.588	-155.867	-0.477	0.030
-425.573	150.403	-0.118	0.160
-424.559	-43.063	0.300	-0.152
-423.544	15.132	-0.174	-0.136
-422.530	-124.651	-0.566	-0.088
-421.515	-95.423	0.118	-0.032
-420.500	-134.380	0.266	0.033
-419.486	113.790	0.168	-0.204
-418.471	-63.781	0.122	0.050
-417.457	123.926	0.107	0.134
-416.442	-115.490	0.079	-0.015
-415.428	-36.905	0.336	0.180
-414.413	104.710	0.090	-0.106
-413.398	-200.000	-0.016	0.274
-412.384	800.000	-0.024	0.084
-411.369	-200.000	0.074	-0.356
-410.355	800.000	0.052	0.144
-409.340	-45.948	-0.228	0.113
-408.325	276.511	-0.093	0.166
-407.311	-145.192	0.382	-0.035
-406.296	-175.050	-0.351	0.010
-405.282	-84.637	0.203	-0.064
-404.267	585.543	0.155	-0.381
-403.252	179.226	-0.132	0.194
-402.238	35.551	0.200	0.175
-401.223	10.215	-0.278	-0.212
-400.209	317.600	-0.078	0.148
-399.194	-110.195	-0.263	-0.055
-398.179	-200.000	-0.004	0.186
-397.165	-9.442	-0.432	-0.289
-396.150	-142.592	0.331	0.032
-395.136	-200.000	-0.010	-0.126
-394.121	123.717	-0.046	0.057
-393.106	-31.867	-0.181	-0.101
-392.092	282.937	0.101	0.180
-391.077	-200.000	-0.000	0.252
-390.063	225.189	-0.045	-0.072
-389.048	48.958	0.233	-0.218
-388.033	18.614	-0.339	-0.271
-387.019	28.267	0.198	0.167
-386.004	416.825	-0.059	-0.125
-384.990	-200.000	-0.001	-0.087
-383.975	-200.000	-0.013	0.231
-382.960	-200.000	-0.001	-0.234
-381.946	-35.930	-0.284	0.154
-380.931	-104.159	0.089	0.021
-379.917	193.312	0.209	-0.316
-378.902	-14.511	0.328	0.211
-377.888	-90.548	0.330	-0.095
-376.873	-200.000	-0.009	-0.331
-375.858	261.979	0.091	-0.158
-374.844	12.482	-0.091	0.070
-373.829	-73.337	-0.274	-0.100
-372.815	151.440	-0.085	-0.116
-371.800	182.071	0.043	-0.063
-370.785	-39.096	-0.293	0.154
-369.771	-69.450	-0.260	-0.099
-368.756	465.630	0.074	-0.166
-367.742	183.894	-0.069	0.102
-366.727	25.532	0.250	0.208
-365.712	-74.710	-0.366	0.131
-364.698	-43.196	0.194	-0.098
-363.683	-200.000	-0.014	0.218
-362.669	-137.378	-0.124	-0.014
-361.654	-200.000	0.057	-0.468
-360.639	-200.000	0.039	0.182
-359.625	-129.052	0.277	-0.039
-358.610	33.297	0.200	0.174
-357.596	321.751	-0.093	0.177
-356.581	-200.000	0.062	0.383
-355.566	800.000	0.070	0.243
-354.552	64.812	-0.230	-0.232
-353.537	-56.113	-0.147	-0.066
-352.523	67.147	-0.198	-0.202
-351.508	53.738	0.086	-0.082
-350.493	46.416	0.183	0.169
-349.479	-164.995	0.110	-0.005
-348.464	203.857	0.156	0.241
-347.450	12.614	-0.064	0.050
-346.435	-76.799	0.249	-0.087
-345.420	-76.785	-0.435	0.152
-344.406	27.584	-0.226	0.190
-343.391	-151.121	0.334	0.025
-342.377	169.960	-0.134	-0.191
-341.362	-200.000	-0.051	0.232
-340.348	-39.389	-0.367	0.192
-339.333	-140.951	-0.337	0.035
-338.318	-72.223	0.246	-0.091
-337.304	-19.211	0.181	0.112
-336.289	-163.171	-0.073	0.003
-335.275	-125.008	0.194	0.030
-334.260	123.541	-0.093	0.116
-333.245	-56.137	-0.108	-0.048
-332.231	19.953	0.218	-0.175
-331.216	-200.000	-0.032	-0.241
-330.202	-200.000	-0.040	-0.295
-329.187	-24.240	0.271	-0.161
-328.172	96.059	-0.129	0.147
-327.158	81.503	-0.145	-0.156
-326.143	-8.705	-0.333	-0.222
-325.129	-122.285	0.317	-0.052
-324.114	-164.647	0.186	0.008
-323.099	440.548	-0.053	-0.115
-322.085	117.232	-0.318	-0.390
-321.070	493.636	-0.049	-0.112
-320.056	-63.944	-0.313	0.128
-319.041	-8.391	0.107	-0.072
-318.026	-58.750	0.240	-0.103
-317.012	24.549	0.242	-0.199
-315.997	-200.000	-0.023	0.135
-314.983	9.951	0.073	0.055
-313.968	-41.789	-0.314	0.161
-312.953	800.000	-0.045	-0.124
-311.939	-200.000	0.052	0.500
-310.924	-200.000	0.054	0.267
-309.910	67.386	-0.144	-0.146
-308.895	18.927	0.201	-0.160
-307.880	-149.705	-0.113	-0.009
-306.866	-200.000	0.002	-0.097
-305.851	14.642	0.455	-0.354
-304.837	-200.000	-0.007	-0.229
-303.822	252.912	0.038	-0.064
-302.807	-200.000	0.021	0.105
-301.793	753.591	-0.062	-0.168
-300.778	800.000	0.093	0.393
-299.764	-195.860	0.115	-0.001
-298.749	18.740	-0.287	-0.229
-297.735	33.216	-0.287	0.248
-296.720	-119.142	0.194	0.034
-295.705	-200.000	0.052	-0.279
-294.691	-200.000	0.018	0.093
-293.676	-132.638	0.509	-0.065
-292.662	220.038	0.109	0.173
-291.647	800.000	-0.038	-0.127
-290.632	-200.000	-0.004	0.279
-289.618	190.635	-0.121	-0.181
-288.603	558.251	-0.128	-0.308
-287.589	-82.475	0.136	-0.044
-286.574	-13.647	-0.074	-0.047
-285.559	-200.000	-0.004	-0.029
-284.545	-84.165	0.361	-0.114
-283.530	800.000	-0.101	0.287
-282.516	-200.000	-0.019	-0.154
-281.501	38.911	0.031	-0.027
-280.486	85.166	-0.104	0.114
-279.472	262.927	-0.123	0.213
-278.457	-67.334	-0.231	0.090
-277.443	-124.563	-0.031	-0.005
-276.428	-75.848	-0.300	-0.106
-275.413	-102.747	0.463	0.110
-274.399	800.000	-0.112	-0.348
-273.384	-85.363	0.152	-0.047
-272.370	800.000	0.093	0.266
-271.355	137.813	-0.040	0.052
-270.340	24.088	0.064	-0.052
-269.326	-200.000	0.019	-0.411
-268.311	68.783	-0.136	0.139
-267.297	64.791	0.122	-0.123
-266.282	248.978	-0.073	-0.124
-265.267	-136.371	0.141	-0.016
-264.253	487.031	-0.024	-0.055
-263.238	52.195	-0.239	-0.227
-262.224	271.368	0.128	-0.224
-261.209	197.100	0.090	0.137
-260.195	439.661	-0.081	0.175
-259.180	54.714	0.051	0.049
-258.165	60.266	0.164	0.162
-257.151	-200.000	0.004	-0.128
-256.136	567.764	-0.063	0.152
-255.122	-59.401	-0.181	0.077
-254.107	-95.031	0.362	-0.097
-253.092	800.000	-0.034	-0.120
-252.078	722.994	0.082	0.217
-251.063	-112.370	-0.262	-0.052
-250.049	473.935	-0.109	0.244
-249.034	-200.000	0.001	0.041
-248.019	459.182	0.159	-0.351
-247.005	140.733	0.118	0.155
-245.990	438.755	0.181	-0.394
-244.976	534.869	-0.055	0.130
-243.961	-96.421	-0.178	0.047
-242.946	-32.870	-0.167	0.092
-241.932	157.810	-0.385	0.530
-240.917	-159.287	-0.318	-0.018
-239.903	-67.520	-0.312	-0.122
-238.888	-38.341	0.215	0.113
-237.873	58.573	0.254	0.247
-236.859	-72.592	-0.165	0.060
-235.844	-200.000	-0.042	-0.455
-234.830	-200.000	-0.013	-0.059
-233.815	-50.102	-0.032	0.015
-232.800	-175.785	-0.108	0.003
-231.786	800.000	0.094	-0.285
-230.771	129.619	-0.094	-0.119
-229.757	-37.742	0.043	-0.023
-228.742	125.679	0.068	0.085
-227.727	291.251	-0.098	0.177
-226.713	16.739	-0.214	-0.168
-225.698	226.432	0.155	0.250
-224.684	-59.240	0.008	0.003
-223.669	12.930	-0.063	-0.048
-222.655	341.615	0.112	0.216
-221.640	224.686	0.023	0.037
-220.625	800.000	-0.093	0.266
-219.611	-146.409	0.356	-0.031
-218.596	189.379	-0.176	-0.262
-217.582	-152.778	-0.252	0.018
-216.567	2.077	-0.348	0.249
-215.552	-200.000	0.024	0.115
-214.538	-161.451	0.329	0.017
-213.523	-75.712	-0.189	-0.067
-212.509	-200.000	0.108	-0.489
-211.494	800.000	0.086	-0.237
-210.479	26.684	-0.196	0.163
-209.465	42.477	-0.036	-0.032
-208.450	66.176	0.282	0.284
-207.436	-66.138	0.163	-0.064
-206.421	202.864	0.242	-0.371
-205.406	-63.592	0.144	0.059
-204.392	-132.536	0.185	0.024
-203.377	-200.000	0.004	0.201
-202.363	-200.000	-0.011	0.111
-201.348	800.000	0.069	0.198
-200.333	-0.427	-0.135	0.095
-199.319	-110.920	0.201	0.041
-198.304	96.917	-0.316	-0.359
-197.290	-117.378	-0.166	-0.030
-196.275	122.465	-0.116	-0.143
-195.260	800.000	-0.058	0.164
-194.246	-48.030	0.279	-0.134
-193.231	85.244	-0.167	0.182
-192.217	-56.552	-0.069	0.030
-191.202	-49.826	-0.224	0.106
-190.187	301.099	-0.141	-0.257
-189.173	-68.635	0.291	-0.112
-188.158	55.972	-0.132	0.127
-187.144	-13.454	0.078	0.050
-186.129	-115.647	0.217	0.040
-185.114	105.459	0.163	0.191
-184.100	-28.491	0.390	0.223
-183.085	-120.079	-0.110	0.019
-182.071	296.547	0.059	0.107
-181.056	-167.648	0.561	-0.022
-180.042	-55.668	0.026	-0.011
-179.027	47.727	0.283	-0.262
-178.012	-131.131	-0.077	-0.010
-176.998	-18.567	-0.356	-0.220
-175.983	188.045	-0.188	-0.279
-174.969	-50.587	0.178	-0.083
-173.954	20.471	-0.073	-0.058
-172.939	324.533	-0.101	-0.192
-171.925	-200.000	0.148	0.000
-170.910	-200.000	-0.001	-0.204
-169.896	-200.000	-0.011	0.269
-168.881	-1.150	0.251	0.176
-167.866	-200.000	0.009	0.043
-166.852	417.962	0.088	-0.186
-165.837	-59.753	-0.163	0.069
-164.823	-156.297	-0.312	0.019
-163.808	800.000	0.032	0.101
-162.793	800.000	0.023	0.089
-161.779	800.000	0.043	0.178
-160.764	-45.034	-0.079	-0.039
-159.750	-24.888	0.062	-0.036
-158.735	-120.120	0.122	-0.021
-157.720	-93.533	0.294	0.080
-156.706	-51.263	0.135	0.063
-155.691	80.513	-0.312	-0.332
-154.677	9.424	-0.168	-0.126
-153.662	800.000	0.069	0.235
-152.647	-200.000	-0.006	0.247
-151.633	800.000	0.012	0.036
-150.618	800.000	0.073	-0.280
-149.604	140.706	-0.080	0.105
-148.589	335.671	-0.182	0.350
-147.574	-87.717	0.192	-0.057
-146.560	166.257	0.196	0.275
-145.545	-200.000	0.007	0.221
-144.531	-147.636	0.168	-0.014
-143.516	797.265	0.096	0.262
-142.502	800.000	0.042	0.124
-141.487	-200.000	-0.008	0.205
-140.472	-200.000	-0.001	-0.128
-139.458	122.283	0.105	0.129
-138.443	-42.273	0.090	0.045
-137.429	180.208	0.056	-0.081
-136.414	142.112	-0.089	-0.117
-135.399	137.814	0.083	-0.108
-134.385	-200.000	0.025	0.252
-133.370	-200.000	-0.002	-0.029
-132.356	-29.476	-0.215	-0.122
-131.341	-143.541	-0.190	0.018
-130.326	-144.219	0.385	-0.036
-129.312	-102.840	-0.207	-0.049
-128.297	-200.000	0.029	-0.156
-127.283	392.130	0.158	0.325
-126.268	-100.813	-0.273	-0.067
-125.253	381.787	-0.064	0.130
-124.239	-200.000	-0.017	-0.182
-123.224	-200.000	-0.005	0.074
-122.210	327.303	-0.046	0.088
-121.195	-32.595	-0.166	0.091
-120.180	-200.000	0.036	0.231
-119.166	-178.630	-0.192	-0.004
-118.151	159.073	-0.071	0.098
-117.137	800.000	0.029	-0.106
-116.122	24.285	0.185	-0.151
-115.107	218.970	0.223	-0.353
-114.093	-85.489	0.384	0.118
-113.078	-47.576	-0.087	0.042
-112.064	-200.000	-0.012	0.318
-111.049	312.822	0.215	-0.400
-110.034	413.750	0.044	0.092
-109.020	43.865	-0.036	0.033
-108.005	31.012	-0.352	-0.298
-106.991	-200.000	0.000	0.108
-105.976	-159.322	0.279	-0.015
-104.962	722.957	0.102	0.268
-103.947	-60.868	-0.050	0.021
-102.932	117.356	0.214	0.260
-101.918	-96.469	0.315	-0.082
-100.903	-110.621	-0.309	0.063
-99.889	-200.000	-0.047	-0.234
-98.874	-130.540	-0.305	-0.041
-97.859	800.000	-0.048	0.132
-96.845	-80.083	0.330	-0.109
-95.830	-62.820	0.420	-0.172
-94.816	-200.000	-0.013	-0.093
-93.801	-26.964	-0.023	-0.013
-92.786	-42.449	0.269	0.136
-91.772	34.828	-0.124	0.107
-90.757	-75.914	-0.330	0.115
-89.743	41.710	0.370	-0.331
-88.728	94.269	0.104	0.116
-87.713	-154.127	0.098	-0.007
-86.699	54.275	-0.273	0.260
-85.684	-74.097	0.156	-0.056
-84.670	32.531	0.187	0.160
-83.655	-114.960	0.214	0.040
-82.640	105.257	-0.063	0.073
-81.626	800.000	0.082	0.249
-80.611	134.367	-0.174	0.223
-79.597	-137.654	0.279	-0.031
-78.582	800.000	-0.051	0.184
-77.567	319.171	-0.075	-0.141
-76.553	361.537	0.175	0.346
-75.538	-200.000	-0.011	-0.115
-74.524	86.285	-0.112	-0.122
-73.509	279.161	-0.065	-0.114
-72.494	464.334	0.051	-0.113
-71.480	536.000	0.027	0.062
-70.465	-128.541	0.013	-0.002
-69.451	-200.000	-0.062	0.328
-68.436	-187.197	0.204	-0.003
-67.422	-84.269	-0.349	0.109
-66.407	800.000	-0.107	0.374
-65.392	103.487	-0.180	0.208
-64.378	103.209	-0.094	-0.108
-63.363	46.503	-0.071	0.065
-62.349	-200.000	0.011	0.339
-61.334	42.276	-0.766	-0.686
-60.319	294.027	0.341	0.615
-59.305	-200.000	-0.233	-1.032
-58.290	800.000	0.375	1.123
-57.276	176.615	0.986	1.413
-56.261	-200.000	94.910	575.877
-55.246	529.807	1376.732	3207.140
-54.232	160.213	2551.505	3508.737
-53.217	103.387	2297.380	2657.799
-52.203	39.655	2061.663	1823.385
-51.188	34.905	1976.954	1706.155
-50.173	33.343	1958.900	1676.687
-49.159	48.677	2007.674	1856.162
-48.144	49.903	2025.551	1883.610
-47.130	35.468	1988.482	1720.880
-46.115	33.153	1978.236	1691.265
-45.100	33.027	1975.826	1688.014
-44.086	32.986	1973.476	1685.571
-43.071	32.915	1970.869	1682.649
-42.057	32.986	1968.474	1681.163
-41.042	32.984	1966.519	1679.416
-40.027	32.966	1964.591	1677.536
-39.013	32.987	1962.812	1676.136
-37.998	33.063	1960.852	1675.070
-36.984	33.084	1959.200	1673.777
-35.969	33.064	1957.227	1671.854
-34.954	33.003	1955.835	1670.061
-33.940	33.025	1954.610	1669.139
-32.925	33.182	1952.451	1668.619
-31.911	33.254	1950.534	1667.544
-30.896	33.121	1949.237	1665.203
-29.881	33.148	1947.776	1664.120
-28.867	33.241	1945.727	1663.126
-27.852	33.205	1944.114	1661.361
-26.838	33.203	1942.026	1659.494
-25.823	33.275	1940.303	1658.587
-24.809	33.197	1939.264	1656.949
-23.794	33.160	1937.679	1655.205
-22.779	33.153	1935.580	1653.282
-21.765	33.127	1933.636	1651.336
-20.750	33.096	1931.933	1649.542
-19.736	33.223	1930.284	1649.176
-18.721	33.162	1928.924	1647.417
-17.706	33.130	1927.397	1645.766
-16.692	33.187	1925.756	1644.798
-15.677	33.144	1924.612	1643.387
-14.663	33.178	1922.983	1642.221
-13.648	33.192	1921.395	1640.926
-12.633	33.195	1920.409	1640.045
-11.619	33.092	1919.111	1637.972
-10.604	33.174	1917.657	1637.378
-9.590	33.139	1916.580	1636.090
-8.575	33.207	1914.828	1635.116
-7.560	33.210	1913.584	1634.014
-6.546	33.059	1912.752	1631.938
-5.531	33.151	1911.107	1631.267
-4.517	33.143	1909.431	1629.697
-3.502	33.130	1908.628	1628.840
-2.487	33.107	1906.670	1626.902
-1.473	33.046	1906.241	1625.948
-0.458	33.024	1901.438	1621.596
0.556	30.288	1878.978	1583.761
1.571	24.110	1854.533	1510.792
2.586	18.622	1872.142	1477.864
3.600	16.935	1905.941	1489.605
4.615	16.239	1900.226	1478.909
5.629	12.817	1803.004	1374.623
6.644	5.288	1687.897	1227.772
7.659	0.706	1650.623	1165.276
8.673	0.342	1647.442	1160.128
9.688	0.264	1646.335	1158.646
10.702	0.253	1645.021	1157.538
11.717	0.072	1641.654	1153.675
12.731	0.654	1640.664	1157.341
13.746	6.121	1652.776	1207.884
14.761	13.843	1667.904	1278.516
15.775	17.136	1672.068	1306.977
16.790	16.965	1670.756	1304.520
17.804	16.013	1667.277	1294.378
18.819	15.023	1664.326	1284.384
19.834	14.386	1662.029	1277.613
20.848	14.168	1660.447	1274.610
21.863	13.943	1658.418	1271.219
22.877	13.681	1657.010	1268.029
23.892	13.438	1655.640	1265.005
24.907	13.308	1654.588	1263.102
25.921	13.245	1653.784	1261.895
26.936	13.300	1653.039	1261.636
27.950	13.275	1652.339	1260.795
28.965	13.383	1651.361	1260.761
29.980	13.366	1650.870	1260.146
30.994	13.501	1649.359	1259.904
32.009	13.453	1648.606	1258.852
33.023	13.603	1647.667	1259.167
34.038	13.598	1646.857	1258.399
35.053	13.540	1646.140	1257.300
36.067	13.454	1645.223	1255.837
37.082	13.459	1644.151	1254.947
38.096	13.454	1642.576	1253.593
39.111	13.442	1642.562	1253.378
40.126	13.445	1641.557	1252.526
41.140	13.482	1640.795	1252.113
42.155	13.488	1639.356	1250.952
43.169	13.369	1637.572	1248.577
44.184	13.250	1637.380	1247.424
45.199	13.262	1635.839	1246.228
46.213	13.424	1634.129	1246.038
47.228	13.303	1633.588	1244.601
48.242	13.335	1631.820	1243.385
49.257	13.472	1631.049	1243.715
50.271	13.467	1629.337	1242.263
51.286	13.401	1628.309	1240.876
52.301	13.450	1626.892	1240.057
53.315	13.393	1625.601	1238.531
54.330	13.414	1624.384	1237.652
55.344	13.300	1622.698	1235.411
56.359	13.424	1621.062	1234.979
57.374	13.350	1620.044	1233.544
58.388	13.375	1618.625	1232.541
59.403	13.368	1616.855	1231.029
60.417	13.293	1616.116	1229.804
61.432	13.247	1615.086	1228.569
62.447	13.230	1614.013	1227.516
63.461	13.216	1612.902	1226.457
64.476	13.186	1611.343	1224.946
65.490	13.251	1610.273	1224.500
66.505	13.153	1609.737	1223.257
67.520	13.272	1608.383	1223.006
68.534	13.208	1607.327	1221.616
69.549	13.202	1606.273	1220.667
70.563	13.181	1604.863	1219.330
71.578	13.347	1603.456	1219.378
72.593	13.211	1602.381	1217.450
73.607	13.189	1601.496	1216.512
74.622	13.182	1600.069	1215.265
75.636	13.094	1599.877	1214.368
76.651	13.138	1598.640	1213.643
77.666	13.154	1597.894	1213.084
78.680	13.196	1596.791	1212.450
79.695	13.149	1595.500	1211.015
80.709	13.185	1594.666	1210.541
81.724	13.253	1594.139	1210.529
82.739	13.266	1592.636	1209.379
83.753	13.309	1591.655	1208.843
84.768	13.315	1591.276	1208.490
85.782	13.327	1590.160	1207.621
86.797	13.469	1589.148	1207.785
87.812	13.432	1588.281	1206.747
88.826	13.430	1586.858	1205.548
89.841	13.321	1585.835	1203.866
90.855	13.421	1584.437	1203.428
91.870	13.363	1584.145	1202.681
92.884	13.487	1582.984	1202.587
93.899	13.424	1582.347	1201.539
94.914	13.449	1580.856	1200.487
95.928	13.505	1580.044	1200.171
96.943	13.554	1578.422	1199.181
97.957	13.576	1576.858	1198.050
98.972	13.418	1575.176	1195.522
99.987	13.501	1574.123	1195.222
101.001	13.466	1572.497	1193.626
102.016	13.464	1570.861	1192.261
103.030	13.444	1569.660	1191.101
104.045	13.490	1568.507	1190.451
105.060	13.470	1567.086	1189.124
106.074	13.443	1565.829	1187.875
107.089	13.383	1563.944	1185.909
108.103	13.245	1562.700	1183.874
109.118	13.290	1561.384	1183.095
110.133	13.303	1559.801	1181.882
111.147	13.288	1558.610	1180.764
112.162	13.337	1556.750	1179.604
113.176	13.308	1555.681	1178.480
114.191	13.368	1554.126	1177.629
115.206	13.370	1553.301	1176.908
116.220	13.426	1552.084	1176.283
117.235	13.272	1550.774	1174.095
118.249	13.378	1548.885	1173.310
119.264	13.357	1547.908	1172.321
120.279	13.339	1546.667	1171.145
121.293	13.359	1545.020	1169.939
122.308	13.294	1543.949	1168.562
123.322	13.312	1541.821	1166.979
124.337	13.269	1540.703	1165.725
125.352	13.269	1539.759	1164.907
126.366	13.270	1538.446	1163.819
127.381	13.263	1537.489	1162.938
128.395	13.321	1536.110	1162.202
129.410	13.286	1534.950	1160.976
130.424	13.292	1533.334	1159.695
131.439	13.302	1532.179	1158.789
132.454	13.317	1530.950	1157.862
133.468	13.425	1529.223	1157.205
134.483	13.364	1527.839	1155.632
135.497	13.402	1526.359	1154.677
136.512	13.407	1525.042	1153.609
137.527	13.393	1523.826	1152.493
138.541	13.454	1522.507	1151.819
139.556	13.450	1520.909	1150.479
140.570	13.485	1519.189	1149.319
141.585	13.586	1518.103	1149.095
142.600	13.531	1517.120	1147.871
143.614	13.482	1515.899	1146.508
144.629	13.553	1514.697	1145.982
145.643	13.667	1513.183	1145.526
146.658	13.687	1511.749	1144.478
147.673	13.668	1509.951	1142.883
148.687	13.604	1508.846	1141.503
149.702	13.599	1507.401	1140.278
150.716	13.628	1505.920	1139.257
151.731	13.499	1504.733	1137.371
152.746	13.590	1502.695	1136.356
153.760	13.583	1501.800	1135.525
154.775	13.650	1500.657	1135.022
155.789	13.652	1499.470	1134.035
156.804	13.652	1498.677	1133.338
157.819	13.676	1497.509	1132.517
158.833	13.675	1496.112	1131.356
159.848	13.750	1494.231	1130.342
160.862	13.791	1493.452	1129.933
161.877	13.755	1492.243	1128.670
162.892	13.804	1491.157	1128.086
163.906	13.722	1489.411	1126.105
164.921	13.618	1488.649	1124.729
165.935	13.585	1487.975	1123.891
166.950	13.668	1486.561	1123.291
167.964	13.713	1485.277	1122.526
168.979	13.741	1484.456	1121.992
169.994	13.707	1483.640	1121.044
171.008	13.694	1482.777	1120.206
172.023	13.729	1481.436	1119.330
173.037	13.772	1480.301	1118.665
174.052	13.783	1479.257	1117.853
175.067	13.872	1478.092	1117.469
176.081	13.845	1476.337	1115.864
177.096	13.746	1475.856	1114.735
178.110	13.731	1474.319	1113.379
179.125	13.837	1473.187	1113.134
180.140	13.808	1471.807	1111.796
181.154	13.884	1471.044	1111.630
182.169	13.949	1469.726	1110.972
183.183	13.846	1469.013	1109.647
184.198	13.940	1467.863	1109.310
185.213	13.857	1466.971	1107.982
186.227	13.944	1465.701	1107.506
187.242	13.923	1464.758	1106.553
188.256	14.001	1463.578	1106.086
189.271	13.957	1462.489	1104.870
190.286	14.082	1461.372	1104.761
191.300	14.120	1460.365	1104.155
192.315	13.969	1458.747	1101.828
193.329	13.799	1457.941	1100.000
194.344	13.900	1456.734	1099.656
195.359	13.812	1456.322	1098.665
196.373	13.957	1454.783	1098.371
197.388	13.939	1453.973	1097.542
198.402	14.052	1452.584	1097.141
199.417	14.015	1451.694	1096.128
200.432	14.155	1450.856	1096.318
201.446	14.235	1449.729	1095.902
202.461	14.196	1448.889	1094.910
203.475	14.163	1447.864	1093.820
204.490	14.226	1446.492	1093.102
205.504	14.246	1445.750	1092.577
206.519	14.244	1444.229	1091.314
207.534	14.269	1443.159	1090.575
208.548	14.136	1442.032	1088.754
209.563	14.188	1440.942	1088.180
210.577	14.236	1439.936	1087.633
211.592	14.224	1438.875	1086.662
212.607	14.241	1438.474	1086.373
213.621	14.410	1437.817	1086.878
214.636	14.384	1436.682	1085.756
215.650	14.299	1436.075	1084.646
216.665	14.361	1435.075	1084.203
217.680	14.358	1434.327	1083.521
218.694	14.412	1433.439	1083.108
219.709	14.490	1432.252	1082.620
220.723	14.434	1431.453	1081.558
221.738	14.399	1430.572	1080.568
222.753	14.405	1429.582	1079.764
223.767	14.439	1428.834	1079.320
224.782	14.477	1427.426	1078.406
225.796	14.549	1426.320	1077.943
226.811	14.563	1425.543	1077.352
227.826	14.578	1424.968	1076.918
228.840	14.515	1424.416	1075.997
229.855	14.478	1423.463	1074.947
230.869	14.537	1422.518	1074.515
231.884	14.507	1421.457	1073.430
232.899	14.537	1420.152	1072.540
233.913	14.479	1419.092	1071.270
234.928	14.413	1418.171	1070.058
235.942	14.455	1416.901	1069.277
236.957	14.492	1415.515	1068.374
237.972	14.505	1414.368	1067.496
238.986	14.472	1413.111	1066.238
240.001	14.532	1412.504	1066.074
241.015	14.477	1411.725	1065.040
242.030	14.660	1410.215	1064.969
243.045	14.616	1409.608	1064.136
244.059	14.650	1408.678	1063.560
245.074	14.606	1407.703	1062.449
246.088	14.666	1407.156	1062.324
247.103	14.654	1406.902	1061.959
248.117	14.613	1405.720	1060.712
249.132	14.709	1404.558	1060.352
250.147	14.861	1403.536	1060.452
251.161	14.901	1403.474	1060.564
252.176	14.881	1402.653	1059.725
253.190	14.885	1402.238	1059.339
254.205	15.054	1400.575	1059.063
255.220	14.989	1399.924	1058.063
256.234	15.051	1399.159	1057.782
257.249	15.003	1398.456	1056.857
258.263	15.038	1398.029	1056.662
259.278	15.062	1397.021	1055.957
260.293	15.123	1395.503	1055.101
261.307	15.115	1395.091	1054.644
262.322	15.125	1393.996	1053.789
263.336	15.127	1393.504	1053.337
264.351	15.284	1392.327	1053.337
265.366	15.136	1391.534	1051.713
266.380	15.189	1391.004	1051.557
267.395	15.228	1389.684	1050.710
268.409	15.297	1388.591	1050.220
269.424	15.193	1388.061	1049.077
270.439	15.193	1387.270	1048.386
271.453	15.246	1385.776	1047.495
272.468	15.231	1384.928	1046.665
273.482	15.220	1384.300	1046.031
274.497	15.221	1383.641	1045.448
275.512	15.226	1382.592	1044.592
276.526	15.228	1382.125	1044.160
277.541	15.283	1380.882	1043.470
278.555	15.305	1380.332	1043.099
279.570	15.347	1379.335	1042.517
280.585	15.310	1378.215	1041.348
281.599	15.415	1377.303	1041.219
282.614	15.408	1376.478	1040.459
283.628	15.399	1375.294	1039.418
284.643	15.442	1374.378	1038.897
285.657	15.342	1373.144	1037.255
286.672	15.422	1372.211	1036.952
287.687	15.448	1371.727	1036.656
288.701	15.369	1370.457	1035.118
289.716	15.428	1369.684	1034.804
290.730	15.478	1368.851	1034.393
291.745	15.510	1367.942	1033.812
292.760	15.509	1366.831	1032.871
293.774	15.540	1365.739	1032.150
294.789	15.495	1364.985	1031.213
295.803	15.539	1364.311	1030.880
296.818	15.658	1362.965	1030.503
297.833	15.527	1362.667	1029.382
298.847	15.617	1361.526	1028.981
299.862	15.656	1360.734	1028.530
300.876	15.487	1360.195	1026.997
301.891	15.674	1358.434	1026.720
302.906	15.610	1358.003	1025.912
303.920	15.666	1357.420	1025.722
304.935	15.720	1356.577	1025.322
305.949	15.785	1355.909	1025.126
306.964	15.847	1355.300	1024.949
307.979	15.778	1354.542	1023.865
308.993	15.743	1353.721	1022.941
310.008	15.817	1352.429	1022.325
311.022	15.830	1351.324	1021.477
312.037	15.932	1350.147	1021.115
313.052	15.860	1349.118	1019.811
314.066	15.883	1347.954	1018.982
315.081	15.798	1347.585	1018.099
316.095	15.768	1346.570	1017.061
317.110	15.845	1345.309	1016.482
318.125	15.777	1344.751	1015.557
319.139	15.815	1343.484	1014.743
320.154	15.897	1342.551	1014.441
321.168	15.831	1341.678	1013.292
322.183	15.849	1340.729	1012.596
323.197	15.860	1339.586	1011.709
324.212	15.862	1338.905	1011.116
325.227	15.886	1338.289	1010.709
326.241	15.924	1337.242	1010.054
327.256	15.999	1336.427	1009.800
328.270	15.972	1335.237	1008.652
329.285	15.838	1334.960	1007.547
330.300	15.973	1334.138	1007.647
331.314	15.965	1333.041	1006.679
332.329	15.931	1332.292	1005.825
333.343	15.969	1331.217	1005.149
334.358	16.037	1330.458	1004.892
335.373	16.140	1329.023	1004.335
336.387	16.048	1329.013	1003.690
337.402	16.116	1327.853	1003.132
338.416	16.081	1327.396	1002.490
339.431	16.215	1326.615	1002.604
340.446	16.157	1326.201	1001.861
341.460	16.162	1325.245	1001.077
342.475	16.138	1324.324	1000.149
343.489	16.275	1323.447	1000.210
344.504	16.292	1322.506	999.516
345.519	16.387	1321.018	998.865
346.533	16.284	1320.512	997.781
347.548	16.368	1319.406	997.356
348.562	16.448	1318.582	997.112
349.577	16.501	1317.972	996.879
350.592	16.407	1317.188	995.645
351.606	16.417	1316.272	994.923
352.621	16.445	1314.984	994.026
353.635	16.420	1313.718	992.833
354.650	16.392	1313.485	992.405
355.665	16.316	1312.585	991.191
356.679	16.303	1311.375	990.115
357.694	16.455	1310.220	990.045
358.708	16.511	1308.906	989.288
359.723	16.411	1308.078	987.993
360.738	16.467	1307.122	987.513
361.752	16.493	1306.262	986.927
362.767	16.592	1304.960	986.434
363.781	16.464	1304.485	985.242
364.796	16.376	1304.163	984.398
365.810	16.637	1302.822	984.813
366.825	16.577	1302.089	983.825
367.840	16.655	1301.611	983.833
368.854	16.666	1300.791	983.185
369.869	16.785	1300.251	983.383
370.883	16.747	1299.532	982.534
371.898	16.680	1298.973	981.635
372.913	16.764	1297.737	981.097
373.927	16.678	1297.286	980.172
374.942	16.736	1296.474	979.809
375.956	16.753	1295.825	979.332
376.971	16.775	1295.116	978.837
377.986	16.800	1293.822	977.913
379.000	16.760	1293.020	976.990
380.015	16.884	1292.761	977.426
381.029	16.871	1291.875	976.590
382.044	16.908	1291.037	976.084
383.059	16.924	1289.974	975.288
384.073	16.897	1290.078	975.124
385.088	16.990	1288.892	974.678
386.102	16.944	1288.544	974.061
387.117	17.066	1287.472	973.866
388.132	16.864	1287.308	972.497
389.146	16.916	1286.259	971.916
390.161	16.994	1285.205	971.480
391.175	16.913	1284.728	970.569
392.190	16.994	1283.846	970.284
393.205	16.989	1282.859	969.422
394.219	17.169	1281.523	969.355
395.234	17.098	1280.443	968.048
396.248	17.135	1279.381	967.368
397.263	17.112	1278.153	966.224
398.278	17.096	1276.809	965.029
399.292	16.997	1275.992	963.765
400.307	17.043	1275.001	963.191
401.321	16.969	1273.767	961.756
402.336	17.018	1273.052	961.410
403.350	16.968	1271.860	960.143
404.365	17.086	1271.017	960.085
405.380	17.141	1270.030	959.567
406.394	17.062	1269.724	958.804
407.409	17.160	1268.867	958.624
408.423	17.270	1267.929	958.452
409.438	17.248	1267.612	958.003
410.453	17.338	1266.620	957.677
411.467	17.372	1265.703	957.092
412.482	17.347	1265.355	956.604
413.496	17.392	1264.426	956.067
414.511	17.417	1263.851	955.688
415.526	17.439	1262.831	954.958
416.540	17.439	1262.170	954.374
417.555	17.484	1261.883	954.320
418.569	17.450	1261.481	953.741
419.584	17.550	1260.446	953.439
420.599	17.508	1260.151	952.896
421.613	94.967	1348.861	1460.710
422.628	92.438	1361.744	1460.846
