DTS Sentinel unit serial number:	SN413079Multiplexer serial number:	ORYXHardware model number:	OX4-SRSoftware version number:	ORYX F/W v4.00 Oryx Data Collector v3.7.2.0data status	okinstallation	princeton_trtdifferential loss correction	single-endedforward channel	channel 4reverse channel	N/Adate	2019/09/16time	19:21:35forward acquisition time	60.00reverse acquisition time	0.00gamma	496.2192k internal	0.2306k external	0.2306temperature offset calibration	0.9970default loss term (dB/km)	0.3790temperature slope calibration	1.0000multiplexer offset coefficient	1.0000multiplexer slope coefficient	1.0000fibre end	0.00T internal ref (°C)	34.80T ext. ref 1 (°C)	0.06T ext. ref 2 (°C)	27.94length (m)	temperature (°C)	Stokes	anti-Stokes-747.200	92.141	-0.259	-0.297
-746.185	-200.000	-0.001	0.304
-745.171	317.708	-0.024	0.046
-744.156	-100.824	0.288	0.072
-743.142	68.038	0.090	-0.093
-742.127	-46.820	-0.254	0.126
-741.112	-200.000	0.070	-0.416
-740.098	600.242	0.095	0.239
-739.083	179.957	0.116	0.173
-738.069	800.000	0.071	0.244
-737.054	-69.429	0.095	0.037
-736.039	518.212	0.036	0.086
-735.025	319.816	0.080	0.154
-734.010	-26.930	-0.285	-0.169
-732.996	-200.000	-0.006	0.089
-731.981	14.431	-0.034	-0.027
-730.966	-200.000	0.007	-0.115
-729.952	-122.318	-0.129	-0.021
-728.937	56.957	-0.072	-0.071
-727.923	80.399	0.118	-0.129
-726.908	-115.937	-0.275	-0.052
-725.894	46.676	-0.084	0.079
-724.879	800.000	-0.086	-0.343
-723.864	9.582	-0.100	-0.077
-722.850	-25.879	-0.138	-0.082
-721.835	-139.402	-0.497	0.054
-720.821	0.084	-0.146	-0.106
-719.806	-200.000	0.037	0.309
-718.791	-200.000	-0.010	-0.105
-717.777	-200.000	-0.012	0.509
-716.762	105.592	0.325	0.390
-715.748	59.405	-0.042	0.042
-714.733	-39.743	0.212	-0.113
-713.718	800.000	-0.045	-0.137
-712.704	-200.000	-0.057	-0.274
-711.689	-200.000	-0.012	0.157
-710.675	10.963	-0.043	0.033
-709.660	169.428	0.077	0.112
-708.645	69.289	0.040	0.042
-707.631	43.931	0.117	-0.109
-706.616	-128.683	0.062	0.009
-705.602	39.310	-0.094	0.086
-704.587	-143.037	-0.363	-0.036
-703.572	-13.443	-0.121	0.079
-702.558	192.101	0.088	0.134
-701.543	278.966	0.127	0.230
-700.529	11.962	0.203	0.159
-699.514	-108.286	-0.171	0.038
-698.499	-200.000	0.001	-0.080
-697.485	129.430	-0.183	-0.237
-696.470	214.448	-0.142	0.229
-695.456	-112.619	0.233	0.047
-694.441	-144.271	-0.054	-0.005
-693.426	-200.000	-0.032	-0.189
-692.412	180.376	-0.050	0.074
-691.397	-82.319	-0.269	0.089
-690.383	-200.000	0.011	-0.118
-689.368	309.494	-0.043	0.083
-688.354	82.155	-0.121	0.133
-687.339	704.655	-0.035	0.094
-686.324	-200.000	-0.014	-0.109
-685.310	-131.376	-0.170	0.023
-684.295	85.362	0.094	-0.105
-683.281	-138.676	0.310	-0.034
-682.266	-1.778	0.303	-0.217
-681.251	-90.563	0.173	-0.051
-680.237	800.000	0.104	-0.427
-679.222	-9.372	-0.056	0.038
-678.208	800.000	0.064	-0.219
-677.193	800.000	0.050	0.203
-676.178	-67.911	-0.247	0.098
-675.164	290.445	0.016	-0.030
-674.149	-200.000	-0.042	0.253
-673.135	-39.471	-0.066	-0.035
-672.120	76.991	0.055	-0.059
-671.105	54.444	-0.118	-0.115
-670.091	-123.223	-0.366	0.059
-669.076	-60.174	0.131	0.057
-668.062	-181.422	0.293	0.006
-667.047	313.955	-0.088	0.167
-666.032	212.933	0.058	-0.092
-665.018	-133.545	-0.346	0.044
-664.003	-105.613	0.075	-0.017
-662.989	-21.402	0.261	-0.162
-661.974	123.325	-0.198	0.252
-660.959	73.373	-0.066	0.070
-659.945	-108.844	0.257	-0.056
-658.930	273.127	-0.125	-0.224
-657.916	201.768	0.042	0.066
-656.901	800.000	-0.113	-0.347
-655.886	-1.653	0.463	0.331
-654.872	-34.858	-0.242	0.134
-653.857	-50.975	-0.129	-0.061
-652.843	613.582	0.024	0.062
-651.828	-98.929	-0.209	0.054
-650.814	-89.365	0.166	0.049
-649.799	-76.965	-0.355	-0.126
-648.784	29.869	-0.232	-0.200
-647.770	45.909	-0.110	-0.104
-646.755	-30.296	0.373	0.215
-645.741	515.850	-0.108	-0.255
-644.726	800.000	0.011	0.048
-643.711	800.000	0.094	0.266
-642.697	329.321	0.164	0.320
-641.682	800.000	0.109	-0.402
-640.668	-122.183	0.196	-0.033
-639.653	82.236	0.123	0.136
-638.638	385.888	0.073	-0.152
-637.624	-161.346	-0.084	-0.004
-636.609	-22.946	-0.026	0.016
-635.595	-200.000	0.016	0.115
-634.580	324.618	-0.228	-0.441
-633.565	237.303	-0.099	0.166
-632.551	-200.000	-0.017	-0.129
-631.536	24.738	0.304	-0.255
-630.522	6.902	0.064	-0.049
-629.507	481.007	-0.144	0.331
-628.492	-170.441	-0.261	-0.009
-627.478	349.438	-0.022	0.043
-626.463	-200.000	-0.034	0.159
-625.449	-200.000	-0.042	-0.201
-624.434	-47.038	0.370	-0.183
-623.419	53.651	0.086	-0.083
-622.405	-136.703	-0.024	-0.003
-621.390	-103.836	-0.257	0.061
-620.376	-19.434	0.149	-0.093
-619.361	147.574	0.231	-0.315
-618.346	62.352	0.158	-0.159
-617.332	-16.470	0.289	0.185
-616.317	327.022	0.087	0.168
-615.303	-200.000	0.012	-0.294
-614.288	-65.075	-0.027	0.011
-613.273	-33.329	-0.197	0.111
-612.259	-89.622	0.220	-0.065
-611.244	-27.786	-0.137	0.080
-610.230	-107.625	-0.234	0.052
-609.215	-99.020	0.169	0.043
-608.201	-77.597	-0.262	0.092
-607.186	-185.512	-0.248	-0.004
-606.171	-171.560	-0.125	-0.004
-605.157	676.611	-0.061	-0.161
-604.142	-200.000	-0.048	0.611
-603.128	423.253	-0.171	0.372
-602.113	800.000	-0.034	0.150
-601.098	435.300	-0.043	0.094
-600.084	-122.249	-0.261	0.043
-599.069	-200.000	0.006	-0.237
-598.055	-200.000	0.006	0.315
-597.040	-84.484	0.366	-0.117
-596.025	-79.293	0.164	0.056
-595.011	-200.000	-0.011	0.050
-593.996	252.864	-0.174	0.301
-592.982	-38.139	-0.333	-0.179
-591.967	166.466	0.012	-0.017
-590.952	-35.590	0.109	-0.060
-589.938	304.646	0.189	0.354
-588.923	-166.848	-0.378	0.016
-587.909	154.480	0.163	0.226
-586.894	258.898	0.164	0.286
-585.879	-148.909	-0.219	0.018
-584.865	-15.584	0.119	-0.077
-583.850	-140.411	-0.275	0.029
-582.836	182.875	-0.230	0.343
-581.821	800.000	-0.019	0.060
-580.806	800.000	-0.069	-0.197
-579.792	481.028	0.108	-0.247
-578.777	150.187	0.115	-0.158
-577.763	-37.533	0.179	0.097
-576.748	-77.858	-0.117	-0.041
-575.733	-135.422	-0.346	-0.042
-574.719	800.000	0.074	0.292
-573.704	-200.000	-0.011	0.064
-572.690	-200.000	0.052	-0.503
-571.675	-65.544	-0.135	0.055
-570.661	-200.000	0.012	0.180
-569.646	-60.105	0.143	0.061
-568.631	800.000	0.018	0.055
-567.617	6.993	0.087	0.066
-566.602	-98.308	-0.258	0.067
-565.588	-99.012	0.170	-0.044
-564.573	209.042	-0.119	-0.188
-563.558	11.581	0.173	-0.134
-562.544	204.146	-0.072	-0.112
-561.529	5.734	-0.161	0.121
-560.515	175.208	0.210	0.307
-559.500	-0.752	0.169	-0.121
-558.485	-48.214	0.073	-0.036
-557.471	-200.000	-0.041	-0.377
-556.456	-100.949	-0.285	-0.071
-555.442	-4.357	0.012	-0.008
-554.427	54.966	0.094	0.092
-553.412	800.000	-0.031	0.125
-552.398	123.993	-0.143	-0.182
-551.383	4.943	-0.116	0.086
-550.369	247.141	0.155	-0.265
-549.354	572.172	-0.037	0.091
-548.339	296.276	-0.232	-0.430
-547.325	-27.058	0.350	-0.206
-546.310	-6.726	-0.124	-0.085
-545.296	-10.770	-0.086	-0.057
-544.281	324.717	-0.092	0.177
-543.266	-131.504	-0.253	-0.034
-542.252	91.001	-0.148	0.168
-541.237	-148.413	0.175	0.014
-540.223	-139.774	-0.229	-0.025
-539.208	-200.000	0.012	0.210
-538.193	-200.000	0.013	-0.432
-537.179	401.784	-0.094	0.199
-536.164	-62.853	0.244	0.102
-535.150	113.750	-0.145	0.178
-534.135	-61.594	-0.058	0.024
-533.121	800.000	-0.057	-0.204
-532.106	201.219	0.061	0.095
-531.091	-25.101	0.226	-0.135
-530.077	-80.968	0.142	0.047
-529.062	226.368	-0.067	0.110
-528.048	-100.195	0.254	0.064
-527.033	-93.980	0.362	0.100
-526.018	-88.138	0.320	0.097
-525.004	-33.122	-0.247	-0.138
-523.989	-150.018	0.217	0.017
-522.975	-200.000	0.017	-0.311
-521.960	-118.526	0.041	0.007
-520.945	394.659	0.135	0.284
-519.931	74.630	0.285	0.303
-518.916	-128.455	0.206	-0.030
-517.902	-100.942	-0.162	0.040
-516.887	-129.998	-0.301	-0.042
-515.872	88.881	0.190	-0.214
-514.858	-84.718	0.095	0.030
-513.843	-172.121	0.209	-0.007
-512.829	-67.402	0.129	-0.051
-511.814	-80.723	0.315	0.106
-510.799	552.465	-0.073	0.177
-509.785	-166.150	-0.285	0.012
-508.770	-25.708	0.153	-0.091
-507.756	-103.972	0.017	0.004
-506.741	-200.000	0.006	-0.144
-505.726	171.163	-0.135	0.195
-504.712	220.105	-0.050	-0.081
-503.697	321.076	-0.175	0.335
-502.683	-143.691	-0.260	0.025
-501.668	-20.357	-0.224	0.139
-500.653	-200.000	-0.019	0.171
-499.639	33.726	0.156	-0.137
-498.624	-102.225	0.240	-0.058
-497.610	-23.182	-0.199	0.121
-496.595	149.233	-0.204	-0.278
-495.581	283.744	-0.105	-0.190
-494.566	546.083	-0.095	0.228
-493.551	-200.000	-0.060	0.303
-492.537	282.337	-0.202	0.365
-491.522	800.000	0.022	0.062
-490.508	-21.674	-0.278	-0.171
-489.493	-110.470	0.212	0.044
-488.478	-44.251	0.302	0.153
-487.464	-21.464	0.379	-0.233
-486.449	391.395	0.037	-0.077
-485.435	562.506	0.044	0.106
-484.420	-44.545	0.282	0.142
-483.405	-200.000	-0.001	-0.044
-482.391	-130.782	-0.285	-0.039
-481.376	-89.101	0.033	0.010
-480.362	203.652	0.132	0.206
-479.347	-11.907	-0.229	0.152
-478.332	-46.105	-0.294	0.146
-477.318	467.211	0.016	0.036
-476.303	369.723	-0.081	0.164
-475.289	77.819	0.058	0.062
-474.274	182.457	-0.164	0.244
-473.259	83.618	0.048	-0.053
-472.245	-142.972	-0.074	0.007
-471.230	117.266	0.129	0.159
-470.216	-180.967	0.232	0.005
-469.201	180.821	-0.161	-0.238
-468.186	-26.500	0.166	0.098
-467.172	-104.702	-0.249	-0.058
-466.157	356.104	0.233	-0.466
-465.143	-200.000	0.018	0.106
-464.128	800.000	-0.094	-0.352
-463.113	716.101	0.058	-0.155
-462.099	800.000	-0.066	-0.242
-461.084	123.624	-0.171	0.215
-460.070	141.669	0.008	-0.010
-459.055	93.051	0.219	0.249
-458.040	-47.789	0.223	0.109
-457.026	154.913	-0.269	0.373
-456.011	-200.000	0.012	0.054
-454.997	82.722	-0.204	0.223
-453.982	74.821	0.137	-0.145
-452.968	-200.000	-0.047	0.270
-451.953	382.421	-0.098	-0.203
-450.938	-91.693	0.129	-0.037
-449.924	142.520	0.186	0.249
-448.909	237.288	0.039	0.064
-447.895	287.545	-0.098	0.178
-446.880	172.594	-0.085	-0.123
-445.865	-10.732	-0.299	-0.199
-444.851	137.693	-0.082	-0.108
-443.836	-200.000	0.004	0.085
-442.822	203.346	0.139	0.217
-441.807	633.298	0.007	0.018
-440.792	800.000	0.062	0.187
-439.778	-200.000	0.033	-0.469
-438.763	147.128	-0.175	-0.237
-437.749	-34.543	0.104	0.057
-436.734	-0.288	0.061	0.043
-435.719	-200.000	-0.002	0.244
-434.705	-70.653	0.130	-0.049
-433.690	91.692	0.058	0.065
-432.676	-200.000	-0.027	-0.215
-431.661	284.292	-0.108	-0.196
-430.646	-200.000	0.012	0.140
-429.632	235.793	-0.100	-0.167
-428.617	-200.000	-0.033	0.155
-427.603	136.068	0.197	-0.257
-426.588	-200.000	-0.201	-0.001
-425.573	-55.635	0.083	-0.037
-424.559	412.692	0.054	0.116
-423.544	-101.233	0.230	-0.057
-422.530	-36.258	0.259	0.140
-421.515	-200.000	-0.005	-0.189
-420.500	191.291	0.095	-0.143
-419.486	-200.000	-0.013	0.198
-418.471	-84.163	-0.181	-0.058
-417.457	-200.000	-0.021	0.169
-416.442	-200.000	0.008	0.176
-415.428	441.305	-0.104	0.228
-414.413	-30.468	-0.352	0.200
-413.398	-123.344	0.089	-0.014
-412.384	10.472	-0.134	0.103
-411.369	-118.156	0.119	-0.021
-410.355	800.000	0.037	-0.126
-409.340	332.340	0.082	0.159
-408.325	718.693	0.044	-0.117
-407.311	-44.960	-0.113	0.056
-406.296	396.251	-0.076	-0.159
-405.282	-100.278	0.226	0.056
-404.267	-3.994	0.127	0.089
-403.252	591.884	-0.149	-0.370
-402.238	55.998	-0.168	-0.164
-401.223	-104.955	-0.303	-0.070
-400.209	800.000	0.060	-0.227
-399.194	195.398	0.159	-0.243
-398.179	-200.000	0.024	-0.189
-397.165	-62.171	0.180	0.075
-396.150	-200.000	0.007	0.196
-395.136	365.038	-0.058	0.117
-394.121	-39.871	-0.275	-0.144
-393.106	-90.544	0.219	-0.063
-392.092	800.000	-0.015	-0.062
-391.077	-127.181	-0.085	-0.012
-390.063	28.110	0.375	-0.317
-389.048	-84.429	0.103	-0.033
-388.033	-170.590	0.291	0.010
-387.019	-200.000	0.024	-0.435
-386.004	-128.580	-0.256	-0.036
-384.990	-65.155	0.111	0.045
-383.975	146.784	-0.072	0.098
-382.960	-146.679	-0.090	0.008
-381.946	800.000	0.111	-0.354
-380.931	-200.000	-0.038	-0.243
-379.917	-78.575	0.232	0.080
-378.902	-58.432	0.424	-0.185
-377.888	-133.954	-0.151	-0.019
-376.873	346.898	0.110	-0.217
-375.858	-125.194	-0.135	0.021
-374.844	-0.785	0.297	0.211
-373.829	-54.779	-0.273	-0.124
-372.815	-102.142	-0.174	0.042
-371.800	-56.858	-0.148	0.066
-370.785	-50.456	-0.212	-0.101
-369.771	800.000	-0.065	0.245
-368.756	-200.000	0.003	-0.295
-367.742	0.838	0.187	0.134
-366.727	-117.877	0.378	0.068
-365.712	-200.000	-0.017	-0.216
-364.698	800.000	-0.075	-0.322
-363.683	-50.941	-0.281	0.132
-362.669	67.105	-0.228	0.233
-361.654	-52.239	0.062	0.029
-360.639	-200.000	0.028	0.128
-359.625	202.438	0.129	-0.199
-358.610	55.339	-0.232	0.225
-357.596	-80.138	-0.395	0.133
-356.581	-130.383	-0.089	0.012
-355.566	-200.000	-0.008	0.400
-354.552	-160.636	0.305	0.016
-353.537	-133.284	0.280	-0.035
-352.523	-41.073	-0.411	0.213
-351.508	-100.036	-0.228	-0.057
-350.493	467.475	0.148	0.333
-349.479	-41.953	-0.097	0.050
-348.464	-167.939	-0.214	0.008
-347.450	-82.560	0.576	-0.187
-346.435	-61.261	-0.310	-0.131
-345.420	-165.247	-0.251	-0.011
-344.406	-126.287	-0.282	-0.042
-343.391	147.483	-0.024	-0.033
-342.377	107.615	0.123	0.146
-341.362	-200.000	-0.034	0.167
-340.348	-200.000	-0.013	0.099
-339.333	300.484	0.020	-0.038
-338.318	-34.354	-0.112	-0.061
-337.304	119.604	0.183	0.227
-336.289	-174.191	0.232	0.007
-335.275	-82.206	0.138	-0.045
-334.260	494.453	0.107	0.246
-333.245	-48.976	0.110	-0.053
-332.231	-94.419	0.165	0.045
-331.216	192.873	0.276	-0.417
-330.202	443.568	0.101	-0.222
-329.187	67.012	-0.216	0.221
-328.172	312.613	0.155	-0.291
-327.158	-154.482	-0.035	-0.002
-326.143	44.918	0.091	0.084
-325.129	300.811	0.035	0.064
-324.114	6.971	0.078	0.058
-323.099	272.588	0.161	-0.284
-322.085	-32.019	0.038	0.021
-321.070	-200.000	0.020	-0.256
-320.056	-185.492	-0.298	0.005
-319.041	800.000	-0.130	-0.382
-318.026	711.608	0.031	0.081
-317.012	36.151	0.153	0.135
-315.997	-109.807	0.127	0.027
-314.983	-106.022	0.122	0.027
-313.968	451.470	-0.022	0.049
-312.953	-165.197	0.165	0.007
-311.939	800.000	-0.052	-0.172
-310.924	-41.187	0.210	-0.108
-309.910	83.669	0.073	0.080
-308.895	56.592	0.037	0.036
-307.880	237.202	-0.012	0.020
-306.866	759.880	0.234	-0.635
-305.851	87.506	0.188	-0.208
-304.837	-108.550	-0.402	-0.087
-303.822	-38.782	0.177	0.093
-302.807	134.722	0.164	0.213
-301.793	22.090	-0.259	0.211
-300.778	21.357	-0.337	-0.273
-299.764	-200.000	-0.373	-0.000
-298.749	-62.760	0.214	-0.089
-297.735	72.241	-0.318	-0.332
-296.720	109.157	-0.070	0.083
-295.705	-19.535	-0.327	-0.203
-294.691	32.123	0.111	0.096
-293.676	-44.358	0.065	0.032
-292.662	211.922	-0.084	0.133
-291.647	23.375	-0.192	-0.158
-290.632	318.424	-0.081	-0.154
-289.618	377.453	0.046	0.093
-288.603	800.000	-0.041	-0.156
-287.589	-200.000	0.002	-0.038
-286.574	103.168	0.063	0.074
-285.559	-200.000	0.010	0.177
-284.545	-165.661	-0.264	0.011
-283.530	-200.000	0.007	-0.148
-282.516	32.286	0.300	-0.259
-281.501	-200.000	0.038	-0.226
-280.486	262.790	0.144	0.250
-279.472	-38.144	-0.186	-0.099
-278.457	-56.374	0.331	0.147
-277.443	-200.000	0.035	0.227
-276.428	206.135	-0.136	-0.212
-275.413	40.444	0.192	-0.173
-274.399	-116.869	0.253	-0.046
-273.384	565.575	0.054	0.130
-272.370	161.342	0.037	0.052
-271.355	-140.121	-0.385	0.040
-270.340	800.000	-0.021	0.079
-269.326	258.330	-0.069	0.118
-268.311	-34.677	0.201	-0.110
-267.297	-80.178	0.054	-0.018
-266.282	-200.000	-0.003	0.015
-265.267	-49.999	0.215	-0.102
-264.253	68.666	-0.112	-0.115
-263.238	-28.965	0.181	0.104
-262.224	62.154	0.079	-0.079
-261.209	-31.208	-0.111	0.063
-260.195	64.827	0.181	0.183
-259.180	-149.728	0.176	-0.014
-258.165	3.636	-0.173	-0.126
-257.151	-97.155	-0.329	0.086
-256.136	-70.930	0.192	0.072
-255.122	515.713	-0.025	-0.059
-254.107	44.337	-0.205	0.188
-253.092	-133.479	-0.217	-0.027
-252.078	20.531	0.064	0.052
-251.063	-80.200	0.202	-0.067
-250.049	99.827	0.132	-0.152
-249.034	621.781	0.069	-0.175
-248.019	44.890	-0.030	-0.027
-247.005	130.556	-0.055	-0.070
-245.990	-200.000	0.001	-0.356
-244.976	-19.115	0.038	-0.023
-243.961	174.074	-0.090	0.129
-242.946	800.000	-0.018	0.061
-241.932	681.597	-0.070	-0.182
-240.917	49.779	0.226	0.213
-239.903	-74.495	-0.113	-0.041
-238.888	157.496	0.017	-0.023
-237.873	-200.000	-0.032	-0.232
-236.859	77.741	-0.047	-0.050
-235.844	-131.752	0.310	0.041
-234.830	-100.654	-0.206	0.051
-233.815	800.000	-0.014	0.048
-232.800	-105.469	0.108	0.024
-231.786	46.434	0.195	0.180
-230.771	56.479	-0.083	-0.081
-229.757	-9.627	-0.280	-0.186
-228.742	-93.944	-0.149	0.041
-227.727	-149.396	0.139	0.011
-226.713	28.807	0.101	-0.085
-225.698	-61.052	-0.047	0.020
-224.684	55.533	-0.212	0.205
-223.669	21.091	0.118	0.096
-222.655	-5.000	0.131	0.090
-221.640	141.602	-0.081	-0.107
-220.625	233.870	-0.095	-0.156
-219.611	800.000	0.041	0.154
-218.596	-79.425	-0.139	-0.047
-217.582	-163.479	-0.159	-0.008
-216.567	-9.993	0.130	-0.086
-215.552	-200.000	0.012	-0.203
-214.538	-133.493	0.300	0.037
-213.523	-102.945	0.213	0.050
-212.509	596.194	-0.143	0.353
-211.494	159.354	0.200	-0.277
-210.479	-45.104	0.023	0.011
-209.465	264.966	-0.204	0.354
-208.450	-71.084	-0.424	-0.159
-207.436	-54.229	0.243	-0.110
-206.421	-6.790	0.183	-0.124
-205.406	353.919	-0.066	-0.130
-204.392	-200.000	0.037	-0.245
-203.377	594.444	-0.074	-0.182
-202.363	153.253	0.210	0.286
-201.348	316.751	0.079	0.148
-200.333	-177.335	0.517	0.013
-199.319	286.087	-0.158	0.285
-198.304	-164.774	-0.193	-0.009
-197.290	80.823	0.091	0.097
-196.275	-82.476	0.225	0.073
-195.260	54.104	0.060	-0.058
-194.246	-80.684	-0.265	-0.088
-193.231	-200.000	0.004	-0.128
-192.217	546.718	-0.108	0.257
-191.202	654.229	-0.077	0.196
-190.187	84.605	-0.294	-0.320
-189.173	-22.795	-0.268	0.161
-188.158	-142.927	0.059	-0.006
-187.144	9.289	-0.258	0.194
-186.129	13.658	-0.176	-0.136
-185.114	385.374	-0.057	-0.118
-184.100	-200.000	-0.023	0.138
-183.085	-84.731	0.057	0.018
-182.071	-200.000	-0.039	-0.231
-181.056	-111.777	-0.187	0.038
-180.042	96.761	-0.063	-0.072
-179.027	-142.921	0.148	0.014
-178.012	100.800	0.053	-0.062
-176.998	62.377	-0.290	-0.288
-175.983	-105.232	0.117	-0.027
-174.969	800.000	0.061	0.210
-173.954	152.524	0.054	0.073
-172.939	-161.355	0.204	-0.010
-171.925	-200.000	-0.000	-0.009
-170.910	263.386	0.095	-0.165
-169.896	-35.524	-0.104	-0.056
-168.881	277.022	-0.105	0.185
-167.866	528.725	0.037	-0.087
-166.852	60.498	0.195	0.192
-165.837	138.992	-0.170	0.223
-164.823	-64.359	0.169	-0.068
-163.808	749.676	0.094	0.253
-162.793	-200.000	0.056	0.425
-161.779	800.000	-0.043	-0.126
-160.764	-79.555	-0.283	-0.095
-159.750	-92.537	0.134	0.037
-158.735	213.398	0.084	0.132
-157.720	800.000	-0.062	0.172
-156.706	141.241	0.040	-0.052
-155.691	-200.000	-0.030	-0.309
-154.677	800.000	-0.128	0.411
-153.662	5.321	0.103	0.075
-152.647	123.443	-0.094	0.117
-151.633	-65.182	0.083	-0.033
-150.618	-54.639	-0.060	0.027
-149.604	541.502	0.242	0.573
-148.589	240.277	-0.167	0.277
-147.574	184.989	-0.184	0.272
-146.560	96.244	0.089	0.102
-145.545	-190.390	0.319	-0.003
-144.531	197.220	-0.109	-0.165
-143.516	-59.702	-0.287	0.122
-142.502	-21.770	0.205	0.124
-141.487	800.000	-0.067	0.202
-140.472	55.188	-0.188	0.180
-139.458	-51.049	0.367	-0.171
-138.443	-73.059	-0.181	0.066
-137.429	167.374	-0.220	0.310
-136.414	-89.752	0.557	0.162
-135.399	-200.000	-0.024	0.232
-134.385	-60.205	-0.402	0.170
-133.370	800.000	-0.054	0.212
-132.356	-200.000	-0.001	0.080
-131.341	69.822	0.207	0.212
-130.326	800.000	0.014	0.052
-129.312	80.676	-0.157	-0.169
-128.297	14.834	0.320	-0.248
-127.283	187.744	0.115	-0.171
-126.268	800.000	-0.162	0.511
-125.253	-33.776	0.413	0.226
-124.239	84.340	-0.125	-0.136
-123.224	179.802	0.163	0.237
-122.210	-38.337	0.125	0.066
-121.195	-200.000	0.010	0.103
-120.180	12.340	-0.075	-0.058
-119.166	113.663	0.009	0.011
-118.151	-200.000	0.034	-0.289
-117.137	119.457	0.056	-0.069
-116.122	4.611	0.131	-0.095
-115.107	-200.000	-0.011	0.268
-114.093	-183.274	-0.130	0.002
-113.078	800.000	-0.055	-0.156
-112.064	15.225	-0.083	0.065
-111.049	-34.132	0.405	0.221
-110.034	-36.781	-0.136	-0.072
-109.020	-104.155	0.248	-0.057
-108.005	54.769	0.278	0.266
-106.991	-18.084	0.235	0.146
-105.976	89.300	0.111	0.123
-104.962	150.908	-0.087	0.117
-103.947	-129.976	-0.119	0.016
-102.932	602.242	0.039	0.095
-101.918	-137.585	-0.197	-0.022
-100.903	-200.000	0.004	-0.256
-99.889	-47.823	0.288	0.139
-98.874	-159.435	0.317	-0.018
-97.859	-63.702	0.319	-0.130
-96.845	192.487	0.142	0.212
-95.830	-127.708	0.120	0.017
-94.816	408.521	-0.170	0.356
-93.801	343.152	0.075	-0.146
-92.786	315.519	-0.040	-0.075
-91.772	86.274	-0.063	0.068
-90.757	17.199	0.073	-0.057
-89.743	4.488	-0.185	-0.135
-88.728	-38.713	0.256	0.134
-87.713	-200.000	0.101	0.494
-86.699	89.703	-0.094	0.104
-85.684	160.030	-0.186	0.258
-84.670	6.240	0.254	-0.187
-83.655	-200.000	-0.031	-0.342
-82.640	400.746	0.085	0.177
-81.626	800.000	0.105	0.406
-80.611	800.000	0.022	0.084
-79.597	-77.947	0.225	0.077
-78.582	-18.503	0.172	0.106
-77.567	74.767	0.169	0.176
-76.553	-74.270	0.175	0.063
-75.538	-200.000	-0.010	-0.147
-74.524	-200.000	-0.017	-0.125
-73.509	24.050	-0.104	-0.085
-72.494	800.000	0.083	-0.235
-71.480	-65.425	0.182	-0.072
-70.465	173.224	-0.141	-0.202
-69.451	-82.489	-0.294	0.094
-68.436	-101.183	-0.200	-0.048
-67.422	-139.026	0.254	0.027
-66.407	41.604	0.158	0.141
-65.392	-200.000	0.037	0.201
-64.378	-104.981	0.145	0.033
-63.363	298.729	-0.154	-0.280
-62.349	-20.588	0.340	0.207
-61.334	224.423	-0.619	-0.991
-60.319	56.263	0.532	0.512
-59.305	-200.000	-0.101	-1.013
-58.290	453.035	0.379	0.830
-57.276	800.000	0.464	1.326
-56.261	-200.000	95.307	562.975
-55.246	544.648	1375.052	3252.854
-54.232	153.866	2572.161	3491.951
-53.217	104.701	2318.678	2705.986
-52.203	41.350	2071.201	1855.259
-51.188	36.501	1984.763	1734.377
-50.173	35.084	1966.063	1705.350
-49.159	49.421	2017.023	1879.252
-48.144	51.971	2036.692	1920.534
-47.130	37.190	1995.354	1749.565
-46.115	34.793	1984.494	1718.449
-45.100	34.819	1981.376	1715.920
-44.086	34.741	1978.983	1713.077
-43.071	34.559	1976.866	1709.547
-42.057	34.575	1974.685	1707.731
-41.042	34.656	1972.270	1706.305
-40.027	34.691	1970.706	1705.193
-39.013	34.680	1968.568	1703.178
-37.998	34.646	1967.205	1701.627
-36.984	34.820	1964.637	1700.886
-35.969	34.709	1963.348	1698.718
-34.954	34.774	1961.047	1697.241
-33.940	34.820	1959.806	1696.508
-32.925	34.842	1958.138	1695.185
-31.911	34.800	1956.910	1693.689
-30.896	34.763	1954.795	1691.463
-29.881	34.788	1953.596	1690.577
-28.867	34.866	1951.445	1689.335
-27.852	34.825	1949.934	1687.604
-26.838	34.894	1947.702	1686.210
-25.823	34.826	1946.432	1684.445
-24.809	34.721	1944.879	1682.113
-23.794	34.878	1942.940	1681.743
-22.779	34.908	1941.048	1680.307
-21.765	34.769	1939.448	1677.635
-20.750	34.838	1937.609	1676.583
-19.736	34.894	1936.139	1675.734
-18.721	34.954	1934.315	1674.616
-17.706	34.805	1933.267	1672.339
-16.692	34.778	1931.957	1670.899
-15.677	34.778	1930.419	1669.508
-14.663	34.839	1928.823	1668.592
-13.648	34.832	1927.230	1667.085
-12.633	34.852	1925.906	1666.045
-11.619	34.730	1925.232	1664.339
-10.604	34.784	1923.451	1663.196
-9.590	34.811	1921.921	1662.049
-8.575	34.774	1920.807	1660.696
-7.560	34.763	1919.677	1659.560
-6.546	34.817	1918.197	1658.678
-5.531	34.754	1917.219	1657.219
-4.517	34.784	1915.679	1656.082
-3.502	34.767	1914.724	1655.047
-2.487	34.773	1913.285	1653.785
-1.473	34.787	1912.491	1653.162
-0.458	34.850	1907.877	1649.650
0.556	32.423	1887.042	1618.191
1.571	27.683	1865.982	1559.568
2.586	23.227	1886.260	1537.767
3.600	21.901	1922.134	1555.122
4.615	21.334	1917.547	1546.264
5.629	16.637	1817.462	1425.939
6.644	6.717	1695.459	1251.772
7.659	0.772	1654.183	1175.088
8.673	0.210	1649.957	1167.632
9.688	0.007	1649.352	1165.527
10.702	0.028	1647.764	1164.465
11.717	-0.016	1644.322	1161.588
12.731	0.678	1643.839	1166.502
13.746	7.669	1659.321	1231.715
14.761	16.176	1676.152	1310.446
15.775	18.138	1677.696	1326.774
16.790	17.126	1673.850	1315.780
17.804	15.889	1670.770	1303.667
18.819	14.969	1667.458	1293.860
19.834	14.375	1665.169	1287.378
20.848	14.019	1663.615	1283.312
21.863	13.764	1662.107	1280.068
22.877	13.544	1660.222	1276.814
23.892	13.279	1659.108	1273.798
24.907	13.200	1658.087	1272.292
25.921	13.253	1656.249	1271.178
26.936	13.210	1655.347	1270.042
27.950	13.233	1654.962	1269.815
28.965	13.298	1654.324	1269.712
29.980	13.339	1653.707	1269.438
30.994	13.415	1652.566	1269.036
32.009	13.446	1652.366	1269.002
33.023	13.532	1651.096	1268.579
34.038	13.504	1650.333	1267.662
35.053	13.403	1649.605	1266.216
36.067	13.552	1647.673	1265.760
37.082	13.367	1647.453	1264.068
38.096	13.428	1645.704	1263.080
39.111	13.460	1645.064	1262.725
40.126	13.426	1644.433	1261.867
41.140	13.460	1643.168	1261.045
42.155	13.329	1642.084	1259.099
43.169	13.199	1640.852	1257.054
44.184	13.210	1639.701	1256.148
45.199	13.260	1638.632	1255.593
46.213	13.247	1637.228	1254.315
47.228	13.216	1636.510	1253.414
48.242	13.231	1635.263	1252.464
49.257	13.300	1633.963	1251.876
50.271	13.322	1632.795	1251.038
51.286	13.405	1631.067	1250.230
52.301	13.375	1629.858	1248.967
53.315	13.359	1628.684	1247.834
54.330	13.367	1627.124	1246.590
55.344	13.297	1625.623	1244.803
56.359	13.277	1623.840	1243.181
57.374	13.216	1623.311	1242.203
58.388	13.321	1621.835	1241.756
59.403	13.159	1620.653	1239.521
60.417	13.127	1619.111	1237.997
61.432	13.208	1617.568	1237.311
62.447	13.152	1616.604	1236.046
63.461	13.119	1615.518	1234.862
64.476	13.162	1614.178	1234.048
65.490	13.074	1612.941	1232.332
66.505	13.035	1611.851	1231.100
67.520	13.135	1610.801	1230.938
68.534	13.082	1609.950	1229.787
69.549	13.139	1608.725	1229.166
70.563	13.134	1607.043	1227.733
71.578	13.104	1606.563	1227.033
72.593	13.171	1604.884	1226.141
73.607	13.096	1604.272	1225.005
74.622	13.062	1603.209	1223.837
75.636	13.086	1601.716	1222.764
76.651	13.117	1600.758	1222.158
77.666	13.041	1600.552	1221.327
78.680	12.997	1599.510	1220.097
79.695	13.102	1598.073	1219.674
80.709	13.081	1597.600	1219.050
81.724	13.096	1596.547	1218.250
82.739	13.120	1595.950	1217.861
83.753	13.166	1594.786	1217.199
84.768	13.336	1593.679	1217.503
85.782	13.358	1593.264	1217.240
86.797	13.317	1592.149	1215.978
87.812	13.450	1591.380	1216.260
88.826	13.326	1589.750	1214.000
89.841	13.310	1588.564	1212.864
90.855	13.271	1587.840	1211.917
91.870	13.239	1586.868	1210.840
92.884	13.333	1585.946	1210.714
93.899	13.392	1584.888	1210.232
94.914	13.342	1583.609	1208.785
95.928	13.442	1582.072	1208.232
96.943	13.472	1581.015	1207.533
97.957	13.428	1579.466	1205.927
98.972	13.370	1578.282	1204.492
99.987	13.396	1576.621	1203.309
101.001	13.418	1574.953	1202.091
102.016	13.335	1573.729	1200.447
103.030	13.345	1572.371	1199.373
104.045	13.336	1571.007	1198.163
105.060	13.389	1569.780	1197.503
106.074	13.332	1568.602	1196.088
107.089	13.292	1566.591	1194.160
108.103	13.224	1565.436	1192.683
109.118	13.080	1564.102	1190.524
110.133	13.115	1562.755	1189.647
111.147	13.204	1561.585	1189.293
112.162	13.127	1560.289	1187.645
113.176	13.167	1558.934	1186.798
114.191	13.189	1557.717	1185.918
115.206	13.276	1556.317	1185.375
116.220	13.262	1555.234	1184.343
117.235	13.248	1553.844	1183.081
118.249	13.282	1552.303	1182.044
119.264	13.232	1551.067	1180.640
120.279	13.239	1550.023	1179.797
121.293	13.108	1548.575	1177.651
122.308	13.213	1546.584	1176.784
123.322	13.238	1545.604	1176.110
124.337	13.187	1543.933	1174.375
125.352	13.226	1542.820	1173.701
126.366	13.177	1541.526	1172.263
127.381	13.216	1540.700	1171.811
128.395	13.081	1539.916	1170.152
129.410	13.218	1538.144	1169.673
130.424	13.169	1536.791	1168.195
131.439	13.200	1535.642	1167.433
132.454	13.322	1534.070	1167.001
133.468	13.381	1532.761	1166.313
134.483	13.373	1531.463	1165.166
135.497	13.354	1529.930	1163.764
136.512	13.318	1528.685	1162.459
137.527	13.312	1527.557	1161.457
138.541	13.373	1525.940	1160.551
139.556	13.408	1524.550	1159.643
140.570	13.407	1523.161	1158.471
141.585	13.472	1521.425	1157.503
142.600	13.447	1520.964	1156.876
143.614	13.447	1519.936	1155.990
144.629	13.501	1518.387	1155.091
145.643	13.580	1516.622	1154.193
146.658	13.568	1515.612	1153.240
147.673	13.625	1513.506	1151.934
148.687	13.521	1512.110	1150.046
149.702	13.603	1510.586	1149.353
150.716	13.485	1509.480	1147.595
151.731	13.441	1508.121	1146.152
152.746	13.455	1506.972	1145.273
153.760	13.417	1505.922	1144.112
154.775	13.425	1504.623	1143.082
155.789	13.491	1502.895	1142.122
156.804	13.489	1501.875	1141.236
157.819	13.614	1500.264	1140.764
158.833	13.528	1499.507	1139.499
159.848	13.551	1498.454	1138.755
160.862	13.647	1497.346	1138.473
161.877	13.686	1496.479	1137.978
162.892	13.635	1494.966	1136.380
163.906	13.589	1493.662	1134.970
164.921	13.458	1492.086	1132.778
165.935	13.543	1491.167	1132.561
166.950	13.565	1489.850	1131.614
167.964	13.525	1489.135	1130.697
168.979	13.604	1487.736	1130.070
169.994	13.674	1486.381	1129.420
171.008	13.542	1485.896	1128.050
172.023	13.682	1484.144	1127.573
173.037	13.721	1483.299	1127.099
174.052	13.792	1481.988	1126.484
175.067	13.779	1481.334	1125.801
176.081	13.739	1479.627	1124.133
177.096	13.559	1478.785	1122.174
178.110	13.612	1477.654	1121.572
179.125	13.632	1476.585	1120.797
180.140	13.654	1475.590	1120.094
181.154	13.621	1474.403	1118.873
182.169	13.668	1473.248	1118.209
183.183	13.679	1471.527	1116.882
184.198	13.792	1470.850	1117.030
185.213	13.878	1470.033	1116.884
186.227	13.882	1468.876	1115.937
187.242	13.925	1467.924	1115.401
188.256	13.904	1466.919	1114.400
189.271	14.000	1465.777	1114.079
190.286	13.879	1465.019	1112.595
191.300	13.860	1464.295	1111.817
192.315	13.772	1462.435	1109.718
193.329	13.769	1461.071	1108.565
194.344	13.721	1459.924	1107.275
195.359	13.637	1458.990	1105.910
196.373	13.783	1458.189	1106.179
197.388	13.884	1456.915	1105.787
198.402	13.992	1455.809	1105.569
199.417	13.862	1455.334	1104.242
200.432	14.036	1453.875	1104.194
201.446	14.100	1453.058	1103.903
202.461	14.112	1451.772	1102.903
203.475	14.082	1450.669	1101.770
204.490	14.129	1449.253	1100.912
205.504	14.124	1448.323	1100.074
206.519	14.142	1447.043	1099.122
207.534	14.075	1446.028	1097.815
208.548	14.065	1444.758	1096.688
209.563	14.023	1444.097	1095.808
210.577	14.048	1442.632	1094.764
211.592	14.006	1442.095	1093.984
212.607	14.133	1441.473	1094.252
213.621	14.286	1440.705	1094.578
214.636	14.339	1439.561	1093.960
215.650	14.208	1438.662	1092.320
216.665	14.231	1437.610	1091.573
217.680	14.241	1437.291	1091.301
218.694	14.313	1436.624	1091.172
219.709	14.330	1435.210	1090.110
220.723	14.353	1434.588	1089.693
221.738	14.399	1433.355	1088.960
222.753	14.329	1432.477	1087.738
223.767	14.256	1431.677	1086.560
224.782	14.348	1430.678	1086.307
225.796	14.404	1429.834	1085.933
226.811	14.484	1428.846	1085.611
227.826	14.423	1428.350	1084.739
228.840	14.502	1427.348	1084.392
229.855	14.386	1426.318	1082.763
230.869	14.328	1425.716	1081.830
231.884	14.364	1424.897	1081.351
232.899	14.492	1423.078	1080.704
233.913	14.427	1421.861	1079.266
234.928	14.380	1420.917	1078.144
235.942	14.421	1419.772	1077.444
236.957	14.343	1418.763	1076.080
237.972	14.247	1417.836	1074.665
238.986	14.367	1416.798	1074.558
240.001	14.417	1415.498	1073.800
241.015	14.481	1414.429	1073.305
242.030	14.456	1413.066	1072.013
243.045	14.509	1412.449	1071.791
244.059	14.535	1411.801	1071.369
245.074	14.467	1411.010	1070.238
246.088	14.596	1409.851	1070.095
247.103	14.654	1409.043	1069.758
248.117	14.598	1408.458	1068.860
249.132	14.694	1407.740	1068.838
250.147	14.757	1407.032	1068.609
251.161	14.839	1406.384	1068.542
252.176	14.759	1405.849	1067.534
253.190	14.880	1404.878	1067.471
254.205	14.880	1403.785	1066.547
255.220	14.887	1403.449	1066.243
256.234	14.920	1402.354	1065.528
257.249	14.895	1402.033	1065.026
258.263	14.946	1400.970	1064.452
259.278	14.966	1399.995	1063.743
260.293	14.967	1398.918	1062.838
261.307	15.067	1397.947	1062.643
262.322	15.089	1397.563	1062.397
263.336	15.159	1396.626	1062.030
264.351	15.062	1395.830	1060.716
265.366	15.128	1395.153	1060.529
266.380	15.121	1394.058	1059.559
267.395	15.101	1393.067	1058.586
268.409	15.113	1391.892	1057.674
269.424	15.133	1391.293	1057.252
270.439	15.216	1389.794	1056.542
271.453	15.157	1388.970	1055.450
272.468	15.178	1387.962	1054.720
273.482	15.114	1387.343	1053.759
274.497	15.113	1386.392	1052.936
275.512	15.102	1385.676	1052.229
276.526	15.148	1384.717	1051.699
277.541	15.183	1383.881	1051.187
278.555	15.218	1382.954	1050.612
279.570	15.159	1382.205	1049.580
280.585	15.206	1381.444	1049.203
281.599	15.377	1380.239	1049.262
282.614	15.337	1379.213	1048.142
283.628	15.269	1378.255	1046.893
284.643	15.257	1377.402	1046.078
285.657	15.235	1376.630	1045.262
286.672	15.246	1375.386	1044.297
287.687	15.327	1374.578	1044.091
288.701	15.388	1373.064	1043.230
289.716	15.381	1372.615	1042.756
290.730	15.403	1372.096	1042.404
291.745	15.228	1371.374	1040.676
292.760	15.367	1369.975	1040.386
293.774	15.384	1368.965	1039.629
294.789	15.433	1367.687	1038.870
295.803	15.445	1367.084	1038.399
296.818	15.437	1366.203	1037.585
297.833	15.482	1365.543	1037.268
298.847	15.424	1364.546	1036.060
299.862	15.482	1363.212	1035.317
300.876	15.453	1362.811	1034.738
301.891	15.457	1361.582	1033.741
302.906	15.432	1361.096	1033.127
303.920	15.563	1360.075	1033.066
304.935	15.646	1359.459	1033.018
305.949	15.626	1358.556	1032.119
306.964	15.724	1357.788	1032.043
307.979	15.666	1357.158	1031.114
308.993	15.620	1356.143	1029.970
310.008	15.683	1354.834	1029.272
311.022	15.712	1353.889	1028.643
312.037	15.694	1353.347	1028.029
313.052	15.702	1352.357	1027.236
314.066	15.793	1350.808	1026.523
315.081	15.691	1349.745	1025.001
316.095	15.737	1348.959	1024.592
317.110	15.692	1347.878	1023.407
318.125	15.654	1347.161	1022.543
319.139	15.665	1346.059	1021.682
320.154	15.689	1344.995	1020.931
321.168	15.697	1344.092	1020.203
322.183	15.710	1343.001	1019.367
323.197	15.794	1342.218	1019.187
324.212	15.808	1341.273	1018.465
325.227	15.772	1340.922	1017.891
326.241	15.796	1339.855	1017.133
327.256	15.841	1338.760	1016.487
328.270	15.904	1337.644	1015.930
329.285	15.789	1337.420	1014.979
330.300	15.792	1336.268	1014.028
331.314	15.881	1335.084	1013.575
332.329	15.894	1334.286	1012.957
333.343	15.835	1333.516	1011.933
334.358	15.867	1332.727	1011.435
335.373	16.002	1331.742	1011.410
336.387	15.968	1331.248	1010.741
337.402	15.923	1330.682	1009.949
338.416	16.043	1329.850	1009.947
339.431	16.000	1329.303	1009.187
340.446	16.089	1328.570	1009.073
341.460	16.095	1327.673	1008.339
342.475	16.134	1326.378	1007.500
343.489	16.071	1325.673	1006.501
344.504	16.184	1324.668	1006.322
345.519	16.266	1323.475	1005.816
346.533	16.279	1322.628	1005.161
347.548	16.204	1321.993	1004.140
348.562	16.327	1321.125	1004.127
349.577	16.371	1320.220	1003.611
350.592	16.348	1319.517	1002.851
351.606	16.213	1318.927	1001.511
352.621	16.177	1317.976	1000.484
353.635	16.197	1316.654	999.512
354.650	16.145	1315.562	998.285
355.665	16.215	1314.794	998.028
356.679	16.199	1313.612	996.953
357.694	16.301	1312.264	996.440
358.708	16.238	1311.526	995.420
359.723	16.287	1310.611	994.927
360.738	16.332	1309.837	994.517
361.752	16.347	1308.795	993.728
362.767	16.367	1307.565	992.821
363.781	16.433	1306.732	992.488
364.796	16.370	1306.203	991.632
365.810	16.455	1305.301	991.353
366.825	16.399	1304.662	990.455
367.840	16.530	1303.543	990.286
368.854	16.612	1303.073	990.322
369.869	16.560	1302.756	989.686
370.883	16.637	1302.151	989.588
371.898	16.484	1301.702	988.265
372.913	16.641	1300.325	988.049
373.927	16.605	1299.330	986.996
374.942	16.596	1298.715	986.389
375.956	16.602	1298.324	986.038
376.971	16.597	1297.594	985.369
377.986	16.676	1296.846	985.173
379.000	16.719	1295.755	984.508
380.015	16.742	1294.896	983.903
381.029	16.771	1294.194	983.448
382.044	16.847	1293.656	983.394
383.059	16.795	1292.995	982.505
384.073	16.718	1292.760	981.791
385.088	16.764	1291.692	981.161
386.102	16.848	1291.097	981.108
387.117	16.867	1290.266	980.500
388.132	16.827	1289.260	979.417
389.146	16.865	1288.455	978.940
390.161	16.820	1287.515	977.876
391.175	16.805	1286.912	977.245
392.190	16.749	1286.170	976.275
393.205	16.858	1285.257	976.123
394.219	16.895	1284.005	975.297
395.234	16.881	1283.161	974.492
396.248	16.888	1282.000	973.564
397.263	17.012	1280.207	972.823
398.278	16.972	1279.073	971.652
399.292	16.982	1278.160	970.925
400.307	16.989	1276.925	969.946
401.321	16.867	1276.209	968.617
402.336	16.834	1275.679	967.943
403.350	16.850	1274.386	966.964
404.365	16.792	1273.477	965.857
405.380	16.986	1272.670	966.266
406.394	16.959	1271.641	965.246
407.409	16.934	1271.245	964.716
408.423	17.058	1270.502	964.773
409.438	17.075	1269.600	964.097
410.453	17.128	1269.074	963.915
411.467	17.115	1268.433	963.271
412.482	17.143	1268.037	963.044
413.496	17.223	1267.399	962.923
414.511	17.237	1266.562	962.283
415.526	17.263	1265.347	961.425
416.540	17.314	1264.723	961.153
417.555	17.328	1264.375	960.884
418.569	17.405	1263.695	960.716
419.584	17.286	1263.339	959.689
420.599	17.427	1262.057	959.422
421.613	91.240	1344.042	1443.902
422.628	88.937	1355.970	1444.028
