DTS Sentinel unit serial number:	SN413079Multiplexer serial number:	ORYXHardware model number:	OX4-SRSoftware version number:	ORYX F/W v4.00 Oryx Data Collector v3.7.2.0data status	okinstallation	princeton_trtdifferential loss correction	single-endedforward channel	channel 4reverse channel	N/Adate	2019/09/15time	02:13:34forward acquisition time	60.00reverse acquisition time	0.00gamma	496.2192k internal	0.2308k external	0.2308temperature offset calibration	1.0031default loss term (dB/km)	0.3790temperature slope calibration	1.0000multiplexer offset coefficient	1.0000multiplexer slope coefficient	1.0000fibre end	0.00T internal ref (°C)	31.67T ext. ref 1 (°C)	4.55T ext. ref 2 (°C)	26.24length (m)	temperature (°C)	Stokes	anti-Stokes-747.200	-200.000	-0.014	-0.206
-746.185	-157.740	0.195	-0.012
-745.171	86.440	-0.111	-0.125
-744.156	28.842	-0.184	-0.159
-743.142	-31.506	0.106	0.060
-742.127	-140.723	-0.356	0.037
-741.112	-119.965	-0.231	-0.040
-740.098	-200.000	-0.008	0.135
-739.083	111.650	-0.242	0.297
-738.069	-200.000	0.123	0.000
-737.054	87.000	-0.038	0.042
-736.039	61.699	-0.184	-0.186
-735.025	-80.909	0.204	0.069
-734.010	128.365	-0.060	-0.077
-732.996	-95.721	-0.336	0.091
-731.981	-200.000	-0.016	0.108
-730.966	-140.737	0.128	-0.013
-729.952	-200.000	-0.052	-0.316
-728.937	-87.402	-0.120	-0.037
-727.923	-200.000	-0.027	-0.399
-726.908	171.287	-0.090	-0.132
-725.894	170.927	-0.158	-0.231
-724.879	800.000	-0.059	0.234
-723.864	-200.000	-0.012	-0.094
-722.850	66.067	-0.124	-0.128
-721.835	2.927	-0.170	-0.126
-720.821	59.065	-0.170	0.170
-719.806	158.217	-0.228	-0.322
-718.791	183.480	-0.075	0.112
-717.777	-170.826	0.240	-0.008
-716.762	-108.912	-0.266	0.058
-715.748	-76.258	-0.063	-0.022
-714.733	-200.000	-0.020	-0.102
-713.718	254.987	0.068	-0.119
-712.704	-40.325	0.156	-0.082
-711.689	680.292	-0.201	-0.531
-710.675	-147.813	-0.120	-0.010
-709.660	-66.741	-0.381	-0.153
-708.645	-107.818	0.102	-0.023
-707.631	-47.083	0.128	-0.063
-706.616	-178.060	-0.226	-0.005
-705.602	-200.000	0.015	0.140
-704.587	610.533	0.089	-0.226
-703.572	-43.133	-0.038	0.019
-702.558	-28.304	0.110	0.065
-701.543	-126.985	-0.180	0.027
-700.529	24.723	0.110	-0.092
-699.514	-200.000	-0.076	0.411
-698.499	-102.911	0.065	-0.016
-697.485	-191.066	-0.076	-0.001
-696.470	-200.000	-0.061	0.441
-695.456	124.391	-0.144	0.183
-694.441	-138.169	-0.436	0.049
-693.426	-125.229	0.537	-0.083
-692.412	-200.000	0.012	0.154
-691.397	62.005	-0.127	0.129
-690.383	-106.488	0.045	-0.010
-689.368	296.757	0.157	0.292
-688.354	82.019	-0.131	-0.144
-687.339	279.914	0.044	0.079
-686.324	-99.665	-0.436	-0.111
-685.310	-1.522	-0.125	-0.089
-684.295	126.666	0.111	-0.143
-683.281	-75.713	0.129	-0.046
-682.266	-175.224	0.031	-0.001
-681.251	-6.105	-0.055	-0.038
-680.237	164.922	-0.151	0.216
-679.222	-106.964	-0.051	0.012
-678.208	-180.321	0.215	-0.005
-677.193	423.539	-0.057	0.124
-676.178	800.000	0.031	0.115
-675.164	363.040	-0.100	-0.203
-674.149	800.000	-0.066	-0.197
-673.135	121.459	-0.081	0.102
-672.120	227.247	0.083	0.137
-671.105	-136.529	0.228	-0.027
-670.091	18.990	0.202	-0.164
-669.076	-8.863	0.064	-0.043
-668.062	-66.565	0.126	0.051
-667.047	-95.964	-0.061	-0.016
-666.032	-174.959	0.362	0.010
-665.018	25.395	0.421	0.355
-664.003	113.030	-0.019	0.023
-662.989	-100.976	-0.214	-0.053
-661.974	107.971	-0.213	-0.257
-660.959	-119.964	0.236	0.041
-659.945	800.000	0.069	0.258
-658.930	102.485	0.219	0.259
-657.916	184.847	-0.201	-0.303
-656.901	-140.583	-0.136	-0.014
-655.886	510.760	-0.030	0.071
-654.872	30.713	-0.178	0.154
-653.857	-18.360	-0.153	0.097
-652.843	459.227	-0.090	-0.203
-651.828	176.599	-0.171	0.252
-650.814	-200.000	0.016	-0.234
-649.799	526.507	-0.061	0.145
-648.784	-76.686	0.270	-0.096
-647.770	-200.000	-0.043	0.275
-646.755	-89.060	-0.191	-0.057
-645.741	-44.495	0.454	-0.230
-644.726	261.953	0.100	-0.175
-643.711	-200.000	0.008	0.187
-642.697	-200.000	-0.021	-0.299
-641.682	39.458	0.144	0.131
-640.668	73.454	0.093	-0.098
-639.653	-30.034	-0.282	-0.162
-638.638	45.789	0.344	-0.322
-637.624	-63.171	0.125	0.052
-636.609	161.855	0.082	0.117
-635.595	800.000	0.051	0.175
-634.580	800.000	0.065	0.215
-633.565	-200.000	0.034	-0.181
-632.551	32.826	-0.126	-0.111
-631.536	303.072	0.050	0.094
-630.522	-22.740	0.299	0.183
-629.507	71.424	0.062	-0.065
-628.492	-200.000	-0.035	0.228
-627.478	425.449	0.066	0.144
-626.463	-56.878	0.030	-0.013
-625.449	-200.000	-0.040	-0.228
-624.434	545.018	-0.114	-0.275
-623.419	-14.765	0.229	-0.149
-622.405	-200.000	-0.042	-0.235
-621.390	-84.761	-0.134	-0.043
-620.376	-200.000	-0.017	0.088
-619.361	-140.927	0.270	0.028
-618.346	240.922	0.099	0.168
-617.332	408.011	-0.135	0.290
-616.317	-78.191	-0.221	-0.077
-615.303	-161.015	0.255	0.014
-614.288	-60.605	-0.235	0.101
-613.273	-22.729	0.109	0.066
-612.259	604.026	-0.153	0.385
-611.244	223.397	-0.248	-0.404
-610.230	256.189	0.237	0.412
-609.215	-115.733	0.215	0.041
-608.201	-200.000	-0.041	-0.226
-607.186	167.046	0.082	0.118
-606.171	800.000	-0.025	-0.102
-605.157	-86.323	-0.085	0.027
-604.142	50.104	-0.200	-0.191
-603.128	191.290	0.147	-0.224
-602.113	206.673	-0.062	-0.098
-601.098	166.248	0.173	-0.248
-600.084	800.000	-0.045	-0.194
-599.069	-107.713	-0.043	0.010
-598.055	800.000	0.063	0.259
-597.040	244.315	0.101	0.172
-596.025	-200.000	-0.049	0.255
-595.011	-200.000	-0.006	0.115
-593.996	-62.158	0.268	0.113
-592.982	-74.865	-0.275	0.100
-591.967	800.000	-0.035	-0.126
-590.952	-200.000	-0.008	-0.034
-589.938	90.976	0.195	-0.221
-588.923	-200.000	0.010	0.047
-587.909	146.500	0.082	-0.112
-586.894	46.940	-0.179	-0.168
-585.879	460.291	-0.068	0.153
-584.865	79.691	-0.217	0.236
-583.850	-200.000	-0.041	-0.281
-582.836	72.086	0.053	0.056
-581.821	102.880	-0.158	-0.187
-580.806	-9.235	-0.257	-0.173
-579.792	-200.000	0.017	-0.136
-578.777	-200.000	0.020	0.122
-577.763	-88.701	-0.465	-0.140
-576.748	760.555	0.094	-0.256
-575.733	65.943	0.083	-0.085
-574.719	-200.000	0.022	0.217
-573.704	800.000	-0.070	-0.237
-572.690	800.000	0.135	-0.399
-571.675	53.691	-0.257	0.250
-570.661	120.119	-0.205	-0.256
-569.646	-28.769	-0.164	-0.095
-568.631	209.015	-0.242	0.383
-567.617	-113.280	0.213	0.042
-566.602	-200.000	-0.002	-0.158
-565.588	800.000	-0.079	-0.323
-564.573	16.405	-0.105	-0.084
-563.558	-200.000	0.043	0.238
-562.544	41.997	-0.163	-0.149
-561.529	-120.645	-0.189	0.032
-560.515	800.000	0.050	0.165
-559.500	-200.000	0.000	0.028
-558.485	138.930	-0.183	-0.243
-557.471	-121.346	0.279	0.047
-556.456	-189.746	0.344	-0.004
-555.442	-86.748	-0.100	0.031
-554.427	-9.326	-0.087	-0.059
-553.412	-157.277	-0.139	-0.009
-552.398	-189.007	-0.302	-0.004
-551.383	-169.240	-0.150	0.006
-550.369	-200.000	0.001	-0.030
-549.354	-200.000	0.044	0.327
-548.339	9.250	-0.190	-0.145
-547.325	-200.000	-0.039	-0.189
-546.310	-133.623	-0.192	0.024
-545.296	106.398	0.158	-0.189
-544.281	-149.867	0.204	-0.016
-543.266	-200.000	-0.069	-0.463
-542.252	-83.078	-0.363	0.118
-541.237	313.215	0.063	-0.120
-540.223	-13.774	-0.071	0.046
-539.208	-143.256	0.065	0.006
-538.193	342.795	-0.018	0.035
-537.179	328.926	0.113	0.218
-536.164	62.786	0.129	0.130
-535.150	-128.617	0.274	-0.039
-534.135	-104.357	-0.479	0.112
-533.121	-200.000	-0.032	0.266
-532.106	-124.281	0.319	0.050
-531.091	-200.000	0.009	-0.049
-530.077	-127.383	-0.262	0.038
-529.062	203.433	0.147	0.229
-528.048	-109.004	-0.203	-0.044
-527.033	-20.902	-0.035	0.022
-526.018	76.287	-0.247	0.263
-525.004	-126.782	-0.191	-0.028
-523.989	370.533	0.091	-0.186
-522.975	88.123	-0.256	0.286
-521.960	523.021	-0.056	0.132
-520.945	-57.828	0.119	-0.052
-519.931	-150.317	0.252	0.020
-518.916	247.208	0.166	-0.283
-517.902	699.256	0.095	0.251
-516.887	-200.000	-0.020	0.340
-515.872	6.634	-0.211	0.158
-514.858	-128.696	-0.124	0.018
-513.843	130.685	0.115	0.148
-512.829	-106.062	0.385	-0.087
-511.814	-200.000	-0.017	-0.277
-510.799	-84.562	-0.139	-0.044
-509.785	-144.094	0.088	-0.008
-508.770	-56.628	0.266	-0.118
-507.756	-39.071	-0.302	-0.160
-506.741	800.000	-0.077	-0.226
-505.726	25.525	0.164	-0.137
-504.712	112.271	-0.168	-0.204
-503.697	497.432	-0.111	-0.257
-502.683	-151.518	0.297	-0.022
-501.668	-74.866	-0.272	0.098
-500.653	-138.737	-0.153	-0.017
-499.639	-142.344	-0.232	-0.023
-498.624	-200.000	0.044	0.237
-497.610	144.241	0.127	-0.171
-496.595	-92.331	0.315	0.089
-495.581	-27.729	0.144	-0.084
-494.566	-59.635	0.066	-0.029
-493.551	382.215	-0.087	-0.181
-492.537	382.777	0.106	0.219
-491.522	143.189	-0.116	-0.155
-490.508	728.650	-0.115	-0.310
-489.493	9.278	0.168	0.128
-488.478	-200.000	-0.024	-0.314
-487.464	252.750	0.126	-0.216
-486.449	-200.000	-0.084	0.475
-485.435	-52.404	-0.226	-0.105
-484.420	-129.207	-0.408	0.057
-483.405	689.398	0.043	0.114
-482.391	-200.000	-0.035	0.231
-481.376	570.353	-0.153	0.373
-480.362	800.000	-0.083	-0.265
-479.347	189.133	0.351	-0.529
-478.332	85.859	0.012	-0.013
-477.318	41.903	0.292	0.266
-476.303	67.312	-0.106	0.108
-475.289	-83.497	-0.165	-0.053
-474.274	207.458	0.053	-0.084
-473.259	-200.000	-0.013	0.138
-472.245	-39.294	-0.186	0.098
-471.230	130.040	-0.128	0.165
-470.216	800.000	0.052	-0.170
-469.201	-60.209	0.188	-0.081
-468.186	-186.400	-0.373	-0.005
-467.172	291.385	-0.102	0.186
-466.157	67.225	0.037	-0.038
-465.143	172.973	0.180	-0.260
-464.128	20.817	-0.139	0.113
-463.113	-200.000	0.029	0.388
-462.099	-62.439	-0.327	-0.137
-461.084	-68.017	0.302	-0.118
-460.070	20.983	0.016	-0.013
-459.055	800.000	-0.039	-0.127
-458.040	294.604	0.159	-0.293
-457.026	58.642	-0.148	0.146
-456.011	238.045	-0.127	-0.211
-454.997	-94.275	0.220	-0.060
-453.982	252.966	-0.077	-0.132
-452.968	385.655	-0.074	-0.152
-451.953	-167.944	0.044	0.002
-450.938	800.000	0.010	0.039
-449.924	-85.694	-0.120	-0.037
-448.909	-200.000	0.039	0.184
-447.895	592.097	-0.054	0.134
-446.880	154.085	-0.023	0.032
-445.865	651.167	-0.067	-0.173
-444.851	-7.519	-0.099	0.068
-443.836	405.131	-0.220	0.465
-442.822	264.378	-0.141	0.247
-441.807	-137.409	0.521	0.059
-440.792	-168.614	-0.290	-0.011
-439.778	-174.539	-0.075	0.002
-438.763	18.905	-0.050	-0.041
-437.749	-154.011	-0.262	0.018
-436.734	258.768	-0.125	-0.216
-435.719	-28.101	0.060	-0.035
-434.705	-200.000	-0.006	0.316
-433.690	-8.713	0.251	0.169
-432.676	-71.260	0.082	0.031
-431.661	117.906	-0.115	0.142
-430.646	-88.354	0.429	0.129
-429.632	-200.000	-0.010	-0.109
-428.617	800.000	0.091	-0.264
-427.603	-200.000	-0.054	0.719
-426.588	152.408	-0.273	0.374
-425.573	634.827	0.079	-0.202
-424.559	-62.218	-0.163	-0.068
-423.544	24.063	0.153	0.127
-422.530	-200.000	0.016	-0.077
-421.515	-137.821	-0.171	-0.019
-420.500	-94.029	0.210	-0.058
-419.486	79.337	0.071	0.077
-418.471	-140.847	-0.244	0.025
-417.457	129.406	-0.058	-0.074
-416.442	568.177	-0.085	0.208
-415.428	8.320	0.137	0.103
-414.413	14.627	0.275	-0.216
-413.398	-76.456	-0.257	0.091
-412.384	221.878	-0.099	0.159
-411.369	91.946	-0.125	0.141
-410.355	-77.726	0.407	-0.141
-409.340	176.380	0.215	-0.314
-408.325	531.356	-0.110	0.261
-407.311	-184.045	0.392	-0.007
-406.296	-62.223	0.156	-0.065
-405.282	-125.396	-0.244	-0.037
-404.267	-10.314	0.215	0.143
-403.252	-152.232	0.063	0.005
-402.238	-27.273	0.268	0.156
-401.223	-174.050	-0.270	0.008
-400.209	-200.000	0.012	0.111
-399.194	487.605	0.036	-0.083
-398.179	252.900	-0.069	0.118
-397.165	-19.475	-0.131	0.081
-396.150	-200.000	0.006	-0.084
-395.136	-52.620	-0.171	-0.079
-394.121	136.785	0.143	0.188
-393.106	-200.000	0.013	0.127
-392.092	529.773	0.045	0.106
-391.077	439.902	0.060	-0.132
-390.063	64.270	-0.112	0.113
-389.048	-36.887	-0.276	0.148
-388.033	60.409	0.238	0.237
-387.019	-76.446	-0.028	0.010
-386.004	-37.518	0.190	-0.102
-384.990	-200.000	0.009	-0.088
-383.975	140.178	0.230	-0.304
-382.960	-104.384	-0.251	0.058
-381.946	-44.382	0.068	0.034
-380.931	-90.467	0.141	-0.041
-379.917	-51.582	-0.011	-0.005
-378.902	154.532	0.187	-0.257
-377.888	-13.227	0.055	0.036
-376.873	96.243	0.196	0.225
-375.858	367.994	0.118	0.239
-374.844	-77.192	-0.012	0.004
-373.829	-96.731	0.047	-0.012
-372.815	549.943	0.031	-0.075
-371.800	-200.000	-0.019	0.264
-370.785	-105.608	-0.074	0.017
-369.771	800.000	0.080	-0.220
-368.756	536.926	0.050	-0.118
-367.742	-15.717	-0.242	0.154
-366.727	-89.363	0.293	-0.086
-365.712	-158.960	0.135	-0.008
-364.698	244.008	0.153	-0.257
-363.683	4.926	-0.193	-0.142
-362.669	111.720	-0.287	-0.347
-361.654	-69.648	-0.066	-0.025
-360.639	-99.469	-0.194	0.049
-359.625	-33.278	0.417	0.231
-358.610	800.000	0.164	0.481
-357.596	98.471	0.246	-0.284
-356.581	-42.203	-0.306	0.156
-355.566	800.000	-0.024	-0.067
-354.552	-45.710	-0.122	-0.060
-353.537	-200.000	-0.020	0.099
-352.523	44.685	-0.197	0.181
-351.508	800.000	-0.058	0.246
-350.493	-115.904	0.233	-0.043
-349.479	-14.878	-0.118	0.076
-348.464	-136.726	-0.105	-0.012
-347.450	-32.491	0.146	0.081
-346.435	-92.284	-0.079	-0.022
-345.420	-161.791	-0.206	-0.010
-344.406	80.846	-0.160	0.173
-343.391	-74.406	0.144	0.052
-342.377	-119.532	0.157	0.027
-341.362	-39.004	-0.355	-0.187
-340.348	-192.797	-0.153	-0.001
-339.333	597.960	0.050	-0.124
-338.318	-18.767	-0.317	-0.198
-337.304	495.784	0.063	0.145
-336.289	-48.738	0.371	0.178
-335.275	672.359	0.025	-0.065
-334.260	-87.105	0.216	-0.066
-333.245	23.931	-0.368	0.303
-332.231	800.000	-0.032	-0.102
-331.216	-123.019	0.367	-0.059
-330.202	-138.543	-0.121	0.013
-329.187	-104.380	-0.170	0.039
-328.172	-200.000	-0.002	0.139
-327.158	34.799	-0.067	-0.058
-326.143	-31.118	0.072	0.041
-325.129	133.227	0.176	-0.227
-324.114	141.258	-0.073	0.096
-323.099	-26.820	-0.020	-0.012
-322.085	-114.154	0.181	-0.035
-321.070	177.933	0.150	-0.219
-320.056	66.122	-0.158	0.160
-319.041	77.267	-0.277	-0.294
-318.026	-200.000	-0.039	-0.377
-317.012	-200.000	-0.079	-0.384
-315.997	204.770	-0.135	0.209
-314.983	-174.781	0.201	0.006
-313.968	143.459	0.135	-0.179
-312.953	-200.000	-0.024	-0.143
-311.939	48.658	0.074	-0.070
-310.924	36.791	0.187	-0.165
-309.910	-22.708	0.135	-0.081
-308.895	-200.000	0.035	0.280
-307.880	-1.381	-0.420	-0.296
-306.866	-200.000	0.015	-0.069
-305.851	-126.625	0.261	0.039
-304.837	-13.560	0.221	0.143
-303.822	-200.000	0.015	0.196
-302.807	-200.000	0.014	0.237
-301.793	-39.711	-0.120	0.062
-300.778	136.573	0.043	-0.057
-299.764	-200.000	-0.001	0.059
-298.749	-87.346	-0.204	-0.062
-297.735	-46.486	-0.134	0.066
-296.720	-200.000	-0.002	-0.062
-295.705	-24.036	-0.082	-0.049
-294.691	-68.743	0.261	-0.101
-293.676	-61.475	0.116	-0.049
-292.662	800.000	0.056	-0.158
-291.647	-56.097	-0.062	-0.028
-290.632	-117.881	0.079	0.014
-289.618	-124.275	-0.115	0.018
-288.603	91.975	0.042	0.048
-287.589	-117.325	-0.229	-0.042
-286.574	-200.000	-0.042	-0.195
-285.559	-85.545	0.176	0.055
-284.545	-200.000	-0.021	-0.349
-283.530	-26.259	-0.041	-0.024
-282.516	9.029	-0.056	-0.042
-281.501	92.647	-0.134	0.151
-280.486	34.061	0.145	0.126
-279.472	28.388	0.133	-0.112
-278.457	228.217	0.059	0.096
-277.443	-200.000	0.030	0.228
-276.428	-159.491	0.322	-0.018
-275.413	-166.129	-0.071	-0.003
-274.399	-158.651	0.178	-0.010
-273.384	707.700	-0.032	0.083
-272.370	-200.000	0.087	0.399
-271.355	210.181	0.113	0.176
-270.340	274.690	0.085	-0.150
-269.326	135.907	-0.223	-0.290
-268.311	-3.147	0.166	-0.115
-267.297	-159.797	0.121	0.007
-266.282	-117.236	-0.124	0.022
-265.267	792.892	-0.051	0.139
-264.253	-137.709	-0.291	-0.033
-263.238	196.753	0.102	-0.154
-262.224	800.000	-0.120	-0.470
-261.209	1.439	-0.270	0.194
-260.195	-139.000	-0.286	-0.031
-259.180	569.731	0.099	0.241
-258.165	3.594	-0.170	0.123
-257.151	312.341	-0.070	-0.132
-256.136	-167.263	-0.282	-0.011
-255.122	-200.000	-0.043	-0.199
-254.107	-188.737	-0.215	-0.003
-253.092	212.548	-0.221	-0.347
-252.078	413.280	0.118	-0.251
-251.063	310.462	0.129	0.242
-250.049	-115.798	-0.243	-0.045
-249.034	-44.574	0.271	-0.135
-248.019	68.149	-0.194	0.198
-247.005	-94.287	0.118	-0.032
-245.990	151.396	0.011	0.015
-244.976	-87.362	0.276	-0.083
-243.961	225.577	0.151	-0.244
-242.946	800.000	0.118	0.371
-241.932	-187.504	-0.209	-0.003
-240.917	-96.009	0.181	0.048
-239.903	-161.157	-0.359	-0.019
-238.888	-127.104	-0.110	-0.016
-237.873	57.004	0.236	0.229
-236.859	-135.220	0.236	0.028
-235.844	-121.041	0.248	0.042
-234.830	115.717	-0.087	-0.106
-233.815	126.949	-0.091	-0.115
-232.800	-178.642	0.205	0.005
-231.786	800.000	0.029	-0.101
-230.771	800.000	-0.057	0.167
-229.757	800.000	0.120	0.391
-228.742	64.147	0.101	0.101
-227.727	380.003	-0.129	-0.264
-226.713	25.688	0.321	-0.266
-225.698	695.814	0.079	0.208
-224.684	-100.982	-0.237	-0.058
-223.669	49.380	0.037	0.034
-222.655	-114.599	-0.197	0.038
-221.640	20.121	-0.137	0.110
-220.625	-122.935	0.085	-0.014
-219.611	-14.889	-0.311	0.199
-218.596	-54.689	-0.091	-0.041
-217.582	800.000	0.064	-0.239
-216.567	168.583	-0.061	-0.087
-215.552	292.516	-0.138	0.250
-214.538	-200.000	0.035	-0.207
-213.523	81.189	0.189	-0.203
-212.509	608.603	0.069	-0.171
-211.494	220.834	0.155	-0.248
-210.479	-9.788	0.256	0.169
-209.465	-80.715	-0.370	-0.123
-208.450	214.165	0.104	0.165
-207.436	-3.185	-0.139	-0.097
-206.421	800.000	-0.035	0.149
-205.406	-139.577	-0.256	0.027
-204.392	-124.552	0.305	-0.047
-203.377	-200.000	0.033	-0.236
-202.363	109.929	-0.194	-0.232
-201.348	-200.000	-0.008	0.098
-200.333	605.204	-0.084	0.209
-199.319	253.705	-0.110	-0.188
-198.304	621.056	0.124	-0.311
-197.290	-58.945	0.191	-0.082
-196.275	27.378	-0.121	-0.101
-195.260	-51.061	-0.066	0.031
-194.246	138.409	0.088	-0.115
-193.231	-200.000	-0.019	-0.284
-192.217	-46.867	0.352	0.171
-191.202	493.677	-0.038	-0.086
-190.187	51.718	-0.161	0.152
-189.173	-200.000	0.017	-0.272
-188.158	-27.812	0.272	0.157
-187.144	-200.000	0.030	0.153
-186.129	-154.771	0.148	0.010
-185.114	-101.876	0.143	0.034
-184.100	615.423	0.027	0.067
-183.085	-56.178	0.173	0.077
-182.071	113.233	0.067	-0.081
-181.056	246.867	-0.097	0.162
-180.042	-38.300	-0.037	0.019
-179.027	-147.378	0.173	0.015
-178.012	4.298	0.114	-0.083
-176.998	-200.000	-0.031	-0.200
-175.983	-49.753	0.223	0.105
-174.969	-26.733	-0.049	0.028
-173.954	237.565	0.130	0.214
-172.939	-166.195	0.163	0.007
-171.925	23.843	-0.218	-0.178
-170.910	55.418	-0.112	0.108
-169.896	-89.832	-0.339	0.099
-168.881	181.850	-0.016	0.024
-167.866	-200.000	-0.022	0.105
-166.852	-43.707	-0.123	-0.062
-165.837	101.658	0.189	0.219
-164.823	426.873	0.224	0.479
-163.808	-200.000	0.015	0.072
-162.793	800.000	-0.054	-0.220
-161.779	-200.000	0.056	0.332
-160.764	-200.000	-0.014	0.088
-159.750	108.246	0.159	-0.188
-158.735	390.263	0.117	0.241
-157.720	-97.715	-0.166	-0.043
-156.706	-200.000	0.034	0.372
-155.691	-200.000	0.002	0.036
-154.677	-64.579	-0.136	-0.055
-153.662	178.964	0.051	0.074
-152.647	800.000	0.038	0.132
-151.633	-118.073	0.227	0.040
-150.618	94.835	0.176	0.199
-149.604	-200.000	-0.004	0.122
-148.589	-118.697	-0.229	-0.040
-147.574	-200.000	0.033	0.338
-146.560	-99.602	-0.070	0.018
-145.545	-149.085	-0.380	-0.030
-144.531	468.349	-0.070	0.156
-143.516	155.457	-0.139	-0.190
-142.502	-200.000	-0.049	0.252
-141.487	800.000	-0.046	-0.136
-140.472	156.390	0.026	-0.035
-139.458	121.455	-0.095	0.117
-138.443	-80.853	0.145	-0.048
-137.429	-200.000	-0.036	0.196
-136.414	184.820	0.189	-0.277
-135.399	315.203	0.065	0.121
-134.385	-73.582	0.116	0.042
-133.370	-69.318	0.592	0.226
-132.356	276.257	0.040	-0.071
-131.341	-200.000	-0.023	0.267
-130.326	-88.485	0.492	0.146
-129.312	1.423	0.234	0.167
-128.297	-200.000	-0.005	0.115
-127.283	7.248	0.118	0.087
-126.268	169.347	0.267	-0.378
-125.253	62.877	0.136	-0.135
-124.239	-54.466	-0.161	0.072
-123.224	27.468	0.145	-0.121
-122.210	-43.852	0.032	0.016
-121.195	-16.139	0.209	0.132
-120.180	-45.498	-0.223	-0.109
-119.166	-42.064	0.280	-0.142
-118.151	-49.441	-0.130	-0.062
-117.137	-138.548	-0.265	-0.029
-116.122	38.997	0.198	0.175
-115.107	-200.000	-0.025	-0.377
-114.093	273.029	-0.060	-0.105
-113.078	-42.610	0.125	0.063
-112.064	92.675	0.324	0.363
-111.049	-140.715	-0.183	-0.019
-110.034	176.617	-0.037	-0.053
-109.020	-102.907	0.199	0.047
-108.005	-200.000	0.041	-0.380
-106.991	-200.000	0.002	-0.231
-105.976	-153.096	0.272	-0.019
-104.962	-200.000	-0.021	0.170
-103.947	-91.725	0.114	0.032
-102.932	-96.575	0.057	-0.015
-101.918	-134.939	-0.466	-0.056
-100.903	193.676	0.108	0.163
-99.889	-200.000	0.046	0.233
-98.874	113.741	-0.220	0.264
-97.859	-126.952	0.258	-0.038
-96.845	-98.325	-0.122	-0.031
-95.830	-113.132	-0.426	0.083
-94.816	-38.782	-0.253	0.132
-93.801	800.000	0.025	-0.092
-92.786	49.246	-0.114	-0.106
-91.772	619.332	-0.040	-0.099
-90.757	38.331	-0.088	-0.078
-89.743	213.450	0.176	0.275
-88.728	541.244	0.018	0.043
-87.713	101.136	-0.061	-0.070
-86.699	-200.000	-0.018	-0.350
-85.684	-74.252	-0.158	-0.056
-84.670	800.000	-0.053	-0.197
-83.655	800.000	0.094	0.259
-82.640	-39.603	0.278	0.144
-81.626	-200.000	0.061	-0.357
-80.611	-138.867	-0.152	-0.016
-79.597	-200.000	0.038	0.187
-78.582	-200.000	-0.012	-0.149
-77.567	-45.478	-0.030	0.015
-76.553	100.810	0.224	-0.258
-75.538	32.032	-0.040	-0.034
-74.524	800.000	0.127	0.349
-73.509	-153.205	-0.251	0.017
-72.494	-200.000	-0.002	-0.110
-71.480	-200.000	-0.036	0.427
-70.465	-110.490	-0.279	-0.057
-69.451	800.000	-0.050	-0.177
-68.436	-68.607	0.139	-0.053
-67.422	32.347	-0.230	-0.197
-66.407	-45.269	0.185	-0.091
-65.392	699.287	0.154	0.401
-64.378	800.000	0.075	0.217
-63.363	357.880	0.189	0.372
-62.349	89.872	-0.188	-0.207
-61.334	96.627	-0.736	-0.834
-60.319	166.532	0.355	0.498
-59.305	420.388	-0.577	-1.223
-58.290	305.886	0.507	0.933
-57.276	717.272	0.684	1.796
-56.261	-200.000	96.970	605.635
-55.246	629.510	1380.915	3454.922
-54.232	193.063	2568.988	3841.615
-53.217	109.966	2302.777	2733.551
-52.203	38.479	2064.538	1820.721
-51.188	33.476	1979.447	1700.835
-50.173	31.892	1961.521	1671.261
-49.159	47.200	2011.765	1852.561
-48.144	48.444	2029.832	1880.348
-47.130	34.075	1991.289	1716.152
-46.115	31.685	1981.270	1685.961
-45.100	31.597	1978.109	1682.416
-44.086	31.517	1975.648	1679.533
-43.071	31.472	1973.136	1676.925
-42.057	31.426	1971.287	1674.879
-41.042	31.518	1969.351	1673.992
-40.027	31.473	1967.742	1672.153
-39.013	31.557	1965.037	1670.544
-37.998	31.566	1963.943	1669.620
-36.984	31.651	1961.804	1668.494
-35.969	31.562	1959.844	1665.968
-34.954	31.674	1957.853	1665.210
-33.940	31.591	1956.748	1663.464
-32.925	31.742	1954.681	1662.977
-31.911	31.683	1953.191	1661.127
-30.896	31.716	1951.205	1659.664
-29.881	31.657	1950.324	1658.324
-28.867	31.701	1948.658	1657.228
-27.852	31.746	1946.950	1656.112
-26.838	31.650	1944.853	1653.414
-25.823	31.710	1942.836	1652.166
-24.809	31.686	1941.288	1650.573
-23.794	31.657	1939.454	1648.693
-22.779	31.725	1937.304	1647.392
-21.765	31.658	1936.079	1645.699
-20.750	31.644	1934.167	1643.881
-19.736	31.634	1932.783	1642.559
-18.721	31.775	1930.722	1641.977
-17.706	31.699	1929.918	1640.557
-16.692	31.636	1928.727	1638.933
-15.677	31.693	1926.134	1637.161
-14.663	31.678	1925.365	1636.308
-13.648	31.764	1923.651	1635.537
-12.633	31.752	1922.328	1634.245
-11.619	31.666	1921.705	1632.903
-10.604	31.702	1920.139	1631.823
-9.590	31.733	1918.442	1630.585
-8.575	31.668	1917.273	1628.961
-7.560	31.790	1915.734	1628.648
-6.546	31.585	1915.267	1626.406
-5.531	31.729	1913.455	1626.048
-4.517	31.691	1912.259	1624.644
-3.502	31.749	1910.908	1623.929
-2.487	31.636	1910.176	1622.265
-1.473	31.670	1908.842	1621.358
-0.458	31.753	1904.489	1618.313
0.556	30.755	1884.302	1590.104
1.571	26.462	1865.490	1537.688
2.586	22.594	1887.401	1522.275
3.600	21.547	1923.464	1542.010
4.615	21.032	1917.893	1532.878
5.629	16.327	1817.723	1413.404
6.644	8.404	1702.275	1261.188
7.659	4.814	1667.257	1207.337
8.673	4.642	1664.035	1203.570
9.688	4.494	1663.051	1201.606
10.702	4.571	1661.436	1200.925
11.717	4.493	1658.499	1198.099
12.731	4.909	1657.449	1200.436
13.746	10.086	1669.628	1249.240
14.761	17.007	1685.075	1314.490
15.775	19.182	1687.576	1333.180
16.790	18.469	1683.946	1324.687
17.804	17.397	1680.256	1313.393
18.819	16.360	1677.591	1303.200
19.834	15.801	1675.140	1296.872
20.848	15.437	1673.613	1292.770
21.863	15.337	1671.950	1290.604
22.877	14.924	1671.353	1286.848
23.892	14.709	1669.623	1283.750
24.907	14.701	1668.190	1282.470
25.921	14.734	1667.226	1281.874
26.936	14.687	1665.906	1280.386
27.950	14.735	1665.210	1280.102
28.965	14.666	1665.078	1279.356
29.980	14.746	1663.533	1278.676
30.994	14.888	1662.828	1279.107
32.009	14.963	1661.852	1278.809
33.023	15.066	1660.743	1278.633
34.038	15.035	1659.919	1277.651
35.053	14.992	1658.601	1276.195
36.067	14.930	1657.672	1274.893
37.082	14.922	1656.651	1273.935
38.096	14.836	1654.978	1271.884
39.111	14.851	1654.459	1271.486
40.126	14.992	1653.563	1271.756
41.140	14.894	1652.912	1270.393
42.155	14.876	1651.068	1268.727
43.169	14.587	1650.244	1265.789
44.184	14.610	1648.554	1264.561
45.199	14.644	1647.852	1264.162
46.213	14.650	1646.630	1263.160
47.228	14.589	1645.690	1261.870
48.242	14.770	1644.815	1262.454
49.257	14.775	1643.857	1261.642
50.271	14.802	1642.038	1260.337
51.286	14.826	1640.802	1259.462
52.301	14.829	1639.605	1258.454
53.315	14.788	1638.372	1257.088
54.330	14.799	1636.959	1255.976
55.344	14.665	1635.200	1253.509
56.359	14.711	1633.378	1252.344
57.374	14.669	1632.792	1251.467
58.388	14.736	1631.673	1251.000
59.403	14.681	1630.133	1249.303
60.417	14.535	1628.934	1247.177
61.432	14.578	1627.526	1246.312
62.447	14.569	1626.636	1245.451
63.461	14.493	1625.570	1243.959
64.476	14.469	1624.491	1242.842
65.490	14.449	1623.528	1241.845
66.505	14.518	1621.957	1241.047
67.520	14.499	1621.262	1240.271
68.534	14.527	1620.029	1239.421
69.549	14.522	1619.263	1238.693
70.563	14.552	1617.540	1237.487
71.578	14.492	1616.942	1236.474
72.593	14.571	1615.602	1235.922
73.607	14.417	1614.305	1233.681
74.622	14.388	1612.916	1232.300
75.636	14.336	1612.476	1231.469
76.651	14.404	1611.821	1231.360
77.666	14.449	1610.512	1230.587
78.680	14.390	1609.370	1229.169
79.695	14.472	1608.904	1229.309
80.709	14.457	1608.021	1228.413
81.724	14.496	1607.439	1228.147
82.739	14.503	1606.906	1227.680
83.753	14.653	1605.510	1227.613
84.768	14.739	1604.663	1227.489
85.782	14.802	1604.104	1227.414
86.797	14.868	1603.521	1227.347
87.812	15.023	1601.963	1227.182
88.826	14.886	1600.714	1225.107
89.841	14.740	1599.999	1223.387
90.855	14.726	1599.203	1222.569
91.870	14.772	1597.632	1221.592
92.884	14.856	1596.815	1221.477
93.899	14.887	1595.655	1220.704
94.914	14.873	1594.339	1219.488
95.928	14.938	1593.269	1219.032
96.943	15.052	1591.737	1218.584
97.957	14.945	1590.549	1216.792
98.972	14.877	1589.015	1215.016
99.987	14.855	1587.885	1213.886
101.001	14.918	1585.750	1212.603
102.016	14.805	1584.394	1210.636
103.030	14.849	1582.577	1209.459
104.045	14.862	1581.846	1208.887
105.060	14.916	1580.380	1208.049
106.074	14.802	1579.282	1206.284
107.089	14.750	1577.655	1204.561
108.103	14.658	1575.972	1202.503
109.118	14.526	1574.477	1200.309
110.133	14.412	1573.487	1198.624
111.147	14.492	1572.043	1197.992
112.162	14.566	1570.678	1197.379
113.176	14.498	1569.555	1195.930
114.191	14.504	1568.277	1194.895
115.206	14.715	1566.541	1194.977
116.220	14.672	1565.187	1193.531
117.235	14.651	1564.245	1192.558
118.249	14.641	1562.833	1191.299
119.264	14.641	1561.443	1190.139
120.279	14.638	1559.647	1188.639
121.293	14.557	1558.226	1186.877
122.308	14.542	1557.222	1185.902
123.322	14.551	1555.682	1184.689
124.337	14.436	1554.140	1182.590
125.352	14.390	1553.163	1181.419
126.366	14.484	1551.757	1180.909
127.381	14.499	1550.629	1180.053
128.395	14.528	1549.911	1179.605
129.410	14.500	1548.453	1178.194
130.424	14.448	1547.295	1176.843
131.439	14.631	1545.571	1176.718
132.454	14.566	1544.020	1174.974
133.468	14.679	1542.681	1174.646
134.483	14.615	1541.353	1173.083
135.497	14.611	1539.997	1171.917
136.512	14.667	1538.920	1171.389
137.527	14.709	1537.355	1170.390
138.541	14.785	1536.046	1169.820
139.556	14.712	1534.916	1168.342
140.570	14.719	1533.523	1167.230
141.585	14.826	1532.040	1166.745
142.600	14.859	1531.061	1166.125
143.614	14.890	1530.528	1165.833
144.629	15.021	1528.415	1165.031
145.643	14.984	1527.425	1163.917
146.658	15.089	1525.933	1163.409
147.673	14.978	1524.795	1161.664
148.687	14.883	1523.459	1159.884
149.702	14.903	1521.768	1158.635
150.716	14.843	1519.991	1156.765
151.731	14.830	1519.036	1155.848
152.746	14.748	1517.791	1154.232
153.760	14.763	1516.503	1153.253
154.775	14.780	1515.548	1152.541
155.789	14.908	1513.810	1152.000
156.804	14.978	1512.721	1151.551
157.819	14.943	1511.228	1150.067
158.833	14.973	1510.291	1149.465
159.848	15.072	1509.589	1149.508
160.862	15.140	1507.879	1148.567
161.877	15.159	1507.080	1147.990
162.892	15.088	1505.469	1146.170
163.906	14.945	1504.427	1144.301
164.921	14.818	1503.322	1142.488
165.935	14.945	1501.965	1142.228
166.950	14.904	1501.249	1141.299
167.964	15.041	1499.798	1141.028
168.979	15.019	1498.983	1140.162
169.994	14.932	1498.256	1138.914
171.008	14.976	1497.063	1138.203
172.023	14.982	1496.264	1137.540
173.037	15.069	1495.014	1137.075
174.052	15.012	1494.211	1135.982
175.067	15.061	1493.759	1135.867
176.081	15.074	1491.935	1134.467
177.096	14.995	1490.782	1132.953
178.110	14.943	1489.314	1131.387
179.125	15.025	1487.837	1130.723
180.140	15.054	1486.990	1130.170
181.154	15.049	1485.957	1129.251
182.169	15.064	1485.447	1128.864
183.183	15.149	1483.581	1127.922
184.198	15.240	1482.513	1127.620
185.213	15.202	1481.936	1126.828
186.227	15.161	1480.848	1125.622
187.242	15.336	1479.306	1125.525
188.256	15.282	1478.090	1124.142
189.271	15.408	1477.289	1124.274
190.286	15.447	1475.906	1123.386
191.300	15.357	1474.840	1121.874
192.315	15.165	1473.642	1119.578
193.329	15.020	1472.312	1117.501
194.344	14.936	1471.460	1116.199
195.359	15.034	1469.944	1115.598
196.373	15.106	1469.102	1115.343
197.388	15.257	1468.140	1115.515
198.402	15.257	1467.385	1114.843
199.417	15.259	1466.415	1114.025
200.432	15.502	1465.159	1114.583
201.446	15.597	1464.235	1114.413
202.461	15.463	1463.907	1113.174
203.475	15.546	1462.579	1112.620
204.490	15.646	1461.196	1112.126
205.504	15.626	1460.035	1111.011
206.519	15.516	1458.930	1109.350
207.534	15.380	1457.937	1107.594
208.548	15.404	1456.907	1106.878
209.563	15.441	1455.437	1105.903
210.577	15.387	1454.889	1105.032
211.592	15.337	1454.292	1104.154
212.607	15.550	1452.956	1104.442
213.621	15.577	1452.560	1104.221
214.636	15.720	1451.640	1104.361
215.650	15.578	1450.460	1102.440
216.665	15.586	1449.275	1101.492
217.680	15.679	1448.637	1101.519
218.694	15.766	1448.012	1101.512
219.709	15.828	1446.933	1101.004
220.723	15.712	1446.145	1099.550
221.738	15.698	1445.158	1098.609
222.753	15.785	1443.870	1098.102
223.767	15.680	1443.436	1096.987
224.782	15.791	1442.253	1096.713
225.796	15.805	1441.474	1096.116
226.811	15.836	1440.590	1095.549
227.826	15.866	1440.004	1095.203
228.840	15.780	1438.791	1093.622
229.855	15.798	1437.675	1092.794
230.869	15.697	1437.230	1091.702
231.884	15.766	1435.990	1091.111
232.899	15.788	1434.909	1090.340
233.913	15.728	1433.575	1088.842
234.928	15.796	1432.125	1088.084
235.942	15.745	1431.090	1086.869
236.957	15.747	1429.936	1085.907
237.972	15.675	1428.994	1084.635
238.986	15.699	1428.006	1083.943
240.001	15.695	1427.043	1083.091
241.015	15.860	1425.696	1083.033
242.030	15.751	1424.928	1081.652
243.045	15.833	1423.754	1081.190
244.059	15.866	1423.272	1080.946
245.074	15.914	1422.144	1080.297
246.088	15.899	1421.707	1079.778
247.103	16.002	1421.080	1079.861
248.117	15.947	1420.346	1078.860
249.132	15.949	1419.802	1078.363
250.147	16.066	1419.013	1078.415
251.161	16.226	1417.774	1078.399
252.176	16.395	1417.452	1079.144
253.190	16.345	1416.567	1078.050
254.205	16.310	1416.204	1077.457
255.220	16.431	1415.194	1077.362
256.234	16.451	1414.234	1076.667
257.249	16.465	1413.461	1076.072
258.263	16.438	1412.660	1075.197
259.278	16.429	1411.764	1074.359
260.293	16.391	1410.515	1073.071
261.307	16.398	1409.806	1072.481
262.322	16.473	1409.399	1072.553
263.336	16.546	1408.519	1072.250
264.351	16.582	1407.207	1071.388
265.366	16.582	1406.464	1070.729
266.380	16.678	1405.658	1070.622
267.395	16.650	1404.406	1069.401
268.409	16.684	1403.591	1068.900
269.424	16.666	1402.556	1067.907
270.439	16.520	1401.662	1066.211
271.453	16.583	1400.529	1065.651
272.468	16.516	1399.697	1064.498
273.482	16.510	1398.893	1063.757
274.497	16.481	1398.118	1062.890
275.512	16.566	1397.062	1062.530
276.526	16.582	1396.252	1061.915
277.541	16.513	1395.318	1060.683
278.555	16.460	1394.917	1059.952
279.570	16.651	1393.631	1060.076
280.585	16.609	1392.902	1059.164
281.599	16.754	1392.091	1059.358
282.614	16.725	1391.228	1058.426
283.628	16.677	1390.077	1057.158
284.643	16.708	1389.139	1056.548
285.657	16.742	1387.643	1055.527
286.672	16.635	1387.064	1054.329
287.687	16.721	1385.969	1053.937
288.701	16.710	1384.994	1053.031
289.716	16.624	1384.662	1052.154
290.730	16.723	1383.587	1051.856
291.745	16.730	1382.446	1050.942
292.760	16.773	1381.405	1050.323
293.774	16.813	1380.777	1050.003
294.789	16.860	1380.004	1049.611
295.803	16.790	1379.400	1048.623
296.818	16.889	1378.595	1048.532
297.833	16.837	1377.151	1047.018
298.847	16.844	1375.999	1046.093
299.862	16.819	1374.975	1045.073
300.876	16.892	1374.399	1044.990
301.891	16.906	1373.013	1043.927
302.906	16.916	1372.534	1043.536
303.920	16.978	1372.185	1043.559
304.935	17.039	1371.401	1043.248
305.949	16.988	1370.458	1042.119
306.964	17.034	1370.020	1041.980
307.979	17.185	1368.661	1041.779
308.993	17.181	1367.737	1040.961
310.008	17.087	1366.943	1039.687
311.022	17.113	1365.925	1038.978
312.037	17.294	1364.397	1038.835
313.052	17.142	1364.032	1037.532
314.066	17.043	1363.117	1036.139
315.081	17.059	1361.969	1035.276
316.095	17.053	1360.800	1034.255
317.110	17.013	1359.874	1033.219
318.125	16.975	1358.460	1031.820
319.139	17.071	1357.793	1031.810
320.154	17.037	1356.751	1030.717
321.168	17.099	1355.829	1030.304
322.183	16.975	1355.336	1029.083
323.197	17.012	1353.964	1028.179
324.212	17.140	1352.975	1028.107
325.227	17.133	1352.634	1027.718
326.241	17.164	1351.180	1026.706
327.256	17.172	1350.712	1026.310
328.270	17.204	1349.575	1025.549
329.285	17.194	1349.013	1024.973
330.300	17.125	1348.173	1023.828
331.314	17.156	1347.107	1023.112
332.329	17.182	1345.994	1022.336
333.343	17.189	1344.945	1021.486
334.358	17.172	1344.521	1020.973
335.373	17.194	1343.792	1020.462
336.387	17.333	1342.869	1020.505
337.402	17.242	1342.466	1019.560
338.416	17.455	1341.275	1019.846
339.431	17.376	1341.014	1019.083
340.446	17.474	1340.127	1018.907
341.460	17.507	1339.264	1018.358
342.475	17.568	1338.328	1017.916
343.489	17.577	1337.620	1017.345
344.504	17.691	1336.435	1017.034
345.519	17.587	1336.068	1016.044
346.533	17.717	1334.816	1015.773
347.548	17.646	1334.092	1014.714
348.562	17.735	1333.508	1014.710
349.577	17.722	1332.370	1013.676
350.592	17.754	1331.716	1013.277
351.606	17.606	1330.496	1011.383
352.621	17.620	1329.371	1010.517
353.635	17.534	1328.420	1009.200
354.650	17.585	1327.385	1008.626
355.665	17.522	1326.469	1007.464
356.679	17.517	1325.778	1006.821
357.694	17.662	1324.186	1006.383
358.708	17.691	1323.370	1005.843
359.723	17.616	1322.730	1004.823
360.738	17.822	1321.432	1004.963
361.752	17.759	1320.426	1003.737
362.767	17.756	1319.322	1002.790
363.781	17.790	1318.263	1002.097
364.796	17.771	1317.935	1001.649
365.810	17.805	1317.584	1001.495
366.825	17.804	1316.883	1000.869
367.840	17.963	1315.752	1000.849
368.854	18.019	1315.466	1000.869
369.869	18.059	1314.789	1000.500
370.883	18.013	1314.035	999.568
371.898	17.992	1313.173	998.701
372.913	18.001	1312.081	997.840
373.927	17.972	1311.336	997.011
374.942	18.006	1310.558	996.533
375.956	18.010	1309.915	995.981
376.971	18.066	1309.030	995.544
377.986	17.967	1308.381	994.388
379.000	18.028	1307.339	993.859
380.015	18.073	1306.750	993.584
381.029	18.185	1305.844	993.460
382.044	18.185	1305.533	993.132
383.059	18.331	1304.286	992.944
384.073	18.267	1303.547	991.924
385.088	18.242	1303.292	991.497
386.102	18.293	1302.760	991.300
387.117	18.416	1301.679	991.101
388.132	18.257	1301.001	989.577
389.146	18.149	1299.841	987.982
390.161	18.237	1298.885	987.680
391.175	18.264	1297.976	987.058
392.190	18.161	1297.709	986.174
393.205	18.159	1296.978	985.517
394.219	18.235	1295.706	984.900
395.234	18.407	1294.377	984.791
396.248	18.294	1293.252	983.201
397.263	18.264	1291.989	981.981
398.278	18.283	1290.474	980.854
399.292	18.281	1289.435	979.965
400.307	18.222	1288.465	978.803
401.321	18.235	1287.480	978.044
402.336	18.224	1286.395	977.071
403.350	18.182	1285.751	976.255
404.365	18.182	1284.826	975.466
405.380	18.224	1283.720	974.775
406.394	18.307	1282.633	974.336
407.409	18.293	1282.341	973.949
408.423	18.406	1281.566	973.921
409.438	18.444	1281.292	973.839
410.453	18.517	1280.104	973.267
411.467	18.649	1279.035	973.114
412.482	18.645	1278.802	972.831
413.496	18.534	1278.536	971.910
414.511	18.617	1278.096	971.959
415.526	18.760	1276.785	971.685
416.540	18.696	1276.031	970.663
417.555	18.855	1275.431	971.025
418.569	18.811	1274.811	970.213
419.584	18.692	1274.709	969.378
420.599	18.743	1273.892	968.959
421.613	140.238	1431.307	1794.137
422.628	134.887	1454.225	1794.234
