DTS Sentinel unit serial number:	SN413079Multiplexer serial number:	ORYXHardware model number:	OX4-SRSoftware version number:	ORYX F/W v4.00 Oryx Data Collector v3.7.2.0data status	okinstallation	princeton_trtdifferential loss correction	single-endedforward channel	channel 4reverse channel	N/Adate	2019/09/15time	07:49:34forward acquisition time	60.00reverse acquisition time	0.00gamma	496.2192k internal	0.2311k external	0.2311temperature offset calibration	1.0035default loss term (dB/km)	0.3790temperature slope calibration	1.0000multiplexer offset coefficient	1.0000multiplexer slope coefficient	1.0000fibre end	0.00T internal ref (°C)	30.66T ext. ref 1 (°C)	4.98T ext. ref 2 (°C)	25.83length (m)	temperature (°C)	Stokes	anti-Stokes-747.200	345.714	0.132	-0.263
-746.185	800.000	0.095	-0.312
-745.171	-31.866	0.197	-0.112
-744.156	153.312	-0.086	0.119
-743.142	86.288	0.083	-0.093
-742.127	-62.365	-0.168	0.071
-741.112	408.918	-0.115	-0.248
-740.098	-200.000	-0.007	0.153
-739.083	800.000	-0.054	-0.159
-738.069	22.138	-0.225	0.186
-737.054	-176.158	0.086	-0.002
-736.039	39.707	0.124	0.113
-735.025	359.081	-0.082	-0.167
-734.010	3.671	-0.203	-0.150
-732.996	-164.694	0.283	0.013
-731.981	364.196	-0.044	0.090
-730.966	-56.881	-0.173	0.078
-729.952	-104.208	0.512	-0.121
-728.937	270.363	-0.102	-0.183
-727.923	64.593	-0.192	0.196
-726.908	224.192	0.075	0.123
-725.894	-200.000	-0.027	-0.281
-724.879	164.221	0.120	0.171
-723.864	-200.000	-0.003	-0.373
-722.850	332.604	0.066	-0.129
-721.835	-137.622	-0.328	-0.037
-720.821	47.215	0.166	0.156
-719.806	-120.538	-0.209	-0.036
-718.791	-98.239	0.131	-0.034
-717.777	199.218	0.074	-0.114
-716.762	22.352	0.089	-0.073
-715.748	-200.000	0.023	-0.183
-714.733	-89.036	-0.290	-0.087
-713.718	93.529	-0.254	0.292
-712.704	-200.000	-0.039	0.309
-711.689	-52.947	-0.323	-0.151
-710.675	-105.958	-0.135	0.031
-709.660	259.597	0.053	-0.093
-708.645	800.000	0.087	-0.294
-707.631	-200.000	0.080	-0.414
-706.616	165.523	0.126	-0.180
-705.602	-118.259	0.386	0.070
-704.587	-102.619	-0.355	-0.086
-703.572	73.245	0.241	0.255
-702.558	-148.985	-0.206	-0.017
-701.543	35.136	0.153	-0.136
-700.529	-94.033	-0.288	-0.080
-699.514	74.528	0.129	-0.138
-698.499	232.774	0.065	0.108
-697.485	-200.000	-0.001	-0.125
-696.470	30.200	0.099	-0.086
-695.456	74.287	-0.274	-0.292
-694.441	55.216	0.265	-0.259
-693.426	-97.628	0.388	0.102
-692.412	-200.000	-0.057	-0.287
-691.397	427.867	-0.150	0.328
-690.383	-21.883	0.363	0.224
-689.368	-139.064	-0.067	0.007
-688.354	231.253	0.095	-0.157
-687.339	56.057	0.165	-0.163
-686.324	-200.000	0.017	0.226
-685.310	-53.040	-0.246	0.115
-684.295	119.138	0.165	-0.207
-683.281	-58.689	0.387	0.170
-682.266	-148.440	0.179	-0.015
-681.251	-45.436	-0.181	0.091
-680.237	-10.414	0.191	-0.128
-679.222	-82.665	-0.268	-0.088
-678.208	-141.241	0.287	-0.030
-677.193	-23.016	0.300	-0.183
-676.178	-180.558	-0.429	-0.009
-675.164	642.909	0.126	-0.326
-674.149	-149.049	-0.393	0.032
-673.135	-87.700	0.080	-0.025
-672.120	-66.415	0.276	-0.111
-671.105	-129.255	-0.365	0.051
-670.091	-200.000	-0.003	0.077
-669.076	20.021	0.232	0.189
-668.062	-81.348	-0.271	-0.090
-667.047	276.156	0.040	-0.071
-666.032	-59.906	-0.141	-0.061
-665.018	365.245	0.122	-0.249
-664.003	800.000	-0.105	0.311
-662.989	326.177	-0.064	0.123
-661.974	-138.932	0.467	-0.051
-660.959	37.553	-0.115	0.103
-659.945	34.768	-0.195	0.173
-658.930	447.419	-0.134	-0.299
-657.916	-200.000	-0.002	-0.207
-656.901	-33.815	0.157	0.088
-655.886	-117.065	0.281	-0.052
-654.872	47.840	0.013	-0.012
-653.857	247.946	-0.119	0.203
-652.843	800.000	-0.006	0.024
-651.828	341.915	-0.081	0.161
-650.814	-12.615	0.132	0.087
-649.799	199.722	-0.012	0.018
-648.784	13.509	-0.129	-0.101
-647.770	-200.000	-0.035	0.244
-646.755	55.907	0.110	0.108
-645.741	-200.000	0.056	-0.357
-644.726	-17.983	0.051	-0.032
-643.711	13.750	0.348	-0.274
-642.697	-59.747	0.229	0.099
-641.682	-200.000	-0.002	-0.378
-640.668	240.767	0.181	0.305
-639.653	-200.000	0.003	0.085
-638.638	-184.073	-0.287	-0.005
-637.624	71.478	-0.117	0.123
-636.609	-200.000	0.375	-0.001
-635.595	-114.306	0.372	0.072
-634.580	-200.000	-0.035	0.246
-633.565	390.046	-0.122	0.256
-632.551	428.618	-0.076	0.166
-631.536	-200.000	-0.023	0.142
-630.522	-120.283	0.326	-0.056
-629.507	-200.000	0.034	0.154
-628.492	800.000	0.041	0.129
-627.478	191.282	0.073	0.111
-626.463	-47.459	0.154	-0.076
-625.449	84.362	0.073	-0.081
-624.434	-96.691	-0.160	-0.043
-623.419	800.000	0.033	-0.120
-622.405	188.996	-0.109	0.164
-621.390	274.940	-0.103	0.185
-620.376	388.487	-0.160	-0.335
-619.361	-21.877	-0.144	0.089
-618.346	-156.400	0.293	-0.018
-617.332	800.000	0.044	-0.185
-616.317	-200.000	-0.049	0.330
-615.303	-176.665	-0.306	-0.008
-614.288	29.152	0.143	-0.123
-613.273	-200.000	0.087	0.407
-612.259	-200.000	0.028	0.269
-611.244	-200.000	-0.069	0.354
-610.230	-200.000	0.003	0.024
-609.215	357.569	0.129	-0.261
-608.201	-126.608	0.285	-0.043
-607.186	40.038	0.282	0.256
-606.171	-97.249	-0.070	-0.018
-605.157	435.381	-0.155	0.340
-604.142	-99.040	0.305	0.078
-603.128	-161.582	-0.216	-0.011
-602.113	455.639	0.026	-0.058
-601.098	680.903	-0.053	-0.140
-600.084	800.000	-0.100	-0.412
-599.069	800.000	0.129	-0.452
-598.055	-72.045	-0.174	0.065
-597.040	-107.017	-0.169	-0.038
-596.025	174.044	-0.094	0.137
-595.011	102.307	0.128	-0.151
-593.996	800.000	-0.064	0.276
-592.982	208.788	0.112	-0.176
-591.967	-200.000	0.023	-0.112
-590.952	580.698	-0.077	0.191
-589.938	-48.292	-0.222	-0.108
-588.923	-200.000	-0.025	0.154
-587.909	-96.665	-0.274	-0.073
-586.894	78.232	0.107	-0.115
-585.879	345.310	0.125	-0.247
-584.865	150.899	-0.075	-0.102
-583.850	-8.025	-0.174	0.119
-582.836	565.580	0.102	0.249
-581.821	-166.302	-0.165	0.007
-580.806	-93.276	-0.127	0.036
-579.792	-32.144	0.334	-0.188
-578.777	-36.437	-0.216	0.117
-577.763	-200.000	0.013	-0.118
-576.748	-121.770	0.173	0.029
-575.733	-2.666	-0.152	-0.107
-574.719	277.743	-0.047	-0.085
-573.704	-142.619	-0.325	-0.032
-572.690	10.336	-0.084	-0.065
-571.675	800.000	0.032	0.096
-570.661	-200.000	-0.006	0.251
-569.646	390.256	0.105	-0.220
-568.631	-54.386	0.095	-0.043
-567.617	23.035	-0.120	0.100
-566.602	33.156	0.110	0.096
-565.588	220.810	-0.146	0.236
-564.573	-50.164	0.114	-0.054
-563.558	682.803	0.111	0.293
-562.544	328.778	-0.096	0.186
-561.529	416.261	0.148	0.319
-560.515	-165.139	0.393	-0.018
-559.500	-113.078	-0.172	-0.034
-558.485	-200.000	-0.006	-0.335
-557.471	-134.245	-0.154	-0.019
-556.456	213.059	0.072	-0.114
-555.442	-105.479	-0.109	-0.025
-554.427	792.920	0.039	0.108
-553.412	-200.000	-0.034	0.286
-552.398	-200.000	-0.015	0.122
-551.383	-89.527	-0.355	-0.105
-550.369	6.906	-0.031	0.023
-549.354	-106.057	-0.029	0.007
-548.339	-200.000	-0.022	0.101
-547.325	-46.906	-0.060	-0.029
-546.310	-200.000	-0.061	0.396
-545.296	-200.000	-0.014	0.168
-544.281	-118.338	-0.454	0.081
-543.266	620.447	0.085	-0.216
-542.252	-177.604	-0.209	0.005
-541.237	-94.621	0.426	-0.117
-540.223	-66.581	-0.140	-0.056
-539.208	-115.006	-0.163	0.031
-538.193	24.051	-0.030	0.025
-537.179	-200.000	-0.007	0.076
-536.164	100.163	0.208	-0.243
-535.150	26.849	0.250	0.211
-534.135	327.744	0.128	0.248
-533.121	-200.000	0.011	-0.259
-532.106	800.000	0.078	0.219
-531.091	-200.000	0.019	-0.152
-530.077	55.122	0.193	0.187
-529.062	-200.000	-0.005	-0.195
-528.048	-19.181	0.076	-0.048
-527.033	-55.727	0.039	-0.017
-526.018	283.573	-0.112	-0.202
-525.004	-97.973	-0.057	0.015
-523.989	156.671	-0.118	-0.164
-522.975	-100.985	0.190	0.047
-521.960	-200.000	-0.023	0.212
-520.945	-200.000	-0.049	-0.221
-519.931	1.558	0.087	-0.063
-518.916	96.598	-0.155	-0.179
-517.902	-85.180	0.089	-0.028
-516.887	581.600	0.113	-0.280
-515.872	739.230	0.149	-0.402
-514.858	800.000	-0.144	0.523
-513.843	184.238	-0.100	0.148
-512.829	221.881	-0.128	-0.207
-511.814	6.727	0.077	0.057
-510.799	71.731	0.262	0.274
-509.785	-200.000	0.024	-0.388
-508.770	-150.953	0.055	0.004
-507.756	800.000	-0.093	-0.295
-506.741	800.000	-0.054	0.188
-505.726	272.144	-0.117	-0.207
-504.712	61.827	-0.174	-0.174
-503.697	140.527	-0.067	0.090
-502.683	-65.102	0.111	-0.045
-501.668	-75.890	-0.075	0.027
-500.653	800.000	-0.025	-0.093
-499.639	-183.049	0.518	-0.009
-498.624	-120.510	-0.186	0.032
-497.610	16.229	0.282	0.224
-496.595	247.926	0.032	-0.055
-495.581	-79.673	-0.180	0.061
-494.566	-14.427	-0.180	0.117
-493.551	273.348	-0.081	0.144
-492.537	-39.448	0.225	-0.119
-491.522	-81.467	-0.090	0.030
-490.508	-200.000	-0.020	0.165
-489.493	-200.000	-0.006	0.077
-488.478	-91.557	-0.240	-0.069
-487.464	-104.261	-0.433	-0.101
-486.449	-73.316	0.367	-0.135
-485.435	-77.952	-0.183	-0.063
-484.420	-187.049	0.211	-0.003
-483.405	-126.928	-0.184	0.027
-482.391	-200.000	-0.004	0.056
-481.376	113.493	0.127	0.154
-480.362	150.317	-0.031	-0.042
-479.347	-108.188	-0.169	0.037
-478.332	-200.000	-0.012	-0.224
-477.318	-30.783	0.191	-0.109
-476.303	-15.328	0.071	0.046
-475.289	407.053	-0.099	0.211
-474.274	565.161	0.015	-0.036
-473.259	-26.716	-0.235	-0.138
-472.245	-68.911	-0.313	0.121
-471.230	13.125	-0.576	-0.448
-470.216	69.387	-0.183	0.190
-469.201	-43.151	0.138	0.070
-468.186	-200.000	-0.021	0.094
-467.172	-200.000	-0.043	-0.191
-466.157	295.363	-0.188	0.345
-465.143	138.519	0.032	-0.042
-464.128	-139.715	-0.122	-0.013
-463.113	-200.000	-0.018	0.099
-462.099	800.000	0.019	-0.069
-461.084	54.551	-0.165	-0.160
-460.070	-200.000	0.014	-0.147
-459.055	-155.443	0.129	-0.008
-458.040	800.000	0.036	0.120
-457.026	-195.526	0.290	-0.002
-456.011	-146.106	0.260	0.023
-454.997	12.990	-0.227	-0.177
-453.982	-92.776	0.035	-0.010
-452.968	-10.394	-0.150	0.100
-451.953	787.655	0.080	-0.221
-450.938	-200.000	0.019	-0.470
-449.924	16.298	0.387	-0.306
-448.909	66.815	-0.098	0.100
-447.895	-188.217	-0.166	0.002
-446.880	-114.485	0.215	0.041
-445.865	-200.000	0.017	-0.102
-444.851	180.066	-0.003	-0.004
-443.836	800.000	-0.034	0.137
-442.822	471.865	0.152	-0.343
-441.807	-121.902	0.112	-0.018
-440.792	-200.000	0.022	0.105
-439.778	-200.000	0.000	-0.183
-438.763	-200.000	0.005	-0.230
-437.749	-200.000	-0.012	0.273
-436.734	106.145	-0.207	-0.246
-435.719	800.000	-0.042	-0.132
-434.705	-200.000	0.017	-0.108
-433.690	-118.858	-0.259	-0.046
-432.676	800.000	0.084	-0.361
-431.661	-142.612	-0.069	-0.007
-430.646	791.975	-0.044	0.122
-429.632	136.341	0.152	0.199
-428.617	40.973	0.088	-0.080
-427.603	-160.491	-0.145	-0.008
-426.588	-37.285	-0.294	0.158
-425.573	-200.000	-0.002	-0.217
-424.559	793.461	0.051	0.142
-423.544	-172.022	-0.302	0.010
-422.530	-30.701	0.036	0.020
-421.515	-118.799	0.209	0.037
-420.500	6.955	0.082	-0.061
-419.486	-154.196	0.134	0.009
-418.471	-200.000	-0.032	0.168
-417.457	-53.289	-0.151	0.069
-416.442	76.237	0.176	-0.187
-415.428	219.112	-0.103	0.165
-414.413	800.000	0.042	0.165
-413.398	-15.578	0.174	0.111
-412.384	800.000	0.053	0.228
-411.369	161.294	-0.163	0.228
-410.355	130.991	0.071	0.092
-409.340	-118.365	-0.344	-0.061
-408.325	220.931	0.055	0.088
-407.311	115.435	0.026	0.032
-406.296	-200.000	0.028	-0.179
-405.282	-200.000	0.064	0.356
-404.267	-98.541	-0.254	0.065
-403.252	-200.000	0.005	-0.145
-402.238	-52.812	-0.076	0.035
-401.223	-200.000	-0.020	-0.150
-400.209	389.758	-0.122	-0.254
-399.194	-131.892	0.196	0.026
-398.179	108.604	0.161	-0.192
-397.165	-143.308	0.092	-0.009
-396.150	-119.364	-0.109	0.019
-395.136	800.000	-0.129	-0.387
-394.121	198.123	-0.084	0.129
-393.106	102.308	0.241	-0.282
-392.092	800.000	0.074	-0.266
-391.077	-103.741	-0.315	-0.074
-390.063	800.000	0.015	-0.057
-389.048	5.221	0.185	0.137
-388.033	18.791	0.129	-0.103
-387.019	-91.710	-0.041	0.012
-386.004	47.873	0.331	0.310
-384.990	157.721	-0.060	0.083
-383.975	73.040	0.073	-0.076
-382.960	159.282	0.099	-0.138
-381.946	181.558	0.155	0.228
-380.931	-97.182	-0.099	0.026
-379.917	-38.612	-0.563	-0.297
-378.902	-200.000	-0.027	0.128
-377.888	-45.237	-0.088	-0.044
-376.873	-85.051	-0.119	0.037
-375.858	-200.000	0.018	0.208
-374.844	202.434	0.193	0.298
-373.829	-122.350	0.197	0.032
-372.815	-38.092	-0.366	0.194
-371.800	-135.365	0.341	0.041
-370.785	-50.444	-0.452	0.213
-369.771	-100.711	0.367	-0.091
-368.756	-179.673	-0.145	0.003
-367.742	-200.000	0.031	0.192
-366.727	628.960	0.121	0.307
-365.712	800.000	0.073	0.257
-364.698	117.612	0.051	0.063
-363.683	800.000	-0.021	-0.074
-362.669	125.287	0.144	-0.182
-361.654	-200.000	-0.009	-0.171
-360.639	94.931	0.149	0.169
-359.625	800.000	0.026	0.091
-358.610	-4.956	0.272	0.187
-357.596	-82.614	0.104	-0.034
-356.581	-200.000	0.006	0.175
-355.566	127.362	0.202	-0.257
-354.552	-124.416	0.368	-0.057
-353.537	-127.505	-0.189	0.028
-352.523	247.642	0.133	0.225
-351.508	-67.808	0.092	-0.036
-350.493	37.053	-0.130	-0.115
-349.479	259.746	0.231	0.398
-348.464	-71.666	0.281	-0.105
-347.450	194.727	0.177	-0.268
-346.435	-85.174	-0.178	0.056
-345.420	-200.000	-0.043	0.208
-344.406	151.459	-0.233	-0.317
-343.391	278.726	-0.042	0.075
-342.377	122.141	-0.228	0.285
-341.362	-122.415	-0.248	0.040
-340.348	800.000	0.073	-0.251
-339.333	800.000	0.087	0.314
-338.318	-91.701	0.225	-0.064
-337.304	14.720	-0.089	-0.070
-336.289	800.000	0.040	-0.126
-335.275	-62.744	0.092	0.038
-334.260	-56.236	-0.176	-0.078
-333.245	145.795	0.100	0.135
-332.231	800.000	0.043	0.130
-331.216	-73.465	0.326	0.119
-330.202	-121.656	0.115	0.019
-329.187	-129.781	0.058	-0.008
-328.172	67.662	0.215	0.220
-327.158	54.195	0.135	-0.129
-326.143	-65.428	-0.232	0.093
-325.129	81.341	-0.242	0.261
-324.114	-106.576	-0.155	0.035
-323.099	164.102	-0.187	-0.263
-322.085	-123.415	0.226	0.036
-321.070	-200.000	0.003	-0.225
-320.056	800.000	-0.111	-0.334
-319.041	-200.000	-0.017	-0.119
-318.026	622.358	0.086	-0.217
-317.012	800.000	0.044	-0.145
-315.997	639.573	0.121	0.307
-314.983	53.786	-0.111	-0.107
-313.968	-57.551	-0.142	-0.062
-312.953	234.126	-0.060	0.098
-311.939	800.000	0.035	-0.124
-310.924	-53.471	-0.120	-0.055
-309.910	146.097	0.088	-0.117
-308.895	124.187	-0.301	0.377
-307.880	-200.000	0.050	-0.257
-306.866	-76.766	-0.145	0.051
-305.851	-200.000	-0.031	-0.210
-304.837	-16.851	0.113	-0.072
-303.822	14.956	-0.190	-0.148
-302.807	255.490	0.182	-0.311
-301.793	800.000	-0.040	-0.160
-300.778	-140.327	-0.193	0.020
-299.764	-126.250	-0.076	0.011
-298.749	212.292	-0.169	0.266
-297.735	295.684	0.070	0.128
-296.720	67.327	-0.251	-0.255
-295.705	133.873	0.096	-0.124
-294.691	-105.637	0.128	-0.029
-293.676	51.713	-0.139	-0.131
-292.662	161.320	-0.058	0.080
-291.647	1.847	-0.251	0.180
-290.632	-200.000	-0.011	-0.157
-289.618	-49.582	-0.200	0.095
-288.603	800.000	0.078	-0.236
-287.589	36.396	0.131	-0.116
-286.574	115.657	0.290	0.354
-285.559	-70.668	0.123	0.046
-284.545	-83.958	0.047	-0.015
-283.530	181.735	-0.108	-0.159
-282.516	171.913	0.076	0.109
-281.501	-200.000	0.022	0.280
-280.486	177.213	0.179	0.260
-279.472	-20.500	0.021	-0.013
-278.457	-108.733	0.158	-0.034
-277.443	-136.899	0.169	0.019
-276.428	300.820	0.099	-0.182
-275.413	-40.678	0.204	-0.105
-274.399	-95.726	-0.215	-0.057
-273.384	800.000	-0.057	0.183
-272.370	14.954	-0.123	-0.096
-271.355	432.602	-0.100	-0.217
-270.340	-50.763	-0.191	0.090
-269.326	-65.669	0.409	-0.163
-268.311	800.000	0.040	0.119
-267.297	0.773	-0.352	0.251
-266.282	604.273	-0.109	0.271
-265.267	-200.000	0.015	-0.145
-264.253	-3.217	0.214	-0.149
-263.238	-10.584	-0.251	-0.166
-262.224	163.443	0.063	-0.088
-261.209	34.038	0.034	0.029
-260.195	-145.726	0.088	0.008
-259.180	-28.370	0.289	-0.166
-258.165	-117.931	0.475	0.085
-257.151	62.291	-0.072	-0.072
-256.136	-200.000	0.040	-0.223
-255.122	-200.000	-0.040	0.320
-254.107	-75.446	-0.355	0.126
-253.092	-0.952	-0.334	-0.236
-252.078	59.338	0.173	0.170
-251.063	511.804	0.088	0.203
-250.049	-84.395	-0.311	0.098
-249.034	49.982	-0.357	-0.335
-248.019	203.544	-0.098	-0.152
-247.005	800.000	-0.120	-0.394
-245.990	296.375	0.110	-0.202
-244.976	170.371	0.125	0.179
-243.961	-200.000	-0.038	0.230
-242.946	61.982	-0.093	-0.092
-241.932	289.657	0.055	-0.100
-240.917	-96.343	-0.286	-0.075
-239.903	-107.005	-0.121	-0.027
-238.888	-50.202	0.327	-0.154
-237.873	-84.611	0.067	-0.021
-236.859	5.530	-0.106	-0.078
-235.844	-92.784	-0.267	-0.074
-234.830	116.504	-0.072	0.088
-233.815	74.698	-0.130	0.136
-232.800	-81.601	-0.173	-0.057
-231.786	-200.000	-0.014	-0.170
-230.771	388.742	0.066	-0.136
-229.757	26.201	0.218	0.181
-228.742	420.934	-0.140	0.298
-227.727	-170.056	-0.165	-0.006
-226.713	66.782	0.139	0.140
-225.698	-42.277	0.302	-0.153
-224.684	271.936	0.054	0.095
-223.669	-10.184	0.309	0.204
-222.655	-8.031	-0.296	0.199
-221.640	-1.264	0.211	-0.149
-220.625	-35.881	-0.209	-0.112
-219.611	159.164	0.108	-0.149
-218.596	449.109	-0.094	-0.206
-217.582	-69.370	-0.038	0.015
-216.567	334.704	-0.079	-0.152
-215.552	800.000	0.020	-0.063
-214.538	328.400	-0.061	-0.117
-213.523	43.872	-0.093	0.084
-212.509	-147.292	0.115	-0.010
-211.494	-77.682	-0.264	0.091
-210.479	34.523	0.157	0.136
-209.465	-200.000	-0.041	-0.198
-208.450	6.857	-0.188	-0.139
-207.436	-200.000	0.014	-0.117
-206.421	-159.116	0.144	-0.008
-205.406	-123.380	-0.325	-0.051
-204.392	176.776	-0.212	-0.306
-203.377	-200.000	-0.037	0.324
-202.363	-7.158	-0.170	-0.115
-201.348	800.000	-0.089	-0.306
-200.333	133.999	0.225	-0.290
-199.319	61.597	0.085	-0.084
-198.304	-94.507	0.235	0.064
-197.290	167.107	-0.037	-0.051
-196.275	6.915	0.219	0.162
-195.260	-200.000	-0.016	0.471
-194.246	148.071	0.208	0.279
-193.231	-17.141	-0.231	0.145
-192.217	800.000	0.118	-0.331
-191.202	-113.741	-0.298	0.058
-190.187	-129.485	-0.189	-0.026
-189.173	-200.000	-0.019	-0.287
-188.158	112.951	0.139	0.168
-187.144	128.303	0.059	-0.074
-186.129	-80.171	0.117	0.039
-185.114	-164.748	0.025	-0.001
-184.100	800.000	-0.135	0.430
-183.085	583.789	0.053	0.129
-182.071	-200.000	-0.016	-0.242
-181.056	-82.999	0.181	-0.058
-180.042	443.759	-0.018	0.039
-179.027	800.000	0.018	0.075
-178.012	-74.798	0.075	0.027
-176.998	-76.096	-0.318	-0.112
-175.983	-166.023	0.502	0.021
-174.969	-127.058	0.288	0.042
-173.954	126.211	0.057	0.071
-172.939	-96.821	0.205	-0.054
-171.925	-95.903	-0.154	0.041
-170.910	-125.027	-0.449	0.069
-169.896	22.441	0.270	0.219
-168.881	-200.000	-0.041	0.202
-167.866	98.885	-0.301	0.345
-166.852	-103.582	-0.087	-0.020
-165.837	-51.443	0.359	-0.166
-164.823	179.085	-0.140	0.204
-163.808	47.101	0.088	0.081
-162.793	54.673	0.187	0.179
-161.779	-140.795	0.237	-0.024
-160.764	-15.744	0.118	0.075
-159.750	187.406	-0.023	-0.034
-158.735	118.493	-0.114	-0.139
-157.720	-65.432	0.111	0.044
-156.706	-158.710	0.207	-0.012
-155.691	164.342	-0.076	0.106
-154.677	178.657	-0.183	-0.266
-153.662	800.000	0.057	-0.203
-152.647	12.368	0.190	0.145
-151.633	-108.844	0.123	0.026
-150.618	-34.032	-0.157	0.086
-149.604	189.097	0.020	0.029
-148.589	43.704	0.156	0.142
-147.574	225.014	-0.102	0.164
-146.560	-151.394	-0.149	-0.011
-145.545	800.000	-0.039	-0.153
-144.531	-17.002	0.033	0.020
-143.516	800.000	0.080	-0.222
-142.502	32.159	-0.170	0.145
-141.487	14.140	-0.214	0.166
-140.472	58.739	0.266	-0.259
-139.458	0.171	0.248	-0.176
-138.443	-94.254	0.454	-0.123
-137.429	800.000	0.092	-0.254
-136.414	-140.396	0.144	0.015
-135.399	-200.000	0.014	-0.148
-134.385	66.477	0.152	0.153
-133.370	-99.248	0.322	-0.081
-132.356	-76.463	0.162	-0.056
-131.341	800.000	-0.020	0.061
-130.326	-31.890	0.360	0.200
-129.312	-200.000	-0.017	0.363
-128.297	-200.000	-0.007	0.093
-127.283	429.070	0.259	0.555
-126.268	74.034	-0.112	-0.116
-125.253	37.707	-0.121	-0.106
-124.239	740.610	-0.046	-0.123
-123.224	-128.027	-0.245	0.035
-122.210	-200.000	0.021	0.253
-121.195	-69.118	0.251	0.096
-120.180	135.377	-0.244	-0.314
-119.166	-178.587	0.203	0.005
-118.151	415.523	-0.183	-0.386
-117.137	153.112	-0.192	-0.261
-116.122	800.000	0.036	0.127
-115.107	-115.803	-0.361	-0.067
-114.093	-150.293	0.100	0.008
-113.078	-24.806	0.311	0.183
-112.064	-29.080	-0.316	0.180
-111.049	-23.315	-0.224	0.133
-110.034	-112.410	0.190	-0.038
-109.020	42.564	0.155	0.140
-108.005	800.000	0.067	-0.221
-106.991	-92.052	0.202	-0.057
-105.976	54.526	0.338	0.322
-104.962	506.906	-0.104	-0.239
-103.947	-200.000	-0.045	-0.266
-102.932	800.000	0.096	-0.391
-101.918	-200.000	0.022	0.146
-100.903	76.726	-0.210	-0.220
-99.889	-45.187	-0.093	0.046
-98.874	656.745	0.122	0.310
-97.859	800.000	0.077	-0.300
-96.845	-200.000	-0.022	-0.163
-95.830	116.951	-0.180	-0.219
-94.816	308.721	0.072	-0.132
-93.801	800.000	0.023	0.089
-92.786	-104.002	0.131	0.030
-91.772	-102.132	0.057	-0.014
-90.757	195.872	0.113	0.170
-89.743	-200.000	-0.015	0.128
-88.728	142.749	-0.041	0.054
-87.713	-51.776	0.100	-0.046
-86.699	91.942	-0.194	0.216
-85.684	251.571	0.109	0.184
-84.670	71.762	0.126	-0.130
-83.655	-5.971	0.408	-0.276
-82.640	800.000	0.036	0.130
-81.626	68.681	-0.168	-0.171
-80.611	-43.871	0.101	-0.051
-79.597	304.472	0.312	0.573
-78.582	-84.507	0.100	0.031
-77.567	-22.361	0.047	0.028
-76.553	-31.787	0.376	-0.208
-75.538	-200.000	0.013	-0.107
-74.524	-77.023	-0.214	0.074
-73.509	-93.109	0.215	-0.059
-72.494	268.268	0.063	0.109
-71.480	236.417	-0.139	0.228
-70.465	20.142	0.210	-0.168
-69.451	800.000	0.028	-0.079
-68.436	351.087	-0.059	-0.116
-67.422	-200.000	-0.035	0.276
-66.407	113.801	-0.062	0.074
-65.392	-200.000	-0.005	-0.156
-64.378	99.152	-0.282	0.322
-63.363	18.801	0.309	0.245
-62.349	-11.055	-0.246	-0.160
-61.334	75.747	-0.852	-0.890
-60.319	168.514	0.458	0.644
-59.305	302.726	-0.427	-0.782
-58.290	213.698	0.681	1.064
-57.276	245.753	0.878	1.461
-56.261	-200.000	102.440	591.546
-55.246	547.884	1430.629	3384.974
-54.232	183.479	2630.047	3841.550
-53.217	106.087	2316.368	2710.326
-52.203	37.236	2069.029	1810.961
-51.188	32.345	1982.952	1691.694
-50.173	30.826	1964.683	1662.493
-49.159	46.295	2018.564	1848.517
-48.144	47.150	2036.865	1872.951
-47.130	32.976	1996.001	1708.271
-46.115	30.683	1984.812	1677.972
-45.100	30.625	1982.216	1675.189
-44.086	30.568	1979.882	1672.637
-43.071	30.550	1977.308	1670.232
-42.057	30.524	1975.626	1668.513
-41.042	30.514	1973.552	1666.604
-40.027	30.561	1971.395	1665.134
-39.013	30.609	1968.939	1663.431
-37.998	30.598	1967.705	1662.223
-36.984	30.628	1965.493	1660.556
-35.969	30.601	1963.398	1658.475
-34.954	30.674	1961.820	1657.727
-33.940	30.621	1960.768	1656.304
-32.925	30.706	1958.508	1655.081
-31.911	30.674	1956.976	1653.435
-30.896	30.739	1955.167	1652.422
-29.881	30.687	1954.303	1651.160
-28.867	30.693	1953.267	1650.280
-27.852	30.734	1951.037	1648.688
-26.838	30.814	1948.907	1647.532
-25.823	30.704	1947.376	1645.203
-24.809	30.711	1945.932	1643.976
-23.794	30.672	1944.174	1642.086
-22.779	30.693	1942.231	1640.564
-21.765	30.784	1940.051	1639.460
-20.750	30.662	1939.071	1637.487
-19.736	30.652	1937.462	1635.980
-18.721	30.592	1935.991	1634.146
-17.706	30.679	1934.100	1633.242
-16.692	30.688	1932.284	1631.722
-15.677	30.669	1930.724	1630.181
-14.663	30.609	1929.920	1628.909
-13.648	30.645	1928.535	1627.988
-12.633	30.708	1927.117	1627.283
-11.619	30.597	1925.953	1625.262
-10.604	30.753	1923.860	1624.794
-9.590	30.572	1923.237	1622.624
-8.575	30.591	1921.522	1621.282
-7.560	30.570	1920.835	1620.447
-6.546	30.658	1918.895	1619.518
-5.531	30.558	1917.962	1617.798
-4.517	30.652	1916.628	1617.424
-3.502	30.669	1915.162	1616.266
-2.487	30.657	1914.094	1615.200
-1.473	30.707	1912.678	1614.375
-0.458	30.756	1908.124	1610.893
0.556	29.930	1888.619	1584.194
1.571	25.845	1870.175	1533.887
2.586	21.969	1893.599	1519.473
3.600	21.000	1929.722	1539.770
4.615	20.499	1923.705	1530.423
5.629	16.091	1824.590	1414.542
6.644	8.688	1709.266	1266.629
7.659	5.329	1675.113	1215.129
8.673	5.117	1672.162	1211.241
9.688	4.941	1671.028	1208.945
10.702	4.945	1669.571	1207.815
11.717	4.907	1666.066	1204.878
12.731	5.349	1665.472	1207.756
13.746	10.353	1677.282	1255.072
14.761	17.006	1691.747	1317.618
15.775	19.189	1693.946	1336.168
16.790	18.403	1691.266	1327.843
17.804	17.389	1687.689	1317.076
18.819	16.317	1684.708	1306.342
19.834	15.812	1681.612	1299.921
20.848	15.374	1680.610	1295.649
21.863	15.300	1678.413	1293.274
22.877	15.030	1677.455	1290.342
23.892	14.747	1675.836	1286.804
24.907	14.712	1674.439	1285.347
25.921	14.620	1673.826	1284.050
26.936	14.705	1672.491	1283.571
27.950	14.691	1672.136	1283.076
28.965	14.795	1671.406	1283.196
29.980	14.740	1671.240	1282.536
30.994	14.997	1669.156	1282.794
32.009	15.006	1668.247	1282.049
33.023	14.980	1667.949	1281.513
34.038	15.009	1666.343	1280.380
35.053	14.959	1665.459	1279.208
36.067	14.823	1664.158	1277.055
37.082	14.822	1662.695	1275.815
38.096	14.880	1662.112	1275.693
39.111	14.951	1661.034	1275.300
40.126	14.910	1660.413	1274.393
41.140	14.954	1659.341	1273.791
42.155	14.698	1658.155	1270.824
43.169	14.585	1657.154	1269.082
44.184	14.563	1656.026	1267.944
45.199	14.537	1654.513	1266.471
46.213	14.552	1653.341	1265.579
47.228	14.566	1652.145	1264.656
48.242	14.688	1650.856	1264.482
49.257	14.761	1649.846	1264.152
50.271	14.847	1648.740	1263.840
51.286	14.681	1647.467	1261.499
52.301	14.725	1646.522	1260.995
53.315	14.796	1644.789	1260.089
54.330	14.801	1642.978	1258.627
55.344	14.631	1641.662	1256.233
56.359	14.659	1640.205	1255.218
57.374	14.641	1639.399	1254.349
58.388	14.625	1637.979	1253.038
59.403	14.640	1636.415	1251.840
60.417	14.579	1634.811	1250.042
61.432	14.509	1633.976	1248.770
62.447	14.493	1633.763	1248.382
63.461	14.466	1632.428	1247.049
64.476	14.502	1630.925	1246.060
65.490	14.470	1629.427	1244.564
66.505	14.516	1627.936	1243.654
67.520	14.485	1627.808	1243.221
68.534	14.508	1626.474	1242.260
69.549	14.554	1625.244	1241.554
70.563	14.559	1623.987	1240.524
71.578	14.536	1622.963	1239.461
72.593	14.479	1622.165	1238.319
73.607	14.403	1620.951	1236.713
74.622	14.358	1619.741	1235.348
75.636	14.451	1618.871	1235.267
76.651	14.393	1618.012	1234.074
77.666	14.394	1617.357	1233.471
78.680	14.510	1616.126	1233.281
79.695	14.394	1615.672	1231.966
80.709	14.424	1614.914	1231.502
81.724	14.460	1614.050	1230.996
82.739	14.621	1612.899	1231.197
83.753	14.692	1611.819	1230.787
84.768	14.702	1611.131	1230.227
85.782	14.724	1610.612	1229.889
86.797	14.869	1609.187	1229.758
87.812	14.806	1608.252	1228.470
88.826	14.826	1606.917	1227.485
89.841	14.730	1605.926	1225.915
90.855	14.781	1604.749	1225.286
91.870	14.798	1604.126	1224.828
92.884	14.924	1602.688	1224.541
93.899	14.813	1602.155	1223.214
94.914	14.872	1600.627	1222.367
95.928	14.913	1599.696	1221.849
96.943	14.829	1598.334	1220.091
97.957	14.869	1596.879	1219.160
98.972	14.912	1594.883	1217.844
99.987	14.791	1594.049	1216.223
101.001	14.879	1591.654	1214.922
102.016	14.781	1590.659	1213.344
103.030	14.879	1589.066	1212.734
104.045	14.818	1588.354	1211.637
105.060	14.856	1586.746	1210.583
106.074	14.769	1584.903	1208.436
107.089	14.665	1583.793	1206.734
108.103	14.576	1582.212	1204.783
109.118	14.439	1580.534	1202.405
110.133	14.521	1578.852	1201.616
111.147	14.554	1577.715	1200.876
112.162	14.527	1576.368	1199.556
113.176	14.632	1574.696	1198.931
114.191	14.550	1573.729	1197.500
115.206	14.666	1572.321	1197.151
116.220	14.707	1570.644	1196.062
117.235	14.583	1569.971	1194.557
118.249	14.602	1568.557	1193.514
119.264	14.602	1567.010	1192.232
120.279	14.593	1565.625	1191.009
121.293	14.529	1564.432	1189.539
122.308	14.472	1562.682	1187.694
123.322	14.519	1561.027	1186.662
124.337	14.452	1559.839	1185.184
125.352	14.482	1558.206	1184.050
126.366	14.381	1557.333	1182.564
127.381	14.391	1556.124	1181.615
128.395	14.438	1555.044	1181.020
129.410	14.345	1553.635	1179.189
130.424	14.486	1552.477	1179.201
131.439	14.567	1550.989	1178.537
132.454	14.592	1549.597	1177.553
133.468	14.608	1548.382	1176.637
134.483	14.608	1547.132	1175.585
135.497	14.664	1545.146	1174.366
136.512	14.588	1544.185	1172.998
137.527	14.631	1543.034	1172.324
138.541	14.658	1541.882	1171.533
139.556	14.771	1539.833	1170.666
140.570	14.737	1538.491	1169.302
141.585	14.856	1537.242	1169.084
142.600	14.827	1536.813	1168.449
143.614	14.811	1535.571	1167.291
144.629	15.007	1534.241	1167.541
145.643	14.888	1533.209	1165.824
146.658	15.003	1531.350	1165.108
147.673	14.986	1529.629	1163.580
148.687	14.929	1528.185	1161.980
149.702	14.791	1526.899	1159.941
150.716	14.759	1525.290	1158.394
151.731	14.758	1523.990	1157.300
152.746	14.811	1522.687	1156.576
153.760	14.760	1521.476	1155.199
154.775	14.837	1520.398	1154.811
155.789	14.876	1518.859	1153.809
156.804	14.918	1517.626	1153.056
157.819	15.013	1516.023	1152.390
158.833	14.949	1515.188	1151.213
159.848	15.022	1514.079	1150.774
160.862	15.102	1513.276	1150.608
161.877	15.095	1512.038	1149.521
162.892	15.039	1510.870	1148.143
163.906	15.021	1509.280	1146.713
164.921	14.878	1508.390	1144.953
165.935	14.788	1507.646	1143.672
166.950	14.919	1505.932	1143.166
167.964	14.978	1505.110	1142.844
168.979	14.912	1504.480	1141.815
169.994	14.948	1503.643	1141.327
171.008	14.970	1502.048	1140.165
172.023	15.062	1500.580	1139.573
173.037	15.003	1500.013	1138.639
174.052	15.183	1498.581	1138.675
175.067	15.160	1497.576	1137.659
176.081	15.028	1496.772	1136.052
177.096	14.982	1495.458	1134.639
178.110	14.982	1493.894	1133.350
179.125	15.036	1492.513	1132.571
180.140	14.988	1491.630	1131.478
181.154	14.997	1490.874	1130.860
182.169	15.084	1489.597	1130.379
183.183	15.149	1488.184	1129.646
184.198	15.200	1487.187	1129.136
185.213	15.159	1486.468	1128.215
186.227	15.178	1485.270	1127.333
187.242	15.231	1484.518	1127.020
188.256	15.277	1483.070	1126.129
189.271	15.369	1481.923	1125.776
190.286	15.339	1480.998	1124.770
191.300	15.263	1479.912	1123.337
192.315	15.003	1478.883	1120.718
193.329	14.991	1476.851	1118.997
194.344	14.955	1475.789	1117.853
195.359	14.985	1475.326	1117.606
196.373	15.039	1474.417	1117.174
197.388	15.155	1473.541	1117.183
198.402	15.230	1471.886	1116.335
199.417	15.316	1470.903	1116.061
200.432	15.361	1470.463	1115.928
201.446	15.372	1469.632	1115.271
202.461	15.460	1468.822	1115.143
203.475	15.590	1466.738	1114.320
204.490	15.630	1465.730	1113.724
205.504	15.643	1465.071	1113.211
206.519	15.485	1464.237	1111.433
207.534	15.486	1462.684	1110.165
208.548	15.427	1461.793	1108.998
209.563	15.438	1460.776	1108.203
210.577	15.491	1459.722	1107.651
211.592	15.417	1458.757	1106.333
212.607	15.447	1457.872	1105.763
213.621	15.592	1457.506	1106.343
214.636	15.658	1456.552	1105.958
215.650	15.612	1455.575	1104.811
216.665	15.542	1454.577	1103.498
217.680	15.597	1453.731	1103.117
218.694	15.659	1453.227	1103.043
219.709	15.703	1452.124	1102.401
220.723	15.787	1451.340	1102.260
221.738	15.661	1450.446	1100.654
222.753	15.712	1449.533	1100.197
223.767	15.713	1448.579	1099.388
224.782	15.824	1446.921	1098.753
225.796	15.784	1445.972	1097.673
226.811	15.743	1446.042	1097.366
227.826	15.710	1445.183	1096.400
228.840	15.736	1444.317	1095.814
229.855	15.689	1443.396	1094.716
230.869	15.751	1442.203	1094.112
231.884	15.751	1441.007	1093.111
232.899	15.776	1439.887	1092.327
233.913	15.762	1438.219	1090.873
234.928	15.731	1437.560	1090.079
235.942	15.660	1436.443	1088.674
236.957	15.670	1435.143	1087.658
237.972	15.677	1434.224	1086.908
238.986	15.699	1432.856	1085.920
240.001	15.671	1432.010	1084.999
241.015	15.789	1430.785	1084.738
242.030	15.776	1429.521	1083.601
243.045	15.794	1429.094	1083.293
244.059	15.900	1427.857	1082.941
245.074	15.834	1427.295	1081.997
246.088	15.785	1426.839	1081.244
247.103	15.863	1425.769	1080.834
248.117	15.929	1424.980	1080.565
249.132	16.006	1424.559	1080.645
250.147	16.119	1423.459	1080.438
251.161	16.224	1422.863	1080.563
252.176	16.249	1422.437	1080.304
253.190	16.281	1421.627	1079.798
254.205	16.388	1420.752	1079.722
255.220	16.426	1419.896	1079.215
256.234	16.329	1419.360	1078.095
257.249	16.396	1418.699	1077.925
258.263	16.389	1417.642	1076.983
259.278	16.398	1416.683	1076.214
260.293	16.387	1415.614	1075.238
261.307	16.458	1414.520	1074.764
262.322	16.490	1414.251	1074.667
263.336	16.449	1413.530	1073.767
264.351	16.478	1412.319	1072.931
265.366	16.501	1411.152	1072.096
266.380	16.604	1410.275	1071.987
267.395	16.585	1409.495	1071.179
268.409	16.621	1408.517	1070.569
269.424	16.599	1407.397	1069.489
270.439	16.568	1406.552	1068.553
271.453	16.497	1405.748	1067.398
272.468	16.452	1404.637	1066.181
273.482	16.509	1404.282	1066.172
274.497	16.563	1403.117	1065.537
275.512	16.585	1401.432	1064.301
276.526	16.525	1401.187	1063.642
277.541	16.517	1400.272	1062.806
278.555	16.553	1399.769	1062.554
279.570	16.468	1398.734	1061.143
280.585	16.571	1397.763	1060.953
281.599	16.692	1396.800	1060.889
282.614	16.749	1395.998	1060.543
283.628	16.684	1395.172	1059.415
284.643	16.609	1393.753	1057.777
285.657	16.693	1392.284	1057.091
286.672	16.734	1391.467	1056.631
287.687	16.641	1391.109	1055.687
288.701	16.674	1389.808	1054.813
289.716	16.725	1389.292	1054.648
290.730	16.672	1388.480	1053.603
291.745	16.744	1387.306	1053.071
292.760	16.697	1386.414	1052.007
293.774	16.841	1384.738	1051.538
294.789	16.796	1384.415	1050.918
295.803	16.916	1383.242	1050.677
296.818	16.884	1382.998	1050.200
297.833	16.867	1381.645	1048.975
298.847	16.810	1380.745	1047.846
299.862	16.880	1379.574	1047.301
300.876	16.735	1378.770	1045.703
301.891	16.914	1377.717	1045.910
302.906	16.890	1377.250	1045.316
303.920	16.924	1377.026	1045.265
304.935	17.018	1375.765	1044.796
305.949	17.112	1375.158	1044.821
306.964	17.062	1374.555	1043.961
307.979	17.211	1373.489	1043.973
308.993	17.191	1372.042	1042.662
310.008	17.110	1371.216	1041.441
311.022	17.183	1370.163	1041.000
312.037	17.134	1369.663	1040.223
313.052	17.228	1368.329	1039.697
314.066	17.082	1367.425	1038.024
315.081	17.167	1366.245	1037.558
316.095	17.006	1365.487	1035.905
317.110	16.910	1364.440	1034.432
318.125	17.033	1363.403	1034.305
319.139	17.098	1362.417	1033.862
320.154	17.030	1361.507	1032.665
321.168	16.968	1360.847	1031.701
322.183	17.102	1359.554	1031.442
323.197	17.073	1358.793	1030.595
324.212	16.978	1357.751	1029.137
325.227	17.031	1357.186	1028.941
326.241	17.019	1356.380	1028.164
327.256	17.249	1355.076	1028.481
328.270	17.221	1354.382	1027.689
329.285	17.178	1353.160	1026.414
330.300	17.161	1352.105	1025.420
331.314	17.192	1351.544	1025.091
332.329	17.206	1350.559	1024.336
333.343	17.158	1349.663	1023.280
334.358	17.088	1349.439	1022.597
335.373	17.232	1348.476	1022.640
336.387	17.300	1347.426	1022.162
337.402	17.325	1346.600	1021.595
338.416	17.361	1345.687	1021.028
339.431	17.433	1344.935	1020.799
340.446	17.427	1344.580	1020.408
341.460	17.537	1343.341	1020.033
342.475	17.541	1343.226	1019.880
343.489	17.541	1342.084	1018.925
344.504	17.498	1341.032	1017.778
345.519	17.630	1340.206	1017.846
346.533	17.700	1339.082	1017.320
347.548	17.654	1338.461	1016.486
348.562	17.659	1337.848	1015.963
349.577	17.724	1336.895	1015.532
350.592	17.761	1335.754	1014.797
351.606	17.531	1335.132	1012.868
352.621	17.628	1333.533	1012.140
353.635	17.533	1332.837	1010.957
354.650	17.463	1332.278	1010.029
355.665	17.498	1331.024	1009.197
356.679	17.568	1329.718	1008.534
357.694	17.542	1329.089	1007.812
358.708	17.624	1328.103	1007.464
359.723	17.667	1327.236	1006.970
360.738	17.576	1326.213	1005.568
361.752	17.693	1324.827	1005.115
362.767	17.767	1323.330	1004.325
363.781	17.696	1322.916	1003.506
364.796	17.794	1322.080	1003.361
365.810	17.812	1321.714	1003.099
366.825	17.861	1320.878	1002.661
367.840	17.912	1320.340	1002.467
368.854	17.900	1319.478	1001.652
369.869	17.949	1319.120	1001.579
370.883	17.976	1318.207	1000.955
371.898	17.963	1317.524	1000.270
372.913	18.026	1315.967	999.369
373.927	17.954	1316.097	998.961
374.942	17.935	1314.903	997.855
375.956	18.011	1314.261	997.721
376.971	18.058	1313.199	997.103
377.986	18.034	1312.562	996.389
379.000	18.074	1311.761	995.928
380.015	18.107	1310.968	995.430
381.029	18.040	1310.448	994.557
382.044	18.031	1309.950	994.034
383.059	18.189	1308.941	994.105
384.073	18.215	1308.410	993.759
385.088	18.242	1307.413	993.076
386.102	18.293	1306.548	992.622
387.117	18.324	1305.998	992.296
388.132	18.163	1305.403	990.824
389.146	18.125	1304.421	989.773
390.161	18.171	1303.450	989.212
391.175	18.148	1302.640	988.381
392.190	18.206	1301.969	988.120
393.205	18.129	1301.370	987.130
394.219	18.281	1300.053	986.922
395.234	18.449	1298.456	986.590
396.248	18.279	1297.482	984.782
397.263	18.336	1296.265	984.098
398.278	18.334	1294.998	983.039
399.292	18.209	1294.043	981.508
400.307	18.194	1293.076	980.606
401.321	18.130	1291.992	979.328
402.336	18.116	1290.831	978.285
403.350	18.073	1290.041	977.353
404.365	18.225	1289.222	977.510
405.380	18.318	1288.046	977.066
406.394	18.293	1287.144	976.154
407.409	18.371	1286.500	976.021
408.423	18.319	1286.345	975.520
409.438	18.455	1285.352	975.458
410.453	18.497	1284.614	975.048
411.467	18.579	1283.781	974.798
412.482	18.471	1283.888	974.178
413.496	18.485	1282.914	973.429
414.511	18.515	1282.166	972.950
415.526	18.581	1281.739	972.914
416.540	18.691	1280.303	972.363
417.555	18.727	1279.986	972.236
418.569	18.834	1279.163	972.130
419.584	18.710	1279.221	971.389
420.599	18.677	1278.145	970.296
421.613	140.568	1432.332	1794.325
422.628	135.323	1454.780	1794.434
