DTS Sentinel unit serial number:	SN413079Multiplexer serial number:	ORYXHardware model number:	OX4-SRSoftware version number:	ORYX F/W v4.00 Oryx Data Collector v3.7.2.0data status	okinstallation	princeton_trtdifferential loss correction	single-endedforward channel	channel 4reverse channel	N/Adate	2019/09/14time	03:53:35forward acquisition time	60.00reverse acquisition time	0.00gamma	496.2192k internal	0.2322k external	0.2322temperature offset calibration	1.0134default loss term (dB/km)	0.3790temperature slope calibration	1.0000multiplexer offset coefficient	1.0000multiplexer slope coefficient	1.0000fibre end	0.00T internal ref (°C)	26.67T ext. ref 1 (°C)	3.31T ext. ref 2 (°C)	21.69length (m)	temperature (°C)	Stokes	anti-Stokes-747.200	29.729	-0.112	0.097
-746.185	-52.440	-0.317	0.148
-745.171	-200.000	-0.039	-0.300
-744.156	287.589	-0.091	0.167
-743.142	-16.954	-0.136	0.087
-742.127	-40.082	0.283	0.149
-741.112	800.000	0.143	0.588
-740.098	427.195	-0.090	0.196
-739.083	-140.083	-0.407	-0.043
-738.069	-63.589	-0.182	0.075
-737.054	318.376	0.131	0.251
-736.039	24.059	0.114	0.095
-735.025	800.000	0.016	-0.063
-734.010	-66.733	-0.540	-0.216
-732.996	-133.551	-0.124	-0.016
-731.981	800.000	0.042	0.169
-730.966	-200.000	-0.024	-0.375
-729.952	-75.407	-0.292	-0.105
-728.937	-101.148	-0.251	-0.062
-727.923	-44.830	-0.108	-0.054
-726.908	-36.345	-0.108	0.059
-725.894	496.139	0.007	-0.016
-724.879	-200.000	0.087	0.479
-723.864	-200.000	-0.002	0.053
-722.850	-92.219	-0.042	-0.012
-721.835	145.758	-0.194	-0.262
-720.821	800.000	0.030	-0.089
-719.806	-200.000	0.338	0.001
-718.791	97.901	-0.160	-0.186
-717.777	242.130	0.126	0.212
-716.762	-157.731	0.182	-0.011
-715.748	-200.000	-0.016	0.080
-714.733	123.280	-0.040	-0.051
-713.718	420.187	0.183	0.396
-712.704	-183.707	-0.089	0.002
-711.689	140.945	0.166	-0.221
-710.675	-200.000	0.008	0.053
-709.660	-200.000	-0.025	-0.208
-708.645	-116.184	-0.135	-0.025
-707.631	-200.000	0.050	0.320
-706.616	-99.225	0.261	0.067
-705.602	-200.000	-0.046	-0.359
-704.587	67.920	-0.194	-0.200
-703.572	-200.000	-0.024	0.176
-702.558	597.894	0.059	-0.148
-701.543	-15.702	0.228	-0.147
-700.529	-3.771	-0.209	-0.147
-699.514	-107.680	0.315	0.069
-698.499	-36.126	-0.060	-0.033
-697.485	-92.242	-0.185	-0.053
-696.470	-51.983	0.345	-0.162
-695.456	178.298	0.139	-0.204
-694.441	199.258	0.189	-0.292
-693.426	-142.108	-0.148	-0.015
-692.412	-117.376	-0.385	0.070
-691.397	69.448	-0.254	0.263
-690.383	282.103	-0.084	-0.151
-689.368	25.478	-0.066	0.056
-688.354	-113.954	-0.243	-0.048
-687.339	-86.216	0.348	-0.108
-686.324	-144.858	0.167	-0.015
-685.310	-48.932	-0.345	-0.167
-684.295	376.299	0.083	-0.171
-683.281	378.335	-0.023	-0.048
-682.266	-200.000	-0.013	-0.330
-681.251	-200.000	-0.027	-0.145
-680.237	-31.902	0.216	0.122
-679.222	-17.083	-0.064	-0.041
-678.208	-200.000	-0.014	-0.223
-677.193	52.481	0.198	-0.190
-676.178	-200.000	-0.034	0.364
-675.164	-200.000	0.031	-0.215
-674.149	118.083	0.099	0.123
-673.135	800.000	0.113	0.335
-672.120	-97.564	0.047	0.012
-671.105	-200.000	0.006	-0.061
-670.091	13.401	-0.274	-0.214
-669.076	-200.000	0.005	-0.209
-668.062	800.000	-0.093	-0.260
-667.047	-96.882	-0.348	0.092
-666.032	133.085	0.242	-0.315
-665.018	125.941	0.068	0.086
-664.003	800.000	0.063	-0.202
-662.989	800.000	-0.094	-0.325
-661.974	216.191	0.123	-0.197
-660.959	-200.000	0.013	0.121
-659.945	71.946	0.142	0.149
-658.930	-1.035	0.149	0.106
-657.916	-200.000	-0.005	-0.023
-656.901	-200.000	-0.007	0.167
-655.886	24.220	0.044	0.036
-654.872	-200.000	-0.036	-0.239
-653.857	-91.518	-0.091	0.026
-652.843	139.693	-0.170	-0.226
-651.828	-200.000	0.001	-0.078
-650.814	-63.529	0.262	0.108
-649.799	-39.429	0.007	-0.004
-648.784	-200.000	-0.057	-0.370
-647.770	800.000	0.078	-0.242
-646.755	485.418	0.073	-0.167
-645.741	-90.445	0.167	-0.049
-644.726	371.935	-0.123	-0.251
-643.711	-77.556	0.304	0.106
-642.697	324.725	0.220	0.424
-641.682	163.543	-0.117	-0.165
-640.668	244.677	0.206	0.348
-639.653	44.232	-0.036	0.034
-638.638	298.622	-0.117	0.216
-637.624	-131.297	0.322	-0.043
-636.609	-86.253	-0.395	0.122
-635.595	-14.965	-0.129	-0.083
-634.580	-95.776	-0.281	0.076
-633.565	-18.650	0.154	0.097
-632.551	-22.035	-0.347	-0.212
-631.536	296.258	0.149	-0.275
-630.522	414.974	-0.169	0.362
-629.507	800.000	-0.044	-0.143
-628.492	-200.000	-0.026	-0.236
-627.478	369.581	-0.164	0.335
-626.463	599.811	-0.064	-0.160
-625.449	671.756	-0.061	0.158
-624.434	655.915	0.034	0.087
-623.419	-93.513	0.421	-0.117
-622.405	800.000	0.061	-0.179
-621.390	-187.321	0.441	0.006
-620.376	191.308	-0.145	0.220
-619.361	-200.000	0.009	-0.191
-618.346	-200.000	0.002	0.229
-617.332	108.821	-0.084	-0.100
-616.317	585.244	0.129	0.318
-615.303	-168.458	0.152	0.006
-614.288	490.940	-0.062	-0.142
-613.273	473.347	-0.067	-0.152
-612.259	-178.982	0.314	0.007
-611.244	-120.155	-0.312	0.054
-610.230	800.000	-0.043	0.137
-609.215	648.413	0.089	0.230
-608.201	179.832	0.023	-0.033
-607.186	-200.000	-0.003	-0.057
-606.171	-200.000	0.051	-0.228
-605.157	58.649	0.185	0.183
-604.142	46.031	0.131	-0.122
-603.128	-87.473	-0.166	-0.051
-602.113	511.976	0.115	-0.270
-601.098	48.069	0.164	-0.154
-600.084	-157.086	0.063	-0.004
-599.069	-75.357	-0.261	0.093
-598.055	12.192	-0.071	-0.055
-597.040	88.832	0.136	-0.152
-596.025	800.000	-0.090	-0.341
-595.011	669.170	-0.118	-0.306
-593.996	800.000	-0.084	-0.287
-592.982	-83.615	-0.181	-0.058
-591.967	-56.684	-0.407	-0.181
-590.952	-19.234	-0.052	-0.032
-589.938	-142.535	-0.125	-0.012
-588.923	-200.000	0.015	0.074
-587.909	800.000	-0.061	-0.201
-586.894	-200.000	-0.003	0.084
-585.879	-112.719	0.084	0.017
-584.865	333.764	-0.139	0.269
-583.850	800.000	0.046	0.172
-582.836	86.802	-0.269	-0.299
-581.821	-7.611	-0.159	-0.108
-580.806	-82.808	-0.234	-0.076
-579.792	-200.000	0.029	-0.244
-578.777	380.563	0.166	0.341
-577.763	-115.971	-0.113	-0.021
-576.748	-2.744	-0.441	0.309
-575.733	-113.034	-0.187	-0.037
-574.719	234.635	0.069	-0.114
-573.704	279.123	-0.300	-0.537
-572.690	800.000	-0.019	-0.059
-571.675	105.938	0.142	0.169
-570.661	62.784	0.138	0.139
-569.646	10.175	0.190	0.145
-568.631	-140.106	-0.318	0.034
-567.617	-149.887	-0.543	0.043
-566.602	-41.475	-0.295	0.152
-565.588	-44.171	-0.066	-0.033
-564.573	75.102	-0.189	0.200
-563.558	530.264	-0.139	0.330
-562.544	-200.000	-0.018	-0.111
-561.529	-31.588	-0.183	0.103
-560.515	-150.606	0.162	-0.012
-559.500	-200.000	-0.044	0.294
-558.485	367.462	0.029	-0.059
-557.471	167.263	0.128	0.182
-556.456	22.663	-0.165	0.135
-555.442	800.000	0.153	0.527
-554.427	-32.873	-0.138	0.077
-553.412	22.573	-0.237	-0.194
-552.398	800.000	0.097	0.348
-551.383	-187.589	-0.369	-0.005
-550.369	83.186	-0.331	0.362
-549.354	247.008	-0.008	0.013
-548.339	373.273	0.071	0.146
-547.325	-62.608	0.168	0.070
-546.310	106.221	0.076	-0.090
-545.296	-200.000	0.047	-0.338
-544.281	-200.000	-0.039	-0.374
-543.266	4.644	-0.042	0.031
-542.252	-122.870	0.168	-0.027
-541.237	78.074	-0.219	-0.234
-540.223	-109.747	-0.243	-0.051
-539.208	-200.000	-0.081	0.362
-538.193	81.807	0.043	-0.047
-537.179	-200.000	-0.014	0.313
-536.164	-200.000	0.009	-0.073
-535.150	-200.000	0.048	0.221
-534.135	-3.296	-0.498	0.348
-533.121	-200.000	-0.037	0.295
-532.106	-96.241	0.101	-0.027
-531.091	151.674	-0.209	-0.286
-530.077	-4.659	-0.015	0.011
-529.062	-200.000	-0.005	-0.158
-528.048	56.327	-0.076	-0.074
-527.033	67.409	-0.385	-0.393
-526.018	800.000	-0.063	-0.239
-525.004	-107.172	-0.216	0.048
-523.989	-70.702	0.192	0.072
-522.975	27.975	-0.146	-0.124
-521.960	-51.886	-0.333	-0.155
-520.945	70.260	0.108	-0.112
-519.931	800.000	0.048	0.136
-518.916	-167.919	-0.192	0.008
-517.902	-200.000	0.010	-0.079
-516.887	11.490	0.052	-0.040
-515.872	-15.167	-0.207	-0.133
-514.858	-59.182	0.186	-0.080
-513.843	29.725	-0.177	0.151
-512.829	-33.961	0.305	0.168
-511.814	-123.045	0.306	0.049
-510.799	627.030	0.120	0.302
-509.785	-13.912	0.304	0.196
-508.770	-34.396	0.337	0.185
-507.756	-200.000	-0.033	-0.196
-506.741	-102.128	0.220	-0.053
-505.726	800.000	-0.072	-0.269
-504.712	-22.506	0.051	-0.031
-503.697	587.326	-0.084	-0.208
-502.683	55.415	0.168	-0.163
-501.668	90.789	0.015	0.017
-500.653	133.756	0.107	0.139
-499.639	-75.150	0.390	0.140
-498.624	-200.000	0.001	-0.155
-497.610	-137.872	0.232	-0.026
-496.595	-200.000	0.009	0.324
-495.581	188.659	0.248	-0.371
-494.566	540.603	0.101	0.240
-493.551	-16.600	-0.126	-0.080
-492.537	397.515	-0.058	0.121
-491.522	800.000	-0.047	0.171
-490.508	43.077	0.248	0.226
-489.493	800.000	0.087	0.284
-488.478	-87.238	0.121	0.037
-487.464	-128.256	-0.066	-0.009
-486.449	-52.913	-0.221	-0.102
-485.435	-30.660	-0.135	0.076
-484.420	-38.436	0.241	-0.127
-483.405	-20.437	-0.241	-0.148
-482.391	531.556	0.103	-0.245
-481.376	-5.365	-0.404	-0.278
-480.362	-39.942	0.187	0.098
-479.347	800.000	-0.069	-0.200
-478.332	-200.000	0.025	0.272
-477.318	47.226	0.103	-0.096
-476.303	-200.000	0.050	0.276
-475.289	36.701	-0.134	0.119
-474.274	-200.000	-0.030	0.249
-473.259	-48.837	0.038	-0.018
-472.245	85.172	-0.023	0.025
-471.230	83.284	-0.103	0.112
-470.216	-200.000	-0.045	-0.363
-469.201	101.203	-0.024	0.028
-468.186	177.528	0.107	-0.156
-467.172	800.000	-0.021	-0.061
-466.157	292.809	-0.064	-0.117
-465.143	36.801	-0.148	0.131
-464.128	-135.154	-0.105	-0.013
-463.113	-88.319	-0.229	-0.069
-462.099	-189.418	0.191	-0.002
-461.084	-110.376	0.111	-0.023
-460.070	-95.225	0.140	-0.038
-459.055	-123.431	0.395	-0.063
-458.040	227.756	-0.061	-0.099
-457.026	-144.306	0.203	0.019
-456.011	-185.200	0.028	0.000
-454.997	52.730	-0.170	0.162
-453.982	273.303	-0.172	-0.304
-452.968	113.621	-0.167	-0.202
-451.953	101.774	-0.274	-0.320
-450.938	-38.399	0.165	-0.087
-449.924	-109.220	-0.212	-0.045
-448.909	-200.000	-0.057	0.339
-447.895	800.000	0.105	-0.316
-446.880	331.494	0.090	-0.173
-445.865	-47.404	0.026	0.013
-444.851	428.476	0.094	0.203
-443.836	218.999	0.051	-0.082
-442.822	800.000	-0.062	-0.268
-441.807	11.542	0.246	0.188
-440.792	-66.181	0.259	0.103
-439.778	-200.000	0.012	0.197
-438.763	-65.580	0.087	-0.035
-437.749	800.000	-0.058	0.249
-436.734	428.025	-0.070	-0.151
-435.719	-200.000	-0.005	-0.045
-434.705	800.000	-0.087	0.291
-433.690	2.667	0.204	-0.148
-432.676	-21.931	0.099	0.060
-431.661	155.128	0.138	-0.189
-430.646	800.000	0.045	0.159
-429.632	37.149	-0.335	-0.296
-428.617	-42.985	0.206	-0.104
-427.603	-117.779	0.193	0.035
-426.588	385.184	-0.085	0.175
-425.573	-200.000	-0.025	0.290
-424.559	177.371	-0.066	0.096
-423.544	345.058	0.057	-0.111
-422.530	-200.000	0.078	-0.353
-421.515	105.162	0.084	0.099
-420.500	-4.171	0.434	0.300
-419.486	119.752	-0.019	0.023
-418.471	89.961	-0.186	0.207
-417.457	-39.344	-0.178	-0.093
-416.442	319.948	0.087	0.164
-415.428	205.447	-0.230	-0.357
-414.413	100.502	0.008	-0.010
-413.398	476.839	-0.064	0.145
-412.384	-200.000	0.006	0.131
-411.369	274.991	0.097	0.171
-410.355	120.214	0.253	0.313
-409.340	-200.000	0.179	0.000
-408.325	-200.000	-0.020	-0.149
-407.311	800.000	0.057	-0.185
-406.296	800.000	-0.061	0.192
-405.282	-200.000	-0.013	0.204
-404.267	-114.885	0.204	0.039
-403.252	800.000	0.090	0.372
-402.238	129.781	0.163	-0.207
-401.223	-100.683	-0.202	0.050
-400.209	49.420	-0.336	-0.315
-399.194	-200.000	-0.007	-0.197
-398.179	-200.000	-0.024	-0.171
-397.165	-148.818	-0.316	-0.026
-396.150	24.869	0.145	0.120
-395.136	72.596	0.290	-0.301
-394.121	-74.926	0.125	-0.044
-393.106	-200.000	0.060	0.330
-392.092	-73.977	-0.397	0.143
-391.077	25.776	-0.103	-0.086
-390.063	-57.987	-0.400	-0.174
-389.048	107.826	-0.338	0.401
-388.033	-200.000	0.045	0.252
-387.019	166.254	0.116	-0.163
-386.004	-176.753	0.185	-0.005
-384.990	-200.000	0.018	0.247
-383.975	800.000	0.049	0.165
-382.960	-47.382	0.241	0.117
-381.946	79.795	0.085	-0.090
-380.931	72.473	0.163	-0.169
-379.917	446.432	-0.136	-0.297
-378.902	2.302	0.047	-0.034
-377.888	-146.890	0.209	-0.018
-376.873	64.846	0.202	0.203
-375.858	219.014	0.199	-0.317
-374.844	800.000	0.040	-0.138
-373.829	72.151	-0.034	-0.036
-372.815	156.452	0.101	-0.138
-371.800	8.893	0.040	-0.030
-370.785	-128.718	-0.383	-0.054
-369.771	-6.516	0.039	-0.027
-368.756	93.886	-0.144	-0.163
-367.742	236.274	-0.209	-0.344
-366.727	-79.774	0.217	0.073
-365.712	-200.000	-0.009	0.121
-364.698	-103.505	-0.089	0.021
-363.683	-152.832	0.230	0.016
-362.669	103.485	0.145	-0.170
-361.654	-38.374	0.156	-0.082
-360.639	-172.636	0.180	0.006
-359.625	-114.589	0.322	-0.061
-358.610	800.000	-0.073	-0.251
-357.596	10.473	0.240	0.182
-356.581	-4.322	0.129	-0.088
-355.566	-38.436	-0.175	-0.092
-354.552	-130.517	0.278	-0.037
-353.537	173.316	-0.232	0.332
-352.523	-200.000	-0.036	-0.249
-351.508	-200.000	-0.013	-0.328
-350.493	-115.150	-0.320	0.060
-349.479	-48.984	0.071	-0.034
-348.464	201.280	-0.164	-0.251
-347.450	16.488	0.110	0.086
-346.435	-186.332	-0.030	0.000
-345.420	-80.553	-0.107	0.035
-344.406	-200.000	-0.024	0.408
-343.391	525.593	0.056	0.132
-342.377	-54.623	-0.151	0.068
-341.362	-52.255	0.447	0.206
-340.348	-200.000	-0.026	0.262
-339.333	800.000	-0.080	-0.278
-338.318	-200.000	-0.052	-0.404
-337.304	387.784	0.145	-0.298
-336.289	-100.193	-0.303	0.075
-335.275	-69.839	0.253	-0.096
-334.260	-200.000	-0.010	0.057
-333.245	-162.183	0.204	0.010
-332.231	800.000	0.102	0.392
-331.216	-114.262	-0.057	-0.011
-330.202	-15.594	0.181	-0.115
-329.187	-93.718	0.134	0.037
-328.172	369.125	0.070	-0.141
-327.158	-38.799	-0.222	-0.116
-326.143	28.983	-0.096	-0.081
-325.129	-120.907	0.168	-0.028
-324.114	110.247	0.059	-0.071
-323.099	800.000	0.140	-0.420
-322.085	175.594	-0.239	0.344
-321.070	-154.396	-0.442	-0.029
-320.056	-151.618	0.103	-0.008
-319.041	269.170	-0.123	0.215
-318.026	566.811	0.146	0.353
-317.012	-62.152	-0.316	-0.131
-315.997	-68.859	0.350	0.134
-314.983	91.036	0.018	-0.020
-313.968	-65.535	0.059	-0.024
-312.953	-200.000	0.027	0.175
-311.939	-200.000	-0.012	0.118
-310.924	32.782	0.195	-0.167
-309.910	114.302	0.047	0.057
-308.895	305.837	-0.224	0.414
-307.880	-32.687	-0.179	0.099
-306.866	416.721	0.072	0.152
-305.851	-100.550	-0.251	0.062
-304.837	-80.675	0.510	0.169
-303.822	-93.774	-0.123	-0.034
-302.807	5.347	-0.141	-0.103
-301.793	289.818	0.188	0.339
-300.778	-99.472	0.055	-0.014
-299.764	-200.000	0.035	-0.362
-298.749	270.235	0.224	-0.391
-297.735	39.378	-0.020	0.018
-296.720	-33.772	-0.269	-0.147
-295.705	19.686	-0.408	0.326
-294.691	-100.997	0.234	0.057
-293.676	-111.941	-0.165	0.033
-292.662	15.812	0.027	-0.021
-291.647	-101.035	0.250	-0.061
-290.632	103.521	0.103	0.120
-289.618	-200.000	-0.045	-0.353
-288.603	17.095	0.101	-0.080
-287.589	13.358	-0.192	0.148
-286.574	-192.183	-0.444	0.004
-285.559	24.802	0.047	-0.038
-284.545	-200.000	0.037	0.246
-283.530	-25.442	0.117	-0.069
-282.516	463.858	0.141	0.313
-281.501	42.821	-0.155	0.140
-280.486	694.198	0.031	0.080
-279.472	-200.000	-0.039	0.322
-278.457	-139.407	-0.275	0.029
-277.443	244.946	-0.204	-0.339
-276.428	-65.581	0.284	0.113
-275.413	33.535	-0.057	0.049
-274.399	369.394	-0.058	0.116
-273.384	800.000	0.093	0.323
-272.370	430.888	0.124	-0.265
-271.355	-70.418	0.190	-0.071
-270.340	-118.817	-0.200	-0.035
-269.326	246.462	0.095	0.159
-268.311	235.443	-0.132	-0.216
-267.297	401.470	0.118	0.245
-266.282	-200.000	-0.018	0.144
-265.267	-200.000	0.016	0.250
-264.253	-140.527	0.190	-0.020
-263.238	-200.000	0.018	0.081
-262.224	323.166	-0.107	0.202
-261.209	4.396	0.312	-0.227
-260.195	-200.000	-0.052	0.295
-259.180	-9.160	-0.122	-0.081
-258.165	-177.553	-0.280	-0.007
-257.151	-96.312	-0.435	0.114
-256.136	-12.665	-0.485	-0.314
-255.122	-200.000	0.098	-0.481
-254.107	369.352	-0.156	-0.312
-253.092	520.769	0.065	-0.150
-252.078	-43.150	-0.079	-0.039
-251.063	-123.635	-0.189	0.030
-250.049	-118.384	-0.190	0.033
-249.034	90.138	-0.109	-0.120
-248.019	-34.727	0.122	-0.066
-247.005	-121.972	-0.185	0.030
-245.990	-200.000	0.027	0.136
-244.976	-200.000	0.013	-0.084
-243.961	490.223	0.199	-0.450
-242.946	715.063	0.072	0.188
-241.932	339.431	0.049	-0.095
-240.917	662.981	-0.081	-0.206
-239.903	124.082	0.229	0.284
-238.888	96.624	-0.298	0.338
-237.873	418.065	-0.216	0.457
-236.859	-82.893	0.196	0.063
-235.844	-136.194	0.338	-0.039
-234.830	-77.991	-0.167	-0.057
-233.815	-184.024	-0.343	0.006
-232.800	-52.648	-0.171	-0.078
-231.786	-182.607	0.142	0.003
-230.771	-200.000	-0.003	0.067
-229.757	449.531	0.013	0.029
-228.742	-138.769	0.428	0.046
-227.727	-200.000	0.002	0.255
-226.713	28.929	0.328	-0.275
-225.698	-80.796	-0.307	-0.101
-224.684	-8.757	0.065	-0.043
-223.669	-123.695	-0.126	-0.020
-222.655	194.552	0.155	-0.233
-221.640	800.000	0.146	0.518
-220.625	-45.981	0.181	0.088
-219.611	444.522	-0.063	0.137
-218.596	-200.000	-0.023	-0.173
-217.582	126.052	-0.118	0.148
-216.567	-150.959	0.097	0.007
-215.552	-121.639	-0.111	0.018
-214.538	221.332	0.210	0.334
-213.523	-42.658	-0.278	0.140
-212.509	-143.453	0.463	0.044
-211.494	-140.543	0.298	-0.031
-210.479	-200.000	-0.063	-0.326
-209.465	-156.402	0.179	-0.011
-208.450	-200.000	0.000	0.051
-207.436	319.231	-0.074	-0.138
-206.421	264.640	0.151	-0.260
-205.406	-16.462	-0.311	0.195
-204.392	-49.984	0.280	-0.131
-203.377	-8.123	-0.267	0.178
-202.363	-3.201	0.180	0.124
-201.348	174.525	0.048	-0.069
-200.333	-90.222	-0.219	0.063
-199.319	96.388	0.168	-0.190
-198.304	-166.393	0.100	0.004
-197.290	-200.000	-0.028	-0.134
-196.275	800.000	-0.037	0.114
-195.260	-118.076	0.450	0.079
-194.246	8.080	0.160	-0.119
-193.231	-123.741	0.075	-0.012
-192.217	-41.545	-0.227	0.115
-191.202	-1.578	0.279	-0.195
-190.187	46.546	-0.101	-0.092
-189.173	-35.879	0.245	-0.131
-188.158	98.228	0.164	-0.187
-187.144	-125.987	-0.311	0.046
-186.129	-200.000	-0.013	-0.059
-185.114	-59.735	-0.079	0.033
-184.100	-200.000	0.083	-0.481
-183.085	-200.000	-0.008	0.081
-182.071	-46.699	-0.085	0.041
-181.056	544.520	0.103	0.244
-180.042	-123.156	0.425	0.067
-179.027	-54.610	0.571	-0.255
-178.012	-78.865	0.043	0.015
-176.998	800.000	0.104	0.307
-175.983	41.210	0.179	0.160
-174.969	234.061	0.101	0.165
-173.954	83.119	0.196	-0.210
-172.939	-105.126	-0.232	0.052
-171.925	146.646	0.097	0.129
-170.910	8.106	-0.047	-0.035
-169.896	281.321	-0.052	-0.092
-168.881	11.273	-0.290	-0.219
-167.866	148.945	0.179	-0.239
-166.852	29.140	0.282	-0.236
-165.837	800.000	-0.113	0.339
-164.823	60.514	-0.344	0.336
-163.808	-12.452	-0.126	-0.081
-162.793	-26.043	0.166	0.096
-161.779	-200.000	-0.002	0.114
-160.764	-18.218	-0.322	-0.199
-159.750	363.534	-0.089	-0.176
-158.735	800.000	-0.054	-0.226
-157.720	210.450	0.105	0.162
-156.706	67.869	-0.162	-0.164
-155.691	188.748	-0.133	-0.196
-154.677	80.999	0.171	0.182
-153.662	206.674	0.095	0.146
-152.647	-200.000	-0.069	-0.436
-151.633	539.574	-0.082	0.194
-150.618	83.687	-0.111	0.119
-149.604	-113.013	0.106	-0.021
-148.589	-200.000	-0.032	0.276
-147.574	59.092	-0.166	0.161
-146.560	-200.000	-0.010	0.133
-145.545	-158.195	-0.242	-0.014
-144.531	157.559	0.016	0.022
-143.516	-200.000	0.025	-0.391
-142.502	-200.000	0.003	0.041
-141.487	-116.235	-0.102	0.019
-140.472	358.550	0.092	-0.181
-139.458	-79.007	-0.090	-0.030
-138.443	3.449	-0.099	0.071
-137.429	25.349	0.239	-0.196
-136.414	-18.320	-0.096	0.059
-135.399	177.453	-0.112	-0.161
-134.385	-115.434	-0.199	0.037
-133.370	-86.995	0.190	-0.057
-132.356	-115.189	-0.015	0.003
-131.341	-200.000	-0.003	-0.064
-130.326	800.000	-0.027	0.080
-129.312	-79.766	-0.132	0.044
-128.297	223.864	0.085	0.135
-127.283	530.622	-0.015	-0.034
-126.268	716.523	0.116	0.303
-125.253	165.219	0.304	0.423
-124.239	-135.293	-0.280	-0.033
-123.224	800.000	-0.013	-0.042
-122.210	-52.619	0.417	0.190
-121.195	-16.589	-0.222	-0.138
-120.180	-8.840	0.092	-0.061
-119.166	502.566	-0.137	0.313
-118.151	-200.000	-0.009	-0.313
-117.137	-200.000	-0.027	0.184
-116.122	7.254	-0.140	-0.103
-115.107	-200.000	0.042	-0.256
-114.093	100.124	-0.231	-0.264
-113.078	-200.000	0.006	0.121
-112.064	800.000	0.049	0.160
-111.049	323.478	0.091	-0.171
-110.034	-138.760	0.158	0.017
-109.020	-25.114	0.351	0.205
-108.005	800.000	-0.100	0.400
-106.991	16.917	0.220	-0.171
-105.976	800.000	-0.088	-0.273
-104.962	800.000	0.056	-0.158
-103.947	93.749	-0.258	-0.288
-102.932	74.426	0.172	-0.178
-101.918	-121.326	-0.256	0.042
-100.903	25.178	-0.194	0.159
-99.889	-200.000	0.005	0.172
-98.874	-200.000	0.035	0.292
-97.859	-61.644	-0.129	0.053
-96.845	0.640	-0.020	0.014
-95.830	248.447	0.202	0.337
-94.816	-200.000	-0.058	0.255
-93.801	-200.000	-0.008	-0.158
-92.786	16.815	-0.227	0.177
-91.772	63.388	0.196	-0.193
-90.757	-41.091	-0.087	-0.044
-89.743	-48.920	0.347	0.164
-88.728	-47.409	0.300	0.144
-87.713	326.905	-0.007	0.012
-86.699	-181.717	-0.102	-0.002
-85.684	800.000	-0.072	0.224
-84.670	-200.000	-0.042	-0.451
-83.655	-27.171	-0.187	0.107
-82.640	800.000	-0.061	-0.189
-81.626	52.056	-0.338	-0.317
-80.611	-103.971	0.171	0.039
-79.597	-200.000	-0.029	-0.282
-78.582	137.206	0.229	-0.295
-77.567	-11.521	-0.194	-0.126
-76.553	295.397	-0.092	0.165
-75.538	-103.876	-0.080	-0.019
-74.524	301.618	-0.063	0.114
-73.509	-34.203	-0.154	-0.083
-72.494	307.366	-0.025	-0.046
-71.480	-142.376	0.420	-0.041
-70.465	8.738	0.104	0.077
-69.451	39.465	0.114	-0.101
-68.436	-200.000	-0.021	-0.255
-67.422	-80.870	0.121	-0.039
-66.407	-200.000	-0.038	-0.262
-65.392	-200.000	-0.014	-0.103
-64.378	-80.008	0.276	-0.091
-63.363	-200.000	-0.003	-0.114
-62.349	300.206	0.025	0.046
-61.334	156.827	-0.818	-1.112
-60.319	160.999	0.569	0.783
-59.305	-200.000	-0.171	-0.958
-58.290	76.972	0.851	0.888
-57.276	352.365	0.666	1.298
-56.261	-200.000	116.883	651.611
-55.246	506.748	1539.878	3511.862
-54.232	171.605	2721.355	3842.342
-53.217	97.021	2335.734	2633.826
-52.203	33.270	2078.945	1773.644
-51.188	28.395	1993.965	1657.121
-50.173	27.038	1976.851	1630.656
-49.159	44.670	2037.124	1841.686
-48.144	43.502	2051.580	1844.039
-47.130	28.899	2010.109	1674.860
-46.115	26.691	1999.966	1646.308
-45.100	26.711	1996.539	1643.601
-44.086	26.561	1995.039	1640.941
-43.071	26.574	1991.848	1638.375
-42.057	26.440	1990.151	1635.697
-41.042	26.513	1987.937	1634.475
-40.027	26.554	1985.641	1632.894
-39.013	26.574	1983.366	1631.141
-37.998	26.641	1982.122	1630.648
-36.984	26.562	1980.572	1628.601
-35.969	26.516	1978.584	1626.490
-34.954	26.633	1976.907	1626.095
-33.940	26.547	1976.157	1624.640
-32.925	26.652	1973.717	1623.518
-31.911	26.689	1971.941	1622.318
-30.896	26.702	1969.975	1620.756
-29.881	26.678	1969.493	1620.080
-28.867	26.775	1966.818	1618.680
-27.852	26.725	1965.478	1617.071
-26.838	26.767	1963.260	1615.555
-25.823	26.731	1961.583	1613.790
-24.809	26.692	1959.508	1611.673
-23.794	26.675	1958.218	1610.394
-22.779	26.742	1956.269	1609.318
-21.765	26.684	1954.682	1607.437
-20.750	26.659	1953.452	1606.144
-19.736	26.754	1951.599	1605.396
-18.721	26.726	1949.916	1603.701
-17.706	26.758	1948.192	1602.503
-16.692	26.690	1946.598	1600.526
-15.677	26.675	1944.940	1598.969
-14.663	26.689	1943.984	1598.240
-13.648	26.733	1942.945	1597.708
-12.633	26.685	1941.016	1595.638
-11.619	26.598	1940.185	1594.125
-10.604	26.670	1938.275	1593.127
-9.590	26.651	1937.094	1591.926
-8.575	26.670	1936.156	1591.260
-7.560	26.653	1934.686	1589.841
-6.546	26.731	1932.832	1588.934
-5.531	26.744	1931.541	1587.928
-4.517	26.686	1930.721	1586.677
-3.502	26.665	1930.126	1585.944
-2.487	26.740	1928.021	1584.808
-1.473	26.735	1927.191	1584.015
-0.458	26.746	1922.209	1579.957
0.556	27.482	1903.160	1552.269
1.571	23.456	1884.382	1502.777
2.586	19.696	1907.880	1489.045
3.600	18.657	1944.348	1508.245
4.615	18.253	1937.096	1498.949
5.629	13.956	1835.790	1384.690
6.644	6.769	1721.368	1241.919
7.659	3.528	1688.786	1193.265
8.673	3.240	1686.067	1189.013
9.688	3.308	1684.622	1188.411
10.702	3.319	1683.060	1187.291
11.717	3.353	1679.698	1185.079
12.731	3.755	1678.345	1187.102
13.746	8.645	1690.240	1233.169
14.761	16.252	1706.855	1304.170
15.775	19.997	1713.201	1337.890
16.790	20.191	1712.379	1338.627
17.804	19.355	1709.584	1329.881
18.819	18.391	1706.401	1319.862
19.834	17.689	1703.987	1312.476
20.848	17.512	1702.208	1309.629
21.863	17.404	1700.967	1307.725
22.877	17.127	1700.085	1304.806
23.892	17.014	1698.172	1302.352
24.907	16.874	1697.302	1300.496
25.921	16.837	1696.277	1299.318
26.936	16.871	1694.852	1298.368
27.950	16.856	1694.446	1297.830
28.965	16.931	1693.865	1297.841
29.980	17.028	1692.631	1297.523
30.994	17.046	1692.087	1297.127
32.009	17.183	1691.057	1297.271
33.023	17.221	1689.612	1296.341
34.038	17.339	1688.473	1296.250
35.053	17.232	1687.983	1294.941
36.067	17.168	1686.124	1292.916
37.082	17.080	1685.281	1291.483
38.096	17.142	1683.937	1290.814
39.111	17.240	1682.647	1290.450
40.126	17.043	1683.112	1289.200
41.140	17.133	1681.995	1288.909
42.155	16.940	1680.540	1286.215
43.169	16.778	1679.268	1283.901
44.184	16.714	1677.497	1281.953
45.199	16.689	1676.557	1280.928
46.213	16.688	1675.105	1279.699
47.228	16.738	1674.168	1279.249
48.242	16.956	1672.479	1279.494
49.257	16.978	1671.872	1279.079
50.271	16.983	1670.545	1277.991
51.286	16.947	1669.484	1276.790
52.301	16.962	1668.658	1276.162
53.315	17.002	1666.652	1274.814
54.330	17.006	1665.472	1273.828
55.344	16.857	1663.686	1271.232
56.359	16.845	1661.979	1269.725
57.374	16.797	1661.179	1268.645
58.388	16.792	1660.292	1267.819
59.403	16.799	1658.445	1266.344
60.417	16.682	1657.280	1264.468
61.432	16.665	1656.131	1263.357
62.447	16.700	1654.910	1262.575
63.461	16.704	1653.505	1261.415
64.476	16.599	1652.410	1259.693
65.490	16.537	1651.379	1258.333
66.505	16.538	1649.903	1257.104
67.520	16.466	1648.940	1255.720
68.534	16.700	1647.980	1256.614
69.549	16.579	1646.642	1254.587
70.563	16.611	1645.472	1253.820
71.578	16.614	1644.288	1252.834
72.593	16.526	1643.192	1251.234
73.607	16.426	1641.940	1249.435
74.622	16.316	1641.265	1247.995
75.636	16.475	1639.886	1248.006
76.651	16.480	1639.429	1247.587
77.666	16.424	1639.038	1246.770
78.680	16.485	1637.940	1246.274
79.695	16.503	1636.919	1245.515
80.709	16.496	1636.050	1244.691
81.724	16.577	1635.216	1244.545
82.739	16.693	1634.751	1244.931
83.753	16.709	1633.629	1244.085
84.768	16.828	1632.720	1244.156
85.782	16.883	1632.229	1244.079
86.797	17.052	1631.349	1244.537
87.812	17.092	1630.163	1243.814
88.826	17.072	1628.623	1242.387
89.841	16.967	1627.982	1241.013
90.855	16.988	1626.979	1240.296
91.870	17.059	1625.671	1239.707
92.884	17.121	1625.082	1239.603
93.899	17.107	1624.234	1238.740
94.914	17.135	1622.699	1237.669
95.928	17.196	1621.349	1236.974
96.943	17.186	1619.883	1235.670
97.957	17.123	1618.876	1234.339
98.972	17.098	1616.915	1232.551
99.987	17.066	1615.200	1230.904
101.001	17.028	1614.232	1229.780
102.016	17.081	1612.552	1228.772
103.030	16.961	1611.341	1226.873
104.045	16.959	1610.592	1226.184
105.060	17.093	1608.479	1225.430
106.074	17.020	1607.282	1223.885
107.089	16.850	1605.153	1220.932
108.103	16.735	1603.820	1218.982
109.118	16.601	1602.108	1216.606
110.133	16.531	1600.756	1214.973
111.147	16.604	1599.287	1214.275
112.162	16.574	1598.451	1213.318
113.176	16.623	1596.547	1212.112
114.191	16.687	1595.447	1211.627
115.206	16.695	1594.625	1210.958
116.220	16.752	1592.915	1209.954
117.235	16.736	1591.537	1208.691
118.249	16.804	1589.821	1207.764
119.264	16.704	1589.092	1206.390
120.279	16.606	1587.741	1204.559
121.293	16.579	1586.221	1203.106
122.308	16.509	1584.459	1201.166
123.322	16.516	1582.874	1199.908
124.337	16.447	1581.346	1198.159
125.352	16.463	1580.056	1197.185
126.366	16.540	1578.890	1196.739
127.381	16.501	1577.895	1195.608
128.395	16.456	1577.091	1194.576
129.410	16.457	1575.594	1193.339
130.424	16.465	1574.029	1192.107
131.439	16.549	1572.629	1191.535
132.454	16.616	1571.511	1191.048
133.468	16.638	1570.139	1190.063
134.483	16.586	1569.077	1188.782
135.497	16.741	1567.626	1188.670
136.512	16.732	1566.106	1187.347
137.527	16.658	1565.100	1185.964
138.541	16.707	1563.799	1185.215
139.556	16.767	1562.203	1184.318
140.570	16.807	1560.888	1183.496
141.585	16.869	1559.624	1182.866
142.600	16.969	1558.476	1182.588
143.614	17.109	1557.038	1182.365
144.629	17.121	1556.014	1181.570
145.643	17.119	1555.035	1180.708
146.658	17.199	1553.714	1180.152
147.673	17.059	1552.353	1178.046
148.687	17.021	1550.488	1176.259
149.702	16.967	1549.182	1174.794
150.716	16.809	1547.544	1172.358
151.731	16.866	1545.845	1171.361
152.746	16.854	1544.582	1170.217
153.760	16.822	1543.271	1168.898
154.775	16.861	1542.256	1168.291
155.789	17.003	1541.032	1168.240
156.804	17.023	1539.179	1166.872
157.819	17.034	1538.293	1166.171
158.833	17.101	1537.329	1165.799
159.848	17.194	1535.934	1165.271
160.862	17.214	1535.528	1164.999
161.877	17.263	1534.118	1164.160
162.892	17.196	1532.265	1162.193
163.906	16.977	1530.904	1159.562
164.921	16.849	1529.885	1157.813
165.935	16.894	1528.397	1156.895
166.950	16.932	1527.651	1156.484
167.964	16.938	1526.629	1155.651
168.979	17.023	1525.693	1155.415
169.994	16.988	1524.046	1153.831
171.008	16.927	1523.232	1152.696
172.023	16.990	1522.272	1152.297
173.037	17.162	1520.725	1152.193
174.052	17.160	1520.328	1151.772
175.067	17.231	1519.312	1151.384
176.081	17.188	1517.741	1149.799
177.096	17.043	1515.816	1147.263
178.110	17.021	1514.631	1146.111
179.125	16.911	1514.196	1144.939
180.140	16.956	1513.444	1144.571
181.154	17.060	1511.978	1144.063
182.169	17.152	1510.522	1143.481
183.183	17.148	1509.546	1142.613
184.198	17.235	1509.042	1142.716
185.213	17.325	1507.855	1142.322
186.227	17.317	1506.699	1141.293
187.242	17.258	1506.106	1140.347
188.256	17.339	1504.861	1139.843
189.271	17.394	1503.387	1138.995
190.286	17.496	1502.629	1139.006
191.300	17.423	1501.494	1137.553
192.315	17.144	1499.769	1134.285
193.329	16.992	1498.234	1132.007
194.344	16.991	1497.102	1131.042
195.359	17.001	1496.381	1130.465
196.373	17.107	1495.371	1130.313
197.388	17.247	1493.915	1130.038
198.402	17.325	1493.205	1129.924
199.417	17.381	1492.318	1129.519
200.432	17.628	1491.214	1130.228
201.446	17.662	1490.964	1130.160
202.461	17.689	1489.596	1129.204
203.475	17.770	1488.234	1128.604
204.490	17.714	1487.754	1127.776
205.504	17.709	1486.723	1126.860
206.519	17.595	1485.642	1125.185
207.534	17.381	1484.598	1122.882
208.548	17.512	1482.829	1122.307
209.563	17.448	1482.143	1121.268
210.577	17.533	1480.557	1120.530
211.592	17.451	1480.088	1119.536
212.607	17.570	1479.467	1119.751
213.621	17.752	1478.785	1120.330
214.636	17.808	1477.950	1119.964
215.650	17.698	1476.896	1118.345
216.665	17.623	1475.724	1116.868
217.680	17.761	1475.238	1117.305
218.694	17.917	1474.315	1117.532
219.709	17.908	1473.732	1116.927
220.723	17.968	1472.372	1116.190
221.738	17.888	1471.413	1114.843
222.753	17.824	1470.985	1114.001
223.767	17.793	1470.098	1113.029
224.782	17.713	1468.893	1111.497
225.796	17.809	1468.525	1111.745
226.811	17.901	1467.131	1111.192
227.826	17.909	1466.607	1110.751
228.840	17.883	1465.748	1109.831
229.855	17.861	1464.580	1108.703
230.869	17.802	1463.633	1107.509
231.884	17.849	1462.664	1106.983
232.899	17.785	1461.496	1105.586
233.913	17.807	1459.969	1104.474
234.928	17.711	1458.678	1102.779
235.942	17.663	1457.713	1101.640
236.957	17.735	1456.150	1100.831
237.972	17.662	1455.429	1099.718
238.986	17.684	1453.740	1098.482
240.001	17.626	1453.299	1097.678
241.015	17.760	1452.044	1097.494
242.030	17.691	1451.128	1096.261
243.045	17.827	1449.583	1095.876
244.059	17.803	1448.861	1095.079
245.074	17.816	1448.544	1094.823
246.088	17.860	1447.861	1094.494
247.103	18.007	1446.666	1094.436
248.117	18.046	1446.211	1094.242
249.132	18.147	1444.976	1093.860
250.147	18.163	1444.617	1093.588
251.161	18.366	1444.405	1094.630
252.176	18.461	1443.687	1094.599
253.190	18.429	1443.344	1094.036
254.205	18.491	1442.416	1093.628
255.220	18.674	1441.226	1093.797
256.234	18.648	1440.592	1093.052
257.249	18.604	1440.197	1092.375
258.263	18.610	1438.771	1091.236
259.278	18.585	1437.948	1090.359
260.293	18.563	1437.016	1089.416
261.307	18.725	1436.082	1089.637
262.322	18.658	1435.762	1088.877
263.336	18.736	1434.654	1088.434
264.351	18.831	1433.363	1087.960
265.366	18.754	1432.428	1086.667
266.380	18.752	1432.264	1086.431
267.395	18.860	1431.164	1086.182
268.409	18.742	1430.175	1084.594
269.424	18.750	1428.597	1083.350
270.439	18.704	1427.472	1082.111
271.453	18.603	1426.782	1080.855
272.468	18.625	1426.280	1080.520
273.482	18.688	1425.072	1079.902
274.497	18.557	1424.051	1078.213
275.512	18.593	1423.107	1077.627
276.526	18.528	1422.088	1076.351
277.541	18.648	1421.691	1076.708
278.555	18.657	1420.339	1075.644
279.570	18.648	1419.602	1074.936
280.585	18.641	1418.632	1074.065
281.599	18.826	1417.750	1074.455
282.614	18.971	1417.098	1074.775
283.628	18.852	1415.886	1073.019
284.643	18.701	1414.951	1071.272
285.657	18.714	1413.621	1070.253
286.672	18.772	1413.210	1070.205
287.687	18.721	1411.870	1068.779
288.701	18.698	1411.253	1068.076
289.716	18.688	1410.493	1067.340
290.730	18.692	1409.401	1066.448
291.745	18.744	1408.123	1065.706
292.760	18.840	1407.397	1065.657
293.774	18.838	1406.182	1064.633
294.789	18.816	1405.615	1063.972
295.803	18.951	1404.739	1064.055
296.818	19.103	1403.497	1063.960
297.833	19.005	1402.268	1062.328
298.847	18.783	1401.883	1060.568
299.862	18.843	1400.765	1059.997
300.876	18.770	1400.341	1059.133
301.891	18.839	1398.855	1058.344
302.906	18.945	1398.315	1058.491
303.920	18.926	1397.787	1057.885
304.935	19.076	1396.887	1058.032
305.949	19.162	1396.188	1057.939
306.964	19.199	1395.589	1057.616
307.979	19.324	1394.216	1057.249
308.993	19.322	1392.874	1056.125
310.008	19.192	1392.701	1055.106
311.022	19.144	1391.123	1053.518
312.037	19.288	1390.361	1053.728
313.052	19.266	1389.645	1052.960
314.066	19.204	1388.370	1051.521
315.081	19.070	1387.433	1049.902
316.095	19.045	1385.700	1048.349
317.110	19.006	1384.927	1047.432
318.125	18.993	1383.730	1046.352
319.139	19.045	1383.153	1046.141
320.154	18.965	1382.327	1044.939
321.168	19.060	1381.050	1044.457
322.183	19.038	1379.925	1043.378
323.197	19.015	1379.402	1042.751
324.212	19.000	1378.596	1041.962
325.227	19.102	1377.778	1041.866
326.241	19.114	1376.786	1041.098
327.256	19.169	1375.875	1040.649
328.270	19.112	1375.177	1039.683
329.285	19.168	1373.972	1039.020
330.300	19.100	1373.226	1037.952
331.314	19.134	1372.283	1037.357
332.329	19.216	1370.605	1036.484
333.343	19.139	1370.711	1036.013
334.358	19.103	1369.492	1034.781
335.373	19.215	1368.820	1034.856
336.387	19.336	1368.019	1034.885
337.402	19.338	1367.539	1034.443
338.416	19.306	1366.922	1033.690
339.431	19.378	1365.878	1033.240
340.446	19.437	1365.811	1033.455
341.460	19.444	1364.763	1032.612
342.475	19.634	1363.547	1032.735
343.489	19.671	1362.618	1032.163
344.504	19.694	1361.687	1031.501
345.519	19.763	1360.784	1031.141
346.533	19.779	1359.614	1030.256
347.548	19.784	1358.606	1029.433
348.562	19.976	1357.712	1029.804
349.577	19.878	1357.630	1029.070
350.592	19.755	1356.755	1027.581
351.606	19.653	1355.722	1026.103
352.621	19.562	1354.505	1024.553
353.635	19.540	1353.492	1023.565
354.650	19.508	1352.441	1022.493
355.665	19.486	1351.969	1021.913
356.679	19.478	1350.638	1020.770
357.694	19.705	1348.788	1020.623
358.708	19.638	1348.151	1019.656
359.723	19.765	1346.750	1019.254
360.738	19.780	1346.256	1018.879
361.752	19.772	1344.694	1017.559
362.767	19.719	1344.528	1017.028
363.781	19.767	1343.594	1016.513
364.796	19.810	1342.688	1015.993
365.810	19.824	1341.974	1015.444
366.825	19.888	1341.810	1015.606
367.840	19.893	1340.756	1014.749
368.854	20.039	1340.385	1015.233
369.869	20.133	1339.699	1015.176
370.883	20.196	1339.253	1015.114
371.898	20.108	1338.305	1013.791
372.913	20.030	1337.016	1012.271
373.927	19.979	1336.114	1011.200
374.942	20.011	1335.538	1010.861
375.956	20.032	1335.055	1010.527
376.971	20.166	1334.267	1010.624
377.986	20.156	1332.591	1009.205
379.000	20.206	1331.888	1008.878
380.015	20.201	1331.399	1008.387
381.029	20.309	1331.095	1008.698
382.044	20.165	1330.729	1007.492
383.059	20.319	1329.397	1007.291
384.073	20.340	1328.930	1006.969
385.088	20.320	1328.145	1006.166
386.102	20.358	1327.317	1005.671
387.117	20.368	1326.447	1004.983
388.132	20.310	1325.808	1004.072
389.146	20.153	1324.698	1002.234
390.161	20.168	1323.880	1001.615
391.175	20.172	1323.090	1000.952
392.190	20.167	1322.546	1000.423
393.205	20.208	1321.640	999.882
394.219	20.335	1320.867	999.942
395.234	20.439	1319.117	999.131
396.248	20.323	1317.913	997.462
397.263	20.356	1316.532	996.521
398.278	20.263	1315.054	994.777
399.292	20.237	1313.832	993.615
400.307	20.124	1312.848	992.136
401.321	19.988	1311.833	990.502
402.336	20.008	1311.235	990.079
403.350	20.051	1310.106	989.388
404.365	20.125	1308.883	988.795
405.380	20.153	1308.210	988.361
406.394	20.164	1307.590	987.866
407.409	20.165	1307.166	987.463
408.423	20.230	1306.450	987.207
409.438	20.507	1305.251	987.790
410.453	20.548	1304.773	987.572
411.467	20.660	1304.212	987.695
412.482	20.528	1303.882	986.611
413.496	20.659	1303.044	986.630
414.511	20.768	1302.133	986.473
415.526	20.830	1301.162	986.001
416.540	20.873	1300.622	985.745
417.555	20.896	1300.340	985.576
418.569	20.879	1299.423	984.696
419.584	20.849	1299.214	984.284
420.599	20.790	1298.109	983.024
421.613	145.439	1435.178	1796.570
422.628	140.666	1455.121	1796.636
