DTS Sentinel unit serial number:	SN413079Multiplexer serial number:	ORYXHardware model number:	OX4-SRSoftware version number:	ORYX F/W v4.00 Oryx Data Collector v3.7.2.0data status	okinstallation	princeton_trtdifferential loss correction	single-endedforward channel	channel 4reverse channel	N/Adate	2019/09/15time	05:13:35forward acquisition time	60.00reverse acquisition time	0.00gamma	496.2192k internal	0.2312k external	0.2312temperature offset calibration	1.0036default loss term (dB/km)	0.3790temperature slope calibration	1.0000multiplexer offset coefficient	1.0000multiplexer slope coefficient	1.0000fibre end	0.00T internal ref (°C)	30.62T ext. ref 1 (°C)	4.78T ext. ref 2 (°C)	25.37length (m)	temperature (°C)	Stokes	anti-Stokes-747.200	-135.435	-0.382	-0.046
-746.185	-123.564	0.224	-0.036
-745.171	-94.573	-0.249	0.069
-744.156	-133.940	-0.535	-0.067
-743.142	-126.381	0.260	-0.039
-742.127	352.993	0.219	0.440
-741.112	357.619	-0.043	0.088
-740.098	-200.000	-0.131	0.635
-739.083	800.000	-0.090	0.258
-738.069	-140.671	0.353	-0.037
-737.054	-69.031	-0.262	-0.102
-736.039	26.287	-0.514	-0.435
-735.025	-27.311	0.160	0.095
-734.010	9.382	0.191	0.146
-732.996	237.304	-0.096	-0.161
-731.981	-200.000	0.006	-0.206
-730.966	211.161	-0.238	-0.380
-729.952	125.007	-0.119	-0.153
-728.937	203.071	0.120	-0.189
-727.923	-200.000	-0.001	-0.221
-726.908	-200.000	-0.031	0.242
-725.894	242.883	-0.079	0.133
-724.879	800.000	0.019	-0.055
-723.864	-104.625	-0.131	-0.031
-722.850	800.000	-0.022	0.066
-721.835	-200.000	0.053	-0.303
-720.821	-200.000	0.018	-0.240
-719.806	97.174	0.124	0.144
-718.791	-74.265	0.165	-0.061
-717.777	368.617	0.135	-0.278
-716.762	102.620	-0.178	-0.211
-715.748	-41.912	0.324	0.168
-714.733	204.626	-0.207	-0.326
-713.718	-200.000	0.004	0.451
-712.704	-46.920	-0.268	0.133
-711.689	800.000	-0.065	0.194
-710.675	-21.623	0.045	0.028
-709.660	-200.000	0.029	-0.298
-708.645	800.000	0.097	0.281
-707.631	-165.624	-0.445	-0.020
-706.616	-96.979	-0.033	-0.009
-705.602	-200.000	0.043	-0.196
-704.587	-135.886	0.081	0.010
-703.572	317.032	-0.150	-0.287
-702.558	101.245	0.164	-0.194
-701.543	465.425	-0.135	0.307
-700.529	-101.483	-0.225	-0.056
-699.514	-200.000	-0.092	-0.468
-698.499	211.097	-0.129	-0.205
-697.485	-200.000	0.051	0.344
-696.470	-106.965	0.429	-0.096
-695.456	-25.891	0.134	0.080
-694.441	-172.914	0.179	-0.006
-693.426	394.987	-0.022	0.046
-692.412	50.932	0.133	-0.128
-691.397	-22.899	0.099	-0.060
-690.383	418.883	-0.097	0.211
-689.368	-14.110	-0.308	-0.201
-688.354	-104.533	-0.191	-0.045
-687.339	48.001	0.221	-0.209
-686.324	-40.816	-0.292	-0.153
-685.310	657.532	-0.088	0.230
-684.295	329.606	-0.104	0.202
-683.281	-116.968	-0.145	0.027
-682.266	146.467	-0.161	-0.219
-681.251	91.985	0.091	0.104
-680.237	-101.568	-0.130	-0.032
-679.222	800.000	0.048	-0.167
-678.208	-187.688	-0.033	-0.000
-677.193	560.666	0.092	0.225
-676.178	-20.162	-0.083	0.052
-675.164	800.000	-0.102	-0.400
-674.149	-153.745	-0.226	-0.016
-673.135	-155.450	-0.355	-0.023
-672.120	800.000	-0.124	0.470
-671.105	12.158	0.336	0.262
-670.091	-105.049	-0.163	-0.038
-669.076	337.406	-0.152	-0.298
-668.062	800.000	0.083	-0.272
-667.047	786.108	0.025	-0.068
-666.032	-200.000	-0.013	-0.349
-665.018	-152.522	0.225	0.016
-664.003	-57.455	0.181	0.080
-662.989	-87.246	0.125	-0.039
-661.974	-22.067	0.179	0.110
-660.959	-59.890	0.376	0.163
-659.945	66.199	0.016	0.017
-658.930	279.672	0.051	0.093
-657.916	474.717	-0.158	0.360
-656.901	800.000	0.028	-0.110
-655.886	120.116	0.203	-0.255
-654.872	-35.573	0.237	-0.130
-653.857	8.773	0.036	-0.027
-652.843	-200.000	-0.021	0.201
-651.828	-200.000	-0.039	-0.231
-650.814	-62.000	0.107	-0.045
-649.799	326.890	-0.126	-0.243
-648.784	800.000	0.042	0.151
-647.770	12.530	0.279	-0.217
-646.755	63.531	-0.071	-0.072
-645.741	42.948	0.188	-0.173
-644.726	-200.000	0.049	0.262
-643.711	578.912	-0.107	-0.265
-642.697	-200.000	-0.012	0.377
-641.682	800.000	-0.105	-0.425
-640.668	-153.010	0.042	0.003
-639.653	-154.700	0.133	0.009
-638.638	-14.841	-0.399	0.259
-637.624	800.000	-0.100	-0.318
-636.609	-98.573	-0.195	0.050
-635.595	-55.050	0.307	0.140
-634.580	118.047	-0.101	-0.126
-633.565	-153.998	0.265	-0.018
-632.551	-21.968	-0.401	-0.246
-631.536	-23.409	-0.187	-0.114
-630.522	562.578	-0.028	-0.068
-629.507	-16.940	0.250	0.160
-628.492	732.431	0.079	-0.213
-627.478	-107.837	0.133	0.029
-626.463	-25.834	0.201	-0.119
-625.449	-117.033	-0.134	-0.025
-624.434	176.762	0.107	0.158
-623.419	-28.242	0.293	-0.171
-622.405	-20.436	0.181	0.113
-621.390	47.974	-0.060	0.057
-620.376	-200.000	0.001	-0.051
-619.361	800.000	-0.086	0.263
-618.346	-200.000	-0.013	-0.240
-617.332	-73.254	-0.172	0.063
-616.317	-166.240	-0.118	-0.005
-615.303	800.000	0.053	0.189
-614.288	106.556	0.140	0.168
-613.273	120.295	0.108	-0.135
-612.259	800.000	-0.074	-0.321
-611.244	-33.539	-0.293	-0.164
-610.230	-200.000	-0.032	-0.389
-609.215	121.094	0.150	-0.189
-608.201	159.804	0.181	-0.254
-607.186	390.032	0.059	0.123
-606.171	-200.000	0.003	0.055
-605.157	663.597	0.023	-0.061
-604.142	800.000	0.011	0.040
-603.128	800.000	0.082	-0.276
-602.113	320.843	-0.048	0.092
-601.098	165.370	-0.027	0.038
-600.084	-51.830	0.387	0.182
-599.069	57.098	0.149	0.146
-598.055	-200.000	-0.013	0.060
-597.040	800.000	0.035	-0.143
-596.025	6.521	0.104	-0.078
-595.011	-109.172	0.162	0.035
-593.996	-17.254	-0.078	0.049
-592.982	800.000	0.046	-0.133
-591.967	-142.882	-0.262	-0.026
-590.952	443.595	-0.088	-0.194
-589.938	-16.864	0.093	0.059
-588.923	-141.258	-0.140	0.014
-587.909	-101.153	0.114	0.028
-586.894	14.023	-0.202	-0.159
-585.879	-148.286	-0.225	-0.019
-584.865	-166.823	0.318	-0.013
-583.850	-200.000	0.038	-0.361
-582.836	-33.392	-0.057	0.032
-581.821	185.130	0.089	-0.133
-580.806	383.858	0.154	-0.319
-579.792	-95.946	0.190	0.051
-578.777	-97.724	-0.040	-0.011
-577.763	-115.868	-0.264	0.050
-576.748	674.273	-0.031	0.081
-575.733	-200.000	0.002	-0.076
-574.719	-65.443	-0.296	0.120
-573.704	14.373	-0.245	-0.193
-572.690	-48.630	0.282	-0.137
-571.675	273.214	-0.093	-0.165
-570.661	800.000	-0.064	0.223
-569.646	143.780	0.014	0.019
-568.631	800.000	0.045	0.126
-567.617	766.436	-0.139	-0.381
-566.602	-118.434	-0.232	-0.042
-565.588	-66.579	0.257	-0.103
-564.573	800.000	0.093	-0.278
-563.558	-200.000	-0.035	-0.271
-562.544	-92.848	-0.161	-0.045
-561.529	-200.000	-0.005	0.323
-560.515	-180.886	-0.247	-0.005
-559.500	-2.258	-0.086	-0.061
-558.485	757.856	-0.103	-0.281
-557.471	194.133	-0.088	0.135
-556.456	229.232	-0.157	-0.259
-555.442	144.803	-0.121	-0.163
-554.427	312.036	-0.134	-0.252
-553.412	22.925	0.106	0.087
-552.398	-200.000	0.001	0.190
-551.383	800.000	0.053	-0.219
-550.369	80.111	0.126	-0.137
-549.354	22.093	0.189	0.155
-548.339	-200.000	-0.046	-0.380
-547.325	-57.287	0.288	0.128
-546.310	-58.334	0.209	0.092
-545.296	234.309	0.108	-0.179
-544.281	49.915	-0.106	0.100
-543.266	-200.000	0.043	0.303
-542.252	-79.352	0.177	0.060
-541.237	-33.233	0.127	-0.071
-540.223	511.750	-0.062	-0.145
-539.208	84.949	0.053	-0.058
-538.193	162.850	-0.161	-0.228
-537.179	20.831	0.273	-0.223
-536.164	-99.335	0.220	0.056
-535.150	-78.736	0.185	0.063
-534.135	-98.828	0.353	0.090
-533.121	57.852	0.078	0.077
-532.106	0.311	-0.178	-0.128
-531.091	279.827	-0.165	0.296
-530.077	-193.104	0.364	-0.003
-529.062	-133.648	-0.092	0.012
-528.048	276.475	0.208	0.372
-527.033	-200.000	-0.068	0.362
-526.018	-200.000	0.041	0.267
-525.004	108.874	-0.151	0.181
-523.989	-108.024	0.202	-0.044
-522.975	209.377	0.081	0.127
-521.960	340.218	0.172	0.338
-520.945	125.971	-0.125	-0.159
-519.931	-40.991	0.256	-0.133
-518.916	-200.000	-0.054	-0.581
-517.902	-10.898	-0.171	-0.114
-516.887	-72.641	0.148	-0.055
-515.872	33.906	-0.176	-0.154
-514.858	463.466	0.083	-0.186
-513.843	-130.374	0.127	0.017
-512.829	-200.000	-0.037	-0.261
-511.814	90.385	-0.104	-0.117
-510.799	181.368	-0.052	-0.077
-509.785	-81.845	0.147	-0.048
-508.770	-56.127	-0.141	0.063
-507.756	-161.454	0.106	0.005
-506.741	800.000	0.091	0.335
-505.726	688.797	0.089	0.235
-504.712	63.801	-0.178	0.180
-503.697	341.185	-0.040	0.079
-502.683	800.000	-0.117	0.344
-501.668	692.804	0.043	0.114
-500.653	60.132	-0.165	-0.164
-499.639	-198.279	0.051	-0.000
-498.624	-109.227	0.320	0.068
-497.610	259.088	0.134	0.232
-496.595	-200.000	-0.025	0.154
-495.581	47.720	-0.322	0.302
-494.566	-139.183	0.171	-0.019
-493.551	-95.694	-0.273	0.073
-492.537	194.262	-0.089	0.135
-491.522	-15.836	-0.256	0.164
-490.508	82.046	-0.078	-0.085
-489.493	-200.000	0.003	-0.062
-488.478	-25.460	-0.253	0.150
-487.464	-113.889	0.081	-0.016
-486.449	-118.197	-0.075	-0.013
-485.435	-30.032	0.189	0.108
-484.420	-90.249	0.130	0.038
-483.405	-200.000	0.004	-0.081
-482.391	-200.000	-0.037	0.193
-481.376	40.324	-0.128	0.115
-480.362	123.147	-0.176	0.222
-479.347	692.228	-0.092	-0.241
-478.332	684.278	-0.018	0.048
-477.318	-52.109	-0.184	-0.086
-476.303	-109.853	-0.396	0.083
-475.289	-147.344	0.172	0.015
-474.274	-130.734	-0.336	0.045
-473.259	-78.274	0.396	-0.137
-472.245	-200.000	0.003	0.081
-471.230	212.402	-0.075	-0.119
-470.216	-200.000	0.010	-0.188
-469.201	251.420	0.147	0.252
-468.186	195.874	-0.070	0.107
-467.172	-128.526	0.424	-0.060
-466.157	89.272	0.128	0.143
-465.143	-200.000	-0.026	0.392
-464.128	-65.917	-0.270	-0.108
-463.113	5.992	0.124	0.092
-462.099	-200.000	-0.013	-0.268
-461.084	-76.874	0.151	-0.053
-460.070	800.000	-0.043	0.167
-459.055	95.799	0.138	0.158
-458.040	203.778	0.090	0.140
-457.026	-80.031	0.177	0.059
-456.011	-56.326	-0.060	0.027
-454.997	50.681	0.301	-0.286
-453.982	-13.942	-0.139	-0.090
-452.968	-150.161	0.175	0.014
-451.953	800.000	-0.091	-0.302
-450.938	141.676	-0.178	0.237
-449.924	-146.669	0.254	-0.022
-448.909	211.677	-0.058	0.092
-447.895	-200.000	0.310	-0.001
-446.880	-111.819	0.124	-0.025
-445.865	-35.327	0.172	-0.094
-444.851	-200.000	0.062	-0.281
-443.836	-50.966	-0.175	0.083
-442.822	-176.497	0.126	0.003
-441.807	-200.000	0.006	-0.324
-440.792	800.000	0.068	-0.204
-439.778	242.929	0.102	-0.172
-438.763	360.651	-0.165	-0.332
-437.749	-200.000	0.001	-0.182
-436.734	-78.813	0.347	0.119
-435.719	331.082	-0.074	-0.144
-434.705	800.000	0.058	0.172
-433.690	-135.635	0.193	0.023
-432.676	285.850	-0.191	0.346
-431.661	-159.200	0.391	-0.022
-430.646	-200.000	0.023	0.147
-429.632	-50.372	-0.073	-0.035
-428.617	-108.018	0.224	-0.049
-427.603	305.720	-0.154	0.287
-426.588	-200.000	-0.050	-0.370
-425.573	-133.062	-0.186	-0.024
-424.559	20.319	-0.128	0.104
-423.544	49.064	0.111	0.105
-422.530	-133.008	0.227	0.029
-421.515	386.848	-0.153	0.316
-420.500	-154.915	0.236	0.016
-419.486	-90.903	0.105	0.030
-418.471	-200.000	-0.023	-0.279
-417.457	-143.440	0.437	-0.042
-416.442	-75.640	0.219	-0.078
-415.428	800.000	0.109	-0.323
-414.413	-200.000	-0.332	-0.001
-413.398	-200.000	-0.006	0.051
-412.384	459.233	0.063	-0.141
-411.369	-74.343	0.283	-0.102
-410.355	8.259	-0.322	-0.243
-409.340	568.668	-0.048	0.116
-408.325	512.659	0.046	-0.107
-407.311	-111.515	0.188	-0.038
-406.296	14.630	0.162	-0.127
-405.282	-120.508	0.137	0.023
-404.267	273.218	-0.243	0.430
-403.252	495.341	0.037	-0.086
-402.238	229.747	-0.119	-0.194
-401.223	-143.851	-0.199	-0.019
-400.209	-7.610	-0.373	-0.253
-399.194	-200.000	0.017	-0.142
-398.179	800.000	-0.036	0.102
-397.165	-129.162	-0.146	0.020
-396.150	328.353	-0.103	0.197
-395.136	-153.498	0.263	0.018
-394.121	47.639	-0.137	-0.127
-393.106	-109.120	0.136	-0.029
-392.092	-200.000	0.008	-0.130
-391.077	-22.374	0.086	0.052
-390.063	800.000	-0.030	-0.126
-389.048	-200.000	-0.032	0.265
-388.033	-200.000	-0.006	0.030
-387.019	-58.077	0.274	-0.120
-386.004	253.847	0.109	-0.186
-384.990	-119.582	-0.274	-0.047
-383.975	92.803	-0.106	-0.120
-382.960	-200.000	0.134	-0.000
-381.946	58.136	-0.090	0.088
-380.931	800.000	-0.030	-0.127
-379.917	800.000	-0.078	0.236
-378.902	-39.912	0.153	-0.080
-377.888	-200.000	0.024	-0.138
-376.873	17.692	0.126	-0.100
-375.858	100.640	-0.061	-0.071
-374.844	-36.213	0.188	-0.101
-373.829	-200.000	-0.038	0.220
-372.815	290.110	0.132	-0.239
-371.800	-153.426	-0.100	0.007
-370.785	-12.277	0.189	-0.124
-369.771	-146.637	0.162	-0.014
-368.756	-71.552	-0.125	0.047
-367.742	-29.558	-0.240	0.137
-366.727	-40.070	-0.260	0.135
-365.712	-88.765	-0.223	0.066
-364.698	21.121	-0.070	0.057
-363.683	-63.308	0.238	0.098
-362.669	170.325	0.109	0.157
-361.654	555.891	-0.067	0.161
-360.639	-146.421	0.187	0.016
-359.625	-200.000	-0.002	0.039
-358.610	800.000	-0.130	-0.476
-357.596	82.033	0.094	-0.102
-356.581	-125.450	0.131	0.020
-355.566	221.509	-0.185	-0.298
-354.552	-28.383	-0.092	-0.053
-353.537	-0.145	-0.177	-0.126
-352.523	356.305	-0.075	0.149
-351.508	-200.000	0.007	0.077
-350.493	10.491	-0.161	-0.122
-349.479	-139.765	0.219	0.023
-348.464	-109.573	-0.367	0.077
-347.450	-128.568	-0.044	0.006
-346.435	-200.000	-0.006	0.124
-345.420	-119.244	-0.145	-0.025
-344.406	800.000	0.015	0.063
-343.391	21.946	-0.239	-0.195
-342.377	127.652	0.151	0.192
-341.362	34.491	-0.146	0.127
-340.348	-129.476	-0.336	-0.047
-339.333	800.000	0.027	-0.112
-338.318	142.262	0.194	0.257
-337.304	-32.427	0.110	0.062
-336.289	-33.871	0.355	0.195
-335.275	-142.725	0.145	0.014
-334.260	26.320	-0.275	-0.229
-333.245	230.221	-0.146	-0.239
-332.231	-112.105	-0.130	-0.026
-331.216	-120.145	0.184	-0.031
-330.202	225.885	-0.160	-0.259
-329.187	-200.000	0.041	0.312
-328.172	13.051	-0.125	-0.096
-327.158	78.578	0.176	-0.188
-326.143	-139.771	-0.073	-0.008
-325.129	-112.582	-0.396	-0.079
-324.114	220.778	-0.148	0.236
-323.099	-131.344	-0.354	0.047
-322.085	800.000	0.077	0.271
-321.070	230.351	-0.119	0.194
-320.056	-200.000	-0.051	0.268
-319.041	-149.565	0.045	-0.004
-318.026	491.179	-0.037	0.084
-317.012	122.768	-0.097	0.121
-315.997	365.500	0.095	-0.191
-314.983	-200.000	-0.005	-0.097
-313.968	91.897	0.202	-0.227
-312.953	-200.000	0.022	0.405
-311.939	-200.000	0.049	0.503
-310.924	-85.707	-0.071	0.022
-309.910	725.565	-0.104	-0.278
-308.895	-150.605	-0.243	-0.019
-307.880	-67.531	0.132	0.052
-306.866	-200.000	-0.024	-0.320
-305.851	13.877	0.216	0.167
-304.837	-115.537	-0.387	0.073
-303.822	-7.801	-0.071	-0.048
-302.807	800.000	0.069	0.291
-301.793	-184.077	-0.232	0.004
-300.778	-43.054	-0.261	0.132
-299.764	-52.721	0.303	-0.139
-298.749	65.754	-0.254	-0.257
-297.735	-13.050	0.134	-0.087
-296.720	-200.000	0.002	0.194
-295.705	800.000	-0.084	-0.238
-294.691	184.528	0.112	0.166
-293.676	-83.842	-0.108	-0.034
-292.662	-143.654	0.236	-0.022
-291.647	50.997	0.046	-0.044
-290.632	-1.941	0.036	-0.025
-289.618	74.218	-0.105	0.110
-288.603	133.747	-0.185	0.239
-287.589	-119.854	-0.194	-0.033
-286.574	-24.320	0.158	-0.094
-285.559	227.561	0.144	-0.234
-284.545	47.340	-0.253	0.235
-283.530	104.262	-0.132	-0.155
-282.516	-107.159	0.290	0.064
-281.501	372.799	-0.059	-0.119
-280.486	-200.000	-0.035	-0.183
-279.472	300.762	0.078	0.144
-278.457	800.000	0.129	0.415
-277.443	18.984	-0.166	0.132
-276.428	-57.196	-0.239	-0.105
-275.413	4.594	0.142	-0.104
-274.399	545.742	-0.080	0.192
-273.384	-200.000	0.015	0.223
-272.370	595.621	0.061	-0.151
-271.355	64.422	-0.326	-0.327
-270.340	-200.000	0.064	-0.316
-269.326	-65.318	-0.420	0.168
-268.311	-20.132	0.183	-0.113
-267.297	-53.044	0.256	-0.117
-266.282	-79.553	-0.167	-0.056
-265.267	800.000	-0.085	0.263
-264.253	-99.662	0.245	0.061
-263.238	-4.053	0.208	0.143
-262.224	678.771	-0.119	-0.310
-261.209	520.745	0.087	0.203
-260.195	-200.000	-0.032	0.222
-259.180	800.000	0.088	-0.251
-258.165	800.000	0.074	-0.211
-257.151	-200.000	-0.011	0.062
-256.136	735.246	0.082	0.217
-255.122	-200.000	-0.069	-0.532
-254.107	-200.000	-0.030	0.227
-253.092	-200.000	-0.025	0.352
-252.078	-28.581	0.103	0.059
-251.063	-103.258	0.208	0.049
-250.049	800.000	-0.107	0.389
-249.034	-200.000	-0.016	0.351
-248.019	184.762	0.086	-0.126
-247.005	-200.000	0.003	0.033
-245.990	-141.809	0.113	-0.011
-244.976	800.000	0.071	-0.212
-243.961	-0.608	-0.195	0.138
-242.946	-63.592	-0.421	0.172
-241.932	-200.000	-0.015	-0.130
-240.917	-62.165	-0.298	0.124
-239.903	-2.277	-0.107	-0.075
-238.888	-200.000	-0.017	0.075
-237.873	-150.784	0.316	0.024
-236.859	-125.503	0.383	0.058
-235.844	-200.000	0.011	0.318
-234.830	6.879	-0.278	-0.206
-233.815	16.619	-0.123	-0.097
-232.800	108.136	-0.247	-0.293
-231.786	708.519	-0.164	0.431
-230.771	-200.000	0.046	-0.221
-229.757	-200.000	-0.007	0.085
-228.742	205.053	0.056	0.086
-227.727	-109.999	-0.288	0.060
-226.713	47.327	-0.109	-0.101
-225.698	108.797	-0.155	0.184
-224.684	-88.898	-0.222	-0.066
-223.669	-200.000	-0.003	0.019
-222.655	-7.340	0.186	0.125
-221.640	-46.034	0.097	0.048
-220.625	-200.000	0.019	0.178
-219.611	-81.913	-0.304	0.099
-218.596	-200.000	0.062	-0.321
-217.582	271.897	0.094	0.164
-216.567	235.722	0.120	0.197
-215.552	-200.000	0.023	0.121
-214.538	-139.907	0.380	0.040
-213.523	314.738	-0.125	-0.235
-212.509	-68.619	-0.199	0.077
-211.494	800.000	0.104	-0.343
-210.479	339.280	0.099	0.191
-209.465	-200.000	0.018	0.180
-208.450	-8.981	0.224	-0.149
-207.436	394.389	-0.135	-0.280
-206.421	116.181	0.190	0.231
-205.406	-12.028	0.130	-0.084
-204.392	-200.000	0.023	0.270
-203.377	-155.023	0.061	0.004
-202.363	-111.263	-0.153	-0.031
-201.348	664.028	0.081	0.208
-200.333	-130.794	-0.286	-0.038
-199.319	78.574	-0.091	-0.097
-198.304	89.059	0.148	-0.164
-197.290	-200.000	-0.005	-0.046
-196.275	75.586	0.060	-0.063
-195.260	-113.861	0.177	-0.034
-194.246	11.089	-0.137	-0.104
-193.231	84.921	-0.163	0.177
-192.217	-83.826	0.193	0.061
-191.202	-24.525	-0.149	0.088
-190.187	800.000	-0.054	-0.209
-189.173	-67.926	-0.238	-0.092
-188.158	2.467	-0.322	0.232
-187.144	451.446	-0.096	0.210
-186.129	-55.382	-0.133	0.059
-185.114	-200.000	0.023	0.300
-184.100	-35.752	0.221	0.119
-183.085	-109.770	-0.229	-0.048
-182.071	-55.566	-0.175	0.078
-181.056	-77.477	-0.250	0.086
-180.042	98.656	-0.190	0.218
-179.027	-200.000	0.018	0.134
-178.012	428.213	0.133	0.285
-176.998	-99.256	0.167	0.042
-175.983	-75.523	0.507	-0.179
-174.969	751.416	-0.018	0.049
-173.954	-41.035	0.278	-0.143
-172.939	-44.774	0.181	0.090
-171.925	-200.000	0.008	0.219
-170.910	800.000	-0.054	-0.189
-169.896	269.610	0.085	-0.149
-168.881	479.921	-0.016	0.036
-167.866	358.948	-0.127	0.252
-166.852	362.352	0.119	-0.238
-165.837	117.432	-0.107	0.131
-164.823	374.704	-0.094	0.190
-163.808	-44.065	0.137	-0.068
-162.793	140.872	-0.097	0.127
-161.779	317.774	-0.139	-0.262
-160.764	-50.172	0.418	0.196
-159.750	95.364	-0.151	-0.171
-158.735	18.920	-0.144	-0.115
-157.720	-200.000	0.045	0.210
-156.706	-24.318	0.081	0.048
-155.691	-86.062	-0.125	0.038
-154.677	800.000	0.079	-0.293
-153.662	116.489	0.101	-0.123
-152.647	768.689	0.103	0.279
-151.633	800.000	-0.088	0.306
-150.618	767.480	-0.136	-0.366
-149.604	33.082	0.246	-0.211
-148.589	103.272	-0.245	-0.284
-147.574	93.991	0.088	0.099
-146.560	-200.000	0.033	0.292
-145.545	-156.754	0.242	-0.015
-144.531	-175.777	0.151	0.004
-143.516	-61.747	-0.145	-0.060
-142.502	235.019	0.109	0.178
-141.487	800.000	-0.025	-0.110
-140.472	-200.000	0.018	-0.181
-139.458	800.000	0.084	-0.311
-138.443	82.428	-0.284	-0.306
-137.429	250.632	0.221	-0.373
-136.414	768.823	0.063	-0.169
-135.399	-39.466	-0.272	-0.141
-134.385	140.382	0.155	-0.203
-133.370	-107.780	0.012	0.003
-132.356	-77.442	0.177	0.061
-131.341	-52.980	-0.186	-0.085
-130.326	142.274	0.221	-0.290
-129.312	-179.201	-0.120	-0.003
-128.297	118.936	-0.190	-0.233
-127.283	-91.410	0.290	0.082
-126.268	385.514	-0.086	-0.176
-125.253	800.000	-0.089	0.283
-124.239	77.592	0.250	-0.264
-123.224	-92.897	0.079	-0.022
-122.210	-136.070	-0.380	0.044
-121.195	-3.244	-0.142	0.098
-120.180	144.303	0.160	-0.212
-119.166	-127.738	0.213	0.030
-118.151	686.364	-0.099	0.257
-117.137	-82.022	0.529	0.171
-116.122	4.879	0.314	0.229
-115.107	45.710	0.258	0.236
-114.093	33.770	0.160	-0.138
-113.078	213.742	0.187	-0.293
-112.064	-98.093	-0.239	-0.061
-111.049	-88.613	0.210	0.062
-110.034	-200.000	0.059	-0.445
-109.020	-200.000	0.023	0.192
-108.005	800.000	-0.068	-0.203
-106.991	295.920	-0.132	-0.239
-105.976	-200.000	-0.022	0.136
-104.962	218.931	-0.112	0.177
-103.947	-12.827	-0.295	0.190
-102.932	-66.549	0.233	0.092
-101.918	-110.923	-0.350	-0.071
-100.903	-200.000	0.004	-0.056
-99.889	-51.909	0.179	0.082
-98.874	-147.542	0.225	-0.019
-97.859	-11.163	0.207	0.135
-96.845	139.100	-0.065	0.084
-95.830	330.840	-0.104	-0.199
-94.816	430.238	0.152	-0.326
-93.801	-46.227	-0.240	-0.117
-92.786	-130.890	-0.164	0.022
-91.772	132.911	0.280	-0.358
-90.757	22.392	-0.121	-0.098
-89.743	161.668	0.155	-0.215
-88.728	257.666	0.022	-0.037
-87.713	-200.000	-0.022	0.441
-86.699	-32.316	-0.208	0.115
-85.684	253.638	-0.134	0.226
-84.670	-127.447	-0.129	0.019
-83.655	-200.000	0.033	0.250
-82.640	-55.127	0.315	-0.140
-81.626	70.639	0.295	0.302
-80.611	-48.658	-0.336	-0.160
-79.597	25.484	-0.284	0.233
-78.582	238.689	0.181	0.297
-77.567	-128.677	-0.475	-0.066
-76.553	800.000	0.051	0.191
-75.538	-104.797	-0.320	0.073
-74.524	147.034	0.178	0.237
-73.509	-200.000	0.186	0.000
-72.494	-31.999	-0.408	-0.225
-71.480	800.000	-0.096	0.317
-70.465	121.577	0.165	0.203
-69.451	-200.000	-0.027	0.149
-68.436	63.845	0.044	0.044
-67.422	-78.835	-0.099	0.034
-66.407	-200.000	-0.036	0.362
-65.392	145.504	0.222	0.294
-64.378	-184.801	0.065	-0.001
-63.363	33.155	-0.028	0.024
-62.349	-80.061	-0.143	0.047
-61.334	217.045	-0.627	-0.987
-60.319	231.808	0.366	0.594
-59.305	150.303	-0.660	-0.885
-58.290	457.525	0.563	1.237
-57.276	348.136	0.649	1.265
-56.261	-200.000	102.814	586.842
-55.246	542.847	1434.873	3380.794
-54.232	183.532	2632.207	3843.393
-53.217	105.553	2313.846	2701.121
-52.203	37.059	2067.091	1806.775
-51.188	32.276	1980.839	1688.482
-50.173	30.794	1962.780	1659.826
-49.159	46.327	2017.100	1846.598
-48.144	47.138	2034.742	1870.021
-47.130	32.915	1994.357	1705.508
-46.115	30.669	1983.401	1675.868
-45.100	30.516	1980.830	1672.253
-44.086	30.561	1978.328	1670.479
-43.071	30.503	1975.445	1667.455
-42.057	30.507	1973.400	1665.704
-41.042	30.450	1971.928	1663.883
-40.027	30.544	1969.487	1662.597
-39.013	30.532	1967.688	1660.906
-37.998	30.522	1965.800	1659.159
-36.984	30.550	1963.675	1657.547
-35.969	30.566	1962.098	1656.288
-34.954	30.607	1960.080	1654.889
-33.940	30.562	1958.884	1653.416
-32.925	30.654	1956.991	1652.569
-31.911	30.545	1955.893	1650.605
-30.896	30.585	1954.263	1649.521
-29.881	30.651	1952.532	1648.579
-28.867	30.633	1951.380	1647.378
-27.852	30.680	1949.027	1645.742
-26.838	30.734	1947.251	1644.655
-25.823	30.678	1945.459	1642.581
-24.809	30.678	1943.709	1641.042
-23.794	30.585	1942.283	1638.951
-22.779	30.675	1940.304	1638.010
-21.765	30.595	1939.104	1636.231
-20.750	30.706	1937.138	1635.482
-19.736	30.637	1935.417	1633.353
-18.721	30.627	1934.193	1632.174
-17.706	30.770	1932.080	1631.573
-16.692	30.705	1930.578	1629.674
-15.677	30.629	1929.547	1628.073
-14.663	30.636	1927.981	1626.748
-13.648	30.651	1926.327	1625.420
-12.633	30.671	1924.956	1624.371
-11.619	30.700	1923.398	1623.247
-10.604	30.591	1922.332	1621.329
-9.590	30.585	1921.150	1620.217
-8.575	30.597	1919.264	1618.669
-7.560	30.647	1918.145	1618.098
-6.546	30.637	1917.089	1617.052
-5.531	30.678	1915.773	1616.233
-4.517	30.637	1914.979	1615.148
-3.502	30.635	1913.992	1614.229
-2.487	30.607	1912.147	1612.367
-1.473	30.510	1911.772	1611.143
-0.458	30.717	1906.254	1608.224
0.556	29.773	1887.504	1580.959
1.571	25.637	1868.584	1529.886
2.586	21.824	1891.108	1515.307
3.600	20.849	1927.700	1535.900
4.615	20.458	1921.870	1527.686
5.629	15.960	1822.367	1410.875
6.644	8.490	1707.047	1262.663
7.659	5.189	1672.934	1211.739
8.673	4.820	1670.370	1206.913
9.688	4.736	1668.793	1205.018
10.702	4.820	1667.346	1204.515
11.717	4.743	1664.127	1201.489
12.731	5.110	1663.130	1203.492
13.746	10.145	1675.353	1251.265
14.761	16.882	1689.854	1314.389
15.775	19.210	1691.877	1333.896
16.790	18.557	1689.180	1326.604
17.804	17.384	1686.189	1315.076
18.819	16.421	1683.098	1305.109
19.834	15.835	1680.479	1298.445
20.848	15.444	1679.330	1294.427
21.863	15.245	1677.243	1291.174
22.877	15.074	1675.513	1288.412
23.892	14.898	1674.383	1286.076
24.907	14.677	1673.628	1283.680
25.921	14.719	1671.867	1282.539
26.936	14.708	1671.416	1281.993
27.950	14.693	1670.598	1281.142
28.965	14.707	1670.230	1280.847
29.980	14.881	1668.884	1281.040
30.994	14.868	1668.482	1280.517
32.009	14.966	1667.275	1280.231
33.023	15.016	1666.137	1279.622
34.038	15.094	1664.881	1279.141
35.053	15.033	1663.955	1277.853
36.067	14.954	1662.614	1276.105
37.082	14.973	1661.473	1275.258
38.096	14.907	1660.639	1274.007
39.111	14.976	1659.751	1273.737
40.126	14.975	1658.665	1272.786
41.140	14.982	1657.826	1272.081
42.155	14.906	1656.275	1270.203
43.169	14.745	1655.009	1267.892
44.184	14.698	1653.660	1266.393
45.199	14.571	1652.958	1264.778
46.213	14.601	1651.589	1263.849
47.228	14.661	1650.267	1263.175
48.242	14.799	1648.731	1262.935
49.257	14.841	1648.275	1262.789
50.271	14.819	1647.143	1261.642
51.286	14.833	1645.998	1260.765
52.301	14.909	1644.346	1259.962
53.315	14.929	1642.915	1258.902
54.330	14.853	1641.388	1257.050
55.344	14.752	1640.033	1255.143
56.359	14.768	1638.021	1253.609
57.374	14.680	1637.376	1252.346
58.388	14.736	1635.849	1251.486
59.403	14.706	1634.899	1250.423
60.417	14.699	1633.346	1249.071
61.432	14.615	1632.418	1247.626
62.447	14.665	1631.240	1246.990
63.461	14.618	1630.404	1245.888
64.476	14.565	1629.180	1244.449
65.490	14.555	1627.746	1243.170
66.505	14.537	1626.814	1242.207
67.520	14.524	1626.167	1241.511
68.534	14.545	1624.880	1240.575
69.549	14.615	1623.633	1240.033
70.563	14.563	1622.500	1238.670
71.578	14.531	1621.654	1237.674
72.593	14.606	1620.151	1236.976
73.607	14.456	1619.192	1235.027
74.622	14.430	1617.638	1233.534
75.636	14.477	1617.182	1233.426
76.651	14.405	1616.937	1232.598
77.666	14.461	1616.025	1232.210
78.680	14.499	1614.836	1231.474
79.695	14.503	1614.251	1230.949
80.709	14.485	1613.566	1230.187
81.724	14.543	1612.459	1229.659
82.739	14.649	1611.248	1229.408
83.753	14.618	1610.670	1228.632
84.768	14.711	1609.561	1228.356
85.782	14.835	1608.719	1228.516
86.797	14.913	1608.021	1228.450
87.812	14.890	1606.776	1227.219
88.826	14.878	1605.397	1225.969
89.841	14.871	1604.091	1224.819
90.855	14.838	1603.359	1223.908
91.870	14.852	1602.248	1223.051
92.884	14.850	1601.199	1222.128
93.899	14.925	1600.277	1221.865
94.914	14.907	1599.242	1220.832
95.928	14.957	1597.970	1220.123
96.943	15.051	1596.559	1219.617
97.957	14.901	1595.603	1217.686
98.972	14.938	1593.728	1216.422
99.987	14.906	1591.872	1214.666
101.001	14.997	1590.213	1213.950
102.016	14.859	1589.093	1211.991
103.030	14.897	1587.776	1211.148
104.045	14.908	1586.456	1210.117
105.060	14.894	1585.625	1209.272
106.074	14.841	1583.632	1207.263
107.089	14.861	1581.886	1205.970
108.103	14.637	1580.494	1203.188
109.118	14.512	1578.857	1200.934
110.133	14.588	1577.612	1200.432
111.147	14.555	1576.507	1199.248
112.162	14.587	1574.716	1198.008
113.176	14.610	1573.520	1197.156
114.191	14.687	1572.234	1196.623
115.206	14.741	1570.574	1195.639
116.220	14.636	1569.899	1194.272
117.235	14.614	1568.525	1192.965
118.249	14.649	1567.335	1192.201
119.264	14.706	1565.539	1191.137
120.279	14.631	1564.221	1189.490
121.293	14.701	1562.668	1188.705
122.308	14.614	1561.273	1186.919
123.322	14.525	1560.234	1185.393
124.337	14.435	1558.373	1183.235
125.352	14.427	1557.361	1182.304
126.366	14.495	1555.955	1181.615
127.381	14.560	1554.731	1181.043
128.395	14.531	1553.851	1180.062
129.410	14.533	1552.275	1178.779
130.424	14.510	1551.249	1177.733
131.439	14.607	1549.448	1176.943
132.454	14.640	1548.500	1176.354
133.468	14.717	1546.857	1175.541
134.483	14.729	1545.579	1174.554
135.497	14.735	1544.335	1173.547
136.512	14.680	1543.158	1172.161
137.527	14.714	1541.802	1171.262
138.541	14.786	1540.500	1170.677
139.556	14.720	1538.981	1168.957
140.570	14.737	1537.882	1168.137
141.585	14.777	1536.794	1167.484
142.600	14.928	1535.322	1167.320
143.614	15.065	1534.122	1167.255
144.629	15.007	1532.994	1165.895
145.643	15.017	1531.709	1164.880
146.658	15.102	1530.589	1164.519
147.673	15.042	1528.939	1162.741
148.687	14.912	1527.044	1160.299
149.702	14.950	1525.861	1159.562
150.716	14.906	1524.148	1157.848
151.731	14.843	1522.889	1156.356
152.746	14.822	1521.576	1155.110
153.760	14.836	1520.458	1154.257
154.775	14.880	1519.309	1153.589
155.789	14.919	1518.009	1152.766
156.804	14.990	1516.657	1152.126
157.819	14.922	1516.011	1151.066
158.833	14.972	1514.638	1150.265
159.848	15.066	1513.440	1149.896
160.862	15.159	1512.076	1149.401
161.877	15.154	1510.779	1148.275
162.892	14.980	1510.053	1146.429
163.906	15.005	1508.470	1145.301
164.921	14.924	1507.479	1143.894
165.935	14.825	1506.447	1142.333
166.950	14.909	1505.637	1142.190
167.964	14.929	1504.234	1141.160
168.979	15.014	1503.163	1140.823
169.994	15.068	1501.729	1140.004
171.008	14.984	1501.231	1138.953
172.023	15.114	1499.588	1138.488
173.037	15.092	1498.827	1137.666
174.052	15.151	1497.890	1137.252
175.067	15.160	1496.849	1136.423
176.081	15.117	1495.861	1135.281
177.096	15.057	1494.341	1133.619
178.110	15.038	1492.821	1132.236
179.125	14.991	1492.265	1131.396
180.140	15.098	1490.733	1130.860
181.154	15.151	1489.199	1129.951
182.169	15.123	1488.319	1128.997
183.183	15.169	1487.322	1128.451
184.198	15.209	1486.497	1127.993
185.213	15.284	1485.161	1127.381
186.227	15.276	1484.228	1126.519
187.242	15.329	1483.466	1126.202
188.256	15.371	1481.949	1125.232
189.271	15.369	1480.756	1124.212
190.286	15.339	1480.218	1123.503
191.300	15.412	1478.526	1122.607
192.315	15.179	1477.301	1120.020
193.329	15.007	1476.143	1117.894
194.344	14.969	1475.100	1116.749
195.359	15.030	1473.885	1116.138
196.373	15.181	1472.958	1116.346
197.388	15.227	1472.473	1116.187
198.402	15.333	1470.921	1115.613
199.417	15.388	1470.069	1115.235
200.432	15.586	1468.753	1115.452
201.446	15.508	1468.297	1114.492
202.461	15.661	1467.096	1114.497
203.475	15.645	1465.928	1113.403
204.490	15.649	1465.279	1112.837
205.504	15.607	1464.164	1111.613
206.519	15.612	1462.429	1110.233
207.534	15.497	1461.724	1108.840
208.548	15.503	1460.565	1107.902
209.563	15.478	1459.430	1106.780
210.577	15.600	1458.456	1106.746
211.592	15.485	1457.629	1105.261
212.607	15.509	1457.033	1104.874
213.621	15.543	1456.534	1104.618
214.636	15.644	1455.725	1104.574
215.650	15.616	1454.549	1103.395
216.665	15.663	1453.763	1103.013
217.680	15.630	1452.528	1101.760
218.694	15.718	1451.960	1101.811
219.709	15.786	1451.291	1101.649
220.723	15.738	1450.019	1100.273
221.738	15.842	1448.675	1099.835
222.753	15.773	1448.021	1098.787
223.767	15.732	1447.261	1097.850
224.782	15.725	1446.084	1096.816
225.796	15.847	1445.501	1097.070
226.811	15.811	1444.746	1096.163
227.826	15.980	1443.934	1096.551
228.840	15.880	1442.891	1095.011
229.855	15.740	1442.058	1093.374
230.869	15.806	1441.151	1093.014
231.884	15.785	1439.801	1091.761
232.899	15.793	1438.568	1090.780
233.913	15.717	1437.414	1089.315
234.928	15.753	1436.556	1088.802
235.942	15.700	1435.267	1087.386
236.957	15.660	1433.951	1086.038
237.972	15.702	1432.793	1085.331
238.986	15.710	1431.759	1084.508
240.001	15.718	1431.143	1083.995
241.015	15.864	1429.901	1083.899
242.030	15.813	1429.060	1082.840
243.045	15.933	1428.007	1082.713
244.059	15.948	1426.803	1081.800
245.074	15.965	1426.009	1081.213
246.088	15.954	1425.273	1080.489
247.103	16.005	1424.547	1080.170
248.117	15.957	1424.060	1079.399
249.132	16.085	1423.003	1079.322
250.147	16.186	1422.284	1079.323
251.161	16.179	1422.128	1079.067
252.176	16.273	1421.628	1079.195
253.190	16.304	1420.729	1078.612
254.205	16.386	1419.938	1078.441
255.220	16.451	1418.886	1077.961
256.234	16.455	1417.919	1077.157
257.249	16.412	1417.425	1076.410
258.263	16.517	1416.230	1076.077
259.278	16.451	1415.286	1074.849
260.293	16.539	1414.630	1074.811
261.307	16.532	1413.561	1073.857
262.322	16.484	1412.961	1073.007
263.336	16.531	1412.045	1072.510
264.351	16.543	1411.515	1072.092
265.366	16.703	1410.089	1071.927
266.380	16.629	1409.247	1070.725
267.395	16.549	1408.757	1069.750
268.409	16.674	1407.479	1069.475
269.424	16.572	1406.538	1068.019
270.439	16.650	1405.578	1067.687
271.453	16.636	1404.339	1066.563
272.468	16.539	1403.605	1065.305
273.482	16.720	1402.755	1065.705
274.497	16.461	1402.017	1063.420
275.512	16.490	1401.420	1063.051
276.526	16.513	1400.454	1062.374
277.541	16.529	1399.323	1061.518
278.555	16.642	1398.422	1061.453
279.570	16.657	1397.469	1060.728
280.585	16.653	1396.784	1060.086
281.599	16.757	1395.977	1060.032
282.614	16.769	1395.033	1059.300
283.628	16.773	1393.396	1057.985
284.643	16.676	1392.794	1056.830
285.657	16.626	1392.002	1055.823
286.672	16.588	1391.069	1054.783
287.687	16.747	1389.636	1054.595
288.701	16.716	1389.011	1053.838
289.716	16.768	1388.042	1053.330
290.730	16.791	1387.139	1052.695
291.745	16.796	1386.233	1051.943
292.760	16.831	1385.168	1051.258
293.774	16.906	1384.098	1050.823
294.789	16.827	1383.581	1049.848
295.803	16.924	1382.763	1049.734
296.818	17.090	1381.594	1049.777
297.833	16.874	1381.289	1048.118
298.847	16.859	1379.999	1046.956
299.862	16.856	1379.040	1046.115
300.876	16.856	1378.065	1045.287
301.891	16.947	1376.857	1044.834
302.906	16.931	1376.469	1044.351
303.920	16.955	1375.611	1043.755
304.935	17.004	1375.461	1043.853
305.949	17.015	1374.744	1043.282
306.964	17.155	1373.541	1043.134
307.979	17.223	1372.571	1042.726
308.993	17.131	1371.430	1041.202
310.008	17.193	1370.342	1040.664
311.022	17.078	1369.601	1039.302
312.037	17.252	1368.193	1039.207
313.052	17.225	1367.451	1038.389
314.066	17.201	1366.562	1037.472
315.081	17.150	1365.367	1036.166
316.095	17.065	1364.209	1034.673
317.110	16.976	1363.399	1033.428
318.125	17.135	1362.625	1033.719
319.139	17.092	1361.407	1032.442
320.154	17.065	1360.786	1031.711
321.168	17.070	1359.742	1030.859
322.183	16.984	1358.829	1029.559
323.197	17.110	1357.885	1029.516
324.212	17.215	1356.781	1029.220
325.227	17.167	1355.939	1028.198
326.241	17.256	1355.142	1028.043
327.256	17.115	1354.797	1026.838
328.270	17.219	1353.453	1026.360
329.285	17.240	1352.662	1025.791
330.300	17.198	1351.776	1024.778
331.314	17.119	1350.570	1023.295
332.329	17.174	1349.960	1023.073
333.343	17.221	1349.065	1022.587
334.358	17.231	1348.397	1022.054
335.373	17.324	1347.482	1021.825
336.387	17.332	1346.695	1021.189
337.402	17.323	1345.862	1020.412
338.416	17.389	1345.056	1020.104
339.431	17.465	1344.861	1020.323
340.446	17.448	1344.079	1019.541
341.460	17.470	1343.238	1018.939
342.475	17.577	1341.673	1018.304
343.489	17.633	1341.074	1018.093
344.504	17.694	1340.262	1017.751
345.519	17.702	1339.266	1016.953
346.533	17.688	1338.730	1016.375
347.548	17.689	1337.792	1015.578
348.562	17.756	1336.972	1015.262
349.577	17.792	1335.672	1014.403
350.592	17.795	1335.240	1014.000
351.606	17.642	1334.528	1012.463
352.621	17.702	1333.139	1011.674
353.635	17.518	1332.197	1009.779
354.650	17.574	1331.231	1009.288
355.665	17.517	1330.570	1008.363
356.679	17.546	1329.433	1007.581
357.694	17.564	1328.429	1006.839
358.708	17.682	1327.222	1006.528
359.723	17.695	1326.651	1006.085
360.738	17.724	1324.906	1004.845
361.752	17.724	1324.504	1004.451
362.767	17.787	1323.060	1003.638
363.781	17.788	1322.395	1003.048
364.796	17.797	1321.424	1002.279
365.810	17.848	1320.639	1001.894
366.825	17.799	1320.846	1001.675
367.840	17.897	1319.820	1001.378
368.854	17.989	1318.968	1001.186
369.869	18.023	1318.545	1000.977
370.883	18.203	1317.320	1001.009
371.898	18.050	1316.645	999.511
372.913	18.081	1315.699	998.890
373.927	17.862	1314.917	996.927
374.942	18.053	1313.840	997.139
375.956	18.124	1313.271	997.029
376.971	18.058	1312.972	996.328
377.986	18.140	1311.768	995.804
379.000	18.118	1310.940	994.963
380.015	18.150	1310.113	994.432
381.029	18.191	1309.627	994.213
382.044	18.205	1309.418	994.050
383.059	18.208	1308.235	993.077
384.073	18.222	1307.523	992.532
385.088	18.282	1306.614	992.100
386.102	18.279	1306.222	991.700
387.117	18.265	1305.102	990.679
388.132	18.286	1304.640	990.365
389.146	18.285	1303.598	989.480
390.161	18.158	1303.095	988.273
391.175	18.247	1301.546	987.528
392.190	18.137	1300.937	986.341
393.205	18.136	1300.391	985.838
394.219	18.354	1299.064	985.998
395.234	18.408	1297.645	985.146
396.248	18.313	1296.585	983.708
397.263	18.235	1295.539	982.377
398.278	18.275	1294.445	981.690
399.292	18.281	1292.786	980.381
400.307	18.333	1291.854	979.885
401.321	18.288	1290.876	978.798
402.336	18.229	1289.892	977.629
403.350	18.078	1289.232	976.180
404.365	18.261	1288.176	976.340
405.380	18.244	1287.092	975.334
406.394	18.366	1286.546	975.528
407.409	18.421	1285.598	975.035
408.423	18.344	1285.269	974.261
409.438	18.464	1284.416	974.214
410.453	18.547	1283.482	973.890
411.467	18.594	1282.756	973.516
412.482	18.667	1282.698	973.801
413.496	18.772	1281.725	973.574
414.511	18.631	1281.255	972.331
415.526	18.644	1280.682	971.883
416.540	18.757	1279.630	971.641
417.555	18.730	1279.236	971.101
418.569	18.756	1278.338	970.479
419.584	18.762	1278.043	970.202
420.599	18.667	1277.603	969.249
421.613	141.087	1432.604	1796.282
422.628	135.798	1455.177	1796.379
