DTS Sentinel unit serial number:	SN413079Multiplexer serial number:	ORYXHardware model number:	OX4-SRSoftware version number:	ORYX F/W v4.00 Oryx Data Collector v3.7.2.0data status	okinstallation	princeton_trtdifferential loss correction	single-endedforward channel	channel 4reverse channel	N/Adate	2019/09/19time	04:41:35forward acquisition time	60.00reverse acquisition time	0.00gamma	496.2192k internal	0.2340k external	0.2340temperature offset calibration	1.0027default loss term (dB/km)	0.3790temperature slope calibration	1.0000multiplexer offset coefficient	1.0000multiplexer slope coefficient	1.0000fibre end	0.00T internal ref (°C)	19.98T ext. ref 1 (°C)	0.61T ext. ref 2 (°C)	12.97length (m)	temperature (°C)	Stokes	anti-Stokes-747.200	-58.950	-0.344	0.149
-746.185	44.840	-0.129	0.119
-745.171	800.000	0.057	-0.172
-744.156	-79.868	-0.154	-0.052
-743.142	800.000	0.023	-0.093
-742.127	683.916	0.148	0.386
-741.112	-200.000	-0.032	-0.208
-740.098	555.642	-0.095	0.229
-739.083	15.454	-0.089	-0.070
-738.069	-200.000	0.048	0.314
-737.054	76.110	-0.184	0.195
-736.039	22.796	-0.113	-0.093
-735.025	72.223	0.113	-0.118
-734.010	-82.198	-0.277	0.091
-732.996	800.000	0.038	0.107
-731.981	800.000	-0.147	-0.581
-730.966	-157.701	0.045	-0.003
-729.952	30.919	0.168	0.144
-728.937	-142.502	-0.314	0.031
-727.923	-200.000	0.041	0.195
-726.908	-34.147	0.180	-0.099
-725.894	-136.439	0.359	-0.042
-724.879	30.962	-0.286	-0.246
-723.864	72.143	-0.109	0.114
-722.850	-70.928	-0.245	0.092
-721.835	-122.993	0.148	-0.024
-720.821	-141.347	-0.349	-0.035
-719.806	-4.583	-0.121	-0.084
-718.791	-4.367	-0.321	0.222
-717.777	-126.888	0.265	-0.039
-716.762	-129.192	-0.191	0.027
-715.748	800.000	-0.017	0.062
-714.733	80.631	0.161	0.174
-713.718	-43.893	-0.314	-0.158
-712.704	-17.164	0.177	-0.112
-711.689	-126.543	0.131	0.019
-710.675	601.648	0.038	0.094
-709.660	-33.421	-0.124	-0.069
-708.645	-95.331	0.100	-0.027
-707.631	-49.203	0.080	0.038
-706.616	-158.301	-0.144	0.008
-705.602	800.000	-0.063	-0.242
-704.587	800.000	-0.129	-0.480
-703.572	-200.000	0.008	-0.132
-702.558	24.835	-0.267	-0.222
-701.543	-200.000	-0.002	-0.229
-700.529	-125.158	-0.233	0.036
-699.514	-44.957	0.200	0.100
-698.499	177.459	0.100	0.146
-697.485	107.503	-0.145	-0.172
-696.470	72.586	-0.239	-0.250
-695.456	8.718	-0.281	-0.212
-694.441	125.508	0.110	-0.139
-693.426	-200.000	0.008	-0.245
-692.412	-64.921	0.178	0.072
-691.397	-117.083	-0.177	0.032
-690.383	-144.820	-0.104	-0.010
-689.368	2.459	0.108	-0.078
-688.354	77.400	0.154	0.164
-687.339	-97.871	-0.240	0.062
-686.324	-32.441	-0.105	-0.059
-685.310	6.042	-0.189	-0.140
-684.295	21.807	-0.086	0.070
-683.281	60.873	-0.088	-0.087
-682.266	-52.365	-0.239	-0.110
-681.251	-175.363	0.212	0.006
-680.237	241.686	0.073	-0.122
-679.222	634.818	-0.150	0.382
-678.208	800.000	0.126	0.365
-677.193	800.000	-0.051	-0.172
-676.178	-90.272	-0.173	0.050
-675.164	-200.000	-0.084	-0.437
-674.149	0.830	0.228	0.163
-673.135	108.081	0.048	-0.057
-672.120	255.942	-0.050	0.085
-671.105	-200.000	0.017	0.166
-670.091	-174.048	0.386	-0.011
-669.076	287.268	-0.178	0.322
-668.062	-33.484	-0.095	0.052
-667.047	-80.366	-0.160	-0.053
-666.032	59.125	0.091	0.089
-665.018	-156.267	-0.407	0.026
-664.003	223.581	0.124	-0.200
-662.989	-200.000	-0.022	-0.143
-661.974	-157.234	0.565	0.034
-660.959	-108.298	0.325	0.070
-659.945	55.689	0.203	-0.197
-658.930	-159.229	-0.077	0.004
-657.916	-200.000	-0.043	-0.259
-656.901	64.515	-0.235	-0.237
-655.886	-26.032	0.045	0.026
-654.872	-200.000	-0.013	0.087
-653.857	-76.755	0.246	0.086
-652.843	358.014	0.184	0.367
-651.828	98.863	-0.055	0.063
-650.814	11.945	-0.285	-0.219
-649.799	-68.155	0.236	0.092
-648.784	405.094	0.185	0.389
-647.770	80.884	-0.236	0.254
-646.755	-200.000	-0.002	-0.179
-645.741	-134.313	-0.213	0.026
-644.726	101.694	-0.161	-0.188
-643.711	-17.018	-0.189	0.119
-642.697	800.000	0.040	-0.166
-641.682	-93.674	-0.183	0.051
-640.668	0.902	0.219	0.156
-639.653	631.415	-0.093	-0.234
-638.638	-159.373	0.080	0.004
-637.624	112.374	0.298	0.360
-636.609	-122.707	-0.078	0.013
-635.595	-7.294	-0.160	-0.108
-634.580	-200.000	-0.019	0.094
-633.565	800.000	0.020	0.065
-632.551	67.830	0.216	-0.221
-631.536	-24.900	-0.311	0.184
-630.522	-142.960	-0.285	0.028
-629.507	80.141	0.091	0.097
-628.492	-29.015	0.168	-0.096
-627.478	-67.655	-0.147	0.057
-626.463	-148.095	0.166	-0.014
-625.449	554.170	-0.135	0.324
-624.434	-81.865	-0.258	0.084
-623.419	17.378	-0.104	0.082
-622.405	-200.000	0.046	-0.424
-621.390	-34.337	-0.502	-0.275
-620.376	84.607	-0.059	0.065
-619.361	43.134	-0.171	-0.156
-618.346	-200.000	0.018	0.119
-617.332	16.395	-0.301	-0.237
-616.317	-25.116	-0.407	0.241
-615.303	-50.307	0.113	-0.053
-614.288	211.102	0.212	-0.332
-613.273	121.338	-0.061	0.076
-612.259	-200.000	0.003	-0.017
-611.244	-6.459	-0.198	-0.134
-610.230	-200.000	-0.078	0.361
-609.215	800.000	-0.064	-0.249
-608.201	-85.927	-0.126	-0.039
-607.186	349.369	-0.083	-0.164
-606.171	-200.000	0.076	0.374
-605.157	800.000	-0.060	-0.252
-604.142	800.000	0.011	0.047
-603.128	631.341	-0.140	0.354
-602.113	147.182	0.122	-0.164
-601.098	87.494	-0.108	0.119
-600.084	4.736	-0.113	-0.083
-599.069	-37.165	-0.089	-0.047
-598.055	336.351	-0.102	0.197
-597.040	-200.000	0.022	-0.105
-596.025	-193.125	-0.080	-0.001
-595.011	-151.644	-0.492	-0.036
-593.996	-42.988	0.192	-0.097
-592.982	800.000	0.065	-0.256
-591.967	-131.653	-0.160	0.021
-590.952	800.000	0.103	-0.363
-589.938	625.147	0.124	-0.311
-588.923	-117.044	-0.196	-0.036
-587.909	-62.400	0.246	0.102
-586.894	800.000	-0.023	-0.067
-585.879	-134.712	0.308	-0.037
-584.865	334.510	0.084	-0.163
-583.850	69.314	-0.296	-0.304
-582.836	-84.217	-0.307	0.097
-581.821	86.059	-0.099	-0.108
-580.806	800.000	0.026	0.097
-579.792	7.572	-0.143	-0.107
-578.777	277.140	0.151	0.267
-577.763	-45.109	-0.320	0.158
-576.748	104.596	-0.173	-0.204
-575.733	634.869	-0.097	0.246
-574.719	9.955	0.234	0.177
-573.704	-200.000	0.045	0.315
-572.690	-74.853	0.144	-0.051
-571.675	800.000	0.088	-0.287
-570.661	-39.787	0.180	0.094
-569.646	-98.535	0.375	0.095
-568.631	800.000	-0.053	0.213
-567.617	36.431	0.114	-0.100
-566.602	-142.443	0.074	0.007
-565.588	140.859	0.028	0.036
-564.573	-125.673	0.242	-0.036
-563.558	-157.486	0.250	-0.015
-562.544	-48.300	-0.252	-0.121
-561.529	-200.000	-0.049	-0.367
-560.515	71.846	-0.067	-0.070
-559.500	-17.642	-0.153	-0.096
-558.485	-23.568	0.315	-0.188
-557.471	192.839	0.095	-0.142
-556.456	800.000	0.034	0.138
-555.442	-81.109	-0.174	0.057
-554.427	-115.597	0.207	0.039
-553.412	82.943	0.250	0.270
-552.398	-200.000	0.006	0.097
-551.383	-15.269	-0.037	-0.024
-550.369	-19.738	0.370	-0.228
-549.354	-93.289	-0.231	0.064
-548.339	69.264	0.180	-0.184
-547.325	-95.259	0.096	0.026
-546.310	-122.671	-0.472	-0.076
-545.296	134.661	-0.164	0.212
-544.281	-161.285	0.360	-0.019
-543.266	-200.000	-0.028	-0.220
-542.252	125.079	-0.084	-0.105
-541.237	-82.163	0.238	-0.077
-540.223	-65.157	0.399	0.160
-539.208	-67.498	-0.162	-0.063
-538.193	701.584	0.009	-0.024
-537.179	800.000	0.054	0.198
-536.164	800.000	-0.051	-0.159
-535.150	800.000	0.116	0.341
-534.135	53.282	-0.044	-0.042
-533.121	800.000	-0.086	-0.277
-532.106	-200.000	0.044	-0.255
-531.091	-200.000	-0.025	0.224
-530.077	-159.861	0.234	-0.013
-529.062	-36.576	-0.243	0.130
-528.048	509.970	0.148	0.342
-527.033	800.000	0.088	-0.266
-526.018	0.025	-0.122	-0.087
-525.004	-81.699	0.206	0.067
-523.989	-200.000	-0.004	0.060
-522.975	390.024	0.111	-0.228
-521.960	-200.000	-0.109	-0.490
-520.945	88.637	0.174	-0.192
-519.931	230.511	0.111	-0.181
-518.916	800.000	-0.114	0.315
-517.902	-113.610	-0.409	0.079
-516.887	800.000	-0.039	0.167
-515.872	-68.913	0.386	-0.148
-514.858	108.988	0.122	-0.145
-513.843	-83.209	0.410	-0.131
-512.829	332.498	0.114	-0.219
-511.814	124.881	0.187	-0.234
-510.799	-88.191	0.397	0.118
-509.785	-155.937	-0.127	-0.008
-508.770	170.327	-0.143	0.203
-507.756	18.541	0.130	0.103
-506.741	279.596	0.178	-0.315
-505.726	-44.485	0.343	0.171
-504.712	-60.110	0.428	-0.181
-503.697	-41.722	-0.233	0.119
-502.683	-25.393	-0.172	-0.101
-501.668	-109.691	0.115	0.024
-500.653	129.732	-0.189	-0.239
-499.639	-200.000	0.028	-0.176
-498.624	376.080	0.065	-0.132
-497.610	153.694	0.068	0.092
-496.595	-200.000	-0.008	0.265
-495.581	-55.315	-0.078	-0.035
-494.566	123.481	0.123	0.153
-493.551	-120.160	0.180	-0.031
-492.537	95.266	-0.310	0.351
-491.522	-155.141	-0.567	-0.037
-490.508	-200.000	0.010	-0.073
-489.493	633.715	-0.098	0.246
-488.478	45.391	-0.050	0.046
-487.464	-200.000	-0.001	-0.112
-486.449	-200.000	0.067	0.346
-485.435	-200.000	0.050	0.420
-484.420	407.730	0.108	-0.226
-483.405	-146.042	-0.178	-0.016
-482.391	-200.000	-0.045	-0.202
-481.376	-136.923	-0.039	0.004
-480.362	800.000	0.078	0.335
-479.347	8.224	-0.120	0.090
-478.332	-149.519	0.275	-0.022
-477.318	-200.000	0.004	-0.063
-476.303	319.857	-0.049	0.092
-475.289	-53.001	0.097	-0.044
-474.274	-108.532	-0.345	-0.074
-473.259	800.000	-0.072	-0.272
-472.245	-185.727	0.351	0.005
-471.230	800.000	-0.022	0.069
-470.216	-30.372	-0.291	-0.164
-469.201	206.545	-0.110	-0.170
-468.186	188.615	-0.109	-0.162
-467.172	800.000	-0.091	0.326
-466.157	-8.375	0.268	-0.179
-465.143	-134.810	0.310	0.037
-464.128	46.621	-0.289	-0.266
-463.113	189.871	-0.187	-0.278
-462.099	178.398	0.124	0.180
-461.084	309.588	0.177	0.328
-460.070	800.000	-0.043	-0.121
-459.055	-105.064	-0.127	0.029
-458.040	99.674	-0.107	0.123
-457.026	44.874	-0.043	0.040
-456.011	-24.851	0.074	-0.044
-454.997	-0.441	-0.128	0.090
-453.982	-57.616	0.109	-0.047
-452.968	-200.000	0.034	-0.152
-451.953	-200.000	-0.008	0.099
-450.938	356.477	0.125	-0.247
-449.924	-115.505	-0.119	0.022
-448.909	-171.445	-0.046	-0.002
-447.895	-147.047	-0.262	-0.022
-446.880	-164.803	0.405	0.018
-445.865	-111.563	0.259	-0.052
-444.851	-131.233	0.353	-0.046
-443.836	108.231	-0.089	0.106
-442.822	-200.000	0.066	-0.303
-441.807	308.266	0.079	0.145
-440.792	-200.000	-0.016	0.198
-439.778	-3.465	0.184	-0.127
-438.763	209.649	0.223	0.347
-437.749	-22.627	0.072	0.043
-436.734	-122.297	-0.360	0.058
-435.719	-200.000	0.010	0.117
-434.705	-10.882	-0.314	-0.205
-433.690	262.419	-0.089	-0.153
-432.676	128.392	0.176	-0.221
-431.661	514.647	0.192	-0.444
-430.646	800.000	-0.035	-0.154
-429.632	-200.000	-0.027	0.240
-428.617	-200.000	-0.013	-0.198
-427.603	800.000	-0.136	-0.494
-426.588	2.402	-0.238	0.170
-425.573	-110.293	0.187	0.039
-424.559	-200.000	-0.023	0.167
-423.544	-162.475	-0.090	-0.004
-422.530	132.813	0.127	0.162
-421.515	21.516	0.086	-0.069
-420.500	-10.840	-0.081	0.053
-419.486	-200.000	-0.033	0.382
-418.471	800.000	0.030	-0.114
-417.457	-18.075	-0.188	-0.116
-416.442	-200.000	-0.022	-0.128
-415.428	-55.598	0.071	0.031
-414.413	-151.369	-0.144	0.011
-413.398	-20.696	0.032	-0.019
-412.384	435.208	-0.025	-0.054
-411.369	28.573	0.257	-0.215
-410.355	755.751	0.078	0.209
-409.340	-200.000	-0.027	-0.245
-408.325	-144.717	-0.241	0.022
-407.311	-133.317	-0.161	0.020
-406.296	-200.000	0.018	-0.322
-405.282	-65.242	-0.405	0.161
-404.267	272.600	0.226	0.395
-403.252	-30.734	0.038	-0.021
-402.238	81.408	0.235	0.251
-401.223	639.650	0.098	0.247
-400.209	-99.345	-0.233	0.058
-399.194	53.734	0.220	0.209
-398.179	652.877	0.118	0.300
-397.165	577.664	0.015	-0.036
-396.150	-137.174	-0.275	-0.031
-395.136	-123.310	0.214	-0.034
-394.121	-0.836	0.314	0.220
-393.106	-124.585	-0.026	0.004
-392.092	-200.000	-0.011	0.150
-391.077	-179.176	0.116	0.003
-390.063	-81.369	0.385	-0.125
-389.048	-200.000	-0.007	-0.248
-388.033	245.688	0.119	0.198
-387.019	-23.422	0.185	0.110
-386.004	-88.758	0.246	-0.072
-384.990	83.174	-0.075	-0.080
-383.975	37.634	0.214	0.188
-382.960	-200.000	-0.067	0.357
-381.946	-7.161	-0.243	-0.163
-380.931	-51.070	-0.157	0.073
-379.917	-52.978	0.377	0.172
-378.902	39.795	-0.139	-0.123
-377.888	88.747	0.120	-0.132
-376.873	59.383	-0.035	0.034
-375.858	-32.705	-0.198	-0.109
-374.844	-3.770	0.237	-0.162
-373.829	-117.838	-0.367	0.065
-372.815	-190.592	0.185	0.002
-371.800	454.311	-0.102	-0.223
-370.785	-200.000	-0.025	0.139
-369.771	264.178	0.070	0.120
-368.756	187.281	0.161	-0.237
-367.742	362.967	0.253	0.501
-366.727	-97.804	-0.396	0.101
-365.712	-34.033	-0.226	0.123
-364.698	-200.000	-0.071	-0.447
-363.683	-127.801	-0.364	0.052
-362.669	-38.784	0.095	-0.050
-361.654	-200.000	-0.016	-0.144
-360.639	322.875	-0.060	0.113
-359.625	-200.000	0.020	-0.154
-358.610	328.294	-0.038	0.072
-357.596	-200.000	-0.004	0.482
-356.581	800.000	-0.061	-0.188
-355.566	717.271	-0.037	0.096
-354.552	-200.000	0.023	0.157
-353.537	-129.714	0.446	0.061
-352.523	-15.945	-0.145	-0.091
-351.508	-174.493	-0.394	-0.011
-350.493	451.014	-0.053	0.115
-349.479	-200.000	-0.023	-0.134
-348.464	-155.003	0.127	-0.008
-347.450	165.604	-0.213	-0.298
-346.435	-200.000	-0.067	0.307
-345.420	800.000	0.086	-0.297
-344.406	-200.000	-0.007	0.181
-343.391	-32.820	-0.148	-0.081
-342.377	-200.000	0.035	-0.451
-341.362	618.229	0.086	0.214
-340.348	685.456	-0.117	-0.301
-339.333	-20.139	-0.200	-0.122
-338.318	-134.559	0.076	-0.009
-337.304	-55.130	-0.201	-0.089
-336.289	0.354	-0.385	-0.271
-335.275	-161.963	0.132	-0.007
-334.260	-96.153	0.208	0.055
-333.245	-76.077	0.114	-0.040
-332.231	-40.630	-0.077	0.039
-331.216	-167.443	0.188	-0.007
-330.202	-2.429	-0.133	-0.092
-329.187	120.081	0.057	-0.070
-328.172	154.629	0.100	-0.135
-327.158	-3.017	0.301	-0.207
-326.143	-200.000	-0.006	0.127
-325.129	-200.000	-0.009	0.236
-324.114	-200.000	0.047	0.492
-323.099	-157.668	-0.134	-0.008
-322.085	800.000	0.098	-0.313
-321.070	-123.383	0.385	-0.061
-320.056	5.715	-0.215	0.157
-319.041	-184.513	0.155	0.002
-318.026	426.834	0.079	-0.168
-317.012	-135.523	-0.064	0.008
-315.997	-88.708	0.300	0.088
-314.983	-99.326	0.136	0.034
-313.968	-170.220	-0.071	-0.002
-312.953	39.461	0.119	-0.105
-311.939	-200.000	-0.013	-0.133
-310.924	175.196	-0.034	0.049
-309.910	-24.346	0.282	0.166
-308.895	30.794	0.253	-0.214
-307.880	-57.419	-0.296	-0.128
-306.866	-200.000	0.014	-0.115
-305.851	-140.928	-0.374	0.038
-304.837	-147.893	0.257	-0.021
-303.822	-57.170	-0.362	-0.157
-302.807	-97.924	0.088	0.022
-301.793	-23.050	-0.332	0.197
-300.778	800.000	-0.103	0.337
-299.764	-200.000	0.014	-0.251
-298.749	21.630	-0.234	0.188
-297.735	78.381	-0.103	-0.108
-296.720	-106.112	0.095	-0.021
-295.705	-200.000	-0.032	0.271
-294.691	-18.443	-0.123	-0.076
-293.676	8.473	-0.122	-0.091
-292.662	-79.397	-0.128	0.043
-291.647	300.209	-0.200	0.363
-290.632	-200.000	0.047	-0.330
-289.618	800.000	-0.053	0.177
-288.603	165.451	-0.022	-0.031
-287.589	729.784	-0.137	0.362
-286.574	-45.682	0.047	0.023
-285.559	-200.000	0.004	0.200
-284.545	378.524	0.033	0.066
-283.530	602.562	0.146	0.357
-282.516	-47.776	-0.152	0.073
-281.501	66.221	-0.134	0.134
-280.486	-200.000	0.038	0.374
-279.472	-38.226	0.064	0.033
-278.457	17.106	-0.324	-0.253
-277.443	-69.904	0.218	-0.082
-276.428	-200.000	-0.024	0.129
-275.413	-105.180	-0.045	-0.010
-274.399	-24.966	-0.336	0.196
-273.384	0.980	0.230	-0.162
-272.370	-200.000	0.052	0.338
-271.355	-113.485	0.159	-0.031
-270.340	5.004	-0.078	-0.057
-269.326	-145.653	-0.346	0.030
-268.311	-200.000	-0.015	0.127
-267.297	-200.000	-0.022	-0.233
-266.282	-50.264	-0.231	-0.107
-265.267	16.152	-0.271	0.210
-264.253	22.542	0.152	0.122
-263.238	800.000	0.028	0.102
-262.224	-73.109	0.281	0.101
-261.209	-6.137	0.183	0.123
-260.195	-200.000	0.029	0.213
-259.180	-105.031	0.281	0.063
-258.165	-23.582	-0.134	0.079
-257.151	706.547	0.078	0.202
-256.136	8.414	-0.021	0.016
-255.122	520.235	-0.048	-0.111
-254.107	800.000	-0.073	-0.208
-253.092	-160.081	-0.380	0.020
-252.078	14.043	0.200	0.154
-251.063	-200.000	0.046	-0.213
-250.049	29.686	-0.262	-0.219
-249.034	-31.118	0.229	-0.127
-248.019	10.550	0.415	0.311
-247.005	368.847	-0.049	0.097
-245.990	-54.749	-0.174	0.077
-244.976	-124.255	-0.215	-0.033
-243.961	-200.000	0.012	0.086
-242.946	280.871	0.174	-0.306
-241.932	-200.000	0.045	0.261
-240.917	236.174	0.149	-0.243
-239.903	287.179	-0.184	-0.327
-238.888	-112.004	0.240	0.048
-237.873	-38.244	0.070	-0.036
-236.859	169.163	-0.093	0.131
-235.844	-200.000	0.033	-0.175
-234.830	83.769	-0.195	-0.209
-233.815	-200.000	-0.007	0.225
-232.800	-108.944	-0.032	-0.007
-231.786	19.766	-0.070	0.055
-230.771	800.000	0.089	0.322
-229.757	229.557	-0.086	0.138
-228.742	-55.851	-0.098	0.043
-227.727	-59.618	-0.186	-0.078
-226.713	-92.739	-0.354	-0.097
-225.698	-93.118	-0.094	0.026
-224.684	19.540	-0.220	0.174
-223.669	495.405	0.024	0.055
-222.655	107.112	0.258	-0.301
-221.640	-68.850	0.304	0.115
-220.625	302.827	0.047	0.086
-219.611	800.000	0.074	-0.275
-218.596	62.696	-0.118	0.116
-217.582	251.426	-0.014	-0.023
-216.567	-101.160	0.217	-0.052
-215.552	77.836	-0.086	-0.090
-214.538	19.475	0.309	-0.244
-213.523	4.295	0.029	-0.021
-212.509	51.877	0.108	0.101
-211.494	353.589	-0.197	-0.384
-210.479	2.710	-0.108	0.077
-209.465	23.822	0.200	0.162
-208.450	432.730	0.035	0.075
-207.436	-8.397	0.178	0.117
-206.421	-135.368	-0.248	-0.029
-205.406	-200.000	0.023	-0.346
-204.392	-107.158	0.255	-0.055
-203.377	-60.555	0.141	-0.059
-202.363	-103.145	-0.283	-0.066
-201.348	747.306	-0.113	0.299
-200.333	-200.000	0.041	0.240
-199.319	57.411	-0.170	0.163
-198.304	-107.600	-0.226	0.049
-197.290	85.275	-0.075	-0.081
-196.275	282.542	0.086	0.152
-195.260	-200.000	0.000	0.209
-194.246	-169.646	0.145	-0.005
-193.231	437.215	-0.026	-0.057
-192.217	-102.143	0.317	-0.075
-191.202	1.347	0.187	0.132
-190.187	260.000	0.151	0.256
-189.173	-200.000	0.021	-0.372
-188.158	-98.631	-0.189	-0.047
-187.144	5.173	-0.199	-0.144
-186.129	184.101	-0.167	0.242
-185.114	213.454	0.120	0.186
-184.100	-200.000	-0.009	0.093
-183.085	-148.025	0.255	-0.021
-182.071	-200.000	0.005	-0.177
-181.056	-172.473	0.082	-0.003
-180.042	-200.000	-0.035	-0.309
-179.027	128.163	-0.261	-0.326
-178.012	22.860	0.100	0.080
-176.998	-200.000	-0.090	0.000
-175.983	-14.586	0.233	0.147
-174.969	68.766	-0.089	-0.090
-173.954	113.143	0.089	-0.106
-172.939	302.792	-0.068	-0.123
-171.925	-200.000	0.030	0.138
-170.910	-7.985	0.345	0.228
-169.896	-28.988	-0.057	0.032
-168.881	-200.000	0.061	-0.319
-167.866	-200.000	-0.037	0.185
-166.852	101.516	0.097	0.111
-165.837	249.916	-0.040	-0.066
-164.823	-200.000	0.017	0.195
-163.808	4.851	-0.069	0.049
-162.793	-165.292	0.190	-0.008
-161.779	-68.062	0.079	0.030
-160.764	32.264	0.147	-0.124
-159.750	-160.474	-0.382	0.020
-158.735	43.573	0.205	-0.184
-157.720	-46.673	0.112	0.054
-156.706	-95.644	-0.235	-0.062
-155.691	186.488	0.060	0.087
-154.677	48.248	0.037	0.034
-153.662	-200.000	0.018	-0.099
-152.647	58.981	-0.061	-0.059
-151.633	-200.000	0.053	-0.245
-150.618	32.765	0.237	-0.201
-149.604	298.370	0.090	-0.162
-148.589	284.347	0.015	-0.027
-147.574	-167.617	-0.349	-0.014
-146.560	134.468	0.226	0.287
-145.545	-92.568	0.375	-0.103
-144.531	-200.000	0.035	0.289
-143.516	407.349	0.163	-0.337
-142.502	-100.551	-0.372	-0.090
-141.487	-44.244	0.216	0.106
-140.472	-200.000	-0.080	0.448
-139.458	-57.759	0.346	-0.148
-138.443	-106.248	-0.341	0.075
-137.429	800.000	0.054	-0.187
-136.414	368.266	0.040	0.080
-135.399	-169.878	-0.241	0.008
-134.385	-61.330	-0.181	0.075
-133.370	-71.369	-0.300	0.110
-132.356	-105.152	-0.245	-0.055
-131.341	-200.000	-0.012	0.061
-130.326	116.641	-0.239	0.287
-129.312	-47.581	-0.237	0.113
-128.297	-31.955	0.195	0.107
-127.283	1.176	-0.016	-0.011
-126.268	62.389	0.232	-0.226
-125.253	-200.000	-0.026	0.172
-124.239	109.707	-0.058	-0.068
-123.224	-110.055	0.343	-0.070
-122.210	47.913	0.101	-0.092
-121.195	27.637	0.335	-0.276
-120.180	-126.365	-0.150	-0.022
-119.166	-95.221	0.142	0.038
-118.151	304.554	0.096	-0.174
-117.137	80.120	-0.048	0.050
-116.122	615.704	-0.110	0.270
-115.107	-77.473	-0.112	-0.038
-114.093	-56.477	-0.185	0.080
-113.078	-132.929	-0.235	-0.029
-112.064	8.589	-0.098	0.072
-111.049	-66.556	-0.205	0.080
-110.034	-101.837	0.232	-0.055
-109.020	360.851	0.116	0.228
-108.005	-133.082	0.309	-0.038
-106.991	155.632	0.144	-0.194
-105.976	324.897	-0.094	0.175
-104.962	800.000	-0.071	-0.234
-103.947	154.292	0.074	-0.099
-102.932	800.000	0.041	-0.173
-101.918	-105.827	0.221	0.049
-100.903	-100.442	-0.351	0.085
-99.889	-200.000	-0.002	0.255
-98.874	-200.000	-0.019	0.121
-97.859	-121.854	0.332	-0.054
-96.845	800.000	-0.133	-0.393
-95.830	441.487	0.146	0.313
-94.816	92.265	-0.154	-0.169
-93.801	79.563	-0.198	0.208
-92.786	-200.000	-0.004	-0.020
-91.772	-43.609	-0.231	-0.114
-90.757	56.887	-0.143	0.136
-89.743	124.129	-0.165	0.202
-88.728	-200.000	-0.019	-0.086
-87.713	-120.027	0.155	0.026
-86.699	-200.000	-0.059	0.275
-85.684	-200.000	-0.053	-0.368
-84.670	-200.000	-0.004	-0.164
-83.655	-200.000	0.031	0.199
-82.640	800.000	-0.117	0.446
-81.626	236.298	-0.223	-0.361
-80.611	800.000	-0.081	-0.271
-79.597	77.061	0.202	-0.209
-78.582	491.187	-0.083	0.186
-77.567	-164.171	0.399	-0.018
-76.553	555.412	0.102	0.239
-75.538	203.516	0.135	-0.204
-74.524	-200.000	-0.015	0.249
-73.509	33.684	0.266	0.226
-72.494	-167.710	0.340	-0.013
-71.480	18.209	-0.147	0.114
-70.465	-200.000	0.024	0.182
-69.451	288.077	0.041	0.072
-68.436	-159.531	0.399	0.022
-67.422	146.568	0.046	-0.060
-66.407	-46.352	-0.315	0.151
-65.392	-60.615	-0.183	0.076
-64.378	-11.046	0.033	-0.021
-63.363	-41.097	-0.201	0.101
-62.349	82.787	0.046	-0.049
-61.334	81.657	-1.357	-1.434
-60.319	77.370	0.971	1.009
-59.305	698.707	-0.384	-0.986
-58.290	291.727	0.953	1.693
-57.276	663.438	0.577	1.453
-56.261	-200.000	136.925	638.719
-55.246	336.284	1658.525	3141.939
-54.232	133.625	2801.289	3537.061
-53.217	76.033	2343.966	2420.126
-52.203	25.998	2088.558	1700.160
-51.188	21.544	2007.673	1593.789
-50.173	20.735	1993.148	1574.878
-49.159	38.447	2071.747	1801.811
-48.144	35.570	2080.974	1783.104
-47.130	21.877	2033.494	1617.099
-46.115	20.033	2022.887	1591.677
-45.100	19.912	2019.434	1587.780
-44.086	19.908	2017.318	1586.023
-43.071	19.838	2014.577	1583.160
-42.057	19.863	2012.786	1581.919
-41.042	19.884	2011.523	1581.057
-40.027	19.956	2008.751	1579.467
-39.013	19.866	2007.490	1577.601
-37.998	19.828	2005.693	1575.775
-36.984	19.837	2004.074	1574.518
-35.969	19.911	2001.585	1573.174
-34.954	19.895	2000.077	1571.788
-33.940	19.956	1998.694	1571.186
-32.925	20.024	1997.116	1570.504
-31.911	20.061	1995.406	1569.428
-30.896	20.013	1993.476	1567.420
-29.881	20.035	1992.548	1566.823
-28.867	19.993	1990.917	1565.095
-27.852	20.048	1988.301	1563.480
-26.838	20.023	1986.821	1562.028
-25.823	20.031	1985.715	1561.171
-24.809	19.985	1984.245	1559.533
-23.794	19.994	1982.385	1558.088
-22.779	19.983	1980.756	1556.649
-21.765	20.025	1978.744	1555.386
-20.750	20.022	1977.302	1554.159
-19.736	20.021	1975.792	1552.901
-18.721	20.008	1973.956	1551.285
-17.706	19.954	1972.997	1549.984
-16.692	19.996	1970.766	1548.550
-15.677	20.057	1969.003	1547.645
-14.663	19.994	1967.694	1545.992
-13.648	20.027	1966.926	1545.624
-12.633	20.022	1965.559	1544.442
-11.619	20.060	1964.081	1543.555
-10.604	20.009	1962.899	1542.112
-9.590	19.904	1961.703	1540.178
-8.575	20.001	1959.900	1539.567
-7.560	20.082	1958.840	1539.386
-6.546	19.999	1957.571	1537.595
-5.531	20.034	1955.845	1536.487
-4.517	20.050	1954.761	1535.721
-3.502	19.978	1953.750	1534.225
-2.487	20.002	1952.429	1533.341
-1.473	19.934	1952.058	1532.380
-0.458	20.030	1946.259	1528.621
0.556	18.609	1925.460	1498.032
1.571	14.010	1905.709	1442.700
2.586	9.950	1929.653	1424.941
3.600	8.952	1964.334	1441.455
4.615	8.928	1955.789	1434.844
5.629	7.180	1856.821	1347.255
6.644	3.057	1748.339	1235.360
7.659	0.799	1718.368	1196.227
8.673	0.669	1715.975	1193.426
9.688	0.628	1714.955	1192.289
10.702	0.672	1712.978	1191.158
11.717	0.471	1708.988	1186.700
12.731	0.797	1706.956	1187.742
13.746	4.328	1713.641	1220.085
14.761	10.885	1727.698	1281.832
15.775	15.865	1737.681	1328.515
16.790	17.134	1738.329	1338.911
17.804	16.234	1735.567	1329.572
18.819	15.299	1732.390	1319.666
19.834	14.659	1730.018	1312.715
20.848	14.458	1728.317	1309.727
21.863	14.345	1726.985	1307.716
22.877	14.095	1724.642	1303.863
23.892	13.772	1723.609	1300.435
24.907	13.670	1722.483	1298.672
25.921	13.619	1721.030	1297.061
26.936	13.590	1720.379	1296.231
27.950	13.683	1719.170	1295.934
28.965	13.678	1719.353	1295.920
29.980	13.759	1718.132	1295.514
30.994	13.694	1717.249	1294.224
32.009	13.764	1716.026	1293.739
33.023	13.821	1715.936	1293.998
34.038	13.860	1714.783	1293.321
35.053	13.859	1713.243	1292.033
36.067	13.795	1712.362	1290.756
37.082	13.796	1711.313	1289.860
38.096	13.795	1710.383	1289.036
39.111	13.867	1709.465	1288.791
40.126	13.898	1708.174	1287.944
41.140	13.864	1707.249	1286.873
42.155	13.796	1705.792	1285.128
43.169	13.656	1704.765	1283.159
44.184	13.751	1703.487	1282.818
45.199	13.766	1701.981	1281.685
46.213	13.692	1700.964	1280.235
47.228	13.700	1700.099	1279.538
48.242	13.716	1698.560	1278.384
49.257	13.670	1697.729	1277.293
50.271	13.748	1696.060	1276.521
51.286	13.681	1694.766	1274.924
52.301	13.708	1693.761	1274.258
53.315	13.768	1692.135	1273.386
54.330	13.843	1690.062	1272.285
55.344	13.654	1688.962	1269.903
56.359	13.626	1687.555	1268.511
57.374	13.715	1686.240	1268.098
58.388	13.802	1684.687	1267.483
59.403	13.692	1683.741	1265.813
60.417	13.584	1682.300	1263.799
61.432	13.698	1680.803	1263.429
62.447	13.563	1680.511	1262.070
63.461	13.567	1678.884	1260.767
64.476	13.593	1677.708	1259.969
65.490	13.632	1676.202	1259.023
66.505	13.562	1675.009	1257.487
67.520	13.550	1674.162	1256.645
68.534	13.623	1673.199	1256.368
69.549	13.650	1672.032	1255.583
70.563	13.592	1670.804	1254.113
71.578	13.606	1669.731	1253.300
72.593	13.559	1668.757	1252.102
73.607	13.505	1667.182	1250.405
74.622	13.614	1665.943	1250.181
75.636	13.580	1665.224	1249.277
76.651	13.498	1664.602	1248.082
77.666	13.504	1663.660	1247.310
78.680	13.481	1662.468	1246.136
79.695	13.497	1661.827	1245.666
80.709	13.501	1660.689	1244.731
81.724	13.614	1659.396	1244.500
82.739	13.649	1658.430	1243.929
83.753	13.709	1657.547	1243.609
84.768	13.614	1656.421	1241.939
85.782	13.678	1655.964	1241.967
86.797	13.768	1654.734	1241.608
87.812	13.708	1653.904	1240.425
88.826	13.668	1652.594	1239.032
89.841	13.547	1651.923	1237.518
90.855	13.715	1650.303	1237.452
91.870	13.732	1649.557	1236.909
92.884	13.766	1648.459	1236.228
93.899	13.752	1647.370	1235.193
94.914	13.811	1645.575	1234.180
95.928	13.751	1644.425	1232.767
96.943	13.922	1642.972	1232.831
97.957	13.841	1642.042	1231.424
98.972	13.790	1640.297	1229.632
99.987	13.819	1638.814	1228.628
101.001	13.794	1636.374	1226.503
102.016	13.770	1635.083	1225.251
103.030	13.752	1634.143	1224.303
104.045	13.733	1633.022	1223.213
105.060	13.724	1631.323	1221.770
106.074	13.791	1629.556	1220.830
107.089	13.702	1628.030	1218.922
108.103	13.643	1626.726	1217.410
109.118	13.650	1624.958	1216.027
110.133	13.656	1623.525	1214.891
111.147	13.628	1622.410	1213.742
112.162	13.631	1621.310	1212.834
113.176	13.673	1619.467	1211.657
114.191	13.650	1618.059	1210.325
115.206	13.701	1616.708	1209.582
116.220	13.726	1615.114	1208.465
117.235	13.674	1614.245	1207.332
118.249	13.761	1612.263	1206.376
119.264	13.687	1611.018	1204.798
120.279	13.601	1610.389	1203.595
121.293	13.677	1608.173	1202.386
122.308	13.656	1606.465	1200.847
123.322	13.727	1604.395	1199.709
124.337	13.519	1603.775	1197.636
125.352	13.629	1602.295	1197.217
126.366	13.669	1600.896	1196.357
127.381	13.646	1600.032	1195.439
128.395	13.598	1599.247	1194.399
129.410	13.646	1597.356	1193.226
130.424	13.625	1596.115	1192.045
131.439	13.674	1594.813	1191.318
132.454	13.665	1593.679	1190.303
133.468	13.784	1591.123	1189.138
134.483	13.729	1590.304	1188.027
135.497	13.706	1589.021	1186.799
136.512	13.751	1587.183	1185.642
137.527	13.724	1586.471	1184.814
138.541	13.692	1585.080	1183.441
139.556	13.769	1582.995	1182.327
140.570	13.719	1582.128	1181.220
141.585	13.740	1580.504	1180.051
142.600	13.820	1579.492	1179.764
143.614	13.894	1577.937	1179.025
144.629	13.921	1576.722	1178.204
145.643	13.853	1576.107	1177.156
146.658	13.969	1574.213	1176.457
147.673	13.967	1572.766	1175.256
148.687	13.975	1571.632	1174.364
149.702	13.896	1569.405	1172.042
150.716	13.859	1568.322	1170.863
151.731	13.943	1566.361	1169.891
152.746	13.874	1565.342	1168.540
153.760	13.924	1563.891	1167.706
154.775	13.912	1563.235	1167.028
155.789	13.990	1561.353	1166.069
156.804	13.983	1560.047	1164.939
157.819	14.010	1559.258	1164.434
158.833	14.025	1557.749	1163.311
159.848	14.063	1556.315	1162.399
160.862	14.113	1554.947	1161.625
161.877	14.135	1554.015	1160.981
162.892	14.088	1552.662	1159.542
163.906	13.974	1551.553	1157.812
164.921	13.991	1550.237	1156.852
165.935	14.103	1548.528	1156.247
166.950	14.027	1548.240	1155.405
167.964	14.114	1546.411	1154.542
168.979	14.046	1546.135	1153.763
169.994	14.036	1545.066	1152.790
171.008	14.114	1543.284	1151.902
172.023	14.076	1542.342	1150.832
173.037	14.145	1541.252	1150.393
174.052	14.198	1539.890	1149.640
175.067	14.171	1538.733	1148.490
176.081	14.154	1537.472	1147.332
177.096	14.103	1536.309	1146.012
178.110	14.067	1535.041	1144.713
179.125	14.131	1533.866	1144.174
180.140	14.130	1532.352	1142.938
181.154	14.189	1531.343	1142.489
182.169	14.240	1530.294	1141.960
183.183	14.225	1528.990	1140.781
184.198	14.293	1528.179	1140.537
185.213	14.226	1527.316	1139.336
186.227	14.370	1525.500	1138.865
187.242	14.264	1524.783	1137.508
188.256	14.445	1523.411	1137.619
189.271	14.409	1522.863	1136.861
190.286	14.357	1521.690	1135.529
191.300	14.386	1520.368	1134.638
192.315	14.264	1519.485	1133.049
193.329	14.163	1518.362	1131.429
194.344	14.224	1516.908	1130.659
195.359	14.179	1516.339	1129.829
196.373	14.265	1514.762	1129.135
197.388	14.273	1514.204	1128.676
198.402	14.378	1512.534	1128.038
199.417	14.397	1511.412	1127.235
200.432	14.386	1510.683	1126.514
201.446	14.492	1509.215	1126.039
202.461	14.574	1507.913	1125.521
203.475	14.559	1506.652	1124.374
204.490	14.555	1505.666	1123.513
205.504	14.479	1505.102	1122.482
206.519	14.503	1503.803	1121.575
207.534	14.580	1502.343	1120.908
208.548	14.547	1501.211	1119.743
209.563	14.634	1499.973	1119.302
210.577	14.499	1499.130	1117.666
211.592	14.547	1498.294	1117.266
212.607	14.612	1497.850	1117.273
213.621	14.728	1496.432	1116.889
214.636	14.749	1495.528	1116.257
215.650	14.729	1494.475	1115.244
216.665	14.662	1493.901	1114.267
217.680	14.745	1492.675	1113.806
218.694	14.712	1492.262	1113.178
219.709	14.728	1491.273	1112.453
220.723	14.802	1489.836	1111.775
221.738	14.849	1488.958	1111.331
222.753	14.743	1488.176	1109.948
223.767	14.786	1487.295	1109.473
224.782	14.726	1486.337	1108.267
225.796	14.778	1485.299	1107.734
226.811	14.806	1484.405	1107.159
227.826	14.819	1483.413	1106.405
228.840	14.836	1482.629	1105.837
229.855	14.788	1481.786	1104.790
230.869	14.800	1481.017	1104.200
231.884	14.906	1479.345	1103.553
232.899	14.849	1478.570	1102.504
233.913	14.808	1477.371	1101.242
234.928	14.875	1475.801	1100.417
235.942	14.846	1475.147	1099.637
236.957	14.920	1472.997	1098.427
237.972	14.933	1472.367	1097.942
238.986	14.989	1470.973	1097.175
240.001	14.905	1470.440	1096.131
241.015	14.970	1469.293	1095.603
242.030	14.895	1468.339	1094.306
243.045	15.107	1466.813	1094.458
244.059	15.033	1466.305	1093.494
245.074	15.032	1465.477	1092.777
246.088	15.068	1464.452	1092.147
247.103	15.014	1464.100	1091.439
248.117	15.027	1463.314	1090.843
249.132	15.059	1461.908	1089.904
250.147	15.155	1461.462	1090.100
251.161	15.197	1461.265	1090.131
252.176	15.202	1460.173	1089.252
253.190	15.333	1459.275	1089.333
254.205	15.293	1458.789	1088.615
255.220	15.265	1457.597	1087.449
256.234	15.365	1456.605	1087.259
257.249	15.374	1455.822	1086.638
258.263	15.366	1455.188	1086.018
259.278	15.415	1453.947	1085.312
260.293	15.343	1453.438	1084.371
261.307	15.439	1452.351	1084.081
262.322	15.406	1451.383	1083.050
263.336	15.553	1450.426	1083.190
264.351	15.499	1449.703	1082.208
265.366	15.517	1448.809	1081.557
266.380	15.466	1448.032	1080.555
267.395	15.475	1447.016	1079.757
268.409	15.559	1446.283	1079.660
269.424	15.576	1445.358	1078.979
270.439	15.591	1443.842	1077.849
271.453	15.641	1442.613	1077.156
272.468	15.496	1442.454	1076.011
273.482	15.553	1441.153	1075.310
274.497	15.630	1440.212	1075.008
275.512	15.640	1438.882	1073.981
276.526	15.621	1438.375	1073.387
277.541	15.557	1437.736	1072.411
278.555	15.619	1436.797	1072.008
279.570	15.610	1435.906	1071.195
280.585	15.573	1435.123	1070.280
281.599	15.738	1434.056	1070.440
282.614	15.814	1433.150	1070.152
283.628	15.760	1431.915	1068.789
284.643	15.782	1430.566	1067.826
285.657	15.791	1429.580	1067.054
286.672	15.728	1428.899	1066.053
287.687	15.744	1428.189	1065.527
288.701	15.740	1426.977	1064.505
289.716	15.852	1426.145	1064.500
290.730	15.826	1425.245	1063.566
291.745	15.857	1423.884	1062.655
292.760	15.795	1423.675	1062.017
293.774	15.905	1422.037	1061.392
294.789	15.910	1421.153	1060.671
295.803	15.909	1420.439	1060.038
296.818	15.972	1419.324	1059.507
297.833	15.911	1418.941	1058.744
298.847	15.834	1417.659	1057.212
299.862	15.966	1416.423	1057.020
300.876	15.921	1415.895	1056.252
301.891	15.920	1414.712	1055.272
302.906	16.069	1413.802	1055.431
303.920	15.916	1413.386	1054.067
304.935	15.978	1412.523	1053.722
305.949	16.024	1411.476	1053.135
306.964	16.144	1410.697	1053.207
307.979	16.176	1409.777	1052.629
308.993	16.184	1408.643	1051.737
310.008	16.150	1407.761	1050.776
311.022	16.269	1406.252	1050.294
312.037	16.220	1405.250	1049.150
313.052	16.320	1404.028	1048.764
314.066	16.175	1403.884	1047.662
315.081	16.190	1402.608	1046.712
316.095	16.177	1401.433	1045.660
317.110	16.217	1400.533	1045.144
318.125	16.184	1399.563	1044.129
319.139	16.183	1398.641	1043.341
320.154	16.247	1397.781	1043.000
321.168	16.215	1396.528	1041.775
322.183	16.351	1395.575	1041.815
323.197	16.257	1395.200	1040.859
324.212	16.199	1394.125	1039.611
325.227	16.259	1393.445	1039.378
326.241	16.361	1392.090	1038.905
327.256	16.287	1391.461	1037.888
328.270	16.269	1390.427	1036.913
329.285	16.269	1389.445	1036.093
330.300	16.338	1388.034	1035.373
331.314	16.396	1387.147	1034.973
332.329	16.349	1386.737	1034.287
333.343	16.347	1386.161	1033.752
334.358	16.433	1384.540	1032.979
335.373	16.469	1383.909	1032.634
336.387	16.357	1383.540	1031.588
337.402	16.427	1382.291	1030.989
338.416	16.498	1381.369	1030.644
339.431	16.561	1381.065	1030.711
340.446	16.592	1380.337	1030.265
341.460	16.632	1379.212	1029.578
342.475	16.479	1378.719	1028.187
343.489	16.681	1377.511	1028.420
344.504	16.633	1376.134	1027.013
345.519	16.677	1375.344	1026.600
346.533	16.760	1374.500	1026.379
347.548	16.807	1373.336	1025.705
348.562	16.757	1372.888	1024.977
349.577	16.719	1372.357	1024.260
350.592	16.771	1370.996	1023.468
351.606	16.605	1370.775	1022.209
352.621	16.685	1369.631	1021.751
353.635	16.726	1368.011	1020.696
354.650	16.779	1367.482	1020.529
355.665	16.800	1366.365	1019.733
356.679	16.756	1365.227	1018.532
357.694	16.699	1364.126	1017.277
358.708	16.755	1363.194	1016.827
359.723	16.813	1362.151	1016.308
360.738	16.892	1360.908	1015.761
361.752	16.896	1359.590	1014.711
362.767	16.861	1358.406	1013.529
363.781	16.872	1357.817	1013.065
364.796	16.768	1357.777	1012.327
365.810	16.830	1356.390	1011.571
366.825	16.843	1355.811	1011.128
367.840	16.873	1355.117	1010.704
368.854	17.020	1354.111	1010.737
369.869	17.105	1353.795	1010.916
370.883	17.153	1353.152	1010.635
371.898	16.990	1352.592	1009.154
372.913	17.080	1351.412	1008.725
373.927	16.997	1350.097	1007.157
374.942	17.125	1349.205	1007.160
375.956	17.112	1348.649	1006.581
376.971	17.191	1347.877	1006.386
377.986	17.086	1347.064	1005.065
379.000	17.212	1346.122	1005.020
380.015	17.165	1345.641	1004.296
381.029	17.116	1344.886	1003.351
382.044	17.279	1343.477	1003.176
383.059	17.297	1342.868	1002.737
384.073	17.218	1342.496	1001.906
385.088	17.319	1341.816	1001.903
386.102	17.304	1341.338	1001.370
387.117	17.288	1340.919	1000.876
388.132	17.387	1339.548	1000.343
389.146	17.358	1338.859	999.570
390.161	17.280	1338.039	998.414
391.175	17.410	1336.985	998.303
392.190	17.456	1336.130	997.844
393.205	17.365	1335.327	996.622
394.219	17.555	1334.118	996.744
395.234	17.504	1332.921	995.463
396.248	17.468	1331.886	994.391
397.263	17.387	1330.518	992.813
398.278	17.498	1328.984	992.224
399.292	17.546	1327.476	991.293
400.307	17.461	1326.826	990.220
401.321	17.405	1326.193	989.338
402.336	17.559	1324.735	989.055
403.350	17.425	1323.200	987.048
404.365	17.498	1322.687	986.996
405.380	17.467	1322.517	986.606
406.394	17.502	1321.144	985.694
407.409	17.587	1320.467	985.593
408.423	17.600	1320.129	985.328
409.438	17.609	1319.276	984.656
410.453	17.714	1318.408	984.532
411.467	17.639	1318.020	983.720
412.482	17.776	1317.182	983.801
413.496	17.772	1316.542	983.208
414.511	17.701	1315.748	982.122
415.526	17.773	1315.114	981.974
416.540	17.865	1314.282	981.798
417.555	17.859	1313.587	981.159
418.569	17.717	1313.452	980.154
419.584	17.786	1312.467	979.727
420.599	17.853	1311.737	979.481
421.613	101.740	1364.793	1492.412
422.628	100.198	1372.447	1492.464
