DTS Sentinel unit serial number:	SN413079Multiplexer serial number:	ORYXHardware model number:	OX4-SRSoftware version number:	ORYX F/W v4.00 Oryx Data Collector v3.7.2.0data status	okinstallation	princeton_trtdifferential loss correction	single-endedforward channel	channel 4reverse channel	N/Adate	2019/09/11time	15:03:11forward acquisition time	60.00reverse acquisition time	0.00gamma	496.2192k internal	0.2277k external	0.2277temperature offset calibration	1.0013default loss term (dB/km)	0.3790temperature slope calibration	1.0000multiplexer offset coefficient	1.0000multiplexer slope coefficient	1.0000fibre end	0.00T internal ref (°C)	42.87T ext. ref 1 (°C)	0.96T ext. ref 2 (°C)	38.21length (m)	temperature (°C)	Stokes	anti-Stokes-747.200	148.880	0.083	0.116
-746.185	424.546	-0.170	0.377
-745.171	-82.883	-0.246	0.082
-744.156	-154.576	0.139	0.010
-743.142	-71.221	-0.280	0.108
-742.127	61.964	0.110	0.113
-741.112	-87.084	0.264	0.083
-740.098	-200.000	-0.014	0.374
-739.083	-158.267	-0.284	-0.017
-738.069	-200.000	0.016	-0.073
-737.054	-112.606	0.320	-0.066
-736.039	800.000	-0.144	0.491
-735.025	-60.818	-0.155	-0.068
-734.010	-45.850	-0.376	-0.191
-732.996	280.588	0.009	0.016
-731.981	-200.000	0.022	-0.384
-730.966	420.025	0.181	0.398
-729.952	24.181	-0.147	0.125
-728.937	-195.753	0.239	-0.002
-727.923	53.115	-0.226	-0.223
-726.908	-200.000	0.043	0.281
-725.894	186.653	-0.146	-0.223
-724.879	-200.000	0.024	-0.210
-723.864	107.429	0.072	-0.088
-722.850	800.000	-0.103	0.310
-721.835	800.000	-0.075	0.267
-720.821	-54.286	-0.156	-0.073
-719.806	-98.860	-0.088	0.023
-718.791	-84.052	-0.464	-0.152
-717.777	800.000	0.061	-0.237
-716.762	70.294	0.143	-0.152
-715.748	-134.923	0.090	-0.011
-714.733	-200.000	-0.014	-0.121
-713.718	800.000	-0.143	-0.410
-712.704	-113.415	0.127	-0.026
-711.689	437.298	-0.062	-0.138
-710.675	-145.969	-0.270	0.025
-709.660	-200.000	0.016	-0.073
-708.645	800.000	0.065	0.268
-707.631	34.304	0.138	0.123
-706.616	-76.149	0.185	0.067
-705.602	-16.380	-0.059	-0.039
-704.587	-103.655	0.111	-0.027
-703.572	800.000	0.062	-0.222
-702.558	-156.688	-0.212	0.014
-701.543	28.766	0.222	0.193
-700.529	-93.113	-0.146	-0.042
-699.514	-90.117	0.413	0.124
-698.499	490.622	-0.126	-0.296
-697.485	-200.000	0.054	0.254
-696.470	-59.018	-0.321	0.143
-695.456	78.112	-0.103	-0.113
-694.441	-84.125	-0.117	0.038
-693.426	507.080	0.082	0.196
-692.412	-124.890	0.057	0.009
-691.397	-167.326	0.303	-0.013
-690.383	-72.338	0.408	0.155
-689.368	490.026	-0.051	-0.121
-688.354	7.622	-0.184	-0.141
-687.339	-200.000	0.012	0.110
-686.324	-44.411	0.152	-0.078
-685.310	467.146	0.050	0.116
-684.295	11.515	0.134	-0.106
-683.281	800.000	0.081	0.300
-682.266	3.085	-0.229	0.171
-681.251	169.159	-0.234	0.343
-680.237	800.000	-0.047	-0.174
-679.222	-200.000	-0.034	0.338
-678.208	-139.528	0.247	-0.027
-677.193	-200.000	0.116	0.639
-676.178	-89.530	-0.384	0.116
-675.164	-200.000	0.003	-0.027
-674.149	-155.316	-0.158	-0.011
-673.135	-200.000	0.027	-0.495
-672.120	-114.358	0.112	-0.022
-671.105	-200.000	0.010	0.147
-670.091	70.273	0.136	0.144
-669.076	-129.075	0.362	0.052
-668.062	139.166	0.112	0.152
-667.047	82.422	-0.282	0.314
-666.032	800.000	-0.076	0.268
-665.018	-112.849	-0.097	0.020
-664.003	-26.789	-0.132	0.079
-662.989	-17.853	0.307	-0.198
-661.974	225.081	0.112	-0.186
-660.959	57.665	-0.196	-0.197
-659.945	-24.193	-0.213	0.131
-658.930	54.497	0.247	-0.244
-657.916	-174.897	0.272	-0.008
-656.901	-123.479	0.329	0.054
-655.886	800.000	0.011	0.040
-654.872	800.000	-0.015	-0.063
-653.857	800.000	-0.092	0.318
-652.843	800.000	-0.047	-0.143
-651.828	800.000	0.069	-0.247
-650.814	-200.000	0.004	-0.041
-649.799	194.777	0.117	-0.182
-648.784	-200.000	-0.006	-0.037
-647.770	-200.000	0.014	0.245
-646.755	-200.000	0.030	-0.268
-645.741	-92.704	-0.117	0.034
-644.726	123.840	-0.150	0.193
-643.711	-200.000	0.001	-0.088
-642.697	-200.000	0.222	0.001
-641.682	800.000	0.154	-0.596
-640.668	60.576	-0.256	-0.260
-639.653	-200.000	-0.012	-0.353
-638.638	-200.000	0.052	-0.303
-637.624	75.546	-0.293	-0.317
-636.609	-62.365	-0.299	0.128
-635.595	24.665	-0.161	-0.137
-634.580	45.146	0.177	0.167
-633.565	-200.000	0.050	-0.225
-632.551	18.184	-0.400	0.327
-631.536	-123.966	0.056	0.009
-630.522	-200.000	0.054	0.460
-629.507	281.562	0.040	0.074
-628.492	148.854	-0.145	-0.201
-627.478	91.452	-0.245	-0.282
-626.463	-5.256	-0.220	0.155
-625.449	-174.257	-0.265	0.008
-624.434	800.000	0.069	0.240
-623.419	48.855	0.142	-0.136
-622.405	-200.000	-0.022	0.252
-621.390	84.001	-0.243	-0.272
-620.376	-200.000	-0.024	-0.243
-619.361	130.275	0.119	0.157
-618.346	198.502	0.172	-0.270
-617.332	110.629	0.183	0.225
-616.317	-79.524	-0.158	0.055
-615.303	-0.670	0.239	0.174
-614.288	-50.413	0.342	-0.165
-613.273	-200.000	-0.040	-0.366
-612.259	107.397	-0.170	0.208
-611.244	-200.000	0.012	0.242
-610.230	200.154	-0.098	-0.155
-609.215	-33.633	-0.439	0.248
-608.201	186.657	0.095	0.145
-607.186	402.566	0.133	0.288
-606.171	40.192	-0.149	-0.137
-605.157	-28.587	0.136	0.081
-604.142	-13.945	0.164	0.109
-603.128	-4.675	0.549	-0.388
-602.113	251.145	-0.066	-0.116
-601.098	273.950	0.090	0.163
-600.084	-200.000	0.033	-0.333
-599.069	800.000	-0.091	0.271
-598.055	238.586	0.069	-0.117
-597.040	291.386	0.213	0.397
-596.025	43.292	-0.083	0.078
-595.011	324.364	-0.197	0.385
-593.996	476.895	-0.125	-0.289
-592.982	-200.000	0.006	0.076
-591.967	-122.680	0.218	-0.036
-590.952	-129.673	0.503	0.071
-589.938	375.697	0.112	-0.235
-588.923	140.533	0.063	0.085
-587.909	65.107	-0.050	0.052
-586.894	78.936	-0.073	0.080
-585.879	20.578	-0.104	-0.086
-584.865	-200.000	-0.015	-0.196
-583.850	-22.948	-0.077	-0.048
-582.836	-31.141	0.294	0.170
-581.821	90.943	-0.252	0.290
-580.806	-119.215	0.090	0.016
-579.792	-79.773	-0.305	-0.105
-578.777	-15.244	-0.305	-0.199
-577.763	-30.477	0.306	0.177
-576.748	197.258	0.094	-0.148
-575.733	-200.000	0.003	0.173
-574.719	150.181	-0.084	-0.117
-573.704	16.340	0.307	-0.248
-572.690	119.976	-0.116	-0.148
-571.675	12.481	-0.132	-0.104
-570.661	174.694	0.118	0.175
-569.646	-34.463	-0.083	-0.047
-568.631	87.832	-0.039	0.044
-567.617	-55.199	-0.067	-0.031
-566.602	59.015	-0.192	0.194
-565.588	-12.748	-0.148	-0.099
-564.573	125.620	-0.282	-0.365
-563.558	-200.000	-0.014	0.205
-562.544	-200.000	-0.019	-0.150
-561.529	800.000	0.084	-0.368
-560.515	765.473	-0.156	-0.434
-559.500	-92.274	0.193	-0.056
-558.485	-200.000	-0.059	0.297
-557.471	-200.000	-0.009	-0.107
-556.456	-159.579	0.076	0.004
-555.442	-19.105	-0.108	0.069
-554.427	-112.140	-0.136	0.028
-553.412	-200.000	-0.010	-0.142
-552.398	434.305	-0.095	-0.211
-551.383	39.036	0.081	0.074
-550.369	-71.602	-0.200	-0.077
-549.354	102.877	0.091	-0.109
-548.339	82.414	0.301	0.333
-547.325	-34.977	0.026	-0.014
-546.310	-200.000	-0.036	-0.313
-545.296	162.313	0.186	0.266
-544.281	326.662	-0.123	-0.242
-543.266	225.963	-0.155	0.256
-542.252	-104.435	0.055	0.013
-541.237	800.000	0.061	0.206
-540.223	482.949	0.090	0.209
-539.208	-176.930	-0.280	-0.007
-538.193	-200.000	0.015	0.219
-537.179	-46.827	-0.051	-0.026
-536.164	281.938	-0.196	-0.359
-535.150	768.230	0.048	-0.134
-534.135	-164.992	-0.241	0.011
-533.121	-200.000	0.026	0.151
-532.106	-200.000	0.055	-0.260
-531.091	737.137	0.180	-0.493
-530.077	420.134	-0.115	0.251
-529.062	-200.000	-0.076	0.536
-528.048	199.658	-0.044	0.069
-527.033	94.177	-0.085	-0.098
-526.018	-24.690	-0.103	0.063
-525.004	-200.000	-0.001	0.323
-523.989	-44.522	0.247	-0.126
-522.975	410.509	0.042	0.092
-521.960	-31.325	0.121	0.069
-520.945	-200.000	-0.019	-0.147
-519.931	-34.008	0.341	0.191
-518.916	-200.000	0.020	0.357
-517.902	-117.840	-0.256	-0.047
-516.887	-76.482	-0.132	0.047
-515.872	800.000	-0.077	-0.284
-514.858	211.185	0.102	0.163
-513.843	-102.139	-0.287	-0.070
-512.829	-77.833	0.114	0.040
-511.814	-200.000	-0.024	-0.323
-510.799	800.000	0.056	-0.178
-509.785	89.280	0.112	-0.127
-508.770	-129.414	-0.239	0.034
-507.756	-35.128	-0.530	-0.295
-506.741	353.955	0.158	-0.321
-505.726	42.595	0.123	-0.115
-504.712	5.373	-0.247	-0.186
-503.697	-55.412	0.299	0.137
-502.683	159.929	-0.129	-0.184
-501.668	-59.489	0.105	-0.046
-500.653	-98.878	0.210	0.054
-499.639	89.354	0.148	-0.168
-498.624	83.031	-0.105	-0.117
-497.610	-98.307	0.157	-0.041
-496.595	66.814	0.169	0.175
-495.581	-200.000	0.000	0.224
-494.566	800.000	0.067	-0.194
-493.551	-200.000	-0.031	-0.311
-492.537	403.129	-0.160	0.343
-491.522	-97.829	-0.214	-0.056
-490.508	554.808	0.078	-0.191
-489.493	-200.000	0.008	-0.226
-488.478	-200.000	-0.012	0.103
-487.464	-156.675	0.153	0.010
-486.449	-134.727	0.245	-0.030
-485.435	-17.640	-0.224	0.144
-484.420	-147.769	-0.255	-0.022
-483.405	42.477	-0.241	-0.224
-482.391	7.925	0.019	-0.015
-481.376	-159.959	0.442	0.025
-480.362	-7.426	0.095	-0.065
-479.347	-200.000	-0.019	0.089
-478.332	370.940	-0.152	0.314
-477.318	-200.000	0.011	-0.253
-476.303	704.736	-0.089	0.239
-475.289	-19.287	-0.005	0.003
-474.274	-91.659	0.068	0.020
-473.259	115.144	-0.121	-0.150
-472.245	-83.469	0.247	0.081
-471.230	-38.589	0.150	0.081
-470.216	-90.478	-0.463	-0.137
-469.201	540.529	0.097	-0.235
-468.186	-141.590	0.315	0.032
-467.172	-27.698	0.143	-0.084
-466.157	-200.000	0.006	-0.152
-465.143	-0.367	0.145	0.105
-464.128	800.000	0.076	0.240
-463.113	-159.625	-0.363	-0.020
-462.099	257.435	0.137	0.240
-461.084	25.221	-0.158	0.134
-460.070	800.000	0.108	-0.324
-459.055	800.000	-0.077	-0.283
-458.040	-121.411	-0.438	0.074
-457.026	-102.832	0.221	0.054
-456.011	11.753	0.207	0.162
-454.997	800.000	0.057	-0.223
-453.982	63.638	-0.188	0.192
-452.968	144.964	-0.108	0.147
-451.953	107.570	-0.207	-0.251
-450.938	-16.233	0.132	0.085
-449.924	-6.237	0.073	0.050
-448.909	-67.863	-0.139	-0.055
-447.895	-96.383	-0.014	0.004
-446.880	23.099	-0.109	-0.091
-445.865	-200.000	0.022	0.215
-444.851	328.175	-0.110	-0.216
-443.836	93.444	-0.323	-0.373
-442.822	-112.415	0.147	-0.030
-441.807	45.890	0.028	0.027
-440.792	-200.000	0.037	-0.587
-439.778	154.315	0.055	-0.077
-438.763	26.362	-0.132	-0.112
-437.749	-78.045	-0.137	-0.048
-436.734	70.336	0.154	-0.162
-435.719	388.860	0.108	0.228
-434.705	-111.048	0.156	-0.033
-433.690	46.834	-0.143	0.135
-432.676	-106.898	-0.251	0.057
-431.661	637.837	0.132	0.341
-430.646	77.911	-0.336	0.365
-429.632	293.294	-0.203	0.376
-428.617	-111.783	-0.320	-0.066
-427.603	-200.000	-0.119	-0.620
-426.588	-181.423	-0.060	0.001
-425.573	-200.000	-0.008	-0.063
-424.559	-16.298	0.036	-0.024
-423.544	49.315	0.059	0.056
-422.530	800.000	0.086	0.372
-421.515	-107.637	-0.340	-0.076
-420.500	709.895	0.056	-0.150
-419.486	-200.000	0.021	0.222
-418.471	-170.679	0.287	-0.010
-417.457	-87.898	-0.178	-0.054
-416.442	69.895	0.127	-0.133
-415.428	7.804	0.157	-0.120
-414.413	69.946	-0.034	0.035
-413.398	83.843	-0.064	0.072
-412.384	231.627	-0.199	0.331
-411.369	82.050	0.272	0.299
-410.355	-57.488	-0.091	-0.041
-409.340	-37.338	-0.080	-0.044
-408.325	-193.655	0.102	-0.001
-407.311	-5.062	-0.175	-0.122
-406.296	800.000	-0.057	0.166
-405.282	256.381	0.179	0.312
-404.267	-200.000	0.010	-0.062
-403.252	-147.756	0.246	0.021
-402.238	190.099	0.253	-0.387
-401.223	800.000	0.036	0.144
-400.209	-118.291	-0.205	-0.037
-399.194	800.000	0.033	0.107
-398.179	-200.000	-0.030	-0.344
-397.165	666.197	0.220	-0.579
-396.150	-90.311	-0.309	0.091
-395.136	-200.000	-0.015	-0.205
-394.121	60.420	0.074	0.074
-393.106	-136.973	0.165	0.019
-392.092	-58.972	-0.074	-0.032
-391.077	-111.254	-0.096	0.020
-390.063	-56.267	0.296	0.134
-389.048	-56.594	-0.116	-0.052
-388.033	70.523	0.202	0.212
-387.019	64.924	-0.177	0.182
-386.004	-200.000	-0.049	-0.258
-384.990	-52.840	-0.285	0.133
-383.975	-200.000	0.003	0.101
-382.960	50.097	-0.136	-0.130
-381.946	-123.323	-0.453	-0.074
-380.931	-200.000	0.018	0.195
-379.917	800.000	-0.064	0.188
-378.902	41.773	0.157	0.144
-377.888	-176.519	0.221	0.006
-376.873	-13.143	0.160	0.106
-375.858	-200.000	0.040	-0.210
-374.844	-200.000	0.046	-0.285
-373.829	-123.991	-0.266	0.043
-372.815	800.000	0.088	-0.352
-371.800	-94.464	0.123	0.034
-370.785	-200.000	0.000	-0.012
-369.771	64.331	-0.247	0.252
-368.756	13.532	-0.084	-0.067
-367.742	-200.000	-0.098	0.448
-366.727	-200.000	0.001	0.246
-365.712	-200.000	-0.026	0.312
-364.698	-136.401	-0.144	-0.017
-363.683	800.000	-0.040	0.138
-362.669	-88.223	0.105	0.032
-361.654	-79.013	0.512	0.177
-360.639	21.177	0.067	-0.055
-359.625	-200.000	-0.034	0.283
-358.610	-51.511	-0.196	-0.093
-357.596	-56.671	-0.362	-0.163
-356.581	-200.000	0.037	-0.381
-355.566	283.782	0.148	-0.269
-354.552	-200.000	0.013	-0.318
-353.537	91.397	0.275	0.313
-352.523	-200.000	-0.011	0.287
-351.508	-1.002	0.089	0.064
-350.493	-40.528	0.280	0.147
-349.479	-4.647	-0.037	0.026
-348.464	-200.000	-0.036	0.373
-347.450	-93.014	-0.097	0.027
-346.435	-200.000	0.034	0.297
-345.420	800.000	0.084	0.334
-344.406	-168.284	-0.310	-0.012
-343.391	-200.000	-0.042	-0.204
-342.377	-200.000	0.035	-0.211
-341.362	99.981	0.128	0.150
-340.348	-84.337	0.185	0.059
-339.333	-200.000	0.003	-0.076
-338.318	-25.868	0.246	0.147
-337.304	-200.000	-0.033	0.281
-336.289	108.459	0.022	0.027
-335.275	-167.501	-0.286	0.012
-334.260	62.703	0.247	0.251
-333.245	-200.000	0.053	0.312
-332.231	-106.182	0.043	0.010
-331.216	72.413	0.071	0.075
-330.202	12.619	0.354	0.277
-329.187	-200.000	0.014	0.366
-328.172	35.196	-0.113	-0.100
-327.158	-165.841	-0.064	-0.003
-326.143	-200.000	0.006	0.123
-325.129	800.000	-0.025	-0.084
-324.114	800.000	0.088	0.345
-323.099	-154.463	0.096	0.007
-322.085	38.812	-0.062	-0.056
-321.070	277.451	0.207	-0.373
-320.056	-0.136	-0.144	0.104
-319.041	800.000	0.038	0.129
-318.026	-90.189	0.466	0.137
-317.012	-35.214	0.110	-0.061
-315.997	-54.046	-0.371	-0.171
-314.983	-114.167	-0.263	0.051
-313.968	170.799	-0.151	0.220
-312.953	-200.000	0.004	-0.040
-311.939	-200.000	-0.007	0.125
-310.924	-164.458	-0.235	0.011
-309.910	-200.000	0.021	-0.497
-308.895	-8.568	-0.125	-0.085
-307.880	80.391	0.098	0.107
-306.866	-128.198	0.506	0.073
-305.851	-52.645	0.148	0.069
-304.837	37.646	0.072	-0.065
-303.822	586.223	0.060	-0.150
-302.807	-8.713	0.140	0.095
-301.793	-1.147	-0.092	0.066
-300.778	-138.038	-0.242	0.027
-299.764	-200.000	-0.008	0.043
-298.749	-200.000	0.032	0.356
-297.735	-15.895	-0.254	-0.164
-296.720	-200.000	0.043	-0.202
-295.705	-142.990	0.105	-0.010
-294.691	-200.000	0.038	0.174
-293.676	-200.000	0.052	0.400
-292.662	-35.051	0.284	0.156
-291.647	-200.000	-0.004	0.187
-290.632	-87.760	0.246	0.075
-289.618	290.931	0.059	-0.109
-288.603	-200.000	-0.033	0.227
-287.589	207.082	-0.108	-0.170
-286.574	120.831	-0.125	0.158
-285.559	72.554	-0.049	-0.051
-284.545	-200.000	-0.003	0.189
-283.530	-50.310	-0.106	0.050
-282.516	800.000	0.082	-0.267
-281.501	643.987	-0.042	-0.109
-280.486	125.751	-0.059	0.075
-279.472	210.668	0.075	-0.119
-278.457	113.704	-0.066	0.081
-277.443	-130.402	0.246	-0.034
-276.428	-119.045	0.054	-0.009
-275.413	-61.274	0.053	0.023
-274.399	-200.000	-0.007	0.225
-273.384	126.907	0.138	-0.177
-272.370	-116.054	-0.415	0.078
-271.355	-4.867	0.272	0.190
-270.340	198.913	0.030	-0.046
-269.326	322.658	0.085	-0.164
-268.311	800.000	-0.071	0.231
-267.297	641.008	0.105	-0.270
-266.282	185.730	0.022	0.033
-265.267	-200.000	-0.038	-0.247
-264.253	-200.000	0.008	0.094
-263.238	-67.908	-0.283	0.112
-262.224	53.415	0.305	-0.295
-261.209	174.065	0.037	-0.054
-260.195	-165.921	0.072	0.003
-259.180	36.179	-0.211	-0.188
-258.165	265.166	-0.100	-0.176
-257.151	-200.000	-0.038	0.287
-256.136	-18.933	-0.230	-0.144
-255.122	16.322	0.221	0.176
-254.107	-90.776	-0.128	0.037
-253.092	-43.500	-0.259	-0.132
-252.078	102.452	-0.177	-0.209
-251.063	-135.971	0.142	-0.017
-250.049	-28.663	0.042	-0.024
-249.034	91.779	0.152	-0.173
-248.019	22.077	0.221	-0.183
-247.005	-6.866	-0.104	-0.071
-245.990	-92.382	-0.257	-0.073
-244.976	800.000	-0.035	-0.104
-243.961	4.363	0.140	0.104
-242.946	480.855	0.112	-0.257
-241.932	83.783	0.278	-0.307
-240.917	-67.778	0.163	-0.064
-239.903	-9.843	-0.277	-0.186
-238.888	343.117	0.021	-0.042
-237.873	-88.475	-0.102	-0.031
-236.859	-200.000	-0.041	-0.195
-235.844	-163.470	-0.084	0.004
-234.830	-128.011	0.151	0.022
-233.815	-41.019	-0.134	0.070
-232.800	135.672	0.072	-0.094
-231.786	800.000	-0.011	0.040
-230.771	58.073	0.257	0.254
-229.757	78.619	-0.083	0.089
-228.742	203.157	-0.050	-0.078
-227.727	334.433	0.073	-0.143
-226.713	800.000	-0.066	-0.251
-225.698	-200.000	-0.024	0.193
-224.684	706.069	0.111	0.296
-223.669	48.081	0.119	-0.112
-222.655	207.589	0.165	0.261
-221.640	-200.000	-0.007	0.161
-220.625	-8.747	0.097	-0.066
-219.611	760.177	0.102	0.278
-218.596	28.339	0.080	0.068
-217.582	-151.057	0.238	0.018
-216.567	258.793	0.132	-0.230
-215.552	-200.000	0.038	-0.194
-214.538	-84.114	-0.406	-0.130
-213.523	41.852	-0.204	0.186
-212.509	-82.605	-0.122	0.040
-211.494	142.490	-0.185	0.248
-210.479	-138.034	0.136	-0.015
-209.465	36.356	-0.118	-0.105
-208.450	82.811	0.066	-0.073
-207.436	0.488	-0.435	-0.314
-206.421	-16.394	-0.199	0.128
-205.406	516.573	0.169	0.398
-204.392	-200.000	-0.037	-0.267
-203.377	800.000	0.065	-0.188
-202.363	43.333	0.171	-0.157
-201.348	-36.353	-0.174	-0.094
-200.333	201.827	0.070	-0.108
-199.319	-200.000	-0.033	-0.223
-198.304	335.308	-0.098	0.191
-197.290	800.000	0.060	-0.213
-196.275	-107.640	-0.166	-0.037
-195.260	-99.826	0.356	-0.090
-194.246	800.000	0.036	-0.101
-193.231	627.239	0.180	0.459
-192.217	51.807	0.132	0.127
-191.202	-82.669	0.014	0.005
-190.187	-133.876	0.134	0.017
-189.173	8.816	-0.143	0.109
-188.158	44.491	0.259	0.240
-187.144	-93.548	0.353	-0.098
-186.129	116.266	-0.138	-0.170
-185.114	494.166	-0.014	0.033
-184.100	-200.000	0.017	-0.187
-183.085	66.457	-0.226	-0.232
-182.071	-109.179	-0.128	0.027
-181.056	-77.261	0.243	0.085
-180.042	-83.514	-0.058	0.019
-179.027	-166.357	0.290	-0.012
-178.012	-147.053	-0.269	-0.023
-176.998	411.398	-0.102	0.218
-175.983	22.610	-0.095	-0.078
-174.969	-200.000	0.008	0.074
-173.954	-10.232	-0.254	-0.170
-172.939	800.000	0.045	-0.178
-171.925	-15.742	0.153	0.098
-170.910	8.134	0.273	0.207
-169.896	-8.139	0.059	-0.040
-168.881	-200.000	-0.028	0.159
-167.866	800.000	0.060	0.222
-166.852	-159.615	0.271	0.015
-165.837	800.000	-0.031	0.124
-164.823	353.399	0.133	0.265
-163.808	-15.781	-0.275	-0.177
-162.793	244.446	0.134	0.226
-161.779	-20.810	0.088	0.055
-160.764	-56.835	-0.265	0.118
-159.750	800.000	0.061	0.186
-158.735	-172.802	0.076	0.002
-157.720	-16.905	-0.126	-0.080
-156.706	-188.906	-0.122	0.001
-155.691	20.413	0.014	0.012
-154.677	-146.433	0.268	0.024
-153.662	-159.667	0.302	0.017
-152.647	1.573	-0.133	0.096
-151.633	-200.000	0.013	-0.231
-150.618	21.525	-0.101	0.083
-149.604	284.076	0.128	0.233
-148.589	-200.000	0.049	0.357
-147.574	124.301	-0.097	-0.123
-146.560	-145.885	0.279	0.025
-145.545	-83.225	-0.187	0.060
-144.531	166.976	0.215	-0.308
-143.516	249.882	0.013	0.022
-142.502	42.699	0.061	-0.055
-141.487	-97.833	-0.093	-0.024
-140.472	-200.000	-0.017	-0.273
-139.458	0.804	-0.025	0.018
-138.443	459.524	0.129	-0.290
-137.429	-110.557	-0.167	-0.035
-136.414	-23.395	-0.088	-0.053
-135.399	-47.045	-0.083	-0.041
-134.385	22.472	-0.216	0.178
-133.370	-78.073	0.075	-0.026
-132.356	-178.494	0.261	-0.006
-131.341	800.000	-0.081	-0.234
-130.326	37.249	-0.145	0.129
-129.312	-0.183	0.157	-0.113
-128.297	-46.495	-0.318	-0.157
-127.283	-200.000	0.049	-0.281
-126.268	-16.062	0.095	-0.061
-125.253	52.957	0.090	0.087
-124.239	16.662	-0.319	0.254
-123.224	-146.575	0.040	0.003
-122.210	7.824	0.200	0.150
-121.195	200.309	0.114	0.176
-120.180	-104.975	-0.261	-0.060
-119.166	88.208	0.166	0.186
-118.151	-51.545	0.271	-0.127
-117.137	257.795	0.132	-0.229
-116.122	158.424	0.047	-0.065
-115.107	26.953	-0.061	-0.052
-114.093	181.908	0.101	0.149
-113.078	-200.000	-0.002	-0.130
-112.064	-7.981	-0.331	0.225
-111.049	-200.000	-0.042	-0.519
-110.034	-200.000	0.053	-0.268
-109.020	-200.000	-0.048	0.311
-108.005	-28.078	-0.099	-0.058
-106.991	-131.736	-0.077	-0.010
-105.976	-39.457	0.227	-0.120
-104.962	-27.988	0.227	-0.132
-103.947	800.000	-0.128	0.419
-102.932	-200.000	0.057	0.335
-101.918	800.000	0.140	-0.407
-100.903	-47.763	0.062	0.030
-99.889	-143.134	0.214	-0.021
-98.874	800.000	-0.104	0.437
-97.859	-25.959	0.125	0.074
-96.845	136.650	0.047	0.061
-95.830	-129.342	0.097	0.014
-94.816	-110.040	0.319	0.067
-93.801	-200.000	0.009	-0.165
-92.786	-200.000	0.009	-0.233
-91.772	-7.742	-0.082	0.056
-90.757	92.841	0.128	-0.145
-89.743	-200.000	-0.017	-0.267
-88.728	-150.529	-0.092	-0.007
-87.713	800.000	0.020	0.078
-86.699	210.108	0.208	0.328
-85.684	-197.553	-0.408	0.003
-84.670	-39.052	0.287	-0.152
-83.655	139.763	0.116	0.153
-82.640	-94.672	0.126	-0.034
-81.626	80.239	0.252	-0.272
-80.611	-166.291	-0.045	-0.002
-79.597	-67.127	-0.288	-0.114
-78.582	-200.000	0.016	0.187
-77.567	6.900	0.259	-0.194
-76.553	112.977	0.063	0.077
-75.538	800.000	0.026	-0.089
-74.524	-148.544	-0.192	0.016
-73.509	13.984	0.103	0.080
-72.494	-200.000	0.023	-0.346
-71.480	-71.756	0.086	0.032
-70.465	-200.000	0.020	0.186
-69.451	-200.000	-0.000	0.333
-68.436	56.515	-0.026	0.026
-67.422	54.176	-0.192	-0.185
-66.407	18.950	0.020	0.016
-65.392	-200.000	-0.005	0.133
-64.378	223.783	-0.037	-0.060
-63.363	-161.843	0.291	0.015
-62.349	-94.836	0.357	-0.097
-61.334	25.889	-0.685	-0.573
-60.319	658.880	-0.059	-0.151
-59.305	-200.000	0.046	-0.519
-58.290	791.148	0.194	0.536
-57.276	405.992	0.696	1.472
-56.261	-200.000	74.223	529.485
-55.246	565.265	1298.692	3157.151
-54.232	143.649	2529.254	3378.738
-53.217	111.628	2373.709	2871.732
-52.203	50.253	2111.803	2000.144
-51.188	45.047	2018.424	1864.242
-50.173	43.089	2000.245	1829.625
-49.159	55.022	2036.024	1971.620
-48.144	60.224	2056.475	2038.891
-47.130	45.747	2021.754	1873.415
-46.115	42.937	2010.859	1837.655
-45.100	42.881	2007.805	1834.279
-44.086	42.844	2005.538	1831.795
-43.071	42.698	2003.492	1828.529
-42.057	42.657	2001.533	1826.298
-41.042	42.776	1999.297	1825.266
-40.027	42.719	1997.707	1823.220
-39.013	42.760	1995.104	1821.149
-37.998	42.837	1993.633	1820.430
-36.984	42.837	1991.519	1818.428
-35.969	42.813	1990.010	1816.756
-34.954	42.900	1987.673	1815.332
-33.940	42.932	1986.313	1814.310
-32.925	42.842	1985.361	1812.561
-31.911	42.842	1983.586	1810.864
-30.896	42.978	1981.018	1809.674
-29.881	42.886	1979.973	1807.822
-28.867	42.859	1978.422	1806.087
-27.852	42.963	1976.313	1805.023
-26.838	42.871	1974.559	1802.527
-25.823	42.821	1972.843	1800.443
-24.809	42.916	1970.465	1799.049
-23.794	42.837	1969.960	1797.809
-22.779	42.873	1967.652	1795.954
-21.765	42.939	1965.730	1794.716
-20.750	42.885	1964.470	1793.018
-19.736	42.872	1963.240	1791.706
-18.721	42.901	1961.662	1790.455
-17.706	42.919	1960.181	1789.191
-16.692	42.901	1958.224	1787.174
-15.677	42.920	1956.322	1785.534
-14.663	42.938	1954.816	1784.251
-13.648	42.885	1953.434	1782.446
-12.633	42.851	1952.840	1781.531
-11.619	42.906	1950.926	1780.204
-10.604	42.851	1949.144	1778.021
-9.590	42.878	1948.341	1777.457
-8.575	42.890	1946.786	1776.072
-7.560	42.959	1945.244	1775.200
-6.546	42.918	1943.840	1773.489
-5.531	42.835	1942.980	1771.904
-4.517	42.899	1941.195	1770.766
-3.502	42.942	1940.227	1770.197
-2.487	42.865	1938.856	1768.194
-1.473	42.929	1937.991	1767.900
-0.458	43.040	1934.270	1765.411
0.556	42.305	1915.494	1742.234
1.571	38.379	1896.011	1690.509
2.586	34.074	1916.898	1671.263
3.600	32.589	1953.827	1690.003
4.615	31.628	1950.955	1678.755
5.629	23.927	1844.387	1521.333
6.644	9.484	1710.134	1295.069
7.659	1.759	1662.445	1198.244
8.673	1.108	1657.873	1189.733
9.688	1.072	1656.416	1188.303
10.702	0.894	1655.583	1186.203
11.717	0.777	1652.386	1182.892
12.731	1.295	1651.701	1186.346
13.746	9.308	1672.213	1264.187
14.761	20.683	1697.504	1373.496
15.775	24.782	1703.651	1410.747
16.790	24.748	1702.427	1409.339
17.804	24.696	1702.409	1408.792
18.819	24.786	1700.878	1408.109
19.834	24.878	1700.521	1408.415
20.848	25.121	1699.810	1409.610
21.863	25.158	1699.223	1409.290
22.877	25.055	1697.804	1407.175
23.892	25.093	1696.805	1406.520
24.907	25.047	1696.337	1405.647
25.921	25.051	1694.959	1404.415
26.936	25.081	1693.957	1403.695
27.950	25.071	1692.798	1402.534
28.965	25.027	1692.617	1401.912
29.980	25.100	1691.664	1401.571
30.994	25.006	1690.759	1399.962
32.009	25.101	1689.221	1399.309
33.023	25.175	1687.833	1398.609
34.038	25.106	1687.239	1397.457
35.053	25.096	1685.966	1396.199
36.067	25.078	1685.226	1395.322
37.082	25.079	1684.139	1394.308
38.096	25.010	1683.118	1392.808
39.111	25.068	1682.420	1392.553
40.126	25.174	1681.270	1392.302
41.140	25.098	1680.898	1391.278
42.155	25.046	1679.803	1389.849
43.169	25.132	1678.268	1389.121
44.184	25.083	1677.548	1388.021
45.199	25.094	1676.650	1387.247
46.213	25.033	1675.341	1385.566
47.228	25.039	1674.266	1384.596
48.242	25.138	1672.942	1384.148
49.257	25.089	1672.126	1382.971
50.271	25.004	1670.885	1381.169
51.286	25.111	1669.609	1380.816
52.301	25.126	1668.415	1379.824
53.315	25.052	1667.440	1378.321
54.330	25.019	1665.666	1376.484
55.344	25.154	1663.588	1375.677
56.359	25.125	1663.028	1374.869
57.374	25.115	1662.039	1373.853
58.388	25.076	1661.230	1372.765
59.403	25.113	1659.952	1371.872
60.417	25.067	1658.827	1370.470
61.432	25.152	1657.930	1370.255
62.447	25.129	1655.990	1368.353
63.461	25.084	1655.608	1367.576
64.476	25.147	1654.448	1366.978
65.490	25.153	1653.849	1366.405
66.505	25.201	1652.277	1365.351
67.520	25.199	1651.141	1364.279
68.534	25.113	1650.669	1363.115
69.549	25.142	1649.604	1362.330
70.563	25.125	1648.509	1361.176
71.578	25.181	1647.424	1360.590
72.593	25.166	1646.433	1359.534
73.607	25.132	1645.831	1358.659
74.622	25.173	1644.110	1357.431
75.636	25.160	1643.466	1356.677
76.651	25.173	1642.892	1356.184
77.666	25.208	1642.194	1355.751
78.680	25.058	1641.242	1353.714
79.695	25.194	1639.972	1353.572
80.709	25.157	1639.244	1352.576
81.724	25.139	1638.695	1351.860
82.739	25.213	1637.193	1351.062
83.753	25.158	1636.882	1350.273
84.768	25.183	1635.214	1348.965
85.782	25.104	1635.021	1348.091
86.797	25.164	1634.219	1347.766
87.812	25.248	1633.070	1347.329
88.826	25.090	1632.392	1345.461
89.841	25.108	1631.385	1344.651
90.855	25.166	1630.082	1343.890
91.870	25.035	1629.447	1342.263
92.884	25.207	1627.612	1341.921
93.899	25.218	1627.260	1341.598
94.914	25.197	1626.229	1340.468
95.928	25.148	1625.098	1339.051
96.943	25.165	1623.485	1337.732
97.957	25.213	1622.357	1337.041
98.972	25.269	1620.484	1335.797
99.987	25.286	1619.258	1334.793
101.001	25.230	1618.229	1333.411
102.016	25.165	1617.066	1331.855
103.030	25.115	1615.495	1330.072
104.045	25.154	1614.618	1329.520
105.060	25.158	1613.142	1328.217
106.074	25.125	1611.690	1326.661
107.089	25.148	1610.517	1325.744
108.103	25.204	1609.446	1325.158
109.118	25.220	1608.560	1324.430
110.133	25.184	1607.498	1323.175
111.147	25.220	1606.045	1322.126
112.162	25.224	1605.049	1321.222
113.176	25.305	1603.511	1320.430
114.191	25.263	1602.249	1318.966
115.206	25.286	1601.628	1318.507
116.220	25.300	1599.681	1316.893
117.235	25.168	1599.688	1315.813
118.249	25.182	1598.385	1314.729
119.264	25.221	1597.010	1313.770
120.279	25.278	1595.714	1313.000
121.293	25.231	1594.755	1311.753
122.308	25.294	1593.681	1311.211
123.322	25.307	1592.044	1309.842
124.337	25.253	1591.049	1308.520
125.352	25.293	1590.300	1308.079
126.366	25.175	1589.571	1306.504
127.381	25.351	1588.543	1306.824
128.395	25.241	1587.937	1305.410
129.410	25.317	1586.700	1304.828
130.424	25.310	1585.171	1303.405
131.439	25.344	1584.226	1302.758
132.454	25.225	1583.449	1301.144
133.468	25.325	1581.454	1300.114
134.483	25.333	1580.381	1299.169
135.497	25.260	1579.500	1297.803
136.512	25.323	1577.968	1296.889
137.527	25.341	1576.913	1296.035
138.541	25.328	1576.163	1295.207
139.556	25.412	1574.691	1294.492
140.570	25.359	1573.424	1292.955
141.585	25.366	1572.548	1292.170
142.600	25.356	1571.138	1290.824
143.614	25.360	1569.971	1289.780
144.629	25.311	1569.211	1288.693
145.643	25.390	1567.832	1288.012
146.658	25.442	1566.345	1287.044
147.673	25.389	1565.064	1285.501
148.687	25.273	1564.095	1283.759
149.702	25.348	1563.115	1283.378
150.716	25.319	1561.972	1282.121
151.731	25.294	1560.577	1280.683
152.746	25.403	1559.448	1280.422
153.760	25.342	1558.215	1278.864
154.775	25.298	1557.963	1278.224
155.789	25.287	1556.703	1277.005
156.804	25.302	1555.516	1276.019
157.819	25.452	1553.960	1275.696
158.833	25.302	1553.355	1274.022
159.848	25.358	1552.378	1273.504
160.862	25.447	1551.329	1273.165
161.877	25.387	1550.123	1271.637
162.892	25.406	1549.195	1270.896
163.906	25.319	1548.285	1269.420
164.921	25.389	1547.734	1269.353
165.935	25.352	1546.893	1268.290
166.950	25.447	1545.414	1267.638
167.964	25.430	1544.466	1266.626
168.979	25.396	1543.899	1265.812
169.994	25.373	1542.793	1264.632
171.008	25.441	1542.134	1264.459
172.023	25.385	1541.630	1263.537
173.037	25.433	1540.096	1262.508
174.052	25.485	1538.504	1261.450
175.067	25.391	1538.465	1260.653
176.081	25.560	1537.082	1260.590
177.096	25.494	1536.097	1259.207
178.110	25.450	1534.994	1257.887
179.125	25.420	1533.721	1256.522
180.140	25.412	1532.927	1255.703
181.154	25.497	1532.450	1255.796
182.169	25.487	1531.793	1255.076
183.183	25.506	1530.167	1253.764
184.198	25.450	1529.764	1252.931
185.213	25.467	1528.996	1252.312
186.227	25.578	1527.529	1251.772
187.242	25.525	1527.114	1250.951
188.256	25.633	1526.170	1250.821
189.271	25.646	1524.944	1249.791
190.286	25.599	1524.124	1248.683
191.300	25.508	1523.471	1247.411
192.315	25.428	1522.964	1246.327
193.329	25.434	1521.903	1245.391
194.344	25.473	1520.893	1244.726
195.359	25.593	1520.068	1244.773
196.373	25.592	1519.161	1243.911
197.388	25.502	1518.472	1242.610
198.402	25.498	1517.246	1241.473
199.417	25.442	1516.637	1240.474
200.432	25.509	1515.381	1239.805
201.446	25.531	1514.701	1239.288
202.461	25.473	1513.879	1238.105
203.475	25.498	1513.391	1237.769
204.490	25.591	1512.371	1237.466
205.504	25.494	1511.329	1235.834
206.519	25.585	1510.282	1235.500
207.534	25.557	1509.800	1234.802
208.548	25.642	1508.728	1234.400
209.563	25.520	1508.256	1233.067
210.577	25.596	1507.265	1232.669
211.592	25.592	1506.452	1231.865
212.607	25.630	1505.400	1231.157
213.621	25.634	1504.859	1230.634
214.636	25.701	1503.741	1230.070
215.650	25.701	1503.206	1229.523
216.665	25.689	1502.735	1228.945
217.680	25.636	1501.863	1227.764
218.694	25.681	1500.921	1227.189
219.709	25.579	1500.221	1225.817
220.723	25.622	1499.276	1225.226
221.738	25.644	1498.524	1224.653
222.753	25.612	1497.521	1223.509
223.767	25.696	1496.284	1222.962
224.782	25.541	1496.006	1221.573
225.796	25.605	1494.849	1220.951
226.811	25.756	1494.109	1221.266
227.826	25.688	1493.469	1220.171
228.840	25.742	1492.679	1219.781
229.855	25.745	1491.920	1219.074
230.869	25.737	1490.944	1218.120
231.884	25.630	1490.468	1216.896
232.899	25.593	1489.587	1215.820
233.913	25.694	1488.052	1215.142
234.928	25.748	1486.714	1214.303
235.942	25.761	1485.707	1213.465
236.957	25.873	1484.590	1213.199
237.972	25.784	1484.288	1212.242
238.986	25.796	1482.782	1210.987
240.001	25.787	1481.897	1210.096
241.015	25.767	1481.122	1209.225
242.030	25.888	1480.030	1209.038
243.045	25.951	1478.846	1208.387
244.059	25.970	1477.980	1207.694
245.074	26.036	1477.146	1207.348
246.088	25.884	1476.822	1205.958
247.103	25.950	1476.173	1205.765
248.117	25.942	1475.128	1204.751
249.132	26.017	1474.250	1204.433
250.147	25.961	1473.728	1203.526
251.161	25.907	1473.311	1202.712
252.176	25.941	1472.432	1202.115
253.190	25.997	1471.566	1201.680
254.205	25.982	1470.964	1200.978
255.220	26.022	1470.030	1200.378
256.234	26.012	1469.309	1199.613
257.249	26.027	1468.321	1198.804
258.263	26.079	1467.967	1198.750
259.278	26.047	1466.451	1197.198
260.293	26.137	1465.762	1197.123
261.307	26.090	1465.144	1196.201
262.322	26.106	1464.618	1195.776
263.336	26.113	1463.715	1194.975
264.351	26.052	1462.912	1193.811
265.366	26.126	1461.998	1193.448
266.380	26.078	1461.433	1192.563
267.395	26.104	1460.100	1191.543
268.409	26.074	1459.669	1190.888
269.424	26.092	1458.513	1189.956
270.439	26.083	1457.763	1189.185
271.453	26.118	1457.002	1188.684
272.468	25.999	1456.470	1187.366
273.482	26.129	1455.590	1187.399
274.497	26.119	1454.612	1186.426
275.512	26.151	1453.541	1185.658
276.526	26.140	1453.521	1185.467
277.541	26.136	1452.341	1184.370
278.555	26.252	1451.115	1184.031
279.570	26.259	1450.622	1183.570
280.585	26.226	1449.912	1182.666
281.599	26.263	1449.003	1182.062
282.614	26.294	1447.750	1181.142
283.628	26.140	1446.770	1179.231
284.643	26.173	1445.867	1178.604
285.657	26.184	1445.301	1178.112
286.672	26.221	1444.291	1177.423
287.687	26.200	1443.616	1176.634
288.701	26.063	1442.828	1174.992
289.716	26.258	1441.900	1175.402
290.730	26.388	1441.264	1175.624
291.745	26.282	1440.154	1173.928
292.760	26.273	1439.624	1173.336
293.774	26.238	1438.780	1172.315
294.789	26.299	1437.825	1171.830
295.803	26.271	1437.539	1171.309
296.818	26.321	1436.436	1170.634
297.833	26.297	1435.584	1169.681
298.847	26.366	1434.773	1169.363
299.862	26.392	1433.875	1168.693
300.876	26.410	1433.017	1168.010
301.891	26.383	1431.750	1166.695
302.906	26.335	1431.380	1165.985
303.920	26.434	1430.714	1165.973
304.935	26.487	1430.081	1165.700
305.949	26.404	1429.528	1164.610
306.964	26.390	1428.578	1163.643
307.979	26.415	1428.032	1163.253
308.993	26.482	1426.727	1162.519
310.008	26.492	1425.804	1161.726
311.022	26.481	1424.821	1160.753
312.037	26.579	1423.677	1160.348
313.052	26.545	1423.290	1159.716
314.066	26.534	1422.462	1158.867
315.081	26.465	1421.272	1157.348
316.095	26.450	1420.462	1156.494
317.110	26.539	1419.660	1156.304
318.125	26.516	1418.941	1155.471
319.139	26.503	1417.957	1154.484
320.154	26.550	1417.213	1154.077
321.168	26.531	1416.340	1153.146
322.183	26.577	1415.448	1152.611
323.197	26.537	1414.453	1151.440
324.212	26.581	1413.614	1150.937
325.227	26.487	1412.943	1149.690
326.241	26.689	1411.839	1149.973
327.256	26.600	1411.404	1148.949
328.270	26.732	1410.465	1148.919
329.285	26.675	1409.872	1147.974
330.300	26.755	1408.684	1147.414
331.314	26.683	1408.167	1146.434
332.329	26.777	1407.177	1146.124
333.343	26.732	1406.565	1145.239
334.358	26.649	1406.313	1144.406
335.373	26.764	1405.482	1144.355
336.387	26.740	1404.842	1143.585
337.402	26.725	1403.927	1142.644
338.416	26.874	1402.893	1142.639
339.431	26.827	1402.894	1142.239
340.446	26.885	1402.029	1141.800
341.460	26.791	1400.913	1140.201
342.475	26.913	1400.241	1140.317
343.489	26.777	1399.395	1138.673
344.504	26.781	1398.678	1138.016
345.519	26.858	1397.292	1137.270
346.533	26.868	1396.499	1136.587
347.548	26.906	1395.766	1136.126
348.562	26.863	1394.895	1135.052
349.577	26.887	1394.067	1134.428
350.592	26.941	1393.512	1134.209
351.606	26.925	1392.473	1133.162
352.621	26.874	1391.563	1132.008
353.635	26.800	1390.756	1130.787
354.650	26.965	1390.210	1131.271
355.665	26.885	1389.005	1129.694
356.679	26.897	1388.315	1129.105
357.694	27.037	1387.178	1128.950
358.708	27.027	1386.006	1127.837
359.723	27.035	1384.962	1126.938
360.738	26.898	1383.985	1125.191
361.752	26.983	1382.589	1124.484
362.767	26.906	1381.663	1123.153
363.781	27.068	1380.598	1123.194
364.796	27.014	1380.307	1122.520
365.810	27.033	1379.437	1121.831
366.825	27.057	1378.928	1121.467
367.840	26.992	1378.163	1120.345
368.854	27.066	1377.394	1120.076
369.869	27.113	1376.745	1119.739
370.883	27.207	1375.906	1119.538
371.898	27.167	1375.418	1118.796
372.913	27.087	1375.240	1118.059
373.927	27.229	1373.964	1117.794
374.942	27.147	1373.056	1116.453
375.956	27.199	1372.528	1116.249
376.971	27.214	1372.175	1115.950
377.986	27.149	1371.384	1114.812
379.000	27.268	1370.082	1114.383
380.015	27.172	1369.614	1113.314
381.029	27.250	1368.817	1113.048
382.044	27.253	1368.415	1112.641
383.059	27.383	1367.661	1112.723
384.073	27.330	1366.807	1111.609
385.088	27.380	1366.240	1111.353
386.102	27.286	1366.078	1110.550
387.117	27.391	1364.960	1110.180
388.132	27.353	1364.657	1109.608
389.146	27.358	1363.637	1108.706
390.161	27.278	1363.108	1107.691
391.175	27.303	1362.522	1107.269
392.190	27.351	1361.803	1106.883
393.205	27.340	1361.159	1106.194
394.219	27.414	1359.603	1105.280
395.234	27.406	1358.738	1104.432
396.248	27.463	1357.812	1103.923
397.263	27.443	1356.908	1102.969
398.278	27.433	1355.806	1101.920
399.292	27.484	1354.889	1101.380
400.307	27.500	1354.147	1100.778
401.321	27.505	1353.310	1100.030
402.336	27.478	1352.236	1098.897
403.350	27.545	1351.084	1098.266
404.365	27.452	1350.360	1097.024
405.380	27.466	1349.978	1096.702
406.394	27.425	1349.113	1095.656
407.409	27.638	1348.048	1095.972
408.423	27.517	1347.295	1094.536
409.438	27.623	1346.483	1094.416
410.453	27.622	1346.297	1094.161
411.467	27.569	1345.533	1093.125
412.482	27.547	1345.099	1092.547
413.496	27.660	1344.067	1092.286
414.511	27.646	1343.298	1091.478
415.526	27.661	1342.592	1090.897
416.540	27.693	1342.230	1090.698
417.555	27.616	1341.515	1089.561
418.569	27.629	1341.232	1089.314
419.584	27.598	1340.544	1088.474
420.599	27.719	1339.614	1088.346
421.613	73.825	1315.606	1330.618
422.628	74.519	1312.115	1330.761
