DTS Sentinel unit serial number:	SN413079Multiplexer serial number:	ORYXHardware model number:	OX4-SRSoftware version number:	ORYX F/W v4.00 Oryx Data Collector v3.7.2.0data status	okinstallation	princeton_trtdifferential loss correction	single-endedforward channel	channel 4reverse channel	N/Adate	2019/09/18time	15:25:35forward acquisition time	60.00reverse acquisition time	0.00gamma	496.2192k internal	0.2296k external	0.2296temperature offset calibration	1.0004default loss term (dB/km)	0.3790temperature slope calibration	1.0000multiplexer offset coefficient	1.0000multiplexer slope coefficient	1.0000fibre end	0.00T internal ref (°C)	36.00T ext. ref 1 (°C)	0.76T ext. ref 2 (°C)	34.44length (m)	temperature (°C)	Stokes	anti-Stokes-747.200	32.901	-0.164	0.145
-746.185	-200.000	0.061	0.279
-745.171	-200.000	-0.006	0.139
-744.156	114.105	0.112	0.139
-743.142	-60.455	-0.266	0.115
-742.127	209.279	0.113	0.181
-741.112	71.409	-0.181	0.192
-740.098	-200.000	0.017	0.525
-739.083	-200.000	0.024	0.140
-738.069	-200.000	-0.044	0.450
-737.054	-33.768	-0.293	0.165
-736.039	280.828	-0.098	-0.179
-735.025	54.065	0.028	0.027
-734.010	-95.116	-0.293	-0.081
-732.996	-200.000	0.059	0.293
-731.981	-48.006	0.139	0.068
-730.966	59.056	-0.151	0.151
-729.952	-124.451	0.084	0.013
-728.937	39.390	0.106	-0.097
-727.923	243.167	0.112	-0.192
-726.908	-4.073	0.200	-0.142
-725.894	-200.000	-0.015	0.165
-724.879	780.629	-0.084	-0.234
-723.864	-17.826	-0.129	-0.083
-722.850	-15.761	0.257	0.167
-721.835	-97.857	-0.081	-0.021
-720.821	633.376	-0.095	0.246
-719.806	-200.000	-0.030	-0.259
-718.791	25.712	0.157	-0.134
-717.777	-26.645	0.390	-0.233
-716.762	-19.712	-0.121	-0.076
-715.748	262.986	-0.099	-0.176
-714.733	800.000	-0.122	-0.369
-713.718	-200.000	0.013	0.428
-712.704	-141.461	-0.104	-0.011
-711.689	-114.762	0.026	-0.005
-710.675	-76.911	0.242	0.086
-709.660	-200.000	0.016	-0.186
-708.645	-200.000	-0.025	-0.120
-707.631	-49.768	0.342	0.166
-706.616	163.099	0.166	-0.238
-705.602	-200.000	-0.013	-0.069
-704.587	-200.000	0.027	-0.255
-703.572	97.035	-0.076	0.089
-702.558	295.876	-0.209	-0.391
-701.543	-137.818	0.116	-0.013
-700.529	-200.000	0.029	-0.272
-699.514	502.239	0.054	0.128
-698.499	-2.648	0.130	0.093
-697.485	41.863	0.208	-0.192
-696.470	135.155	0.128	-0.170
-695.456	157.484	-0.019	0.028
-694.441	-200.000	-0.004	0.508
-693.426	-200.000	-0.006	0.327
-692.412	292.239	-0.094	-0.176
-691.397	108.103	-0.047	-0.058
-690.383	800.000	0.162	0.517
-689.368	-200.000	0.015	0.084
-688.354	34.697	0.057	-0.051
-687.339	93.816	0.137	0.159
-686.324	-200.000	-0.037	0.465
-685.310	-71.764	-0.369	-0.140
-684.295	800.000	0.059	0.213
-683.281	800.000	0.066	-0.284
-682.266	-174.093	0.094	0.003
-681.251	-95.988	-0.078	0.021
-680.237	-200.000	-0.053	-0.239
-679.222	-54.524	0.419	0.194
-678.208	155.675	0.096	-0.135
-677.193	33.294	0.143	-0.126
-676.178	175.268	0.131	-0.193
-675.164	266.058	0.131	0.232
-674.149	-7.006	-0.130	0.090
-673.135	-78.343	-0.151	-0.053
-672.120	-31.272	-0.317	0.182
-671.105	-89.126	0.310	0.093
-670.091	-200.000	0.018	0.270
-669.076	155.515	-0.069	0.097
-668.062	237.523	-0.050	0.085
-667.047	-31.643	0.182	0.104
-666.032	213.443	-0.142	-0.229
-665.018	-161.976	-0.284	-0.015
-664.003	535.149	0.023	-0.056
-662.989	53.067	-0.125	-0.122
-661.974	459.766	0.089	-0.201
-660.959	-128.526	-0.214	-0.031
-659.945	-105.971	-0.477	-0.109
-658.930	136.078	-0.038	-0.050
-657.916	483.687	-0.090	0.209
-656.901	149.476	-0.233	-0.321
-655.886	-82.100	-0.208	-0.069
-654.872	158.344	0.065	-0.092
-653.857	88.649	-0.186	0.211
-652.843	-200.000	-0.056	0.370
-651.828	-156.850	-0.135	0.008
-650.814	-155.659	0.081	0.005
-649.799	-200.000	0.428	0.001
-648.784	-2.452	-0.142	0.101
-647.770	-86.941	0.357	0.111
-646.755	-200.000	-0.083	0.525
-645.741	-60.996	0.074	0.032
-644.726	210.296	-0.143	-0.229
-643.711	-118.357	-0.074	0.013
-642.697	-42.659	0.232	-0.120
-641.682	-128.565	-0.162	0.023
-640.668	-200.000	-0.002	-0.018
-639.653	-97.278	-0.288	-0.077
-638.638	-2.050	-0.105	-0.075
-637.624	298.740	0.039	0.073
-636.609	199.391	0.094	-0.147
-635.595	800.000	0.078	-0.284
-634.580	3.180	-0.176	0.130
-633.565	-91.830	0.283	0.082
-632.551	437.029	0.150	0.332
-631.536	-66.798	0.185	-0.075
-630.522	-200.000	-0.017	-0.255
-629.507	-103.584	0.213	0.051
-628.492	1.718	0.226	-0.165
-627.478	358.190	-0.055	-0.111
-626.463	-94.603	0.276	-0.076
-625.449	-40.670	0.058	0.031
-624.434	800.000	0.121	0.346
-623.419	401.896	-0.099	-0.212
-622.405	-54.572	-0.158	-0.073
-621.390	-80.348	-0.081	0.028
-620.376	-43.918	-0.242	-0.124
-619.361	-64.883	-0.292	0.120
-618.346	-47.973	-0.340	0.167
-617.332	-54.992	-0.261	0.120
-616.317	-4.710	0.336	-0.236
-615.303	-170.385	-0.600	-0.021
-614.288	265.465	0.112	-0.199
-613.273	-39.308	-0.096	-0.051
-612.259	99.611	-0.149	-0.175
-611.244	75.558	-0.283	-0.304
-610.230	-159.198	-0.138	-0.008
-609.215	243.135	0.068	0.116
-608.201	85.499	0.093	-0.104
-607.186	315.681	-0.050	-0.095
-606.171	-147.860	-0.445	0.038
-605.157	16.549	-0.243	0.195
-604.142	60.032	-0.103	-0.103
-603.128	-200.000	0.012	-0.105
-602.113	278.230	0.159	0.288
-601.098	-98.976	-0.298	-0.077
-600.084	153.593	0.047	-0.065
-599.069	-187.839	-0.278	0.004
-598.055	4.567	-0.214	-0.159
-597.040	106.877	-0.144	-0.174
-596.025	-9.391	0.077	-0.052
-595.011	-172.746	-0.202	-0.006
-593.996	-74.678	-0.295	-0.108
-592.982	-200.000	0.014	0.161
-591.967	-182.576	0.331	-0.006
-590.952	112.955	-0.098	0.121
-589.938	10.659	-0.112	-0.087
-588.923	-42.289	-0.347	-0.180
-587.909	-129.359	-0.106	-0.015
-586.894	123.983	0.104	0.132
-585.879	800.000	-0.041	-0.151
-584.865	-127.547	-0.373	-0.055
-583.850	-200.000	0.021	-0.092
-582.836	95.642	0.049	0.057
-581.821	312.714	0.088	-0.167
-580.806	-200.000	-0.061	-0.277
-579.792	-92.101	-0.096	-0.028
-578.777	86.524	-0.149	0.167
-577.763	-111.243	0.210	-0.044
-576.748	-7.665	0.054	-0.037
-575.733	-200.000	-0.049	0.644
-574.719	-83.605	-0.270	-0.088
-573.704	800.000	0.022	0.084
-572.690	62.831	-0.162	0.164
-571.675	381.885	0.103	-0.216
-570.661	-85.035	0.092	-0.029
-569.646	-62.613	-0.084	0.035
-568.631	103.306	0.183	-0.218
-567.617	78.431	-0.079	-0.086
-566.602	-150.560	-0.091	0.007
-565.588	23.092	-0.364	0.303
-564.573	29.174	0.188	0.162
-563.558	-179.863	-0.052	0.001
-562.544	800.000	-0.051	0.215
-561.529	800.000	-0.023	0.071
-560.515	90.115	0.167	0.189
-559.500	-200.000	0.024	0.390
-558.485	669.225	-0.093	0.244
-557.471	-98.498	-0.123	-0.032
-556.456	-200.000	-0.056	0.259
-555.442	108.408	-0.084	0.102
-554.427	133.790	0.092	0.121
-553.412	-200.000	0.028	0.143
-552.398	275.449	-0.111	-0.200
-551.383	86.224	-0.126	0.140
-550.369	-66.559	0.160	-0.064
-549.354	-200.000	-0.052	0.260
-548.339	455.484	-0.125	-0.282
-547.325	261.117	-0.023	0.040
-546.310	-132.414	-0.415	-0.054
-545.296	120.149	0.041	-0.051
-544.281	12.578	-0.149	-0.117
-543.266	83.486	0.011	0.013
-542.252	-200.000	-0.043	-0.328
-541.237	-65.680	-0.399	0.162
-540.223	800.000	-0.043	0.143
-539.208	31.170	0.107	0.093
-538.193	1.747	0.305	-0.223
-537.179	-49.725	0.241	-0.116
-536.164	-30.683	-0.141	0.081
-535.150	524.628	-0.118	0.281
-534.135	-200.000	0.007	-0.139
-533.121	800.000	0.069	-0.253
-532.106	-32.960	-0.337	-0.190
-531.091	-163.408	0.349	-0.017
-530.077	-160.716	0.293	-0.016
-529.062	800.000	-0.063	0.250
-528.048	800.000	0.010	0.030
-527.033	-74.490	-0.269	0.098
-526.018	82.906	0.151	0.167
-525.004	68.271	-0.122	0.127
-523.989	84.583	-0.260	0.288
-522.975	18.973	-0.218	0.177
-521.960	-43.627	0.219	-0.112
-520.945	-6.658	0.055	0.038
-519.931	165.838	0.106	0.152
-518.916	-71.523	-0.221	-0.084
-517.902	74.529	0.095	0.101
-516.887	-23.286	0.236	-0.144
-515.872	-153.931	0.414	0.029
-514.858	62.046	-0.091	-0.091
-513.843	-62.690	0.413	0.173
-512.829	132.085	-0.175	-0.228
-511.814	379.904	0.112	-0.232
-510.799	383.259	0.092	0.191
-509.785	128.275	-0.107	0.138
-508.770	56.300	0.248	-0.244
-507.756	-82.119	0.174	0.058
-506.741	-42.849	-0.169	0.087
-505.726	339.904	-0.110	0.218
-504.712	514.545	0.061	0.144
-503.697	637.010	-0.051	0.132
-502.683	12.319	0.137	0.107
-501.668	-144.548	-0.147	0.014
-500.653	-113.423	-0.243	0.048
-499.639	800.000	0.006	0.020
-498.624	52.197	-0.114	0.110
-497.610	-84.992	0.181	0.058
-496.595	564.076	-0.048	0.117
-495.581	-108.947	0.158	0.034
-494.566	55.351	0.213	-0.208
-493.551	-200.000	0.011	-0.254
-492.537	-52.061	-0.269	0.127
-491.522	184.228	0.084	-0.126
-490.508	784.264	-0.082	-0.228
-489.493	401.289	0.144	-0.307
-488.478	-122.787	-0.178	-0.029
-487.464	-134.296	0.306	-0.038
-486.449	-200.000	0.020	0.214
-485.435	92.356	0.074	-0.084
-484.420	-121.969	0.283	-0.047
-483.405	163.678	0.372	-0.529
-482.391	-200.000	-0.051	-0.246
-481.376	-200.000	0.029	0.167
-480.362	-105.638	-0.281	0.064
-479.347	238.205	0.118	-0.198
-478.332	-19.642	-0.080	0.050
-477.318	-35.315	-0.311	0.171
-476.303	-173.888	-0.162	0.005
-475.289	135.006	0.068	0.089
-474.274	-59.937	0.065	-0.028
-473.259	800.000	-0.023	-0.099
-472.245	55.293	0.274	0.268
-471.230	-40.024	-0.337	0.178
-470.216	50.355	0.167	-0.160
-469.201	-34.381	0.139	-0.077
-468.186	-143.984	-0.130	0.012
-467.172	-50.181	0.218	0.104
-466.157	-200.000	-0.005	0.032
-465.143	-200.000	-0.081	0.386
-464.128	-66.452	-0.143	-0.057
-463.113	800.000	-0.060	0.183
-462.099	-138.998	0.189	0.021
-461.084	-200.000	0.064	-0.429
-460.070	235.540	0.134	-0.224
-459.055	-31.417	-0.162	0.092
-458.040	-97.031	-0.064	-0.017
-457.026	90.685	0.078	-0.088
-456.011	-200.000	-0.019	0.137
-454.997	-167.038	-0.332	-0.014
-453.982	261.437	0.089	0.155
-452.968	156.533	-0.128	0.179
-451.953	-140.348	0.186	0.020
-450.938	458.013	0.111	-0.250
-449.924	135.395	0.047	0.061
-448.909	-160.611	0.223	0.012
-447.895	-200.000	0.056	-0.331
-446.880	-161.507	-0.331	0.017
-445.865	106.816	-0.277	0.333
-444.851	-200.000	0.047	0.356
-443.836	57.260	0.154	0.152
-442.822	-200.000	-0.027	0.175
-441.807	24.415	-0.199	0.167
-440.792	-200.000	0.054	0.295
-439.778	-161.355	-0.303	0.016
-438.763	-72.194	0.146	-0.055
-437.749	90.773	0.055	-0.062
-436.734	-84.483	0.135	0.043
-435.719	605.085	0.111	0.280
-434.705	-200.000	0.012	-0.203
-433.690	-200.000	0.060	-0.457
-432.676	-128.833	-0.217	0.031
-431.661	-189.632	0.110	0.001
-430.646	80.641	0.132	-0.143
-429.632	265.384	-0.082	0.144
-428.617	175.417	-0.115	-0.168
-427.603	-61.727	-0.192	-0.081
-426.588	42.811	0.114	-0.105
-425.573	-173.817	0.340	0.010
-424.559	-93.072	-0.099	-0.028
-423.544	11.943	0.106	0.083
-422.530	800.000	0.027	-0.076
-421.515	-200.000	0.026	-0.246
-420.500	-42.952	-0.168	-0.086
-419.486	-31.645	-0.162	-0.092
-418.471	-173.157	0.057	0.002
-417.457	50.960	0.282	-0.270
-416.442	-200.000	-0.011	-0.300
-415.428	800.000	-0.093	-0.279
-414.413	-38.256	-0.109	0.058
-413.398	78.838	-0.211	0.228
-412.384	218.747	0.132	0.212
-411.369	-121.937	-0.155	0.026
-410.355	-70.836	0.056	0.021
-409.340	-133.285	0.269	0.034
-408.325	-75.490	-0.111	0.040
-407.311	515.187	0.076	0.179
-406.296	800.000	-0.027	0.119
-405.282	434.698	-0.048	-0.104
-404.267	-49.049	0.310	0.149
-403.252	-200.000	-0.025	0.238
-402.238	21.081	0.283	0.232
-401.223	-92.294	-0.336	-0.096
-400.209	-200.000	-0.020	-0.282
-399.194	-72.690	0.066	0.025
-398.179	247.776	-0.098	0.167
-397.165	-91.256	-0.074	0.021
-396.150	800.000	-0.092	0.389
-395.136	-42.853	-0.078	0.040
-394.121	477.499	0.122	-0.277
-393.106	20.401	0.209	0.170
-392.092	-53.602	-0.012	-0.006
-391.077	800.000	-0.180	0.545
-390.063	-162.838	0.194	-0.010
-389.048	291.574	0.094	0.173
-388.033	-200.000	-0.040	-0.269
-387.019	246.445	-0.236	-0.402
-386.004	-51.991	0.042	-0.019
-384.990	-32.851	-0.123	-0.069
-383.975	-2.656	-0.221	0.156
-382.960	-195.096	0.202	-0.002
-381.946	-60.000	0.129	-0.055
-380.931	-105.357	0.205	-0.047
-379.917	-200.000	-0.011	-0.201
-378.902	128.175	-0.195	-0.250
-377.888	-200.000	-0.027	0.243
-376.873	516.528	-0.056	-0.133
-375.858	-123.215	0.341	-0.055
-374.844	800.000	-0.079	0.263
-373.829	-51.634	0.127	-0.060
-372.815	-200.000	0.060	0.287
-371.800	-44.147	0.304	-0.154
-370.785	61.261	0.211	-0.211
-369.771	-91.873	-0.206	-0.059
-368.756	-200.000	0.038	0.262
-367.742	-76.436	-0.166	-0.059
-366.727	-23.675	-0.110	0.066
-365.712	-200.000	0.023	-0.192
-364.698	-171.706	0.146	0.005
-363.683	-82.454	-0.197	0.064
-362.669	346.654	0.098	-0.195
-361.654	-200.000	-0.046	0.226
-360.639	-200.000	-0.016	-0.172
-359.625	-18.495	-0.071	-0.045
-358.610	-159.628	-0.185	-0.010
-357.596	-200.000	0.022	0.239
-356.581	-67.281	0.375	0.149
-355.566	-200.000	-0.060	-0.321
-354.552	73.921	-0.208	-0.220
-353.537	-102.500	0.318	-0.077
-352.523	328.562	0.094	0.182
-351.508	67.911	-0.088	-0.091
-350.493	-55.801	0.088	-0.040
-349.479	40.855	-0.151	-0.137
-348.464	219.790	-0.108	-0.174
-347.450	800.000	0.054	0.164
-346.435	800.000	0.051	0.204
-345.420	-200.000	-0.014	0.203
-344.406	800.000	-0.044	0.124
-343.391	-86.645	0.054	0.017
-342.377	-133.350	0.297	-0.038
-341.362	800.000	-0.034	0.100
-340.348	-23.932	-0.242	-0.146
-339.333	-200.000	-0.002	-0.109
-338.318	800.000	0.062	0.237
-337.304	-200.000	0.012	0.156
-336.289	-80.349	-0.347	-0.117
-335.275	-84.589	-0.263	-0.083
-334.260	800.000	-0.046	-0.203
-333.245	28.432	-0.170	0.145
-332.231	74.959	-0.096	0.101
-331.216	-200.000	0.010	-0.062
-330.202	2.969	-0.184	-0.135
-329.187	-80.218	0.333	0.112
-328.172	134.512	0.148	0.193
-327.158	-200.000	0.006	0.080
-326.143	121.007	0.074	0.092
-325.129	-3.519	-0.272	0.190
-324.114	-58.583	0.118	0.051
-323.099	233.197	0.106	0.175
-322.085	72.101	0.048	0.050
-321.070	-144.560	-0.090	-0.008
-320.056	-30.926	0.155	0.088
-319.041	-200.000	-0.025	0.261
-318.026	-11.719	-0.096	0.063
-317.012	-200.000	-0.029	-0.185
-315.997	-19.362	-0.162	-0.101
-314.983	-162.687	0.184	-0.009
-313.968	-200.000	-0.043	-0.212
-312.953	800.000	-0.097	-0.372
-311.939	94.827	0.104	0.119
-310.924	-185.280	-0.304	0.005
-309.910	-200.000	0.019	0.229
-308.895	46.750	0.127	0.119
-307.880	-200.000	-0.020	0.282
-306.866	77.665	-0.056	-0.060
-305.851	-82.285	0.084	0.027
-304.837	-111.104	-0.387	-0.080
-303.822	-141.872	0.249	-0.025
-302.807	-200.000	-0.003	0.205
-301.793	683.666	0.032	0.085
-300.778	-46.644	0.099	0.049
-299.764	9.751	-0.167	-0.127
-298.749	-59.420	0.390	0.168
-297.735	266.045	0.135	-0.237
-296.720	800.000	0.030	-0.102
-295.705	-200.000	-0.005	0.185
-294.691	277.490	-0.139	-0.249
-293.676	-200.000	-0.003	0.319
-292.662	-110.683	0.274	-0.057
-291.647	-200.000	-0.040	-0.228
-290.632	54.095	-0.104	0.100
-289.618	800.000	-0.045	-0.141
-288.603	-137.904	-0.242	0.027
-287.589	-70.115	0.307	0.117
-286.574	-176.477	0.075	-0.002
-285.559	800.000	0.080	-0.311
-284.545	176.831	0.150	-0.219
-283.530	-172.833	0.377	-0.012
-282.516	-200.000	0.005	0.232
-281.501	41.585	0.176	0.160
-280.486	385.192	-0.112	0.231
-279.472	-97.589	0.050	-0.013
-278.457	-75.137	0.244	-0.088
-277.443	22.460	-0.262	-0.215
-276.428	100.482	0.127	-0.148
-275.413	134.203	-0.068	-0.089
-274.399	178.515	0.115	-0.169
-273.384	-113.441	-0.084	0.017
-272.370	285.892	-0.228	-0.412
-271.355	460.973	0.059	0.133
-270.340	25.709	-0.233	0.195
-269.326	-51.482	-0.089	-0.042
-268.311	-38.343	-0.237	-0.126
-267.297	197.784	0.040	-0.061
-266.282	-5.016	-0.068	-0.047
-265.267	450.591	-0.103	0.228
-264.253	800.000	0.020	0.081
-263.238	800.000	0.101	-0.335
-262.224	69.334	0.054	0.056
-261.209	317.736	-0.207	0.392
-260.195	-180.851	-0.064	0.001
-259.180	-46.030	0.087	-0.043
-258.165	-200.000	-0.026	0.288
-257.151	-89.061	0.187	-0.056
-256.136	-36.474	-0.154	0.083
-255.122	800.000	0.028	0.094
-254.107	-132.052	0.175	-0.023
-253.092	41.835	-0.215	-0.195
-252.078	136.291	-0.095	0.124
-251.063	-126.705	-0.224	-0.033
-250.049	-72.536	0.065	0.024
-249.034	183.077	0.085	-0.125
-248.019	-108.282	-0.358	-0.077
-247.005	128.654	0.042	0.053
-245.990	531.329	-0.014	-0.034
-244.976	800.000	-0.034	0.115
-243.961	147.939	-0.038	0.052
-242.946	-200.000	0.000	-0.061
-241.932	-200.000	0.002	0.184
-240.917	-60.812	0.232	-0.098
-239.903	-47.046	0.262	-0.128
-238.888	-18.133	0.136	0.085
-237.873	800.000	-0.085	-0.293
-236.859	-200.000	0.052	0.283
-235.844	-20.220	0.127	-0.079
-234.830	-163.389	-0.014	-0.001
-233.815	-200.000	0.024	0.154
-232.800	493.868	-0.157	-0.362
-231.786	-129.563	-0.118	0.016
-230.771	-29.280	-0.119	0.068
-229.757	34.463	-0.149	0.130
-228.742	351.535	0.093	-0.184
-227.727	-170.601	-0.179	0.006
-226.713	-118.333	0.151	0.027
-225.698	800.000	-0.019	0.065
-224.684	47.980	0.249	0.233
-223.669	-200.000	0.002	0.081
-222.655	-200.000	-0.032	0.348
-221.640	-125.325	0.054	0.008
-220.625	-61.021	0.148	0.062
-219.611	689.724	0.083	0.218
-218.596	800.000	0.034	0.112
-217.582	139.095	0.075	-0.099
-216.567	-200.000	-0.012	-0.224
-215.552	-141.885	-0.283	0.028
-214.538	-200.000	-0.003	0.147
-213.523	41.565	0.279	0.253
-212.509	-200.000	-0.003	-0.147
-211.494	-135.290	0.202	-0.024
-210.479	-111.176	0.155	0.032
-209.465	-200.000	0.045	-0.248
-208.450	302.083	0.180	-0.334
-207.436	-119.146	-0.113	-0.020
-206.421	25.258	-0.138	0.115
-205.406	175.057	0.097	-0.141
-204.392	800.000	0.036	0.122
-203.377	-135.045	0.193	0.023
-202.363	-33.669	0.109	0.060
-201.348	-80.681	-0.036	0.012
-200.333	7.396	0.095	0.071
-199.319	51.871	0.262	0.249
-198.304	72.923	-0.298	-0.311
-197.290	-21.909	0.207	-0.126
-196.275	-17.758	0.213	-0.134
-195.260	-200.000	0.035	-0.319
-194.246	766.777	-0.039	-0.106
-193.231	562.532	-0.099	-0.240
-192.217	-89.135	-0.178	-0.053
-191.202	52.191	0.071	0.068
-190.187	-85.714	0.287	-0.089
-189.173	170.827	-0.032	-0.046
-188.158	374.557	-0.189	-0.386
-187.144	-77.098	0.153	0.053
-186.129	25.282	-0.184	-0.153
-185.114	800.000	-0.027	0.100
-184.100	-59.784	-0.264	-0.113
-183.085	-77.377	-0.109	-0.038
-182.071	-200.000	0.046	-0.257
-181.056	21.700	0.193	-0.157
-180.042	2.387	0.040	-0.029
-179.027	273.657	0.107	-0.188
-178.012	-160.617	0.266	-0.014
-176.998	-144.968	0.035	0.003
-175.983	-92.981	0.336	-0.094
-174.969	45.049	0.156	0.143
-173.954	218.848	-0.027	0.044
-172.939	-200.000	-0.008	0.077
-171.925	-141.689	-0.311	-0.031
-170.910	800.000	-0.034	-0.111
-169.896	-136.425	0.325	0.038
-168.881	556.984	-0.058	0.139
-167.866	-200.000	0.157	-0.746
-166.852	-16.516	-0.096	0.061
-165.837	-22.700	-0.261	0.158
-164.823	139.787	-0.078	0.102
-163.808	-200.000	0.003	-0.062
-162.793	-107.079	0.166	0.037
-161.779	-69.631	-0.068	0.026
-160.764	148.981	0.051	0.068
-159.750	275.995	0.139	0.246
-158.735	377.294	0.080	-0.163
-157.720	136.763	0.280	-0.365
-156.706	-52.607	0.084	-0.039
-155.691	-61.459	0.112	0.047
-154.677	-175.297	0.201	-0.006
-153.662	-140.017	0.088	0.009
-152.647	-38.093	0.168	0.089
-151.633	-200.000	-0.020	-0.104
-150.618	-64.954	-0.239	-0.096
-149.604	687.415	0.064	0.167
-148.589	152.615	0.216	-0.294
-147.574	-80.238	0.298	0.100
-146.560	196.875	0.207	0.316
-145.545	800.000	0.138	0.449
-144.531	85.430	-0.139	0.152
-143.516	-183.580	0.055	-0.001
-142.502	309.171	0.145	-0.271
-141.487	-154.921	0.312	-0.021
-140.472	373.729	0.082	-0.166
-139.458	-122.537	0.252	-0.041
-138.443	-38.859	-0.468	-0.246
-137.429	-200.000	0.008	-0.047
-136.414	800.000	-0.038	0.125
-135.399	124.657	-0.188	0.237
-134.385	174.880	-0.111	-0.160
-133.370	-22.130	-0.175	-0.106
-132.356	356.263	-0.162	0.322
-131.341	-71.172	0.225	0.084
-130.326	-29.044	0.134	-0.077
-129.312	146.896	0.096	0.129
-128.297	800.000	-0.020	-0.079
-127.283	187.530	0.236	0.351
-126.268	4.164	-0.089	0.065
-125.253	-200.000	0.004	-0.325
-124.239	-93.343	0.306	0.085
-123.224	-200.000	-0.027	-0.250
-122.210	395.137	-0.049	-0.102
-121.195	800.000	-0.033	0.144
-120.180	43.991	0.127	-0.116
-119.166	-159.091	0.020	-0.001
-118.151	27.824	-0.295	-0.248
-117.137	-200.000	0.015	-0.187
-116.122	-137.707	-0.198	-0.022
-115.107	678.472	0.056	0.145
-114.093	-43.340	0.129	-0.065
-113.078	-10.581	0.222	-0.147
-112.064	-53.729	0.122	0.055
-111.049	-156.196	-0.181	0.011
-110.034	-200.000	-0.009	-0.271
-109.020	-200.000	0.024	0.232
-108.005	-120.527	0.190	-0.032
-106.991	-200.000	0.000	0.096
-105.976	157.831	0.076	0.105
-104.962	445.523	-0.059	0.128
-103.947	-59.192	-0.323	-0.139
-102.932	-88.453	0.187	0.056
-101.918	-73.260	-0.474	0.173
-100.903	18.758	0.040	-0.032
-99.889	-200.000	-0.014	0.201
-98.874	-29.605	0.212	0.121
-97.859	-152.926	0.109	0.008
-96.845	-102.893	0.391	-0.093
-95.830	-52.622	-0.127	0.058
-94.816	-200.000	0.010	-0.397
-93.801	469.690	-0.100	-0.224
-92.786	-200.000	0.041	-0.251
-91.772	-159.033	0.081	0.005
-90.757	-38.875	0.057	-0.030
-89.743	-200.000	0.022	0.201
-88.728	22.139	0.246	0.200
-87.713	-200.000	-0.049	0.443
-86.699	-200.000	-0.008	0.048
-85.684	-118.813	0.180	-0.031
-84.670	-31.441	0.226	-0.127
-83.655	-128.237	-0.220	-0.031
-82.640	23.386	-0.117	0.096
-81.626	-146.095	-0.201	0.018
-80.611	800.000	-0.080	0.312
-79.597	-200.000	0.004	-0.168
-78.582	-55.889	-0.224	-0.099
-77.567	7.930	0.117	0.087
-76.553	207.417	0.073	-0.113
-75.538	-92.282	-0.249	-0.070
-74.524	64.361	0.339	0.340
-73.509	800.000	-0.060	0.217
-72.494	-200.000	0.053	0.317
-71.480	-200.000	-0.055	-0.318
-70.465	-75.767	0.401	-0.142
-69.451	84.646	0.087	0.095
-68.436	-54.397	-0.272	-0.123
-67.422	-23.364	-0.136	-0.082
-66.407	-140.011	-0.248	0.026
-65.392	-200.000	-0.046	-0.235
-64.378	-88.570	-0.573	-0.170
-63.363	723.684	0.086	0.228
-62.349	800.000	-0.018	0.054
-61.334	52.320	-0.998	-0.947
-60.319	8.423	0.414	0.310
-59.305	-200.000	-0.040	-0.897
-58.290	414.979	0.510	1.081
-57.276	749.661	0.587	1.575
-56.261	-200.000	89.868	513.138
-55.246	451.055	1420.350	3119.986
-54.232	141.639	2641.775	3480.619
-53.217	101.470	2391.168	2771.052
-52.203	42.188	2129.939	1924.138
-51.188	37.614	2039.087	1799.826
-50.173	36.136	2020.195	1769.522
-49.159	49.251	2067.947	1933.433
-48.144	52.021	2087.968	1977.839
-47.130	38.593	2047.104	1815.695
-46.115	36.002	2035.997	1781.844
-45.100	35.914	2032.959	1778.302
-44.086	35.954	2029.960	1775.971
-43.071	35.861	2027.096	1772.538
-42.057	35.768	2025.447	1770.174
-41.042	35.876	2023.057	1769.005
-40.027	35.928	2021.021	1767.632
-39.013	35.922	2018.803	1765.569
-37.998	35.970	2017.180	1764.518
-36.984	35.948	2015.273	1762.582
-35.969	35.911	2013.452	1760.575
-34.954	35.938	2011.917	1759.412
-33.940	35.950	2010.087	1757.848
-32.925	36.019	2008.404	1756.945
-31.911	35.967	2007.028	1755.197
-30.896	35.999	2004.833	1753.494
-29.881	36.049	2003.332	1752.565
-28.867	36.070	2001.480	1751.066
-27.852	36.046	1999.509	1749.057
-26.838	36.072	1997.221	1747.218
-25.823	36.049	1995.656	1745.576
-24.809	36.064	1993.599	1743.845
-23.794	35.988	1992.576	1742.195
-22.779	35.954	1990.509	1740.009
-21.765	36.006	1988.836	1738.945
-20.750	36.079	1986.574	1737.559
-19.736	36.016	1985.714	1736.173
-18.721	36.017	1984.595	1735.131
-17.706	36.021	1982.666	1733.413
-16.692	35.976	1980.901	1731.390
-15.677	36.024	1979.171	1730.247
-14.663	36.026	1977.221	1728.492
-13.648	36.124	1976.214	1728.416
-12.633	35.987	1975.095	1726.145
-11.619	36.020	1974.076	1725.478
-10.604	36.055	1972.010	1723.920
-9.590	36.008	1970.905	1722.461
-8.575	35.973	1969.490	1720.843
-7.560	35.965	1968.443	1719.793
-6.546	36.041	1966.847	1719.008
-5.531	36.002	1965.424	1717.352
-4.517	35.989	1964.556	1716.405
-3.502	36.011	1963.526	1715.629
-2.487	36.054	1961.960	1714.580
-1.473	36.057	1960.820	1713.541
-0.458	36.182	1956.773	1711.043
0.556	35.511	1938.768	1691.195
1.571	31.928	1920.370	1643.669
2.586	27.357	1941.837	1621.284
3.600	25.447	1976.706	1632.905
4.615	24.011	1970.944	1614.981
5.629	18.226	1865.026	1478.227
6.644	7.573	1737.049	1290.517
7.659	1.513	1694.620	1210.730
8.673	0.864	1690.998	1202.878
9.688	0.805	1689.589	1201.301
10.702	0.702	1688.594	1199.668
11.717	0.669	1684.313	1196.265
12.731	1.236	1684.414	1200.715
13.746	7.966	1699.589	1265.027
14.761	16.028	1716.161	1341.676
15.775	17.967	1717.831	1358.298
16.790	17.350	1714.647	1350.761
17.804	16.401	1711.515	1340.646
18.819	15.433	1708.145	1330.217
19.834	14.750	1706.255	1323.223
20.848	14.549	1704.403	1320.076
21.863	14.133	1702.516	1315.214
22.877	13.921	1701.057	1312.293
23.892	13.667	1699.334	1308.845
24.907	13.496	1698.424	1306.680
25.921	13.579	1697.049	1306.162
26.936	13.534	1696.440	1305.216
27.950	13.549	1695.692	1304.642
28.965	13.702	1694.883	1305.113
29.980	13.724	1694.386	1304.786
30.994	13.780	1692.864	1303.941
32.009	13.751	1692.120	1303.027
33.023	13.846	1691.086	1302.859
34.038	13.867	1690.335	1302.325
35.053	13.839	1689.010	1300.975
36.067	13.778	1688.326	1299.851
37.082	13.681	1687.130	1298.061
38.096	13.799	1685.795	1297.843
39.111	13.812	1685.264	1297.415
40.126	13.806	1684.580	1296.731
41.140	13.772	1683.450	1295.475
42.155	13.692	1682.102	1293.702
43.169	13.658	1680.432	1292.039
44.184	13.596	1679.888	1291.022
45.199	13.492	1678.720	1289.204
46.213	13.652	1677.174	1289.145
47.228	13.569	1676.569	1287.921
48.242	13.663	1674.344	1286.829
49.257	13.662	1673.514	1286.065
50.271	13.690	1672.272	1285.212
51.286	13.773	1670.469	1284.355
52.301	13.672	1669.751	1282.912
53.315	13.669	1668.349	1281.697
54.330	13.619	1666.606	1279.856
55.344	13.587	1665.441	1278.604
56.359	13.550	1664.299	1277.328
57.374	13.633	1662.810	1276.712
58.388	13.694	1661.445	1276.020
59.403	13.633	1660.022	1274.346
60.417	13.607	1659.029	1273.272
61.432	13.630	1657.567	1272.216
62.447	13.565	1656.803	1271.017
63.461	13.517	1655.752	1269.730
64.476	13.554	1654.420	1268.882
65.490	13.551	1653.155	1267.776
66.505	13.520	1652.107	1266.621
67.520	13.574	1650.684	1265.828
68.534	13.586	1650.368	1265.570
69.549	13.615	1649.240	1264.812
70.563	13.640	1647.267	1263.374
71.578	13.457	1646.681	1261.419
72.593	13.500	1645.400	1260.658
73.607	13.527	1644.577	1260.118
74.622	13.441	1643.445	1258.484
75.636	13.544	1641.927	1257.999
76.651	13.475	1641.535	1257.058
77.666	13.425	1640.169	1255.522
78.680	13.566	1638.882	1255.493
79.695	13.463	1638.323	1254.176
80.709	13.529	1636.962	1253.520
81.724	13.500	1636.193	1252.602
82.739	13.515	1635.487	1252.067
83.753	13.497	1634.835	1251.321
84.768	13.616	1632.790	1250.543
85.782	13.609	1633.080	1250.599
86.797	13.735	1631.619	1250.318
87.812	13.675	1631.110	1249.366
88.826	13.699	1629.119	1247.914
89.841	13.646	1627.960	1246.513
90.855	13.694	1626.823	1245.894
91.870	13.589	1626.215	1244.534
92.884	13.697	1624.901	1244.225
93.899	13.727	1623.636	1243.372
94.914	13.720	1622.248	1242.150
95.928	13.770	1621.594	1241.909
96.943	13.809	1620.042	1240.901
97.957	13.820	1618.537	1239.723
98.972	13.719	1617.154	1237.797
99.987	13.723	1615.594	1236.525
101.001	13.668	1614.701	1235.325
102.016	13.686	1612.369	1233.568
103.030	13.718	1611.187	1232.789
104.045	13.644	1610.592	1231.673
105.060	13.708	1608.467	1230.419
106.074	13.647	1606.794	1228.576
107.089	13.708	1605.356	1227.818
108.103	13.620	1604.033	1226.050
109.118	13.627	1602.583	1224.880
110.133	13.555	1600.820	1222.895
111.147	13.600	1599.662	1222.231
112.162	13.605	1598.366	1221.171
113.176	13.534	1596.805	1219.353
114.191	13.596	1595.259	1218.514
115.206	13.665	1594.036	1217.983
116.220	13.721	1592.700	1217.267
117.235	13.632	1591.481	1215.570
118.249	13.700	1590.008	1214.835
119.264	13.612	1588.960	1213.285
120.279	13.671	1587.039	1212.144
121.293	13.679	1585.567	1210.968
122.308	13.605	1584.534	1209.534
123.322	13.646	1582.924	1208.495
124.337	13.656	1581.072	1207.048
125.352	13.600	1580.261	1205.913
126.366	13.549	1579.140	1204.582
127.381	13.570	1577.796	1203.602
128.395	13.512	1577.061	1202.518
129.410	13.641	1575.263	1201.976
130.424	13.615	1573.586	1200.400
131.439	13.594	1572.487	1199.298
132.454	13.632	1571.191	1198.480
133.468	13.663	1569.443	1197.266
134.483	13.735	1568.317	1196.824
135.497	13.731	1566.929	1195.628
136.512	13.646	1565.897	1194.122
137.527	13.690	1564.275	1193.096
138.541	13.682	1562.976	1191.943
139.556	13.780	1561.364	1191.308
140.570	13.723	1560.162	1189.877
141.585	13.806	1558.502	1189.102
142.600	13.860	1557.265	1188.438
143.614	13.850	1556.024	1187.317
144.629	13.805	1555.041	1186.141
145.643	13.898	1553.494	1185.518
146.658	13.836	1552.671	1184.343
147.673	13.931	1550.606	1183.343
148.687	13.900	1549.195	1181.941
149.702	13.858	1547.707	1180.397
150.716	13.834	1546.078	1178.885
151.731	13.756	1544.907	1177.335
152.746	13.834	1543.321	1176.570
153.760	13.865	1541.655	1175.420
154.775	13.825	1540.548	1174.187
155.789	13.895	1538.915	1173.331
156.804	13.912	1537.782	1172.488
157.819	14.026	1536.284	1172.046
158.833	13.939	1535.329	1170.600
159.848	13.933	1534.245	1169.625
160.862	14.021	1532.851	1169.078
161.877	13.966	1531.858	1167.832
162.892	14.031	1531.021	1167.546
163.906	13.999	1528.995	1165.677
164.921	13.889	1528.001	1164.045
165.935	13.911	1526.288	1162.788
166.950	13.998	1525.928	1163.018
167.964	13.990	1524.512	1161.783
168.979	14.016	1523.608	1161.168
169.994	13.999	1522.832	1160.355
171.008	14.018	1521.175	1159.126
172.023	14.024	1520.177	1158.305
173.037	13.944	1519.581	1157.192
174.052	14.097	1517.784	1156.783
175.067	14.138	1517.270	1156.574
176.081	14.067	1515.610	1154.713
177.096	14.033	1514.313	1153.390
178.110	14.025	1513.025	1152.252
179.125	14.005	1511.980	1151.212
180.140	14.053	1511.228	1150.873
181.154	14.034	1510.312	1149.943
182.169	14.043	1508.898	1148.824
183.183	14.100	1507.423	1147.991
184.198	14.102	1506.588	1147.267
185.213	14.210	1505.418	1147.018
186.227	14.177	1504.486	1145.983
187.242	14.244	1503.258	1145.407
188.256	14.245	1501.754	1144.168
189.271	14.311	1501.038	1143.972
190.286	14.244	1499.928	1142.567
191.300	14.281	1498.726	1141.805
192.315	14.139	1497.537	1139.825
193.329	14.127	1496.357	1138.741
194.344	14.148	1495.231	1137.931
195.359	14.190	1494.035	1137.207
196.373	14.286	1492.958	1136.938
197.388	14.237	1492.549	1136.193
198.402	14.262	1491.447	1135.426
199.417	14.325	1489.879	1134.561
200.432	14.317	1489.077	1133.794
201.446	14.443	1488.162	1133.852
202.461	14.432	1487.212	1132.952
203.475	14.599	1485.671	1132.815
204.490	14.532	1484.916	1131.682
205.504	14.532	1483.890	1130.801
206.519	14.568	1482.392	1129.806
207.534	14.499	1481.474	1128.538
208.548	14.402	1480.909	1127.351
209.563	14.506	1479.208	1126.660
210.577	14.434	1478.430	1125.480
211.592	14.451	1477.660	1124.910
212.607	14.489	1476.834	1124.437
213.621	14.540	1476.141	1124.157
214.636	14.619	1474.791	1123.559
215.650	14.610	1474.143	1122.902
216.665	14.493	1473.035	1121.174
217.680	14.623	1472.706	1121.699
218.694	14.597	1471.825	1120.751
219.709	14.714	1470.819	1120.675
220.723	14.775	1469.138	1119.703
221.738	14.738	1468.599	1118.942
222.753	14.752	1467.696	1118.254
223.767	14.743	1466.894	1117.485
224.782	14.742	1465.572	1116.369
225.796	14.749	1464.636	1115.606
226.811	14.738	1464.293	1115.168
227.826	14.859	1463.059	1114.942
228.840	14.738	1462.433	1113.558
229.855	14.806	1461.251	1113.013
230.869	14.645	1460.833	1111.525
231.884	14.836	1458.893	1111.216
232.899	14.835	1458.009	1110.442
233.913	14.761	1457.319	1109.327
234.928	14.752	1455.782	1107.996
235.942	14.777	1454.822	1107.335
236.957	14.753	1453.250	1105.880
237.972	14.769	1452.086	1105.005
238.986	14.823	1451.193	1104.585
240.001	14.772	1450.556	1103.660
241.015	14.835	1449.184	1102.937
242.030	14.944	1447.765	1102.479
243.045	14.971	1446.528	1101.615
244.059	14.909	1446.186	1100.852
245.074	14.985	1445.359	1100.623
246.088	14.898	1444.503	1099.303
247.103	15.011	1443.432	1099.129
248.117	14.962	1442.891	1098.303
249.132	15.055	1442.068	1098.191
250.147	15.048	1441.267	1097.432
251.161	15.050	1440.734	1096.944
252.176	15.155	1439.937	1096.927
253.190	15.191	1439.361	1096.630
254.205	15.157	1438.507	1095.658
255.220	15.337	1437.132	1095.689
256.234	15.326	1436.772	1095.246
257.249	15.234	1436.057	1094.002
258.263	15.307	1435.010	1093.584
259.278	15.397	1433.772	1093.134
260.293	15.339	1433.267	1092.272
261.307	15.270	1432.671	1091.271
262.322	15.403	1431.441	1091.103
263.336	15.425	1430.663	1090.560
264.351	15.418	1429.781	1089.740
265.366	15.387	1428.862	1088.745
266.380	15.445	1427.803	1088.218
267.395	15.489	1426.959	1087.764
268.409	15.481	1425.974	1086.861
269.424	15.468	1424.814	1085.803
270.439	15.491	1423.638	1084.955
271.453	15.522	1422.758	1084.389
272.468	15.559	1421.654	1083.693
273.482	15.487	1421.110	1082.714
274.497	15.529	1420.259	1082.240
275.512	15.527	1419.428	1081.502
276.526	15.439	1418.481	1080.120
277.541	15.531	1417.597	1079.939
278.555	15.523	1416.882	1079.248
279.570	15.558	1415.599	1078.399
280.585	15.581	1414.771	1077.823
281.599	15.642	1414.077	1077.591
282.614	15.667	1413.232	1077.013
283.628	15.743	1411.835	1076.339
284.643	15.641	1411.085	1075.018
285.657	15.739	1409.261	1074.157
286.672	15.718	1408.915	1073.668
287.687	15.530	1408.382	1071.965
288.701	15.648	1407.087	1071.638
289.716	15.794	1406.240	1071.826
290.730	15.718	1405.569	1070.739
291.745	15.741	1404.228	1069.768
292.760	15.794	1403.036	1069.097
293.774	15.747	1402.228	1068.088
294.789	15.755	1401.425	1067.437
295.803	15.778	1400.763	1066.986
296.818	15.878	1399.769	1066.763
297.833	15.851	1398.754	1065.729
298.847	15.824	1397.746	1064.693
299.862	15.826	1396.813	1063.901
300.876	15.882	1395.854	1063.428
301.891	15.936	1394.788	1062.868
302.906	15.778	1394.222	1061.345
303.920	15.913	1393.417	1061.487
304.935	16.007	1392.384	1061.195
305.949	15.991	1391.523	1060.347
306.964	16.107	1390.889	1060.502
307.979	16.098	1389.966	1059.648
308.993	16.110	1388.640	1058.616
310.008	16.111	1387.696	1057.808
311.022	16.070	1386.921	1056.870
312.037	16.044	1386.019	1055.925
313.052	16.177	1384.714	1055.671
314.066	16.278	1383.635	1055.386
315.081	16.113	1383.188	1053.922
316.095	16.063	1381.857	1052.501
317.110	16.079	1380.814	1051.714
318.125	16.118	1379.806	1051.097
319.139	16.104	1378.914	1050.237
320.154	16.120	1378.156	1049.664
321.168	16.140	1377.144	1048.924
322.183	16.153	1376.025	1048.058
323.197	16.110	1375.045	1046.955
324.212	16.160	1374.406	1046.684
325.227	16.232	1373.131	1046.071
326.241	16.227	1372.606	1045.546
327.256	16.206	1371.652	1044.598
328.270	16.171	1370.850	1043.674
329.285	16.179	1370.255	1043.180
330.300	16.320	1368.461	1042.591
331.314	16.185	1367.748	1041.127
332.329	16.199	1367.093	1040.622
333.343	16.275	1366.036	1040.192
334.358	16.236	1365.151	1039.187
335.373	16.267	1364.655	1038.908
336.387	16.379	1363.425	1038.568
337.402	16.311	1362.841	1037.610
338.416	16.388	1362.056	1037.397
339.431	16.442	1361.658	1037.330
340.446	16.480	1360.703	1036.747
341.460	16.441	1359.697	1035.649
342.475	16.458	1358.439	1034.700
343.489	16.515	1357.684	1034.385
344.504	16.507	1356.801	1033.570
345.519	16.495	1356.095	1032.866
346.533	16.523	1355.157	1032.237
347.548	16.610	1354.233	1031.971
348.562	16.694	1352.995	1031.449
349.577	16.638	1352.484	1030.626
350.592	16.676	1351.438	1029.970
351.606	16.570	1351.051	1028.934
352.621	16.682	1349.561	1028.391
353.635	16.632	1348.755	1027.381
354.650	16.587	1347.814	1026.304
355.665	16.599	1346.775	1025.491
356.679	16.713	1345.127	1024.836
357.694	16.709	1344.355	1024.132
358.708	16.657	1343.834	1023.335
359.723	16.676	1342.786	1022.560
360.738	16.709	1341.248	1021.496
361.752	16.794	1340.290	1021.190
362.767	16.820	1339.335	1020.529
363.781	16.718	1338.596	1019.258
364.796	16.774	1337.881	1018.961
365.810	16.793	1337.404	1018.621
366.825	16.852	1336.420	1018.136
367.840	16.792	1336.024	1017.383
368.854	16.932	1334.697	1017.127
369.869	17.025	1334.118	1017.149
370.883	17.024	1333.745	1016.769
371.898	17.020	1332.665	1015.835
372.913	17.022	1331.517	1014.880
373.927	17.031	1330.869	1014.353
374.942	16.988	1330.178	1013.475
375.956	17.082	1329.183	1013.192
376.971	17.098	1328.632	1012.775
377.986	17.078	1327.887	1011.998
379.000	16.981	1327.386	1010.948
380.015	17.039	1326.306	1010.381
381.029	17.153	1325.715	1010.524
382.044	17.180	1324.326	1009.534
383.059	17.243	1323.719	1009.360
384.073	17.202	1323.057	1008.522
385.088	17.212	1322.874	1008.348
386.102	17.120	1322.528	1007.453
387.117	17.237	1321.417	1007.206
388.132	17.231	1320.416	1006.320
389.146	17.204	1319.357	1005.267
390.161	17.235	1318.761	1004.906
391.175	17.275	1317.972	1004.451
392.190	17.262	1317.098	1003.620
393.205	17.250	1316.442	1002.959
394.219	17.440	1314.730	1002.689
395.234	17.419	1313.873	1001.824
396.248	17.405	1312.538	1000.632
397.263	17.468	1310.889	999.657
398.278	17.395	1310.081	998.524
399.292	17.343	1308.637	997.028
400.307	17.307	1308.203	996.399
401.321	17.251	1307.128	995.166
402.336	17.370	1305.879	994.825
403.350	17.290	1304.922	993.541
404.365	17.302	1304.151	992.932
405.380	17.420	1303.062	992.707
406.394	17.440	1302.233	992.102
407.409	17.457	1301.638	991.659
408.423	17.431	1300.946	990.891
409.438	17.498	1300.111	990.559
410.453	17.534	1299.123	989.927
411.467	17.562	1298.606	989.609
412.482	17.640	1298.357	989.785
413.496	17.642	1297.607	989.139
414.511	17.526	1296.959	987.886
415.526	17.682	1295.881	987.876
416.540	17.603	1295.468	987.021
417.555	17.762	1294.440	987.069
418.569	17.701	1293.882	986.205
419.584	17.747	1293.331	985.964
420.599	17.726	1292.926	985.442
421.613	88.910	1344.099	1432.568
422.628	87.503	1351.547	1432.700
