DTS Sentinel unit serial number:	SN413079Multiplexer serial number:	ORYXHardware model number:	OX4-SRSoftware version number:	ORYX F/W v4.00 Oryx Data Collector v3.7.2.0data status	okinstallation	princeton_trtdifferential loss correction	single-endedforward channel	channel 4reverse channel	N/Adate	2019/09/14time	22:09:35forward acquisition time	60.00reverse acquisition time	0.00gamma	496.2192k internal	0.2306k external	0.2306temperature offset calibration	1.0067default loss term (dB/km)	0.3790temperature slope calibration	1.0000multiplexer offset coefficient	1.0000multiplexer slope coefficient	1.0000fibre end	0.00T internal ref (°C)	32.64T ext. ref 1 (°C)	4.69T ext. ref 2 (°C)	27.63length (m)	temperature (°C)	Stokes	anti-Stokes-747.200	800.000	-0.041	0.172
-746.185	229.031	-0.093	0.154
-745.171	-200.000	0.014	0.122
-744.156	-200.000	-0.006	-0.154
-743.142	-200.000	-0.026	0.119
-742.127	51.553	0.165	0.160
-741.112	-91.198	-0.284	-0.083
-740.098	-19.186	-0.273	0.172
-739.083	188.838	0.100	0.152
-738.069	-38.912	0.199	0.106
-737.054	-200.000	0.036	0.479
-736.039	-65.022	-0.147	0.060
-735.025	-29.492	0.163	0.095
-734.010	57.496	-0.090	-0.089
-732.996	-32.154	0.074	0.042
-731.981	97.535	0.122	-0.143
-730.966	397.341	-0.095	0.202
-729.952	800.000	-0.033	-0.109
-728.937	315.610	0.069	-0.132
-727.923	-51.546	-0.149	0.070
-726.908	-200.000	-0.004	0.057
-725.894	27.683	0.102	0.087
-724.879	-104.734	0.214	-0.050
-723.864	-200.000	0.007	-0.209
-722.850	-60.208	-0.177	-0.077
-721.835	-150.476	-0.169	0.013
-720.821	174.071	0.166	-0.244
-719.806	-30.114	0.143	-0.083
-718.791	-29.396	0.146	-0.085
-717.777	-72.687	0.215	0.080
-716.762	800.000	0.051	-0.173
-715.748	-99.469	-0.110	-0.028
-714.733	-142.157	0.351	0.035
-713.718	504.867	-0.066	0.155
-712.704	-200.000	0.011	-0.215
-711.689	-200.000	0.036	-0.185
-710.675	85.083	0.083	-0.092
-709.660	-200.000	-0.007	-0.272
-708.645	-175.573	-0.290	0.008
-707.631	-111.095	0.434	-0.090
-706.616	-200.000	-0.040	-0.477
-705.602	446.798	0.066	-0.149
-704.587	-152.659	0.313	0.023
-703.572	-16.247	0.048	0.031
-702.558	-200.000	-0.023	0.188
-701.543	800.000	-0.024	0.073
-700.529	66.480	-0.051	0.053
-699.514	-37.611	-0.077	0.042
-698.499	-97.185	-0.165	-0.044
-697.485	515.293	-0.120	-0.285
-696.470	-126.191	0.227	0.035
-695.456	21.387	0.390	-0.322
-694.441	8.253	0.147	-0.113
-693.426	-200.000	0.032	0.209
-692.412	54.861	0.113	0.111
-691.397	-200.000	-0.068	-0.333
-690.383	49.504	-0.189	-0.180
-689.368	165.743	0.144	-0.206
-688.354	-73.536	-0.135	-0.050
-687.339	153.956	0.118	0.164
-686.324	-103.330	0.086	0.021
-685.310	-87.145	-0.055	0.017
-684.295	-152.835	-0.190	-0.014
-683.281	107.357	-0.076	-0.092
-682.266	-25.230	-0.362	-0.217
-681.251	800.000	0.080	-0.276
-680.237	7.467	0.038	-0.029
-679.222	25.237	0.338	0.285
-678.208	-29.077	0.267	0.155
-677.193	-200.000	0.020	0.096
-676.178	209.443	-0.031	-0.050
-675.164	54.929	0.152	0.149
-674.149	503.831	-0.068	-0.160
-673.135	-126.064	0.230	-0.035
-672.120	123.840	-0.077	-0.098
-671.105	-90.108	-0.264	0.078
-670.091	44.755	0.118	-0.110
-669.076	90.842	0.161	-0.183
-668.062	-12.965	-0.227	0.150
-667.047	-58.171	-0.232	0.103
-666.032	-110.681	0.314	0.066
-665.018	11.167	0.261	0.203
-664.003	-200.000	-0.024	0.254
-662.989	112.484	-0.073	-0.090
-661.974	-122.588	0.229	-0.038
-660.959	-4.899	0.145	0.101
-659.945	-200.000	0.006	0.452
-658.930	566.735	-0.117	0.287
-657.916	314.778	-0.080	-0.153
-656.901	-79.190	0.374	0.129
-655.886	39.302	-0.312	0.283
-654.872	800.000	-0.065	-0.269
-653.857	-200.000	-0.005	0.057
-652.843	-200.000	-0.071	-0.463
-651.828	648.186	-0.103	0.268
-650.814	715.331	0.080	0.214
-649.799	465.400	-0.109	-0.248
-648.784	-62.430	0.113	0.048
-647.770	459.845	0.136	-0.307
-646.755	-121.033	-0.184	-0.031
-645.741	-200.000	-0.032	-0.269
-644.726	-26.506	-0.335	-0.199
-643.711	49.536	0.264	-0.252
-642.697	-200.000	-0.018	-0.293
-641.682	303.501	0.155	-0.292
-640.668	-176.510	0.083	0.002
-639.653	-37.991	-0.283	-0.152
-638.638	-147.412	-0.529	-0.045
-637.624	54.575	-0.271	0.264
-636.609	-191.820	-0.204	0.002
-635.595	800.000	-0.134	-0.450
-634.580	-46.838	-0.156	-0.077
-633.565	407.890	-0.169	0.361
-632.551	89.104	0.131	0.148
-631.536	-109.713	-0.104	-0.022
-630.522	57.342	-0.092	-0.091
-629.507	-200.000	0.012	0.201
-628.492	-5.468	0.248	0.173
-627.478	69.142	0.216	-0.225
-626.463	95.001	-0.045	-0.051
-625.449	70.845	0.055	-0.057
-624.434	-105.313	0.118	-0.027
-623.419	-146.807	-0.131	-0.011
-622.405	287.211	0.222	-0.406
-621.390	549.935	-0.042	0.102
-620.376	800.000	0.059	0.240
-619.361	-72.982	-0.275	0.102
-618.346	-200.000	0.036	0.309
-617.332	-200.000	0.002	0.248
-616.317	-99.271	-0.409	0.105
-615.303	131.173	0.199	0.259
-614.288	800.000	-0.099	0.372
-613.273	-62.507	-0.202	0.085
-612.259	-200.000	-0.004	0.249
-611.244	6.708	0.176	0.132
-610.230	415.057	0.048	0.103
-609.215	165.920	-0.301	-0.431
-608.201	800.000	0.075	0.266
-607.186	-200.000	-0.044	-0.000
-606.171	313.206	0.102	0.194
-605.157	28.691	0.148	-0.127
-604.142	800.000	0.026	0.084
-603.128	-81.545	-0.029	-0.010
-602.113	56.896	0.349	0.344
-601.098	37.396	-0.123	-0.110
-600.084	-1.693	0.221	0.157
-599.069	75.141	0.113	0.121
-598.055	-16.790	-0.173	0.111
-597.040	-123.930	0.336	-0.054
-596.025	44.035	0.079	0.073
-595.011	-8.658	0.077	-0.052
-593.996	-200.000	-0.012	-0.077
-592.982	-137.216	0.373	0.043
-591.967	-200.000	-0.050	0.247
-590.952	-158.863	0.329	0.019
-589.938	-200.000	-0.012	0.095
-588.923	30.309	-0.067	-0.058
-587.909	-200.000	-0.005	0.179
-586.894	-63.879	-0.257	0.106
-585.879	-200.000	-0.004	0.039
-584.865	-54.699	0.251	-0.115
-583.850	-26.374	0.049	0.029
-582.836	43.126	0.287	0.265
-581.821	132.509	0.140	-0.182
-580.806	-59.468	-0.400	-0.174
-579.792	30.343	0.136	0.117
-578.777	50.486	-0.107	0.102
-577.763	-57.841	-0.105	0.046
-576.748	183.633	0.141	0.210
-575.733	160.709	0.207	0.292
-574.719	-200.000	-0.038	-0.215
-573.704	-5.537	0.161	-0.112
-572.690	-163.440	0.037	0.002
-571.675	-112.720	-0.259	-0.052
-570.661	37.894	0.332	0.298
-569.646	77.428	-0.331	0.356
-568.631	212.175	-0.243	0.388
-567.617	317.181	-0.133	0.254
-566.602	-55.660	0.144	-0.065
-565.588	-97.973	0.224	-0.058
-564.573	111.412	0.212	0.258
-563.558	800.000	-0.102	-0.357
-562.544	16.599	-0.142	0.113
-561.529	58.703	0.119	-0.118
-560.515	19.982	0.155	0.126
-559.500	800.000	0.021	-0.070
-558.485	800.000	-0.016	0.052
-557.471	-200.000	-0.019	-0.212
-556.456	17.489	-0.152	0.122
-555.442	-33.174	0.260	0.145
-554.427	-118.196	0.097	0.017
-553.412	-83.801	0.404	-0.130
-552.398	99.338	0.068	-0.079
-551.383	-200.000	0.065	-0.509
-550.369	-77.342	0.082	-0.029
-549.354	15.321	0.291	-0.230
-548.339	-138.340	0.225	-0.025
-547.325	800.000	0.054	0.175
-546.310	116.162	-0.175	-0.217
-545.296	247.292	-0.051	-0.087
-544.281	-117.562	0.273	-0.050
-543.266	-149.628	-0.118	-0.009
-542.252	-61.146	-0.083	0.035
-541.237	-55.934	0.161	-0.073
-540.223	84.183	0.220	-0.243
-539.208	800.000	0.034	0.108
-538.193	-172.506	-0.195	-0.006
-537.179	402.249	0.169	-0.359
-536.164	286.722	0.154	0.280
-535.150	-156.465	0.357	0.022
-534.135	489.394	-0.174	0.401
-533.121	122.078	-0.154	-0.194
-532.106	186.671	0.066	0.099
-531.091	-34.832	-0.130	-0.071
-530.077	22.730	0.244	0.202
-529.062	508.525	0.049	-0.114
-528.048	-200.000	0.055	0.407
-527.033	-138.773	-0.332	0.037
-526.018	532.399	0.091	0.216
-525.004	675.066	-0.033	-0.085
-523.989	88.993	-0.189	-0.212
-522.975	800.000	-0.029	-0.125
-521.960	41.316	-0.119	-0.109
-520.945	800.000	-0.034	-0.136
-519.931	370.289	-0.172	0.352
-518.916	800.000	0.068	-0.210
-517.902	-200.000	0.011	-0.062
-516.887	-77.711	-0.415	0.145
-515.872	-147.428	0.382	0.033
-514.858	-200.000	0.024	-0.155
-513.843	800.000	0.102	-0.373
-512.829	-200.000	0.000	-0.084
-511.814	77.510	-0.240	0.258
-510.799	111.558	0.025	-0.031
-509.785	-86.008	0.147	-0.046
-508.770	78.552	-0.120	0.129
-507.756	-91.031	0.319	0.092
-506.741	146.540	0.095	-0.129
-505.726	-52.985	-0.097	-0.045
-504.712	-137.985	0.164	0.018
-503.697	526.935	-0.086	-0.203
-502.683	222.845	-0.074	0.120
-501.668	632.588	0.035	0.089
-500.653	490.488	0.159	0.368
-499.639	-113.595	-0.032	0.006
-498.624	-200.000	0.004	-0.080
-497.610	800.000	0.028	-0.115
-496.595	205.275	0.128	-0.200
-495.581	-53.088	-0.262	0.121
-494.566	-12.776	0.150	0.099
-493.551	800.000	-0.118	0.411
-492.537	730.860	0.057	-0.153
-491.522	99.840	0.172	0.201
-490.508	52.533	-0.146	0.140
-489.493	-200.000	-0.001	0.233
-488.478	-200.000	-0.060	-0.282
-487.464	-99.185	-0.013	-0.003
-486.449	354.527	0.099	-0.198
-485.435	-100.383	0.166	0.041
-484.420	-200.000	0.014	-0.218
-483.405	800.000	-0.138	0.464
-482.391	800.000	-0.035	-0.105
-481.376	-200.000	0.019	0.274
-480.362	-99.997	-0.327	0.082
-479.347	107.728	0.092	-0.110
-478.332	-74.855	0.073	-0.026
-477.318	15.839	-0.153	-0.121
-476.303	800.000	-0.108	0.311
-475.289	-158.541	0.074	-0.004
-474.274	-37.067	0.045	-0.025
-473.259	352.629	0.044	-0.088
-472.245	-200.000	-0.016	0.284
-471.230	162.586	-0.099	-0.139
-470.216	-156.266	0.341	-0.022
-469.201	-200.000	-0.007	-0.066
-468.186	800.000	0.078	0.303
-467.172	-98.228	-0.429	0.111
-466.157	-40.514	0.248	-0.130
-465.143	246.853	-0.085	0.145
-464.128	-136.127	0.136	-0.016
-463.113	-130.660	0.228	-0.031
-462.099	-200.000	0.019	0.108
-461.084	216.285	0.144	0.230
-460.070	800.000	0.018	-0.068
-459.055	-1.008	-0.207	0.147
-458.040	-37.783	-0.345	-0.185
-457.026	403.978	-0.017	-0.036
-456.011	121.925	-0.178	-0.224
-454.997	169.172	-0.096	0.137
-453.982	800.000	0.127	0.373
-452.968	-93.985	-0.182	0.050
-451.953	-112.950	-0.356	0.071
-450.938	-101.905	0.427	0.104
-449.924	387.876	0.201	0.418
-448.909	800.000	0.168	-0.467
-447.895	-146.597	-0.274	-0.024
-446.880	254.330	0.103	-0.177
-445.865	318.622	-0.032	-0.060
-444.851	0.696	0.146	-0.105
-443.836	182.871	0.076	0.113
-442.822	189.704	0.039	0.059
-441.807	39.133	0.084	-0.076
-440.792	-147.110	-0.036	-0.003
-439.778	-88.195	0.173	0.052
-438.763	-113.030	0.203	-0.040
-437.749	-26.999	0.141	0.083
-436.734	354.624	-0.031	-0.062
-435.719	-200.000	-0.024	0.248
-434.705	-13.953	0.310	0.201
-433.690	-65.215	-0.215	0.087
-432.676	67.480	-0.076	-0.078
-431.661	-152.020	0.217	-0.016
-430.646	196.117	0.127	0.194
-429.632	-82.911	-0.084	-0.027
-428.617	800.000	0.025	-0.087
-427.603	44.652	0.065	-0.060
-426.588	702.287	0.070	0.185
-425.573	44.887	0.054	-0.050
-424.559	-200.000	-0.014	-0.176
-423.544	-156.413	0.093	-0.006
-422.530	47.753	-0.135	-0.126
-421.515	800.000	-0.070	-0.306
-420.500	-135.357	-0.140	-0.017
-419.486	17.289	0.107	0.086
-418.471	-200.000	0.082	-0.377
-417.457	-72.538	-0.197	-0.073
-416.442	130.990	-0.121	-0.156
-415.428	-125.751	0.293	-0.045
-414.413	-176.779	0.407	-0.010
-413.398	280.659	0.109	0.195
-412.384	20.852	-0.249	0.202
-411.369	67.801	-0.162	-0.167
-410.355	136.568	-0.135	-0.177
-409.340	-200.000	0.025	0.226
-408.325	-200.000	-0.025	-0.220
-407.311	-72.302	-0.296	-0.110
-406.296	-15.988	-0.211	-0.135
-405.282	232.693	-0.092	0.152
-404.267	-13.789	0.186	0.121
-403.252	513.365	-0.126	-0.294
-402.238	440.383	-0.094	0.207
-401.223	216.612	-0.160	-0.255
-400.209	109.534	0.074	0.089
-399.194	-106.225	-0.138	-0.031
-398.179	-10.987	-0.081	0.054
-397.165	-200.000	0.054	-0.314
-396.150	294.147	0.090	-0.165
-395.136	-56.896	-0.045	-0.020
-394.121	-20.250	-0.251	-0.155
-393.106	-24.571	-0.199	0.119
-392.092	-40.288	-0.230	0.120
-391.077	-189.237	0.079	-0.001
-390.063	-27.455	-0.354	0.206
-389.048	-70.788	0.129	-0.049
-388.033	354.258	0.119	0.236
-387.019	-90.411	-0.097	-0.028
-386.004	-70.314	0.435	-0.165
-384.990	248.769	-0.022	-0.038
-383.975	63.209	-0.232	0.233
-382.960	-200.000	0.012	-0.312
-381.946	-122.340	-0.225	0.037
-380.931	5.097	-0.378	-0.279
-379.917	800.000	0.125	0.435
-378.902	800.000	-0.029	-0.084
-377.888	-90.039	-0.174	0.051
-376.873	800.000	-0.045	0.196
-375.858	305.601	-0.045	-0.084
-374.844	-12.664	0.086	-0.056
-373.829	-31.659	-0.193	-0.109
-372.815	-200.000	0.013	0.166
-371.800	56.335	0.146	0.142
-370.785	-97.757	-0.135	0.035
-369.771	-200.000	-0.015	-0.071
-368.756	14.341	0.220	-0.172
-367.742	-200.000	-0.039	-0.184
-366.727	0.076	0.162	0.116
-365.712	-200.000	-0.028	-0.142
-364.698	-139.302	-0.159	0.017
-363.683	227.204	-0.095	0.154
-362.669	-136.796	0.114	0.013
-361.654	-200.000	-0.007	0.031
-360.639	800.000	0.099	0.299
-359.625	171.914	-0.234	0.336
-358.610	-3.054	-0.275	-0.192
-357.596	800.000	0.084	-0.290
-356.581	-200.000	0.041	-0.181
-355.566	-200.000	0.021	0.110
-354.552	702.497	0.133	-0.350
-353.537	779.423	0.095	-0.261
-352.523	-39.156	-0.104	-0.055
-351.508	-200.000	-0.027	-0.166
-350.493	-45.616	-0.341	-0.169
-349.479	43.274	0.157	0.144
-348.464	-71.436	-0.165	0.062
-347.450	200.872	0.098	-0.151
-346.435	-142.306	0.134	0.013
-345.420	800.000	-0.016	-0.067
-344.406	-34.407	0.047	-0.026
-343.391	-200.000	-0.052	-0.268
-342.377	17.518	0.158	0.126
-341.362	-78.187	0.323	-0.111
-340.348	157.286	0.053	-0.073
-339.333	-89.263	0.097	0.029
-338.318	800.000	0.018	-0.052
-337.304	365.992	-0.157	0.317
-336.289	800.000	-0.063	-0.197
-335.275	-134.026	-0.319	-0.040
-334.260	567.567	0.095	0.232
-333.245	403.999	-0.074	-0.155
-332.231	-114.013	0.392	-0.076
-331.216	-163.599	-0.228	0.011
-330.202	-200.000	0.006	0.040
-329.187	-200.000	-0.005	0.199
-328.172	-200.000	-0.011	-0.102
-327.158	-200.000	0.072	-0.379
-326.143	284.203	0.142	-0.255
-325.129	800.000	-0.065	0.206
-324.114	543.754	0.050	0.121
-323.099	-151.045	-0.110	0.008
-322.085	800.000	-0.052	0.149
-321.070	132.935	0.110	0.142
-320.056	-132.830	-0.043	-0.006
-319.041	-70.120	-0.317	-0.121
-318.026	800.000	-0.050	-0.188
-317.012	-97.801	-0.267	-0.069
-315.997	800.000	-0.064	-0.258
-314.983	130.395	0.085	0.109
-313.968	-9.953	-0.192	-0.128
-312.953	42.278	0.272	-0.247
-311.939	431.209	-0.018	0.039
-310.924	-138.968	-0.101	-0.011
-309.910	-106.734	-0.190	0.042
-308.895	-82.026	0.147	-0.048
-307.880	-200.000	-0.016	-0.284
-306.866	552.721	0.055	0.132
-305.851	-160.036	-0.516	0.028
-304.837	-118.076	0.311	-0.056
-303.822	-33.776	0.215	0.119
-302.807	-200.000	0.046	-0.502
-301.793	17.125	0.160	0.127
-300.778	99.741	0.113	0.131
-299.764	225.028	0.065	0.105
-298.749	749.003	0.118	0.317
-297.735	51.107	-0.231	-0.219
-296.720	63.858	-0.164	0.165
-295.705	85.616	-0.243	-0.266
-294.691	-200.000	-0.014	0.147
-293.676	71.355	0.096	0.099
-292.662	-57.841	0.135	0.059
-291.647	-30.497	0.296	0.168
-290.632	199.543	0.074	-0.113
-289.618	61.797	0.187	0.186
-288.603	-14.630	-0.048	0.031
-287.589	228.912	-0.206	0.335
-286.574	80.796	0.147	0.158
-285.559	597.254	0.042	0.105
-284.545	-200.000	-0.031	-0.243
-283.530	411.438	0.086	-0.182
-282.516	10.207	-0.145	-0.110
-281.501	447.251	-0.142	-0.312
-280.486	99.394	0.284	0.328
-279.472	-200.000	-0.041	0.623
-278.457	343.150	0.124	0.243
-277.443	-37.666	-0.324	0.172
-276.428	-200.000	-0.003	0.075
-275.413	-200.000	-0.019	0.242
-274.399	-99.948	-0.190	0.047
-273.384	-200.000	-0.040	-0.403
-272.370	800.000	-0.029	0.117
-271.355	45.150	-0.292	-0.269
-270.340	-144.933	0.163	-0.015
-269.326	-40.336	0.274	-0.142
-268.311	-56.155	0.069	0.031
-267.297	-176.529	0.038	0.001
-266.282	-183.563	0.223	0.004
-265.267	800.000	0.066	-0.202
-264.253	-95.657	-0.250	0.067
-263.238	-156.865	-0.350	0.021
-262.224	200.546	0.013	0.020
-261.209	-200.000	0.051	0.414
-260.195	-13.975	-0.173	-0.112
-259.180	800.000	-0.042	0.180
-258.165	59.525	-0.192	-0.189
-257.151	409.250	0.010	0.020
-256.136	360.454	0.025	-0.050
-255.122	30.583	-0.275	-0.235
-254.107	-24.567	-0.118	-0.070
-253.092	-6.676	0.184	0.125
-252.078	197.752	0.208	0.317
-251.063	515.337	0.042	-0.097
-250.049	-56.891	-0.221	-0.097
-249.034	-97.076	-0.168	-0.044
-248.019	-200.000	0.008	-0.108
-247.005	190.684	0.146	0.218
-245.990	-200.000	-0.029	-0.135
-244.976	-13.722	0.111	-0.071
-243.961	87.004	-0.060	0.066
-242.946	-157.024	-0.213	0.013
-241.932	-129.783	0.079	0.011
-240.917	-47.725	-0.180	-0.087
-239.903	-13.452	-0.262	-0.169
-238.888	5.595	0.077	0.056
-237.873	-200.000	-0.003	-0.178
-236.859	305.887	-0.144	-0.267
-235.844	69.318	-0.042	-0.043
-234.830	473.138	-0.081	0.182
-233.815	-158.805	-0.296	0.017
-232.800	-200.000	-0.021	-0.266
-231.786	800.000	-0.058	0.199
-230.771	-44.925	-0.238	-0.118
-229.757	47.047	0.066	-0.061
-228.742	-200.000	0.005	-0.142
-227.727	-89.785	-0.268	-0.078
-226.713	-113.686	0.445	-0.086
-225.698	678.647	0.196	-0.508
-224.684	170.724	0.162	-0.231
-223.669	-95.629	0.113	-0.030
-222.655	42.477	0.341	0.309
-221.640	413.490	-0.101	-0.214
-220.625	-97.218	0.380	0.099
-219.611	44.247	0.123	-0.113
-218.596	451.455	0.119	0.261
-217.582	-100.793	-0.177	0.043
-216.567	-200.000	-0.006	-0.044
-215.552	-94.056	0.301	-0.082
-214.538	14.368	0.237	0.184
-213.523	39.329	-0.166	0.148
-212.509	2.659	0.090	-0.065
-211.494	-8.939	0.068	-0.045
-210.479	123.118	-0.108	-0.135
-209.465	-72.305	0.315	-0.116
-208.450	-15.044	0.147	0.094
-207.436	263.110	-0.099	0.171
-206.421	356.406	0.101	0.200
-205.406	195.462	0.166	-0.252
-204.392	-82.291	-0.363	-0.118
-203.377	238.064	0.149	-0.246
-202.363	444.467	-0.062	0.135
-201.348	-200.000	0.004	-0.042
-200.333	-200.000	0.051	0.343
-199.319	132.394	0.010	-0.013
-198.304	13.362	-0.226	-0.175
-197.290	533.499	0.048	0.113
-196.275	-81.704	-0.113	0.037
-195.260	0.729	-0.048	0.035
-194.246	10.887	0.134	-0.102
-193.231	361.117	-0.101	-0.202
-192.217	-200.000	0.025	0.278
-191.202	800.000	0.103	0.297
-190.187	-34.988	0.187	0.102
-189.173	-200.000	-0.020	0.170
-188.158	39.042	0.065	0.057
-187.144	-44.735	-0.238	-0.118
-186.129	-29.599	0.213	-0.121
-185.114	4.270	-0.254	-0.185
-184.100	-136.598	0.021	-0.002
-183.085	444.588	-0.028	0.062
-182.071	154.358	0.032	0.044
-181.056	349.290	-0.077	-0.152
-180.042	-200.000	-0.007	0.221
-179.027	-3.787	-0.116	0.080
-178.012	800.000	0.014	0.045
-176.998	-94.856	0.354	-0.095
-175.983	-115.846	-0.162	0.030
-174.969	-7.987	-0.211	0.141
-173.954	-113.852	0.091	-0.018
-172.939	800.000	0.061	0.234
-171.925	20.146	0.021	-0.016
-170.910	123.313	-0.116	-0.145
-169.896	-87.158	0.329	0.099
-168.881	179.881	-0.010	0.014
-167.866	619.152	0.068	0.171
-166.852	27.625	0.264	-0.221
-165.837	-200.000	0.021	-0.103
-164.823	-200.000	-0.032	-0.203
-163.808	38.127	0.329	-0.291
-162.793	60.503	-0.248	-0.244
-161.779	-53.689	-0.368	0.167
-160.764	383.007	-0.160	-0.326
-159.750	-200.000	0.011	-0.168
-158.735	-18.483	-0.056	-0.035
-157.720	48.684	-0.093	0.087
-156.706	169.442	0.114	-0.161
-155.691	800.000	-0.037	0.122
-154.677	-200.000	-0.015	0.120
-153.662	615.922	-0.131	0.326
-152.647	-11.632	-0.061	0.040
-151.633	363.813	-0.202	-0.403
-150.618	-200.000	0.007	-0.116
-149.604	-166.240	0.239	0.010
-148.589	-115.873	-0.143	-0.027
-147.574	58.433	-0.199	0.194
-146.560	-89.626	0.287	-0.084
-145.545	-94.712	0.130	-0.035
-144.531	-78.095	0.082	0.028
-143.516	62.253	-0.035	-0.035
-142.502	-104.194	-0.449	0.104
-141.487	765.140	-0.022	0.059
-140.472	-155.623	-0.035	-0.002
-139.458	800.000	0.034	0.140
-138.443	19.470	0.111	0.088
-137.429	-37.596	-0.363	-0.192
-136.414	-115.616	-0.040	0.008
-135.399	-200.000	0.060	0.306
-134.385	104.848	-0.114	-0.133
-133.370	136.327	-0.046	0.059
-132.356	-200.000	0.019	0.497
-131.341	-148.294	0.123	0.010
-130.326	-111.627	0.023	0.005
-129.312	476.466	0.158	0.354
-128.297	-200.000	-0.016	0.105
-127.283	656.508	0.022	-0.056
-126.268	424.162	0.125	-0.268
-125.253	800.000	0.046	0.188
-124.239	156.765	0.152	0.208
-123.224	-134.314	0.356	-0.043
-122.210	-11.958	0.170	0.111
-121.195	652.502	0.073	-0.186
-120.180	-200.000	0.047	-0.463
-119.166	-165.593	-0.514	0.022
-118.151	-200.000	0.007	-0.235
-117.137	-113.628	-0.399	-0.077
-116.122	-23.957	0.086	0.051
-115.107	-129.531	-0.348	0.048
-114.093	-152.277	0.099	-0.007
-113.078	-18.293	0.320	-0.199
-112.064	10.049	-0.020	-0.015
-111.049	45.316	0.102	-0.094
-110.034	-104.766	0.133	-0.030
-109.020	-91.648	0.120	0.034
-108.005	800.000	-0.061	-0.219
-106.991	20.232	0.052	-0.041
-105.976	2.319	0.107	-0.076
-104.962	-99.667	-0.150	0.037
-103.947	-168.023	-0.103	0.004
-102.932	120.441	0.048	-0.059
-101.918	-153.174	-0.164	-0.011
-100.903	165.962	-0.152	-0.214
-99.889	-30.287	0.138	0.077
-98.874	65.162	-0.257	0.257
-97.859	-0.255	-0.203	-0.143
-96.845	106.933	-0.053	-0.062
-95.830	-200.000	-0.107	0.481
-94.816	-176.254	0.213	-0.006
-93.801	-146.181	-0.464	-0.040
-92.786	-200.000	0.011	-0.234
-91.772	106.154	-0.108	0.127
-90.757	-200.000	0.005	0.217
-89.743	-57.706	-0.127	-0.055
-88.728	-163.903	-0.188	0.009
-87.713	-44.058	0.273	0.136
-86.699	-60.192	0.043	0.018
-85.684	-124.347	0.078	-0.012
-84.670	405.501	-0.083	0.174
-83.655	389.692	-0.088	-0.182
-82.640	-200.000	-0.007	0.064
-81.626	800.000	0.047	0.194
-80.611	800.000	-0.059	-0.179
-79.597	137.026	0.047	0.061
-78.582	441.655	-0.115	0.249
-77.567	800.000	-0.013	-0.045
-76.553	22.104	0.237	-0.191
-75.538	-29.770	0.235	0.133
-74.524	-110.789	0.148	0.030
-73.509	-104.367	0.213	-0.049
-72.494	164.384	0.110	0.154
-71.480	800.000	-0.048	0.185
-70.465	466.396	0.020	-0.045
-69.451	-200.000	0.038	0.186
-68.436	99.659	-0.180	0.206
-67.422	-37.144	-0.124	-0.066
-66.407	102.050	-0.118	0.136
-65.392	-23.642	0.224	0.133
-64.378	-74.483	-0.166	-0.059
-63.363	-126.142	-0.152	-0.023
-62.349	-200.000	0.028	0.282
-61.334	101.026	-0.748	-0.862
-60.319	91.729	0.591	0.658
-59.305	220.636	-0.491	-0.781
-58.290	199.973	0.642	0.977
-57.276	613.553	0.634	1.572
-56.261	-200.000	94.737	575.585
-55.246	645.986	1371.430	3467.849
-54.232	196.010	2551.731	3844.381
-53.217	110.307	2299.891	2735.384
-52.203	39.279	2061.930	1827.261
-51.188	34.422	1977.361	1708.841
-50.173	32.834	1959.388	1679.125
-49.159	47.678	2007.905	1854.712
-48.144	49.026	2025.735	1883.255
-47.130	34.966	1988.549	1723.140
-46.115	32.675	1977.468	1692.924
-45.100	32.596	1974.725	1689.803
-44.086	32.442	1973.211	1687.061
-43.071	32.464	1970.261	1684.663
-42.057	32.384	1968.111	1682.041
-41.042	32.517	1965.845	1681.233
-40.027	32.515	1964.143	1679.684
-39.013	32.520	1961.704	1677.577
-37.998	32.534	1960.079	1676.251
-36.984	32.539	1958.653	1675.008
-35.969	32.594	1956.558	1673.639
-34.954	32.617	1954.820	1672.293
-33.940	32.590	1953.396	1670.760
-32.925	32.645	1951.862	1669.877
-31.911	32.679	1950.310	1668.784
-30.896	32.671	1948.666	1667.241
-29.881	32.679	1947.186	1665.976
-28.867	32.691	1945.434	1664.513
-27.852	32.672	1943.700	1662.801
-26.838	32.745	1941.287	1661.310
-25.823	32.693	1939.770	1659.487
-24.809	32.718	1938.147	1658.255
-23.794	32.627	1936.762	1656.205
-22.779	32.636	1934.625	1654.390
-21.765	32.637	1932.588	1652.589
-20.750	32.648	1931.165	1651.408
-19.736	32.671	1929.916	1650.473
-18.721	32.623	1928.579	1648.849
-17.706	32.627	1926.750	1647.254
-16.692	32.682	1924.583	1645.814
-15.677	32.604	1923.622	1644.246
-14.663	32.694	1921.811	1643.417
-13.648	32.619	1920.650	1641.706
-12.633	32.680	1919.064	1640.811
-11.619	32.613	1918.261	1639.483
-10.604	32.694	1916.428	1638.552
-9.590	32.668	1915.107	1637.129
-8.575	32.749	1913.604	1636.488
-7.560	32.615	1912.633	1634.425
-6.546	32.701	1911.137	1633.829
-5.531	32.654	1910.313	1632.651
-4.517	32.626	1909.046	1631.262
-3.502	32.644	1907.969	1630.431
-2.487	32.654	1906.445	1629.158
-1.473	32.663	1905.884	1628.691
-0.458	32.896	1900.039	1625.633
0.556	32.441	1881.933	1598.039
1.571	28.309	1862.820	1546.852
2.586	24.369	1884.609	1531.069
3.600	23.428	1920.010	1551.459
4.615	22.743	1915.499	1541.693
5.629	17.585	1815.344	1418.130
6.644	9.016	1697.304	1258.833
7.659	5.013	1661.384	1201.291
8.673	4.753	1658.314	1196.964
9.688	4.610	1656.960	1194.785
10.702	4.768	1655.136	1194.574
11.717	4.639	1652.328	1191.452
12.731	5.157	1651.325	1194.590
13.746	10.794	1664.370	1247.299
14.761	18.035	1680.045	1314.850
15.775	20.053	1682.369	1332.087
16.790	19.157	1679.224	1322.601
17.804	17.942	1675.854	1310.508
18.819	17.017	1672.082	1300.358
19.834	16.437	1670.103	1294.264
20.848	16.103	1668.667	1290.481
21.863	15.859	1666.920	1287.152
22.877	15.613	1665.488	1284.048
23.892	15.501	1664.121	1282.029
24.907	15.358	1663.032	1279.983
25.921	15.352	1662.303	1279.267
26.936	15.310	1661.699	1278.369
27.950	15.412	1660.094	1277.793
28.965	15.433	1659.533	1277.410
29.980	15.384	1658.988	1276.505
30.994	15.555	1658.426	1277.259
32.009	15.662	1656.521	1276.490
33.023	15.619	1656.083	1275.718
34.038	15.704	1654.881	1275.321
35.053	15.769	1653.439	1274.593
36.067	15.626	1652.376	1272.577
37.082	15.537	1651.691	1271.261
38.096	15.606	1650.537	1270.779
39.111	15.627	1649.379	1269.934
40.126	15.613	1649.154	1269.545
41.140	15.639	1648.012	1268.746
42.155	15.428	1646.404	1265.807
43.169	15.335	1644.837	1263.792
44.184	15.318	1643.818	1262.767
45.199	15.237	1642.939	1261.368
46.213	15.228	1641.743	1260.277
47.228	15.218	1640.608	1259.219
48.242	15.426	1639.223	1259.601
49.257	15.472	1638.736	1259.464
50.271	15.491	1637.222	1258.328
51.286	15.446	1635.974	1256.924
52.301	15.473	1634.785	1256.101
53.315	15.509	1633.325	1255.137
54.330	15.502	1631.637	1253.672
55.344	15.437	1630.085	1251.885
56.359	15.396	1628.160	1249.990
57.374	15.384	1628.019	1249.688
58.388	15.276	1627.016	1247.999
59.403	15.236	1625.507	1246.437
60.417	15.237	1623.943	1245.133
61.432	15.216	1623.017	1244.153
62.447	15.292	1621.856	1243.718
63.461	15.153	1620.808	1241.774
64.476	15.114	1619.805	1240.608
65.490	15.135	1618.757	1239.848
66.505	15.167	1617.480	1239.000
67.520	15.195	1616.300	1238.195
68.534	15.220	1615.417	1237.592
69.549	15.204	1614.088	1236.348
70.563	15.247	1612.903	1235.649
71.578	15.152	1611.891	1234.060
72.593	15.214	1610.508	1233.348
73.607	15.005	1610.140	1231.425
74.622	14.990	1608.580	1230.010
75.636	15.034	1607.881	1229.687
76.651	15.026	1607.222	1229.020
77.666	15.110	1606.526	1228.997
78.680	15.118	1604.848	1227.659
79.695	15.069	1604.361	1226.816
80.709	15.099	1603.622	1226.363
81.724	15.137	1602.405	1225.607
82.739	15.215	1602.458	1226.104
83.753	15.256	1601.257	1225.379
84.768	15.325	1600.388	1225.111
85.782	15.410	1600.075	1225.381
86.797	15.526	1598.692	1225.058
87.812	15.536	1597.763	1224.312
88.826	15.496	1596.413	1222.881
89.841	15.439	1595.384	1221.569
90.855	15.493	1594.309	1221.032
91.870	15.461	1593.585	1220.136
92.884	15.469	1592.238	1219.055
93.899	15.510	1591.736	1218.861
94.914	15.558	1590.588	1218.220
95.928	15.662	1588.882	1217.558
96.943	15.735	1587.754	1217.119
97.957	15.498	1586.756	1214.527
98.972	15.565	1584.774	1213.387
99.987	15.579	1583.526	1212.425
101.001	15.590	1581.807	1211.081
102.016	15.453	1580.707	1209.147
103.030	15.636	1579.024	1209.072
104.045	15.566	1578.129	1207.770
105.060	15.547	1576.785	1206.498
106.074	15.519	1575.398	1205.130
107.089	15.395	1573.909	1202.994
108.103	15.331	1572.166	1201.097
109.118	15.230	1570.778	1199.211
110.133	15.114	1569.572	1197.358
111.147	15.201	1567.664	1196.414
112.162	15.242	1566.886	1196.008
113.176	15.235	1565.296	1194.641
114.191	15.288	1564.237	1194.102
115.206	15.260	1562.901	1192.780
116.220	15.324	1561.279	1191.891
117.235	15.361	1559.919	1191.006
118.249	15.262	1559.029	1189.519
119.264	15.236	1557.778	1188.273
120.279	15.182	1556.422	1186.754
121.293	15.229	1554.629	1185.614
122.308	15.206	1553.351	1184.374
123.322	15.206	1551.717	1183.025
124.337	15.226	1550.076	1181.804
125.352	15.187	1548.770	1180.429
126.366	15.206	1547.914	1179.808
127.381	15.182	1546.297	1178.304
128.395	15.255	1545.744	1178.294
129.410	15.158	1544.190	1176.319
130.424	15.268	1542.439	1175.656
131.439	15.236	1541.565	1174.662
132.454	15.265	1540.541	1173.978
133.468	15.364	1539.050	1173.432
134.483	15.291	1537.401	1171.560
135.497	15.371	1536.010	1170.957
136.512	15.393	1534.740	1170.040
137.527	15.403	1533.640	1169.165
138.541	15.466	1532.426	1168.571
139.556	15.496	1531.049	1167.632
140.570	15.500	1529.639	1166.481
141.585	15.465	1529.097	1165.719
142.600	15.588	1527.460	1165.219
143.614	15.630	1525.800	1164.140
144.629	15.655	1525.056	1163.642
145.643	15.614	1524.189	1162.599
146.658	15.626	1522.537	1161.316
147.673	15.718	1520.886	1160.592
148.687	15.595	1519.396	1158.505
149.702	15.555	1518.172	1157.189
150.716	15.480	1516.173	1155.048
151.731	15.464	1515.292	1154.168
152.746	15.440	1513.608	1152.617
153.760	15.411	1512.243	1151.273
154.775	15.497	1510.909	1150.745
155.789	15.546	1510.160	1150.411
156.804	15.601	1508.953	1149.769
157.819	15.595	1507.732	1148.693
158.833	15.647	1506.214	1147.792
159.848	15.710	1504.990	1147.185
160.862	15.850	1503.538	1146.931
161.877	15.775	1503.193	1146.058
162.892	15.776	1501.467	1144.646
163.906	15.583	1500.635	1142.596
164.921	15.547	1499.227	1141.181
165.935	15.515	1498.189	1140.072
166.950	15.589	1496.866	1139.463
167.964	15.646	1495.487	1138.700
168.979	15.599	1495.100	1137.987
169.994	15.628	1493.932	1137.194
171.008	15.602	1492.679	1135.960
172.023	15.617	1491.665	1135.192
173.037	15.620	1490.898	1134.526
174.052	15.662	1489.936	1133.977
175.067	15.765	1488.587	1133.548
176.081	15.744	1487.605	1132.560
177.096	15.664	1485.981	1130.685
178.110	15.658	1484.786	1129.636
179.125	15.626	1484.041	1128.751
180.140	15.627	1483.013	1127.877
181.154	15.716	1481.974	1127.583
182.169	15.777	1480.697	1126.918
183.183	15.853	1479.276	1126.248
184.198	15.927	1478.575	1126.109
185.213	15.974	1477.638	1125.607
186.227	15.893	1476.589	1124.169
187.242	15.916	1475.222	1123.185
188.256	15.973	1474.258	1122.734
189.271	15.922	1473.741	1121.896
190.286	16.098	1472.108	1121.723
191.300	15.955	1471.157	1119.951
192.315	15.823	1469.896	1118.015
193.329	15.660	1468.268	1115.599
194.344	15.632	1466.908	1114.282
195.359	15.690	1466.585	1114.320
196.373	15.774	1465.090	1113.640
197.388	15.868	1464.803	1113.948
198.402	15.981	1463.184	1113.361
199.417	16.117	1462.395	1113.562
200.432	16.152	1461.593	1113.088
201.446	16.153	1461.100	1112.614
202.461	16.284	1460.226	1112.717
203.475	16.256	1458.917	1111.433
204.490	16.378	1457.585	1111.128
205.504	16.278	1456.713	1109.705
206.519	16.228	1455.256	1108.167
207.534	16.061	1454.204	1106.174
208.548	16.058	1453.431	1105.471
209.563	16.151	1452.227	1105.064
210.577	16.124	1451.312	1104.095
211.592	16.170	1450.314	1103.540
212.607	16.191	1449.466	1102.930
213.621	16.257	1449.235	1103.091
214.636	16.327	1448.188	1102.649
215.650	16.328	1447.344	1101.920
216.665	16.228	1445.905	1100.077
217.680	16.316	1445.392	1100.161
218.694	16.310	1445.022	1099.744
219.709	16.434	1443.826	1099.543
220.723	16.409	1442.610	1098.354
221.738	16.534	1441.453	1098.190
222.753	16.513	1440.602	1097.308
223.767	16.472	1439.623	1096.199
224.782	16.365	1439.053	1094.972
225.796	16.529	1437.721	1094.923
226.811	16.535	1437.250	1094.506
227.826	16.537	1436.774	1094.060
228.840	16.543	1435.678	1093.170
229.855	16.524	1434.102	1091.750
230.869	16.413	1433.645	1090.589
231.884	16.489	1432.796	1090.336
232.899	16.447	1431.806	1089.214
233.913	16.454	1429.967	1087.766
234.928	16.406	1428.536	1086.275
235.942	16.329	1427.853	1085.161
236.957	16.262	1426.802	1083.839
237.972	16.260	1425.390	1082.654
238.986	16.318	1423.997	1081.875
240.001	16.291	1423.884	1081.519
241.015	16.446	1422.184	1081.121
242.030	16.425	1421.416	1080.311
243.045	16.556	1420.029	1079.995
244.059	16.553	1419.347	1079.362
245.074	16.532	1418.996	1078.869
246.088	16.526	1417.947	1077.938
247.103	16.642	1416.974	1077.837
248.117	16.621	1416.648	1077.362
249.132	16.711	1415.877	1077.251
250.147	16.771	1415.217	1077.037
251.161	16.815	1415.101	1077.133
252.176	17.008	1414.137	1077.527
253.190	17.050	1413.168	1076.963
254.205	17.110	1412.259	1076.555
255.220	17.117	1411.682	1076.065
256.234	17.168	1411.436	1076.105
257.249	17.135	1410.344	1074.966
258.263	17.128	1409.516	1074.201
259.278	17.138	1408.295	1073.237
260.293	17.190	1407.366	1072.762
261.307	17.196	1406.701	1072.198
262.322	17.235	1405.692	1071.579
263.336	17.292	1405.056	1071.362
264.351	17.290	1403.886	1070.361
265.366	17.301	1403.221	1069.830
266.380	17.288	1402.487	1069.094
267.395	17.344	1401.395	1068.517
268.409	17.295	1401.098	1067.890
269.424	17.253	1399.105	1066.010
270.439	17.267	1398.318	1065.401
271.453	17.259	1397.351	1064.526
272.468	17.261	1396.271	1063.616
273.482	17.229	1395.837	1062.994
274.497	17.215	1394.910	1062.106
275.512	17.132	1394.247	1060.987
276.526	17.200	1393.199	1060.522
277.541	17.217	1392.059	1059.668
278.555	17.271	1391.327	1059.349
279.570	17.292	1390.629	1058.855
280.585	17.228	1389.833	1057.762
281.599	17.405	1389.129	1058.233
282.614	17.377	1388.146	1057.216
283.628	17.378	1386.922	1056.198
284.643	17.354	1386.059	1055.297
285.657	17.394	1384.883	1054.557
286.672	17.391	1384.010	1053.775
287.687	17.472	1382.895	1053.337
288.701	17.291	1382.052	1051.480
289.716	17.336	1381.241	1051.053
290.730	17.462	1380.618	1051.260
291.745	17.472	1379.514	1050.388
292.760	17.467	1378.525	1049.514
293.774	17.524	1377.569	1049.042
294.789	17.491	1376.428	1047.878
295.803	17.588	1375.602	1047.754
296.818	17.687	1375.269	1048.017
297.833	17.555	1374.296	1046.370
298.847	17.539	1373.190	1045.336
299.862	17.538	1372.197	1044.485
300.876	17.457	1371.380	1043.271
301.891	17.519	1370.287	1042.728
302.906	17.572	1369.286	1042.197
303.920	17.651	1368.943	1042.331
304.935	17.688	1368.242	1041.927
305.949	17.813	1367.335	1041.913
306.964	17.815	1366.389	1041.106
307.979	17.899	1365.398	1040.774
308.993	17.956	1364.784	1040.558
310.008	17.764	1364.092	1038.774
311.022	17.759	1362.889	1037.732
312.037	17.861	1361.747	1037.389
313.052	17.891	1360.797	1036.761
314.066	17.916	1359.820	1036.074
315.081	17.742	1359.156	1034.424
316.095	17.692	1357.921	1033.089
317.110	17.588	1356.574	1031.343
318.125	17.564	1356.119	1030.759
319.139	17.664	1355.185	1030.561
320.154	17.685	1353.799	1029.546
321.168	17.721	1352.761	1028.882
322.183	17.745	1351.943	1028.311
323.197	17.748	1351.105	1027.599
324.212	17.799	1350.262	1027.176
325.227	17.764	1349.324	1026.162
326.241	17.905	1348.153	1026.031
327.256	17.902	1347.503	1025.425
328.270	17.865	1346.832	1024.600
329.285	17.817	1345.934	1023.541
330.300	17.836	1344.936	1022.806
331.314	17.843	1344.384	1022.335
332.329	17.993	1342.962	1022.058
333.343	17.869	1342.158	1020.615
334.358	17.899	1341.553	1020.244
335.373	17.873	1341.143	1019.687
336.387	17.839	1340.627	1019.006
337.402	17.985	1339.162	1018.668
338.416	18.075	1338.363	1018.511
339.431	18.102	1337.902	1018.228
340.446	18.159	1336.816	1017.649
341.460	18.203	1336.540	1017.615
342.475	18.143	1335.634	1016.479
343.489	18.280	1335.153	1016.835
344.504	18.256	1333.608	1015.425
345.519	18.437	1332.629	1015.663
346.533	18.495	1331.829	1015.306
347.548	18.476	1330.943	1014.428
348.562	18.451	1329.972	1013.452
349.577	18.456	1329.384	1012.945
350.592	18.383	1328.952	1012.090
351.606	18.255	1327.674	1010.274
352.621	18.381	1326.144	1009.765
353.635	18.275	1324.965	1008.150
354.650	18.165	1324.714	1007.225
355.665	18.222	1323.810	1006.785
356.679	18.193	1322.774	1005.738
357.694	18.296	1321.504	1005.288
358.708	18.216	1320.654	1004.081
359.723	18.434	1319.202	1004.168
360.738	18.387	1318.328	1003.135
361.752	18.391	1317.800	1002.671
362.767	18.365	1316.588	1001.504
363.781	18.392	1315.661	1000.869
364.796	18.458	1314.715	1000.450
365.810	18.494	1313.992	1000.018
366.825	18.520	1313.322	999.574
367.840	18.592	1313.086	999.722
368.854	18.582	1312.065	998.801
369.869	18.754	1311.850	999.552
370.883	18.651	1311.313	998.453
371.898	18.692	1310.702	998.137
372.913	18.689	1309.441	997.070
373.927	18.711	1308.297	996.237
374.942	18.690	1307.884	995.713
375.956	18.771	1306.863	995.319
376.971	18.788	1305.979	994.654
377.986	18.794	1305.314	994.095
379.000	18.876	1304.264	993.685
380.015	18.907	1303.565	993.243
381.029	18.881	1303.071	992.629
382.044	18.903	1302.609	992.312
383.059	18.904	1301.780	991.599
384.073	18.971	1301.217	991.469
385.088	18.867	1300.599	990.314
386.102	19.047	1299.910	990.738
387.117	19.038	1299.167	990.029
388.132	18.951	1298.440	988.886
389.146	18.953	1297.305	987.950
390.161	18.789	1296.476	986.287
391.175	18.875	1295.438	985.905
392.190	18.854	1294.769	985.191
393.205	18.866	1294.278	984.795
394.219	18.866	1293.082	983.797
395.234	19.091	1291.544	983.829
396.248	19.017	1290.375	982.430
397.263	18.951	1289.345	981.181
398.278	18.951	1287.943	980.028
399.292	18.912	1286.483	978.609
400.307	18.811	1285.970	977.555
401.321	18.800	1284.700	976.439
402.336	18.832	1283.367	975.521
403.350	18.742	1282.979	974.631
404.365	18.867	1281.497	974.125
405.380	18.814	1280.851	973.252
406.394	18.880	1280.436	973.223
407.409	18.967	1279.579	972.976
408.423	18.969	1279.186	972.602
409.438	19.125	1277.932	972.444
410.453	19.176	1277.453	972.283
411.467	19.231	1276.656	971.898
412.482	19.242	1276.216	971.541
413.496	19.300	1275.483	971.227
414.511	19.357	1275.027	971.112
415.526	19.320	1274.290	970.254
416.540	19.431	1273.502	970.197
417.555	19.460	1272.466	969.485
418.569	19.414	1272.433	969.113
419.584	19.460	1271.727	968.748
420.599	19.400	1270.720	967.558
421.613	141.690	1431.758	1797.270
422.628	136.183	1455.194	1797.367
