DTS Sentinel unit serial number:	SN413079Multiplexer serial number:	ORYXHardware model number:	OX4-SRSoftware version number:	ORYX F/W v4.00 Oryx Data Collector v3.7.2.0data status	okinstallation	princeton_trtdifferential loss correction	single-endedforward channel	channel 4reverse channel	N/Adate	2019/09/19time	01:09:35forward acquisition time	60.00reverse acquisition time	0.00gamma	496.2192k internal	0.2338k external	0.2338temperature offset calibration	1.0035default loss term (dB/km)	0.3790temperature slope calibration	1.0000multiplexer offset coefficient	1.0000multiplexer slope coefficient	1.0000fibre end	0.00T internal ref (°C)	21.81T ext. ref 1 (°C)	0.71T ext. ref 2 (°C)	15.30length (m)	temperature (°C)	Stokes	anti-Stokes-747.200	-113.376	-0.101	-0.020
-746.185	-71.290	-0.404	0.152
-745.171	-63.560	0.141	-0.058
-744.156	800.000	0.109	0.343
-743.142	-200.000	-0.073	0.426
-742.127	114.021	-0.197	0.240
-741.112	-19.048	0.246	0.153
-740.098	-76.606	-0.213	0.075
-739.083	-200.000	-0.040	0.444
-738.069	441.376	-0.114	0.250
-737.054	19.888	-0.144	0.117
-736.039	-123.220	-0.158	0.025
-735.025	209.527	-0.079	0.124
-734.010	-20.887	-0.219	-0.134
-732.996	-65.538	-0.187	-0.075
-731.981	247.729	0.083	0.141
-730.966	-200.000	-0.009	-0.082
-729.952	-200.000	0.022	-0.240
-728.937	39.889	0.112	0.100
-727.923	-160.885	0.152	-0.008
-726.908	71.602	0.133	0.138
-725.894	-200.000	-0.020	-0.246
-724.879	-35.100	0.250	-0.137
-723.864	77.975	0.169	0.181
-722.850	-108.978	0.195	0.042
-721.835	-200.000	-0.016	0.111
-720.821	800.000	0.135	-0.386
-719.806	800.000	-0.047	-0.193
-718.791	433.440	0.070	0.151
-717.777	800.000	0.040	-0.134
-716.762	59.361	-0.105	-0.104
-715.748	-71.252	0.074	-0.028
-714.733	6.229	0.301	-0.224
-713.718	-200.000	-0.057	0.265
-712.704	11.978	-0.150	0.116
-711.689	252.282	0.089	-0.151
-710.675	623.518	0.083	0.210
-709.660	-49.267	0.287	-0.137
-708.645	24.428	0.060	-0.050
-707.631	800.000	-0.096	0.373
-706.616	-200.000	0.019	-0.180
-705.602	-67.700	-0.230	-0.090
-704.587	-131.646	0.297	0.039
-703.572	-43.103	-0.665	-0.338
-702.558	800.000	0.112	-0.452
-701.543	-200.000	0.012	-0.058
-700.529	-67.308	-0.051	0.020
-699.514	-200.000	0.027	-0.270
-698.499	800.000	-0.097	-0.316
-697.485	134.128	0.099	0.128
-696.470	-120.745	0.264	0.045
-695.456	-200.000	0.004	0.085
-694.441	194.629	0.154	-0.233
-693.426	-88.811	-0.092	-0.027
-692.412	800.000	-0.072	0.199
-691.397	-200.000	-0.001	0.046
-690.383	89.746	-0.018	0.020
-689.368	473.574	-0.119	-0.268
-688.354	800.000	-0.050	-0.177
-687.339	-97.619	0.514	-0.133
-686.324	513.056	0.150	0.351
-685.310	177.299	0.084	0.122
-684.295	-19.096	0.287	-0.178
-683.281	-118.643	-0.051	0.009
-682.266	-200.000	0.036	-0.206
-681.251	17.770	0.048	-0.038
-680.237	-114.986	-0.066	-0.013
-679.222	-135.871	-0.088	-0.010
-678.208	-200.000	-0.000	-0.120
-677.193	800.000	-0.043	-0.163
-676.178	-71.887	-0.318	0.118
-675.164	800.000	-0.107	-0.323
-674.149	-18.910	-0.337	-0.210
-673.135	-200.000	0.036	0.364
-672.120	461.156	0.073	0.163
-671.105	-43.504	-0.118	0.060
-670.091	-138.637	-0.050	0.005
-669.076	-200.000	0.021	-0.205
-668.062	749.512	0.105	-0.283
-667.047	294.342	-0.081	0.148
-666.032	800.000	-0.058	-0.220
-665.018	-92.688	-0.336	0.094
-664.003	-95.173	-0.335	0.090
-662.989	266.184	-0.167	0.292
-661.974	800.000	-0.027	-0.100
-660.959	92.561	-0.263	0.297
-659.945	800.000	0.073	-0.268
-658.930	-200.000	0.017	0.138
-657.916	16.833	-0.215	0.171
-656.901	-16.211	-0.185	-0.117
-655.886	800.000	0.144	-0.407
-654.872	609.785	0.161	-0.401
-653.857	-8.228	0.185	-0.125
-652.843	37.843	-0.089	0.079
-651.828	-110.663	-0.361	-0.075
-650.814	800.000	-0.062	0.217
-649.799	-67.676	0.350	-0.137
-648.784	-41.331	0.148	-0.076
-647.770	-27.760	0.432	-0.251
-646.755	89.946	-0.152	-0.170
-645.741	-22.698	-0.154	-0.093
-644.726	-104.098	-0.456	-0.106
-643.711	800.000	0.108	-0.310
-642.697	78.806	0.206	-0.220
-641.682	21.903	-0.181	0.148
-640.668	764.969	0.030	-0.082
-639.653	-78.165	-0.395	-0.136
-638.638	49.085	-0.086	-0.081
-637.624	318.615	-0.083	0.157
-636.609	-200.000	-0.042	-0.359
-635.595	56.071	0.020	0.019
-634.580	48.674	-0.259	-0.242
-633.565	-133.831	-0.184	-0.023
-632.551	92.420	-0.124	-0.140
-631.536	306.532	0.052	-0.096
-630.522	81.139	-0.281	-0.303
-629.507	146.639	0.043	0.057
-628.492	-60.387	-0.228	-0.097
-627.478	800.000	-0.072	-0.254
-626.463	-33.801	0.281	0.155
-625.449	104.398	-0.180	0.212
-624.434	-169.237	-0.136	0.005
-623.419	262.119	-0.044	0.076
-622.405	20.150	0.187	-0.151
-621.390	-51.917	-0.230	-0.107
-620.376	-98.484	0.154	-0.039
-619.361	476.615	-0.040	0.090
-618.346	592.700	0.114	-0.282
-617.332	-117.432	0.147	0.027
-616.317	-200.000	-0.000	0.034
-615.303	-10.243	-0.031	-0.020
-614.288	-56.613	-0.182	-0.080
-613.273	-92.898	0.246	-0.069
-612.259	299.194	0.099	0.183
-611.244	-30.458	0.027	-0.015
-610.230	-99.135	0.133	-0.034
-609.215	-116.758	-0.497	-0.091
-608.201	-153.200	-0.043	-0.003
-607.186	-6.499	0.054	0.037
-606.171	-56.967	-0.250	0.110
-605.157	93.934	0.211	0.239
-604.142	110.319	-0.121	-0.145
-603.128	9.068	0.093	-0.070
-602.113	-4.307	0.139	0.096
-601.098	336.302	-0.189	0.367
-600.084	-98.452	-0.190	0.048
-599.069	34.403	-0.076	-0.066
-598.055	216.836	-0.153	-0.244
-597.040	-181.687	0.267	0.005
-596.025	-200.000	-0.031	0.302
-595.011	800.000	-0.074	0.255
-593.996	56.732	0.263	0.255
-592.982	-76.989	0.141	0.049
-591.967	-200.000	-0.011	0.236
-590.952	-72.918	0.048	-0.018
-589.938	-156.852	-0.070	-0.004
-588.923	-136.333	0.100	0.012
-587.909	800.000	-0.062	-0.217
-586.894	422.688	-0.039	0.083
-585.879	48.360	-0.167	0.156
-584.865	-200.000	0.012	-0.248
-583.850	-27.357	-0.055	0.032
-582.836	67.709	-0.375	0.382
-581.821	64.787	0.241	0.242
-580.806	-200.000	-0.051	-0.234
-579.792	-47.688	-0.180	0.087
-578.777	-35.377	0.156	-0.085
-577.763	-200.000	0.070	-0.430
-576.748	110.422	-0.251	-0.300
-575.733	-132.683	-0.342	0.044
-574.719	550.424	-0.097	0.233
-573.704	-59.919	0.255	-0.109
-572.690	800.000	-0.066	-0.227
-571.675	-200.000	-0.058	-0.318
-570.661	-200.000	-0.000	0.110
-569.646	-200.000	-0.055	-0.279
-568.631	-43.668	-0.239	-0.120
-567.617	-7.327	0.341	-0.230
-566.602	21.758	0.072	0.058
-565.588	800.000	0.040	0.159
-564.573	800.000	0.061	0.169
-563.558	-88.775	0.050	-0.015
-562.544	676.088	0.070	0.182
-561.529	503.967	0.001	-0.003
-560.515	-177.551	0.315	0.008
-559.500	-101.211	0.240	-0.058
-558.485	800.000	0.095	0.277
-557.471	-51.668	0.408	-0.190
-556.456	202.692	0.010	0.016
-555.442	800.000	0.010	-0.043
-554.427	-28.549	-0.232	0.133
-553.412	152.747	-0.093	0.127
-552.398	-20.546	-0.128	0.078
-551.383	-200.000	0.057	0.284
-550.369	800.000	-0.083	0.298
-549.354	800.000	0.037	0.161
-548.339	292.721	-0.157	0.284
-547.325	-200.000	-0.028	0.249
-546.310	-34.690	-0.067	-0.037
-545.296	8.821	0.036	-0.027
-544.281	-156.335	-0.368	0.023
-543.266	68.730	0.087	0.089
-542.252	800.000	0.024	-0.071
-541.237	111.874	-0.081	-0.098
-540.223	-98.290	0.277	0.071
-539.208	-101.052	-0.179	0.044
-538.193	69.914	-0.063	0.065
-537.179	-200.000	0.018	0.195
-536.164	107.804	-0.163	-0.194
-535.150	111.970	-0.166	-0.200
-534.135	-200.000	-0.057	-0.287
-533.121	4.229	0.155	0.113
-532.106	-63.831	0.235	-0.096
-531.091	109.566	-0.112	-0.134
-530.077	-50.070	-0.021	0.010
-529.062	-65.801	0.289	0.115
-528.048	-9.205	-0.089	0.059
-527.033	-40.348	0.240	0.124
-526.018	704.900	-0.101	-0.265
-525.004	76.054	-0.273	-0.287
-523.989	260.213	0.153	-0.262
-522.975	17.837	-0.082	0.065
-521.960	334.514	0.050	-0.096
-520.945	800.000	0.028	-0.100
-519.931	-101.468	-0.314	-0.076
-518.916	800.000	0.078	0.326
-517.902	800.000	-0.062	0.217
-516.887	-24.599	0.282	-0.167
-515.872	107.903	-0.204	0.241
-514.858	16.588	0.345	0.272
-513.843	-200.000	0.007	-0.124
-512.829	302.874	-0.201	0.370
-511.814	34.344	-0.289	-0.251
-510.799	-35.985	0.107	-0.057
-509.785	190.783	-0.074	-0.111
-508.770	800.000	0.067	0.272
-507.756	768.011	0.047	0.128
-506.741	-49.052	0.205	-0.098
-505.726	-2.489	-0.320	-0.223
-504.712	-67.080	-0.069	0.027
-503.697	554.142	-0.139	-0.333
-502.683	8.427	-0.171	-0.128
-501.668	-38.435	-0.036	-0.019
-500.653	1.230	0.248	-0.177
-499.639	-7.181	-0.118	-0.080
-498.624	-46.398	0.367	-0.179
-497.610	-153.594	0.358	0.025
-496.595	-113.956	-0.211	0.041
-495.581	-200.000	0.003	-0.229
-494.566	-200.000	-0.001	-0.013
-493.551	-5.308	0.055	-0.038
-492.537	800.000	-0.094	0.274
-491.522	250.174	-0.079	-0.133
-490.508	-164.276	0.176	-0.008
-489.493	-169.063	-0.400	0.015
-488.478	146.585	-0.094	0.126
-487.464	-134.380	-0.130	0.016
-486.449	-200.000	0.007	-0.092
-485.435	-27.320	0.172	0.099
-484.420	-113.575	-0.077	-0.015
-483.405	800.000	0.143	-0.396
-482.391	-87.377	-0.165	0.050
-481.376	404.019	-0.091	-0.190
-480.362	144.780	-0.076	-0.101
-479.347	98.321	0.128	0.146
-478.332	-121.439	0.302	0.050
-477.318	-67.236	-0.132	-0.051
-476.303	69.967	-0.258	0.265
-475.289	-26.404	-0.309	-0.180
-474.274	-92.864	-0.084	-0.023
-473.259	-200.000	-0.008	-0.220
-472.245	-94.578	-0.141	-0.038
-471.230	800.000	-0.097	-0.292
-470.216	83.051	0.256	0.276
-469.201	-44.620	0.257	0.128
-468.186	-112.719	-0.132	0.026
-467.172	11.796	0.179	-0.137
-466.157	95.829	0.123	-0.139
-465.143	-50.670	-0.375	0.175
-464.128	-177.929	-0.024	0.001
-463.113	-65.899	-0.124	-0.049
-462.099	326.227	0.127	0.241
-461.084	0.148	0.237	0.168
-460.070	-77.659	-0.111	-0.038
-459.055	56.330	-0.354	0.342
-458.040	247.585	-0.040	-0.067
-457.026	412.654	-0.138	0.292
-456.011	43.144	-0.203	-0.184
-454.997	209.568	-0.164	0.255
-453.982	-88.882	0.223	0.066
-452.968	800.000	0.032	0.135
-451.953	-126.992	-0.271	-0.040
-450.938	-200.000	-0.006	-0.194
-449.924	-53.761	-0.165	-0.075
-448.909	-20.751	-0.294	0.179
-447.895	-135.876	-0.402	-0.047
-446.880	137.387	0.005	0.006
-445.865	-12.325	0.215	-0.140
-444.851	-144.380	0.470	0.043
-443.836	-13.016	-0.207	-0.134
-442.822	335.888	-0.096	-0.184
-441.807	-18.759	0.050	-0.031
-440.792	-9.278	0.170	0.112
-439.778	144.806	-0.193	0.255
-438.763	118.289	-0.147	0.180
-437.749	-54.658	-0.362	-0.162
-436.734	800.000	0.062	-0.190
-435.719	-80.658	-0.014	0.005
-434.705	-134.552	-0.081	-0.010
-433.690	186.828	-0.058	0.086
-432.676	200.694	0.115	-0.175
-431.661	8.713	0.228	0.170
-430.646	149.710	-0.168	-0.225
-429.632	800.000	0.067	-0.228
-428.617	800.000	-0.067	0.209
-427.603	-200.000	-0.022	0.178
-426.588	-111.718	-0.071	0.014
-425.573	-29.869	-0.060	-0.034
-424.559	-160.423	0.521	0.028
-423.544	362.504	0.113	0.225
-422.530	-154.201	0.130	0.009
-421.515	11.944	0.102	-0.078
-420.500	477.643	-0.071	0.160
-419.486	-82.914	-0.123	0.039
-418.471	-200.000	-0.014	-0.472
-417.457	-200.000	0.016	-0.261
-416.442	-200.000	0.048	-0.257
-415.428	33.416	0.268	0.230
-414.413	273.075	-0.134	-0.234
-413.398	-64.262	0.244	-0.098
-412.384	376.289	-0.084	0.170
-411.369	-200.000	0.044	-0.356
-410.355	480.897	0.026	-0.058
-409.340	47.952	0.231	0.213
-408.325	49.520	-0.082	0.077
-407.311	54.874	0.347	0.331
-406.296	-200.000	-0.012	-0.252
-405.282	-200.000	0.049	0.243
-404.267	-22.145	0.237	-0.143
-403.252	146.882	0.135	0.179
-402.238	696.185	0.095	-0.247
-401.223	-200.000	0.048	0.328
-400.209	-103.149	0.272	-0.064
-399.194	399.793	-0.027	0.056
-398.179	-102.026	-0.678	0.162
-397.165	-12.259	0.122	0.079
-396.150	-55.765	0.246	-0.109
-395.136	561.311	0.063	0.150
-394.121	471.959	-0.033	-0.074
-393.106	-94.647	-0.120	-0.032
-392.092	299.996	-0.232	-0.424
-391.077	-109.356	0.150	-0.031
-390.063	9.786	0.278	0.209
-389.048	-7.496	-0.343	-0.229
-388.033	103.435	0.125	-0.146
-387.019	-139.049	0.164	-0.018
-386.004	-59.829	-0.051	-0.022
-384.990	-45.787	0.260	0.127
-383.975	199.051	0.257	0.390
-382.960	-8.897	-0.116	-0.077
-381.946	800.000	-0.062	-0.171
-380.931	-44.578	0.172	-0.085
-379.917	301.680	0.175	-0.320
-378.902	-200.000	0.089	0.387
-377.888	-200.000	-0.044	-0.313
-376.873	155.441	-0.110	-0.150
-375.858	-26.184	0.284	-0.165
-374.844	-21.330	-0.292	0.176
-373.829	147.428	0.119	-0.158
-372.815	-200.000	0.002	0.030
-371.800	-200.000	-0.055	0.251
-370.785	259.358	-0.147	0.251
-369.771	-184.211	0.321	-0.005
-368.756	-200.000	0.040	-0.294
-367.742	-48.811	0.183	0.087
-366.727	67.021	-0.153	-0.154
-365.712	800.000	0.056	0.177
-364.698	-153.997	0.212	0.014
-363.683	-200.000	0.029	-0.147
-362.669	-200.000	0.003	-0.055
-361.654	-93.153	0.352	-0.097
-360.639	67.518	-0.183	0.185
-359.625	-39.277	-0.051	0.026
-358.610	-1.854	-0.246	-0.171
-357.596	-82.438	0.394	-0.127
-356.581	-25.970	-0.111	-0.064
-355.566	-105.840	0.212	0.047
-354.552	800.000	-0.084	0.337
-353.537	-155.052	-0.132	0.009
-352.523	168.139	-0.080	-0.112
-351.508	343.456	0.073	0.142
-350.493	129.732	-0.108	0.136
-349.479	800.000	0.081	0.265
-348.464	66.407	0.110	-0.110
-347.450	-200.000	0.017	0.301
-346.435	-62.099	0.382	-0.158
-345.420	165.179	0.349	-0.487
-344.406	38.795	-0.159	-0.140
-343.391	-39.170	0.190	0.099
-342.377	-25.246	-0.208	-0.122
-341.362	-109.403	0.058	0.012
-340.348	3.379	0.151	0.109
-339.333	-99.915	0.427	-0.105
-338.318	800.000	0.087	0.258
-337.304	53.212	0.140	-0.133
-336.289	-75.455	0.180	0.063
-335.275	120.376	-0.231	0.284
-334.260	125.446	0.292	-0.364
-333.245	667.923	-0.082	0.209
-332.231	-68.016	0.196	-0.076
-331.216	-200.000	0.006	0.152
-330.202	-22.896	-0.129	-0.077
-329.187	231.034	0.096	-0.154
-328.172	296.674	-0.149	-0.270
-327.158	-200.000	-0.026	-0.193
-326.143	-100.801	0.251	0.061
-325.129	-100.225	0.245	0.060
-324.114	-136.701	0.293	-0.033
-323.099	164.537	0.205	0.285
-322.085	-45.730	0.147	-0.072
-321.070	-53.269	0.051	0.023
-320.056	-60.831	-0.404	0.169
-319.041	-200.000	-0.010	0.153
-318.026	-17.475	0.262	0.162
-317.012	-105.874	-0.124	-0.028
-315.997	-177.947	-0.221	-0.005
-314.983	-24.272	-0.026	0.015
-313.968	800.000	-0.114	-0.404
-312.953	-200.000	-0.015	-0.089
-311.939	-25.174	-0.243	0.142
-310.924	-57.999	0.285	0.123
-309.910	-83.687	-0.153	0.048
-308.895	-200.000	0.004	0.232
-307.880	245.468	0.308	-0.511
-306.866	-82.872	0.178	-0.057
-305.851	754.961	0.015	-0.041
-304.837	181.351	0.233	0.338
-303.822	-200.000	-0.220	0.000
-302.807	-200.000	0.084	0.422
-301.793	61.676	0.171	0.168
-300.778	800.000	0.012	-0.047
-299.764	128.536	0.014	0.017
-298.749	-10.661	0.042	-0.027
-297.735	137.950	-0.120	0.155
-296.720	-76.481	-0.210	-0.073
-295.705	-4.425	0.067	0.046
-294.691	334.453	-0.073	0.140
-293.676	177.231	0.050	0.072
-292.662	187.392	0.149	0.220
-291.647	-140.630	-0.071	-0.007
-290.632	51.908	0.212	0.199
-289.618	-200.000	0.040	-0.265
-288.603	800.000	-0.072	-0.278
-287.589	31.000	-0.078	-0.066
-286.574	-150.930	-0.250	-0.019
-285.559	-179.784	-0.314	0.007
-284.545	218.384	0.136	0.214
-283.530	42.969	-0.220	0.198
-282.516	-200.000	-0.011	-0.082
-281.501	-200.000	0.013	0.159
-280.486	-200.000	-0.053	0.396
-279.472	-95.137	-0.059	0.016
-278.457	21.848	0.240	-0.192
-277.443	-110.450	-0.039	-0.008
-276.428	44.370	-0.198	0.179
-275.413	-73.611	0.258	0.092
-274.399	-5.462	-0.128	-0.087
-273.384	-200.000	0.000	0.013
-272.370	191.085	-0.118	0.175
-271.355	-200.000	0.006	0.330
-270.340	-74.879	0.073	-0.026
-269.326	-126.522	-0.232	0.034
-268.311	56.393	0.063	-0.061
-267.297	-100.336	-0.124	0.030
-266.282	46.218	-0.061	-0.056
-265.267	61.017	-0.233	0.228
-264.253	800.000	-0.080	-0.222
-263.238	255.852	0.130	0.220
-262.224	19.617	-0.173	0.137
-261.209	800.000	0.113	-0.400
-260.195	-200.000	0.019	-0.262
-259.180	334.478	-0.031	0.059
-258.165	-74.892	-0.140	-0.049
-257.151	759.620	0.164	0.438
-256.136	-200.000	-0.023	-0.104
-255.122	800.000	0.025	0.081
-254.107	-102.309	-0.344	0.081
-253.092	-200.000	0.003	-0.296
-252.078	77.634	0.148	-0.155
-251.063	-200.000	0.027	0.193
-250.049	13.662	0.215	0.164
-249.034	-200.000	0.249	-0.001
-248.019	-107.412	0.194	-0.042
-247.005	34.693	-0.319	0.274
-245.990	202.376	-0.104	-0.157
-244.976	66.855	-0.196	0.197
-243.961	-200.000	0.041	0.273
-242.946	-185.596	-0.159	0.002
-241.932	-75.625	-0.044	0.016
-240.917	-31.386	-0.101	-0.056
-239.903	-96.334	-0.232	0.061
-238.888	30.467	0.121	0.101
-237.873	800.000	0.103	-0.379
-236.859	-96.716	0.161	-0.042
-235.844	-96.361	-0.174	0.045
-234.830	-51.382	0.416	-0.191
-233.815	-140.261	0.079	0.008
-232.800	-189.582	-0.103	0.001
-231.786	-131.971	-0.149	-0.019
-230.771	12.806	-0.180	-0.136
-229.757	51.096	0.053	0.049
-228.742	800.000	0.010	0.030
-227.727	-136.093	-0.047	-0.005
-226.713	-200.000	0.002	-0.217
-225.698	-200.000	-0.010	0.262
-224.684	245.349	0.103	-0.171
-223.669	-200.000	0.062	-0.296
-222.655	-200.000	0.047	-0.467
-221.640	-177.181	0.253	0.006
-220.625	164.471	-0.199	0.276
-219.611	18.479	0.154	0.121
-218.596	-200.000	-0.008	-0.241
-217.582	284.666	0.204	-0.362
-216.567	39.468	0.096	0.085
-215.552	186.028	0.181	0.265
-214.538	-62.468	-0.341	0.139
-213.523	-155.442	-0.200	0.013
-212.509	800.000	-0.079	0.270
-211.494	-147.478	-0.310	-0.026
-210.479	642.527	0.180	0.451
-209.465	-200.000	-0.018	-0.324
-208.450	162.367	0.019	-0.026
-207.436	366.252	-0.042	-0.083
-206.421	121.812	0.090	0.110
-205.406	112.614	-0.273	0.325
-204.392	396.515	0.056	0.115
-203.377	-2.571	0.101	-0.069
-202.363	-121.669	-0.178	-0.029
-201.348	-200.000	0.017	0.355
-200.333	-200.000	-0.014	0.142
-199.319	-97.232	-0.030	0.008
-198.304	-19.974	0.023	0.014
-197.290	-27.040	0.128	-0.074
-196.275	-171.732	-0.151	0.005
-195.260	97.815	0.209	0.236
-194.246	350.652	-0.077	-0.150
-193.231	-110.670	-0.181	0.037
-192.217	181.155	-0.042	-0.060
-191.202	54.379	-0.165	0.156
-190.187	-117.431	-0.159	0.028
-189.173	162.098	-0.068	-0.093
-188.158	71.753	-0.149	-0.152
-187.144	65.655	-0.155	-0.154
-186.129	-94.104	-0.198	0.053
-185.114	7.545	0.118	0.086
-184.100	247.459	-0.044	0.074
-183.085	231.460	-0.247	-0.398
-182.071	-200.000	-0.012	-0.055
-181.056	-200.000	-0.051	0.221
-180.042	89.939	0.218	0.239
-179.027	215.646	0.081	-0.125
-178.012	-200.000	-0.028	0.181
-176.998	15.952	-0.255	0.197
-175.983	77.688	0.260	-0.272
-174.969	-7.095	-0.328	-0.219
-173.954	-93.680	0.210	0.057
-172.939	293.486	0.134	0.241
-171.925	-200.000	-0.020	-0.336
-170.910	-46.235	-0.316	0.152
-169.896	-200.000	0.026	-0.284
-168.881	50.538	0.103	-0.096
-167.866	800.000	0.108	0.314
-166.852	187.802	0.146	0.213
-165.837	-30.982	0.232	-0.128
-164.823	800.000	0.052	0.165
-163.808	137.391	-0.054	-0.069
-162.793	-7.165	0.244	0.162
-161.779	-200.000	-0.017	-0.192
-160.764	126.958	-0.157	0.195
-159.750	481.190	0.069	0.154
-158.735	-108.390	-0.059	0.013
-157.720	553.050	0.124	-0.291
-156.706	-125.967	0.145	-0.021
-155.691	-77.532	0.143	-0.049
-154.677	-149.892	0.173	-0.013
-153.662	282.186	-0.317	-0.557
-152.647	721.079	0.083	0.216
-151.633	151.391	0.143	0.190
-150.618	-91.945	-0.131	0.036
-149.604	0.506	-0.280	-0.196
-148.589	608.225	0.037	0.090
-147.574	680.568	0.093	0.237
-146.560	103.796	0.254	0.293
-145.545	-200.000	-0.004	0.264
-144.531	576.168	-0.147	0.351
-143.516	-200.000	0.089	0.451
-142.502	162.070	0.018	-0.025
-141.487	-14.358	-0.127	-0.080
-140.472	-200.000	0.060	-0.351
-139.458	324.081	0.224	-0.418
-138.443	-10.130	0.255	0.166
-137.429	100.240	-0.067	-0.076
-136.414	32.441	0.034	0.029
-135.399	180.180	0.286	-0.411
-134.385	619.284	-0.051	0.126
-133.370	-90.906	-0.113	0.032
-132.356	-200.000	-0.025	0.199
-131.341	100.967	-0.036	0.042
-130.326	359.454	-0.127	-0.248
-129.312	9.935	-0.183	-0.136
-128.297	355.323	-0.069	0.135
-127.283	-4.300	0.060	0.040
-126.268	363.428	-0.056	0.110
-125.253	-200.000	0.003	-0.072
-124.239	11.035	0.178	0.133
-123.224	330.985	-0.094	0.177
-122.210	217.613	0.063	0.098
-121.195	-121.997	0.333	0.054
-120.180	-35.644	0.527	0.280
-119.166	13.500	0.157	0.119
-118.151	-200.000	0.063	-0.359
-117.137	-108.808	0.369	-0.077
-116.122	75.570	0.022	0.023
-115.107	15.044	0.022	0.017
-114.093	800.000	0.036	0.118
-113.078	148.336	0.193	-0.255
-112.064	300.028	-0.179	0.323
-111.049	-200.000	-0.024	0.229
-110.034	-55.738	-0.112	0.049
-109.020	-200.000	0.034	-0.428
-108.005	-114.260	0.073	-0.014
-106.991	800.000	-0.091	0.319
-105.976	24.073	0.070	0.057
-104.962	-36.830	0.294	0.155
-103.947	-200.000	-0.003	0.256
-102.932	800.000	0.082	-0.306
-101.918	69.226	-0.168	-0.169
-100.903	-99.084	0.276	0.068
-99.889	-200.000	-0.034	0.000
-98.874	-167.715	-0.161	-0.006
-97.859	61.358	-0.118	-0.115
-96.845	185.726	0.042	-0.062
-95.830	-178.274	-0.171	-0.004
-94.816	800.000	0.046	0.139
-93.801	-60.685	0.188	-0.078
-92.786	-200.000	0.028	-0.269
-91.772	283.229	0.229	0.402
-90.757	46.028	0.193	0.175
-89.743	168.968	0.098	-0.137
-88.728	142.448	-0.329	-0.427
-87.713	-123.731	0.128	0.020
-86.699	800.000	-0.113	0.417
-85.684	-104.708	-0.321	-0.072
-84.670	62.476	0.186	0.182
-83.655	142.469	0.220	0.285
-82.640	71.139	0.239	-0.242
-81.626	-200.000	0.003	-0.106
-80.611	-200.000	-0.005	-0.320
-79.597	-104.992	0.408	-0.091
-78.582	-107.702	0.202	0.043
-77.567	800.000	0.119	-0.362
-76.553	800.000	0.070	0.226
-75.538	-84.666	-0.232	0.071
-74.524	349.609	0.065	0.126
-73.509	112.404	0.103	-0.122
-72.494	-83.577	-0.037	-0.011
-71.480	-200.000	0.061	-0.264
-70.465	-62.773	0.180	0.073
-69.451	123.386	-0.107	-0.131
-68.436	800.000	-0.048	-0.196
-67.422	64.589	-0.215	0.212
-66.407	-95.174	0.203	0.053
-65.392	800.000	-0.053	-0.179
-64.378	-43.342	0.162	-0.080
-63.363	-200.000	0.090	0.445
-62.349	21.702	0.233	0.185
-61.334	127.206	-0.905	-1.122
-60.319	-1.289	1.048	0.723
-59.305	178.894	-0.953	-1.361
-58.290	351.477	0.672	1.299
-57.276	342.133	0.738	1.409
-56.261	-200.000	134.733	688.299
-55.246	351.345	1666.564	3221.502
-54.232	132.214	2812.217	3537.705
-53.217	82.671	2342.930	2485.379
-52.203	28.202	2077.723	1712.893
-51.188	23.569	1993.106	1601.366
-50.173	22.412	1979.181	1579.737
-49.159	41.017	2056.202	1812.712
-48.144	38.588	2067.352	1800.173
-47.130	23.969	2017.778	1624.585
-46.115	21.883	2006.260	1596.291
-45.100	21.757	2003.957	1593.248
-44.086	21.742	2001.266	1590.903
-43.071	21.649	1999.075	1588.258
-42.057	21.627	1997.314	1586.597
-41.042	21.688	1994.356	1584.736
-40.027	21.672	1992.818	1583.302
-39.013	21.688	1990.788	1581.773
-37.998	21.822	1989.183	1581.645
-36.984	21.759	1987.941	1580.025
-35.969	21.696	1986.607	1578.340
-34.954	21.755	1983.986	1576.722
-33.940	21.709	1983.224	1575.637
-32.925	21.764	1981.366	1574.594
-31.911	21.772	1979.840	1573.392
-30.896	21.866	1977.868	1572.611
-29.881	21.841	1976.736	1571.424
-28.867	21.980	1974.407	1570.751
-27.852	21.870	1973.150	1568.701
-26.838	21.850	1971.230	1566.938
-25.823	21.872	1969.321	1565.557
-24.809	21.852	1967.919	1564.201
-23.794	21.880	1966.073	1562.914
-22.779	21.863	1964.270	1561.272
-21.765	21.851	1962.916	1560.026
-20.750	21.844	1960.888	1558.293
-19.736	21.959	1959.019	1557.760
-18.721	21.826	1958.262	1555.921
-17.706	21.876	1956.263	1554.718
-16.692	21.805	1955.077	1553.079
-15.677	21.841	1953.196	1551.841
-14.663	21.815	1951.572	1550.260
-13.648	21.821	1950.525	1549.422
-12.633	21.759	1949.556	1548.047
-11.619	21.833	1947.993	1547.389
-10.604	21.753	1946.541	1545.473
-9.590	21.783	1944.951	1544.418
-8.575	21.842	1943.585	1543.784
-7.560	21.853	1942.379	1542.860
-6.546	21.718	1942.322	1541.573
-5.531	21.824	1939.594	1540.275
-4.517	21.759	1938.811	1539.026
-3.502	21.777	1937.669	1538.216
-2.487	21.779	1936.397	1537.157
-1.473	21.787	1936.066	1536.904
-0.458	21.734	1930.381	1531.869
0.556	20.553	1909.484	1502.130
1.571	16.088	1890.544	1448.812
2.586	12.224	1913.028	1432.255
3.600	11.206	1948.812	1449.864
4.615	11.280	1940.596	1444.276
5.629	9.031	1841.747	1351.660
6.644	3.898	1731.826	1230.135
7.659	1.053	1700.762	1185.723
8.673	0.789	1698.075	1181.687
9.688	0.704	1697.192	1180.299
10.702	0.732	1695.536	1179.261
11.717	0.635	1691.299	1175.461
12.731	1.071	1689.552	1177.529
13.746	5.321	1697.591	1216.153
14.761	12.101	1712.093	1279.495
15.775	16.435	1720.391	1319.489
16.790	17.369	1720.049	1326.397
17.804	16.431	1717.447	1316.972
18.819	15.515	1714.138	1307.185
19.834	14.927	1711.546	1300.522
20.848	14.569	1710.574	1296.888
21.863	14.372	1708.933	1293.998
22.877	14.180	1706.687	1290.699
23.892	13.945	1705.617	1287.948
24.907	13.809	1704.197	1285.714
25.921	13.719	1703.845	1284.636
26.936	13.725	1702.394	1283.476
27.950	13.848	1701.237	1283.439
28.965	13.860	1701.016	1283.249
29.980	13.887	1700.156	1282.698
30.994	13.906	1699.358	1282.125
32.009	13.939	1698.018	1281.257
33.023	14.057	1697.382	1281.573
34.038	14.085	1696.353	1280.897
35.053	14.020	1695.609	1279.722
36.067	14.003	1693.979	1278.252
37.082	13.956	1693.314	1277.272
38.096	13.962	1692.003	1276.220
39.111	13.997	1691.127	1275.713
40.126	13.983	1690.439	1274.976
41.140	13.904	1689.623	1273.638
42.155	13.900	1688.164	1272.393
43.169	13.840	1686.593	1270.641
44.184	13.831	1685.503	1269.635
45.199	13.799	1684.600	1268.604
46.213	13.893	1683.222	1268.170
47.228	13.807	1682.038	1266.505
48.242	13.865	1680.182	1265.438
49.257	13.920	1679.163	1264.976
50.271	13.929	1678.093	1264.130
51.286	13.987	1676.582	1263.322
52.301	13.837	1675.665	1261.376
53.315	13.912	1674.226	1260.754
54.330	13.947	1672.322	1259.474
55.344	13.861	1670.958	1257.683
56.359	13.782	1669.671	1256.005
57.374	13.869	1668.408	1255.605
58.388	13.924	1666.930	1254.798
59.403	13.834	1666.293	1253.527
60.417	13.788	1664.898	1252.020
61.432	13.837	1663.527	1251.244
62.447	13.841	1662.348	1250.273
63.461	13.740	1661.768	1248.968
64.476	13.744	1660.223	1247.727
65.490	13.724	1659.192	1246.695
66.505	13.788	1657.431	1245.738
67.520	13.704	1657.183	1244.811
68.534	13.743	1655.697	1243.878
69.549	13.767	1654.472	1243.026
70.563	13.771	1653.276	1242.052
71.578	13.671	1652.302	1240.463
72.593	13.761	1651.108	1240.125
73.607	13.679	1650.169	1238.698
74.622	13.711	1648.661	1237.699
75.636	13.662	1647.684	1236.490
76.651	13.739	1647.018	1236.452
77.666	13.657	1645.842	1234.849
78.680	13.714	1645.116	1234.617
79.695	13.696	1643.964	1233.509
80.709	13.757	1643.102	1233.209
81.724	13.660	1642.159	1231.669
82.739	13.760	1641.341	1231.689
83.753	13.821	1640.063	1231.075
84.768	13.853	1639.529	1230.802
85.782	13.890	1638.310	1230.056
86.797	13.931	1637.456	1229.605
87.812	13.910	1636.539	1228.653
88.826	13.921	1634.983	1227.461
89.841	13.833	1634.292	1226.179
90.855	13.879	1632.843	1225.328
91.870	13.865	1632.084	1224.543
92.884	13.836	1630.989	1223.398
93.899	13.864	1629.865	1222.658
94.914	13.902	1628.791	1222.024
95.928	13.928	1627.151	1220.874
96.943	13.995	1625.736	1220.196
97.957	13.998	1624.187	1218.947
98.972	13.953	1623.124	1217.713
99.987	13.932	1621.522	1216.248
101.001	13.958	1619.903	1215.115
102.016	13.962	1618.458	1213.958
103.030	13.960	1617.026	1212.759
104.045	13.912	1616.174	1211.665
105.060	13.993	1615.168	1211.390
106.074	13.913	1612.784	1208.914
107.089	13.907	1611.179	1207.557
108.103	13.865	1610.053	1206.305
109.118	13.844	1608.645	1204.992
110.133	13.827	1607.234	1203.700
111.147	13.781	1605.583	1202.030
112.162	13.750	1604.651	1200.996
113.176	13.849	1602.485	1199.987
114.191	13.810	1601.506	1198.864
115.206	13.855	1600.204	1198.110
116.220	13.835	1599.281	1197.170
117.235	13.827	1597.308	1195.527
118.249	13.858	1595.762	1194.490
119.264	13.855	1594.593	1193.483
120.279	13.830	1593.514	1192.391
121.293	13.933	1591.609	1191.602
122.308	13.841	1590.251	1189.817
123.322	13.804	1588.701	1188.291
124.337	13.771	1587.483	1187.036
125.352	13.722	1586.436	1185.800
126.366	13.833	1585.123	1185.503
127.381	13.846	1583.825	1184.525
128.395	13.897	1581.918	1183.358
129.410	13.788	1581.277	1181.993
130.424	13.804	1579.566	1180.722
131.439	13.891	1578.084	1180.130
132.454	13.834	1577.003	1178.811
133.468	13.864	1575.677	1177.929
134.483	13.830	1574.309	1176.565
135.497	14.026	1572.373	1176.401
136.512	13.902	1571.847	1175.023
137.527	13.826	1570.188	1173.142
138.541	13.824	1568.974	1172.115
139.556	13.874	1567.295	1171.114
140.570	13.944	1565.805	1170.390
141.585	13.918	1564.622	1169.217
142.600	13.984	1563.278	1168.572
143.614	14.066	1562.001	1168.093
144.629	14.014	1560.635	1166.601
145.643	14.062	1559.490	1165.984
146.658	14.119	1558.040	1165.197
147.673	14.057	1556.583	1163.565
148.687	14.011	1555.325	1162.199
149.702	14.082	1553.526	1161.251
150.716	14.056	1551.864	1159.721
151.731	13.996	1551.051	1158.597
152.746	14.040	1549.444	1157.597
153.760	14.002	1548.315	1156.385
154.775	14.097	1547.110	1156.046
155.789	14.076	1545.525	1154.614
156.804	14.142	1544.423	1154.144
157.819	14.229	1542.670	1153.340
158.833	14.124	1542.137	1152.107
159.848	14.223	1540.730	1151.644
160.862	14.224	1539.166	1150.377
161.877	14.277	1538.030	1149.791
162.892	14.237	1536.524	1148.291
163.906	14.197	1535.551	1147.184
164.921	14.106	1534.338	1145.548
165.935	14.161	1533.115	1144.917
166.950	14.159	1532.287	1144.184
167.964	14.223	1531.071	1143.611
168.979	14.139	1530.329	1142.381
169.994	14.172	1529.298	1141.738
171.008	14.244	1528.020	1141.175
172.023	14.321	1526.113	1140.177
173.037	14.270	1525.483	1139.254
174.052	14.341	1524.231	1138.704
175.067	14.299	1523.615	1137.855
176.081	14.301	1522.298	1136.784
177.096	14.269	1520.917	1135.436
178.110	14.302	1518.832	1134.005
179.125	14.237	1518.208	1132.994
180.140	14.307	1517.231	1132.640
181.154	14.314	1516.418	1131.980
182.169	14.210	1515.297	1130.341
183.183	14.403	1513.970	1130.562
184.198	14.357	1512.717	1129.214
185.213	14.354	1511.995	1128.549
186.227	14.525	1510.059	1128.167
187.242	14.487	1509.328	1127.261
188.256	14.513	1508.263	1126.539
189.271	14.521	1507.260	1125.748
190.286	14.493	1506.283	1124.729
191.300	14.575	1504.829	1124.099
192.315	14.391	1503.807	1121.998
193.329	14.321	1502.803	1120.675
194.344	14.392	1501.478	1120.068
195.359	14.430	1500.245	1119.300
196.373	14.454	1499.129	1118.532
197.388	14.467	1498.489	1118.039
198.402	14.559	1496.809	1117.308
199.417	14.652	1495.466	1116.824
200.432	14.601	1494.889	1115.956
201.446	14.634	1493.929	1115.361
202.461	14.669	1492.796	1114.649
203.475	14.707	1491.655	1113.951
204.490	14.766	1490.309	1113.244
205.504	14.735	1489.234	1112.131
206.519	14.767	1488.671	1111.825
207.534	14.849	1487.099	1111.101
208.548	14.701	1486.178	1109.331
209.563	14.730	1485.128	1108.641
210.577	14.677	1484.436	1107.675
211.592	14.706	1483.364	1106.972
212.607	14.719	1482.894	1106.607
213.621	14.824	1482.048	1106.576
214.636	14.814	1480.771	1105.457
215.650	14.792	1479.978	1104.620
216.665	14.822	1478.952	1103.952
217.680	14.850	1477.759	1103.149
218.694	14.884	1477.237	1102.887
219.709	14.938	1476.535	1102.625
220.723	14.952	1475.677	1101.976
221.738	14.917	1474.624	1100.862
222.753	14.940	1473.409	1100.007
223.767	14.946	1472.680	1099.405
224.782	15.053	1471.346	1099.020
225.796	14.976	1470.876	1098.063
226.811	14.974	1469.915	1097.236
227.826	15.027	1469.297	1097.023
228.840	15.128	1468.292	1096.838
229.855	14.992	1467.387	1095.178
230.869	15.078	1466.043	1094.636
231.884	15.059	1465.096	1093.708
232.899	14.987	1464.425	1092.645
233.913	15.009	1462.942	1091.579
234.928	15.049	1461.763	1090.867
235.942	15.082	1459.924	1089.613
236.957	15.043	1459.090	1088.637
237.972	15.026	1458.547	1088.027
238.986	15.083	1456.984	1087.138
240.001	15.088	1456.035	1086.362
241.015	15.081	1455.228	1085.619
242.030	15.094	1453.852	1084.581
243.045	15.158	1452.920	1084.202
244.059	15.173	1452.289	1083.733
245.074	15.261	1450.975	1083.229
246.088	15.166	1450.467	1082.137
247.103	15.334	1449.592	1082.476
248.117	15.266	1448.505	1081.126
249.132	15.220	1447.914	1080.295
250.147	15.348	1447.414	1080.651
251.161	15.371	1446.663	1080.145
252.176	15.382	1446.250	1079.811
253.190	15.409	1445.259	1079.145
254.205	15.429	1444.290	1078.455
255.220	15.521	1443.285	1078.205
256.234	15.471	1442.736	1077.373
257.249	15.492	1441.513	1076.501
258.263	15.528	1440.800	1076.103
259.278	15.583	1439.828	1075.635
260.293	15.674	1438.629	1075.226
261.307	15.611	1438.227	1074.428
262.322	15.627	1437.477	1073.877
263.336	15.678	1436.228	1073.175
264.351	15.734	1435.077	1072.574
265.366	15.681	1434.379	1071.620
266.380	15.732	1433.185	1070.958
267.395	15.710	1432.268	1070.041
268.409	15.687	1431.686	1069.362
269.424	15.735	1430.711	1068.844
270.439	15.808	1429.371	1068.212
271.453	15.753	1428.597	1067.194
272.468	15.817	1427.554	1066.725
273.482	15.726	1426.954	1065.604
274.497	15.738	1426.529	1065.266
275.512	15.782	1424.542	1063.967
276.526	15.852	1424.117	1063.999
277.541	15.774	1423.263	1062.778
278.555	15.761	1422.454	1061.992
279.570	15.796	1421.701	1061.559
280.585	15.880	1420.461	1061.070
281.599	15.971	1419.805	1061.061
282.614	15.914	1418.907	1059.933
283.628	15.939	1417.346	1058.834
284.643	15.902	1416.318	1057.739
285.657	16.020	1414.837	1057.277
286.672	15.938	1414.365	1056.317
287.687	16.018	1413.308	1055.934
288.701	15.998	1412.777	1055.317
289.716	15.987	1411.899	1054.500
290.730	16.036	1410.903	1053.971
291.745	16.084	1409.748	1053.316
292.760	16.023	1409.085	1052.349
293.774	16.042	1408.003	1051.563
294.789	16.038	1407.048	1050.732
295.803	16.098	1406.341	1050.486
296.818	16.119	1405.388	1049.813
297.833	16.118	1404.512	1049.056
298.847	16.071	1403.591	1047.983
299.862	16.102	1402.373	1047.172
300.876	16.212	1401.150	1046.854
301.891	16.153	1400.265	1045.732
302.906	16.226	1399.857	1045.786
303.920	16.287	1398.524	1045.079
304.935	16.224	1397.844	1044.083
305.949	16.329	1397.497	1044.382
306.964	16.309	1396.803	1043.652
307.979	16.323	1395.465	1042.644
308.993	16.201	1394.679	1041.211
310.008	16.384	1393.377	1041.277
311.022	16.364	1392.264	1040.229
312.037	16.391	1391.496	1039.730
313.052	16.462	1390.510	1039.337
314.066	16.457	1389.464	1038.434
315.081	16.359	1388.748	1037.203
316.095	16.358	1387.686	1036.312
317.110	16.330	1386.329	1035.036
318.125	16.318	1385.806	1034.483
319.139	16.321	1384.796	1033.654
320.154	16.261	1383.975	1032.584
321.168	16.360	1382.841	1032.246
322.183	16.428	1381.074	1031.251
323.197	16.382	1380.818	1030.692
324.212	16.505	1379.620	1030.455
325.227	16.461	1378.767	1029.461
326.241	16.484	1377.731	1028.736
327.256	16.555	1376.716	1028.320
328.270	16.518	1376.299	1027.688
329.285	16.542	1375.640	1027.250
330.300	16.512	1374.910	1026.433
331.314	16.480	1373.875	1025.373
332.329	16.502	1372.727	1024.561
333.343	16.566	1372.001	1024.315
334.358	16.564	1371.249	1023.651
335.373	16.416	1370.888	1022.398
336.387	16.651	1369.210	1022.478
337.402	16.679	1368.822	1022.267
338.416	16.593	1367.937	1020.993
339.431	16.681	1367.189	1020.876
340.446	16.665	1366.688	1020.317
341.460	16.837	1364.980	1019.985
342.475	16.723	1364.649	1018.963
343.489	16.834	1363.409	1018.613
344.504	16.801	1362.520	1017.658
345.519	16.869	1361.394	1017.138
346.533	16.868	1360.494	1016.368
347.548	17.016	1359.697	1016.571
348.562	16.981	1358.810	1015.608
349.577	16.999	1358.335	1015.272
350.592	16.974	1357.844	1014.667
351.606	16.969	1356.469	1013.518
352.621	16.913	1355.385	1012.283
353.635	16.903	1354.361	1011.368
354.650	16.901	1353.304	1010.476
355.665	16.888	1352.355	1009.604
356.679	16.934	1351.272	1008.979
357.694	16.898	1350.182	1007.864
358.708	16.946	1348.879	1007.082
359.723	16.932	1348.103	1006.335
360.738	17.066	1346.988	1006.204
361.752	17.024	1346.047	1005.164
362.767	17.036	1344.793	1004.214
363.781	17.034	1344.202	1003.669
364.796	17.046	1343.436	1003.083
365.810	17.147	1342.253	1002.706
366.825	17.140	1341.857	1002.280
367.840	17.149	1341.064	1001.650
368.854	17.154	1340.431	1001.118
369.869	17.202	1340.051	1001.029
370.883	17.199	1339.087	1000.204
371.898	17.193	1338.772	999.844
372.913	17.234	1337.613	999.128
373.927	17.138	1336.850	997.906
374.942	17.292	1336.059	998.134
375.956	17.246	1335.387	997.274
376.971	17.289	1334.534	996.803
377.986	17.346	1333.566	996.322
379.000	17.389	1332.476	995.672
380.015	17.317	1331.866	994.709
381.029	17.371	1331.060	994.335
382.044	17.421	1330.555	994.157
383.059	17.430	1329.895	993.632
384.073	17.464	1329.258	993.263
385.088	17.553	1328.082	992.815
386.102	17.492	1327.599	992.015
387.117	17.551	1326.362	991.342
388.132	17.445	1326.315	990.603
389.146	17.575	1324.992	990.285
390.161	17.497	1324.316	989.239
391.175	17.503	1323.462	988.548
392.190	17.604	1322.488	988.321
393.205	17.615	1321.795	987.779
394.219	17.620	1320.699	986.901
395.234	17.551	1319.764	985.717
396.248	17.598	1318.519	984.972
397.263	17.692	1317.215	984.454
398.278	17.615	1315.390	982.557
399.292	17.556	1314.206	981.245
400.307	17.642	1313.673	981.253
401.321	17.560	1312.752	980.011
402.336	17.646	1311.665	979.606
403.350	17.721	1310.079	978.766
404.365	17.664	1309.216	977.707
405.380	17.654	1308.902	977.327
406.394	17.707	1308.071	976.927
407.409	17.781	1307.069	976.515
408.423	17.752	1306.611	975.921
409.438	17.725	1305.822	975.091
410.453	17.842	1304.787	974.899
411.467	17.812	1304.176	974.182
412.482	18.002	1303.513	974.688
413.496	17.856	1303.381	973.671
414.511	17.896	1302.179	972.914
415.526	18.026	1301.133	972.784
416.540	17.973	1300.554	971.964
417.555	18.004	1299.938	971.597
418.569	17.910	1299.856	970.912
419.584	17.937	1299.188	970.484
420.599	18.113	1297.993	970.500
421.613	102.071	1362.003	1490.802
422.628	100.198	1371.263	1490.882
