DTS Sentinel unit serial number:	SN413079Multiplexer serial number:	ORYXHardware model number:	OX4-SRSoftware version number:	ORYX F/W v4.00 Oryx Data Collector v3.7.2.0data status	okinstallation	princeton_trtdifferential loss correction	single-endedforward channel	channel 4reverse channel	N/Adate	2019/09/19time	11:29:35forward acquisition time	60.00reverse acquisition time	0.00gamma	496.2192k internal	0.2326k external	0.2326temperature offset calibration	1.0021default loss term (dB/km)	0.3790temperature slope calibration	1.0000multiplexer offset coefficient	1.0000multiplexer slope coefficient	1.0000fibre end	0.00T internal ref (°C)	25.37T ext. ref 1 (°C)	0.78T ext. ref 2 (°C)	21.23length (m)	temperature (°C)	Stokes	anti-Stokes-747.200	77.224	0.159	0.171
-746.185	-185.137	0.242	-0.004
-745.171	513.468	0.126	0.297
-744.156	-25.294	-0.363	0.217
-743.142	5.004	-0.097	-0.072
-742.127	-11.299	-0.500	0.332
-741.112	435.676	-0.133	0.291
-740.098	-200.000	-0.038	0.228
-739.083	-200.000	0.067	0.328
-738.069	-200.000	-0.042	0.325
-737.054	-200.000	0.010	0.394
-736.039	-78.516	-0.314	0.108
-735.025	-66.774	-0.208	0.083
-734.010	594.817	-0.094	0.235
-732.996	-6.501	-0.249	-0.171
-731.981	652.757	0.171	0.442
-730.966	-200.000	-0.052	0.281
-729.952	-200.000	0.013	-0.169
-728.937	-113.352	-0.278	-0.055
-727.923	122.113	-0.127	0.160
-726.908	-86.325	0.131	-0.041
-725.894	800.000	-0.024	-0.075
-724.879	-131.889	0.069	-0.009
-723.864	800.000	-0.032	-0.114
-722.850	254.131	-0.128	-0.220
-721.835	238.329	0.208	-0.347
-720.821	-185.945	-0.293	-0.004
-719.806	457.612	-0.098	-0.220
-718.791	171.827	0.132	-0.191
-717.777	-48.614	0.076	-0.037
-716.762	-5.128	0.231	-0.160
-715.748	21.118	0.195	0.160
-714.733	-70.726	-0.060	-0.023
-713.718	800.000	-0.069	-0.223
-712.704	800.000	0.014	0.042
-711.689	25.056	-0.073	0.061
-710.675	-70.452	-0.276	-0.105
-709.660	-108.502	0.101	-0.022
-708.645	-200.000	0.043	-0.236
-707.631	35.763	0.196	-0.174
-706.616	395.477	-0.077	0.162
-705.602	-76.234	-0.173	-0.061
-704.587	-129.674	0.154	0.021
-703.572	3.944	-0.055	0.041
-702.558	430.847	0.115	-0.251
-701.543	41.825	-0.125	-0.114
-700.529	-200.000	0.029	0.260
-699.514	142.554	0.140	0.187
-698.499	-200.000	0.000	-0.299
-697.485	235.328	0.037	0.061
-696.470	-200.000	0.004	0.277
-695.456	-32.868	-0.205	-0.115
-694.441	-34.388	0.131	-0.073
-693.426	800.000	0.149	0.431
-692.412	-72.590	-0.206	-0.077
-691.397	203.403	0.257	-0.400
-690.383	111.488	-0.108	-0.131
-689.368	248.128	0.038	-0.064
-688.354	-111.277	-0.342	0.070
-687.339	800.000	0.022	0.061
-686.324	-92.361	-0.314	0.089
-685.310	113.879	0.112	-0.137
-684.295	-200.000	0.022	-0.117
-683.281	-57.637	0.100	0.044
-682.266	-128.851	0.167	-0.024
-681.251	-129.435	-0.334	-0.047
-680.237	33.258	0.077	-0.068
-679.222	569.883	0.167	0.409
-678.208	6.467	0.131	-0.098
-677.193	800.000	0.084	0.244
-676.178	-114.432	-0.046	0.009
-675.164	509.307	0.186	-0.435
-674.149	-200.000	0.056	0.329
-673.135	148.085	0.151	-0.205
-672.120	-200.000	0.063	-0.315
-671.105	-56.302	-0.234	0.105
-670.091	85.002	-0.248	0.274
-669.076	-34.234	-0.040	-0.022
-668.062	140.197	0.034	0.046
-667.047	147.095	-0.148	0.200
-666.032	162.082	0.134	-0.188
-665.018	-130.492	-0.114	0.015
-664.003	-200.000	-0.007	0.232
-662.989	-114.641	0.060	0.011
-661.974	1.382	-0.170	-0.123
-660.959	-149.236	-0.272	0.022
-659.945	-126.768	-0.323	0.048
-658.930	147.630	0.195	0.264
-657.916	52.452	0.074	0.071
-656.901	-200.000	0.025	0.130
-655.886	133.579	-0.055	0.071
-654.872	458.294	-0.046	-0.102
-653.857	-88.040	-0.071	0.021
-652.843	-95.687	0.155	0.042
-651.828	172.485	-0.147	-0.213
-650.814	-66.796	0.177	-0.070
-649.799	800.000	-0.038	-0.144
-648.784	800.000	-0.088	-0.377
-647.770	800.000	0.083	0.233
-646.755	10.839	0.064	0.049
-645.741	-146.506	-0.087	0.008
-644.726	-26.976	-0.012	-0.007
-643.711	25.370	-0.185	-0.154
-642.697	-104.892	0.249	-0.057
-641.682	471.240	-0.197	0.444
-640.668	130.663	0.151	-0.195
-639.653	21.097	-0.302	-0.246
-638.638	-22.886	0.195	0.118
-637.624	-145.132	0.269	-0.025
-636.609	215.647	-0.194	0.309
-635.595	-85.818	-0.037	-0.012
-634.580	-200.000	-0.014	-0.432
-633.565	800.000	0.049	-0.178
-632.551	178.371	0.101	-0.148
-631.536	146.772	0.031	0.042
-630.522	-127.572	-0.163	0.024
-629.507	421.273	-0.088	-0.191
-628.492	800.000	0.104	-0.311
-627.478	-46.323	0.383	-0.189
-626.463	71.981	-0.178	-0.186
-625.449	44.507	-0.142	0.131
-624.434	19.792	0.106	0.086
-623.419	-33.497	0.098	0.054
-622.405	-85.507	-0.211	0.066
-621.390	800.000	0.072	0.302
-620.376	-200.000	-0.024	-0.110
-619.361	34.295	0.203	-0.177
-618.346	-32.362	-0.037	0.021
-617.332	47.109	0.166	0.155
-616.317	800.000	-0.041	0.127
-615.303	800.000	0.075	-0.219
-614.288	-138.883	0.247	-0.027
-613.273	-66.011	-0.234	0.094
-612.259	127.259	-0.070	0.089
-611.244	125.357	-0.172	0.217
-610.230	-157.958	0.250	-0.015
-609.215	800.000	-0.138	-0.399
-608.201	-10.708	0.081	-0.053
-607.186	347.418	0.056	-0.112
-606.171	-62.148	0.414	0.173
-605.157	718.952	0.143	-0.381
-604.142	800.000	-0.009	-0.032
-603.128	180.878	0.181	-0.267
-602.113	-200.000	-0.005	0.068
-601.098	-30.520	-0.148	-0.084
-600.084	634.754	-0.042	0.107
-599.069	-82.898	-0.207	0.067
-598.055	800.000	-0.024	0.090
-597.040	-50.590	-0.411	0.194
-596.025	366.972	-0.105	0.212
-595.011	302.018	-0.046	-0.086
-593.996	-78.201	0.068	-0.023
-592.982	800.000	0.022	0.073
-591.967	136.106	-0.187	0.244
-590.952	-53.358	0.129	0.059
-589.938	-200.000	-0.107	0.513
-588.923	-136.407	0.120	0.014
-587.909	-28.988	0.092	0.053
-586.894	-51.400	0.207	0.097
-585.879	-94.113	0.140	-0.038
-584.865	-133.866	0.393	0.049
-583.850	-72.962	0.243	0.089
-582.836	7.722	-0.152	-0.114
-581.821	-157.374	0.122	-0.007
-580.806	0.605	0.384	0.275
-579.792	24.064	-0.276	0.229
-578.777	65.431	-0.037	0.037
-577.763	351.436	0.108	0.213
-576.748	-117.347	-0.190	0.034
-575.733	38.222	-0.165	0.147
-574.719	-69.415	-0.217	-0.083
-573.704	-200.000	0.004	-0.171
-572.690	-68.693	-0.056	0.022
-571.675	-200.000	0.030	-0.347
-570.661	-68.932	0.224	-0.086
-569.646	800.000	0.019	-0.063
-568.631	-200.000	-0.064	0.340
-567.617	800.000	0.130	0.471
-566.602	-127.529	0.162	0.023
-565.588	8.015	-0.244	0.183
-564.573	1.623	0.153	0.110
-563.558	-97.197	-0.085	-0.022
-562.544	69.519	0.074	-0.077
-561.529	-143.865	0.171	-0.016
-560.515	96.084	-0.269	-0.307
-559.500	-200.000	0.046	0.219
-558.485	102.810	0.161	-0.188
-557.471	-2.501	0.041	-0.029
-556.456	-88.565	0.265	0.079
-555.442	-200.000	0.019	-0.120
-554.427	-34.983	-0.339	-0.185
-553.412	-200.000	0.030	0.158
-552.398	-185.265	0.120	0.002
-551.383	-37.513	-0.103	-0.055
-550.369	135.515	-0.063	-0.083
-549.354	-164.414	0.148	-0.007
-548.339	219.611	0.059	0.094
-547.325	-200.000	-0.017	-0.129
-546.310	-123.896	-0.336	0.053
-545.296	-33.266	-0.260	0.144
-544.281	-85.244	-0.163	0.051
-543.266	71.366	0.142	0.147
-542.252	1.872	0.136	-0.098
-541.237	-54.144	-0.188	0.086
-540.223	800.000	0.089	-0.361
-539.208	-166.877	-0.129	-0.005
-538.193	156.715	-0.033	0.045
-537.179	292.749	-0.237	-0.432
-536.164	-27.063	-0.059	0.034
-535.150	-142.451	-0.149	-0.015
-534.135	249.442	-0.083	-0.141
-533.121	-200.000	0.042	-0.236
-532.106	-63.331	0.142	0.058
-531.091	-101.516	0.118	0.029
-530.077	-190.800	0.092	0.001
-529.062	512.101	0.052	-0.122
-528.048	608.859	-0.071	-0.178
-527.033	-172.393	-0.073	-0.002
-526.018	37.406	-0.280	-0.248
-525.004	-185.144	-0.069	0.001
-523.989	45.542	-0.221	0.204
-522.975	198.917	-0.092	0.141
-521.960	-82.353	0.439	0.143
-520.945	32.754	-0.176	0.152
-519.931	-200.000	-0.017	-0.133
-518.916	572.722	-0.125	0.305
-517.902	41.933	-0.023	-0.021
-516.887	49.377	-0.032	0.030
-515.872	800.000	-0.040	0.137
-514.858	-200.000	-0.019	-0.157
-513.843	220.985	0.061	0.099
-512.829	-66.982	0.361	-0.143
-511.814	800.000	-0.086	-0.238
-510.799	252.047	-0.106	0.181
-509.785	-149.727	0.472	-0.037
-508.770	-132.138	-0.342	-0.044
-507.756	0.277	-0.157	-0.112
-506.741	570.779	0.019	-0.047
-505.726	-33.620	0.212	-0.117
-504.712	-125.178	0.231	-0.035
-503.697	-143.535	-0.347	0.033
-502.683	-200.000	-0.003	0.016
-501.668	-200.000	-0.033	0.195
-500.653	-104.616	0.347	-0.080
-499.639	-134.674	-0.289	-0.035
-498.624	4.202	0.224	0.164
-497.610	338.809	0.060	0.117
-496.595	124.798	0.122	0.153
-495.581	-80.768	-0.088	-0.029
-494.566	-180.603	0.186	-0.004
-493.551	-13.044	-0.139	0.090
-492.537	-33.588	0.223	-0.123
-491.522	-129.756	-0.329	0.045
-490.508	356.740	0.216	-0.429
-489.493	684.545	0.078	0.204
-488.478	130.635	-0.046	-0.058
-487.464	800.000	0.128	-0.438
-486.449	-98.586	-0.173	0.044
-485.435	-4.035	-0.213	-0.147
-484.420	800.000	-0.071	-0.215
-483.405	204.423	-0.111	0.171
-482.391	-168.255	-0.120	0.005
-481.376	800.000	0.036	-0.106
-480.362	-123.376	-0.154	0.024
-479.347	-200.000	-0.048	0.411
-478.332	20.888	0.218	0.176
-477.318	-14.918	-0.096	0.061
-476.303	176.657	-0.153	-0.222
-475.289	-76.813	-0.282	0.098
-474.274	-200.000	0.008	-0.128
-473.259	-136.038	0.286	0.034
-472.245	431.215	-0.093	-0.201
-471.230	-200.000	0.019	-0.404
-470.216	14.411	-0.086	0.067
-469.201	-200.000	0.013	0.152
-468.186	-200.000	0.025	-0.118
-467.172	800.000	-0.093	-0.292
-466.157	-200.000	-0.019	-0.212
-465.143	410.998	-0.095	-0.200
-464.128	800.000	-0.055	-0.172
-463.113	-19.429	0.085	0.052
-462.099	-37.391	-0.057	0.031
-461.084	-200.000	-0.004	0.088
-460.070	144.633	-0.118	-0.158
-459.055	-42.450	0.209	-0.106
-458.040	-121.731	0.312	-0.051
-457.026	368.300	0.147	-0.297
-456.011	-200.000	0.029	0.131
-454.997	702.292	-0.091	-0.240
-453.982	742.935	0.112	-0.299
-452.968	-148.013	0.230	-0.019
-451.953	252.201	-0.121	-0.206
-450.938	-177.237	-0.207	0.005
-449.924	48.857	-0.193	0.181
-448.909	41.915	-0.389	0.352
-447.895	144.771	0.172	0.229
-446.880	297.274	0.094	-0.173
-445.865	-144.384	-0.351	0.033
-444.851	687.000	-0.101	-0.263
-443.836	139.061	-0.095	0.125
-442.822	-200.000	-0.011	0.161
-441.807	657.785	0.106	-0.271
-440.792	-115.943	0.169	0.031
-439.778	-200.000	0.013	-0.216
-438.763	-169.761	-0.220	-0.008
-437.749	296.894	0.126	-0.230
-436.734	-42.350	-0.172	-0.087
-435.719	59.208	0.038	-0.038
-434.705	-200.000	0.008	0.330
-433.690	-133.024	0.111	-0.014
-432.676	25.523	-0.214	0.178
-431.661	274.748	0.116	0.204
-430.646	-200.000	-0.004	0.317
-429.632	-145.665	0.095	0.008
-428.617	-95.970	0.271	0.072
-427.603	-76.124	-0.312	0.110
-426.588	160.613	-0.012	0.017
-425.573	-200.000	-0.000	-0.249
-424.559	-200.000	-0.010	-0.282
-423.544	800.000	0.036	0.126
-422.530	8.840	0.061	0.046
-421.515	-22.073	0.087	-0.053
-420.500	185.466	0.093	-0.138
-419.486	414.748	-0.106	-0.224
-418.471	-71.824	-0.238	0.088
-417.457	-143.916	0.176	0.016
-416.442	-90.964	-0.307	0.088
-415.428	-97.834	-0.506	0.130
-414.413	-49.744	-0.346	-0.164
-413.398	112.811	0.169	-0.204
-412.384	-129.519	0.147	0.020
-411.369	-86.664	-0.389	0.118
-410.355	-74.849	0.145	0.052
-409.340	-200.000	-0.403	-0.002
-408.325	-58.868	-0.098	0.042
-407.311	-13.810	0.142	0.091
-406.296	-200.000	-0.034	-0.277
-405.282	-105.146	-0.102	0.023
-404.267	367.057	0.031	0.061
-403.252	-108.676	0.422	0.090
-402.238	-162.214	0.237	-0.012
-401.223	380.526	0.027	-0.055
-400.209	22.667	-0.299	-0.243
-399.194	13.229	0.117	0.090
-398.179	-115.919	0.099	-0.018
-397.165	-200.000	-0.043	-0.292
-396.150	-200.000	0.014	-0.063
-395.136	800.000	0.094	0.290
-394.121	-6.909	-0.146	0.099
-393.106	80.713	-0.290	-0.311
-392.092	436.939	-0.070	-0.151
-391.077	-9.351	0.092	0.061
-390.063	-200.000	-0.016	0.295
-389.048	-56.155	0.246	0.109
-388.033	-144.044	-0.133	0.012
-387.019	273.257	-0.066	0.116
-386.004	-131.003	0.225	0.030
-384.990	509.002	-0.178	0.412
-383.975	-56.835	-0.126	-0.055
-382.960	-200.000	0.006	-0.223
-381.946	-200.000	-0.020	-0.376
-380.931	2.311	-0.182	-0.131
-379.917	-187.930	0.270	-0.003
-378.902	-28.698	0.045	0.026
-377.888	304.076	-0.052	0.096
-376.873	-141.225	-0.345	-0.035
-375.858	97.991	0.185	0.212
-374.844	-12.561	0.058	-0.038
-373.829	-176.718	-0.400	-0.010
-372.815	-200.000	0.004	0.146
-371.800	320.990	0.092	0.175
-370.785	308.214	-0.195	0.362
-369.771	-200.000	0.040	0.219
-368.756	-75.681	0.145	0.051
-367.742	800.000	-0.088	0.261
-366.727	-89.874	0.093	-0.027
-365.712	-124.472	-0.208	0.032
-364.698	54.098	-0.056	-0.053
-363.683	34.179	-0.227	-0.196
-362.669	-147.927	0.325	0.027
-361.654	-54.299	-0.272	0.123
-360.639	312.143	0.105	0.196
-359.625	183.781	-0.312	0.459
-358.610	-124.336	0.530	-0.082
-357.596	-18.416	0.240	-0.149
-356.581	612.858	-0.162	0.404
-355.566	-6.297	0.109	-0.074
-354.552	-200.000	0.088	-0.463
-353.537	358.963	0.080	0.159
-352.523	-45.168	0.035	0.017
-351.508	139.167	-0.121	0.158
-350.493	292.284	-0.024	-0.044
-349.479	-164.996	-0.169	-0.007
-348.464	800.000	0.105	-0.299
-347.450	160.545	-0.092	-0.127
-346.435	-73.065	0.042	-0.015
-345.420	-200.000	0.001	-0.294
-344.406	-54.685	-0.172	0.077
-343.391	104.945	-0.257	0.301
-342.377	-58.378	-0.247	-0.107
-341.362	-200.000	0.084	0.376
-340.348	-200.000	-0.010	0.130
-339.333	328.245	-0.078	0.149
-338.318	-102.479	0.182	0.043
-337.304	-175.853	0.249	-0.007
-336.289	67.775	-0.328	0.332
-335.275	-200.000	0.005	0.109
-334.260	41.146	0.170	0.152
-333.245	-109.568	0.112	-0.023
-332.231	17.623	-0.247	0.195
-331.216	130.946	0.252	-0.321
-330.202	129.416	0.040	0.051
-329.187	101.923	-0.134	0.155
-328.172	-46.299	-0.108	0.053
-327.158	-108.497	0.344	-0.073
-326.143	257.070	0.082	0.140
-325.129	-143.832	-0.203	-0.019
-324.114	-43.014	0.227	-0.114
-323.099	18.610	0.279	-0.222
-322.085	-43.933	0.065	0.033
-321.070	-173.941	0.104	-0.003
-320.056	-63.907	-0.298	0.121
-319.041	-53.762	0.180	-0.081
-318.026	-200.000	-0.030	0.408
-317.012	-107.691	-0.338	0.073
-315.997	-88.615	0.044	-0.013
-314.983	-67.451	-0.158	-0.062
-313.968	89.018	0.238	-0.263
-312.953	80.220	0.052	0.056
-311.939	299.141	-0.173	0.315
-310.924	-100.797	0.076	-0.018
-309.910	-115.195	0.380	0.071
-308.895	-43.169	-0.131	-0.066
-307.880	-28.564	0.228	-0.130
-306.866	-200.000	-0.020	-0.164
-305.851	-159.739	0.139	0.008
-304.837	-175.320	-0.221	0.006
-303.822	240.620	-0.069	0.115
-302.807	-83.540	0.474	-0.150
-301.793	5.548	-0.024	0.018
-300.778	-200.000	0.039	-0.402
-299.764	-200.000	-0.034	-0.242
-298.749	-200.000	0.011	0.055
-297.735	84.098	0.229	0.248
-296.720	-14.689	0.040	0.025
-295.705	614.724	-0.040	-0.100
-294.691	2.455	-0.127	0.091
-293.676	-200.000	0.072	-0.332
-292.662	800.000	0.134	0.381
-291.647	-163.482	-0.402	-0.019
-290.632	189.701	0.130	-0.192
-289.618	-16.201	-0.276	-0.174
-288.603	800.000	-0.047	-0.144
-287.589	-179.567	0.249	0.005
-286.574	-200.000	0.016	0.081
-285.559	111.566	0.101	0.121
-284.545	63.233	0.230	0.229
-283.530	-200.000	-0.017	-0.249
-282.516	85.208	0.102	-0.111
-281.501	327.115	0.043	-0.082
-280.486	-200.000	0.008	-0.217
-279.472	120.179	-0.115	0.141
-278.457	-200.000	0.061	0.278
-277.443	95.643	-0.183	0.206
-276.428	-200.000	0.014	-0.180
-275.413	-8.934	0.006	0.004
-274.399	-88.316	0.480	-0.142
-273.384	-31.681	0.226	0.126
-272.370	-99.238	0.375	-0.094
-271.355	-161.102	-0.413	0.021
-270.340	56.492	0.216	-0.208
-269.326	-117.732	0.338	0.060
-268.311	-200.000	0.006	0.363
-267.297	73.059	-0.014	-0.015
-266.282	-192.258	-0.229	0.002
-265.267	-125.855	0.169	0.025
-264.253	-200.000	0.049	0.245
-263.238	-200.000	0.032	0.178
-262.224	726.089	-0.120	-0.317
-261.209	800.000	0.073	-0.272
-260.195	-23.014	0.203	0.121
-259.180	-200.000	-0.000	0.348
-258.165	-49.423	0.260	-0.123
-257.151	-156.352	-0.106	0.007
-256.136	30.382	-0.107	0.090
-255.122	73.873	0.216	0.224
-254.107	800.000	-0.070	0.245
-253.092	-200.000	0.000	0.285
-252.078	-200.000	0.036	-0.159
-251.063	95.929	-0.164	-0.185
-250.049	-52.255	-0.423	0.194
-249.034	800.000	-0.093	0.278
-248.019	-185.763	-0.515	-0.008
-247.005	-139.917	0.307	-0.032
-245.990	139.413	-0.143	0.186
-244.976	-49.831	0.155	-0.073
-243.961	-83.060	0.268	-0.085
-242.946	-24.609	-0.163	-0.096
-241.932	-200.000	0.037	-0.332
-240.917	185.126	0.139	-0.204
-239.903	-120.829	-0.161	0.027
-238.888	800.000	0.128	-0.440
-237.873	-88.732	0.272	-0.080
-236.859	222.655	0.140	-0.223
-235.844	372.856	0.108	0.216
-234.830	-200.000	-0.008	0.321
-233.815	-71.333	0.075	0.028
-232.800	-10.229	0.235	0.154
-231.786	800.000	0.009	0.033
-230.771	-99.125	0.035	-0.009
-229.757	560.528	0.121	0.290
-228.742	31.609	0.161	0.137
-227.727	5.936	0.143	-0.105
-226.713	20.674	-0.284	-0.227
-225.698	21.861	0.296	0.238
-224.684	-12.627	0.081	-0.052
-223.669	-21.293	0.115	0.069
-222.655	-198.985	-0.201	0.001
-221.640	-200.000	-0.001	0.196
-220.625	800.000	0.172	-0.533
-219.611	-91.718	-0.187	0.053
-218.596	212.568	-0.058	0.090
-217.582	7.062	0.144	-0.106
-216.567	-74.849	0.209	0.074
-215.552	-200.000	0.007	0.253
-214.538	241.376	0.074	-0.122
-213.523	470.477	-0.044	0.097
-212.509	800.000	-0.070	-0.257
-211.494	-22.833	-0.061	-0.036
-210.479	250.780	-0.018	-0.031
-209.465	218.045	0.128	-0.201
-208.450	-8.649	0.252	0.167
-207.436	-167.792	-0.090	0.003
-206.421	800.000	-0.128	-0.454
-205.406	-200.000	-0.031	-0.174
-204.392	-2.749	-0.184	-0.127
-203.377	322.783	-0.133	0.251
-202.363	-36.466	0.222	-0.118
-201.348	-15.442	-0.116	0.073
-200.333	-33.647	-0.285	0.155
-199.319	-124.440	0.396	0.061
-198.304	-44.120	0.199	0.099
-197.290	57.406	-0.077	-0.074
-196.275	-83.462	0.053	-0.017
-195.260	213.798	0.172	0.268
-194.246	29.151	-0.037	-0.031
-193.231	70.155	0.152	-0.155
-192.217	800.000	0.046	0.163
-191.202	-200.000	0.010	-0.185
-190.187	-200.000	-0.006	-0.065
-189.173	-104.655	-0.319	-0.073
-188.158	-200.000	0.026	-0.238
-187.144	508.282	0.038	0.087
-186.129	-50.202	0.048	-0.022
-185.114	-200.000	-0.082	-0.361
-184.100	-135.381	-0.117	0.014
-183.085	237.291	-0.099	-0.162
-182.071	252.805	-0.270	0.454
-181.056	221.605	0.040	-0.064
-180.042	13.274	-0.193	-0.147
-179.027	800.000	-0.089	-0.314
-178.012	-200.000	-0.089	-0.554
-176.998	800.000	0.123	0.365
-175.983	-7.314	-0.160	0.107
-174.969	-113.168	-0.426	0.083
-173.954	-109.649	-0.219	-0.045
-172.939	-62.220	0.397	0.163
-171.925	-58.139	-0.295	0.127
-170.910	-200.000	-0.029	0.302
-169.896	150.838	-0.172	-0.231
-168.881	-24.681	0.160	-0.094
-167.866	-200.000	0.054	0.422
-166.852	-88.970	0.325	-0.095
-165.837	63.018	-0.232	0.229
-164.823	88.798	0.170	0.186
-163.808	238.156	-0.144	-0.236
-162.793	-200.000	0.083	0.448
-161.779	37.349	-0.135	0.118
-160.764	152.527	0.193	0.259
-159.750	-151.252	-0.023	0.002
-158.735	7.798	0.199	0.147
-157.720	-200.000	-0.004	-0.127
-156.706	-104.295	-0.059	0.013
-155.691	19.187	0.279	0.221
-154.677	573.480	-0.209	-0.503
-153.662	54.330	0.046	-0.044
-152.647	-38.341	-0.334	-0.174
-151.633	-107.885	-0.208	0.045
-150.618	-74.712	-0.174	-0.062
-149.604	-42.365	0.290	0.146
-148.589	800.000	-0.115	0.401
-147.574	800.000	0.085	0.319
-146.560	-200.000	-0.001	-0.147
-145.545	200.821	0.189	-0.286
-144.531	-159.198	-0.108	0.006
-143.516	-53.389	0.082	0.037
-142.502	235.494	0.017	0.028
-141.487	-13.749	-0.229	0.146
-140.472	-84.336	0.370	-0.115
-139.458	-133.088	0.148	0.018
-138.443	-200.000	-0.270	0.000
-137.429	-155.400	0.245	0.016
-136.414	-200.000	0.049	0.219
-135.399	510.485	-0.047	0.107
-134.385	-155.755	-0.236	-0.015
-133.370	-28.022	0.249	-0.142
-132.356	-154.414	-0.277	-0.018
-131.341	14.288	-0.238	-0.182
-130.326	-159.107	-0.089	0.005
-129.312	47.334	0.169	0.155
-128.297	-51.199	0.072	-0.033
-127.283	-119.200	0.264	-0.045
-126.268	61.820	-0.035	-0.035
-125.253	136.825	0.216	-0.278
-124.239	-125.578	0.211	-0.031
-123.224	-144.437	-0.225	-0.021
-122.210	800.000	-0.039	-0.151
-121.195	800.000	0.031	-0.094
-120.180	-200.000	0.018	0.452
-119.166	-49.715	0.056	0.026
-118.151	-9.673	-0.207	-0.136
-117.137	60.517	-0.172	-0.168
-116.122	-129.454	-0.185	0.025
-115.107	800.000	-0.079	-0.267
-114.093	308.329	0.085	0.157
-113.078	228.256	0.092	0.147
-112.064	-24.910	0.117	-0.069
-111.049	800.000	0.032	-0.089
-110.034	-71.489	0.291	-0.107
-109.020	-132.410	-0.162	0.020
-108.005	-73.391	-0.050	-0.018
-106.991	-200.000	-0.019	0.272
-105.976	-157.695	0.065	0.004
-104.962	164.887	-0.160	-0.222
-103.947	47.484	0.227	0.208
-102.932	195.276	-0.103	0.153
-101.918	473.353	0.092	-0.204
-100.903	-93.548	-0.397	0.108
-99.889	57.113	-0.042	0.040
-98.874	-20.612	0.096	0.058
-97.859	-168.145	0.208	0.008
-96.845	209.928	0.015	-0.023
-95.830	-200.000	-0.014	0.089
-94.816	800.000	0.068	0.186
-93.801	576.584	-0.171	-0.411
-92.786	-54.995	0.358	-0.158
-91.772	614.810	0.045	-0.112
-90.757	99.752	0.100	-0.113
-89.743	-200.000	-0.032	-0.189
-88.728	749.565	0.150	0.398
-87.713	-70.717	0.132	0.049
-86.699	49.497	0.075	-0.069
-85.684	48.095	0.218	-0.200
-84.670	28.148	-0.120	-0.099
-83.655	-46.070	0.084	-0.041
-82.640	-200.000	-0.058	0.309
-81.626	35.041	0.241	0.207
-80.611	800.000	0.039	0.141
-79.597	54.053	-0.273	-0.258
-78.582	-8.094	-0.114	-0.076
-77.567	800.000	0.083	-0.312
-76.553	-48.933	0.143	-0.067
-75.538	-35.570	-0.299	-0.160
-74.524	-200.000	0.028	0.262
-73.509	39.584	-0.068	0.060
-72.494	-200.000	0.040	-0.279
-71.480	2.356	0.027	0.019
-70.465	482.879	0.148	-0.331
-69.451	-84.653	-0.037	-0.011
-68.436	62.195	0.084	0.082
-67.422	-200.000	0.008	-0.559
-66.407	-104.200	0.286	-0.065
-65.392	73.784	0.099	0.102
-64.378	-111.770	0.436	0.087
-63.363	6.307	-0.178	0.130
-62.349	-154.975	0.157	0.010
-61.334	218.805	-0.887	-1.391
-60.319	-1.657	1.036	0.716
-59.305	800.000	-0.425	-1.198
-58.290	738.256	0.612	1.612
-57.276	800.000	0.460	1.556
-56.261	-200.000	119.470	616.021
-55.246	384.529	1571.155	3177.747
-54.232	136.162	2760.634	3532.327
-53.217	86.993	2366.218	2565.718
-52.203	31.681	2103.449	1776.195
-51.188	27.160	2016.145	1661.187
-50.173	25.877	1998.732	1635.144
-49.159	42.651	2063.552	1843.650
-48.144	41.668	2077.292	1846.774
-47.130	27.607	2033.524	1679.363
-46.115	25.477	2022.356	1650.539
-45.100	25.289	2020.148	1646.946
-44.086	25.346	2016.819	1644.688
-43.071	25.215	2014.527	1641.550
-42.057	25.263	2012.121	1639.966
-41.042	25.213	2010.770	1638.344
-40.027	25.287	2008.644	1637.222
-39.013	25.273	2006.903	1635.612
-37.998	25.292	2005.213	1634.342
-36.984	25.271	2003.302	1632.527
-35.969	25.221	2001.810	1630.794
-34.954	25.255	2000.030	1629.589
-33.940	25.359	1998.278	1629.036
-32.925	25.393	1996.469	1627.808
-31.911	25.390	1995.321	1626.773
-30.896	25.416	1993.207	1625.221
-29.881	25.357	1991.799	1623.475
-28.867	25.459	1990.213	1623.044
-27.852	25.454	1988.103	1621.217
-26.838	25.405	1986.847	1619.684
-25.823	25.416	1984.737	1617.998
-24.809	25.353	1983.462	1616.326
-23.794	25.484	1980.901	1615.356
-22.779	25.326	1979.739	1612.919
-21.765	25.401	1977.846	1611.989
-20.750	25.444	1975.898	1610.719
-19.736	25.342	1974.728	1608.788
-18.721	25.375	1973.145	1607.737
-17.706	25.503	1970.840	1606.934
-16.692	25.433	1969.547	1605.187
-15.677	25.415	1967.809	1603.548
-14.663	25.401	1966.527	1602.322
-13.648	25.346	1965.623	1601.029
-12.633	25.349	1964.075	1599.732
-11.619	25.312	1962.951	1598.423
-10.604	25.469	1961.122	1598.268
-9.590	25.355	1960.135	1596.385
-8.575	25.426	1958.269	1595.430
-7.560	25.398	1957.370	1594.387
-6.546	25.482	1955.870	1593.850
-5.531	25.414	1954.676	1592.205
-4.517	25.428	1953.362	1591.200
-3.502	25.476	1951.965	1590.425
-2.487	25.408	1951.135	1589.080
-1.473	25.455	1949.861	1588.391
-0.458	25.528	1945.242	1585.214
0.556	24.497	1925.391	1559.154
1.571	20.460	1907.205	1509.298
2.586	16.678	1930.812	1494.514
3.600	15.615	1966.696	1512.593
4.615	15.599	1960.714	1507.709
5.629	12.478	1858.708	1402.559
6.644	5.176	1742.125	1255.902
7.659	1.191	1707.459	1199.339
8.673	0.857	1704.309	1194.383
9.688	0.822	1703.232	1193.249
10.702	0.802	1701.341	1191.662
11.717	0.640	1698.153	1188.047
12.731	1.070	1697.618	1190.952
13.746	6.444	1708.128	1240.622
14.761	13.471	1722.508	1306.592
15.775	16.771	1727.610	1336.422
16.790	17.171	1727.827	1339.628
17.804	16.280	1724.398	1329.839
18.819	15.425	1721.076	1320.433
19.834	14.782	1718.794	1313.509
20.848	14.446	1717.501	1309.768
21.863	14.296	1715.053	1306.604
22.877	13.892	1713.804	1302.374
23.892	13.808	1712.068	1300.281
24.907	13.695	1711.135	1298.575
25.921	13.673	1709.732	1297.222
26.936	13.651	1708.879	1296.287
27.950	13.597	1708.562	1295.507
28.965	13.672	1708.147	1295.661
29.980	13.702	1706.692	1294.681
30.994	13.844	1705.772	1294.977
32.009	13.779	1705.158	1293.891
33.023	13.867	1704.202	1293.732
34.038	13.842	1703.363	1292.789
35.053	13.805	1702.294	1291.575
36.067	13.791	1700.986	1290.359
37.082	13.826	1700.299	1289.994
38.096	13.796	1699.065	1288.709
39.111	13.820	1698.324	1288.222
40.126	13.851	1697.594	1287.799
41.140	13.836	1696.421	1286.676
42.155	13.639	1695.375	1284.243
43.169	13.622	1694.250	1283.140
44.184	13.660	1692.168	1281.745
45.199	13.657	1691.262	1280.926
46.213	13.577	1690.448	1279.580
47.228	13.733	1688.577	1279.249
48.242	13.751	1687.678	1278.593
49.257	13.714	1686.372	1277.207
50.271	13.757	1684.698	1276.158
51.286	13.730	1683.865	1275.205
52.301	13.764	1682.300	1274.167
53.315	13.725	1680.921	1272.710
54.330	13.733	1678.998	1271.206
55.344	13.725	1677.661	1270.017
56.359	13.675	1676.741	1268.826
57.374	13.704	1675.169	1267.752
58.388	13.667	1673.742	1266.273
59.403	13.710	1672.497	1265.551
60.417	13.660	1671.361	1264.198
61.432	13.678	1669.921	1263.129
62.447	13.657	1668.491	1261.778
63.461	13.580	1667.463	1260.302
64.476	13.552	1666.311	1259.106
65.490	13.527	1665.699	1258.346
66.505	13.504	1663.986	1256.765
67.520	13.547	1662.817	1256.096
68.534	13.664	1661.658	1256.000
69.549	13.604	1660.922	1254.871
70.563	13.576	1659.362	1253.374
71.578	13.651	1658.175	1252.935
72.593	13.628	1656.817	1251.621
73.607	13.514	1656.361	1250.303
74.622	13.554	1654.963	1249.444
75.636	13.621	1653.431	1248.682
76.651	13.616	1652.788	1248.046
77.666	13.649	1651.965	1247.563
78.680	13.542	1651.052	1245.956
79.695	13.649	1650.104	1245.932
80.709	13.544	1648.874	1244.109
81.724	13.547	1648.005	1243.367
82.739	13.620	1647.073	1243.101
83.753	13.637	1646.214	1242.466
84.768	13.633	1645.345	1241.676
85.782	13.696	1644.079	1241.078
86.797	13.830	1643.097	1241.233
87.812	13.787	1641.878	1239.876
88.826	13.686	1640.872	1238.255
89.841	13.587	1639.912	1236.683
90.855	13.579	1638.697	1235.596
91.870	13.624	1637.890	1235.217
92.884	13.675	1636.577	1234.497
93.899	13.679	1635.736	1233.781
94.914	13.762	1634.093	1233.049
95.928	13.850	1632.599	1232.470
96.943	13.832	1631.238	1231.193
97.957	13.772	1630.097	1229.780
98.972	13.785	1628.445	1228.522
99.987	13.815	1626.679	1227.301
101.001	13.840	1624.759	1225.931
102.016	13.738	1623.589	1224.189
103.030	13.689	1622.305	1222.749
104.045	13.690	1621.564	1222.086
105.060	13.736	1619.839	1221.021
106.074	13.674	1618.938	1219.777
107.089	13.691	1617.245	1218.520
108.103	13.653	1615.349	1216.701
109.118	13.698	1613.811	1215.767
110.133	13.561	1612.205	1213.445
111.147	13.624	1611.175	1213.021
112.162	13.599	1609.859	1211.742
113.176	13.616	1608.518	1210.754
114.191	13.720	1606.888	1210.179
115.206	13.739	1605.384	1209.073
116.220	13.677	1604.213	1207.636
117.235	13.723	1602.569	1206.626
118.249	13.754	1600.936	1205.513
119.264	13.723	1599.792	1204.319
120.279	13.641	1598.880	1202.930
121.293	13.635	1596.891	1201.288
122.308	13.706	1595.350	1200.537
123.322	13.699	1594.104	1199.440
124.337	13.619	1592.936	1197.876
125.352	13.701	1591.001	1196.908
126.366	13.666	1590.181	1195.931
127.381	13.656	1589.178	1195.002
128.395	13.707	1587.786	1194.218
129.410	13.726	1586.589	1193.344
130.424	13.714	1584.788	1191.803
131.439	13.781	1583.408	1191.135
132.454	13.694	1582.384	1189.639
133.468	13.784	1580.629	1188.857
134.483	13.755	1579.350	1187.584
135.497	13.832	1577.581	1186.697
136.512	13.789	1576.880	1185.756
137.527	13.752	1575.333	1184.226
138.541	13.773	1574.103	1183.350
139.556	13.752	1572.350	1181.774
140.570	13.817	1570.987	1181.110
141.585	13.859	1569.533	1180.212
142.600	13.877	1568.472	1179.433
143.614	13.816	1567.256	1177.986
144.629	13.875	1566.280	1177.565
145.643	13.934	1564.466	1176.513
146.658	13.907	1563.343	1175.373
147.673	13.963	1561.272	1174.107
148.687	13.908	1560.234	1172.838
149.702	13.915	1558.387	1171.396
150.716	13.971	1557.046	1170.674
151.731	13.830	1555.901	1168.723
152.746	13.887	1554.325	1167.830
153.760	13.966	1553.141	1167.393
154.775	13.894	1551.887	1165.844
155.789	13.866	1550.478	1164.483
156.804	13.975	1549.367	1164.315
157.819	13.812	1548.406	1162.342
158.833	13.931	1547.086	1162.082
159.848	14.021	1545.723	1161.589
160.862	14.097	1544.472	1161.073
161.877	14.079	1543.208	1159.893
162.892	14.018	1541.770	1158.286
163.906	14.044	1540.463	1157.387
164.921	14.005	1539.407	1156.217
165.935	14.037	1538.065	1155.330
166.950	14.004	1537.558	1154.614
167.964	14.031	1536.388	1153.823
168.979	14.076	1534.809	1152.845
169.994	14.198	1533.923	1152.927
171.008	14.018	1533.557	1151.298
172.023	14.130	1532.195	1150.950
173.037	14.106	1530.762	1149.607
174.052	14.094	1529.821	1148.720
175.067	14.131	1528.406	1147.808
176.081	14.158	1527.204	1146.993
177.096	14.106	1525.995	1145.621
178.110	14.092	1524.798	1144.523
179.125	14.114	1523.608	1143.683
180.140	14.238	1522.048	1143.260
181.154	14.107	1521.731	1142.025
182.169	14.200	1519.876	1141.166
183.183	14.249	1518.732	1140.542
184.198	14.214	1518.091	1139.724
185.213	14.315	1516.118	1138.832
186.227	14.255	1515.448	1137.820
187.242	14.329	1514.202	1137.287
188.256	14.342	1513.104	1136.450
189.271	14.412	1512.049	1136.036
190.286	14.329	1511.362	1134.849
191.300	14.322	1510.296	1133.905
192.315	14.352	1508.816	1132.897
193.329	14.168	1507.773	1130.760
194.344	14.254	1506.394	1130.213
195.359	14.293	1505.321	1129.574
196.373	14.295	1504.717	1129.032
197.388	14.314	1503.626	1128.244
198.402	14.349	1502.358	1127.429
199.417	14.486	1501.013	1127.247
200.432	14.503	1500.028	1126.518
201.446	14.493	1499.197	1125.730
202.461	14.527	1497.836	1124.834
203.475	14.496	1496.905	1123.829
204.490	14.511	1495.620	1122.866
205.504	14.637	1494.726	1122.940
206.519	14.566	1493.279	1121.276
207.534	14.531	1492.025	1120.004
208.548	14.567	1491.332	1119.623
209.563	14.567	1490.077	1118.587
210.577	14.588	1489.005	1117.819
211.592	14.515	1488.722	1117.022
212.607	14.582	1487.640	1116.556
213.621	14.566	1486.457	1115.466
214.636	14.677	1485.900	1115.689
215.650	14.660	1484.885	1114.716
216.665	14.685	1483.793	1113.964
217.680	14.675	1482.888	1113.120
218.694	14.805	1482.461	1113.567
219.709	14.815	1481.241	1112.619
220.723	14.761	1480.156	1111.347
221.738	14.794	1479.628	1111.072
222.753	14.829	1478.459	1110.329
223.767	14.765	1477.565	1109.135
224.782	14.807	1476.301	1108.367
225.796	14.982	1475.137	1108.550
226.811	14.919	1474.999	1107.929
227.826	14.871	1474.197	1106.916
228.840	14.938	1472.840	1106.240
229.855	14.846	1471.827	1104.773
230.869	14.773	1471.187	1103.715
231.884	14.923	1469.819	1103.577
232.899	14.920	1468.755	1102.661
233.913	14.866	1467.685	1101.407
234.928	14.891	1466.619	1100.676
235.942	14.885	1465.324	1099.563
236.957	14.736	1464.022	1097.510
237.972	14.949	1462.579	1097.730
238.986	14.890	1461.849	1096.701
240.001	14.944	1460.522	1095.963
241.015	14.980	1459.447	1095.290
242.030	14.974	1458.614	1094.531
243.045	14.989	1457.254	1093.513
244.059	14.988	1456.510	1092.849
245.074	15.078	1455.494	1092.578
246.088	14.958	1455.138	1091.432
247.103	15.111	1453.745	1091.285
248.117	15.010	1453.074	1090.027
249.132	15.151	1452.615	1090.507
250.147	15.192	1451.858	1090.109
251.161	15.232	1450.989	1089.618
252.176	15.221	1450.168	1088.832
253.190	15.330	1449.623	1089.036
254.205	15.339	1448.464	1088.129
255.220	15.355	1447.668	1087.534
256.234	15.349	1446.888	1086.817
257.249	15.448	1445.990	1086.689
258.263	15.341	1445.022	1085.172
259.278	15.425	1444.373	1085.129
260.293	15.370	1443.455	1083.990
261.307	15.495	1442.622	1084.077
262.322	15.474	1441.979	1083.364
263.336	15.549	1441.181	1083.151
264.351	15.548	1439.912	1082.091
265.366	15.578	1438.939	1081.458
266.380	15.534	1437.971	1080.354
267.395	15.477	1437.460	1079.505
268.409	15.586	1436.182	1079.151
269.424	15.596	1434.894	1078.156
270.439	15.537	1434.091	1077.075
271.453	15.575	1432.833	1076.277
272.468	15.484	1432.524	1075.368
273.482	15.605	1431.442	1075.233
274.497	15.620	1430.525	1074.545
275.512	15.653	1429.686	1074.035
276.526	15.556	1428.785	1072.643
277.541	15.600	1427.989	1072.232
278.555	15.639	1426.871	1071.547
279.570	15.629	1426.024	1070.750
280.585	15.670	1425.111	1070.233
281.599	15.694	1424.159	1069.574
282.614	15.739	1423.405	1069.201
283.628	15.731	1422.077	1068.058
284.643	15.708	1420.877	1066.916
285.657	15.795	1419.515	1066.350
286.672	15.753	1418.960	1065.574
287.687	15.707	1418.364	1064.735
288.701	15.715	1417.419	1063.987
289.716	15.772	1416.198	1063.337
290.730	15.815	1415.871	1063.269
291.745	15.907	1414.522	1062.743
292.760	15.866	1413.573	1061.676
293.774	15.888	1412.400	1060.840
294.789	15.797	1411.842	1059.755
295.803	15.952	1410.669	1059.751
296.818	15.947	1409.160	1058.492
297.833	15.972	1408.819	1058.301
298.847	15.920	1408.048	1057.302
299.862	15.960	1406.771	1056.498
300.876	15.875	1405.875	1055.201
301.891	15.957	1404.946	1054.927
302.906	15.942	1404.300	1054.252
303.920	15.972	1403.519	1053.758
304.935	16.088	1402.510	1053.636
305.949	16.144	1401.516	1053.148
306.964	16.157	1400.982	1052.734
307.979	16.262	1399.681	1052.316
308.993	16.195	1398.813	1051.155
310.008	16.272	1397.928	1050.871
311.022	16.160	1397.025	1049.406
312.037	16.126	1396.102	1048.408
313.052	16.163	1394.947	1047.677
314.066	16.304	1394.127	1047.843
315.081	16.216	1393.087	1046.422
316.095	16.175	1391.764	1045.083
317.110	16.202	1390.541	1044.239
318.125	16.236	1389.706	1043.728
319.139	16.165	1389.353	1042.933
320.154	16.246	1388.083	1042.390
321.168	16.252	1386.908	1041.452
322.183	16.301	1385.717	1040.768
323.197	16.272	1385.015	1039.971
324.212	16.260	1384.315	1039.279
325.227	16.317	1383.038	1038.576
326.241	16.276	1382.722	1037.993
327.256	16.356	1381.518	1037.492
328.270	16.327	1380.761	1036.651
329.285	16.292	1380.068	1035.827
330.300	16.356	1379.203	1035.476
331.314	16.414	1377.484	1034.449
332.329	16.379	1377.106	1033.859
333.343	16.390	1375.869	1032.908
334.358	16.355	1375.130	1032.046
335.373	16.452	1374.302	1031.929
336.387	16.467	1373.538	1031.355
337.402	16.453	1372.766	1030.599
338.416	16.477	1372.348	1030.341
339.431	16.358	1371.877	1029.171
340.446	16.451	1371.090	1029.057
341.460	16.561	1369.691	1028.584
342.475	16.653	1368.203	1027.935
343.489	16.565	1368.195	1027.303
344.504	16.566	1367.041	1026.350
345.519	16.544	1366.401	1025.646
346.533	16.745	1364.750	1025.534
347.548	16.653	1364.470	1024.671
348.562	16.744	1363.239	1024.209
349.577	16.741	1362.797	1023.769
350.592	16.687	1361.726	1022.548
351.606	16.624	1361.103	1021.610
352.621	16.654	1360.063	1020.921
353.635	16.711	1358.976	1020.354
354.650	16.623	1358.219	1019.167
355.665	16.747	1356.679	1018.667
356.679	16.755	1355.941	1018.068
357.694	16.702	1354.741	1016.764
358.708	16.797	1353.762	1016.506
359.723	16.780	1352.803	1015.596
360.738	16.818	1351.436	1014.704
361.752	16.909	1350.440	1014.412
362.767	16.850	1349.550	1013.303
363.781	16.800	1349.276	1012.705
364.796	16.872	1347.962	1012.063
365.810	16.844	1347.591	1011.525
366.825	16.931	1346.569	1011.189
367.840	17.043	1345.258	1010.780
368.854	17.080	1344.914	1010.656
369.869	17.126	1343.811	1010.012
370.883	16.981	1343.931	1009.146
371.898	17.053	1342.916	1008.723
372.913	17.018	1342.241	1007.921
373.927	16.979	1341.255	1006.857
374.942	17.089	1340.083	1006.540
375.956	17.110	1339.351	1006.027
376.971	17.183	1338.325	1005.602
377.986	17.136	1338.087	1005.057
379.000	17.105	1337.298	1004.188
380.015	17.149	1336.255	1003.579
381.029	17.197	1335.453	1003.172
382.044	17.244	1334.699	1002.792
383.059	17.260	1333.928	1002.216
384.073	17.293	1333.253	1001.817
385.088	17.264	1332.753	1001.182
386.102	17.372	1332.040	1001.194
387.117	17.239	1331.341	999.795
388.132	17.272	1330.617	999.360
389.146	17.246	1329.723	998.449
390.161	17.384	1328.719	998.417
391.175	17.362	1328.150	997.770
392.190	17.291	1327.249	996.586
393.205	17.455	1326.168	996.646
394.219	17.426	1325.380	995.799
395.234	17.492	1323.946	995.019
396.248	17.440	1322.914	993.851
397.263	17.435	1321.720	992.840
398.278	17.385	1320.182	991.306
399.292	17.421	1319.238	990.713
400.307	17.489	1318.122	990.188
401.321	17.471	1317.020	989.166
402.336	17.463	1316.123	988.359
403.350	17.396	1315.065	987.084
404.365	17.486	1314.015	986.732
405.380	17.457	1313.436	986.046
406.394	17.520	1312.642	985.724
407.409	17.452	1312.046	984.800
408.423	17.576	1311.025	984.659
409.438	17.503	1310.726	983.930
410.453	17.669	1309.568	983.927
411.467	17.676	1308.940	983.413
412.482	17.709	1308.039	982.835
413.496	17.698	1307.828	982.528
414.511	17.698	1306.685	981.582
415.526	17.752	1305.812	981.153
416.540	17.883	1304.797	981.054
417.555	17.806	1304.323	980.167
418.569	17.861	1304.186	980.292
419.584	17.766	1303.691	979.289
420.599	17.817	1302.662	978.724
421.613	99.457	1360.296	1484.919
422.628	97.794	1368.634	1484.999
