DTS Sentinel unit serial number:	SN413079Multiplexer serial number:	ORYXHardware model number:	OX4-SRSoftware version number:	ORYX F/W v4.00 Oryx Data Collector v3.7.2.0data status	okinstallation	princeton_trtdifferential loss correction	single-endedforward channel	channel 4reverse channel	N/Adate	2019/09/14time	20:21:35forward acquisition time	60.00reverse acquisition time	0.00gamma	496.2192k internal	0.2305k external	0.2305temperature offset calibration	1.0090default loss term (dB/km)	0.3790temperature slope calibration	1.0000multiplexer offset coefficient	1.0000multiplexer slope coefficient	1.0000fibre end	0.00T internal ref (°C)	33.67T ext. ref 1 (°C)	4.84T ext. ref 2 (°C)	28.18length (m)	temperature (°C)	Stokes	anti-Stokes-747.200	166.867	0.221	0.319
-746.185	307.217	0.028	0.053
-745.171	25.288	0.212	0.179
-744.156	-200.000	-0.014	-0.244
-743.142	-96.735	0.411	-0.110
-742.127	-1.451	0.223	0.160
-741.112	-19.368	0.273	0.173
-740.098	-70.487	-0.311	0.120
-739.083	-150.263	0.227	0.018
-738.069	7.520	0.184	0.140
-737.054	-200.000	-0.013	0.101
-736.039	83.607	0.185	0.205
-735.025	800.000	0.155	0.448
-734.010	607.353	-0.179	-0.455
-732.996	769.660	0.030	0.084
-731.981	-200.000	0.067	0.302
-730.966	-82.591	-0.197	-0.065
-729.952	-200.000	-0.025	-0.295
-728.937	-200.000	-0.144	0.001
-727.923	38.282	-0.076	-0.069
-726.908	800.000	0.142	-0.456
-725.894	-23.469	-0.182	-0.111
-724.879	79.736	-0.068	0.074
-723.864	800.000	0.038	0.109
-722.850	-72.683	0.307	0.115
-721.835	20.969	-0.158	-0.131
-720.821	57.685	0.173	-0.172
-719.806	-180.599	-0.207	0.004
-718.791	92.778	0.156	0.179
-717.777	731.915	-0.091	-0.248
-716.762	-199.229	0.217	-0.001
-715.748	800.000	0.050	-0.167
-714.733	96.404	0.054	-0.063
-713.718	-131.484	0.314	-0.042
-712.704	800.000	-0.057	-0.183
-711.689	60.486	-0.209	0.211
-710.675	-200.000	0.065	-0.461
-709.660	-130.150	-0.214	0.030
-708.645	406.405	0.125	-0.268
-707.631	228.333	-0.195	-0.323
-706.616	339.782	0.134	-0.265
-705.602	568.797	0.084	-0.208
-704.587	51.702	0.228	0.221
-703.572	-200.000	-0.035	-0.302
-702.558	-63.917	-0.242	-0.101
-701.543	-4.831	0.219	0.154
-700.529	87.408	0.162	0.182
-699.514	15.601	-0.151	-0.121
-698.499	-108.905	0.117	-0.025
-697.485	-169.538	0.297	0.011
-696.470	105.821	-0.039	0.047
-695.456	800.000	-0.093	0.333
-694.441	-159.347	0.170	-0.010
-693.426	-127.518	-0.063	0.009
-692.412	-41.105	0.032	0.017
-691.397	49.404	-0.127	0.121
-690.383	-65.057	0.204	-0.083
-689.368	271.243	0.125	0.224
-688.354	8.040	0.229	-0.175
-687.339	17.660	0.105	0.085
-686.324	-67.547	-0.082	0.033
-685.310	800.000	0.040	-0.156
-684.295	125.249	0.026	-0.033
-683.281	-194.331	0.125	-0.001
-682.266	-77.773	-0.309	-0.108
-681.251	-51.559	-0.222	-0.105
-680.237	30.446	0.059	0.051
-679.222	-0.252	-0.025	-0.018
-678.208	-115.328	-0.203	0.039
-677.193	22.425	-0.403	0.335
-676.178	47.684	-0.192	-0.181
-675.164	-85.302	-0.165	0.052
-674.149	-173.561	0.102	-0.003
-673.135	-200.000	0.019	0.242
-672.120	161.412	-0.074	-0.104
-671.105	357.671	-0.262	-0.531
-670.091	7.893	0.217	0.165
-669.076	-18.799	0.083	-0.052
-668.062	800.000	0.095	-0.267
-667.047	468.194	0.084	0.191
-666.032	54.158	-0.361	0.352
-665.018	158.468	-0.125	0.176
-664.003	-90.879	0.175	-0.051
-662.989	-200.000	-0.029	-0.155
-661.974	89.340	-0.063	-0.072
-660.959	-200.000	0.002	0.186
-659.945	-200.000	0.026	0.135
-658.930	-15.167	-0.232	-0.151
-657.916	408.629	0.106	-0.227
-656.901	197.249	-0.094	0.145
-655.886	-77.804	0.347	0.122
-654.872	-127.358	-0.235	-0.035
-653.857	-73.436	0.158	0.059
-652.843	-200.000	-0.021	-0.174
-651.828	36.456	-0.237	0.212
-650.814	630.780	-0.045	0.114
-649.799	800.000	-0.071	-0.273
-648.784	800.000	-0.025	0.100
-647.770	-119.678	-0.225	-0.039
-646.755	-175.589	-0.103	0.003
-645.741	-60.248	-0.179	-0.077
-644.726	-200.000	0.039	-0.305
-643.711	-79.129	-0.155	0.053
-642.697	-200.000	-0.013	-0.120
-641.682	11.320	0.081	-0.063
-640.668	-58.277	-0.198	-0.087
-639.653	218.069	-0.119	-0.193
-638.638	-200.000	0.008	-0.069
-637.624	-150.361	-0.312	-0.024
-636.609	-82.737	0.163	-0.053
-635.595	-31.782	-0.022	0.012
-634.580	232.921	0.186	-0.310
-633.565	189.939	0.147	-0.223
-632.551	190.697	-0.169	-0.257
-631.536	-200.000	0.046	0.326
-630.522	-200.000	-0.024	0.151
-629.507	64.682	-0.101	0.103
-628.492	399.172	0.043	0.091
-627.478	-200.000	0.001	0.055
-626.463	-200.000	-0.010	-0.117
-625.449	-49.191	-0.122	0.059
-624.434	99.764	-0.166	-0.195
-623.419	-95.201	0.306	0.084
-622.405	800.000	0.086	0.331
-621.390	146.170	0.051	0.069
-620.376	-157.051	0.202	0.012
-619.361	79.054	-0.096	0.105
-618.346	-126.447	0.107	0.016
-617.332	800.000	-0.055	0.159
-616.317	255.089	-0.101	-0.176
-615.303	-200.000	0.026	-0.382
-614.288	-134.035	0.352	-0.044
-613.273	-200.000	0.002	-0.090
-612.259	-127.656	-0.582	0.085
-611.244	10.661	-0.079	-0.061
-610.230	800.000	0.151	0.475
-609.215	82.123	0.272	-0.298
-608.201	70.532	-0.164	-0.172
-607.186	117.594	-0.072	-0.089
-606.171	219.821	-0.028	-0.045
-605.157	800.000	0.093	0.288
-604.142	285.468	-0.089	-0.162
-603.128	-200.000	0.009	-0.196
-602.113	800.000	-0.080	0.330
-601.098	118.794	0.187	-0.234
-600.084	-127.702	-0.221	0.032
-599.069	90.670	0.187	0.212
-598.055	800.000	0.034	-0.123
-597.040	-200.000	-0.014	0.144
-596.025	-87.827	-0.233	0.071
-595.011	-200.000	-0.060	-0.356
-593.996	-200.000	0.009	-0.150
-592.982	780.343	-0.051	-0.141
-591.967	-90.182	-0.217	-0.064
-590.952	-199.396	0.394	0.002
-589.938	80.652	0.305	0.332
-588.923	-43.594	-0.033	-0.017
-587.909	800.000	0.098	0.287
-586.894	-115.967	-0.221	0.042
-585.879	464.663	0.087	-0.198
-584.865	47.656	-0.166	0.157
-583.850	-113.435	0.073	-0.014
-582.836	800.000	0.082	-0.242
-581.821	-200.000	0.006	0.180
-580.806	-106.247	-0.142	-0.032
-579.792	-6.881	0.102	0.070
-578.777	174.666	-0.262	0.384
-577.763	287.070	0.101	0.184
-576.748	541.075	0.033	0.079
-575.733	273.298	-0.043	0.077
-574.719	178.543	0.102	0.150
-573.704	163.274	-0.128	-0.182
-572.690	11.307	0.132	0.102
-571.675	-200.000	0.006	-0.166
-570.661	-123.247	-0.157	0.025
-569.646	-98.026	-0.155	-0.040
-568.631	614.214	-0.085	0.215
-567.617	-14.606	-0.067	0.044
-566.602	800.000	0.032	-0.134
-565.588	223.892	0.050	-0.082
-564.573	737.655	0.107	-0.289
-563.558	-200.000	-0.021	-0.217
-562.544	412.003	-0.111	-0.239
-561.529	518.210	-0.107	0.254
-560.515	20.065	0.289	-0.235
-559.500	482.371	-0.109	0.250
-558.485	800.000	0.026	-0.078
-557.471	71.243	-0.177	0.185
-556.456	600.534	0.173	0.434
-555.442	800.000	0.075	0.287
-554.427	-200.000	-0.029	0.165
-553.412	-200.000	-0.009	0.652
-552.398	-146.539	0.243	0.021
-551.383	-200.000	-0.263	0.000
-550.369	800.000	0.068	0.276
-549.354	69.997	-0.233	0.243
-548.339	-119.447	0.254	0.045
-547.325	653.554	0.200	-0.517
-546.310	203.991	0.181	-0.283
-545.296	-59.617	-0.005	-0.002
-544.281	-197.665	-0.262	-0.002
-543.266	-163.513	0.078	0.004
-542.252	-200.000	-0.037	0.230
-541.237	106.335	0.207	0.248
-540.223	800.000	0.061	-0.234
-539.208	100.568	-0.174	-0.204
-538.193	-7.139	-0.108	0.074
-537.179	-200.000	-0.007	0.143
-536.164	227.301	-0.195	-0.319
-535.150	-42.477	-0.214	0.110
-534.135	165.562	-0.092	0.131
-533.121	695.830	-0.072	-0.190
-532.106	561.322	-0.014	-0.034
-531.091	-53.483	0.183	0.084
-530.077	800.000	0.025	0.085
-529.062	-10.658	0.433	-0.289
-528.048	-14.405	-0.342	-0.222
-527.033	-200.000	0.075	0.000
-526.018	800.000	-0.112	-0.313
-525.004	85.706	0.226	-0.251
-523.989	-41.138	-0.124	-0.064
-522.975	800.000	0.022	0.061
-521.960	-162.739	0.229	0.011
-520.945	-99.027	-0.120	-0.031
-519.931	70.747	0.035	0.036
-518.916	-200.000	0.006	-0.183
-517.902	-76.681	0.163	0.057
-516.887	-89.766	-0.174	0.051
-515.872	734.380	-0.098	0.266
-514.858	574.416	0.042	0.103
-513.843	800.000	0.099	0.283
-512.829	800.000	-0.092	0.301
-511.814	-200.000	-0.355	0.001
-510.799	419.096	-0.036	-0.077
-509.785	-47.698	0.174	0.085
-508.770	197.674	-0.155	-0.239
-507.756	385.637	-0.075	0.157
-506.741	-125.202	-0.084	0.013
-505.726	-200.000	0.011	-0.087
-504.712	-5.582	-0.067	-0.046
-503.697	-71.393	-0.282	0.106
-502.683	800.000	-0.079	-0.233
-501.668	-145.955	0.115	0.010
-500.653	405.127	-0.080	-0.171
-499.639	323.676	0.032	0.061
-498.624	39.838	0.311	0.282
-497.610	288.938	0.110	-0.201
-496.595	-200.000	0.030	0.294
-495.581	461.029	0.056	0.127
-494.566	-46.110	0.164	-0.081
-493.551	800.000	0.108	-0.448
-492.537	18.632	0.102	0.083
-491.522	685.761	-0.076	-0.200
-490.508	68.236	-0.125	0.129
-489.493	0.068	-0.236	0.169
-488.478	18.447	-0.158	0.127
-487.464	-51.988	-0.376	0.176
-486.449	732.542	-0.103	0.279
-485.435	275.095	-0.142	0.254
-484.420	-56.428	0.155	0.070
-483.405	596.405	-0.203	-0.506
-482.391	-78.026	-0.345	0.120
-481.376	-150.405	-0.021	0.002
-480.362	-45.745	-0.169	0.084
-479.347	577.657	0.137	0.338
-478.332	-87.574	-0.438	0.133
-477.318	-5.738	0.099	0.069
-476.303	-20.240	0.267	-0.165
-475.289	-163.426	-0.201	-0.010
-474.274	-200.000	0.152	0.001
-473.259	-123.508	-0.279	0.045
-472.245	601.664	0.098	-0.244
-471.230	-86.156	0.381	0.118
-470.216	71.649	-0.102	-0.107
-469.201	-41.601	0.132	-0.068
-468.186	190.051	0.028	-0.043
-467.172	495.695	-0.098	-0.227
-466.157	-120.730	-0.127	0.022
-465.143	-129.197	-0.138	-0.019
-464.128	508.149	0.099	0.231
-463.113	244.857	-0.043	0.073
-462.099	606.558	0.055	-0.137
-461.084	53.199	0.176	0.170
-460.070	-144.818	-0.195	0.018
-459.055	800.000	0.033	0.113
-458.040	-72.266	0.179	-0.067
-457.026	113.363	-0.167	-0.204
-456.011	167.948	0.096	0.137
-454.997	-161.852	0.235	-0.012
-453.982	-20.929	0.213	0.131
-452.968	-200.000	0.011	0.184
-451.953	53.120	0.149	0.143
-450.938	-18.817	0.124	0.077
-449.924	309.043	-0.139	-0.260
-448.909	394.613	0.105	-0.221
-447.895	800.000	-0.023	-0.063
-446.880	118.441	0.166	-0.206
-445.865	-11.171	0.213	0.141
-444.851	-200.000	0.005	-0.114
-443.836	-15.515	0.041	0.027
-442.822	-76.046	-0.274	-0.098
-441.807	-200.000	0.046	0.311
-440.792	-31.562	-0.114	-0.064
-439.778	644.682	-0.070	-0.180
-438.763	-151.561	-0.182	0.014
-437.749	-200.000	-0.009	-0.254
-436.734	-200.000	0.009	0.207
-435.719	2.425	-0.267	0.194
-434.705	-56.923	0.324	0.144
-433.690	234.355	0.121	-0.200
-432.676	-123.173	-0.330	0.053
-431.661	-24.995	-0.218	0.130
-430.646	327.864	0.070	-0.136
-429.632	-14.416	-0.049	-0.032
-428.617	57.155	0.119	0.117
-427.603	113.234	-0.132	0.161
-426.588	-200.000	0.004	0.059
-425.573	-154.891	-0.145	-0.010
-424.559	28.471	-0.103	0.087
-423.544	-89.262	-0.088	0.026
-422.530	-200.000	-0.005	-0.122
-421.515	-45.938	0.450	0.223
-420.500	-122.146	-0.193	0.032
-419.486	72.131	0.065	-0.068
-418.471	-84.651	-0.302	-0.096
-417.457	30.913	0.127	-0.109
-416.442	-74.029	0.066	0.024
-415.428	-118.411	0.059	0.011
-414.413	-200.000	0.011	0.099
-413.398	-177.801	-0.079	-0.002
-412.384	59.311	0.206	0.204
-411.369	506.368	0.202	0.470
-410.355	437.898	0.166	-0.363
-409.340	-200.000	-0.023	0.147
-408.325	-200.000	0.029	-0.144
-407.311	-22.556	-0.088	-0.054
-406.296	48.628	-0.188	0.177
-405.282	800.000	-0.104	0.300
-404.267	-61.308	-0.226	-0.096
-403.252	-32.160	-0.180	-0.101
-402.238	-59.807	0.103	-0.044
-401.223	288.093	0.187	-0.339
-400.209	-86.621	-0.026	-0.008
-399.194	69.134	0.171	-0.176
-398.179	-57.194	0.210	-0.093
-397.165	250.956	-0.100	-0.171
-396.150	223.200	-0.071	-0.116
-395.136	-200.000	0.018	0.094
-394.121	12.995	-0.088	0.068
-393.106	32.253	-0.062	-0.054
-392.092	-200.000	-0.042	-0.293
-391.077	-162.189	-0.097	-0.005
-390.063	24.260	-0.167	0.138
-389.048	15.493	-0.115	0.091
-388.033	-109.066	-0.491	0.105
-387.019	-200.000	-0.049	0.268
-386.004	113.638	0.213	0.260
-384.990	-54.453	-0.028	0.013
-383.975	-75.994	-0.433	0.154
-382.960	-6.378	0.132	-0.090
-381.946	-200.000	0.021	0.244
-380.931	800.000	0.089	0.333
-379.917	-175.553	0.098	-0.003
-378.902	-58.034	0.206	0.090
-377.888	800.000	0.098	0.372
-376.873	683.437	0.027	0.071
-375.858	-67.433	-0.492	0.194
-374.844	-95.402	0.115	0.031
-373.829	-95.557	0.081	-0.022
-372.815	539.494	-0.035	0.083
-371.800	800.000	0.028	0.092
-370.785	153.191	0.212	-0.291
-369.771	-20.597	-0.195	-0.120
-368.756	20.547	-0.382	-0.310
-367.742	-84.093	0.164	0.052
-366.727	-200.000	-0.002	-0.013
-365.712	800.000	0.041	0.133
-364.698	-2.828	-0.262	-0.184
-363.683	-200.000	-0.030	-0.348
-362.669	-200.000	0.046	-0.228
-361.654	97.044	0.016	-0.018
-360.639	-65.650	0.199	-0.080
-359.625	800.000	0.092	-0.266
-358.610	-55.890	0.256	-0.114
-357.596	29.576	0.066	0.056
-356.581	-33.873	-0.037	0.021
-355.566	-191.207	0.319	0.003
-354.552	299.826	-0.034	-0.063
-353.537	324.006	0.083	-0.159
-352.523	-120.826	0.309	0.052
-351.508	-70.732	0.055	-0.021
-350.493	-107.423	0.176	0.039
-349.479	-174.100	0.111	-0.003
-348.464	-39.059	-0.287	-0.151
-347.450	-200.000	-0.063	0.370
-346.435	157.545	-0.035	-0.049
-345.420	-28.372	0.115	0.067
-344.406	-200.000	-0.018	0.172
-343.391	98.441	-0.073	-0.084
-342.377	-92.084	-0.320	-0.091
-341.362	800.000	-0.101	-0.313
-340.348	-200.000	-0.012	-0.187
-339.333	-200.000	0.053	0.347
-338.318	384.988	-0.009	0.018
-337.304	800.000	-0.073	-0.293
-336.289	-177.112	0.250	0.006
-335.275	-48.740	0.205	-0.098
-334.260	-23.966	0.240	0.144
-333.245	46.863	-0.241	-0.224
-332.231	121.698	0.047	-0.058
-331.216	138.387	-0.093	0.122
-330.202	38.179	0.105	0.093
-329.187	-50.443	-0.131	-0.062
-328.172	800.000	-0.065	-0.209
-327.158	-110.294	0.325	0.068
-326.143	800.000	-0.070	-0.219
-325.129	584.866	-0.152	0.375
-324.114	-200.000	-0.044	0.251
-323.099	576.222	-0.141	-0.344
-322.085	97.440	-0.056	0.064
-321.070	60.774	0.091	0.090
-320.056	-20.416	0.177	-0.109
-319.041	307.696	-0.022	-0.041
-318.026	411.146	0.183	-0.388
-317.012	81.310	-0.191	0.207
-315.997	-158.679	0.207	-0.012
-314.983	109.254	0.243	-0.291
-313.968	-87.629	-0.192	0.058
-312.953	-200.000	-0.006	0.466
-311.939	-105.474	0.108	-0.025
-310.924	-200.000	0.045	0.286
-309.910	800.000	0.074	-0.240
-308.895	-30.898	0.221	0.125
-307.880	1.369	0.300	-0.216
-306.866	190.291	-0.220	-0.331
-305.851	-200.000	-0.064	-0.481
-304.837	-122.193	0.230	0.038
-303.822	209.621	-0.031	-0.049
-302.807	215.796	-0.140	0.222
-301.793	-90.362	-0.332	0.096
-300.778	-196.489	-0.151	-0.001
-299.764	-22.706	-0.036	0.022
-298.749	800.000	-0.026	-0.106
-297.735	43.691	-0.154	0.141
-296.720	42.628	0.153	0.140
-295.705	-0.207	0.218	0.155
-294.691	800.000	0.024	-0.089
-293.676	-142.872	-0.349	0.034
-292.662	-75.866	-0.138	0.049
-291.647	10.576	0.059	-0.045
-290.632	12.652	-0.090	0.069
-289.618	-153.605	0.355	0.025
-288.603	143.341	0.116	-0.155
-287.589	-128.525	0.321	-0.045
-286.574	62.626	0.300	0.300
-285.559	800.000	0.071	-0.229
-284.545	512.135	0.146	-0.341
-283.530	87.743	-0.228	-0.253
-282.516	-74.479	0.319	0.115
-281.501	51.547	0.094	0.089
-280.486	-75.005	0.185	-0.066
-279.472	800.000	-0.097	-0.307
-278.457	8.882	-0.250	-0.189
-277.443	-91.093	0.154	0.044
-276.428	482.089	-0.104	-0.236
-275.413	-200.000	-0.001	0.186
-274.399	800.000	0.074	-0.207
-273.384	22.551	0.102	0.084
-272.370	-200.000	-0.025	-0.123
-271.355	162.354	0.142	-0.199
-270.340	-76.481	-0.266	-0.094
-269.326	-81.852	0.214	-0.070
-268.311	-138.690	-0.168	-0.018
-267.297	-167.591	0.045	0.002
-266.282	56.411	-0.159	0.154
-265.267	90.940	-0.135	-0.151
-264.253	174.534	0.173	0.249
-263.238	-106.370	-0.175	0.039
-262.224	-64.725	-0.109	-0.044
-261.209	605.452	-0.093	-0.231
-260.195	-200.000	0.002	-0.021
-259.180	-200.000	0.013	0.072
-258.165	800.000	0.081	0.248
-257.151	167.878	-0.101	0.144
-256.136	136.865	-0.093	0.121
-255.122	800.000	-0.020	-0.065
-254.107	203.117	0.237	-0.365
-253.092	-133.516	0.046	-0.006
-252.078	-59.062	0.203	-0.087
-251.063	-46.331	-0.176	-0.086
-250.049	368.253	-0.046	-0.093
-249.034	-157.339	-0.369	-0.022
-248.019	-116.911	0.026	0.005
-247.005	-46.537	0.185	-0.091
-245.990	-45.308	0.169	0.084
-244.976	23.996	0.170	0.140
-243.961	-97.560	-0.365	0.095
-242.946	119.635	-0.238	0.295
-241.932	-110.466	-0.141	0.029
-240.917	-60.944	-0.219	0.093
-239.903	193.647	0.092	-0.139
-238.888	-147.544	0.111	-0.009
-237.873	-9.484	-0.164	0.109
-236.859	-61.759	-0.204	0.085
-235.844	-200.000	0.037	-0.256
-234.830	-95.341	0.172	0.046
-233.815	-200.000	-0.017	-0.329
-232.800	379.661	-0.087	-0.178
-231.786	13.565	0.118	-0.092
-230.771	-84.944	-0.293	0.092
-229.757	-105.082	0.313	-0.071
-228.742	-107.879	-0.154	0.033
-227.727	-106.308	0.236	-0.053
-226.713	288.357	0.119	-0.215
-225.698	-43.868	-0.570	-0.286
-224.684	7.292	-0.132	0.098
-223.669	521.428	0.154	0.361
-222.655	-32.604	-0.190	0.105
-221.640	20.834	0.143	-0.115
-220.625	-34.403	-0.202	-0.110
-219.611	800.000	-0.013	0.047
-218.596	-200.000	0.039	-0.174
-217.582	-200.000	0.002	-0.089
-216.567	712.956	-0.116	0.306
-215.552	-61.860	0.211	0.088
-214.538	-65.652	-0.052	-0.021
-213.523	-86.454	-0.158	0.048
-212.509	54.163	0.093	0.089
-211.494	-65.035	-0.371	-0.149
-210.479	800.000	0.074	0.237
-209.465	284.552	0.095	-0.170
-208.450	800.000	-0.072	0.251
-207.436	-200.000	-0.039	0.285
-206.421	-145.913	-0.076	0.007
-205.406	12.135	0.330	-0.253
-204.392	275.061	-0.060	-0.107
-203.377	-71.433	0.276	-0.103
-202.363	35.394	0.182	-0.159
-201.348	7.053	0.164	-0.122
-200.333	17.998	0.045	0.035
-199.319	-94.471	0.236	-0.064
-198.304	703.158	0.069	-0.181
-197.290	-200.000	0.011	0.149
-196.275	415.392	-0.101	0.215
-195.260	-61.851	0.190	-0.079
-194.246	-103.351	0.250	0.059
-193.231	113.241	-0.088	0.106
-192.217	-200.000	-0.047	0.294
-191.202	-15.797	-0.179	0.113
-190.187	56.016	0.255	0.246
-189.173	50.719	0.344	0.324
-188.158	-39.860	0.335	0.174
-187.144	-23.233	-0.130	0.078
-186.129	-200.000	0.090	-0.000
-185.114	-16.231	-0.131	0.083
-184.100	283.299	0.195	0.349
-183.085	161.109	-0.103	-0.143
-182.071	-127.129	0.270	0.039
-181.056	-94.455	-0.049	-0.013
-180.042	138.903	-0.194	-0.253
-179.027	-200.000	-0.007	-0.030
-178.012	-200.000	-0.058	0.278
-176.998	-78.339	-0.170	0.058
-175.983	-197.599	-0.192	-0.001
-174.969	30.019	-0.154	-0.131
-173.954	-200.000	-0.009	-0.243
-172.939	-2.595	-0.042	-0.029
-171.925	209.915	0.107	-0.168
-170.910	-113.249	-0.146	0.029
-169.896	-119.304	0.348	0.060
-168.881	-39.148	0.065	-0.034
-167.866	597.854	0.082	-0.203
-166.852	146.937	0.078	0.105
-165.837	769.026	-0.095	-0.257
-164.823	42.189	0.120	0.108
-163.808	800.000	-0.032	0.088
-162.793	17.856	0.357	0.283
-161.779	-200.000	-0.012	-0.066
-160.764	-200.000	-0.006	0.085
-159.750	103.013	0.160	-0.186
-158.735	35.168	0.188	0.164
-157.720	-200.000	0.022	-0.465
-156.706	-200.000	0.011	-0.057
-155.691	424.370	-0.109	0.232
-154.677	800.000	0.087	0.248
-153.662	-57.131	-0.074	-0.032
-152.647	-124.572	0.544	0.084
-151.633	-31.700	-0.049	0.027
-150.618	-27.876	0.277	-0.160
-149.604	211.332	0.083	-0.131
-148.589	800.000	-0.027	0.087
-147.574	-20.874	-0.189	-0.115
-146.560	800.000	-0.024	-0.085
-145.545	-125.630	0.296	0.045
-144.531	-135.459	-0.292	0.035
-143.516	-200.000	0.007	-0.154
-142.502	-168.329	0.276	0.011
-141.487	800.000	-0.040	-0.141
-140.472	9.404	0.113	-0.085
-139.458	-200.000	-0.018	0.082
-138.443	358.561	-0.163	0.324
-137.429	83.996	0.304	0.330
-136.414	-148.444	-0.113	-0.009
-135.399	800.000	-0.041	-0.123
-134.385	-124.398	0.034	-0.005
-133.370	-200.000	0.023	0.127
-132.356	-1.589	0.151	0.106
-131.341	-157.483	-0.109	-0.007
-130.326	-35.929	-0.190	-0.102
-129.312	97.247	-0.112	0.128
-128.297	-108.505	-0.340	-0.073
-127.283	50.192	0.069	-0.065
-126.268	-9.715	0.252	0.167
-125.253	97.437	0.056	-0.064
-124.239	597.314	0.057	0.139
-123.224	266.367	-0.074	-0.128
-122.210	-19.087	0.168	-0.104
-121.195	154.202	-0.101	0.138
-120.180	270.331	0.147	0.257
-119.166	-200.000	-0.015	-0.217
-118.151	448.800	0.101	0.220
-117.137	-163.371	0.188	-0.009
-116.122	-162.802	-0.202	0.010
-115.107	165.299	-0.212	0.297
-114.093	-200.000	-0.017	0.140
-113.078	40.590	0.111	-0.099
-112.064	-200.000	0.012	0.070
-111.049	800.000	-0.050	-0.177
-110.034	-188.706	-0.135	0.002
-109.020	-47.478	-0.061	-0.029
-108.005	-126.560	-0.097	0.014
-106.991	21.441	0.200	0.161
-105.976	159.166	0.027	0.037
-104.962	800.000	0.048	-0.144
-103.947	615.375	0.053	0.131
-102.932	-71.364	0.113	-0.042
-101.918	-200.000	-0.188	0.000
-100.903	-143.732	0.202	-0.019
-99.889	-99.857	0.267	0.066
-98.874	552.068	0.129	0.307
-97.859	-119.464	-0.190	0.033
-96.845	319.313	-0.051	-0.095
-95.830	-75.222	0.164	0.058
-94.816	800.000	0.060	0.252
-93.801	-104.927	-0.203	-0.046
-92.786	38.988	-0.279	0.247
-91.772	-126.165	0.196	0.029
-90.757	-200.000	-0.029	-0.149
-89.743	-23.962	0.141	0.084
-88.728	800.000	0.087	-0.336
-87.713	64.499	-0.114	-0.114
-86.699	-200.000	-0.022	0.147
-85.684	24.280	-0.159	0.130
-84.670	20.199	0.106	0.085
-83.655	4.212	0.289	-0.210
-82.640	-56.438	0.147	0.065
-81.626	28.906	0.263	-0.221
-80.611	-81.514	0.059	0.019
-79.597	-132.003	-0.038	0.005
-78.582	-82.048	-0.320	0.104
-77.567	800.000	0.102	0.332
-76.553	32.732	-0.135	-0.116
-75.538	-200.000	0.005	-0.030
-74.524	-121.832	-0.180	0.029
-73.509	365.593	0.144	-0.288
-72.494	72.079	0.305	0.315
-71.480	-75.114	0.215	-0.076
-70.465	541.541	0.059	0.140
-69.451	-21.618	0.197	0.119
-68.436	55.616	0.330	-0.317
-67.422	-53.539	0.423	0.192
-66.407	-60.307	0.461	-0.195
-65.392	-146.259	-0.357	-0.031
-64.378	70.896	-0.157	-0.161
-63.363	-5.853	0.197	-0.133
-62.349	160.074	-0.155	0.215
-61.334	238.577	-0.672	-1.106
-60.319	163.662	0.273	0.381
-59.305	-200.000	-0.147	-0.868
-58.290	624.017	0.364	0.908
-57.276	800.000	0.454	1.447
-56.261	-200.000	95.682	568.509
-55.246	616.329	1388.705	3450.223
-54.232	189.901	2582.466	3838.262
-53.217	109.450	2311.708	2742.536
-52.203	40.205	2065.029	1839.325
-51.188	35.565	1979.001	1721.172
-50.173	33.872	1961.410	1690.755
-49.159	48.543	2010.418	1865.492
-48.144	50.284	2029.184	1898.530
-47.130	36.047	1990.409	1735.164
-46.115	33.723	1979.608	1704.832
-45.100	33.638	1976.674	1701.478
-44.086	33.516	1974.502	1698.447
-43.071	33.525	1971.991	1696.295
-42.057	33.476	1969.586	1693.727
-41.042	33.474	1967.584	1691.920
-40.027	33.450	1966.106	1690.368
-39.013	33.589	1963.465	1689.267
-37.998	33.577	1961.892	1687.739
-36.984	33.573	1960.098	1686.092
-35.969	33.546	1958.557	1684.460
-34.954	33.528	1956.876	1682.787
-33.940	33.597	1955.855	1682.453
-32.925	33.787	1953.327	1681.895
-31.911	33.730	1951.409	1679.677
-30.896	33.619	1950.214	1677.593
-29.881	33.626	1948.895	1676.460
-28.867	33.721	1946.992	1675.593
-27.852	33.745	1944.746	1673.807
-26.838	33.725	1942.982	1672.048
-25.823	33.733	1941.213	1670.530
-24.809	33.718	1939.452	1668.813
-23.794	33.600	1938.676	1667.038
-22.779	33.679	1936.645	1665.923
-21.765	33.677	1934.915	1664.356
-20.750	33.728	1933.163	1663.228
-19.736	33.724	1931.380	1661.591
-18.721	33.698	1930.338	1660.402
-17.706	33.699	1928.412	1658.684
-16.692	33.722	1926.318	1657.024
-15.677	33.759	1924.969	1656.118
-14.663	33.700	1923.670	1654.417
-13.648	33.710	1922.463	1653.402
-12.633	33.738	1921.337	1652.615
-11.619	33.724	1920.248	1651.485
-10.604	33.711	1918.455	1649.770
-9.590	33.716	1917.548	1648.964
-8.575	33.650	1915.507	1646.575
-7.560	33.696	1914.533	1646.067
-6.546	33.697	1912.976	1644.673
-5.531	33.645	1912.182	1643.473
-4.517	33.736	1910.484	1642.739
-3.502	33.657	1909.724	1641.340
-2.487	33.692	1908.205	1640.272
-1.473	33.664	1907.686	1639.511
-0.458	33.688	1902.714	1635.387
0.556	33.763	1883.100	1607.162
1.571	29.388	1863.532	1553.574
2.586	25.232	1885.071	1535.893
3.600	23.984	1920.850	1554.013
4.615	23.321	1915.273	1543.594
5.629	17.992	1814.431	1418.069
6.644	9.222	1696.443	1257.385
7.659	5.130	1660.016	1198.898
8.673	4.863	1656.529	1194.226
9.688	4.829	1655.171	1192.878
10.702	4.803	1654.060	1191.774
11.717	4.865	1650.740	1189.750
12.731	5.269	1649.816	1192.063
13.746	10.880	1663.042	1244.567
14.761	18.279	1678.915	1313.319
15.775	20.397	1681.006	1331.086
16.790	19.474	1678.014	1321.540
17.804	18.385	1674.872	1310.618
18.819	17.392	1671.267	1300.098
19.834	16.770	1669.056	1293.513
20.848	16.477	1667.527	1289.978
21.863	16.165	1666.596	1286.763
22.877	16.026	1664.552	1284.010
23.892	15.881	1663.027	1281.621
24.907	15.767	1661.860	1279.741
25.921	15.760	1660.963	1278.885
26.936	15.777	1660.239	1278.340
27.950	15.759	1659.282	1277.356
28.965	15.845	1658.151	1277.027
29.980	15.863	1658.253	1277.126
30.994	15.955	1657.000	1276.747
32.009	16.015	1656.424	1276.638
33.023	16.059	1655.123	1275.859
34.038	16.016	1654.544	1274.973
35.053	15.960	1653.798	1273.865
36.067	15.986	1651.730	1272.353
37.082	15.960	1650.261	1270.917
38.096	15.932	1649.449	1269.965
39.111	15.914	1648.573	1269.046
40.126	15.951	1647.974	1268.745
41.140	15.868	1647.349	1267.532
42.155	15.853	1645.560	1265.927
43.169	15.734	1643.867	1263.620
44.184	15.656	1643.110	1262.340
45.199	15.621	1642.153	1261.235
46.213	15.595	1640.998	1260.034
47.228	15.638	1639.741	1259.279
48.242	15.770	1638.403	1259.130
49.257	15.901	1637.688	1259.451
50.271	15.835	1636.676	1258.065
51.286	15.775	1635.279	1256.433
52.301	15.894	1633.262	1255.663
53.315	15.876	1632.885	1255.129
54.330	15.846	1630.657	1253.078
55.344	15.712	1629.488	1251.073
56.359	15.656	1627.949	1249.361
57.374	15.702	1626.798	1248.713
58.388	15.701	1625.586	1247.667
59.403	15.651	1624.302	1246.196
60.417	15.605	1623.037	1244.776
61.432	15.601	1621.895	1243.760
62.447	15.544	1621.107	1242.627
63.461	15.497	1619.631	1241.038
64.476	15.481	1618.418	1239.879
65.490	15.550	1616.870	1239.093
66.505	15.496	1616.079	1237.977
67.520	15.508	1615.169	1237.261
68.534	15.551	1614.104	1236.651
69.549	15.548	1612.968	1235.645
70.563	15.662	1611.618	1235.343
71.578	15.592	1610.518	1233.880
72.593	15.649	1609.073	1233.075
73.607	15.481	1608.329	1231.166
74.622	15.393	1607.992	1230.154
75.636	15.391	1606.929	1229.216
76.651	15.399	1606.157	1228.581
77.666	15.474	1604.660	1227.872
78.680	15.477	1603.991	1227.271
79.695	15.424	1603.144	1226.128
80.709	15.448	1602.251	1225.512
81.724	15.445	1601.942	1225.150
82.739	15.665	1600.738	1225.719
83.753	15.675	1599.985	1225.110
84.768	15.694	1598.959	1224.355
85.782	15.863	1598.406	1225.056
86.797	15.945	1597.980	1225.211
87.812	15.953	1596.644	1224.141
88.826	15.882	1595.373	1222.540
89.841	15.836	1594.115	1221.132
90.855	15.809	1593.527	1220.384
91.870	15.830	1592.553	1219.680
92.884	15.878	1591.009	1218.736
93.899	15.945	1590.502	1218.726
94.914	15.928	1589.075	1217.404
95.928	15.925	1588.399	1216.754
96.943	16.038	1586.415	1215.943
97.957	15.992	1584.828	1214.287
98.972	15.994	1583.143	1212.900
99.987	15.908	1582.132	1211.404
101.001	15.867	1580.839	1210.008
102.016	15.879	1579.296	1208.807
103.030	15.833	1578.067	1207.427
104.045	15.959	1576.495	1207.025
105.060	15.976	1574.782	1205.724
106.074	15.929	1574.031	1204.710
107.089	15.776	1572.527	1202.358
108.103	15.703	1570.563	1200.231
109.118	15.612	1569.267	1198.484
110.133	15.613	1567.761	1197.233
111.147	15.597	1566.315	1195.909
112.162	15.543	1565.201	1194.566
113.176	15.553	1563.830	1193.492
114.191	15.698	1562.363	1193.293
115.206	15.660	1561.238	1192.060
116.220	15.666	1560.316	1191.291
117.235	15.617	1558.909	1189.766
118.249	15.664	1557.547	1188.956
119.264	15.673	1556.568	1188.167
120.279	15.626	1554.999	1186.532
121.293	15.572	1553.366	1184.800
122.308	15.697	1551.973	1184.510
123.322	15.522	1550.650	1182.166
124.337	15.566	1549.064	1181.158
125.352	15.493	1547.981	1179.718
126.366	15.474	1547.102	1178.811
127.381	15.525	1545.455	1177.809
128.395	15.540	1544.473	1177.058
129.410	15.493	1543.281	1175.719
130.424	15.544	1542.473	1175.356
131.439	15.560	1541.019	1174.254
132.454	15.595	1539.819	1173.479
133.468	15.637	1538.391	1172.581
134.483	15.749	1536.671	1171.951
135.497	15.705	1535.602	1170.722
136.512	15.752	1534.181	1169.863
137.527	15.795	1532.645	1168.887
138.541	15.722	1531.349	1167.292
139.556	15.766	1530.064	1166.509
140.570	15.778	1528.606	1165.382
141.585	15.885	1527.376	1165.079
142.600	15.938	1526.329	1164.541
143.614	15.931	1525.956	1164.109
144.629	15.988	1524.436	1163.241
145.643	16.020	1523.265	1162.463
146.658	15.980	1521.940	1161.074
147.673	16.120	1519.885	1160.364
148.687	15.806	1518.542	1157.079
149.702	15.885	1517.007	1156.348
150.716	15.776	1515.863	1154.625
151.731	15.781	1514.330	1153.395
152.746	15.834	1513.079	1152.700
153.760	15.846	1511.445	1151.434
154.775	15.840	1510.375	1150.480
155.789	15.866	1509.558	1149.931
156.804	15.976	1508.305	1149.625
157.819	16.015	1506.791	1148.635
158.833	16.014	1505.914	1147.857
159.848	16.087	1504.700	1147.331
160.862	16.058	1503.647	1146.224
161.877	16.227	1501.957	1145.985
162.892	16.079	1501.071	1144.202
163.906	16.045	1499.582	1142.739
164.921	15.962	1497.984	1140.854
165.935	15.883	1497.246	1139.660
166.950	15.946	1496.182	1139.172
167.964	15.958	1495.176	1138.389
168.979	15.941	1494.554	1137.698
169.994	16.007	1493.405	1137.172
171.008	15.954	1492.143	1135.751
172.023	16.068	1490.796	1135.389
173.037	16.042	1490.047	1134.547
174.052	16.123	1489.133	1134.298
175.067	16.163	1487.996	1133.594
176.081	16.206	1486.399	1132.572
177.096	15.955	1485.576	1130.156
178.110	16.033	1483.815	1129.238
179.125	15.954	1483.119	1128.084
180.140	16.023	1481.943	1127.548
181.154	16.081	1481.145	1127.229
182.169	16.070	1480.084	1126.247
183.183	16.130	1478.883	1125.637
184.198	16.216	1477.648	1125.172
185.213	16.259	1476.836	1124.740
186.227	16.205	1476.047	1123.676
187.242	16.345	1475.049	1123.753
188.256	16.373	1473.549	1122.694
189.271	16.379	1472.615	1121.926
190.286	16.445	1471.634	1121.515
191.300	16.462	1470.165	1120.409
192.315	16.196	1469.090	1117.729
193.329	16.086	1467.737	1115.875
194.344	15.903	1467.130	1114.100
195.359	16.073	1465.771	1114.097
196.373	16.055	1465.078	1113.348
197.388	16.187	1464.255	1113.496
198.402	16.328	1462.774	1113.201
199.417	16.340	1462.280	1112.810
200.432	16.448	1461.297	1112.670
201.446	16.657	1460.029	1112.981
202.461	16.548	1459.342	1111.643
203.475	16.666	1457.665	1111.041
204.490	16.663	1457.336	1110.677
205.504	16.584	1456.184	1109.177
206.519	16.491	1454.999	1107.568
207.534	16.389	1453.795	1105.889
208.548	16.420	1452.334	1104.881
209.563	16.489	1450.939	1104.175
210.577	16.446	1450.798	1103.685
211.592	16.486	1449.824	1103.111
212.607	16.490	1449.196	1102.560
213.621	16.492	1449.156	1102.444
214.636	16.710	1447.508	1102.511
215.650	16.673	1445.875	1100.935
216.665	16.733	1445.164	1100.683
217.680	16.624	1444.847	1099.637
218.694	16.716	1444.186	1099.636
219.709	16.805	1443.201	1099.363
220.723	16.816	1442.099	1098.501
221.738	16.777	1441.260	1097.509
222.753	16.863	1440.257	1097.205
223.767	16.772	1439.383	1095.856
224.782	16.739	1438.908	1095.179
225.796	16.776	1437.958	1094.599
226.811	16.927	1437.203	1094.902
227.826	16.907	1436.312	1093.996
228.840	16.840	1435.327	1092.719
229.855	16.773	1434.224	1091.352
230.869	16.782	1433.582	1090.822
231.884	16.855	1431.802	1089.842
232.899	16.879	1430.978	1089.271
233.913	16.733	1430.056	1087.541
234.928	16.736	1428.156	1086.019
235.942	16.707	1427.503	1085.236
236.957	16.657	1426.051	1083.720
237.972	16.692	1425.156	1083.163
238.986	16.667	1424.430	1082.358
240.001	16.829	1423.140	1082.316
241.015	16.731	1422.117	1080.818
242.030	16.882	1420.898	1080.755
243.045	16.810	1420.318	1079.763
244.059	16.861	1419.208	1079.150
245.074	16.895	1418.460	1078.699
246.088	16.920	1417.220	1077.819
247.103	16.845	1417.099	1077.158
248.117	16.979	1416.107	1077.159
249.132	17.033	1415.235	1076.745
250.147	17.088	1415.035	1076.843
251.161	17.267	1414.086	1077.160
252.176	17.392	1413.484	1077.399
253.190	17.364	1413.144	1076.867
254.205	17.454	1411.953	1076.433
255.220	17.410	1411.362	1075.612
256.234	17.465	1410.594	1075.279
257.249	17.458	1409.418	1074.242
258.263	17.520	1408.611	1073.919
259.278	17.545	1407.509	1073.144
260.293	17.513	1406.875	1072.361
261.307	17.541	1406.123	1071.870
262.322	17.490	1405.661	1071.104
263.336	17.595	1404.673	1070.918
264.351	17.685	1403.359	1070.387
265.366	17.605	1403.009	1069.521
266.380	17.684	1402.133	1069.254
267.395	17.713	1401.105	1068.556
268.409	17.722	1400.274	1067.886
269.424	17.551	1399.465	1066.102
270.439	17.582	1397.947	1065.049
271.453	17.569	1396.955	1064.116
272.468	17.760	1395.628	1064.202
273.482	17.544	1395.738	1062.842
274.497	17.514	1394.720	1061.788
275.512	17.529	1393.562	1060.908
276.526	17.591	1392.463	1060.363
277.541	17.583	1391.654	1059.602
278.555	17.518	1390.999	1058.604
279.570	17.599	1390.492	1058.628
280.585	17.684	1389.023	1057.947
281.599	17.665	1388.607	1057.417
282.614	17.879	1387.249	1057.613
283.628	17.796	1385.945	1056.012
284.643	17.657	1385.463	1054.691
285.657	17.779	1384.048	1054.277
286.672	17.672	1383.755	1053.299
287.687	17.730	1382.462	1052.578
288.701	17.764	1381.132	1051.685
289.716	17.787	1380.420	1051.189
290.730	17.810	1379.505	1050.544
291.745	17.807	1378.600	1049.743
292.760	17.697	1378.261	1048.710
293.774	17.824	1376.561	1048.106
294.789	17.822	1375.637	1047.299
295.803	17.829	1375.695	1047.294
296.818	17.995	1373.976	1046.909
297.833	17.934	1373.598	1046.155
298.847	17.912	1372.259	1044.907
299.862	17.860	1371.390	1043.836
300.876	17.852	1370.527	1043.036
301.891	17.899	1370.019	1042.845
302.906	17.829	1369.010	1041.556
303.920	17.981	1368.260	1041.822
304.935	17.997	1367.714	1041.412
305.949	18.139	1366.787	1041.480
306.964	18.265	1365.717	1041.340
307.979	18.248	1365.318	1040.837
308.993	18.156	1363.983	1039.172
310.008	18.250	1362.661	1038.639
311.022	18.115	1362.137	1037.332
312.037	18.193	1361.142	1036.955
313.052	18.229	1360.806	1036.823
314.066	18.193	1359.073	1035.196
315.081	18.107	1358.241	1033.948
316.095	18.058	1357.053	1032.655
317.110	17.944	1355.967	1031.049
318.125	18.079	1355.041	1031.072
319.139	18.052	1353.669	1029.772
320.154	18.120	1352.824	1029.450
321.168	18.089	1352.091	1028.613
322.183	18.125	1351.433	1028.237
323.197	18.202	1350.012	1027.527
324.212	18.106	1350.189	1026.997
325.227	18.109	1349.116	1026.103
326.241	18.188	1348.197	1025.788
327.256	18.241	1346.733	1024.901
328.270	18.202	1346.432	1024.348
329.285	18.170	1345.594	1023.431
330.300	18.166	1344.635	1022.587
331.314	18.274	1343.113	1021.981
332.329	18.207	1342.280	1020.857
333.343	18.192	1341.823	1020.330
334.358	18.276	1340.932	1020.063
335.373	18.306	1340.256	1019.639
336.387	18.320	1339.176	1018.810
337.402	18.378	1338.312	1018.405
338.416	18.417	1337.318	1017.792
339.431	18.495	1336.732	1017.717
340.446	18.490	1336.298	1017.268
341.460	18.470	1335.835	1016.707
342.475	18.457	1335.113	1015.990
343.489	18.709	1333.775	1016.373
344.504	18.749	1332.707	1015.708
345.519	18.621	1332.082	1014.385
346.533	18.623	1331.380	1013.772
347.548	18.778	1330.090	1013.618
348.562	18.771	1329.435	1012.987
349.577	18.826	1328.906	1012.816
350.592	18.761	1327.823	1011.520
351.606	18.777	1326.824	1010.764
352.621	18.591	1325.880	1008.861
353.635	18.485	1325.184	1007.620
354.650	18.638	1323.494	1007.142
355.665	18.428	1323.194	1005.595
356.679	18.484	1322.070	1004.980
357.694	18.608	1320.876	1004.705
358.708	18.656	1319.945	1004.192
359.723	18.656	1319.124	1003.476
360.738	18.798	1317.931	1003.312
361.752	18.760	1316.767	1002.113
362.767	18.765	1315.616	1001.179
363.781	18.692	1314.905	1000.123
364.796	18.760	1314.098	999.818
365.810	18.754	1313.508	999.244
366.825	18.810	1312.994	999.094
367.840	18.873	1312.154	998.731
368.854	18.985	1311.457	998.764
369.869	19.120	1310.963	999.083
370.883	19.115	1310.575	998.670
371.898	19.106	1309.404	997.636
372.913	19.128	1308.138	996.708
373.927	18.952	1307.358	995.009
374.942	19.020	1306.874	994.948
375.956	19.183	1306.039	995.164
376.971	19.072	1305.692	994.173
377.986	19.038	1304.757	993.175
379.000	19.119	1303.628	992.693
380.015	19.164	1302.636	992.112
381.029	19.230	1302.660	992.419
382.044	19.240	1301.496	991.500
383.059	19.305	1300.532	991.056
384.073	19.269	1300.138	990.460
385.088	19.338	1299.442	990.239
386.102	19.195	1298.847	988.878
387.117	19.301	1298.040	988.783
388.132	19.263	1297.058	987.730
389.146	19.250	1296.251	986.952
390.161	19.157	1295.447	985.721
391.175	19.179	1294.706	985.199
392.190	19.081	1293.889	983.924
393.205	19.299	1293.040	984.441
394.219	19.293	1292.020	983.544
395.234	19.451	1290.618	983.290
396.248	19.326	1289.385	981.548
397.263	19.255	1288.307	980.240
398.278	19.298	1287.195	979.552
399.292	19.284	1285.994	978.473
400.307	19.104	1285.140	976.714
401.321	19.135	1284.041	975.967
402.336	19.101	1282.793	974.741
403.350	19.228	1281.794	974.609
404.365	19.097	1281.079	973.241
405.380	19.217	1280.299	973.243
406.394	19.150	1279.632	972.272
407.409	19.251	1278.773	972.102
408.423	19.410	1277.820	972.188
409.438	19.491	1277.494	972.306
410.453	19.498	1276.557	971.551
411.467	19.671	1275.743	971.818
412.482	19.612	1275.228	971.005
413.496	19.660	1275.035	971.046
414.511	19.645	1273.721	969.874
415.526	19.717	1273.033	969.670
416.540	19.789	1272.581	969.642
417.555	19.749	1272.267	969.093
418.569	19.733	1271.634	968.437
419.584	19.852	1271.087	968.600
420.599	19.795	1270.427	967.692
421.613	141.209	1431.717	1791.279
422.628	135.702	1455.177	1791.341
