DTS Sentinel unit serial number:	SN413079Multiplexer serial number:	ORYXHardware model number:	OX4-SRSoftware version number:	ORYX F/W v4.00 Oryx Data Collector v3.7.2.0data status	okinstallation	princeton_trtdifferential loss correction	single-endedforward channel	channel 4reverse channel	N/Adate	2019/09/14time	05:01:35forward acquisition time	60.00reverse acquisition time	0.00gamma	496.2192k internal	0.2320k external	0.2320temperature offset calibration	1.0137default loss term (dB/km)	0.3790temperature slope calibration	1.0000multiplexer offset coefficient	1.0000multiplexer slope coefficient	1.0000fibre end	0.00T internal ref (°C)	26.87T ext. ref 1 (°C)	3.37T ext. ref 2 (°C)	22.00length (m)	temperature (°C)	Stokes	anti-Stokes-747.200	-125.121	-0.149	0.023
-746.185	86.343	0.237	0.264
-745.171	-86.212	0.152	0.047
-744.156	-200.000	-0.023	0.238
-743.142	369.441	0.083	0.170
-742.127	-200.000	0.019	-0.212
-741.112	229.239	0.022	0.037
-740.098	-200.000	-0.010	0.181
-739.083	800.000	-0.013	0.040
-738.069	-126.779	-0.302	0.045
-737.054	221.413	-0.061	-0.100
-736.039	-99.682	-0.476	-0.121
-735.025	235.980	0.095	0.158
-734.010	-80.667	-0.168	-0.056
-732.996	-34.735	-0.234	-0.129
-731.981	-200.000	0.019	-0.117
-730.966	-23.395	0.270	-0.164
-729.952	376.335	0.086	-0.177
-728.937	457.363	-0.097	-0.218
-727.923	95.283	0.062	-0.072
-726.908	-72.225	-0.016	0.006
-725.894	-147.860	-0.213	0.018
-724.879	36.100	-0.191	-0.170
-723.864	-200.000	-0.031	-0.204
-722.850	250.947	0.119	-0.204
-721.835	-200.000	0.055	-0.348
-720.821	66.744	-0.162	0.167
-719.806	800.000	0.125	0.413
-718.791	800.000	-0.069	0.287
-717.777	-200.000	-0.028	0.311
-716.762	68.523	-0.077	0.080
-715.748	-69.142	-0.310	0.120
-714.733	-200.000	0.016	0.124
-713.718	-87.622	-0.257	0.078
-712.704	24.413	-0.429	-0.359
-711.689	94.489	0.169	0.194
-710.675	358.410	0.110	-0.221
-709.660	800.000	-0.015	0.063
-708.645	280.549	-0.057	-0.103
-707.631	274.205	0.067	-0.120
-706.616	-160.390	-0.108	-0.006
-705.602	-147.659	-0.070	0.006
-704.587	436.157	0.046	0.101
-703.572	52.604	0.135	-0.130
-702.558	316.850	0.064	-0.121
-701.543	160.715	0.149	0.210
-700.529	-57.312	0.379	0.168
-699.514	-38.685	0.004	0.002
-698.499	-113.713	-0.220	0.043
-697.485	334.150	-0.087	-0.170
-696.470	341.489	-0.156	-0.307
-695.456	233.620	0.087	0.145
-694.441	347.828	0.103	0.204
-693.426	-93.820	0.325	0.090
-692.412	-200.000	-0.046	0.313
-691.397	307.781	-0.088	-0.166
-690.383	-61.691	-0.094	0.040
-689.368	-131.130	0.100	-0.013
-688.354	-41.447	0.197	-0.102
-687.339	-200.000	0.006	0.027
-686.324	719.946	-0.102	-0.273
-685.310	82.544	-0.142	-0.155
-684.295	475.204	0.074	-0.170
-683.281	116.218	-0.100	0.123
-682.266	800.000	-0.072	0.220
-681.251	-161.654	0.071	-0.004
-680.237	-200.000	-0.064	0.287
-679.222	193.963	0.061	-0.093
-678.208	-135.320	-0.224	-0.027
-677.193	-200.000	0.026	-0.122
-676.178	-22.845	-0.346	-0.210
-675.164	-200.000	-0.038	-0.229
-674.149	-42.770	-0.223	0.114
-673.135	-55.883	0.099	-0.045
-672.120	-169.908	0.293	0.011
-671.105	-9.908	0.047	-0.031
-670.091	-100.496	-0.216	0.054
-669.076	-67.456	0.088	-0.035
-668.062	-80.405	-0.324	-0.109
-667.047	404.919	-0.065	-0.138
-666.032	-127.439	0.250	-0.037
-665.018	-200.000	0.016	-0.206
-664.003	800.000	0.135	-0.405
-662.989	-200.000	0.013	-0.295
-661.974	-200.000	-0.028	-0.486
-660.959	54.571	-0.148	0.144
-659.945	-200.000	-0.027	-0.159
-658.930	-43.023	0.156	-0.080
-657.916	-107.004	0.065	0.014
-656.901	800.000	0.020	0.062
-655.886	800.000	-0.080	0.230
-654.872	-23.705	-0.160	0.096
-653.857	800.000	-0.062	0.186
-652.843	-200.000	0.041	-0.378
-651.828	537.929	0.096	-0.229
-650.814	-200.000	-0.032	-0.419
-649.799	101.055	-0.299	-0.350
-648.784	-123.138	0.097	0.016
-647.770	-4.084	0.198	-0.138
-646.755	800.000	0.110	-0.349
-645.741	800.000	0.082	-0.236
-644.726	-99.522	0.061	0.015
-643.711	-110.465	-0.127	-0.026
-642.697	800.000	0.050	0.160
-641.682	16.193	-0.156	-0.124
-640.668	46.453	0.289	-0.270
-639.653	-18.739	-0.143	-0.090
-638.638	-77.338	-0.391	-0.137
-637.624	-68.371	0.233	-0.091
-636.609	-69.527	-0.032	0.012
-635.595	37.185	0.299	0.267
-634.580	-200.000	-0.003	0.158
-633.565	-33.860	-0.204	0.113
-632.551	-200.000	-0.007	-0.144
-631.536	70.211	0.128	0.133
-630.522	-200.000	-0.056	0.269
-629.507	37.750	0.158	0.141
-628.492	-156.245	-0.107	-0.007
-627.478	800.000	-0.065	-0.182
-626.463	-122.560	0.140	-0.023
-625.449	73.388	-0.136	-0.143
-624.434	-10.200	-0.151	0.101
-623.419	-76.554	0.148	0.052
-622.405	-139.332	0.374	-0.040
-621.390	-42.518	-0.145	0.074
-620.376	95.382	0.098	-0.113
-619.361	623.029	-0.050	-0.127
-618.346	800.000	0.100	0.284
-617.332	178.448	-0.183	-0.269
-616.317	-200.000	-0.042	-0.203
-615.303	712.055	0.136	0.362
-614.288	108.158	-0.266	-0.319
-613.273	-117.924	-0.196	-0.035
-612.259	254.702	0.134	-0.231
-611.244	66.669	-0.228	-0.234
-610.230	-44.087	0.166	-0.084
-609.215	-98.011	-0.317	-0.082
-608.201	-58.237	0.045	-0.020
-607.186	471.235	-0.107	-0.243
-606.171	15.371	0.151	0.119
-605.157	216.072	0.006	0.010
-604.142	-25.007	-0.247	-0.148
-603.128	-200.000	-0.044	0.314
-602.113	-78.599	0.076	-0.026
-601.098	-175.305	-0.254	0.007
-600.084	-200.000	-0.025	0.174
-599.069	-200.000	0.004	-0.065
-598.055	-87.141	0.553	-0.169
-597.040	-157.419	-0.423	-0.026
-596.025	-200.000	0.343	-0.001
-595.011	-115.689	0.211	-0.040
-593.996	-105.715	-0.090	0.020
-592.982	125.172	0.088	-0.111
-591.967	-25.609	0.190	0.113
-590.952	40.643	0.098	-0.089
-589.938	-54.296	0.247	0.113
-588.923	695.704	-0.071	-0.188
-587.909	-48.491	-0.208	-0.101
-586.894	800.000	-0.088	-0.355
-585.879	800.000	-0.052	-0.190
-584.865	-108.293	0.066	0.014
-583.850	-91.103	-0.064	0.018
-582.836	-98.135	0.116	-0.030
-581.821	127.546	-0.089	-0.113
-580.806	-154.059	0.132	-0.009
-579.792	-110.679	-0.462	0.096
-578.777	13.348	-0.063	-0.049
-577.763	120.237	0.084	-0.104
-576.748	144.451	-0.111	0.149
-575.733	615.264	-0.030	0.076
-574.719	-200.000	0.014	0.152
-573.704	-164.012	0.095	-0.004
-572.690	31.179	-0.043	-0.037
-571.675	-124.771	-0.244	-0.038
-570.661	38.018	0.220	0.197
-569.646	-114.439	-0.236	-0.045
-568.631	166.379	0.101	0.144
-567.617	-111.905	0.343	0.070
-566.602	-200.000	-0.008	-0.172
-565.588	478.270	0.082	0.186
-564.573	-200.000	-0.036	-0.157
-563.558	800.000	-0.088	-0.339
-562.544	211.095	-0.062	-0.098
-561.529	-171.187	-0.253	-0.009
-560.515	-200.000	-0.012	-0.091
-559.500	-96.698	0.096	-0.025
-558.485	267.452	-0.034	0.059
-557.471	-200.000	0.045	-0.243
-556.456	-75.476	-0.174	0.062
-555.442	300.787	-0.047	-0.086
-554.427	-118.380	0.442	-0.079
-553.412	-70.018	0.154	-0.059
-552.398	-200.000	0.009	-0.333
-551.383	613.298	-0.056	0.141
-550.369	800.000	0.073	-0.202
-549.354	-20.559	-0.234	-0.144
-548.339	-96.155	-0.434	0.116
-547.325	-175.625	-0.028	0.001
-546.310	246.527	0.192	-0.325
-545.296	351.492	0.160	-0.318
-544.281	-112.814	0.038	0.007
-543.266	-200.000	-0.030	-0.290
-542.252	-25.300	0.354	0.210
-541.237	203.291	-0.132	-0.204
-540.223	-200.000	-0.011	-0.070
-539.208	58.956	-0.233	0.230
-538.193	-16.186	-0.110	0.070
-537.179	-48.117	-0.287	0.139
-536.164	31.699	0.178	-0.154
-535.150	800.000	0.143	-0.451
-534.135	-3.300	0.256	-0.179
-533.121	-200.000	-0.032	0.222
-532.106	-200.000	-0.018	-0.210
-531.091	264.901	0.085	-0.148
-530.077	-200.000	0.003	0.041
-529.062	36.999	-0.178	0.158
-528.048	-200.000	-0.001	-0.306
-527.033	64.554	-0.105	0.106
-526.018	-136.246	0.188	0.022
-525.004	15.994	-0.168	-0.133
-523.989	90.320	-0.111	-0.124
-522.975	286.607	0.093	-0.168
-521.960	-135.218	-0.129	0.015
-520.945	16.647	0.136	0.108
-519.931	39.778	-0.035	0.031
-518.916	-33.600	0.141	-0.078
-517.902	-6.476	0.397	-0.271
-516.887	800.000	-0.026	-0.080
-515.872	100.682	-0.125	-0.146
-514.858	163.088	-0.134	-0.188
-513.843	56.964	0.201	0.196
-512.829	101.327	0.285	0.333
-511.814	800.000	-0.046	0.137
-510.799	-46.340	-0.427	-0.210
-509.785	-182.500	0.156	0.003
-508.770	251.368	-0.042	-0.072
-507.756	-126.642	0.338	0.050
-506.741	-125.439	0.272	-0.041
-505.726	-52.753	-0.251	0.116
-504.712	-75.301	-0.205	0.073
-503.697	505.309	0.087	-0.201
-502.683	62.524	-0.113	0.113
-501.668	-115.040	0.416	0.079
-500.653	-44.070	-0.218	0.110
-499.639	-134.309	0.257	0.032
-498.624	63.476	-0.173	0.174
-497.610	534.243	0.068	0.162
-496.595	-200.000	0.019	-0.345
-495.581	-5.435	-0.163	0.112
-494.566	-183.948	-0.213	0.004
-493.551	223.409	-0.134	0.216
-492.537	-132.666	0.155	-0.020
-491.522	800.000	-0.088	-0.305
-490.508	-200.000	-0.025	0.174
-489.493	23.677	0.158	-0.130
-488.478	97.338	0.169	0.194
-487.464	-27.652	-0.209	-0.121
-486.449	8.944	0.101	-0.076
-485.435	-122.794	-0.221	0.036
-484.420	-200.000	0.011	-0.108
-483.405	-5.221	0.172	-0.118
-482.391	-200.000	0.020	0.111
-481.376	-48.080	0.221	-0.107
-480.362	-88.851	-0.571	-0.170
-479.347	205.844	0.247	0.384
-478.332	15.745	0.171	0.135
-477.318	238.982	-0.116	0.193
-476.303	-132.978	0.172	-0.022
-475.289	-7.309	0.077	-0.052
-474.274	60.083	-0.046	0.046
-473.259	-200.000	-0.015	0.138
-472.245	80.207	0.180	0.194
-471.230	-200.000	0.007	0.188
-470.216	-158.374	0.281	0.016
-469.201	-142.159	-0.317	0.031
-468.186	-108.977	-0.183	0.039
-467.172	800.000	0.026	0.085
-466.157	-177.735	-0.073	-0.002
-465.143	-133.074	-0.102	-0.013
-464.128	242.312	0.073	-0.121
-463.113	178.972	0.074	0.108
-462.099	221.293	-0.088	-0.141
-461.084	-200.000	-0.040	0.195
-460.070	789.611	0.013	0.037
-459.055	-63.360	0.214	0.088
-458.040	8.143	-0.140	-0.105
-457.026	30.660	0.122	-0.104
-456.011	-133.155	-0.110	-0.014
-454.997	46.652	0.152	0.141
-453.982	-106.060	-0.170	0.038
-452.968	72.400	0.182	-0.190
-451.953	61.678	-0.162	0.161
-450.938	342.831	0.051	0.101
-449.924	-200.000	-0.013	0.171
-448.909	-200.000	-0.012	-0.466
-447.895	658.056	-0.157	-0.403
-446.880	-152.032	0.260	-0.019
-445.865	196.532	0.062	-0.094
-444.851	-93.427	-0.124	0.034
-443.836	163.815	-0.034	0.047
-442.822	-49.075	-0.183	0.088
-441.807	-29.969	-0.123	0.070
-440.792	66.669	-0.187	-0.191
-439.778	-200.000	-0.013	0.195
-438.763	-152.637	-0.606	0.043
-437.749	80.848	0.129	-0.139
-436.734	442.551	0.045	0.098
-435.719	-110.104	0.294	-0.061
-434.705	-200.000	0.006	0.297
-433.690	100.138	0.176	-0.203
-432.676	-93.657	0.144	-0.040
-431.661	-200.000	-0.032	-0.177
-430.646	-200.000	0.000	-0.134
-429.632	800.000	-0.034	0.099
-428.617	-60.497	0.154	-0.065
-427.603	-49.859	0.097	-0.046
-426.588	75.420	0.133	0.140
-425.573	7.488	0.255	0.190
-424.559	57.729	0.193	-0.188
-423.544	-47.281	0.155	-0.075
-422.530	87.208	-0.065	-0.072
-421.515	731.640	0.061	-0.163
-420.500	-200.000	-0.007	0.234
-419.486	-64.595	0.432	-0.175
-418.471	-54.673	-0.343	-0.155
-417.457	-56.889	0.252	-0.111
-416.442	-200.000	-0.017	0.097
-415.428	-200.000	0.014	0.084
-414.413	-200.000	-0.033	-0.361
-413.398	34.008	-0.105	0.091
-412.384	271.454	-0.039	-0.069
-411.369	81.601	0.092	-0.099
-410.355	167.186	0.174	0.246
-409.340	-74.831	-0.310	-0.111
-408.325	-200.000	0.011	0.251
-407.311	-200.000	-0.030	-0.353
-406.296	105.323	0.056	-0.066
-405.282	-151.090	0.104	-0.008
-404.267	-61.900	-0.047	0.019
-403.252	386.677	-0.115	0.236
-402.238	-52.204	-0.094	-0.044
-401.223	-200.000	-0.020	0.222
-400.209	197.094	-0.029	0.043
-399.194	-200.000	0.076	-0.376
-398.179	-194.659	0.087	-0.001
-397.165	800.000	0.066	0.264
-396.150	-200.000	0.005	0.331
-395.136	511.934	-0.171	0.397
-394.121	800.000	-0.048	0.179
-393.106	-200.000	-0.050	0.257
-392.092	219.127	0.051	-0.082
-391.077	-200.000	0.014	0.063
-390.063	27.649	-0.173	0.145
-389.048	58.182	0.068	-0.067
-388.033	33.773	-0.241	-0.209
-387.019	134.564	-0.147	-0.190
-386.004	29.766	0.122	0.104
-384.990	-153.086	0.176	0.012
-383.975	-200.000	0.046	0.278
-382.960	248.610	-0.278	0.470
-381.946	800.000	-0.090	0.274
-380.931	-200.000	-0.018	-0.214
-379.917	-75.768	-0.313	-0.111
-378.902	-22.238	0.217	-0.131
-377.888	13.761	0.184	-0.142
-376.873	63.613	-0.049	-0.049
-375.858	800.000	-0.025	0.081
-374.844	-200.000	0.010	0.217
-373.829	299.651	0.143	-0.262
-372.815	-117.028	0.056	0.010
-371.800	800.000	0.028	-0.110
-370.785	17.904	0.118	-0.094
-369.771	800.000	-0.034	0.108
-368.756	195.825	0.143	-0.217
-367.742	505.386	-0.102	0.235
-366.727	-101.556	0.109	-0.026
-365.712	25.015	-0.024	0.020
-364.698	332.789	0.111	0.213
-363.683	105.549	-0.107	-0.126
-362.669	800.000	-0.079	0.301
-361.654	-200.000	-0.040	0.270
-360.639	136.742	-0.297	0.386
-359.625	276.491	-0.034	0.061
-358.610	28.865	-0.195	-0.165
-357.596	-200.000	0.016	-0.228
-356.581	215.366	-0.283	-0.447
-355.566	328.454	-0.068	0.130
-354.552	800.000	-0.050	-0.144
-353.537	-77.453	-0.312	0.108
-352.523	-200.000	0.002	-0.089
-351.508	348.948	0.256	-0.503
-350.493	-200.000	0.005	0.149
-349.479	-78.278	-0.331	-0.113
-348.464	-67.859	0.394	-0.153
-347.450	217.719	0.108	-0.171
-346.435	-120.170	0.278	0.047
-345.420	-70.117	-0.162	0.061
-344.406	31.152	0.035	-0.030
-343.391	-175.590	-0.244	0.007
-342.377	-73.848	0.110	-0.040
-341.362	467.282	-0.199	0.445
-340.348	-142.871	-0.201	0.019
-339.333	-80.763	0.092	0.030
-338.318	-136.349	-0.068	0.008
-337.304	21.847	-0.285	0.231
-336.289	20.375	0.413	0.332
-335.275	-142.382	0.229	-0.022
-334.260	-71.861	0.073	0.027
-333.245	-34.520	-0.320	0.174
-332.231	7.344	0.048	-0.035
-331.216	800.000	0.051	0.151
-330.202	-200.000	0.027	0.176
-329.187	-78.889	0.081	0.027
-328.172	56.582	0.364	0.352
-327.158	54.728	-0.056	-0.053
-326.143	-151.899	-0.108	0.008
-325.129	-7.100	0.098	-0.066
-324.114	279.469	0.141	-0.251
-323.099	-31.130	0.212	-0.119
-322.085	196.964	0.106	-0.161
-321.070	-113.004	-0.294	0.058
-320.056	-6.296	0.057	-0.039
-319.041	-21.183	0.213	0.130
-318.026	-200.000	0.016	-0.096
-317.012	95.693	0.161	-0.183
-315.997	-123.059	0.072	-0.012
-314.983	-200.000	0.033	-0.348
-313.968	-140.678	0.098	-0.010
-312.953	-117.701	-0.190	0.034
-311.939	-200.000	0.048	0.237
-310.924	15.803	0.105	0.082
-309.910	-47.780	0.307	-0.148
-308.895	-150.784	-0.085	0.006
-307.880	39.137	0.094	0.083
-306.866	-200.000	-0.015	0.341
-305.851	68.817	0.011	-0.011
-304.837	242.527	-0.116	-0.193
-303.822	-163.987	-0.357	0.016
-302.807	-90.424	0.303	-0.087
-301.793	788.396	-0.035	0.095
-300.778	154.504	0.154	-0.211
-299.764	-30.773	-0.218	0.123
-298.749	800.000	-0.011	-0.045
-297.735	-59.017	0.205	-0.088
-296.720	36.126	0.148	0.129
-295.705	-200.000	-0.029	-0.209
-294.691	795.041	0.085	-0.233
-293.676	-58.350	-0.123	-0.053
-292.662	-27.470	0.099	-0.057
-291.647	97.676	0.241	0.276
-290.632	-109.458	-0.024	-0.005
-289.618	435.581	0.087	-0.187
-288.603	-200.000	0.008	0.231
-287.589	285.231	0.115	-0.205
-286.574	479.196	-0.135	0.304
-285.559	60.702	-0.259	0.255
-284.545	-200.000	-0.020	-0.221
-283.530	56.214	0.161	-0.155
-282.516	-118.749	0.234	0.041
-281.501	198.304	-0.146	-0.222
-280.486	-148.917	-0.090	0.007
-279.472	496.677	0.035	-0.079
-278.457	-22.118	0.189	-0.114
-277.443	-19.758	-0.140	0.086
-276.428	510.828	0.085	-0.196
-275.413	-147.789	-0.159	0.013
-274.399	6.864	0.049	-0.036
-273.384	4.544	-0.280	-0.204
-272.370	-200.000	0.034	0.161
-271.355	800.000	0.074	0.322
-270.340	356.155	0.145	0.287
-269.326	185.983	-0.230	0.339
-268.311	-200.000	0.019	-0.346
-267.297	-200.000	0.015	-0.205
-266.282	800.000	0.117	0.346
-265.267	-174.897	-0.240	0.007
-264.253	249.985	-0.172	-0.289
-263.238	-190.287	0.297	-0.003
-262.224	148.367	0.258	0.346
-261.209	-200.000	-0.016	-0.174
-260.195	-19.444	-0.159	-0.098
-259.180	38.862	-0.267	0.237
-258.165	-27.507	0.318	0.183
-257.151	60.926	0.226	0.222
-256.136	800.000	-0.112	0.319
-255.122	38.644	0.056	0.049
-254.107	-200.000	-0.025	-0.260
-253.092	-200.000	-0.003	-0.197
-252.078	-200.000	0.034	-0.159
-251.063	779.845	-0.096	0.261
-250.049	-102.195	0.371	0.089
-249.034	-22.037	-0.468	0.282
-248.019	-88.528	-0.361	-0.107
-247.005	-64.522	0.081	-0.033
-245.990	-31.944	-0.090	0.050
-244.976	105.490	-0.158	-0.185
-243.961	-200.000	0.046	0.204
-242.946	-138.297	-0.373	-0.041
-241.932	-200.000	0.012	0.302
-240.917	95.474	0.310	-0.350
-239.903	800.000	-0.109	0.324
-238.888	49.536	0.331	0.309
-237.873	47.978	0.329	0.305
-236.859	-200.000	-0.011	-0.153
-235.844	800.000	-0.022	0.063
-234.830	-41.026	-0.298	0.153
-233.815	-177.190	0.160	-0.004
-232.800	-200.000	0.043	-0.216
-231.786	-114.581	-0.194	-0.037
-230.771	21.137	-0.190	0.153
-229.757	1.317	-0.265	0.189
-228.742	156.631	0.114	0.156
-227.727	515.347	0.121	0.281
-226.713	674.847	-0.036	-0.094
-225.698	113.936	-0.236	0.284
-224.684	-200.000	0.004	0.095
-223.669	-200.000	0.030	-0.135
-222.655	-196.177	-0.305	0.002
-221.640	-200.000	-0.032	0.181
-220.625	800.000	-0.028	0.119
-219.611	198.627	0.128	-0.194
-218.596	-93.798	0.351	0.096
-217.582	-124.420	-0.189	-0.029
-216.567	-82.834	-0.115	0.037
-215.552	-132.218	-0.263	-0.034
-214.538	115.451	-0.184	0.222
-213.523	-2.533	0.206	0.143
-212.509	718.237	0.064	-0.169
-211.494	-109.221	-0.304	0.064
-210.479	-91.791	0.371	0.104
-209.465	419.177	-0.052	-0.111
-208.450	-200.000	-0.013	0.075
-207.436	-96.164	-0.103	-0.027
-206.421	5.135	-0.103	-0.075
-205.406	243.461	-0.135	-0.224
-204.392	-200.000	-0.026	0.258
-203.377	-200.000	-0.017	-0.151
-202.363	-200.000	0.004	-0.153
-201.348	-67.826	-0.049	-0.019
-200.333	41.585	-0.034	-0.031
-199.319	-200.000	0.029	-0.359
-198.304	-115.155	0.201	-0.038
-197.290	-117.169	0.271	-0.049
-196.275	-92.977	-0.312	-0.086
-195.260	-124.700	0.461	-0.071
-194.246	315.799	0.102	0.191
-193.231	153.400	0.142	-0.192
-192.217	-127.068	-0.168	-0.024
-191.202	-62.481	0.060	-0.025
-190.187	-115.308	0.175	-0.033
-189.173	800.000	0.055	-0.214
-188.158	-138.404	-0.225	0.024
-187.144	69.411	-0.143	0.145
-186.129	101.587	-0.204	0.235
-185.114	-161.798	0.140	0.007
-184.100	155.495	0.087	0.118
-183.085	800.000	0.039	-0.118
-182.071	-152.329	-0.117	0.008
-181.056	-32.980	0.218	-0.120
-180.042	-108.989	0.167	0.035
-179.027	446.268	-0.107	0.233
-178.012	43.011	-0.093	0.084
-176.998	-45.579	-0.092	0.045
-175.983	-200.000	-0.035	0.243
-174.969	147.608	0.120	-0.160
-173.954	800.000	0.034	0.103
-172.939	-200.000	-0.036	-0.160
-171.925	-66.729	0.127	-0.050
-170.910	-149.188	-0.211	0.017
-169.896	39.851	0.185	0.164
-168.881	800.000	0.113	0.393
-167.866	-103.858	-0.201	0.046
-166.852	-168.007	-0.167	-0.006
-165.837	168.303	0.168	-0.236
-164.823	-74.523	0.158	-0.056
-163.808	206.560	-0.071	-0.110
-162.793	-63.120	-0.305	0.124
-161.779	-200.000	0.023	0.148
-160.764	331.794	-0.199	0.379
-159.750	160.753	-0.195	0.268
-158.735	-8.494	0.326	-0.217
-157.720	163.902	0.222	0.308
-156.706	-39.850	-0.147	0.076
-155.691	-35.525	0.118	0.063
-154.677	-119.140	-0.346	0.060
-153.662	-81.729	-0.255	-0.083
-152.647	-200.000	-0.030	0.156
-151.633	800.000	0.013	-0.047
-150.618	-91.818	-0.245	0.069
-149.604	660.497	-0.051	0.130
-148.589	112.417	-0.059	0.070
-147.574	201.712	0.066	-0.100
-146.560	-99.618	0.195	-0.048
-145.545	-59.803	-0.248	0.105
-144.531	-200.000	-0.004	-0.129
-143.516	-119.421	0.074	0.013
-142.502	100.599	-0.140	-0.160
-141.487	-23.454	-0.192	0.114
-140.472	54.731	0.293	0.279
-139.458	-31.062	0.231	0.129
-138.443	287.408	-0.075	0.133
-137.429	141.848	-0.028	0.037
-136.414	-200.000	-0.057	-0.284
-135.399	-15.274	0.284	0.179
-134.385	27.485	0.066	-0.055
-133.370	-76.707	0.299	-0.103
-132.356	-41.698	0.157	0.080
-131.341	-92.137	-0.219	-0.061
-130.326	-83.103	-0.047	-0.015
-129.312	-97.591	0.111	0.028
-128.297	-14.781	0.455	0.288
-127.283	235.078	-0.120	-0.195
-126.268	-200.000	0.023	0.379
-125.253	8.641	-0.151	-0.112
-124.239	-132.150	-0.146	0.019
-123.224	-40.904	-0.192	-0.098
-122.210	-74.901	-0.223	0.079
-121.195	-37.207	-0.058	0.031
-120.180	-59.766	-0.199	0.084
-119.166	-9.022	0.210	0.139
-118.151	-200.000	-0.028	-0.183
-117.137	-200.000	-0.022	0.105
-116.122	-143.241	-0.456	-0.043
-115.107	-124.402	0.098	0.015
-114.093	-89.795	-0.174	0.050
-113.078	5.044	0.383	0.278
-112.064	-21.486	0.133	0.080
-111.049	-140.792	0.196	-0.020
-110.034	89.825	0.170	-0.188
-109.020	-63.228	0.218	-0.088
-108.005	-82.273	0.121	0.039
-106.991	800.000	0.077	0.255
-105.976	-88.981	0.246	0.072
-104.962	211.582	-0.087	0.135
-103.947	375.718	-0.172	0.346
-102.932	800.000	-0.104	-0.368
-101.918	43.544	-0.062	-0.056
-100.903	138.187	-0.115	-0.149
-99.889	800.000	-0.066	-0.266
-98.874	-84.461	-0.030	0.009
-97.859	142.583	-0.229	0.300
-96.845	13.552	-0.155	-0.119
-95.830	204.315	-0.133	-0.203
-94.816	141.678	-0.138	-0.181
-93.801	-200.000	0.005	-0.123
-92.786	55.404	0.123	-0.118
-91.772	800.000	0.096	-0.322
-90.757	-103.960	-0.275	0.063
-89.743	112.307	0.199	0.237
-88.728	-80.315	0.111	0.036
-87.713	-69.581	0.193	-0.073
-86.699	37.859	0.208	0.182
-85.684	-6.347	0.192	-0.129
-84.670	363.711	-0.180	-0.357
-83.655	-155.876	-0.169	0.011
-82.640	-147.961	0.287	-0.024
-81.626	-82.018	0.388	-0.125
-80.611	756.769	-0.068	-0.181
-79.597	-200.000	0.049	0.311
-78.582	-200.000	-0.006	0.096
-77.567	-103.523	0.200	-0.046
-76.553	-117.842	-0.140	-0.025
-75.538	40.644	0.153	0.136
-74.524	800.000	-0.083	-0.244
-73.509	146.794	-0.058	0.077
-72.494	-41.331	-0.327	0.166
-71.480	-46.252	-0.155	-0.075
-70.465	28.758	0.086	-0.072
-69.451	214.337	-0.271	-0.422
-68.436	-34.489	0.200	-0.108
-67.422	413.487	0.104	-0.218
-66.407	800.000	-0.108	0.369
-65.392	382.219	-0.203	0.410
-64.378	-21.937	0.352	-0.211
-63.363	-73.334	0.283	-0.102
-62.349	-200.000	0.076	-0.384
-61.334	72.885	-1.061	-1.090
-60.319	15.653	0.674	0.522
-59.305	800.000	-0.345	-1.031
-58.290	298.978	0.644	1.167
-57.276	425.420	0.661	1.401
-56.261	-200.000	115.944	660.105
-55.246	524.494	1531.369	3544.899
-54.232	172.207	2715.618	3842.901
-53.217	98.632	2336.982	2652.572
-52.203	33.609	2080.707	1779.658
-51.188	28.591	1994.750	1660.791
-50.173	27.264	1977.579	1634.510
-49.159	45.824	2037.939	1854.256
-48.144	44.373	2052.881	1854.540
-47.130	29.159	2011.269	1679.457
-46.115	26.939	2000.075	1649.889
-45.100	26.883	1997.240	1646.977
-44.086	26.832	1994.944	1644.560
-43.071	26.685	1992.654	1641.268
-42.057	26.675	1991.002	1639.753
-41.042	26.736	1988.629	1638.288
-40.027	26.770	1986.872	1637.084
-39.013	26.756	1984.159	1634.652
-37.998	26.780	1982.943	1633.800
-36.984	26.715	1981.345	1631.833
-35.969	26.799	1978.976	1630.574
-34.954	26.796	1977.239	1629.053
-33.940	26.812	1976.036	1628.143
-32.925	26.848	1974.011	1626.736
-31.911	26.878	1972.429	1625.636
-30.896	26.866	1970.890	1624.188
-29.881	26.817	1969.505	1622.545
-28.867	26.937	1967.360	1621.790
-27.852	26.999	1965.878	1621.060
-26.838	26.879	1964.577	1618.846
-25.823	26.967	1962.206	1617.617
-24.809	26.897	1960.595	1615.598
-23.794	26.941	1958.768	1614.421
-22.779	26.923	1956.948	1612.696
-21.765	26.871	1955.828	1611.249
-20.750	26.890	1954.082	1609.918
-19.736	26.932	1952.606	1609.004
-18.721	26.938	1950.249	1607.054
-17.706	26.956	1948.919	1606.051
-16.692	26.961	1946.736	1604.234
-15.677	26.863	1945.645	1602.405
-14.663	26.966	1944.197	1602.058
-13.648	26.905	1943.009	1600.481
-12.633	26.847	1942.175	1599.221
-11.619	26.816	1940.719	1597.683
-10.604	26.904	1938.761	1596.781
-9.590	26.887	1937.965	1595.915
-8.575	26.935	1936.407	1594.991
-7.560	26.909	1935.181	1593.682
-6.546	26.848	1934.158	1592.248
-5.531	26.956	1932.686	1591.915
-4.517	26.936	1931.245	1590.489
-3.502	26.906	1930.290	1589.383
-2.487	26.838	1929.172	1587.804
-1.473	26.928	1927.886	1587.465
-0.458	26.871	1923.227	1583.071
0.556	27.757	1903.639	1555.655
1.571	23.695	1885.165	1506.051
2.586	19.939	1909.231	1492.824
3.600	18.975	1944.615	1511.880
4.615	18.412	1937.802	1501.521
5.629	14.009	1836.243	1386.056
6.644	6.865	1721.655	1243.403
7.659	3.662	1689.421	1195.250
8.673	3.421	1686.007	1190.866
9.688	3.349	1684.721	1189.299
10.702	3.369	1683.804	1188.701
11.717	3.331	1680.086	1185.673
12.731	3.813	1678.849	1188.408
13.746	8.659	1690.824	1234.223
14.761	16.289	1706.998	1305.111
15.775	20.167	1713.015	1339.620
16.790	20.289	1712.405	1339.969
17.804	19.373	1709.934	1330.851
18.819	18.363	1706.383	1320.185
19.834	17.716	1703.841	1313.118
20.848	17.522	1702.697	1310.633
21.863	17.408	1700.954	1308.294
22.877	17.238	1699.529	1305.776
23.892	17.040	1698.029	1302.993
24.907	16.820	1697.595	1300.850
25.921	16.836	1696.252	1299.831
26.936	16.885	1694.548	1298.782
27.950	16.925	1694.271	1298.762
28.965	16.922	1693.718	1298.206
29.980	17.036	1692.948	1298.369
30.994	17.135	1691.938	1298.235
32.009	17.148	1690.760	1297.317
33.023	17.243	1690.063	1297.394
34.038	17.239	1689.279	1296.649
35.053	17.181	1688.070	1295.166
36.067	17.207	1686.199	1293.807
37.082	17.111	1685.574	1292.482
38.096	17.067	1684.683	1291.353
39.111	17.092	1683.756	1290.718
40.126	17.282	1682.461	1291.052
41.140	17.033	1682.393	1288.998
42.155	16.990	1680.266	1286.924
43.169	16.781	1678.681	1284.016
44.184	16.705	1677.602	1282.501
45.199	16.787	1676.279	1282.000
46.213	16.715	1675.187	1280.504
47.228	16.730	1674.478	1279.958
48.242	16.869	1673.089	1279.839
49.257	17.036	1672.476	1280.515
50.271	17.054	1671.019	1279.422
51.286	17.036	1669.707	1278.170
52.301	16.952	1668.588	1276.567
53.315	17.025	1666.909	1275.718
54.330	16.932	1665.640	1273.932
55.344	16.846	1663.740	1271.723
56.359	16.879	1662.511	1270.920
57.374	16.845	1661.134	1269.498
58.388	16.764	1660.370	1268.196
59.403	16.745	1659.036	1266.923
60.417	16.741	1656.901	1265.149
61.432	16.682	1656.502	1264.294
62.447	16.724	1654.759	1263.167
63.461	16.636	1653.839	1261.697
64.476	16.657	1652.294	1260.558
65.490	16.553	1651.473	1259.047
66.505	16.616	1649.972	1258.261
67.520	16.582	1649.137	1257.260
68.534	16.640	1648.612	1257.178
69.549	16.626	1647.377	1256.026
70.563	16.587	1645.951	1254.537
71.578	16.550	1644.910	1253.356
72.593	16.514	1643.788	1252.126
73.607	16.509	1642.413	1250.927
74.622	16.466	1641.395	1249.728
75.636	16.417	1640.975	1248.931
76.651	16.434	1639.904	1248.130
77.666	16.476	1639.115	1247.730
78.680	16.524	1637.957	1247.097
79.695	16.464	1637.821	1246.441
80.709	16.619	1635.957	1246.052
81.724	16.725	1634.921	1245.930
82.739	16.745	1634.923	1245.969
83.753	16.891	1633.480	1245.829
84.768	16.826	1632.861	1244.775
85.782	16.995	1632.251	1245.437
86.797	17.050	1632.159	1245.659
87.812	17.121	1630.698	1244.957
88.826	17.024	1629.729	1243.398
89.841	16.962	1628.221	1241.681
90.855	16.903	1627.867	1240.867
91.870	16.919	1627.233	1240.392
92.884	17.181	1625.198	1240.649
93.899	17.082	1624.524	1239.300
94.914	17.106	1623.193	1238.350
95.928	17.248	1621.678	1238.121
96.943	17.251	1620.077	1236.812
97.957	17.148	1619.313	1235.364
98.972	17.184	1617.157	1233.875
99.987	17.051	1615.922	1231.859
101.001	17.048	1614.319	1230.508
102.016	17.144	1612.859	1229.982
103.030	17.055	1611.244	1227.995
104.045	17.123	1610.665	1227.940
105.060	17.016	1609.076	1225.840
106.074	17.010	1607.776	1224.702
107.089	16.982	1605.503	1222.661
108.103	16.653	1604.355	1219.309
109.118	16.549	1602.692	1217.184
110.133	16.585	1601.065	1216.101
111.147	16.590	1599.797	1215.065
112.162	16.656	1598.759	1214.648
113.176	16.564	1597.616	1213.009
114.191	16.630	1596.213	1212.309
115.206	16.612	1594.742	1210.954
116.220	16.709	1593.393	1210.516
117.235	16.763	1592.304	1209.972
118.249	16.792	1590.604	1208.782
119.264	16.810	1588.813	1207.442
120.279	16.776	1587.869	1206.374
121.293	16.640	1586.212	1204.039
122.308	16.651	1584.371	1202.614
123.322	16.549	1583.227	1200.917
124.337	16.466	1581.533	1198.932
125.352	16.491	1580.352	1198.109
126.366	16.447	1579.427	1196.988
127.381	16.468	1578.543	1196.364
128.395	16.497	1577.112	1195.380
129.410	16.430	1575.869	1193.859
130.424	16.507	1574.389	1193.175
131.439	16.654	1573.108	1193.136
132.454	16.617	1572.045	1191.961
133.468	16.739	1570.381	1191.454
134.483	16.753	1569.161	1190.523
135.497	16.659	1567.786	1188.710
136.512	16.811	1566.442	1188.655
137.527	16.764	1565.501	1187.505
138.541	16.707	1564.037	1185.890
139.556	16.916	1562.095	1185.775
140.570	16.925	1560.787	1184.743
141.585	16.896	1559.966	1183.811
142.600	16.930	1559.144	1183.319
143.614	17.051	1557.549	1182.847
144.629	17.109	1556.466	1182.325
145.643	17.182	1555.225	1181.786
146.658	17.147	1553.851	1180.391
147.673	17.133	1552.031	1178.810
148.687	17.101	1550.280	1177.153
149.702	17.001	1548.911	1175.312
150.716	16.895	1547.391	1173.324
151.731	16.844	1545.882	1171.724
152.746	16.831	1544.626	1170.579
153.760	16.920	1543.109	1169.939
154.775	16.885	1542.119	1168.845
155.789	17.004	1540.876	1168.616
156.804	17.077	1539.578	1168.036
157.819	17.126	1538.436	1167.397
158.833	17.127	1537.496	1166.591
159.848	17.218	1535.815	1165.834
160.862	17.251	1534.872	1165.245
161.877	17.314	1533.935	1164.860
162.892	17.244	1532.422	1163.126
163.906	17.023	1531.162	1160.561
164.921	16.890	1529.789	1158.509
165.935	16.888	1528.775	1157.620
166.950	16.958	1528.101	1157.489
167.964	17.058	1526.476	1156.835
168.979	17.130	1525.453	1156.449
169.994	17.113	1524.148	1155.241
171.008	17.055	1522.989	1153.864
172.023	17.102	1521.972	1153.314
173.037	17.156	1520.914	1152.778
174.052	17.295	1520.032	1152.950
175.067	17.239	1519.205	1151.841
176.081	17.153	1518.249	1150.428
177.096	17.042	1516.572	1148.304
178.110	17.024	1514.967	1146.865
179.125	16.978	1514.114	1145.811
180.140	17.053	1512.913	1145.308
181.154	17.140	1511.864	1144.995
182.169	17.132	1510.689	1143.953
183.183	17.214	1509.595	1143.572
184.198	17.268	1508.990	1143.375
185.213	17.386	1507.900	1143.241
186.227	17.404	1506.569	1142.258
187.242	17.317	1506.050	1141.175
188.256	17.396	1504.830	1140.680
189.271	17.531	1503.254	1140.289
190.286	17.602	1502.255	1139.904
191.300	17.469	1501.577	1138.400
192.315	17.206	1500.024	1135.367
193.329	17.041	1498.119	1132.724
194.344	17.021	1497.227	1131.813
195.359	16.984	1496.405	1130.844
196.373	17.140	1495.227	1130.892
197.388	17.214	1494.960	1131.083
198.402	17.339	1494.006	1131.097
199.417	17.443	1492.826	1130.793
200.432	17.538	1491.806	1130.547
201.446	17.577	1491.165	1130.224
202.461	17.784	1489.630	1130.334
203.475	17.789	1488.387	1129.322
204.490	17.820	1487.515	1128.767
205.504	17.692	1486.427	1126.995
206.519	17.529	1485.388	1125.032
207.534	17.540	1483.943	1123.910
208.548	17.513	1483.208	1123.074
209.563	17.403	1482.180	1121.468
210.577	17.575	1480.691	1121.374
211.592	17.390	1480.484	1119.900
212.607	17.589	1479.198	1120.140
213.621	17.681	1478.635	1120.221
214.636	17.808	1477.872	1120.377
215.650	17.639	1477.166	1118.630
216.665	17.703	1475.735	1117.869
217.680	17.785	1475.231	1117.925
218.694	17.941	1474.278	1118.125
219.709	17.924	1473.797	1117.550
220.723	17.928	1472.746	1116.683
221.738	17.823	1471.703	1115.105
222.753	17.859	1470.565	1114.378
223.767	17.775	1470.188	1113.448
224.782	17.883	1468.782	1112.986
225.796	17.892	1467.657	1112.093
226.811	17.931	1467.393	1112.050
227.826	18.033	1466.660	1112.061
228.840	17.931	1465.611	1110.505
229.855	17.862	1464.679	1109.250
230.869	17.855	1463.663	1108.340
231.884	17.731	1462.571	1106.606
232.899	17.866	1461.044	1106.233
233.913	17.794	1460.050	1104.915
234.928	17.708	1458.935	1103.417
235.942	17.765	1457.520	1102.619
236.957	17.683	1456.345	1101.099
237.972	17.693	1454.840	1099.932
238.986	17.668	1453.850	1098.921
240.001	17.717	1453.317	1098.736
241.015	17.736	1452.200	1097.917
242.030	17.881	1450.630	1097.568
243.045	17.788	1450.372	1096.675
244.059	17.927	1449.161	1096.559
245.074	17.908	1448.152	1095.577
246.088	17.961	1447.471	1095.300
247.103	18.067	1447.121	1095.619
248.117	17.994	1446.346	1094.466
249.132	18.131	1445.618	1094.696
250.147	18.186	1444.947	1094.445
251.161	18.351	1444.644	1095.173
252.176	18.475	1443.819	1095.247
253.190	18.528	1443.053	1094.902
254.205	18.485	1442.011	1093.741
255.220	18.585	1440.923	1093.460
256.234	18.673	1440.773	1093.812
257.249	18.661	1439.724	1092.839
258.263	18.677	1438.562	1091.961
259.278	18.589	1437.802	1090.730
260.293	18.731	1436.173	1090.297
261.307	18.526	1435.981	1088.754
262.322	18.671	1435.206	1088.991
263.336	18.705	1434.602	1088.652
264.351	18.795	1433.640	1088.397
265.366	18.792	1432.240	1087.216
266.380	18.857	1431.409	1086.901
267.395	18.934	1430.546	1086.636
268.409	18.862	1429.508	1085.296
269.424	18.737	1428.698	1083.797
270.439	18.654	1427.730	1082.442
271.453	18.675	1426.524	1081.563
272.468	18.751	1425.514	1081.181
273.482	18.677	1425.036	1080.261
274.497	18.643	1423.882	1079.078
275.512	18.548	1423.455	1078.059
276.526	18.506	1422.620	1077.068
277.541	18.572	1421.068	1076.214
278.555	18.593	1420.489	1075.811
279.570	18.713	1419.213	1075.498
280.585	18.774	1418.424	1075.189
281.599	18.812	1417.850	1074.896
282.614	18.807	1417.316	1074.367
283.628	18.818	1415.670	1073.093
284.643	18.712	1414.580	1071.506
285.657	18.801	1413.198	1070.923
286.672	18.755	1412.214	1069.797
287.687	18.851	1411.342	1069.636
288.701	18.771	1410.322	1068.270
289.716	18.767	1409.863	1067.801
290.730	18.767	1409.567	1067.484
291.745	18.744	1408.341	1066.320
292.760	18.807	1406.875	1065.505
293.774	18.834	1406.189	1065.062
294.789	18.881	1405.442	1064.693
295.803	19.033	1404.872	1065.106
296.818	18.960	1403.813	1063.760
297.833	19.002	1402.241	1062.733
298.847	18.893	1401.216	1061.186
299.862	18.887	1400.830	1060.761
300.876	18.944	1399.483	1060.000
301.891	18.870	1399.005	1059.093
302.906	19.006	1397.736	1058.876
303.920	18.989	1397.447	1058.459
304.935	19.163	1396.587	1058.783
305.949	19.229	1395.895	1058.565
306.964	19.226	1395.655	1058.275
307.979	19.359	1394.101	1057.815
308.993	19.265	1393.342	1056.575
310.008	19.148	1391.906	1054.676
311.022	19.222	1390.733	1054.141
312.037	19.252	1390.188	1053.818
313.052	19.248	1389.249	1052.989
314.066	19.277	1387.959	1052.100
315.081	19.216	1386.701	1050.676
316.095	19.137	1385.655	1049.313
317.110	19.022	1384.747	1047.829
318.125	19.029	1383.641	1046.942
319.139	19.083	1382.193	1046.084
320.154	18.917	1381.969	1044.811
321.168	19.014	1380.978	1044.561
322.183	19.051	1379.743	1043.756
323.197	19.087	1378.958	1043.292
324.212	19.138	1377.890	1042.698
325.227	19.129	1377.311	1042.114
326.241	19.200	1376.237	1041.638
327.256	19.177	1375.652	1040.966
328.270	19.228	1374.621	1040.400
329.285	19.197	1373.525	1039.294
330.300	19.101	1372.632	1037.944
331.314	19.074	1371.967	1037.188
332.329	19.145	1370.721	1036.581
333.343	19.159	1369.836	1035.906
334.358	19.229	1369.338	1035.859
335.373	19.259	1368.758	1035.505
336.387	19.266	1368.049	1034.921
337.402	19.331	1367.081	1034.488
338.416	19.405	1365.963	1033.992
339.431	19.441	1365.777	1033.978
340.446	19.609	1364.870	1034.207
341.460	19.593	1364.048	1033.394
342.475	19.656	1363.366	1033.166
343.489	19.783	1362.430	1033.121
344.504	19.783	1361.359	1032.219
345.519	19.862	1360.617	1032.038
346.533	19.800	1359.948	1031.068
347.548	19.735	1359.141	1029.978
348.562	19.991	1358.049	1030.579
349.577	19.877	1357.299	1029.242
350.592	19.904	1356.163	1028.449
351.606	19.650	1355.635	1026.450
352.621	19.557	1354.091	1024.637
353.635	19.521	1352.968	1023.485
354.650	19.537	1352.093	1022.831
355.665	19.561	1350.695	1021.821
356.679	19.546	1350.287	1021.332
357.694	19.583	1348.860	1020.383
358.708	19.749	1347.932	1020.571
359.723	19.714	1347.057	1019.611
360.738	19.737	1346.284	1019.071
361.752	19.748	1345.376	1018.360
362.767	19.858	1343.892	1017.795
363.781	19.660	1343.309	1016.098
364.796	19.737	1342.702	1015.998
365.810	19.818	1341.988	1015.843
366.825	19.958	1341.354	1016.095
367.840	20.023	1340.803	1015.972
368.854	20.078	1339.904	1015.520
369.869	20.178	1339.430	1015.659
370.883	20.126	1338.937	1014.893
371.898	20.179	1337.784	1014.241
372.913	20.062	1337.147	1012.981
373.927	19.977	1336.455	1011.871
374.942	20.085	1335.036	1011.337
375.956	20.174	1334.436	1011.311
376.971	20.203	1333.752	1010.874
377.986	20.200	1332.645	1009.929
379.000	20.175	1331.741	1009.009
380.015	20.162	1331.220	1008.449
381.029	20.377	1330.425	1009.005
382.044	20.488	1329.834	1009.110
383.059	20.385	1329.134	1007.896
384.073	20.257	1328.754	1006.772
385.088	20.421	1327.877	1006.971
386.102	20.397	1327.231	1006.254
387.117	20.394	1326.218	1005.380
388.132	20.340	1325.414	1004.368
389.146	20.200	1324.545	1002.812
390.161	20.191	1323.194	1001.645
391.175	20.169	1323.192	1001.433
392.190	20.158	1322.552	1000.793
393.205	20.247	1321.177	1000.179
394.219	20.297	1320.310	999.719
395.234	20.389	1319.028	999.191
396.248	20.308	1317.941	997.814
397.263	20.283	1316.191	996.255
398.278	20.346	1314.752	995.439
399.292	20.145	1314.321	993.878
400.307	20.147	1312.655	992.539
401.321	20.058	1311.624	991.160
402.336	20.106	1310.504	990.501
403.350	20.125	1309.596	989.837
404.365	20.141	1308.694	989.158
405.380	20.206	1307.779	988.749
406.394	20.272	1307.103	988.531
407.409	20.365	1306.676	988.646
408.423	20.317	1306.152	987.888
409.438	20.481	1305.118	987.954
410.453	20.615	1304.518	988.175
411.467	20.584	1304.250	987.706
412.482	20.622	1303.841	987.524
413.496	20.643	1302.918	986.860
414.511	20.770	1301.822	986.660
415.526	20.831	1301.085	986.362
416.540	20.757	1300.715	985.572
417.555	20.839	1299.811	985.265
418.569	20.851	1299.712	985.173
419.584	20.849	1298.873	984.436
420.599	20.805	1297.978	983.421
421.613	145.280	1435.180	1796.514
422.628	140.508	1455.132	1796.581
