DTS Sentinel unit serial number:	SN413079Multiplexer serial number:	ORYXHardware model number:	OX4-SRSoftware version number:	ORYX F/W v4.00 Oryx Data Collector v3.7.2.0data status	okinstallation	princeton_trtdifferential loss correction	single-endedforward channel	channel 4reverse channel	N/Adate	2019/09/17time	02:05:35forward acquisition time	60.00reverse acquisition time	0.00gamma	496.2192k internal	0.2312k external	0.2312temperature offset calibration	0.9977default loss term (dB/km)	0.3790temperature slope calibration	1.0000multiplexer offset coefficient	1.0000multiplexer slope coefficient	1.0000fibre end	0.00T internal ref (°C)	29.69T ext. ref 1 (°C)	0.12T ext. ref 2 (°C)	24.59length (m)	temperature (°C)	Stokes	anti-Stokes-747.200	-93.793	0.134	-0.037
-746.185	543.138	-0.178	0.431
-745.171	800.000	0.071	0.264
-744.156	-120.725	0.100	0.017
-743.142	-97.752	-0.363	0.095
-742.127	785.078	-0.099	0.275
-741.112	-150.158	0.334	0.026
-740.098	-123.595	-0.168	-0.027
-739.083	-147.725	0.305	0.026
-738.069	800.000	0.101	0.405
-737.054	324.139	-0.087	0.168
-736.039	-97.319	-0.230	0.061
-735.025	-20.807	-0.123	-0.076
-734.010	9.590	0.155	0.119
-732.996	-12.288	-0.183	-0.121
-731.981	338.371	-0.126	-0.249
-730.966	800.000	0.018	0.060
-729.952	-40.568	-0.254	-0.133
-728.937	276.879	-0.180	0.325
-727.923	-107.389	-0.093	-0.021
-726.908	-200.000	0.007	0.168
-725.894	39.483	0.103	0.093
-724.879	-21.358	-0.227	-0.141
-723.864	-141.513	0.347	0.036
-722.850	272.969	-0.186	-0.334
-721.835	-79.417	0.194	0.066
-720.821	103.932	0.170	-0.203
-719.806	800.000	-0.082	0.257
-718.791	-15.087	-0.278	-0.180
-717.777	800.000	-0.053	-0.189
-716.762	-55.402	-0.082	-0.037
-715.748	-64.811	-0.418	0.171
-714.733	122.294	0.058	0.074
-713.718	-41.429	-0.132	-0.069
-712.704	126.905	-0.126	-0.161
-711.689	-96.319	-0.424	-0.114
-710.675	225.760	0.114	0.188
-709.660	170.318	0.249	0.362
-708.645	429.136	-0.098	-0.214
-707.631	-84.525	-0.383	-0.123
-706.616	8.253	0.234	-0.178
-705.602	155.636	0.191	-0.267
-704.587	-43.358	-0.284	0.146
-703.572	541.899	0.070	-0.169
-702.558	-99.719	-0.215	-0.055
-701.543	-115.538	-0.056	0.011
-700.529	158.666	-0.042	0.060
-699.514	147.827	0.051	-0.069
-698.499	-24.310	0.152	-0.092
-697.485	-85.975	-0.205	0.064
-696.470	41.227	0.157	-0.144
-695.456	-200.000	-0.008	0.145
-694.441	-3.848	-0.201	0.141
-693.426	-99.634	-0.139	-0.035
-692.412	-2.218	-0.161	-0.114
-691.397	85.818	0.154	-0.171
-690.383	800.000	-0.056	0.180
-689.368	40.369	-0.081	0.074
-688.354	-200.000	0.008	-0.406
-687.339	17.146	-0.082	-0.066
-686.324	-159.243	-0.114	-0.006
-685.310	-200.000	0.055	0.368
-684.295	-200.000	-0.056	0.288
-683.281	-83.525	-0.149	-0.048
-682.266	-200.000	0.031	0.147
-681.251	115.033	-0.190	0.235
-680.237	-27.901	-0.195	0.114
-679.222	-29.951	0.138	0.080
-678.208	-14.544	0.065	0.043
-677.193	800.000	0.022	0.073
-676.178	-200.000	0.077	-0.407
-675.164	-4.403	0.230	-0.161
-674.149	-44.420	-0.306	0.155
-673.135	101.851	0.095	-0.112
-672.120	-128.561	0.347	-0.050
-671.105	56.230	0.200	0.197
-670.091	-200.000	-0.061	0.317
-669.076	-26.479	0.252	0.150
-668.062	-118.912	0.105	-0.019
-667.047	490.568	-0.194	-0.449
-666.032	-200.000	-0.015	0.092
-665.018	800.000	-0.086	0.254
-664.003	384.917	-0.097	0.203
-662.989	-45.027	-0.471	0.237
-661.974	-180.620	-0.205	-0.004
-660.959	-200.000	0.009	-0.232
-659.945	70.829	0.165	-0.173
-658.930	272.650	-0.082	-0.147
-657.916	150.328	-0.174	0.239
-656.901	-162.777	-0.135	-0.007
-655.886	61.518	-0.080	-0.080
-654.872	135.218	0.193	0.254
-653.857	800.000	-0.057	-0.179
-652.843	87.909	0.081	0.090
-651.828	-79.625	0.335	-0.114
-650.814	104.370	0.179	0.213
-649.799	327.855	0.082	0.159
-648.784	800.000	-0.052	-0.231
-647.770	-2.585	-0.335	-0.237
-646.755	94.559	-0.212	-0.243
-645.741	61.163	0.154	0.154
-644.726	-112.055	-0.228	-0.046
-643.711	366.897	0.179	0.365
-642.697	12.377	-0.614	0.478
-641.682	57.852	0.033	-0.033
-640.668	800.000	0.055	0.192
-639.653	-200.000	-0.026	0.122
-638.638	800.000	0.034	-0.136
-637.624	-200.000	0.006	-0.135
-636.609	800.000	-0.034	-0.136
-635.595	-65.585	0.241	0.098
-634.580	-57.237	0.134	0.060
-633.565	432.360	0.043	-0.094
-632.551	-60.141	-0.191	-0.082
-631.536	-193.779	-0.396	-0.003
-630.522	-104.163	0.403	-0.095
-629.507	27.460	-0.013	-0.011
-628.492	691.474	0.049	0.131
-627.478	-71.884	0.117	-0.044
-626.463	-98.384	-0.151	-0.039
-625.449	-173.434	-0.402	-0.012
-624.434	-200.000	0.048	-0.249
-623.419	-76.527	0.218	-0.077
-622.405	-137.193	0.224	0.026
-621.390	-200.000	0.018	-0.192
-620.376	295.257	-0.129	-0.238
-619.361	535.382	0.219	0.525
-618.346	-49.873	-0.170	-0.082
-617.332	187.635	0.126	-0.189
-616.317	-50.629	-0.212	-0.101
-615.303	184.421	0.217	0.325
-614.288	-200.000	-0.039	0.228
-613.273	11.340	0.284	-0.219
-612.259	-114.350	0.203	0.039
-611.244	-51.579	-0.341	0.161
-610.230	112.378	-0.212	-0.259
-609.215	800.000	0.081	0.262
-608.201	800.000	0.050	0.167
-607.186	235.117	0.111	-0.185
-606.171	373.213	-0.136	0.279
-605.157	-200.000	0.015	0.105
-604.142	193.979	0.162	0.248
-603.128	-165.607	-0.294	-0.013
-602.113	-95.553	0.133	0.036
-601.098	-103.142	0.250	-0.060
-600.084	0.503	0.116	0.083
-599.069	291.952	0.063	-0.117
-598.055	724.559	-0.057	-0.154
-597.040	-85.953	0.218	-0.068
-596.025	-200.000	0.023	0.185
-595.011	800.000	-0.061	0.266
-593.996	22.865	-0.043	0.036
-592.982	-104.533	0.312	0.073
-591.967	78.158	-0.195	0.210
-590.952	-149.749	-0.055	0.004
-589.938	-200.000	0.045	0.219
-588.923	-165.368	-0.180	-0.008
-587.909	68.844	0.324	0.336
-586.894	-110.369	0.166	0.035
-585.879	-200.000	0.046	-0.341
-584.865	412.336	0.056	0.120
-583.850	800.000	0.037	-0.122
-582.836	-51.682	0.299	0.140
-581.821	-146.855	-0.193	-0.017
-580.806	271.354	0.101	-0.179
-579.792	-44.130	-0.105	-0.053
-578.777	-200.000	-0.013	0.097
-577.763	-76.140	-0.170	-0.061
-576.748	44.885	0.155	-0.144
-575.733	-200.000	-0.017	-0.152
-574.719	3.045	0.063	-0.046
-573.704	-20.104	-0.102	0.063
-572.690	-200.000	0.005	-0.091
-571.675	-24.284	-0.162	0.097
-570.661	-122.010	-0.212	-0.035
-569.646	-200.000	-0.004	0.225
-568.631	800.000	0.106	0.382
-567.617	-31.812	-0.353	0.199
-566.602	-71.693	-0.424	0.159
-565.588	223.538	-0.097	0.157
-564.573	229.121	0.118	-0.195
-563.558	-42.521	-0.273	0.140
-562.544	-8.385	-0.068	-0.046
-561.529	-27.881	-0.422	0.246
-560.515	-67.340	0.212	0.084
-559.500	-114.755	0.367	-0.071
-558.485	-159.234	0.261	-0.015
-557.471	800.000	0.101	0.314
-556.456	-200.000	-0.008	0.155
-555.442	-200.000	0.085	-0.481
-554.427	572.520	0.059	-0.146
-553.412	-58.799	0.046	0.020
-552.398	317.152	0.037	-0.070
-551.383	-200.000	-0.092	-0.439
-550.369	45.342	-0.256	-0.238
-549.354	-200.000	-0.054	0.241
-548.339	42.872	-0.048	-0.044
-547.325	800.000	-0.010	0.031
-546.310	708.126	-0.094	0.249
-545.296	230.500	0.070	0.115
-544.281	-200.000	-0.016	-0.431
-543.266	324.825	-0.090	-0.173
-542.252	168.805	0.128	0.184
-541.237	-6.129	0.142	-0.098
-540.223	113.732	-0.072	-0.088
-539.208	-172.530	-0.205	-0.007
-538.193	800.000	0.014	0.054
-537.179	-200.000	0.036	0.216
-536.164	458.784	-0.188	0.421
-535.150	-200.000	-0.024	-0.287
-534.135	139.752	-0.091	0.120
-533.121	800.000	0.100	0.367
-532.106	-74.563	0.156	0.056
-531.091	-127.688	-0.089	0.013
-530.077	114.972	-0.166	-0.203
-529.062	-120.856	-0.226	0.038
-528.048	11.359	-0.095	0.073
-527.033	800.000	0.100	0.390
-526.018	-121.898	-0.540	0.090
-525.004	-0.648	0.255	0.182
-523.989	-138.652	0.154	-0.017
-522.975	-27.257	-0.259	0.152
-521.960	-82.304	-0.477	-0.156
-520.945	-108.878	0.174	0.037
-519.931	-98.426	0.277	-0.071
-518.916	-73.415	0.004	0.001
-517.902	117.463	-0.087	0.108
-516.887	176.374	-0.114	0.167
-515.872	258.916	0.083	0.144
-514.858	800.000	-0.070	-0.236
-513.843	-200.000	-0.046	0.297
-512.829	116.546	0.079	0.097
-511.814	166.503	-0.114	0.163
-510.799	97.721	-0.154	0.178
-509.785	12.562	-0.046	0.036
-508.770	-200.000	0.044	-0.429
-507.756	800.000	-0.043	-0.179
-506.741	289.469	0.152	0.278
-505.726	800.000	-0.045	-0.146
-504.712	-167.636	0.193	-0.008
-503.697	122.521	0.071	-0.090
-502.683	800.000	-0.095	-0.267
-501.668	800.000	0.040	0.119
-500.653	237.512	0.152	0.254
-499.639	93.510	0.204	-0.232
-498.624	-55.144	-0.433	0.196
-497.610	97.429	-0.067	-0.077
-496.595	-200.000	-0.021	0.329
-495.581	-56.127	0.144	0.064
-494.566	-185.164	0.152	-0.002
-493.551	-200.000	0.015	-0.214
-492.537	-8.435	-0.152	-0.103
-491.522	-141.061	-0.357	-0.037
-490.508	31.458	-0.165	0.143
-489.493	626.729	0.021	-0.053
-488.478	-43.966	-0.201	-0.101
-487.464	-32.773	-0.304	0.170
-486.449	-82.204	0.189	-0.062
-485.435	-85.926	-0.097	-0.030
-484.420	-196.969	-0.135	0.001
-483.405	-170.099	-0.078	-0.003
-482.391	-200.000	-0.026	-0.222
-481.376	-200.000	-0.004	0.329
-480.362	-67.402	0.281	-0.111
-479.347	265.353	0.035	0.061
-478.332	42.712	-0.162	0.148
-477.318	-150.441	0.284	-0.022
-476.303	221.407	0.212	-0.342
-475.289	-200.000	0.015	-0.335
-474.274	89.422	0.106	0.119
-473.259	71.324	-0.208	0.217
-472.245	113.698	-0.257	-0.314
-471.230	-116.708	0.130	0.024
-470.216	3.762	0.308	0.225
-469.201	-71.340	0.454	0.171
-468.186	800.000	-0.073	-0.222
-467.172	188.841	-0.179	-0.270
-466.157	800.000	0.025	-0.070
-465.143	268.094	0.059	0.104
-464.128	57.724	0.162	0.159
-463.113	119.258	-0.007	0.009
-462.099	38.060	0.270	0.241
-461.084	-17.549	-0.440	-0.277
-460.070	88.244	0.322	-0.358
-459.055	554.103	0.087	0.210
-458.040	-200.000	0.008	-0.082
-457.026	-44.591	-0.047	-0.024
-456.011	108.487	-0.021	-0.026
-454.997	-24.815	0.240	0.143
-453.982	214.395	-0.053	0.084
-452.968	-200.000	0.050	-0.231
-451.953	6.670	0.265	-0.197
-450.938	-160.888	0.019	-0.001
-449.924	-48.492	-0.259	-0.125
-448.909	74.726	0.143	-0.151
-447.895	281.311	0.114	-0.204
-446.880	-200.000	0.002	-0.015
-445.865	51.681	0.101	0.096
-444.851	22.027	-0.063	0.052
-443.836	-200.000	0.020	-0.122
-442.822	-200.000	-0.014	-0.219
-441.807	800.000	0.035	-0.137
-440.792	205.313	0.076	-0.118
-439.778	400.493	-0.126	0.265
-438.763	437.167	-0.157	0.344
-437.749	161.802	-0.050	0.070
-436.734	800.000	-0.031	0.132
-435.719	185.346	-0.212	-0.316
-434.705	84.695	-0.188	-0.207
-433.690	-200.000	-0.045	0.267
-432.676	-200.000	-0.032	0.180
-431.661	87.167	0.067	-0.074
-430.646	-65.657	0.359	0.144
-429.632	-66.987	0.313	-0.124
-428.617	11.091	-0.207	-0.159
-427.603	65.649	-0.092	0.093
-426.588	-71.534	0.197	-0.074
-425.573	4.241	0.198	0.145
-424.559	253.060	0.039	-0.066
-423.544	-1.280	-0.212	0.150
-422.530	647.698	0.107	-0.273
-421.515	196.721	-0.146	0.223
-420.500	800.000	-0.101	0.282
-419.486	22.204	-0.194	0.159
-418.471	-200.000	-0.011	-0.124
-417.457	-200.000	0.052	0.231
-416.442	800.000	0.067	0.292
-415.428	112.681	-0.188	-0.228
-414.413	67.794	-0.175	-0.179
-413.398	-36.858	-0.286	0.154
-412.384	800.000	0.037	-0.105
-411.369	55.360	0.097	-0.094
-410.355	-128.462	0.209	0.030
-409.340	-58.887	-0.351	0.152
-408.325	37.277	0.128	0.113
-407.311	24.492	0.282	0.233
-406.296	-146.271	-0.216	0.019
-405.282	499.540	0.114	-0.264
-404.267	-82.409	0.074	-0.024
-403.252	-55.998	0.339	0.151
-402.238	-87.232	0.164	-0.050
-401.223	109.526	-0.011	0.013
-400.209	14.155	0.056	-0.044
-399.194	94.995	0.063	-0.072
-398.179	-48.609	-0.150	-0.072
-397.165	-65.905	-0.281	-0.112
-396.150	-144.736	0.186	0.017
-395.136	-200.000	0.033	-0.274
-394.121	-71.363	-0.195	0.073
-393.106	83.501	-0.107	0.116
-392.092	235.648	-0.060	-0.099
-391.077	178.320	-0.108	0.158
-390.063	800.000	-0.033	-0.134
-389.048	-93.884	0.087	0.024
-388.033	-80.763	0.311	0.103
-387.019	-136.879	0.549	0.063
-386.004	-59.040	-0.217	0.094
-384.990	242.028	-0.030	-0.050
-383.975	88.177	0.185	-0.205
-382.960	15.657	-0.229	0.180
-381.946	195.615	-0.002	-0.003
-380.931	-200.000	-0.007	0.068
-379.917	115.687	0.078	-0.095
-378.902	-200.000	-0.051	-0.271
-377.888	158.141	-0.022	0.031
-376.873	-114.422	0.141	0.027
-375.858	-7.949	0.141	-0.095
-374.844	-200.000	0.006	-0.074
-373.829	42.281	0.188	-0.170
-372.815	-200.000	-0.090	-0.506
-371.800	288.565	0.081	-0.146
-370.785	-200.000	-0.013	0.260
-369.771	-200.000	0.061	-0.277
-368.756	167.188	-0.075	0.106
-367.742	-36.527	-0.113	-0.061
-366.727	21.077	-0.168	-0.136
-365.712	58.965	0.101	-0.099
-364.698	-63.225	-0.314	-0.129
-363.683	-49.380	-0.375	-0.179
-362.669	-175.789	-0.111	-0.003
-361.654	20.869	-0.144	0.117
-360.639	44.426	0.317	0.291
-359.625	-200.000	0.074	-0.341
-358.610	-53.002	-0.297	-0.137
-357.596	6.761	-0.220	-0.164
-356.581	417.843	0.075	-0.160
-355.566	-200.000	-0.024	-0.212
-354.552	81.396	-0.097	0.104
-353.537	53.093	0.031	0.030
-352.523	-94.031	0.192	-0.053
-351.508	-52.360	-0.127	0.059
-350.493	-119.527	0.039	0.007
-349.479	137.064	0.139	0.182
-348.464	144.788	-0.135	0.180
-347.450	-135.270	-0.293	-0.035
-346.435	211.886	-0.054	-0.084
-345.420	409.570	0.056	0.118
-344.406	-200.000	0.041	0.265
-343.391	-200.000	-0.000	0.159
-342.377	-11.360	0.226	0.148
-341.362	-80.031	-0.216	-0.072
-340.348	-200.000	-0.039	-0.218
-339.333	800.000	0.091	-0.312
-338.318	-56.630	0.229	0.101
-337.304	-97.010	-0.203	0.053
-336.289	-53.055	0.348	-0.160
-335.275	53.507	0.230	-0.220
-334.260	-16.245	-0.163	0.103
-333.245	-38.360	0.024	-0.013
-332.231	-200.000	-0.019	-0.092
-331.216	-9.382	0.296	-0.197
-330.202	800.000	0.064	-0.240
-329.187	-48.388	0.131	-0.063
-328.172	80.955	0.115	-0.124
-327.158	165.321	-0.034	-0.048
-326.143	-200.000	0.006	0.137
-325.129	800.000	-0.100	0.282
-324.114	-200.000	-0.029	0.401
-323.099	80.737	0.294	0.317
-322.085	-79.930	0.274	-0.092
-321.070	800.000	-0.029	0.112
-320.056	236.498	-0.202	-0.333
-319.041	-91.698	-0.099	0.028
-318.026	-200.000	-0.015	0.242
-317.012	-102.435	-0.407	-0.097
-315.997	21.557	-0.354	-0.287
-314.983	800.000	-0.070	0.202
-313.968	307.746	-0.177	-0.329
-312.953	-145.188	-0.242	-0.022
-311.939	51.936	-0.088	0.083
-310.924	-38.200	0.250	-0.132
-309.910	738.509	0.090	-0.241
-308.895	-29.783	-0.143	0.081
-307.880	188.423	0.182	-0.271
-306.866	742.279	0.070	-0.187
-305.851	187.789	-0.204	-0.304
-304.837	149.949	-0.141	-0.191
-303.822	-14.939	-0.048	-0.030
-302.807	-16.843	-0.272	0.172
-301.793	182.133	-0.063	0.092
-300.778	-162.272	-0.129	0.006
-299.764	111.077	-0.046	-0.055
-298.749	76.417	0.152	0.161
-297.735	-200.000	0.056	-0.259
-296.720	-200.000	-0.001	0.047
-295.705	-96.767	0.275	-0.072
-294.691	-200.000	-0.029	-0.161
-293.676	800.000	-0.040	-0.130
-292.662	4.391	0.062	0.045
-291.647	173.905	-0.108	0.155
-290.632	-200.000	0.017	0.116
-289.618	-20.987	-0.237	0.145
-288.603	-200.000	-0.012	-0.072
-287.589	-200.000	-0.007	-0.229
-286.574	-113.881	-0.046	-0.009
-285.559	800.000	0.153	-0.499
-284.545	-200.000	0.020	0.207
-283.530	-181.379	-0.182	-0.004
-282.516	-114.042	0.142	-0.027
-281.501	-14.808	0.014	-0.009
-280.486	215.710	0.210	-0.333
-279.472	247.271	-0.150	-0.253
-278.457	-200.000	-0.057	-0.305
-277.443	-135.068	0.305	0.037
-276.428	1.674	0.059	0.043
-275.413	-57.159	-0.280	0.123
-274.399	263.138	0.100	0.172
-273.384	160.489	-0.059	-0.082
-272.370	800.000	-0.090	-0.306
-271.355	-144.229	0.305	-0.028
-270.340	-164.000	0.222	0.010
-269.326	800.000	0.104	0.336
-268.311	-87.666	-0.300	0.090
-267.297	-200.000	0.061	-0.276
-266.282	-10.301	0.156	-0.103
-265.267	-70.990	0.290	0.109
-264.253	-200.000	-0.008	0.156
-263.238	-200.000	0.036	0.421
-262.224	208.631	-0.070	0.109
-261.209	-200.000	0.001	-0.039
-260.195	-200.000	-0.055	0.333
-259.180	266.833	0.189	-0.328
-258.165	-200.000	0.005	0.107
-257.151	-148.499	0.290	-0.024
-256.136	13.385	-0.061	0.047
-255.122	63.041	0.156	0.155
-254.107	-200.000	-0.034	-0.224
-253.092	-125.763	-0.412	-0.062
-252.078	800.000	-0.037	0.130
-251.063	124.125	-0.143	-0.179
-250.049	-128.352	-0.196	0.028
-249.034	-199.549	-0.146	-0.001
-248.019	100.828	0.181	0.210
-247.005	-200.000	0.013	0.085
-245.990	231.731	0.169	-0.276
-244.976	2.135	0.154	-0.111
-243.961	-130.787	0.209	0.028
-242.946	458.378	-0.119	0.262
-241.932	504.904	0.045	-0.103
-240.917	184.121	0.162	-0.239
-239.903	-171.244	0.191	0.006
-238.888	800.000	-0.022	-0.064
-237.873	-50.792	0.212	0.099
-236.859	800.000	0.116	0.384
-235.844	-179.214	-0.309	0.007
-234.830	-46.500	-0.201	-0.098
-233.815	-97.905	0.261	0.067
-232.800	66.975	-0.117	0.118
-231.786	124.650	0.168	0.210
-230.771	504.577	0.184	0.423
-229.757	414.020	0.077	0.164
-228.742	749.116	0.055	-0.148
-227.727	800.000	0.063	-0.177
-226.713	-109.279	0.276	0.058
-225.698	800.000	0.036	-0.155
-224.684	-69.530	0.246	-0.094
-223.669	-176.569	0.091	-0.002
-222.655	-42.680	0.099	-0.050
-221.640	-71.496	-0.160	0.060
-220.625	514.340	-0.079	-0.184
-219.611	-200.000	0.027	-0.265
-218.596	63.743	0.223	0.223
-217.582	245.798	-0.089	-0.150
-216.567	-16.180	-0.136	-0.086
-215.552	108.988	-0.304	0.361
-214.538	139.629	-0.160	0.209
-213.523	-200.000	0.030	-0.167
-212.509	-117.019	0.126	-0.023
-211.494	18.713	0.107	-0.085
-210.479	212.150	0.017	-0.027
-209.465	15.420	0.162	0.127
-208.450	282.531	-0.115	0.204
-207.436	11.372	0.277	0.210
-206.421	-115.455	0.237	0.044
-205.406	800.000	-0.040	-0.144
-204.392	-107.139	-0.214	0.047
-203.377	-90.618	0.058	-0.017
-202.363	-166.130	0.053	0.002
-201.348	-136.565	0.312	0.036
-200.333	-45.506	-0.247	-0.122
-199.319	80.838	0.122	-0.130
-198.304	-105.228	-0.402	0.091
-197.290	-98.650	-0.271	0.069
-196.275	127.789	0.180	0.227
-195.260	207.325	-0.070	-0.109
-194.246	-92.558	0.284	0.079
-193.231	-126.168	-0.072	-0.011
-192.217	-56.522	-0.285	0.126
-191.202	122.688	-0.122	0.152
-190.187	-200.000	0.068	0.365
-189.173	800.000	-0.131	-0.454
-188.158	800.000	-0.063	-0.204
-187.144	198.136	-0.186	0.282
-186.129	-37.679	0.141	-0.075
-185.114	-123.665	-0.215	0.034
-184.100	285.158	0.152	-0.272
-183.085	-62.359	0.137	0.057
-182.071	-39.458	0.182	-0.095
-181.056	200.815	-0.192	0.293
-180.042	800.000	-0.045	0.149
-179.027	-106.691	0.245	0.054
-178.012	-2.020	0.174	0.121
-176.998	-112.314	-0.408	-0.081
-175.983	-200.000	-0.056	-0.351
-174.969	-70.752	-0.332	0.124
-173.954	-103.372	0.294	-0.069
-172.939	51.766	-0.184	0.173
-171.925	-176.587	-0.192	-0.005
-170.910	-90.834	0.138	0.039
-169.896	73.596	-0.024	-0.025
-168.881	-200.000	-0.014	0.172
-167.866	67.638	-0.060	-0.061
-166.852	-105.375	0.231	-0.052
-165.837	-200.000	-0.074	-0.349
-164.823	-126.422	0.036	-0.005
-163.808	37.506	0.263	0.231
-162.793	66.701	0.243	0.246
-161.779	-74.371	0.464	0.166
-160.764	86.694	-0.142	-0.155
-159.750	161.590	0.190	-0.264
-158.735	25.393	-0.153	-0.127
-157.720	-200.000	0.049	0.277
-156.706	260.099	-0.246	0.421
-155.691	-128.960	-0.092	-0.013
-154.677	-200.000	0.003	-0.400
-153.662	-200.000	-0.000	-0.003
-152.647	-200.000	-0.022	-0.237
-151.633	517.045	0.078	-0.182
-150.618	-120.534	0.351	-0.059
-149.604	-200.000	0.031	0.533
-148.589	-47.318	-0.230	-0.111
-147.574	65.281	0.046	-0.046
-146.560	-41.695	0.201	-0.102
-145.545	236.049	-0.086	0.141
-144.531	-58.883	-0.176	0.076
-143.516	800.000	0.090	0.338
-142.502	-80.029	-0.357	0.119
-141.487	800.000	-0.045	-0.146
-140.472	607.190	0.044	0.108
-139.458	615.466	0.073	0.181
-138.443	422.944	0.070	0.149
-137.429	184.045	0.128	-0.187
-136.414	-67.772	-0.184	-0.071
-135.399	-51.068	-0.231	0.107
-134.385	-88.394	0.152	-0.045
-133.370	-200.000	-0.080	-0.387
-132.356	3.521	-0.084	0.061
-131.341	-200.000	-0.044	0.228
-130.326	227.717	-0.109	-0.176
-129.312	22.717	0.097	0.079
-128.297	-78.604	0.031	0.011
-127.283	-116.405	-0.223	-0.041
-126.268	-71.747	0.146	-0.054
-125.253	-27.491	-0.171	0.098
-124.239	565.066	0.019	-0.045
-123.224	227.621	-0.090	0.144
-122.210	-107.123	0.046	-0.010
-121.195	205.662	0.076	-0.117
-120.180	-17.541	-0.191	0.119
-119.166	18.878	0.141	0.112
-118.151	-72.999	-0.354	-0.129
-117.137	-195.484	0.286	-0.002
-116.122	-166.192	-0.127	-0.005
-115.107	203.762	0.060	-0.092
-114.093	-200.000	-0.013	-0.233
-113.078	-15.022	-0.100	-0.063
-112.064	-40.961	0.444	-0.227
-111.049	-96.946	0.218	-0.057
-110.034	492.934	0.092	0.208
-109.020	-87.283	0.060	-0.018
-108.005	61.889	0.096	0.095
-106.991	286.741	-0.108	0.192
-105.976	371.495	-0.136	-0.273
-104.962	800.000	0.048	0.148
-103.947	-123.073	0.268	-0.043
-102.932	-161.338	0.283	0.015
-101.918	-200.000	0.011	-0.078
-100.903	-200.000	0.011	0.235
-99.889	31.569	-0.214	0.182
-98.874	-42.596	0.109	0.055
-97.859	80.358	0.077	0.082
-96.845	383.956	-0.115	0.234
-95.830	-16.211	-0.089	-0.056
-94.816	168.799	-0.047	0.066
-93.801	96.235	0.214	0.242
-92.786	68.208	0.124	-0.125
-91.772	15.300	0.050	0.039
-90.757	800.000	0.015	0.058
-89.743	-90.568	0.110	-0.031
-88.728	3.922	0.117	0.085
-87.713	277.947	0.071	0.125
-86.699	-77.746	0.188	0.064
-85.684	-151.806	0.378	0.027
-84.670	483.214	-0.168	0.377
-83.655	-151.954	0.120	0.009
-82.640	-22.955	0.334	-0.199
-81.626	494.916	-0.122	0.276
-80.611	-200.000	-0.012	0.350
-79.597	-122.255	-0.480	0.078
-78.582	724.550	-0.144	0.380
-77.567	-24.611	0.200	0.118
-76.553	3.445	0.244	0.176
-75.538	-143.782	-0.172	-0.016
-74.524	-200.000	0.002	0.227
-73.509	-200.000	-0.018	-0.200
-72.494	800.000	-0.061	-0.249
-71.480	-200.000	0.009	-0.268
-70.465	211.121	0.112	0.174
-69.451	-8.350	-0.125	-0.083
-68.436	42.554	-0.176	-0.158
-67.422	-200.000	-0.010	-0.335
-66.407	36.357	-0.112	0.098
-65.392	-160.509	0.259	0.014
-64.378	-151.808	-0.311	0.023
-63.363	54.570	-0.293	0.279
-62.349	539.779	0.119	0.280
-61.334	130.173	-0.742	-0.938
-60.319	-22.970	0.685	0.408
-59.305	800.000	-0.265	-0.831
-58.290	800.000	0.304	1.035
-57.276	689.822	0.706	1.826
-56.261	-200.000	107.320	586.537
-55.246	445.936	1471.675	3193.986
-54.232	145.127	2662.419	3517.649
-53.217	96.449	2324.477	2626.800
-52.203	35.950	2075.519	1803.382
-51.188	31.383	1991.527	1689.174
-50.173	30.011	1974.510	1662.370
-49.159	45.435	2031.130	1850.989
-48.144	46.003	2047.699	1871.191
-47.130	31.970	2006.677	1707.094
-46.115	29.674	1995.932	1677.079
-45.100	29.640	1992.553	1673.866
-44.086	29.643	1990.299	1671.927
-43.071	29.537	1987.840	1668.837
-42.057	29.575	1985.710	1667.334
-41.042	29.524	1983.670	1665.094
-40.027	29.621	1982.090	1664.569
-39.013	29.674	1979.659	1662.945
-37.998	29.587	1977.956	1660.667
-36.984	29.635	1975.704	1659.136
-35.969	29.643	1974.094	1657.795
-34.954	29.668	1972.715	1656.791
-33.940	29.630	1971.319	1655.214
-32.925	29.681	1969.697	1654.239
-31.911	29.658	1967.929	1652.483
-30.896	29.680	1966.210	1651.174
-29.881	29.737	1964.211	1649.940
-28.867	29.738	1962.782	1648.683
-27.852	29.747	1961.131	1647.310
-26.838	29.695	1959.683	1645.568
-25.823	29.697	1957.448	1643.641
-24.809	29.700	1956.189	1642.540
-23.794	29.653	1954.522	1640.658
-22.779	29.650	1952.869	1639.184
-21.765	29.720	1950.384	1637.650
-20.750	29.647	1948.783	1635.593
-19.736	29.696	1947.583	1634.959
-18.721	29.752	1945.618	1633.735
-17.706	29.702	1944.037	1631.902
-16.692	29.696	1942.364	1630.384
-15.677	29.729	1940.916	1629.389
-14.663	29.737	1939.564	1628.264
-13.648	29.705	1938.337	1626.886
-12.633	29.635	1937.103	1625.169
-11.619	29.726	1935.649	1624.685
-10.604	29.654	1934.243	1622.813
-9.590	29.721	1932.976	1622.267
-8.575	29.772	1931.221	1621.177
-7.560	29.705	1930.448	1619.882
-6.546	29.729	1929.133	1618.922
-5.531	29.809	1927.520	1618.200
-4.517	29.705	1927.013	1616.807
-3.502	29.640	1925.683	1615.058
-2.487	29.655	1924.017	1613.728
-1.473	29.763	1923.372	1614.067
-0.458	29.757	1918.360	1609.743
0.556	27.859	1898.318	1582.625
1.571	23.884	1879.737	1532.808
2.586	20.180	1903.183	1519.397
3.600	19.340	1939.045	1540.388
4.615	19.312	1933.872	1535.895
5.629	15.133	1832.354	1419.786
6.644	5.913	1711.929	1253.030
7.659	0.685	1673.270	1183.750
8.673	0.226	1669.998	1177.742
9.688	0.080	1669.043	1175.822
10.702	0.155	1667.393	1175.138
11.717	-0.000	1663.936	1171.392
12.731	0.657	1663.464	1176.071
13.746	7.246	1677.840	1237.737
14.761	15.522	1694.863	1315.250
15.775	17.794	1696.959	1334.557
16.790	16.997	1693.744	1325.680
17.804	15.863	1691.135	1314.669
18.819	14.921	1687.231	1304.176
19.834	14.379	1684.714	1297.892
20.848	14.098	1683.634	1294.764
21.863	13.793	1682.316	1291.261
22.877	13.568	1680.567	1288.054
23.892	13.346	1679.031	1285.036
24.907	13.337	1677.533	1283.711
25.921	13.228	1676.634	1282.065
26.936	13.288	1675.358	1281.439
27.950	13.238	1675.000	1280.666
28.965	13.353	1674.341	1280.934
29.980	13.367	1673.819	1280.530
30.994	13.404	1672.364	1279.592
32.009	13.473	1671.427	1279.298
33.023	13.534	1670.667	1279.074
34.038	13.520	1669.920	1278.282
35.053	13.419	1669.268	1276.884
36.067	13.445	1667.740	1275.802
37.082	13.401	1666.875	1274.694
38.096	13.401	1666.095	1273.982
39.111	13.535	1664.636	1273.781
40.126	13.472	1664.291	1272.924
41.140	13.487	1663.076	1271.997
42.155	13.321	1661.956	1269.756
43.169	13.267	1660.443	1268.068
44.184	13.261	1659.239	1266.993
45.199	13.247	1657.842	1265.704
46.213	13.206	1656.485	1264.243
47.228	13.324	1655.516	1264.294
48.242	13.229	1654.614	1262.769
49.257	13.320	1653.568	1262.554
50.271	13.398	1652.101	1261.916
51.286	13.332	1651.014	1260.469
52.301	13.338	1649.231	1259.047
53.315	13.304	1648.177	1257.868
54.330	13.405	1646.305	1257.095
55.344	13.235	1645.682	1255.223
56.359	13.178	1643.864	1253.289
57.374	13.257	1642.590	1252.808
58.388	13.245	1641.389	1251.685
59.403	13.217	1639.970	1250.285
60.417	13.178	1638.990	1249.135
61.432	13.240	1637.878	1248.639
62.447	13.189	1636.533	1247.118
63.461	13.241	1635.071	1246.287
64.476	13.244	1633.826	1245.254
65.490	13.160	1632.910	1243.808
66.505	13.155	1631.627	1242.687
67.520	13.182	1630.840	1242.179
68.534	13.137	1630.009	1241.100
69.549	13.224	1628.447	1240.453
70.563	13.182	1627.335	1239.181
71.578	13.185	1626.048	1238.115
72.593	13.210	1624.965	1237.368
73.607	13.129	1623.757	1235.730
74.622	13.054	1622.976	1234.466
75.636	13.049	1622.207	1233.733
76.651	13.136	1620.874	1233.264
77.666	13.118	1620.143	1232.460
78.680	13.091	1619.358	1231.556
79.695	13.173	1618.073	1231.078
80.709	13.162	1617.218	1230.241
81.724	13.150	1616.674	1229.624
82.739	13.240	1615.352	1229.178
83.753	13.255	1614.891	1228.831
84.768	13.378	1613.502	1228.581
85.782	13.277	1613.150	1227.453
86.797	13.422	1611.708	1227.321
87.812	13.441	1610.787	1226.653
88.826	13.346	1609.539	1224.890
89.841	13.282	1608.794	1223.746
90.855	13.360	1607.690	1223.370
91.870	13.332	1606.097	1221.842
92.884	13.321	1605.616	1221.289
93.899	13.340	1604.802	1220.702
94.914	13.406	1603.171	1219.844
95.928	13.384	1602.463	1219.034
96.943	13.464	1600.624	1218.116
97.957	13.526	1598.977	1217.206
98.972	13.368	1598.207	1215.357
99.987	13.416	1596.448	1214.262
101.001	13.426	1594.313	1212.605
102.016	13.448	1593.163	1211.780
103.030	13.432	1591.976	1210.654
104.045	13.418	1590.952	1209.664
105.060	13.369	1589.348	1207.984
106.074	13.348	1588.074	1206.752
107.089	13.306	1586.493	1205.138
108.103	13.195	1585.442	1203.425
109.118	13.271	1583.544	1202.429
110.133	13.125	1582.740	1200.652
111.147	13.232	1580.509	1199.629
112.162	13.261	1579.292	1198.814
113.176	13.227	1578.175	1197.616
114.191	13.253	1576.693	1196.568
115.206	13.272	1575.623	1195.791
116.220	13.314	1574.346	1195.020
117.235	13.220	1573.035	1193.238
118.249	13.339	1571.755	1193.018
119.264	13.224	1570.457	1191.102
120.279	13.244	1569.052	1190.078
121.293	13.175	1567.710	1188.453
122.308	13.240	1565.910	1187.451
123.322	13.248	1564.140	1186.066
124.337	13.235	1562.893	1184.921
125.352	13.180	1561.990	1183.735
126.366	13.221	1560.571	1182.848
127.381	13.218	1559.222	1181.700
128.395	13.247	1557.873	1180.783
129.410	13.229	1556.662	1179.630
130.424	13.180	1556.226	1178.847
131.439	13.263	1554.407	1177.953
132.454	13.279	1553.159	1177.021
133.468	13.337	1551.566	1176.118
134.483	13.367	1550.593	1175.492
135.497	13.285	1549.084	1173.664
136.512	13.326	1547.134	1172.371
137.527	13.350	1546.165	1171.700
138.541	13.388	1544.334	1170.478
139.556	13.331	1543.108	1169.044
140.570	13.433	1541.466	1168.418
141.585	13.511	1539.640	1167.482
142.600	13.432	1539.326	1166.584
143.614	13.429	1538.460	1165.802
144.629	13.415	1537.021	1164.505
145.643	13.588	1535.363	1164.367
146.658	13.570	1534.094	1163.170
147.673	13.573	1532.466	1161.860
148.687	13.455	1531.232	1159.988
149.702	13.475	1529.674	1158.848
150.716	13.430	1528.089	1157.229
151.731	13.467	1526.515	1156.197
152.746	13.442	1525.420	1155.089
153.760	13.482	1524.029	1154.214
154.775	13.454	1523.127	1153.234
155.789	13.506	1521.513	1152.273
156.804	13.610	1520.497	1152.125
157.819	13.609	1518.730	1150.676
158.833	13.533	1517.541	1149.144
159.848	13.619	1516.490	1148.845
160.862	13.632	1515.514	1148.092
161.877	13.730	1514.022	1147.539
162.892	13.680	1512.801	1146.167
163.906	13.489	1512.170	1144.268
164.921	13.584	1510.078	1143.240
165.935	13.532	1509.270	1142.165
166.950	13.608	1508.347	1141.886
167.964	13.529	1507.361	1140.502
168.979	13.632	1505.695	1139.849
169.994	13.637	1505.123	1139.347
171.008	13.591	1504.104	1138.158
172.023	13.646	1503.106	1137.676
173.037	13.597	1501.776	1136.237
174.052	13.752	1500.589	1136.296
175.067	13.729	1499.784	1135.435
176.081	13.747	1498.471	1134.459
177.096	13.721	1496.719	1132.853
178.110	13.651	1495.938	1131.684
179.125	13.571	1494.799	1130.179
180.140	13.782	1493.422	1130.476
181.154	13.765	1492.454	1129.529
182.169	13.777	1491.312	1128.647
183.183	13.743	1490.374	1127.603
184.198	13.796	1488.875	1126.733
185.213	13.919	1488.035	1126.827
186.227	13.873	1486.951	1125.594
187.242	13.816	1486.180	1124.528
188.256	13.887	1485.032	1124.043
189.271	14.019	1483.496	1123.670
190.286	13.890	1483.132	1122.422
191.300	13.891	1482.048	1121.513
192.315	13.768	1480.574	1119.468
193.329	13.700	1479.007	1117.725
194.344	13.725	1477.858	1116.927
195.359	13.791	1477.197	1116.772
196.373	13.754	1476.182	1115.653
197.388	13.862	1475.072	1115.444
198.402	13.948	1473.860	1115.005
199.417	14.087	1472.278	1114.640
200.432	14.024	1471.420	1113.471
201.446	14.165	1470.889	1113.916
202.461	14.158	1469.469	1112.698
203.475	14.078	1468.766	1111.528
204.490	14.171	1466.971	1110.693
205.504	14.209	1466.025	1110.135
206.519	14.139	1464.943	1108.750
207.534	14.150	1463.834	1107.888
208.548	14.071	1462.849	1106.512
209.563	14.096	1462.301	1106.170
210.577	14.160	1460.952	1105.478
211.592	14.196	1459.734	1104.698
212.607	14.134	1459.584	1104.072
213.621	14.200	1458.878	1103.878
214.636	14.245	1457.713	1103.197
215.650	14.245	1456.728	1102.355
216.665	14.298	1455.694	1101.823
217.680	14.309	1455.045	1101.311
218.694	14.296	1454.407	1100.644
219.709	14.354	1453.598	1100.319
220.723	14.364	1452.043	1099.107
221.738	14.322	1451.482	1098.307
222.753	14.345	1450.446	1097.581
223.767	14.291	1449.366	1096.309
224.782	14.325	1448.517	1095.795
225.796	14.480	1447.628	1096.042
226.811	14.457	1446.830	1095.195
227.826	14.508	1446.280	1095.013
228.840	14.457	1445.211	1093.773
229.855	14.449	1444.245	1092.892
230.869	14.427	1443.532	1092.113
231.884	14.475	1442.071	1091.222
232.899	14.443	1440.781	1089.939
233.913	14.482	1439.740	1089.312
234.928	14.346	1439.250	1087.954
235.942	14.378	1437.118	1086.461
236.957	14.398	1436.225	1085.814
237.972	14.377	1435.084	1084.720
238.986	14.405	1434.008	1083.995
240.001	14.417	1433.249	1083.404
241.015	14.432	1432.157	1082.577
242.030	14.411	1431.100	1081.551
243.045	14.413	1430.303	1080.864
244.059	14.562	1428.873	1080.650
245.074	14.613	1428.169	1080.351
246.088	14.527	1427.760	1079.391
247.103	14.599	1426.548	1078.847
248.117	14.677	1425.898	1078.764
249.132	14.695	1425.134	1078.204
250.147	14.687	1424.433	1077.530
251.161	14.794	1424.261	1077.993
252.176	14.811	1423.489	1077.423
253.190	14.860	1422.342	1076.773
254.205	14.922	1421.443	1076.399
255.220	14.912	1420.779	1075.738
256.234	14.935	1419.754	1075.016
257.249	14.995	1419.140	1074.839
258.263	15.009	1418.433	1074.296
259.278	14.997	1416.993	1073.037
260.293	15.031	1416.395	1072.703
261.307	15.032	1415.269	1071.767
262.322	15.015	1414.885	1071.269
263.336	15.097	1413.584	1070.716
264.351	15.119	1412.814	1070.180
265.366	15.260	1411.061	1069.655
266.380	15.103	1411.369	1068.792
267.395	15.207	1409.508	1067.949
268.409	15.258	1408.978	1067.778
269.424	15.212	1408.045	1066.685
270.439	15.076	1407.708	1065.469
271.453	15.157	1406.105	1064.675
272.468	15.083	1405.531	1063.677
273.482	15.143	1404.487	1063.174
274.497	15.257	1403.487	1063.045
275.512	15.104	1403.011	1061.622
276.526	15.079	1402.584	1061.046
277.541	15.216	1400.704	1060.397
278.555	15.225	1400.184	1059.966
279.570	15.155	1399.033	1058.562
280.585	15.167	1398.530	1058.163
281.599	15.251	1397.620	1057.908
282.614	15.326	1396.792	1057.662
283.628	15.346	1395.382	1056.625
284.643	15.286	1394.613	1055.575
285.657	15.381	1393.283	1055.071
286.672	15.309	1392.307	1053.786
287.687	15.315	1391.671	1053.249
288.701	15.376	1390.318	1052.512
289.716	15.414	1389.743	1052.226
290.730	15.348	1389.293	1051.377
291.745	15.314	1388.089	1050.157
292.760	15.335	1387.443	1049.708
293.774	15.401	1386.180	1049.075
294.789	15.470	1384.795	1048.364
295.803	15.423	1384.442	1047.710
296.818	15.547	1383.046	1047.335
297.833	15.507	1382.044	1046.233
298.847	15.425	1381.373	1045.124
299.862	15.474	1380.668	1044.804
300.876	15.391	1379.849	1043.576
301.891	15.557	1378.811	1043.726
302.906	15.562	1377.796	1042.896
303.920	15.581	1377.089	1042.386
304.935	15.698	1376.067	1042.245
305.949	15.576	1376.310	1041.581
306.964	15.675	1374.860	1041.003
307.979	15.696	1374.033	1040.420
308.993	15.715	1373.262	1039.858
310.008	15.754	1371.878	1038.957
311.022	15.663	1371.142	1037.751
312.037	15.810	1369.614	1037.408
313.052	15.881	1368.768	1037.112
314.066	15.753	1368.167	1035.775
315.081	15.803	1366.888	1035.027
316.095	15.713	1365.835	1033.582
317.110	15.711	1364.897	1032.771
318.125	15.648	1364.036	1031.640
319.139	15.696	1363.121	1031.152
320.154	15.747	1362.136	1030.628
321.168	15.817	1360.873	1030.006
322.183	15.815	1360.455	1029.586
323.197	15.715	1359.306	1028.014
324.212	15.795	1358.398	1027.725
325.227	15.732	1357.947	1026.911
326.241	15.699	1357.255	1026.098
327.256	15.779	1356.108	1025.622
328.270	15.905	1355.492	1025.837
329.285	15.851	1353.999	1024.286
330.300	15.823	1352.954	1023.234
331.314	15.747	1352.557	1022.382
332.329	15.865	1351.230	1022.008
333.343	15.850	1350.570	1021.326
334.358	15.920	1349.640	1020.955
335.373	15.902	1349.156	1020.388
336.387	15.987	1347.845	1019.826
337.402	15.984	1347.251	1019.266
338.416	15.989	1346.727	1018.807
339.431	16.138	1346.272	1019.277
340.446	16.058	1345.665	1018.244
341.460	16.173	1344.208	1017.745
342.475	16.070	1343.452	1016.462
343.489	16.207	1342.449	1016.438
344.504	16.198	1341.799	1015.798
345.519	16.186	1340.709	1014.813
346.533	16.283	1339.671	1014.521
347.548	16.260	1339.048	1013.822
348.562	16.282	1338.011	1013.080
349.577	16.330	1337.333	1012.763
350.592	16.300	1336.591	1011.934
351.606	16.291	1335.779	1011.174
352.621	16.204	1334.266	1009.416
353.635	16.170	1333.432	1008.497
354.650	16.256	1332.503	1008.214
355.665	16.210	1332.268	1007.675
356.679	16.189	1331.016	1006.511
357.694	16.311	1329.402	1005.930
358.708	16.246	1328.665	1004.897
359.723	16.333	1327.820	1004.687
360.738	16.262	1326.547	1003.213
361.752	16.431	1325.641	1003.443
362.767	16.342	1324.378	1001.867
363.781	16.333	1323.623	1001.157
364.796	16.395	1322.841	1000.845
365.810	16.451	1322.065	1000.501
366.825	16.461	1321.352	999.932
367.840	16.538	1320.524	999.669
368.854	16.615	1320.146	999.752
369.869	16.623	1319.322	999.083
370.883	16.526	1319.373	998.460
371.898	16.704	1317.849	998.269
372.913	16.565	1317.383	997.011
373.927	16.644	1316.122	996.430
374.942	16.619	1315.799	995.953
375.956	16.574	1314.912	994.928
376.971	16.720	1313.979	994.993
377.986	16.661	1313.196	993.967
379.000	16.690	1312.529	993.544
380.015	16.816	1311.257	993.230
381.029	16.746	1310.961	992.509
382.044	16.820	1310.019	992.139
383.059	16.847	1309.118	991.531
384.073	16.753	1309.018	990.813
385.088	16.862	1308.035	990.621
386.102	16.919	1307.239	990.260
387.117	16.831	1306.880	989.389
388.132	16.900	1305.806	988.889
389.146	16.830	1305.095	987.855
390.161	16.873	1304.162	987.315
391.175	16.817	1303.296	986.246
392.190	16.833	1302.379	985.559
393.205	16.837	1301.998	985.206
394.219	16.910	1300.803	984.640
395.234	17.009	1299.311	983.995
396.248	16.892	1298.427	982.559
397.263	16.988	1296.945	981.909
398.278	16.960	1295.248	980.375
399.292	16.913	1294.283	979.286
400.307	16.930	1293.557	978.750
401.321	16.970	1292.461	978.063
402.336	16.903	1291.484	976.853
403.350	16.948	1290.426	976.223
404.365	16.993	1289.608	975.777
405.380	16.973	1288.866	975.015
406.394	16.987	1288.166	974.480
407.409	16.988	1287.399	973.818
408.423	17.026	1287.002	973.649
409.438	17.220	1285.929	973.862
410.453	17.193	1285.176	973.050
411.467	17.129	1284.999	972.463
412.482	17.132	1284.289	971.861
413.496	17.237	1283.324	971.646
414.511	17.250	1282.683	971.148
415.526	17.258	1281.964	970.562
416.540	17.305	1281.114	970.100
417.555	17.402	1280.241	969.907
418.569	17.370	1280.174	969.587
419.584	17.359	1279.528	968.953
420.599	17.385	1278.840	968.493
421.613	95.161	1353.196	1469.732
422.628	93.053	1363.974	1469.859
