DTS Sentinel unit serial number:	SN413079Multiplexer serial number:	ORYXHardware model number:	OX4-SRSoftware version number:	ORYX F/W v4.00 Oryx Data Collector v3.7.2.0data status	okinstallation	princeton_trtdifferential loss correction	single-endedforward channel	channel 4reverse channel	N/Adate	2019/09/14time	20:45:35forward acquisition time	60.00reverse acquisition time	0.00gamma	496.2192k internal	0.2305k external	0.2305temperature offset calibration	1.0086default loss term (dB/km)	0.3790temperature slope calibration	1.0000multiplexer offset coefficient	1.0000multiplexer slope coefficient	1.0000fibre end	0.00T internal ref (°C)	33.31T ext. ref 1 (°C)	4.80T ext. ref 2 (°C)	27.95length (m)	temperature (°C)	Stokes	anti-Stokes-747.200	663.655	0.108	0.282
-746.185	367.057	0.204	0.420
-745.171	800.000	0.071	-0.290
-744.156	-200.000	0.061	0.320
-743.142	105.090	0.205	0.246
-742.127	-55.457	-0.232	-0.106
-741.112	499.929	0.114	-0.267
-740.098	-154.333	-0.589	-0.040
-739.083	28.864	-0.073	-0.063
-738.069	419.886	-0.157	0.342
-737.054	-109.990	-0.060	0.013
-736.039	-74.233	-0.191	-0.070
-735.025	679.255	0.046	0.121
-734.010	-71.178	-0.256	0.098
-732.996	295.579	0.036	-0.066
-731.981	-116.460	-0.059	0.011
-730.966	-56.668	-0.170	-0.077
-729.952	-200.000	-0.065	-0.293
-728.937	-200.000	0.011	-0.158
-727.923	393.573	-0.086	-0.183
-726.908	173.525	0.155	-0.227
-725.894	800.000	-0.027	-0.114
-724.879	800.000	0.061	0.258
-723.864	-180.169	0.419	0.009
-722.850	233.641	-0.069	-0.116
-721.835	-93.368	0.475	0.134
-720.821	20.216	0.037	0.031
-719.806	800.000	-0.032	0.126
-718.791	107.503	0.091	0.111
-717.777	23.661	0.057	0.048
-716.762	501.937	0.085	-0.199
-715.748	-65.845	-0.268	-0.109
-714.733	-55.226	0.422	-0.193
-713.718	-98.622	-0.214	-0.056
-712.704	-107.370	0.405	0.090
-711.689	-77.356	0.147	-0.052
-710.675	-125.643	-0.154	-0.024
-709.660	-82.060	-0.205	-0.068
-708.645	-110.899	-0.130	-0.027
-707.631	44.919	-0.153	0.143
-706.616	-200.000	0.019	-0.215
-705.602	50.893	0.207	0.199
-704.587	-21.217	0.122	0.076
-703.572	110.846	-0.126	-0.155
-702.558	327.201	0.220	-0.428
-701.543	54.138	0.354	0.346
-700.529	-108.818	-0.204	0.044
-699.514	36.231	-0.189	-0.169
-698.499	-140.854	0.234	0.024
-697.485	-200.000	0.000	0.111
-696.470	-160.439	-0.037	0.002
-695.456	-200.000	-0.033	0.162
-694.441	-163.584	-0.246	0.012
-693.426	250.099	0.087	0.150
-692.412	-166.855	0.290	0.012
-691.397	-97.709	0.053	0.014
-690.383	-114.043	-0.299	0.059
-689.368	-99.372	0.141	-0.036
-688.354	-48.019	-0.196	-0.096
-687.339	188.591	-0.120	0.182
-686.324	-200.000	-0.053	0.264
-685.310	240.171	0.058	0.099
-684.295	-200.000	0.034	-0.233
-683.281	22.952	-0.284	-0.236
-682.266	-200.000	0.050	-0.422
-681.251	-200.000	-0.002	-0.072
-680.237	429.311	0.057	-0.126
-679.222	-200.000	-0.013	-0.360
-678.208	426.728	0.027	-0.059
-677.193	175.733	-0.054	-0.080
-676.178	54.934	-0.127	-0.125
-675.164	-123.877	0.250	-0.040
-674.149	800.000	0.077	0.299
-673.135	300.287	-0.250	0.468
-672.120	159.217	-0.107	0.151
-671.105	800.000	0.058	-0.179
-670.091	-13.369	-0.231	-0.152
-669.076	-200.000	-0.004	-0.064
-668.062	-157.200	0.173	0.011
-667.047	204.922	-0.083	-0.131
-666.032	-132.052	0.222	-0.029
-665.018	500.264	-0.102	0.239
-664.003	-200.000	0.016	0.243
-662.989	-163.087	-0.341	0.017
-661.974	68.404	-0.173	0.180
-660.959	800.000	-0.146	0.495
-659.945	-100.262	-0.109	-0.028
-658.930	-98.709	-0.220	0.057
-657.916	20.678	0.194	-0.159
-656.901	-26.877	-0.122	-0.072
-655.886	-26.939	-0.186	-0.110
-654.872	60.290	-0.124	-0.124
-653.857	-103.204	-0.156	-0.037
-652.843	-12.664	0.130	0.086
-651.828	-23.296	-0.125	-0.076
-650.814	-200.000	-0.021	-0.131
-649.799	66.123	0.103	0.106
-648.784	483.858	-0.082	-0.190
-647.770	-10.290	-0.143	0.096
-646.755	261.207	-0.043	-0.075
-645.741	-91.116	0.192	0.056
-644.726	266.864	-0.132	0.234
-643.711	751.536	0.029	-0.079
-642.697	-72.893	0.450	-0.168
-641.682	-200.000	-0.025	0.330
-640.668	-84.203	0.292	0.094
-639.653	-79.288	0.491	-0.169
-638.638	145.410	-0.081	0.109
-637.624	-138.702	-0.204	-0.023
-636.609	106.782	-0.219	-0.263
-635.595	124.433	0.173	0.221
-634.580	306.323	0.056	0.106
-633.565	240.098	-0.102	0.172
-632.551	-29.845	-0.177	-0.102
-631.536	-70.931	0.310	0.118
-630.522	-147.748	0.197	-0.017
-629.507	134.076	0.139	0.182
-628.492	-108.144	0.400	-0.088
-627.478	-7.471	-0.216	-0.148
-626.463	800.000	-0.053	-0.170
-625.449	124.486	0.113	0.144
-624.434	-200.000	-0.056	0.310
-623.419	-149.726	-0.288	0.023
-622.405	11.728	0.097	0.076
-621.390	-20.157	-0.135	0.084
-620.376	-68.535	-0.280	-0.110
-619.361	-39.070	0.020	-0.011
-618.346	-200.000	-0.011	0.059
-617.332	-200.000	-0.003	-0.101
-616.317	135.815	-0.136	0.180
-615.303	800.000	0.076	-0.218
-614.288	-73.767	0.155	0.057
-613.273	85.101	-0.019	0.021
-612.259	67.500	-0.092	0.095
-611.244	465.134	-0.147	0.332
-610.230	-37.606	-0.207	0.112
-609.215	-4.061	-0.174	-0.122
-608.201	-36.690	-0.281	-0.153
-607.186	800.000	0.025	0.073
-606.171	-10.839	0.043	-0.028
-605.157	-143.771	0.128	0.012
-604.142	-25.277	0.105	0.063
-603.128	70.351	-0.179	0.187
-602.113	349.011	0.062	-0.124
-601.098	-42.203	-0.108	0.056
-600.084	43.233	-0.200	0.184
-599.069	263.660	0.147	-0.259
-598.055	800.000	-0.113	0.372
-597.040	319.185	0.105	-0.202
-596.025	-151.172	0.342	-0.026
-595.011	-2.104	-0.116	-0.082
-593.996	-123.522	0.368	-0.059
-592.982	97.392	-0.146	-0.169
-591.967	10.485	0.153	-0.118
-590.952	-152.100	-0.165	0.012
-589.938	-51.320	-0.414	-0.196
-588.923	-36.831	0.256	0.139
-587.909	-166.123	0.185	-0.008
-586.894	33.317	0.069	0.061
-585.879	-200.000	-0.044	-0.447
-584.865	161.450	0.109	0.155
-583.850	441.898	-0.031	0.069
-582.836	-5.394	-0.032	-0.022
-581.821	-195.617	-0.212	-0.002
-580.806	-200.000	0.014	-0.181
-579.792	-200.000	-0.031	-0.306
-578.777	147.890	-0.264	-0.360
-577.763	169.968	-0.126	0.182
-576.748	72.418	0.152	0.160
-575.733	800.000	-0.171	0.548
-574.719	-18.910	-0.190	-0.119
-573.704	-86.915	0.226	-0.070
-572.690	-200.000	0.030	-0.184
-571.675	292.937	0.075	-0.138
-570.661	-18.112	0.182	-0.115
-569.646	-144.321	-0.416	-0.039
-568.631	-200.000	-0.006	0.064
-567.617	-67.580	0.291	-0.115
-566.602	176.352	-0.062	-0.092
-565.588	760.868	-0.170	-0.467
-564.573	800.000	-0.079	-0.275
-563.558	288.935	-0.157	-0.287
-562.544	383.901	-0.164	0.341
-561.529	-186.091	-0.266	0.004
-560.515	9.766	0.190	-0.145
-559.500	-69.395	0.109	-0.042
-558.485	800.000	-0.033	-0.136
-557.471	17.044	0.141	-0.113
-556.456	-160.899	-0.476	0.025
-555.442	216.213	-0.081	0.131
-554.427	33.632	-0.109	-0.095
-553.412	800.000	-0.016	0.058
-552.398	-109.056	-0.375	-0.081
-551.383	-100.166	-0.237	-0.060
-550.369	99.402	0.059	-0.069
-549.354	-200.000	-0.038	-0.267
-548.339	-166.636	0.162	0.007
-547.325	145.844	0.083	0.112
-546.310	-94.806	0.041	-0.011
-545.296	-200.000	-0.024	-0.240
-544.281	-108.541	0.154	0.034
-543.266	-110.617	-0.400	0.084
-542.252	-200.000	-0.015	0.131
-541.237	-200.000	-0.037	0.346
-540.223	800.000	-0.084	-0.244
-539.208	140.123	0.149	-0.198
-538.193	-200.000	0.013	-0.127
-537.179	-93.440	0.352	0.098
-536.164	800.000	-0.046	0.159
-535.150	-30.744	0.036	0.021
-534.135	209.767	-0.114	0.180
-533.121	-40.880	-0.158	0.082
-532.106	292.262	-0.090	0.166
-531.091	74.230	0.090	-0.095
-530.077	208.514	-0.041	0.065
-529.062	-72.903	-0.136	0.051
-528.048	76.752	0.123	-0.132
-527.033	10.911	-0.182	0.140
-526.018	-141.275	0.282	0.029
-525.004	-116.958	0.213	0.039
-523.989	-200.000	-0.026	0.148
-522.975	-91.216	0.209	-0.060
-521.960	-134.973	-0.282	0.034
-520.945	351.091	0.044	-0.088
-519.931	800.000	-0.100	-0.298
-518.916	-48.872	0.065	0.031
-517.902	212.473	0.224	-0.356
-516.887	41.186	0.094	-0.085
-515.872	21.919	-0.205	-0.168
-514.858	262.997	-0.048	0.085
-513.843	-55.249	-0.256	0.116
-512.829	-200.000	-0.032	-0.163
-511.814	800.000	0.065	-0.262
-510.799	30.544	-0.257	0.222
-509.785	88.055	-0.099	-0.111
-508.770	309.492	-0.022	-0.041
-507.756	-47.055	0.170	-0.084
-506.741	154.902	-0.133	0.184
-505.726	-200.000	0.004	-0.180
-504.712	-200.000	0.040	-0.224
-503.697	-120.416	-0.182	-0.031
-502.683	-200.000	0.029	-0.485
-501.668	88.272	-0.155	0.173
-500.653	103.819	-0.171	-0.203
-499.639	-130.630	0.373	0.051
-498.624	5.258	0.101	0.075
-497.610	-109.388	0.064	-0.014
-496.595	-88.484	-0.270	-0.081
-495.581	46.407	-0.168	-0.157
-494.566	-40.179	0.116	-0.061
-493.551	134.271	0.104	-0.135
-492.537	202.086	-0.083	-0.129
-491.522	-84.984	0.116	-0.037
-490.508	-200.000	-0.032	-0.176
-489.493	800.000	0.073	0.282
-488.478	-200.000	-0.024	0.424
-487.464	-200.000	0.069	0.333
-486.449	350.888	-0.086	0.171
-485.435	56.032	0.062	-0.060
-484.420	-72.866	0.170	0.063
-483.405	800.000	-0.113	-0.326
-482.391	-62.972	0.143	-0.060
-481.376	284.922	0.089	-0.162
-480.362	46.686	0.220	-0.206
-479.347	800.000	-0.117	0.438
-478.332	-54.068	-0.158	0.072
-477.318	-91.543	-0.244	-0.070
-476.303	-124.302	-0.345	0.054
-475.289	-80.904	0.331	-0.111
-474.274	-190.750	0.396	0.004
-473.259	28.877	-0.093	0.079
-472.245	-32.729	-0.126	0.071
-471.230	-58.412	0.184	-0.081
-470.216	73.304	-0.033	-0.035
-469.201	-200.000	0.016	0.119
-468.186	15.691	-0.086	-0.068
-467.172	28.313	0.137	0.117
-466.157	-92.067	0.177	-0.050
-465.143	-44.880	-0.218	0.109
-464.128	-12.905	-0.039	-0.025
-463.113	15.023	-0.069	0.054
-462.099	43.221	-0.103	-0.095
-461.084	-200.000	0.003	0.087
-460.070	51.865	-0.255	-0.245
-459.055	-75.672	0.345	0.123
-458.040	-180.873	0.157	-0.003
-457.026	299.572	-0.176	-0.327
-456.011	273.721	-0.085	-0.152
-454.997	-95.220	0.249	-0.067
-453.982	-134.129	-0.016	0.002
-452.968	-200.000	-0.009	-0.314
-451.953	-2.118	0.038	0.027
-450.938	394.713	0.027	0.056
-449.924	800.000	-0.086	0.309
-448.909	20.299	0.071	0.058
-447.895	262.188	0.088	0.153
-446.880	16.126	-0.118	0.094
-445.865	800.000	-0.021	0.079
-444.851	-60.987	-0.290	0.123
-443.836	-78.990	0.153	-0.052
-442.822	-89.330	0.197	0.058
-441.807	60.996	0.221	-0.221
-440.792	83.119	-0.099	-0.108
-439.778	90.933	-0.185	0.208
-438.763	-5.307	0.162	-0.112
-437.749	800.000	-0.079	-0.332
-436.734	-21.863	-0.052	-0.032
-435.719	-200.000	0.019	-0.248
-434.705	202.261	-0.118	-0.183
-433.690	104.165	0.082	-0.097
-432.676	189.163	0.171	-0.257
-431.661	800.000	0.028	-0.116
-430.646	27.328	-0.177	-0.150
-429.632	-200.000	-0.023	-0.125
-428.617	-175.444	0.202	-0.006
-427.603	160.319	0.085	-0.119
-426.588	-200.000	0.044	-0.355
-425.573	-200.000	-0.017	-0.114
-424.559	-200.000	-0.003	-0.133
-423.544	-35.125	0.082	0.045
-422.530	-200.000	-0.033	0.278
-421.515	-84.831	-0.136	0.043
-420.500	29.031	0.064	0.055
-419.486	497.445	-0.125	0.289
-418.471	-53.495	0.209	-0.096
-417.457	-60.861	-0.172	0.073
-416.442	-200.000	0.093	0.438
-415.428	800.000	-0.054	0.218
-414.413	-200.000	0.062	-0.422
-413.398	13.415	-0.174	-0.136
-412.384	-200.000	0.009	-0.172
-411.369	8.998	-0.139	0.105
-410.355	51.382	-0.417	-0.398
-409.340	30.714	-0.198	-0.170
-408.325	-117.488	0.304	-0.055
-407.311	13.902	-0.164	-0.128
-406.296	-147.418	0.198	-0.017
-405.282	-28.447	0.413	-0.239
-404.267	-2.974	0.319	-0.224
-403.252	54.996	0.083	-0.080
-402.238	-123.798	0.076	0.012
-401.223	39.859	-0.088	0.079
-400.209	24.340	0.148	0.123
-399.194	-59.805	-0.366	0.157
-398.179	800.000	0.090	0.380
-397.165	-200.000	-0.044	-0.447
-396.150	434.365	-0.117	-0.256
-395.136	-7.344	0.375	-0.255
-394.121	-127.008	-0.215	-0.032
-393.106	53.790	0.223	-0.215
-392.092	92.471	-0.195	0.221
-391.077	176.374	0.071	0.104
-390.063	-98.669	-0.149	-0.038
-389.048	-132.483	-0.214	0.028
-388.033	-200.000	0.000	0.079
-387.019	71.408	-0.035	0.036
-386.004	800.000	-0.041	0.138
-384.990	371.922	-0.072	0.146
-383.975	-108.142	-0.226	-0.049
-382.960	800.000	0.015	-0.045
-381.946	800.000	-0.011	-0.035
-380.931	-132.635	0.182	0.023
-379.917	-37.553	-0.208	-0.111
-378.902	23.074	-0.309	0.255
-377.888	30.977	-0.229	-0.197
-376.873	96.083	0.107	0.122
-375.858	51.920	0.190	-0.181
-374.844	87.447	0.118	0.131
-373.829	-13.319	-0.157	0.102
-372.815	91.387	-0.097	-0.109
-371.800	111.040	0.098	-0.119
-370.785	-65.865	-0.189	0.076
-369.771	-200.000	-0.016	0.071
-368.756	-100.609	0.196	-0.049
-367.742	-200.000	0.009	0.069
-366.727	280.859	-0.050	0.090
-365.712	280.966	-0.155	-0.278
-364.698	800.000	-0.056	-0.159
-363.683	-200.000	0.004	-0.098
-362.669	-200.000	0.015	-0.284
-361.654	-105.220	0.108	0.025
-360.639	-72.257	0.214	0.080
-359.625	-200.000	-0.004	0.180
-358.610	-200.000	-0.021	0.153
-357.596	147.032	0.045	0.061
-356.581	-44.617	-0.386	0.193
-355.566	-85.489	0.211	-0.066
-354.552	91.647	0.110	-0.124
-353.537	-35.435	-0.381	0.208
-352.523	297.524	-0.223	0.410
-351.508	212.621	0.209	0.331
-350.493	-68.047	0.208	0.081
-349.479	332.687	-0.118	0.229
-348.464	124.643	-0.107	0.135
-347.450	33.445	0.139	-0.121
-346.435	21.680	0.123	-0.100
-345.420	158.102	-0.158	0.220
-344.406	111.301	-0.091	-0.109
-343.391	27.170	-0.124	0.104
-342.377	387.175	0.095	0.196
-341.362	135.565	-0.118	-0.154
-340.348	256.545	0.120	0.207
-339.333	-64.263	0.082	-0.034
-338.318	-99.518	-0.143	-0.036
-337.304	-139.678	0.224	0.024
-336.289	-54.865	-0.191	0.086
-335.275	23.343	0.184	0.151
-334.260	-133.192	-0.186	-0.024
-333.245	216.760	-0.079	0.125
-332.231	104.861	0.093	-0.110
-331.216	-200.000	0.003	0.300
-330.202	-28.549	-0.090	0.052
-329.187	545.412	0.045	0.107
-328.172	-71.566	0.213	0.080
-327.158	800.000	0.079	0.282
-326.143	-179.229	-0.277	-0.006
-325.129	108.254	-0.187	0.224
-324.114	-24.880	0.114	0.068
-323.099	-24.900	-0.072	0.043
-322.085	158.684	-0.137	0.190
-321.070	-170.892	0.263	0.009
-320.056	-200.000	0.014	-0.279
-319.041	233.562	-0.101	0.167
-318.026	800.000	0.166	0.469
-317.012	800.000	0.012	0.039
-315.997	-106.845	0.357	-0.079
-314.983	-20.418	-0.056	0.034
-313.968	-98.986	0.142	0.036
-312.953	-86.165	0.357	0.110
-311.939	-200.000	-0.063	-0.285
-310.924	210.753	0.099	0.156
-309.910	-103.864	-0.103	-0.024
-308.895	-142.817	0.217	-0.021
-307.880	-40.993	0.333	-0.172
-306.866	-200.000	0.053	-0.387
-305.851	268.910	0.106	-0.186
-304.837	172.106	0.113	0.163
-303.822	32.056	-0.098	-0.085
-302.807	-122.909	-0.069	0.011
-301.793	-65.712	-0.243	-0.097
-300.778	146.344	-0.097	0.130
-299.764	233.356	-0.111	-0.183
-298.749	-200.000	0.021	0.214
-297.735	800.000	-0.087	0.244
-296.720	-200.000	0.006	0.032
-295.705	-11.641	-0.235	-0.154
-294.691	-68.297	0.115	0.045
-293.676	-136.788	0.087	0.010
-292.662	69.353	-0.277	-0.285
-291.647	36.200	-0.081	-0.072
-290.632	-200.000	-0.003	0.207
-289.618	-148.253	0.401	-0.033
-288.603	160.926	-0.089	-0.125
-287.589	-6.026	0.138	-0.094
-286.574	-73.413	-0.155	0.057
-285.559	584.266	0.102	0.251
-284.545	59.695	-0.062	0.061
-283.530	-200.000	-0.011	0.122
-282.516	97.668	0.164	-0.189
-281.501	-10.385	0.184	0.122
-280.486	-57.403	-0.330	-0.145
-279.472	277.131	0.150	0.267
-278.457	149.338	0.123	-0.166
-277.443	-84.676	0.124	0.039
-276.428	162.159	-0.118	0.165
-275.413	800.000	-0.061	0.195
-274.399	-2.953	0.100	-0.070
-273.384	-200.000	0.017	-0.217
-272.370	-183.519	0.247	0.004
-271.355	-123.032	0.358	-0.058
-270.340	-200.000	-0.000	0.248
-269.326	381.482	0.177	0.363
-268.311	307.289	0.081	0.151
-267.297	-200.000	0.100	0.449
-266.282	292.057	-0.015	-0.028
-265.267	800.000	0.070	-0.250
-264.253	800.000	-0.069	-0.272
-263.238	301.046	-0.042	0.077
-262.224	-66.108	-0.283	0.113
-261.209	-200.000	0.008	-0.185
-260.195	-144.464	-0.134	0.012
-259.180	-79.054	0.189	0.064
-258.165	707.080	0.009	0.025
-257.151	405.758	0.146	0.308
-256.136	-118.557	-0.132	0.023
-255.122	-26.506	0.164	-0.096
-254.107	-93.025	0.069	-0.019
-253.092	162.019	-0.098	-0.136
-252.078	-32.209	0.099	0.055
-251.063	800.000	0.042	0.162
-250.049	800.000	0.109	0.321
-249.034	-162.381	0.163	0.008
-248.019	52.277	0.091	-0.086
-247.005	120.692	-0.042	-0.052
-245.990	-0.004	-0.045	0.032
-244.976	-60.808	0.220	0.093
-243.961	-67.146	0.310	-0.122
-242.946	-200.000	-0.023	0.101
-241.932	198.222	0.150	0.230
-240.917	86.064	-0.066	-0.073
-239.903	283.135	-0.121	0.216
-238.888	17.787	0.230	0.183
-237.873	-117.172	0.048	-0.009
-236.859	-58.511	0.199	0.086
-235.844	800.000	-0.032	0.117
-234.830	446.629	0.148	0.324
-233.815	-200.000	-0.068	-0.425
-232.800	97.837	-0.175	-0.201
-231.786	-200.000	0.005	-0.278
-230.771	-118.030	0.078	0.014
-229.757	-200.000	-0.019	0.279
-228.742	800.000	-0.064	-0.253
-227.727	-200.000	-0.044	0.261
-226.713	-67.135	-0.238	-0.093
-225.698	-200.000	-0.325	-0.001
-224.684	-50.055	-0.145	0.069
-223.669	-200.000	-0.008	-0.039
-222.655	800.000	0.084	0.270
-221.640	-28.102	-0.086	-0.050
-220.625	-54.169	0.096	0.043
-219.611	19.331	-0.175	-0.140
-218.596	610.422	0.158	-0.394
-217.582	-200.000	-0.033	-0.262
-216.567	-125.406	0.192	-0.029
-215.552	410.873	-0.188	-0.399
-214.538	-167.449	-0.459	-0.018
-213.523	402.433	0.171	0.357
-212.509	-10.508	0.239	-0.158
-211.494	800.000	-0.084	0.325
-210.479	-96.934	0.260	-0.068
-209.465	111.788	-0.047	0.057
-208.450	55.652	-0.044	0.042
-207.436	800.000	-0.103	0.410
-206.421	800.000	-0.098	0.359
-205.406	-13.537	-0.047	-0.030
-204.392	-123.043	0.499	-0.080
-203.377	-200.000	-0.026	-0.203
-202.363	54.482	-0.172	0.165
-201.348	261.814	0.041	-0.071
-200.333	480.141	0.071	0.160
-199.319	13.470	0.057	0.044
-198.304	62.055	0.306	0.304
-197.290	33.764	0.012	0.010
-196.275	138.272	-0.145	0.190
-195.260	-141.299	-0.065	-0.007
-194.246	118.910	0.108	-0.133
-193.231	-200.000	0.058	0.372
-192.217	17.813	-0.022	0.018
-191.202	-113.308	-0.346	-0.068
-190.187	-161.163	-0.487	-0.025
-189.173	1.045	-0.045	-0.032
-188.158	-134.914	0.059	-0.007
-187.144	-12.011	-0.108	-0.070
-186.129	262.145	0.219	0.378
-185.114	216.070	0.149	0.235
-184.100	-200.000	-0.055	0.332
-183.085	-87.829	0.222	0.067
-182.071	227.172	-0.094	0.152
-181.056	285.793	-0.077	-0.139
-180.042	-77.796	-0.348	-0.120
-179.027	-23.366	0.159	0.095
-178.012	-43.201	0.142	0.072
-176.998	-200.000	0.082	0.427
-175.983	-200.000	-0.002	0.308
-174.969	-89.321	0.176	-0.052
-173.954	-112.110	-0.146	-0.029
-172.939	-100.821	-0.323	-0.079
-171.925	-200.000	-0.043	-0.238
-170.910	-104.509	-0.183	0.042
-169.896	58.312	-0.148	0.145
-168.881	192.209	0.116	0.174
-167.866	800.000	0.065	0.224
-166.852	582.497	0.116	-0.284
-165.837	800.000	0.017	-0.067
-164.823	450.638	0.039	0.086
-163.808	-200.000	0.012	-0.124
-162.793	255.762	0.186	-0.317
-161.779	800.000	0.074	-0.264
-160.764	676.156	-0.036	0.092
-159.750	18.799	-0.223	-0.177
-158.735	800.000	-0.094	-0.323
-157.720	-21.730	-0.184	-0.111
-156.706	-141.268	0.263	-0.027
-155.691	-58.960	-0.085	0.037
-154.677	-71.730	0.616	-0.229
-153.662	-25.536	0.132	0.078
-152.647	800.000	-0.121	-0.394
-151.633	168.800	-0.258	-0.366
-150.618	65.881	-0.024	0.024
-149.604	-1.277	0.125	-0.088
-148.589	752.150	-0.069	-0.185
-147.574	-83.184	-0.232	-0.074
-146.560	-36.585	-0.236	-0.126
-145.545	800.000	0.069	0.204
-144.531	800.000	-0.058	-0.200
-143.516	-37.962	0.213	0.112
-142.502	800.000	0.112	0.382
-141.487	14.878	-0.123	-0.096
-140.472	800.000	-0.112	-0.323
-139.458	519.516	-0.016	-0.038
-138.443	282.840	-0.037	0.066
-137.429	-200.000	-0.048	0.284
-136.414	-179.560	0.269	-0.006
-135.399	665.417	0.156	-0.401
-134.385	61.231	0.266	0.262
-133.370	59.043	-0.180	0.176
-132.356	-200.000	-0.008	0.144
-131.341	-89.254	-0.026	-0.008
-130.326	-64.509	-0.188	-0.076
-129.312	-200.000	-0.032	0.206
-128.297	756.940	-0.090	0.243
-127.283	28.027	-0.188	-0.158
-126.268	-21.788	-0.166	-0.100
-125.253	361.120	-0.046	0.092
-124.239	532.857	0.124	-0.292
-123.224	54.208	-0.159	0.152
-122.210	800.000	0.031	-0.120
-121.195	92.527	-0.205	0.229
-120.180	181.539	0.134	-0.196
-119.166	800.000	0.109	-0.311
-118.151	-156.766	-0.246	-0.015
-117.137	-200.000	0.005	0.320
-116.122	211.070	-0.078	-0.121
-115.107	68.558	-0.225	0.229
-114.093	0.804	0.276	-0.196
-113.078	3.275	0.163	0.118
-112.064	-200.000	0.055	0.414
-111.049	800.000	0.038	-0.122
-110.034	494.934	-0.104	0.238
-109.020	138.227	-0.087	0.114
-108.005	-200.000	0.039	-0.205
-106.991	-84.400	0.180	0.056
-105.976	-200.000	-0.005	0.028
-104.962	800.000	-0.073	0.243
-103.947	392.989	-0.121	0.250
-102.932	-126.755	-0.155	0.023
-101.918	-20.573	-0.172	-0.105
-100.903	-200.000	-0.001	-0.250
-99.889	240.779	0.130	0.216
-98.874	-62.054	0.280	-0.116
-97.859	722.691	0.184	-0.485
-96.845	-200.000	-0.071	0.391
-95.830	-102.176	0.084	0.020
-94.816	9.490	0.097	-0.073
-93.801	110.713	-0.140	-0.168
-92.786	468.579	0.096	0.214
-91.772	-166.083	0.075	-0.003
-90.757	238.994	0.095	-0.157
-89.743	800.000	0.083	-0.303
-88.728	32.227	0.107	-0.092
-87.713	-200.000	-0.005	-0.089
-86.699	-7.804	0.094	-0.063
-85.684	154.966	0.187	0.256
-84.670	434.055	0.109	-0.234
-83.655	-200.000	-0.063	0.362
-82.640	-200.000	-0.027	0.144
-81.626	177.724	0.252	-0.365
-80.611	-69.293	-0.137	-0.052
-79.597	800.000	0.044	-0.124
-78.582	170.791	0.213	0.302
-77.567	-40.219	-0.180	-0.093
-76.553	200.567	-0.021	0.032
-75.538	-200.000	0.015	-0.194
-74.524	-200.000	0.043	0.324
-73.509	-200.000	0.030	0.190
-72.494	45.678	-0.181	-0.166
-71.480	-72.405	0.248	0.091
-70.465	0.573	-0.254	0.180
-69.451	-125.125	0.279	-0.042
-68.436	127.725	0.112	-0.141
-67.422	-129.074	-0.372	-0.052
-66.407	268.174	-0.215	-0.373
-65.392	239.986	0.091	0.151
-64.378	425.660	-0.088	0.188
-63.363	56.973	-0.105	-0.101
-62.349	-200.000	0.029	-0.407
-61.334	184.254	-0.830	-1.217
-60.319	173.391	0.325	0.464
-59.305	-200.000	0.038	-0.901
-58.290	-200.000	0.007	0.914
-57.276	800.000	0.580	1.627
-56.261	-200.000	95.465	562.111
-55.246	615.652	1382.064	3432.571
-54.232	192.219	2569.849	3840.288
-53.217	108.499	2306.363	2727.614
-52.203	39.820	2062.561	1833.718
-51.188	35.071	1977.449	1715.549
-50.173	33.507	1959.279	1685.827
-49.159	48.305	2008.820	1862.043
-48.144	49.751	2026.949	1891.806
-47.130	35.640	1988.720	1730.180
-46.115	33.347	1977.925	1700.161
-45.100	33.170	1975.449	1696.377
-44.086	33.170	1972.609	1693.875
-43.071	33.132	1970.532	1691.675
-42.057	33.087	1968.144	1689.162
-41.042	33.101	1966.200	1687.547
-40.027	33.081	1964.691	1686.013
-39.013	33.152	1962.554	1684.742
-37.998	33.152	1960.581	1682.983
-36.984	33.141	1958.964	1681.429
-35.969	33.274	1956.824	1680.704
-34.954	33.229	1955.313	1678.942
-33.940	33.261	1953.808	1677.867
-32.925	33.308	1951.836	1676.520
-31.911	33.367	1950.138	1675.525
-30.896	33.280	1948.927	1673.643
-29.881	33.310	1947.794	1672.871
-28.867	33.375	1945.665	1671.545
-27.852	33.329	1943.910	1669.573
-26.838	33.448	1941.484	1668.464
-25.823	33.362	1939.763	1666.164
-24.809	33.400	1938.211	1665.103
-23.794	33.268	1936.909	1662.756
-22.779	33.412	1934.779	1662.124
-21.765	33.292	1933.431	1659.850
-20.750	33.331	1931.371	1658.359
-19.736	33.334	1929.783	1656.953
-18.721	33.353	1928.296	1655.777
-17.706	33.269	1927.060	1653.918
-16.692	33.377	1924.934	1652.968
-15.677	33.330	1923.608	1651.349
-14.663	33.378	1921.680	1650.049
-13.648	33.364	1921.255	1649.494
-12.633	33.373	1919.908	1648.354
-11.619	33.351	1918.394	1646.799
-10.604	33.317	1917.394	1645.582
-9.590	33.390	1915.521	1644.540
-8.575	33.360	1914.202	1643.083
-7.560	33.351	1913.199	1642.074
-6.546	33.324	1911.689	1640.479
-5.531	33.302	1911.159	1639.773
-4.517	33.332	1909.862	1638.855
-3.502	33.309	1908.439	1637.365
-2.487	33.349	1906.778	1636.226
-1.473	33.306	1906.159	1635.258
-0.458	33.382	1901.571	1631.914
0.556	33.362	1881.585	1603.278
1.571	29.030	1861.802	1549.889
2.586	24.963	1883.158	1532.806
3.600	23.844	1918.324	1551.527
4.615	23.141	1912.628	1540.666
5.629	17.847	1812.293	1415.910
6.644	9.196	1694.718	1256.535
7.659	5.034	1658.664	1197.778
8.673	4.869	1655.186	1193.899
9.688	4.793	1654.191	1192.493
10.702	4.763	1652.759	1191.124
11.717	4.765	1649.872	1188.959
12.731	5.156	1648.715	1191.001
13.746	10.783	1661.542	1243.326
14.761	18.158	1677.415	1311.874
15.775	20.307	1679.272	1329.692
16.790	19.450	1676.441	1320.776
17.804	18.322	1673.146	1309.444
18.819	17.251	1669.927	1298.627
19.834	16.762	1667.092	1292.577
20.848	16.471	1666.064	1289.443
21.863	16.181	1664.293	1285.750
22.877	15.965	1662.745	1282.798
23.892	15.693	1661.960	1280.004
24.907	15.698	1660.629	1278.908
25.921	15.640	1659.216	1277.266
26.936	15.677	1658.372	1276.784
27.950	15.658	1657.968	1276.215
28.965	15.600	1657.253	1275.108
29.980	15.702	1656.641	1275.297
30.994	15.798	1655.446	1274.996
32.009	15.883	1654.859	1275.075
33.023	16.013	1653.355	1274.789
34.038	16.018	1652.226	1273.843
35.053	15.993	1651.472	1272.957
36.067	15.925	1650.026	1271.218
37.082	15.845	1649.155	1269.831
38.096	15.879	1647.878	1268.989
39.111	15.811	1647.665	1268.202
40.126	15.925	1646.921	1268.375
41.140	15.941	1646.106	1267.755
42.155	15.731	1644.253	1264.637
43.169	15.586	1643.036	1262.498
44.184	15.582	1641.459	1261.151
45.199	15.583	1640.437	1260.261
46.213	15.619	1639.087	1259.375
47.228	15.594	1638.054	1258.288
48.242	15.607	1637.521	1257.860
49.257	15.821	1636.134	1258.286
50.271	15.821	1634.559	1256.965
51.286	15.823	1633.184	1255.810
52.301	15.678	1632.336	1253.967
53.315	15.853	1631.131	1254.232
54.330	15.806	1629.335	1252.392
55.344	15.661	1627.579	1249.852
56.359	15.562	1626.395	1248.096
57.374	15.632	1625.201	1247.587
58.388	15.614	1624.160	1246.544
59.403	15.633	1622.636	1245.409
60.417	15.478	1621.677	1243.412
61.432	15.500	1620.327	1242.429
62.447	15.638	1619.055	1242.367
63.461	15.563	1617.710	1240.668
64.476	15.447	1617.457	1239.513
65.490	15.395	1616.092	1237.968
66.505	15.431	1614.463	1236.881
67.520	15.420	1613.727	1236.121
68.534	15.554	1612.562	1236.106
69.549	15.549	1611.954	1235.500
70.563	15.535	1610.186	1233.932
71.578	15.451	1609.430	1232.622
72.593	15.359	1608.289	1230.964
73.607	15.293	1607.150	1229.503
74.622	15.362	1605.870	1228.916
75.636	15.379	1604.771	1228.097
76.651	15.395	1603.956	1227.479
77.666	15.363	1603.597	1226.862
78.680	15.416	1602.662	1226.427
79.695	15.378	1602.006	1225.536
80.709	15.387	1601.159	1224.847
81.724	15.554	1599.949	1225.028
82.739	15.586	1598.957	1224.394
83.753	15.596	1598.441	1223.967
84.768	15.690	1597.606	1223.899
85.782	15.772	1596.585	1223.607
86.797	15.897	1595.808	1223.810
87.812	15.850	1595.613	1223.215
88.826	15.828	1594.033	1221.734
89.841	15.768	1592.619	1220.106
90.855	15.716	1592.213	1219.313
91.870	15.805	1590.637	1218.637
92.884	15.767	1590.346	1218.032
93.899	15.776	1588.913	1216.894
94.914	15.853	1587.332	1216.129
95.928	15.894	1586.570	1215.737
96.943	15.937	1585.439	1215.073
97.957	15.933	1583.761	1213.651
98.972	15.864	1582.166	1211.823
99.987	15.839	1580.794	1210.490
101.001	15.816	1579.080	1208.904
102.016	15.839	1577.509	1207.760
103.030	15.769	1576.815	1206.615
104.045	15.699	1575.570	1205.056
105.060	15.850	1574.016	1204.838
106.074	15.809	1572.785	1203.502
107.089	15.646	1571.292	1201.084
108.103	15.586	1569.562	1199.228
109.118	15.545	1567.908	1197.565
110.133	15.438	1567.122	1196.100
111.147	15.445	1565.472	1194.781
112.162	15.496	1563.805	1193.765
113.176	15.551	1562.654	1193.174
114.191	15.515	1561.099	1191.624
115.206	15.584	1559.987	1191.161
116.220	15.527	1558.698	1189.669
117.235	15.642	1557.157	1189.197
118.249	15.547	1556.083	1187.600
119.264	15.564	1555.137	1186.891
120.279	15.492	1553.665	1185.156
121.293	15.474	1552.196	1183.807
122.308	15.502	1550.488	1182.598
123.322	15.528	1548.581	1181.222
124.337	15.418	1547.352	1179.402
125.352	15.480	1545.976	1178.687
126.366	15.384	1545.429	1177.490
127.381	15.499	1543.657	1176.840
128.395	15.446	1542.713	1175.646
129.410	15.487	1541.299	1174.753
130.424	15.571	1539.947	1174.209
131.439	15.500	1538.799	1172.731
132.454	15.540	1537.862	1172.194
133.468	15.582	1536.675	1171.477
134.483	15.620	1535.171	1170.494
135.497	15.652	1533.634	1169.440
136.512	15.647	1532.170	1168.182
137.527	15.594	1531.514	1167.209
138.541	15.683	1529.828	1166.441
139.556	15.672	1528.657	1165.370
140.570	15.669	1527.270	1164.191
141.585	15.762	1525.641	1163.486
142.600	15.855	1524.717	1163.320
143.614	15.786	1523.815	1162.054
144.629	15.887	1522.625	1161.739
145.643	15.949	1520.962	1160.800
146.658	16.067	1519.284	1160.224
147.673	16.023	1517.535	1158.487
148.687	15.942	1516.388	1156.952
149.702	15.849	1515.279	1155.364
150.716	15.722	1513.889	1153.328
151.731	15.771	1511.864	1152.018
152.746	15.800	1510.760	1151.277
153.760	15.728	1509.769	1149.930
154.775	15.743	1508.509	1148.971
155.789	15.841	1507.512	1148.776
156.804	16.003	1505.768	1148.447
157.819	15.941	1504.808	1147.195
158.833	15.875	1503.493	1145.643
159.848	15.984	1502.459	1145.491
160.862	16.081	1501.394	1145.239
161.877	16.042	1500.234	1143.988
162.892	15.944	1499.202	1142.436
163.906	15.911	1497.320	1140.674
164.921	15.893	1495.989	1139.442
165.935	15.764	1495.463	1138.068
166.950	15.767	1494.527	1137.273
167.964	15.934	1493.100	1137.217
168.979	16.038	1492.045	1137.012
169.994	15.962	1491.244	1135.787
171.008	15.932	1490.584	1134.981
172.023	15.976	1489.370	1134.254
173.037	15.939	1488.247	1133.049
174.052	16.016	1487.043	1132.553
175.067	16.108	1486.021	1132.292
176.081	16.052	1485.018	1131.050
177.096	15.838	1483.538	1128.387
178.110	15.979	1481.892	1127.979
179.125	15.933	1480.988	1126.886
180.140	15.983	1480.117	1126.455
181.154	15.906	1479.124	1125.089
182.169	15.945	1478.075	1124.451
183.183	16.114	1476.680	1124.419
184.198	16.117	1475.771	1123.647
185.213	16.178	1474.947	1123.325
186.227	16.122	1473.542	1121.779
187.242	16.202	1472.894	1121.724
188.256	16.212	1471.444	1120.581
189.271	16.284	1470.306	1120.098
190.286	16.277	1469.597	1119.408
191.300	16.260	1468.154	1118.100
192.315	16.079	1466.704	1115.697
193.329	15.983	1465.525	1114.064
194.344	15.929	1464.276	1112.662
195.359	15.941	1463.821	1112.299
196.373	16.033	1462.984	1112.172
197.388	16.082	1461.918	1111.588
198.402	16.204	1460.843	1111.476
199.417	16.224	1460.234	1111.043
200.432	16.385	1458.771	1110.889
201.446	16.424	1457.697	1110.229
202.461	16.507	1456.581	1109.829
203.475	16.578	1456.140	1109.858
204.490	16.544	1454.658	1108.411
205.504	16.500	1453.967	1107.496
206.519	16.423	1452.578	1105.832
207.534	16.376	1451.465	1104.581
208.548	16.413	1450.385	1103.907
209.563	16.359	1449.282	1102.616
210.577	16.349	1447.921	1101.419
211.592	16.440	1447.665	1101.721
212.607	16.451	1446.712	1100.968
213.621	16.548	1445.945	1100.916
214.636	16.604	1445.441	1100.801
215.650	16.519	1444.184	1099.194
216.665	16.573	1443.040	1098.575
217.680	16.630	1442.188	1098.203
218.694	16.719	1441.705	1098.312
219.709	16.698	1440.966	1097.517
220.723	16.699	1440.446	1097.030
221.738	16.714	1439.069	1095.983
222.753	16.724	1438.502	1095.514
223.767	16.607	1437.132	1093.618
224.782	16.686	1436.097	1093.247
225.796	16.716	1435.222	1092.675
226.811	16.867	1434.404	1092.928
227.826	16.833	1433.740	1092.108
228.840	16.727	1432.869	1090.667
229.855	16.648	1432.256	1089.592
230.869	16.666	1430.833	1088.531
231.884	16.717	1429.964	1088.100
232.899	16.654	1428.976	1086.848
233.913	16.661	1427.504	1085.679
234.928	16.571	1426.097	1083.935
235.942	16.611	1425.254	1083.455
236.957	16.599	1423.771	1082.154
237.972	16.596	1422.639	1081.179
238.986	16.604	1422.022	1080.667
240.001	16.647	1420.666	1079.813
241.015	16.627	1419.705	1078.864
242.030	16.648	1418.916	1078.297
243.045	16.707	1417.606	1077.586
244.059	16.792	1416.746	1077.374
245.074	16.742	1416.213	1076.558
246.088	16.969	1414.857	1076.874
247.103	16.909	1414.389	1076.043
248.117	16.835	1414.054	1075.219
249.132	17.065	1412.842	1075.662
250.147	17.078	1412.423	1075.333
251.161	17.188	1411.939	1075.561
252.176	17.189	1411.297	1074.988
253.190	17.342	1410.710	1075.410
254.205	17.314	1409.823	1074.461
255.220	17.406	1408.376	1073.844
256.234	17.411	1408.166	1073.619
257.249	17.481	1407.492	1073.453
258.263	17.374	1406.740	1072.109
259.278	17.450	1405.085	1071.234
260.293	17.451	1404.543	1070.734
261.307	17.459	1403.789	1070.111
262.322	17.455	1403.040	1069.422
263.336	17.504	1402.568	1069.277
264.351	17.558	1401.208	1068.483
265.366	17.508	1400.640	1067.638
266.380	17.598	1399.418	1067.176
267.395	17.584	1398.155	1066.034
268.409	17.618	1397.565	1065.700
269.424	17.501	1396.791	1064.286
270.439	17.473	1395.764	1063.233
271.453	17.525	1394.184	1062.263
272.468	17.513	1393.702	1061.724
273.482	17.464	1393.004	1060.796
274.497	17.487	1392.061	1060.125
275.512	17.458	1391.184	1059.181
276.526	17.438	1390.055	1058.108
277.541	17.453	1389.486	1057.676
278.555	17.463	1388.370	1056.792
279.570	17.489	1387.518	1056.211
280.585	17.512	1386.917	1055.801
281.599	17.577	1386.127	1055.510
282.614	17.650	1385.284	1055.227
283.628	17.679	1383.936	1054.289
284.643	17.652	1382.852	1053.200
285.657	17.606	1381.433	1051.741
286.672	17.654	1380.767	1051.440
287.687	17.555	1380.143	1050.261
288.701	17.644	1379.042	1049.878
289.716	17.752	1377.811	1049.513
290.730	17.731	1377.479	1049.038
291.745	17.744	1376.168	1048.027
292.760	17.604	1376.026	1046.964
293.774	17.769	1374.566	1046.776
294.789	17.622	1373.953	1045.313
295.803	17.816	1372.948	1045.644
296.818	17.893	1371.821	1045.164
297.833	17.806	1370.676	1043.666
298.847	17.790	1369.986	1042.953
299.862	17.619	1368.936	1041.013
300.876	17.736	1367.969	1040.901
301.891	17.761	1366.820	1040.090
302.906	17.870	1366.127	1040.135
303.920	17.941	1365.710	1040.156
304.935	17.970	1365.221	1039.868
305.949	17.986	1364.809	1039.560
306.964	18.034	1363.389	1038.681
307.979	18.086	1362.955	1038.572
308.993	18.128	1361.340	1037.507
310.008	17.991	1360.840	1036.200
311.022	18.062	1359.514	1035.527
312.037	18.157	1358.794	1035.465
313.052	18.142	1357.912	1034.612
314.066	18.097	1356.995	1033.547
315.081	18.064	1355.985	1032.488
316.095	17.989	1354.479	1030.796
317.110	17.943	1353.510	1029.689
318.125	17.906	1352.674	1028.740
319.139	17.967	1351.762	1028.327
320.154	17.964	1350.828	1027.505
321.168	17.883	1349.958	1026.266
322.183	18.008	1348.987	1026.190
323.197	18.046	1347.593	1025.263
324.212	18.091	1347.098	1025.069
325.227	18.088	1346.749	1024.691
326.241	18.081	1345.597	1023.683
327.256	18.073	1344.601	1022.785
328.270	18.078	1343.661	1022.011
329.285	18.137	1342.597	1021.464
330.300	18.059	1341.988	1020.447
331.314	18.071	1340.857	1019.566
332.329	18.086	1340.322	1019.161
333.343	18.095	1339.252	1018.307
334.358	18.126	1338.539	1017.858
335.373	18.175	1338.016	1017.662
336.387	18.267	1336.709	1017.125
337.402	18.269	1335.940	1016.460
338.416	18.312	1335.384	1016.208
339.431	18.322	1334.970	1015.858
340.446	18.300	1334.397	1015.202
341.460	18.410	1332.960	1014.673
342.475	18.485	1331.750	1014.106
343.489	18.414	1331.547	1013.439
344.504	18.497	1330.586	1013.107
345.519	18.524	1329.951	1012.694
346.533	18.607	1328.635	1012.096
347.548	18.750	1327.772	1012.191
348.562	18.699	1327.255	1011.405
349.577	18.592	1326.837	1010.370
350.592	18.621	1325.466	1009.402
351.606	18.597	1324.429	1008.387
352.621	18.528	1322.993	1006.798
353.635	18.575	1322.000	1006.227
354.650	18.472	1320.915	1004.709
355.665	18.483	1320.250	1004.182
356.679	18.465	1319.355	1003.305
357.694	18.510	1318.439	1002.784
358.708	18.494	1317.632	1001.988
359.723	18.596	1316.463	1001.606
360.738	18.675	1315.147	1000.973
361.752	18.707	1314.673	1000.714
362.767	18.687	1313.238	999.416
363.781	18.695	1312.338	998.690
364.796	18.704	1311.650	998.128
365.810	18.722	1310.783	997.485
366.825	18.690	1310.669	997.125
367.840	18.926	1309.489	997.507
368.854	18.965	1308.801	997.121
369.869	18.857	1308.895	996.481
370.883	18.963	1308.106	996.402
371.898	19.003	1307.154	995.822
372.913	18.868	1306.410	994.386
373.927	18.828	1305.279	993.209
374.942	18.991	1304.487	993.460
375.956	18.875	1304.021	992.347
376.971	19.065	1302.841	992.453
377.986	19.008	1301.878	991.305
379.000	18.963	1301.513	990.683
380.015	19.017	1300.727	990.307
381.029	19.114	1299.808	990.076
382.044	19.198	1299.245	990.041
383.059	19.252	1298.413	989.633
384.073	19.203	1298.250	989.137
385.088	19.164	1297.675	988.386
386.102	19.087	1296.455	986.930
387.117	19.147	1296.026	986.861
388.132	19.201	1295.036	986.330
389.146	19.055	1294.049	984.653
390.161	19.049	1293.268	983.937
391.175	19.152	1292.554	983.896
392.190	19.120	1291.772	983.032
393.205	19.092	1290.756	982.014
394.219	19.236	1289.565	981.836
395.234	19.306	1288.706	981.496
396.248	19.274	1287.177	980.063
397.263	19.116	1285.984	978.169
398.278	19.247	1284.249	977.510
399.292	19.201	1283.264	976.413
400.307	19.111	1282.459	975.200
401.321	19.091	1281.376	974.182
402.336	19.007	1280.548	972.989
403.350	19.077	1279.664	972.629
404.365	18.973	1278.991	971.443
405.380	19.197	1278.108	971.950
406.394	19.126	1277.338	970.878
407.409	19.145	1276.817	970.503
408.423	19.246	1275.933	970.312
409.438	19.376	1275.134	970.350
410.453	19.427	1274.307	969.924
411.467	19.529	1273.814	970.035
412.482	19.576	1273.235	969.771
413.496	19.608	1272.438	969.257
414.511	19.693	1271.800	969.166
415.526	19.711	1270.889	968.484
416.540	19.739	1270.078	967.940
417.555	19.669	1269.689	967.161
418.569	19.689	1269.125	966.761
419.584	19.767	1268.350	966.521
420.599	19.660	1268.028	965.589
421.613	141.530	1431.437	1793.488
422.628	135.952	1455.211	1793.610
