DTS Sentinel unit serial number:	SN413079Multiplexer serial number:	ORYXHardware model number:	OX4-SRSoftware version number:	ORYX F/W v4.00 Oryx Data Collector v3.7.2.0data status	okinstallation	princeton_trtdifferential loss correction	single-endedforward channel	channel 4reverse channel	N/Adate	2019/09/13time	23:49:35forward acquisition time	60.00reverse acquisition time	0.00gamma	496.2192k internal	0.2324k external	0.2324temperature offset calibration	1.0135default loss term (dB/km)	0.3790temperature slope calibration	1.0000multiplexer offset coefficient	1.0000multiplexer slope coefficient	1.0000fibre end	0.00T internal ref (°C)	26.62T ext. ref 1 (°C)	3.18T ext. ref 2 (°C)	20.97length (m)	temperature (°C)	Stokes	anti-Stokes-747.200	-107.660	-0.101	-0.022
-746.185	313.887	-0.143	0.272
-745.171	-200.000	-0.063	-0.401
-744.156	219.584	0.073	0.117
-743.142	17.204	-0.239	-0.191
-742.127	135.893	-0.278	0.366
-741.112	488.130	0.155	0.358
-740.098	-200.000	-0.004	0.261
-739.083	-19.335	0.228	0.142
-738.069	115.060	-0.023	-0.029
-737.054	140.603	0.084	0.112
-736.039	512.651	-0.128	-0.300
-735.025	-115.031	-0.452	-0.087
-734.010	-19.799	0.198	-0.123
-732.996	104.704	-0.075	-0.089
-731.981	-97.293	0.471	-0.124
-730.966	-4.701	-0.230	0.160
-729.952	779.975	0.034	-0.095
-728.937	-27.845	0.113	0.066
-727.923	-72.430	0.183	-0.068
-726.908	-177.864	0.135	0.003
-725.894	-65.395	-0.052	-0.021
-724.879	-67.822	0.229	-0.090
-723.864	-142.594	0.092	0.009
-722.850	233.417	-0.178	0.295
-721.835	111.139	0.240	0.291
-720.821	-200.000	-0.014	0.067
-719.806	-200.000	0.017	-0.246
-718.791	326.533	-0.153	-0.295
-717.777	-113.051	0.094	-0.019
-716.762	-200.000	0.048	-0.348
-715.748	33.891	-0.121	-0.106
-714.733	48.646	-0.138	-0.131
-713.718	6.392	0.075	0.056
-712.704	-200.000	0.019	-0.137
-711.689	-129.325	-0.068	0.009
-710.675	-134.274	0.207	0.026
-709.660	800.000	0.035	0.121
-708.645	183.964	0.225	-0.335
-707.631	-200.000	-0.029	-0.322
-706.616	-200.000	-0.015	-0.280
-705.602	99.749	-0.203	0.237
-704.587	6.324	0.178	0.133
-703.572	95.154	0.155	0.178
-702.558	115.797	0.078	-0.096
-701.543	-200.000	0.031	0.142
-700.529	800.000	-0.079	-0.260
-699.514	-61.286	-0.264	0.112
-698.499	234.318	-0.133	0.220
-697.485	250.215	-0.061	-0.104
-696.470	1.370	-0.157	0.113
-695.456	-56.243	-0.022	-0.010
-694.441	25.832	0.144	0.121
-693.426	-0.029	-0.132	-0.095
-692.412	-200.000	-0.091	-0.502
-691.397	204.829	0.069	0.107
-690.383	-112.982	0.068	-0.014
-689.368	-123.059	0.110	-0.018
-688.354	-102.669	-0.283	0.068
-687.339	204.785	0.085	-0.134
-686.324	800.000	-0.102	-0.334
-685.310	133.937	0.236	-0.307
-684.295	-59.150	-0.469	0.204
-683.281	-70.339	0.132	0.051
-682.266	606.060	-0.089	-0.223
-681.251	-15.356	0.186	0.120
-680.237	800.000	0.055	-0.168
-679.222	-115.356	-0.414	-0.079
-678.208	-200.000	-0.001	-0.068
-677.193	-194.157	-0.180	0.001
-676.178	660.095	-0.009	0.024
-675.164	-200.000	-0.037	-0.163
-674.149	-137.209	0.200	0.023
-673.135	122.249	-0.145	0.182
-672.120	24.435	-0.240	-0.200
-671.105	-70.660	-0.310	0.118
-670.091	15.210	0.053	-0.042
-669.076	310.629	0.083	0.156
-668.062	37.278	-0.261	0.232
-667.047	-13.629	0.096	0.063
-666.032	252.037	-0.131	0.224
-665.018	-148.269	-0.229	0.019
-664.003	-103.652	-0.107	0.025
-662.989	-75.856	0.231	0.082
-661.974	-125.961	0.271	0.041
-660.959	-160.607	-0.188	-0.010
-659.945	248.560	0.137	-0.234
-658.930	197.528	-0.159	0.244
-657.916	-19.901	0.298	-0.185
-656.901	-123.561	-0.189	0.030
-655.886	-109.113	-0.122	0.026
-654.872	-200.000	-0.032	0.367
-653.857	-101.786	0.172	-0.042
-652.843	-200.000	-0.006	0.141
-651.828	-52.354	-0.221	0.103
-650.814	-31.629	-0.122	-0.069
-649.799	-1.826	-0.336	-0.238
-648.784	517.358	0.083	0.196
-647.770	-200.000	0.046	0.297
-646.755	228.517	0.030	-0.048
-645.741	124.807	-0.087	0.110
-644.726	48.750	0.101	-0.095
-643.711	90.386	0.162	0.182
-642.697	89.722	-0.119	-0.134
-641.682	-111.477	-0.191	-0.039
-640.668	-200.000	-0.007	-0.098
-639.653	-118.141	0.244	-0.044
-638.638	800.000	-0.093	0.348
-637.624	800.000	0.044	-0.182
-636.609	800.000	0.051	0.149
-635.595	-200.000	-0.087	-0.413
-634.580	-53.004	0.245	0.113
-633.565	-45.375	0.206	-0.103
-632.551	-200.000	0.001	-0.223
-631.536	-60.564	-0.040	0.017
-630.522	-113.215	0.217	-0.043
-629.507	583.749	-0.117	0.288
-628.492	-30.839	0.128	0.073
-627.478	33.539	-0.087	-0.076
-626.463	-67.334	-0.199	0.079
-625.449	-50.969	0.271	-0.128
-624.434	-4.597	-0.167	0.116
-623.419	213.749	-0.093	-0.148
-622.405	-126.605	-0.071	-0.011
-621.390	287.525	0.132	-0.239
-620.376	5.391	0.156	-0.115
-619.361	-71.040	-0.357	-0.135
-618.346	-200.000	-0.049	0.255
-617.332	-200.000	0.032	0.214
-616.317	-65.539	0.428	0.173
-615.303	4.276	-0.076	-0.056
-614.288	800.000	-0.045	-0.165
-613.273	800.000	-0.005	-0.021
-612.259	-111.355	-0.323	-0.066
-611.244	136.184	-0.184	0.241
-610.230	34.413	0.219	-0.192
-609.215	800.000	0.080	-0.262
-608.201	-178.459	-0.184	-0.004
-607.186	800.000	-0.037	0.149
-606.171	538.655	-0.072	-0.171
-605.157	-200.000	-0.028	0.157
-604.142	-86.785	0.183	-0.056
-603.128	297.639	-0.199	-0.367
-602.113	-200.000	-0.012	-0.106
-601.098	-200.000	0.012	-0.113
-600.084	-41.133	-0.120	-0.062
-599.069	-97.519	0.306	0.080
-598.055	15.165	-0.244	-0.192
-597.040	4.487	-0.160	-0.118
-596.025	244.367	-0.022	0.037
-595.011	72.833	0.099	0.104
-593.996	-7.562	0.275	0.187
-592.982	95.525	0.327	0.374
-591.967	-200.000	-0.004	-0.087
-590.952	-131.128	0.493	-0.066
-589.938	800.000	0.079	0.321
-588.923	-32.367	-0.109	-0.061
-587.909	-200.000	-0.033	0.196
-586.894	-118.885	0.283	0.050
-585.879	-49.572	0.175	-0.084
-584.865	617.560	-0.156	-0.392
-583.850	800.000	0.032	0.119
-582.836	-200.000	-0.555	0.002
-581.821	-148.519	0.340	0.028
-580.806	39.550	-0.165	-0.148
-579.792	-139.150	0.045	-0.005
-578.777	-200.000	0.013	0.388
-577.763	-56.223	-0.152	-0.068
-576.748	-134.348	-0.324	-0.040
-575.733	-200.000	0.014	0.245
-574.719	579.299	-0.135	-0.331
-573.704	-103.492	-0.308	-0.073
-572.690	117.175	0.086	0.105
-571.675	174.611	0.086	0.125
-570.661	-117.319	0.195	-0.035
-569.646	17.159	-0.210	0.167
-568.631	-71.231	0.225	-0.085
-567.617	-200.000	-0.009	-0.146
-566.602	-79.575	0.322	-0.109
-565.588	135.700	-0.215	0.281
-564.573	-112.736	-0.158	0.031
-563.558	-200.000	-0.061	-0.276
-562.544	-57.249	-0.018	0.008
-561.529	-95.946	-0.180	0.048
-560.515	800.000	-0.044	0.152
-559.500	-200.000	0.003	0.196
-558.485	-200.000	0.002	0.071
-557.471	28.239	0.124	0.105
-556.456	-46.929	-0.318	-0.156
-555.442	33.110	0.195	0.169
-554.427	501.393	0.140	0.324
-553.412	-168.623	-0.397	-0.015
-552.398	-5.350	0.151	-0.104
-551.383	-200.000	-0.293	0.001
-550.369	800.000	0.103	0.385
-549.354	-200.000	-0.010	-0.116
-548.339	800.000	-0.077	-0.309
-547.325	-200.000	-0.010	-0.350
-546.310	-200.000	0.005	0.091
-545.296	-28.442	-0.091	0.053
-544.281	-43.997	0.260	0.131
-543.266	-73.818	0.253	-0.092
-542.252	41.799	0.385	-0.350
-541.237	-200.000	-0.016	-0.282
-540.223	-173.980	-0.171	-0.005
-539.208	-118.955	0.144	0.025
-538.193	-200.000	0.036	0.196
-537.179	-151.947	0.170	0.012
-536.164	-132.602	-0.183	0.024
-535.150	-200.000	0.012	0.429
-534.135	800.000	0.048	-0.144
-533.121	127.291	0.065	0.083
-532.106	-45.913	-0.201	-0.099
-531.091	-100.728	0.143	0.035
-530.077	16.247	0.126	0.100
-529.062	-128.863	-0.371	0.052
-528.048	74.978	0.128	0.135
-527.033	-178.040	0.249	-0.006
-526.018	228.161	-0.150	0.245
-525.004	139.989	-0.333	0.439
-523.989	-200.000	-0.032	-0.156
-522.975	-200.000	0.034	0.280
-521.960	-46.173	0.352	-0.173
-520.945	-48.142	-0.224	0.108
-519.931	-200.000	-0.016	0.183
-518.916	209.620	0.324	-0.508
-517.902	43.985	0.139	-0.128
-516.887	332.240	0.074	-0.143
-515.872	-58.176	-0.049	-0.021
-514.858	-200.000	0.113	0.000
-513.843	456.725	-0.226	0.501
-512.829	97.796	-0.131	-0.150
-511.814	-57.110	0.163	-0.072
-510.799	-63.675	-0.020	-0.008
-509.785	800.000	-0.023	-0.079
-508.770	1.899	-0.133	0.096
-507.756	612.141	-0.081	0.204
-506.741	-13.856	-0.226	-0.146
-505.726	294.747	0.022	-0.041
-504.712	-89.812	-0.231	-0.068
-503.697	301.025	-0.090	-0.166
-502.683	503.695	-0.058	-0.135
-501.668	48.098	0.093	0.087
-500.653	-78.337	0.296	0.102
-499.639	800.000	0.037	0.106
-498.624	-200.000	-0.030	0.258
-497.610	-200.000	0.043	0.264
-496.595	-117.284	0.192	-0.035
-495.581	463.072	0.119	0.265
-494.566	-200.000	-0.018	0.099
-493.551	-23.549	0.372	-0.223
-492.537	-81.358	0.535	0.176
-491.522	-123.247	0.380	0.061
-490.508	-62.617	0.298	-0.124
-489.493	-111.984	0.374	0.075
-488.478	-131.447	-0.128	-0.017
-487.464	800.000	0.120	-0.384
-486.449	-114.019	0.172	-0.033
-485.435	-78.890	-0.091	-0.031
-484.420	-200.000	-0.052	0.234
-483.405	-61.479	0.269	0.113
-482.391	-200.000	0.057	-0.464
-481.376	76.914	0.107	-0.114
-480.362	-66.942	-0.116	0.046
-479.347	-32.805	0.163	-0.091
-478.332	-187.650	0.191	-0.003
-477.318	-0.885	0.374	-0.265
-476.303	-71.653	-0.133	0.050
-475.289	230.226	0.071	0.115
-474.274	-200.000	-0.016	-0.203
-473.259	-27.084	0.287	-0.167
-472.245	9.085	-0.148	-0.112
-471.230	-83.146	-0.090	-0.029
-470.216	-89.614	-0.315	-0.092
-469.201	-130.222	0.048	-0.007
-468.186	-27.045	-0.234	-0.136
-467.172	-74.765	-0.066	-0.024
-466.157	-42.380	-0.252	0.129
-465.143	387.243	0.028	-0.058
-464.128	-149.045	0.281	-0.023
-463.113	-182.959	0.083	-0.001
-462.099	404.364	0.118	0.247
-461.084	265.290	0.161	-0.279
-460.070	-31.702	-0.146	0.082
-459.055	-69.134	0.154	0.059
-458.040	448.126	0.096	-0.212
-457.026	180.509	-0.171	0.250
-456.011	653.098	-0.058	0.148
-454.997	800.000	0.046	-0.129
-453.982	-200.000	-0.079	-0.377
-452.968	66.880	-0.199	-0.202
-451.953	-200.000	0.041	-0.334
-450.938	-200.000	-0.036	-0.282
-449.924	455.996	-0.096	0.212
-448.909	-54.297	0.172	-0.078
-447.895	495.968	0.118	0.271
-446.880	244.920	0.149	-0.249
-445.865	224.464	0.091	-0.146
-444.851	-59.983	0.083	0.036
-443.836	-123.617	-0.140	-0.022
-442.822	-200.000	0.001	0.312
-441.807	275.408	0.099	-0.175
-440.792	37.737	0.153	-0.136
-439.778	-12.388	0.234	-0.153
-438.763	-8.397	0.218	-0.146
-437.749	165.289	0.124	0.175
-436.734	-179.665	-0.281	0.006
-435.719	663.181	0.155	0.398
-434.705	237.587	-0.046	0.075
-433.690	-41.961	-0.167	0.085
-432.676	410.705	0.018	0.039
-431.661	439.779	0.129	0.280
-430.646	-109.990	0.159	0.033
-429.632	42.722	0.199	-0.181
-428.617	-200.000	0.003	-0.064
-427.603	89.570	-0.231	-0.258
-426.588	-36.606	-0.137	-0.074
-425.573	-72.922	0.236	0.087
-424.559	800.000	0.085	-0.289
-423.544	-171.268	0.265	-0.009
-422.530	-200.000	-0.007	0.111
-421.515	1.590	-0.093	0.067
-420.500	-28.009	-0.070	0.040
-419.486	101.327	0.036	0.042
-418.471	-9.270	-0.118	0.079
-417.457	-200.000	0.043	-0.403
-416.442	-127.114	-0.418	-0.061
-415.428	-200.000	-0.008	-0.261
-414.413	-57.027	0.045	-0.020
-413.398	-164.485	-0.229	0.010
-412.384	174.033	-0.097	-0.140
-411.369	172.271	-0.038	0.055
-410.355	-200.000	-0.056	-0.490
-409.340	542.760	-0.124	-0.295
-408.325	-117.315	0.137	-0.025
-407.311	123.037	-0.215	-0.268
-406.296	184.423	0.141	-0.207
-405.282	800.000	0.064	0.219
-404.267	-93.908	0.032	0.009
-403.252	800.000	-0.009	0.033
-402.238	87.084	-0.109	-0.120
-401.223	-0.126	0.034	0.024
-400.209	-11.688	-0.163	0.107
-399.194	136.307	0.226	-0.293
-398.179	-186.842	-0.181	0.003
-397.165	417.021	-0.094	-0.200
-396.150	237.539	0.063	-0.105
-395.136	-58.062	0.114	-0.049
-394.121	-200.000	0.028	-0.263
-393.106	-53.911	-0.342	-0.155
-392.092	-97.875	-0.088	-0.023
-391.077	47.946	-0.071	-0.066
-390.063	-116.172	0.175	0.032
-389.048	-77.347	0.142	-0.049
-388.033	-174.517	-0.062	0.002
-387.019	-72.318	-0.104	-0.038
-386.004	23.703	-0.077	-0.063
-384.990	-97.736	-0.214	-0.055
-383.975	41.092	0.110	-0.099
-382.960	97.979	-0.133	-0.152
-381.946	-200.000	-0.010	-0.044
-380.931	-200.000	-0.023	0.119
-379.917	264.436	0.118	-0.204
-378.902	-133.710	-0.081	-0.010
-377.888	144.166	0.087	0.116
-376.873	-200.000	0.009	0.121
-375.858	68.330	-0.075	-0.077
-374.844	427.548	-0.157	-0.337
-373.829	-200.000	0.000	-0.032
-372.815	800.000	0.084	-0.256
-371.800	-200.000	0.039	0.392
-370.785	26.842	0.184	0.154
-369.771	283.442	-0.075	-0.134
-368.756	-146.643	-0.249	-0.021
-367.742	-88.207	-0.212	0.063
-366.727	66.159	-0.175	0.176
-365.712	-41.040	-0.164	0.085
-364.698	800.000	0.063	-0.197
-363.683	800.000	-0.079	-0.238
-362.669	112.247	-0.014	0.016
-361.654	-31.141	0.214	-0.120
-360.639	-200.000	-0.036	0.286
-359.625	-175.776	-0.205	0.005
-358.610	-77.388	-0.124	-0.043
-357.596	-99.628	-0.302	0.075
-356.581	-82.535	-0.112	0.036
-355.566	800.000	0.055	-0.156
-354.552	-79.796	-0.168	-0.056
-353.537	-128.120	0.179	-0.026
-352.523	800.000	0.039	-0.109
-351.508	-65.267	-0.253	-0.101
-350.493	-79.355	-0.177	0.060
-349.479	-44.591	-0.047	-0.023
-348.464	-116.875	0.147	-0.027
-347.450	131.440	-0.104	0.133
-346.435	800.000	0.099	0.335
-345.420	58.156	0.085	0.083
-344.406	-2.050	-0.284	0.199
-343.391	137.920	-0.216	0.281
-342.377	-200.000	0.051	-0.247
-341.362	249.691	0.208	-0.350
-340.348	-200.000	-0.027	-0.122
-339.333	79.565	-0.263	0.281
-338.318	22.936	-0.135	0.110
-337.304	7.528	0.230	-0.171
-336.289	225.280	0.272	-0.437
-335.275	-187.881	-0.344	-0.004
-334.260	-119.400	0.179	-0.031
-333.245	391.053	0.115	0.237
-332.231	-15.489	0.229	-0.145
-331.216	-200.000	-0.025	-0.188
-330.202	31.092	0.180	-0.153
-329.187	130.887	-0.289	0.369
-328.172	88.917	-0.157	-0.173
-327.158	-65.706	-0.652	-0.259
-326.143	83.243	-0.054	-0.058
-325.129	311.924	-0.123	0.229
-324.114	228.825	-0.102	-0.165
-323.099	-200.000	0.037	-0.172
-322.085	311.318	0.040	0.074
-321.070	-114.232	0.540	0.103
-320.056	-116.433	0.276	-0.051
-319.041	-22.328	0.305	0.183
-318.026	-22.864	0.086	-0.052
-317.012	800.000	0.040	-0.132
-315.997	800.000	-0.075	0.219
-314.983	367.146	-0.104	-0.208
-313.968	-186.419	0.146	0.002
-312.953	-200.000	0.001	0.311
-311.939	-65.687	-0.135	-0.054
-310.924	-68.422	-0.085	-0.033
-309.910	358.163	-0.056	0.111
-308.895	329.178	0.109	0.209
-307.880	-200.000	0.014	0.144
-306.866	-5.205	-0.165	0.113
-305.851	658.943	0.030	0.076
-304.837	404.097	-0.102	0.213
-303.822	-200.000	-0.007	0.127
-302.807	-108.640	0.218	-0.046
-301.793	-121.646	-0.382	-0.063
-300.778	653.451	0.117	-0.297
-299.764	800.000	-0.183	0.534
-298.749	-157.650	0.471	0.028
-297.735	-200.000	0.000	0.001
-296.720	-149.642	-0.161	-0.013
-295.705	190.895	-0.151	0.225
-294.691	800.000	0.048	-0.162
-293.676	538.534	-0.129	0.305
-292.662	-33.892	-0.553	0.302
-291.647	134.892	-0.159	0.205
-290.632	-200.000	-0.047	-0.241
-289.618	-16.017	0.105	-0.066
-288.603	-18.471	-0.163	0.101
-287.589	72.033	0.113	0.117
-286.574	6.709	-0.290	-0.214
-285.559	344.820	-0.133	-0.259
-284.545	-98.001	0.200	-0.051
-283.530	-150.094	-0.177	0.014
-282.516	-71.362	-0.119	0.044
-281.501	98.038	0.076	-0.087
-280.486	-21.637	0.038	0.023
-279.472	218.575	0.076	-0.120
-278.457	-76.591	0.102	-0.036
-277.443	46.044	0.136	-0.125
-276.428	135.060	0.063	0.081
-275.413	267.862	-0.068	-0.119
-274.399	235.180	-0.103	0.169
-273.384	-154.005	-0.009	0.001
-272.370	-200.000	0.013	0.204
-271.355	519.221	0.078	-0.181
-270.340	-159.165	0.016	0.001
-269.326	-40.759	0.081	0.042
-268.311	-200.000	-0.040	0.399
-267.297	-138.880	-0.127	0.014
-266.282	-98.325	-0.464	-0.118
-265.267	-70.827	0.287	-0.107
-264.253	800.000	-0.028	-0.088
-263.238	-50.247	0.289	-0.136
-262.224	-200.000	0.005	-0.091
-261.209	-122.031	0.387	0.063
-260.195	174.665	0.172	0.246
-259.180	-64.580	-0.074	0.030
-258.165	-99.965	-0.230	-0.057
-257.151	-83.143	0.301	0.096
-256.136	210.340	0.050	-0.078
-255.122	-200.000	0.039	-0.232
-254.107	-200.000	0.035	0.207
-253.092	-28.875	0.138	0.078
-252.078	201.576	0.235	0.358
-251.063	-200.000	0.031	-0.165
-250.049	-100.044	-0.238	0.059
-249.034	-58.036	-0.174	0.075
-248.019	-38.245	0.213	-0.112
-247.005	65.221	-0.078	0.078
-245.990	56.398	0.331	0.319
-244.976	55.521	0.134	0.129
-243.961	-14.966	-0.270	0.171
-242.946	465.611	0.087	0.192
-241.932	260.035	0.092	-0.158
-240.917	47.094	-0.363	0.335
-239.903	-93.639	0.169	-0.046
-238.888	185.364	-0.081	0.119
-237.873	3.759	-0.244	0.177
-236.859	-79.374	0.226	0.076
-235.844	-133.120	-0.163	-0.020
-234.830	129.318	-0.234	0.295
-233.815	-158.496	0.132	0.008
-232.800	-200.000	-0.003	-0.119
-231.786	369.784	0.233	0.468
-230.771	260.039	-0.056	0.096
-229.757	317.420	0.126	0.237
-228.742	-101.713	-0.371	0.089
-227.727	67.752	0.411	0.416
-226.713	100.475	0.105	-0.121
-225.698	-200.000	-0.043	0.255
-224.684	-7.582	-0.104	-0.069
-223.669	-200.000	0.036	0.427
-222.655	-133.916	0.489	-0.060
-221.640	191.263	-0.122	0.182
-220.625	-200.000	0.011	0.253
-219.611	-200.000	0.026	0.387
-218.596	800.000	-0.111	0.398
-217.582	-200.000	0.012	-0.262
-216.567	399.758	0.069	-0.143
-215.552	-103.364	-0.090	0.021
-214.538	355.840	-0.137	0.269
-213.523	-88.778	0.186	0.055
-212.509	-60.511	0.202	0.085
-211.494	-101.297	-0.090	-0.022
-210.479	-71.830	-0.054	-0.020
-209.465	-148.872	-0.104	-0.008
-208.450	-200.000	-0.023	-0.113
-207.436	-105.122	0.321	-0.073
-206.421	184.000	-0.071	-0.104
-205.406	-52.142	-0.092	0.042
-204.392	-24.956	0.438	-0.257
-203.377	-200.000	0.027	-0.162
-202.363	800.000	-0.026	-0.099
-201.348	-38.732	0.294	-0.153
-200.333	-200.000	-0.023	0.177
-199.319	324.537	-0.117	0.220
-198.304	-121.989	-0.057	-0.009
-197.290	-55.472	-0.186	0.083
-196.275	-200.000	-0.005	0.223
-195.260	138.610	-0.108	-0.140
-194.246	800.000	-0.073	-0.288
-193.231	-18.986	0.267	-0.164
-192.217	800.000	0.116	-0.338
-191.202	-128.594	-0.232	0.032
-190.187	800.000	-0.049	0.139
-189.173	111.447	-0.219	0.261
-188.158	-115.447	-0.563	-0.105
-187.144	-49.785	0.181	0.085
-186.129	-161.296	0.234	-0.012
-185.114	-200.000	-0.006	-0.234
-184.100	727.965	0.039	-0.104
-183.085	-59.804	-0.251	0.106
-182.071	352.701	0.075	0.146
-181.056	-197.519	-0.290	0.002
-180.042	-9.694	-0.164	-0.108
-179.027	-200.000	-0.011	0.253
-178.012	-122.442	0.333	0.054
-176.998	-200.000	0.033	0.150
-175.983	800.000	-0.111	0.327
-174.969	-20.715	0.279	-0.169
-173.954	477.093	-0.046	-0.102
-172.939	-165.742	-0.184	-0.008
-171.925	-200.000	-0.011	0.117
-170.910	194.976	-0.012	-0.017
-169.896	-15.792	-0.212	0.134
-168.881	-200.000	-0.274	0.000
-167.866	-15.766	0.244	0.154
-166.852	800.000	-0.117	-0.356
-165.837	-200.000	-0.044	-0.272
-164.823	88.931	0.006	-0.007
-163.808	-158.123	0.103	0.006
-162.793	-46.908	-0.189	-0.091
-161.779	-200.000	0.017	0.112
-160.764	27.151	-0.218	0.180
-159.750	-200.000	-0.030	-0.274
-158.735	439.421	0.029	0.062
-157.720	-200.000	0.017	0.149
-156.706	219.267	-0.301	-0.474
-155.691	-200.000	-0.009	-0.200
-154.677	130.034	-0.138	-0.174
-153.662	-134.384	0.187	-0.023
-152.647	-200.000	0.041	-0.216
-151.633	170.533	-0.068	0.096
-150.618	407.257	0.099	-0.206
-149.604	-44.636	0.209	-0.103
-148.589	424.805	0.053	0.113
-147.574	-170.499	-0.181	-0.006
-146.560	113.935	0.128	0.154
-145.545	215.413	0.159	0.249
-144.531	-115.036	-0.207	0.039
-143.516	-200.000	-0.011	0.169
-142.502	-182.641	-0.198	0.004
-141.487	-143.792	0.351	0.033
-140.472	-0.109	-0.170	0.119
-139.458	308.766	-0.121	-0.222
-138.443	422.007	-0.121	-0.257
-137.429	32.019	-0.260	-0.221
-136.414	470.653	0.028	0.062
-135.399	286.935	-0.100	0.178
-134.385	-146.491	0.509	-0.044
-133.370	-51.795	-0.059	-0.027
-132.356	516.505	-0.125	-0.289
-131.341	800.000	-0.018	-0.052
-130.326	-24.231	0.098	-0.057
-129.312	-104.859	-0.088	0.020
-128.297	84.431	-0.270	0.291
-127.283	-66.813	-0.119	-0.047
-126.268	-21.233	0.212	-0.128
-125.253	481.643	0.137	-0.307
-124.239	227.173	0.075	0.120
-123.224	-15.130	-0.254	0.161
-122.210	-113.777	0.263	0.050
-121.195	370.487	0.147	0.293
-120.180	392.489	0.022	0.045
-119.166	-24.646	0.052	0.031
-118.151	139.492	-0.205	-0.266
-117.137	19.905	0.281	-0.223
-116.122	61.035	-0.220	-0.216
-115.107	800.000	0.056	-0.189
-114.093	800.000	0.109	-0.315
-113.078	-62.233	-0.263	-0.108
-112.064	-27.216	-0.174	0.100
-111.049	15.581	0.292	0.226
-110.034	-103.355	-0.181	-0.042
-109.020	-68.835	0.109	0.041
-108.005	-11.475	0.198	0.128
-106.991	-4.820	-0.291	-0.197
-105.976	782.740	0.075	0.203
-104.962	-23.108	-0.052	0.031
-103.947	-127.309	0.119	-0.017
-102.932	-65.101	-0.234	0.093
-101.918	229.771	0.129	-0.207
-100.903	800.000	-0.120	-0.435
-99.889	35.343	0.122	0.105
-98.874	-200.000	-0.076	0.419
-97.859	-200.000	-0.016	0.325
-96.845	-60.997	0.138	-0.057
-95.830	-129.459	-0.315	0.043
-94.816	-200.000	-0.011	-0.116
-93.801	-200.000	0.026	-0.138
-92.786	86.540	0.194	0.210
-91.772	-200.000	0.010	-0.268
-90.757	684.171	-0.167	-0.428
-89.743	-70.823	0.248	0.092
-88.728	800.000	0.028	0.116
-87.713	650.842	-0.159	-0.399
-86.699	-151.738	-0.160	-0.012
-85.684	-200.000	0.032	0.353
-84.670	-200.000	-0.064	0.362
-83.655	-200.000	0.008	-0.044
-82.640	705.304	0.105	0.274
-81.626	-75.696	0.056	0.020
-80.611	-40.240	-0.258	0.132
-79.597	800.000	-0.066	0.284
-78.582	105.003	-0.083	0.096
-77.567	153.409	-0.095	0.128
-76.553	-5.702	-0.183	-0.123
-75.538	800.000	-0.028	0.095
-74.524	215.522	-0.083	0.130
-73.509	800.000	-0.090	-0.350
-72.494	364.494	0.182	0.359
-71.480	800.000	0.178	-0.502
-70.465	11.304	-0.149	-0.112
-69.451	-151.555	-0.114	0.008
-68.436	16.269	0.217	-0.168
-67.422	-200.000	-0.018	-0.110
-66.407	800.000	0.015	0.052
-65.392	570.609	0.093	0.223
-64.378	0.747	-0.085	-0.060
-63.363	14.039	0.215	-0.164
-62.349	-200.000	-0.048	0.430
-61.334	158.430	-0.875	-1.193
-60.319	206.325	0.626	0.958
-59.305	119.562	-0.581	-0.707
-58.290	220.295	0.636	1.002
-57.276	676.195	0.514	1.312
-56.261	-200.000	115.560	644.656
-55.246	499.616	1532.409	3471.899
-54.232	173.400	2711.305	3842.624
-53.217	96.064	2321.272	2606.591
-52.203	33.060	2066.506	1759.827
-51.188	28.447	1981.695	1646.223
-50.173	27.127	1964.749	1620.314
-49.159	43.527	2025.789	1819.862
-48.144	42.597	2040.547	1824.599
-47.130	28.790	1998.969	1663.409
-46.115	26.697	1988.077	1635.412
-45.100	26.631	1985.310	1632.479
-44.086	26.577	1983.098	1630.107
-43.071	26.468	1980.610	1627.015
-42.057	26.444	1978.348	1624.878
-41.042	26.499	1976.555	1623.841
-40.027	26.464	1974.931	1622.128
-39.013	26.590	1972.573	1621.248
-37.998	26.529	1971.607	1619.850
-36.984	26.606	1969.281	1618.565
-35.969	26.569	1967.318	1616.556
-34.954	26.500	1965.537	1614.414
-33.940	26.511	1964.477	1613.575
-32.925	26.577	1962.457	1612.437
-31.911	26.690	1960.754	1611.976
-30.896	26.611	1959.435	1610.126
-29.881	26.618	1958.198	1609.109
-28.867	26.656	1956.001	1607.582
-27.852	26.726	1954.240	1606.684
-26.838	26.676	1952.492	1604.746
-25.823	26.669	1950.606	1603.070
-24.809	26.691	1948.696	1601.631
-23.794	26.637	1947.167	1599.836
-22.779	26.653	1945.022	1598.146
-21.765	26.757	1943.363	1597.636
-20.750	26.659	1942.707	1596.175
-19.736	26.641	1940.659	1594.269
-18.721	26.734	1938.478	1593.230
-17.706	26.655	1937.271	1591.480
-16.692	26.606	1935.675	1589.676
-15.677	26.663	1934.180	1588.885
-14.663	26.606	1932.975	1587.330
-13.648	26.671	1931.691	1586.789
-12.633	26.548	1930.558	1584.719
-11.619	26.644	1928.784	1584.039
-10.604	26.612	1927.674	1582.778
-9.590	26.636	1926.458	1581.931
-8.575	26.655	1924.589	1580.500
-7.560	26.616	1923.744	1579.398
-6.546	26.647	1922.144	1578.297
-5.531	26.632	1921.337	1577.438
-4.517	26.732	1920.024	1577.173
-3.502	26.599	1918.774	1574.925
-2.487	26.585	1918.017	1574.120
-1.473	26.628	1916.938	1573.544
-0.458	26.641	1911.896	1569.454
0.556	27.396	1891.853	1541.055
1.571	23.011	1873.412	1489.045
2.586	19.107	1896.477	1473.884
3.600	18.194	1931.742	1493.188
4.615	17.759	1924.171	1483.424
5.629	13.438	1824.020	1370.389
6.644	6.535	1711.458	1231.918
7.659	3.363	1679.340	1184.344
8.673	3.159	1676.052	1180.357
9.688	3.109	1674.632	1178.865
10.702	3.188	1673.242	1178.385
11.717	3.274	1669.500	1176.309
12.731	3.598	1668.749	1178.143
13.746	8.390	1679.681	1222.507
14.761	16.151	1697.003	1294.801
15.775	20.102	1703.745	1330.216
16.790	20.365	1703.243	1331.726
17.804	19.453	1700.116	1322.174
18.819	18.545	1696.699	1312.455
19.834	17.888	1694.648	1305.727
20.848	17.678	1693.204	1302.895
21.863	17.547	1692.014	1300.866
22.877	17.338	1690.549	1298.030
23.892	17.124	1689.360	1295.367
24.907	17.045	1688.274	1293.815
25.921	17.008	1687.916	1293.149
26.936	17.020	1686.283	1291.876
27.950	17.012	1685.164	1290.844
28.965	17.141	1684.607	1291.278
29.980	17.241	1683.639	1291.184
30.994	17.287	1682.803	1290.775
32.009	17.400	1681.761	1290.722
33.023	17.452	1680.959	1290.389
34.038	17.479	1680.109	1289.827
35.053	17.357	1679.060	1287.980
36.067	17.287	1677.749	1286.335
37.082	17.306	1675.831	1284.889
38.096	17.306	1675.000	1284.139
39.111	17.325	1674.459	1283.751
40.126	17.347	1674.275	1283.664
41.140	17.351	1673.319	1282.851
42.155	17.211	1670.932	1279.850
43.169	16.968	1669.433	1276.762
44.184	16.922	1668.458	1275.555
45.199	16.900	1666.950	1274.124
46.213	16.907	1666.171	1273.468
47.228	16.863	1664.997	1272.133
48.242	17.072	1663.500	1272.443
49.257	17.180	1662.932	1272.705
50.271	17.262	1661.597	1272.182
51.286	17.198	1660.451	1270.714
52.301	17.227	1659.102	1269.786
53.315	17.219	1657.827	1268.635
54.330	17.160	1656.406	1266.999
55.344	17.081	1654.964	1265.196
56.359	16.998	1653.094	1263.031
57.374	16.958	1651.817	1261.648
58.388	17.039	1651.541	1261.927
59.403	16.884	1650.012	1259.496
60.417	16.852	1648.061	1257.660
61.432	16.863	1647.096	1256.896
62.447	16.871	1645.775	1255.833
63.461	16.797	1644.486	1254.189
64.476	16.664	1643.505	1252.347
65.490	16.688	1641.715	1251.049
66.505	16.690	1641.353	1250.678
67.520	16.650	1640.307	1249.475
68.534	16.811	1639.003	1249.559
69.549	16.793	1638.149	1248.668
70.563	16.739	1636.731	1247.076
71.578	16.730	1635.645	1246.072
72.593	16.771	1634.081	1245.073
73.607	16.591	1633.468	1243.173
74.622	16.640	1632.041	1242.339
75.636	16.522	1631.615	1241.040
76.651	16.684	1630.050	1240.922
77.666	16.600	1629.779	1239.992
78.680	16.636	1629.228	1239.726
79.695	16.672	1628.113	1239.032
80.709	16.753	1627.225	1238.835
81.724	16.826	1626.400	1238.634
82.739	16.781	1625.944	1237.848
83.753	16.913	1625.132	1238.085
84.768	17.045	1623.991	1238.070
85.782	17.149	1623.605	1238.427
86.797	17.243	1623.087	1238.604
87.812	17.341	1621.832	1238.250
88.826	17.283	1620.306	1236.554
89.841	17.128	1619.502	1234.704
90.855	17.241	1618.334	1234.525
91.870	17.232	1617.382	1233.628
92.884	17.253	1616.597	1233.070
93.899	17.331	1615.180	1232.445
94.914	17.331	1614.136	1231.536
95.928	17.438	1612.730	1231.130
96.943	17.327	1612.216	1229.830
97.957	17.385	1610.119	1228.539
98.972	17.260	1608.934	1226.623
99.987	17.284	1607.271	1225.418
101.001	17.202	1605.872	1223.651
102.016	17.261	1604.162	1222.666
103.030	17.327	1602.955	1222.112
104.045	17.217	1602.222	1220.654
105.060	17.288	1600.235	1219.542
106.074	17.254	1598.870	1218.154
107.089	17.085	1597.105	1215.490
108.103	16.808	1595.593	1212.251
109.118	16.753	1594.296	1210.766
110.133	16.715	1592.492	1209.015
111.147	16.696	1591.268	1207.844
112.162	16.796	1589.728	1207.283
113.176	16.815	1588.243	1206.185
114.191	16.947	1586.782	1205.902
115.206	16.907	1585.808	1204.772
116.220	16.903	1584.752	1203.837
117.235	16.879	1583.163	1202.351
118.249	16.905	1582.089	1201.616
119.264	16.836	1580.636	1199.915
120.279	16.809	1579.225	1198.546
121.293	16.851	1577.454	1197.395
122.308	16.799	1576.039	1195.844
123.322	16.634	1574.690	1193.557
124.337	16.597	1573.260	1192.107
125.352	16.608	1571.613	1190.827
126.366	16.555	1570.933	1189.835
127.381	16.542	1569.833	1188.802
128.395	16.605	1568.486	1188.122
129.410	16.698	1567.211	1187.702
130.424	16.695	1565.603	1186.357
131.439	16.708	1564.608	1185.594
132.454	16.821	1563.426	1185.380
133.468	16.825	1562.169	1184.351
134.483	16.878	1560.309	1183.203
135.497	16.904	1559.267	1182.495
136.512	16.984	1557.927	1181.932
137.527	16.901	1556.965	1180.519
138.541	17.010	1555.526	1180.083
139.556	16.954	1553.654	1178.168
140.570	16.927	1552.963	1177.347
141.585	17.034	1551.621	1176.968
142.600	17.162	1550.646	1177.013
143.614	17.207	1549.548	1176.388
144.629	17.391	1548.081	1176.446
145.643	17.328	1546.916	1175.016
146.658	17.436	1545.719	1174.752
147.673	17.270	1544.076	1172.251
148.687	17.224	1542.645	1170.747
149.702	17.208	1540.691	1169.052
150.716	17.047	1539.300	1166.787
151.731	16.999	1537.646	1165.100
152.746	17.020	1536.566	1164.321
153.760	16.950	1535.344	1162.808
154.775	17.071	1534.223	1162.689
155.789	17.196	1532.748	1162.324
156.804	17.165	1532.089	1161.505
157.819	17.281	1530.511	1161.001
158.833	17.324	1529.169	1160.174
159.848	17.302	1528.455	1159.378
160.862	17.444	1527.170	1159.272
161.877	17.539	1525.579	1158.607
162.892	17.468	1524.520	1157.214
163.906	17.134	1522.791	1153.531
164.921	17.072	1521.379	1151.940
165.935	17.012	1520.668	1150.894
166.950	17.171	1519.221	1150.774
167.964	17.157	1518.720	1150.199
168.979	17.249	1517.367	1149.695
169.994	17.235	1516.556	1148.882
171.008	17.124	1514.900	1146.776
172.023	17.199	1514.034	1146.525
173.037	17.302	1512.939	1146.293
174.052	17.431	1511.993	1146.339
175.067	17.382	1510.723	1144.949
176.081	17.331	1509.641	1143.684
177.096	17.170	1508.251	1141.445
178.110	17.037	1507.407	1139.817
179.125	17.112	1505.905	1139.078
180.140	17.228	1504.816	1138.931
181.154	17.130	1504.236	1137.739
182.169	17.287	1503.107	1137.832
183.183	17.406	1501.873	1137.594
184.198	17.486	1500.921	1137.304
185.213	17.477	1500.046	1136.485
186.227	17.548	1498.443	1135.640
187.242	17.514	1497.713	1134.760
188.256	17.561	1496.448	1134.013
189.271	17.579	1495.678	1133.450
190.286	17.657	1495.219	1133.521
191.300	17.552	1493.956	1131.765
192.315	17.302	1492.038	1128.553
193.329	17.096	1490.817	1126.167
194.344	17.010	1489.402	1124.429
195.359	17.082	1488.803	1124.350
196.373	17.247	1487.390	1124.278
197.388	17.321	1486.358	1123.883
198.402	17.493	1485.185	1124.033
199.417	17.625	1484.461	1124.258
200.432	17.577	1484.354	1123.759
201.446	17.792	1482.889	1123.972
202.461	17.826	1482.431	1123.747
203.475	17.878	1481.147	1123.014
204.490	17.990	1480.034	1122.809
205.504	17.920	1478.698	1121.237
206.519	17.861	1477.467	1119.820
207.534	17.651	1476.650	1117.721
208.548	17.620	1475.296	1116.393
209.563	17.541	1474.815	1115.414
210.577	17.557	1473.523	1114.445
211.592	17.636	1472.527	1114.107
212.607	17.687	1471.840	1113.821
213.621	17.897	1471.120	1114.549
214.636	17.893	1470.383	1113.866
215.650	17.809	1469.276	1112.380
216.665	17.791	1468.776	1111.791
217.680	17.845	1467.545	1111.109
218.694	17.933	1467.043	1111.207
219.709	18.068	1466.459	1111.544
220.723	18.045	1465.176	1110.319
221.738	18.039	1463.947	1109.253
222.753	17.982	1463.318	1108.307
223.767	17.937	1462.315	1107.161
224.782	17.887	1461.718	1106.282
225.796	18.009	1460.433	1106.004
226.811	18.109	1459.767	1106.046
227.826	18.202	1459.024	1105.987
228.840	18.190	1458.069	1105.088
229.855	18.030	1456.744	1102.958
230.869	17.907	1456.009	1101.511
231.884	17.929	1454.738	1100.594
232.899	17.908	1453.958	1099.767
233.913	17.889	1452.236	1098.248
234.928	17.880	1450.642	1096.888
235.942	17.788	1449.726	1095.506
236.957	17.856	1448.493	1094.915
237.972	17.743	1447.295	1093.185
238.986	17.825	1446.617	1093.102
240.001	17.837	1445.545	1092.271
241.015	17.738	1445.058	1091.178
242.030	17.854	1443.321	1090.506
243.045	17.944	1442.206	1090.140
244.059	17.990	1441.981	1090.173
245.074	18.003	1441.001	1089.415
246.088	18.007	1440.121	1088.678
247.103	18.049	1439.821	1088.625
248.117	18.191	1438.621	1088.523
249.132	18.297	1437.804	1088.482
250.147	18.366	1437.546	1088.629
251.161	18.477	1437.175	1088.961
252.176	18.636	1436.762	1089.559
253.190	18.720	1435.869	1089.317
254.205	18.748	1434.864	1088.638
255.220	18.766	1434.215	1088.165
256.234	18.850	1432.953	1087.641
257.249	18.788	1432.229	1086.604
258.263	18.727	1431.976	1085.928
259.278	18.824	1430.583	1085.388
260.293	18.810	1429.188	1084.146
261.307	18.777	1428.793	1083.542
262.322	18.869	1428.155	1083.543
263.336	18.849	1427.301	1082.675
264.351	18.901	1426.161	1082.042
265.366	18.951	1425.277	1081.586
266.380	19.032	1424.605	1081.492
267.395	19.004	1423.362	1080.278
268.409	19.016	1422.377	1079.510
269.424	18.897	1421.515	1078.015
270.439	18.714	1420.584	1076.065
271.453	18.801	1419.510	1075.702
272.468	18.749	1418.356	1074.406
273.482	18.782	1417.919	1074.185
274.497	18.734	1416.722	1072.886
275.512	18.785	1415.309	1072.038
276.526	18.763	1414.976	1071.553
277.541	18.714	1413.917	1070.352
278.555	18.637	1413.425	1069.406
279.570	18.766	1412.541	1069.443
280.585	18.870	1411.364	1069.105
281.599	18.987	1411.045	1069.497
282.614	19.066	1409.280	1068.553
283.628	18.868	1408.754	1066.834
284.643	18.824	1407.499	1065.513
285.657	18.836	1405.799	1064.206
286.672	18.823	1405.544	1063.841
287.687	18.831	1404.729	1063.180
288.701	18.848	1403.395	1062.178
289.716	18.971	1402.625	1062.264
290.730	19.026	1401.858	1061.929
291.745	18.878	1400.958	1060.239
292.760	18.914	1400.476	1060.003
293.774	18.982	1399.056	1059.255
294.789	19.080	1398.074	1059.019
295.803	19.060	1397.411	1058.299
296.818	19.171	1396.775	1058.405
297.833	19.072	1395.331	1056.608
298.847	18.937	1394.490	1055.053
299.862	18.865	1393.721	1053.933
300.876	18.900	1392.756	1053.327
301.891	19.034	1391.415	1053.042
302.906	19.058	1390.763	1052.598
303.920	19.189	1390.730	1053.280
304.935	19.272	1389.411	1052.695
305.949	19.295	1388.747	1052.240
306.964	19.410	1388.059	1052.327
307.979	19.455	1386.994	1051.700
308.993	19.407	1386.054	1050.604
310.008	19.276	1385.107	1048.998
311.022	19.253	1384.632	1048.407
312.037	19.415	1383.318	1048.300
313.052	19.326	1382.207	1046.828
314.066	19.354	1381.079	1046.047
315.081	19.248	1380.069	1044.550
316.095	19.037	1378.908	1042.298
317.110	19.079	1377.556	1041.440
318.125	19.000	1376.973	1040.431
319.139	19.129	1375.797	1040.229
320.154	19.089	1374.714	1039.078
321.168	19.089	1373.689	1038.210
322.183	19.152	1372.373	1037.499
323.197	19.151	1371.735	1036.921
324.212	19.198	1371.092	1036.628
325.227	19.289	1370.259	1036.453
326.241	19.260	1369.315	1035.474
327.256	19.346	1368.040	1034.932
328.270	19.294	1367.910	1034.428
329.285	19.341	1366.570	1033.607
330.300	19.198	1365.677	1031.984
331.314	19.215	1364.896	1031.406
332.329	19.299	1364.006	1031.142
333.343	19.194	1363.311	1029.899
334.358	19.249	1362.454	1029.487
335.373	19.421	1361.485	1029.693
336.387	19.393	1361.155	1029.186
337.402	19.393	1360.362	1028.494
338.416	19.493	1359.413	1028.281
339.431	19.589	1359.018	1028.465
340.446	19.597	1358.487	1028.015
341.460	19.611	1357.326	1027.132
342.475	19.667	1356.816	1026.987
343.489	19.816	1355.561	1026.831
344.504	19.825	1354.798	1026.218
345.519	19.926	1353.605	1025.822
346.533	19.925	1352.726	1025.059
347.548	19.902	1352.115	1024.366
348.562	19.975	1351.176	1023.995
349.577	20.077	1350.571	1024.051
350.592	19.933	1349.567	1022.352
351.606	19.857	1348.460	1020.972
352.621	19.614	1347.794	1018.942
353.635	19.655	1346.184	1017.877
354.650	19.496	1345.259	1016.150
355.665	19.603	1344.380	1016.026
356.679	19.696	1342.907	1015.371
357.694	19.700	1342.054	1014.658
358.708	19.671	1341.012	1013.614
359.723	19.806	1340.112	1013.632
360.738	19.920	1338.918	1013.309
361.752	19.864	1338.138	1012.298
362.767	19.859	1337.114	1011.406
363.781	19.904	1336.218	1010.900
364.796	19.930	1335.471	1010.402
365.810	19.849	1334.890	1009.397
366.825	19.972	1334.328	1009.601
367.840	20.035	1333.903	1009.556
368.854	20.120	1333.367	1009.554
369.869	20.338	1332.684	1010.217
370.883	20.326	1331.313	1009.019
371.898	20.323	1330.796	1008.521
372.913	20.240	1330.014	1007.356
373.927	20.150	1329.080	1006.041
374.942	20.198	1328.357	1005.680
375.956	20.222	1327.854	1005.353
376.971	20.378	1326.849	1005.405
377.986	20.341	1325.694	1004.225
379.000	20.237	1324.995	1003.008
380.015	20.262	1324.398	1002.613
381.029	20.406	1323.767	1002.873
382.044	20.398	1323.519	1002.553
383.059	20.471	1322.919	1002.431
384.073	20.392	1322.001	1001.189
385.088	20.465	1321.122	1000.860
386.102	20.425	1320.738	1000.247
387.117	20.402	1319.714	999.251
388.132	20.484	1318.510	998.721
389.146	20.346	1317.336	996.952
390.161	20.168	1316.919	995.527
391.175	20.248	1316.197	995.351
392.190	20.228	1315.565	994.673
393.205	20.306	1314.432	994.172
394.219	20.452	1313.739	994.398
395.234	20.579	1312.616	994.187
396.248	20.503	1311.276	992.647
397.263	20.300	1310.106	990.516
398.278	20.414	1308.113	989.570
399.292	20.333	1307.537	988.586
400.307	20.193	1306.265	986.742
401.321	20.108	1305.275	985.423
402.336	20.135	1304.016	984.539
403.350	20.135	1303.169	983.813
404.365	20.225	1302.273	983.559
405.380	20.252	1301.032	982.686
406.394	20.215	1300.566	982.037
407.409	20.278	1300.003	981.886
408.423	20.433	1299.364	982.191
409.438	20.477	1298.714	981.861
410.453	20.476	1298.299	981.455
411.467	20.629	1297.706	981.786
412.482	20.754	1296.765	981.691
413.496	20.736	1296.446	981.262
414.511	20.831	1295.603	981.068
415.526	20.979	1294.327	980.850
416.540	20.855	1294.332	980.069
417.555	21.026	1293.559	980.359
418.569	21.088	1292.725	979.988
419.584	21.003	1292.471	979.230
420.599	20.850	1291.415	977.488
421.613	145.811	1435.541	1797.434
422.628	140.795	1456.504	1797.534
