DTS Sentinel unit serial number:	SN413079Multiplexer serial number:	ORYXHardware model number:	OX4-SRSoftware version number:	ORYX F/W v4.00 Oryx Data Collector v3.7.2.0data status	okinstallation	princeton_trtdifferential loss correction	single-endedforward channel	channel 4reverse channel	N/Adate	2019/09/18time	13:57:34forward acquisition time	60.00reverse acquisition time	0.00gamma	496.2192k internal	0.2302k external	0.2302temperature offset calibration	1.0000default loss term (dB/km)	0.3790temperature slope calibration	1.0000multiplexer offset coefficient	1.0000multiplexer slope coefficient	1.0000fibre end	0.00T internal ref (°C)	34.50T ext. ref 1 (°C)	0.65T ext. ref 2 (°C)	29.16length (m)	temperature (°C)	Stokes	anti-Stokes-747.200	800.000	0.114	0.420
-746.185	-200.000	0.038	0.230
-745.171	-108.714	-0.201	0.044
-744.156	37.593	-0.064	-0.058
-743.142	177.810	0.138	-0.205
-742.127	-58.848	-0.157	0.069
-741.112	-42.016	-0.066	0.035
-740.098	-200.000	0.008	0.195
-739.083	-37.282	0.007	0.004
-738.069	176.161	-0.107	0.158
-737.054	800.000	0.069	-0.241
-736.039	142.476	-0.107	0.145
-735.025	89.634	0.155	-0.176
-734.010	-124.741	-0.135	-0.021
-732.996	-104.343	-0.310	-0.073
-731.981	-37.922	0.090	-0.049
-730.966	547.330	-0.142	-0.345
-729.952	780.780	0.132	-0.367
-728.937	184.943	0.129	-0.195
-727.923	-123.235	0.161	-0.026
-726.908	-200.000	0.030	-0.269
-725.894	-75.774	-0.489	-0.177
-724.879	564.745	0.156	-0.385
-723.864	181.079	0.174	0.261
-722.850	-16.592	-0.083	-0.053
-721.835	681.548	-0.056	-0.149
-720.821	-64.237	-0.094	0.039
-719.806	22.584	-0.325	-0.270
-718.791	800.000	0.093	-0.288
-717.777	66.971	-0.103	0.106
-716.762	-200.000	-0.011	0.121
-715.748	-66.164	0.426	0.173
-714.733	-200.000	-0.031	0.146
-713.718	-44.953	0.142	0.072
-712.704	800.000	-0.032	0.124
-711.689	-23.265	-0.106	-0.065
-710.675	631.286	-0.052	0.134
-709.660	64.109	0.074	0.076
-708.645	179.305	0.065	-0.097
-707.631	76.673	0.236	-0.255
-706.616	-59.503	-0.148	-0.064
-705.602	-142.776	0.226	0.022
-704.587	-200.000	-0.002	-0.024
-703.572	256.535	-0.046	0.080
-702.558	-20.956	-0.114	-0.071
-701.543	-78.254	0.193	-0.067
-700.529	-0.886	-0.325	-0.234
-699.514	800.000	-0.081	0.270
-698.499	-200.000	0.040	-0.266
-697.485	-200.000	-0.053	0.411
-696.470	510.681	0.102	0.240
-695.456	163.465	-0.070	-0.100
-694.441	110.343	0.064	0.078
-693.426	-73.526	0.223	-0.083
-692.412	-38.413	-0.088	0.047
-691.397	189.675	0.131	-0.200
-690.383	-3.559	0.150	0.106
-689.368	110.021	-0.210	-0.256
-688.354	195.602	-0.179	-0.277
-687.339	-118.078	0.348	-0.063
-686.324	-109.278	-0.175	-0.038
-685.310	61.380	-0.174	0.176
-684.295	-200.000	0.001	0.076
-683.281	-185.580	0.224	0.003
-682.266	-85.908	-0.248	0.078
-681.251	175.102	0.028	0.041
-680.237	-77.681	0.181	-0.064
-679.222	-21.141	0.210	-0.130
-678.208	800.000	-0.078	-0.257
-677.193	319.133	-0.166	-0.319
-676.178	-200.000	0.017	-0.285
-675.164	-200.000	0.009	0.138
-674.149	-101.036	0.343	0.085
-673.135	-200.000	-0.007	-0.038
-672.120	-200.000	-0.044	0.220
-671.105	129.720	0.190	0.247
-670.091	-200.000	0.084	0.448
-669.076	255.990	-0.123	-0.214
-668.062	-117.564	-0.272	-0.050
-667.047	800.000	-0.023	0.083
-666.032	800.000	-0.035	0.123
-665.018	569.449	-0.055	0.135
-664.003	800.000	0.039	-0.121
-662.989	84.884	-0.163	-0.181
-661.974	-150.962	-0.232	0.018
-660.959	-141.313	0.044	-0.005
-659.945	-111.349	-0.062	-0.013
-658.930	307.509	-0.176	-0.334
-657.916	9.148	0.050	0.039
-656.901	800.000	0.009	0.033
-655.886	81.240	0.084	-0.092
-654.872	307.888	-0.117	0.221
-653.857	15.368	-0.148	-0.118
-652.843	800.000	0.175	-0.524
-651.828	313.128	0.055	0.105
-650.814	461.884	-0.091	0.207
-649.799	-124.585	0.197	-0.031
-648.784	800.000	-0.058	0.180
-647.770	-176.465	-0.442	0.012
-646.755	-6.592	0.109	-0.075
-645.741	-64.051	-0.287	-0.119
-644.726	-200.000	0.006	-0.094
-643.711	800.000	-0.051	-0.220
-642.697	-44.758	-0.157	-0.079
-641.682	800.000	-0.090	-0.358
-640.668	325.756	0.056	-0.109
-639.653	-87.119	0.021	0.007
-638.638	157.405	0.271	-0.380
-637.624	-102.455	-0.459	0.112
-636.609	297.693	0.069	0.129
-635.595	-37.585	-0.089	0.048
-634.580	800.000	-0.020	0.064
-633.565	-121.217	-0.216	0.037
-632.551	73.510	0.250	0.265
-631.536	-9.186	0.035	-0.024
-630.522	716.287	-0.072	-0.195
-629.507	288.379	0.063	0.115
-628.492	-41.048	-0.049	0.026
-627.478	-31.735	0.092	0.052
-626.463	-53.766	0.172	0.079
-625.449	-71.081	0.260	0.099
-624.434	6.479	-0.125	0.095
-623.419	-200.000	-0.007	0.310
-622.405	-94.056	0.215	0.060
-621.390	-88.816	-0.137	0.041
-620.376	581.031	-0.146	-0.363
-619.361	-75.937	0.217	0.078
-618.346	-200.000	-0.010	0.209
-617.332	18.343	-0.185	0.150
-616.317	133.359	0.058	0.076
-615.303	65.797	-0.076	0.078
-614.288	610.184	-0.122	-0.310
-613.273	-18.128	-0.285	0.181
-612.259	-71.124	0.027	-0.010
-611.244	-22.667	-0.145	0.089
-610.230	62.009	0.154	0.155
-609.215	-17.817	-0.198	-0.126
-608.201	-97.215	0.280	-0.074
-607.186	60.160	-0.148	0.149
-606.171	59.256	0.079	0.079
-605.157	108.872	-0.154	-0.187
-604.142	705.170	-0.101	0.270
-603.128	192.895	0.027	-0.042
-602.113	22.846	0.333	-0.277
-601.098	800.000	-0.098	0.298
-600.084	-200.000	-0.050	-0.228
-599.069	-200.000	0.002	0.162
-598.055	-139.198	0.073	-0.008
-597.040	72.388	-0.072	0.076
-596.025	83.536	0.082	0.091
-595.011	98.296	-0.255	-0.298
-593.996	-24.205	-0.095	-0.057
-592.982	-119.193	0.071	0.012
-591.967	62.257	0.041	0.041
-590.952	-24.032	0.413	0.250
-589.938	596.411	0.124	0.312
-588.923	426.228	0.131	0.287
-587.909	337.366	-0.062	0.123
-586.894	-66.442	0.172	0.069
-585.879	84.959	0.174	0.193
-584.865	-200.000	0.004	-0.488
-583.850	-200.000	0.025	-0.149
-582.836	-77.598	-0.347	-0.122
-581.821	-144.462	0.184	-0.017
-580.806	154.554	-0.253	0.351
-579.792	800.000	-0.042	0.179
-578.777	800.000	0.095	0.362
-577.763	-200.000	-0.029	-0.162
-576.748	610.180	-0.172	0.436
-575.733	-45.814	0.324	0.162
-574.719	-48.172	-0.070	0.034
-573.704	-93.662	0.228	0.064
-572.690	-76.502	0.380	0.135
-571.675	-145.701	0.271	0.025
-570.661	-200.000	-0.038	-0.197
-569.646	-200.000	0.279	-0.001
-568.631	-200.000	-0.018	0.101
-567.617	800.000	0.048	-0.204
-566.602	-127.650	-0.172	0.025
-565.588	76.277	0.139	0.149
-564.573	-83.384	-0.086	0.028
-563.558	-200.000	-0.021	0.289
-562.544	118.090	-0.174	0.216
-561.529	-35.578	0.036	-0.020
-560.515	-80.030	-0.286	-0.097
-559.500	-200.000	0.075	0.350
-558.485	-200.000	-0.039	-0.221
-557.471	-53.418	0.089	-0.041
-556.456	-63.502	0.161	-0.067
-555.442	516.324	0.040	0.094
-554.427	172.353	0.195	0.283
-553.412	30.041	-0.312	-0.269
-552.398	-121.493	-0.275	-0.046
-551.383	-200.000	-0.013	-0.102
-550.369	-179.999	0.373	0.008
-549.354	800.000	-0.073	0.283
-548.339	498.919	-0.114	-0.265
-547.325	-200.000	-0.015	-0.163
-546.310	25.235	0.093	0.078
-545.296	-87.087	0.107	0.033
-544.281	-44.753	-0.240	-0.121
-543.266	64.491	0.230	-0.234
-542.252	-66.997	-0.097	0.039
-541.237	-200.000	-0.029	0.346
-540.223	-69.331	0.408	0.158
-539.208	800.000	-0.096	-0.282
-538.193	70.730	-0.089	-0.093
-537.179	-138.129	0.256	-0.029
-536.164	-74.702	0.165	-0.060
-535.150	-200.000	0.007	0.121
-534.135	-50.281	-0.092	-0.044
-533.121	25.855	0.178	0.150
-532.106	-200.000	-0.015	-0.254
-531.091	-4.747	0.022	-0.015
-530.077	-123.466	-0.183	-0.029
-529.062	-189.420	0.122	-0.001
-528.048	-8.150	0.174	0.119
-527.033	-113.011	0.080	0.016
-526.018	-19.477	-0.367	0.230
-525.004	-69.436	-0.353	0.137
-523.989	-108.660	0.237	0.051
-522.975	-200.000	0.013	0.085
-521.960	138.501	0.209	-0.277
-520.945	-48.483	-0.309	-0.150
-519.931	107.112	-0.118	-0.142
-518.916	-96.637	0.145	0.038
-517.902	22.031	-0.251	0.207
-516.887	47.228	0.143	-0.135
-515.872	-42.313	0.078	-0.040
-514.858	-200.000	0.054	-0.295
-513.843	-108.521	0.127	0.028
-512.829	249.449	0.236	0.404
-511.814	62.378	0.126	0.127
-510.799	-107.053	-0.303	0.068
-509.785	-138.249	-0.062	-0.007
-508.770	266.544	0.147	0.259
-507.756	-63.828	-0.236	0.097
-506.741	-94.233	-0.211	0.058
-505.726	-61.598	0.270	-0.114
-504.712	-87.882	-0.090	0.027
-503.697	151.616	-0.063	-0.087
-502.683	-123.197	-0.220	-0.036
-501.668	116.633	0.167	0.207
-500.653	-108.170	0.019	-0.004
-499.639	31.587	-0.159	-0.138
-498.624	-200.000	0.017	0.201
-497.610	-65.537	0.044	0.018
-496.595	789.645	0.104	-0.290
-495.581	800.000	-0.030	-0.105
-494.566	314.067	0.121	-0.229
-493.551	-138.836	0.132	0.015
-492.537	-91.074	-0.211	0.061
-491.522	-1.969	0.314	0.223
-490.508	-6.717	0.093	-0.064
-489.493	-1.515	0.287	0.204
-488.478	800.000	-0.013	0.058
-487.464	-61.286	-0.255	-0.108
-486.449	-200.000	-0.062	0.381
-485.435	-65.688	-0.214	0.087
-484.420	50.339	0.165	0.158
-483.405	-147.086	-0.201	0.017
-482.391	207.680	-0.150	0.237
-481.376	-200.000	0.028	-0.202
-480.362	-200.000	0.004	0.161
-479.347	-86.095	-0.332	0.103
-478.332	-200.000	-0.045	-0.486
-477.318	-64.990	0.227	0.093
-476.303	86.361	0.198	-0.220
-475.289	436.831	0.162	0.356
-474.274	212.225	-0.159	0.252
-473.259	347.286	-0.059	0.118
-472.245	-100.689	-0.532	-0.132
-471.230	-166.638	-0.180	-0.008
-470.216	42.160	0.044	0.040
-469.201	83.354	-0.199	-0.219
-468.186	82.732	-0.154	-0.168
-467.172	-3.137	-0.132	-0.093
-466.157	-17.803	-0.129	0.081
-465.143	-200.000	-0.020	0.118
-464.128	-11.197	0.226	-0.150
-463.113	-24.152	0.104	-0.063
-462.099	-200.000	-0.013	-0.114
-461.084	-16.755	0.020	-0.013
-460.070	-200.000	-0.016	-0.106
-459.055	98.620	-0.067	-0.077
-458.040	303.861	0.267	-0.500
-457.026	-146.136	-0.125	-0.011
-456.011	800.000	-0.045	0.131
-454.997	-65.135	0.498	-0.202
-453.982	10.979	-0.300	0.231
-452.968	238.693	-0.094	0.158
-451.953	145.319	0.083	0.112
-450.938	800.000	0.061	-0.195
-449.924	-24.524	-0.136	0.081
-448.909	132.431	-0.147	0.191
-447.895	-148.845	-0.168	0.014
-446.880	110.187	-0.225	0.272
-445.865	79.399	-0.189	-0.204
-444.851	-3.007	-0.225	0.158
-443.836	325.097	0.085	-0.164
-442.822	-200.000	-0.003	0.253
-441.807	-200.000	-0.031	-0.155
-440.792	-144.164	-0.029	0.003
-439.778	-200.000	-0.009	-0.165
-438.763	-7.640	0.131	-0.089
-437.749	127.714	-0.240	-0.308
-436.734	14.820	0.321	-0.253
-435.719	-200.000	0.024	-0.138
-434.705	592.111	-0.092	-0.228
-433.690	-56.760	0.257	0.115
-432.676	665.241	0.183	-0.475
-431.661	34.909	0.155	-0.137
-430.646	150.885	0.105	-0.144
-429.632	-136.594	0.213	-0.025
-428.617	-200.000	-0.014	-0.211
-427.603	-79.321	-0.249	0.085
-426.588	67.020	-0.083	0.085
-425.573	-130.693	-0.187	0.025
-424.559	800.000	-0.029	-0.113
-423.544	14.731	-0.289	-0.227
-422.530	-85.978	0.028	-0.009
-421.515	-101.518	-0.297	-0.073
-420.500	-86.829	-0.384	0.118
-419.486	245.299	0.053	0.090
-418.471	-108.924	0.244	0.052
-417.457	212.871	-0.110	-0.175
-416.442	-49.599	0.186	0.089
-415.428	-200.000	0.038	0.325
-414.413	37.331	0.309	-0.276
-413.398	-54.500	0.386	-0.176
-412.384	420.810	0.100	0.215
-411.369	82.057	-0.108	0.118
-410.355	-200.000	0.084	0.394
-409.340	126.852	0.187	0.239
-408.325	64.782	0.260	0.264
-407.311	486.269	0.104	0.238
-406.296	-200.000	0.000	-0.086
-405.282	-7.148	-0.228	-0.155
-404.267	257.174	0.108	-0.186
-403.252	606.517	-0.081	0.203
-402.238	-7.297	-0.096	0.065
-401.223	-200.000	0.003	0.050
-400.209	-200.000	0.003	-0.454
-399.194	433.621	-0.091	0.200
-398.179	-70.388	-0.128	0.049
-397.165	281.447	-0.020	0.036
-396.150	40.516	0.226	-0.205
-395.136	-178.794	-0.073	0.002
-394.121	243.132	-0.044	0.073
-393.106	-200.000	-0.017	-0.248
-392.092	224.976	-0.198	-0.322
-391.077	6.432	-0.131	-0.098
-390.063	800.000	-0.045	0.142
-389.048	-59.078	0.386	0.168
-388.033	-62.081	0.162	0.068
-387.019	-42.528	0.234	-0.120
-386.004	111.750	-0.179	-0.217
-384.990	-4.920	0.132	-0.091
-383.975	-176.092	0.090	0.002
-382.960	73.436	0.201	0.211
-381.946	104.024	-0.254	0.300
-380.931	-55.291	-0.197	0.089
-379.917	800.000	0.061	0.222
-378.902	800.000	-0.042	-0.160
-377.888	700.395	-0.050	-0.133
-376.873	-150.455	0.041	0.003
-375.858	55.590	0.174	0.169
-374.844	-151.387	0.292	0.022
-373.829	695.030	0.089	-0.235
-372.815	161.347	-0.197	-0.277
-371.800	-92.901	0.251	0.070
-370.785	32.164	-0.120	-0.104
-369.771	80.094	0.165	-0.178
-368.756	-67.748	-0.229	0.090
-367.742	13.607	0.352	-0.275
-366.727	90.453	-0.188	-0.211
-365.712	-28.036	0.338	-0.197
-364.698	-143.399	0.391	0.038
-363.683	4.113	-0.050	-0.037
-362.669	-152.959	-0.153	0.011
-361.654	-111.988	0.172	0.035
-360.639	-42.049	-0.182	0.093
-359.625	206.193	0.047	0.073
-358.610	218.153	0.060	-0.096
-357.596	35.647	0.138	0.122
-356.581	-29.526	-0.337	-0.193
-355.566	-164.103	-0.202	0.009
-354.552	3.125	0.172	0.125
-353.537	-2.217	0.112	-0.079
-352.523	-54.639	-0.142	-0.064
-351.508	-127.578	0.366	0.053
-350.493	166.390	0.112	-0.159
-349.479	461.917	-0.108	-0.241
-348.464	-123.340	0.435	-0.070
-347.450	-164.617	-0.138	0.006
-346.435	-47.641	-0.075	-0.037
-345.420	-9.518	-0.143	0.095
-344.406	-200.000	-0.001	-0.199
-343.391	220.869	0.047	-0.075
-342.377	-166.760	-0.252	0.010
-341.362	278.167	0.120	0.214
-340.348	800.000	-0.061	-0.199
-339.333	-102.011	-0.155	-0.038
-338.318	800.000	-0.032	0.092
-337.304	6.648	-0.103	0.077
-336.289	-59.993	-0.168	0.072
-335.275	31.793	-0.143	-0.124
-334.260	800.000	-0.037	-0.122
-333.245	-20.471	0.224	-0.138
-332.231	267.178	-0.183	0.321
-331.216	-200.000	-0.005	0.092
-330.202	-134.157	0.054	0.007
-329.187	-43.827	-0.273	0.138
-328.172	-200.000	0.022	-0.368
-327.158	116.292	0.081	0.099
-326.143	-116.526	-0.322	-0.059
-325.129	320.388	-0.109	0.208
-324.114	81.223	-0.131	-0.141
-323.099	-76.895	-0.253	0.089
-322.085	800.000	0.111	0.377
-321.070	800.000	0.082	-0.298
-320.056	82.749	-0.135	-0.147
-319.041	39.401	0.229	0.205
-318.026	162.426	-0.260	0.365
-317.012	-45.072	0.037	0.018
-315.997	-98.712	-0.097	-0.025
-314.983	-200.000	-0.014	0.192
-313.968	-134.840	-0.195	0.024
-312.953	206.852	0.054	0.085
-311.939	614.107	0.060	-0.151
-310.924	-200.000	0.011	0.072
-309.910	156.580	-0.211	0.292
-308.895	6.936	0.125	-0.094
-307.880	-137.301	0.228	-0.026
-306.866	-200.000	0.002	0.099
-305.851	-42.937	0.238	0.121
-304.837	-7.428	-0.131	-0.089
-303.822	-22.783	-0.132	-0.080
-302.807	800.000	-0.063	0.213
-301.793	-13.785	-0.132	-0.085
-300.778	-200.000	-0.045	-0.230
-299.764	-97.816	-0.127	0.033
-298.749	-200.000	0.020	0.099
-297.735	66.133	0.081	0.083
-296.720	800.000	0.043	-0.137
-295.705	322.663	-0.135	-0.257
-294.691	49.510	-0.061	0.058
-293.676	24.881	0.208	0.172
-292.662	19.286	0.116	0.094
-291.647	2.418	-0.076	-0.055
-290.632	-132.687	-0.084	0.011
-289.618	277.438	-0.072	-0.129
-288.603	-173.292	0.322	0.010
-287.589	-114.356	-0.034	-0.006
-286.574	101.587	-0.083	0.097
-285.559	-76.485	-0.119	0.042
-284.545	-200.000	0.015	0.085
-283.530	-200.000	-0.103	-0.453
-282.516	-200.000	-0.027	-0.205
-281.501	19.803	-0.254	0.205
-280.486	-156.679	-0.273	-0.017
-279.472	800.000	0.075	-0.245
-278.457	-65.578	0.131	0.053
-277.443	319.821	0.110	0.210
-276.428	-200.000	0.046	0.218
-275.413	79.465	0.174	0.187
-274.399	-96.017	0.125	0.033
-273.384	-131.475	-0.352	0.046
-272.370	376.435	0.165	-0.336
-271.355	800.000	-0.097	-0.330
-270.340	67.537	0.233	-0.238
-269.326	-142.684	-0.231	0.023
-268.311	45.884	-0.137	-0.127
-267.297	800.000	0.036	0.155
-266.282	138.125	0.062	0.082
-265.267	-145.689	-0.230	-0.021
-264.253	-36.960	0.081	-0.044
-263.238	-150.224	0.277	0.021
-262.224	-97.630	-0.229	0.060
-261.209	-200.000	-0.023	0.245
-260.195	800.000	-0.025	-0.094
-259.180	-68.321	0.208	-0.081
-258.165	-19.395	-0.249	0.154
-257.151	800.000	-0.068	0.196
-256.136	3.540	-0.197	0.144
-255.122	31.282	-0.108	0.093
-254.107	109.174	0.187	-0.224
-253.092	-149.248	-0.272	0.022
-252.078	-89.516	0.334	0.098
-251.063	20.138	-0.128	-0.103
-250.049	-102.950	-0.159	-0.038
-249.034	-99.560	-0.381	-0.096
-248.019	153.707	-0.127	-0.174
-247.005	-81.500	0.330	-0.108
-245.990	800.000	-0.086	-0.355
-244.976	27.484	0.174	0.146
-243.961	-200.000	0.008	-0.278
-242.946	-115.997	0.224	-0.042
-241.932	-86.237	0.286	0.088
-240.917	800.000	0.092	0.317
-239.903	-88.281	0.034	0.010
-238.888	116.514	0.137	-0.168
-237.873	10.117	0.200	0.152
-236.859	19.412	0.340	-0.273
-235.844	62.377	-0.187	-0.186
-234.830	122.164	-0.063	0.079
-233.815	-92.378	0.251	-0.071
-232.800	-165.172	-0.176	0.008
-231.786	-51.685	-0.031	-0.014
-230.771	442.366	-0.048	-0.104
-229.757	800.000	-0.080	-0.316
-228.742	-43.796	0.413	-0.207
-227.727	800.000	0.121	-0.522
-226.713	661.318	-0.072	-0.185
-225.698	11.543	-0.066	0.050
-224.684	206.059	0.225	-0.350
-223.669	800.000	-0.063	0.226
-222.655	800.000	-0.039	0.131
-221.640	27.580	0.187	0.157
-220.625	460.193	0.083	0.184
-219.611	800.000	0.033	0.140
-218.596	-144.931	0.095	-0.009
-217.582	-200.000	-0.045	-0.322
-216.567	-1.896	0.118	-0.083
-215.552	-142.014	-0.290	0.029
-214.538	-0.156	-0.166	0.118
-213.523	-82.440	-0.317	-0.103
-212.509	-200.000	-0.049	-0.227
-211.494	-200.000	0.022	0.165
-210.479	129.739	-0.095	0.121
-209.465	-15.857	0.074	-0.047
-208.450	52.528	-0.152	0.145
-207.436	291.417	0.125	0.226
-206.421	202.006	-0.168	0.258
-205.406	412.319	0.135	0.286
-204.392	-122.569	0.107	-0.017
-203.377	-200.000	0.016	-0.109
-202.363	-200.000	0.008	0.118
-201.348	-4.851	0.196	0.135
-200.333	-83.651	0.049	0.015
-199.319	-47.125	0.136	0.066
-198.304	-200.000	-0.067	-0.292
-197.290	436.919	-0.038	0.082
-196.275	499.960	-0.051	0.117
-195.260	-200.000	-0.017	-0.117
-194.246	244.335	0.154	0.257
-193.231	450.425	0.058	0.127
-192.217	-41.456	-0.172	-0.088
-191.202	800.000	0.058	0.165
-190.187	-52.637	0.241	0.111
-189.173	-155.097	-0.279	-0.018
-188.158	-28.500	-0.188	-0.108
-187.144	16.461	0.098	0.077
-186.129	-200.000	-0.076	-0.391
-185.114	239.573	0.062	-0.104
-184.100	-120.819	0.111	0.019
-183.085	-116.799	0.124	-0.023
-182.071	531.275	-0.060	0.142
-181.056	-200.000	0.041	-0.182
-180.042	-51.748	0.295	0.137
-179.027	374.923	-0.081	-0.164
-178.012	15.255	0.142	-0.111
-176.998	33.486	0.114	-0.099
-175.983	-200.000	0.011	0.196
-174.969	13.302	-0.203	0.157
-173.954	211.919	0.245	0.384
-172.939	-102.415	0.200	-0.048
-171.925	-141.946	-0.178	0.018
-170.910	-76.141	0.119	0.042
-169.896	-82.841	-0.344	0.111
-168.881	6.536	-0.124	-0.091
-167.866	-124.501	0.344	0.053
-166.852	-71.740	0.308	0.115
-165.837	82.964	0.065	-0.070
-164.823	626.983	0.089	-0.224
-163.808	36.312	-0.160	-0.140
-162.793	208.148	0.095	-0.148
-161.779	7.842	0.159	-0.119
-160.764	71.683	-0.139	-0.144
-159.750	-200.000	-0.004	0.086
-158.735	-67.588	-0.099	0.039
-157.720	217.499	-0.192	0.304
-156.706	-76.825	-0.390	0.136
-155.691	-194.902	-0.361	-0.003
-154.677	800.000	-0.103	-0.317
-153.662	-133.554	0.432	0.054
-152.647	-60.323	0.036	0.015
-151.633	-100.477	-0.260	-0.064
-150.618	429.371	-0.084	-0.182
-149.604	-109.449	0.077	-0.016
-148.589	180.685	-0.115	0.169
-147.574	-138.893	0.245	-0.027
-146.560	-46.437	-0.128	-0.062
-145.545	-197.384	-0.150	0.001
-144.531	800.000	-0.023	0.095
-143.516	34.748	-0.179	0.156
-142.502	800.000	-0.102	0.394
-141.487	296.962	0.058	-0.106
-140.472	-200.000	-0.013	-0.395
-139.458	-21.182	0.137	-0.084
-138.443	-65.838	0.148	0.059
-137.429	450.057	0.127	-0.280
-136.414	-0.658	-0.031	0.022
-135.399	233.407	0.165	0.270
-134.385	800.000	0.070	0.240
-133.370	764.070	0.013	0.036
-132.356	-148.234	0.070	-0.006
-131.341	140.896	0.103	-0.136
-130.326	1.311	-0.148	-0.106
-129.312	-115.398	0.074	0.014
-128.297	-200.000	-0.051	-0.574
-127.283	-200.000	-0.042	-0.236
-126.268	167.821	0.157	0.222
-125.253	9.812	-0.330	0.249
-124.239	-200.000	0.005	-0.183
-123.224	-13.997	-0.230	-0.148
-122.210	-71.886	0.229	-0.085
-121.195	-59.219	0.192	-0.082
-120.180	-200.000	0.025	0.138
-119.166	293.106	-0.053	-0.097
-118.151	146.229	0.091	0.122
-117.137	170.085	0.095	-0.135
-116.122	-85.043	-0.049	0.015
-115.107	-71.093	0.307	-0.115
-114.093	-66.582	-0.037	0.015
-113.078	-200.000	0.003	0.254
-112.064	-200.000	-0.050	0.241
-111.049	281.032	-0.067	0.118
-110.034	40.618	-0.042	0.038
-109.020	12.359	-0.275	-0.210
-108.005	145.719	0.029	0.038
-106.991	216.177	0.168	-0.265
-105.976	-152.458	-0.336	-0.024
-104.962	62.677	0.095	0.094
-103.947	-7.381	0.194	-0.131
-102.932	376.739	-0.067	-0.137
-101.918	67.652	-0.264	0.268
-100.903	-200.000	-0.022	-0.126
-99.889	62.616	-0.333	-0.331
-98.874	-94.199	0.183	0.050
-97.859	656.147	-0.039	-0.101
-96.845	-200.000	0.028	0.256
-95.830	-74.102	0.083	-0.030
-94.816	-91.083	-0.064	-0.018
-93.801	-102.214	0.131	0.031
-92.786	303.983	0.130	0.240
-91.772	-29.150	-0.075	0.043
-90.757	319.940	0.057	0.108
-89.743	217.646	-0.111	0.176
-88.728	-170.419	0.186	-0.006
-87.713	-200.000	-0.074	0.431
-86.699	239.327	-0.125	0.206
-85.684	9.747	-0.246	0.185
-84.670	-96.575	0.345	0.090
-83.655	-48.718	0.281	0.134
-82.640	207.575	-0.047	0.073
-81.626	318.546	0.078	-0.146
-80.611	-200.000	-0.010	0.161
-79.597	13.487	0.290	0.223
-78.582	97.844	0.157	-0.179
-77.567	565.285	0.229	-0.551
-76.553	17.769	0.160	-0.126
-75.538	800.000	-0.018	-0.074
-74.524	37.907	0.069	-0.061
-73.509	-2.981	-0.201	0.140
-72.494	-93.961	0.275	0.075
-71.480	-145.533	0.302	0.027
-70.465	-104.381	-0.077	-0.018
-69.451	800.000	0.044	0.135
-68.436	-34.168	0.235	0.128
-67.422	800.000	-0.063	0.183
-66.407	-11.098	-0.104	0.068
-65.392	81.891	-0.054	0.058
-64.378	738.217	-0.017	0.046
-63.363	-75.905	0.174	0.061
-62.349	-196.888	-0.098	0.001
-61.334	15.113	-1.018	-0.792
-60.319	211.550	0.368	0.575
-59.305	144.732	-0.645	-0.855
-58.290	457.219	0.465	1.024
-57.276	800.000	0.593	1.819
-56.261	-200.000	95.457	544.348
-55.246	494.153	1420.824	3234.608
-54.232	142.669	2652.056	3494.947
-53.217	100.430	2381.234	2741.859
-52.203	40.865	2124.252	1901.113
-51.188	36.141	2036.095	1778.689
-50.173	34.675	2018.078	1749.461
-49.159	47.595	2069.075	1913.930
-48.144	50.025	2088.252	1954.187
-47.130	36.851	2046.508	1794.077
-46.115	34.449	2035.165	1761.902
-45.100	34.386	2032.529	1758.967
-44.086	34.359	2030.329	1756.749
-43.071	34.376	2026.974	1753.929
-42.057	34.320	2025.121	1751.741
-41.042	34.410	2022.991	1750.656
-40.027	34.389	2021.773	1749.340
-39.013	34.419	2019.089	1747.228
-37.998	34.391	2017.278	1745.333
-36.984	34.502	2015.282	1744.552
-35.969	34.464	2013.412	1742.519
-34.954	34.412	2012.126	1740.862
-33.940	34.459	2010.305	1739.641
-32.925	34.467	2008.555	1738.131
-31.911	34.469	2006.457	1736.268
-30.896	34.480	2004.947	1734.993
-29.881	34.479	2003.584	1733.736
-28.867	34.552	2001.457	1732.491
-27.852	34.573	2000.053	1731.393
-26.838	34.694	1997.452	1730.170
-25.823	34.563	1995.650	1727.354
-24.809	34.527	1994.415	1725.890
-23.794	34.441	1992.829	1723.674
-22.779	34.519	1991.024	1722.743
-21.765	34.473	1989.664	1721.084
-20.750	34.493	1987.669	1719.472
-19.736	34.503	1986.442	1718.434
-18.721	34.522	1984.314	1716.695
-17.706	34.542	1982.751	1715.452
-16.692	34.479	1980.974	1713.284
-15.677	34.481	1979.905	1712.305
-14.663	34.675	1977.544	1711.936
-13.648	34.539	1976.699	1709.923
-12.633	34.548	1975.593	1708.975
-11.619	34.419	1974.241	1706.586
-10.604	34.469	1972.884	1705.790
-9.590	34.552	1971.292	1705.089
-8.575	34.506	1969.753	1703.276
-7.560	34.567	1968.297	1702.493
-6.546	34.541	1967.180	1701.229
-5.531	34.535	1965.959	1700.057
-4.517	34.511	1964.804	1698.775
-3.502	34.582	1963.515	1698.222
-2.487	34.482	1962.691	1696.556
-1.473	34.501	1961.450	1695.580
-0.458	34.547	1957.315	1692.347
0.556	32.979	1936.214	1662.858
1.571	28.336	1914.340	1603.397
2.586	23.554	1935.641	1578.663
3.600	21.967	1971.498	1593.366
4.615	21.044	1966.056	1580.464
5.629	16.382	1863.002	1457.365
6.644	6.848	1737.968	1282.377
7.659	1.320	1696.542	1207.807
8.673	0.752	1693.717	1201.182
9.688	0.708	1691.976	1199.485
10.702	0.644	1690.756	1198.014
11.717	0.496	1687.677	1194.549
12.731	1.065	1686.714	1198.261
13.746	7.603	1701.523	1260.701
14.761	15.599	1717.401	1336.178
15.775	17.759	1719.599	1354.943
16.790	17.296	1716.864	1348.997
17.804	16.301	1714.070	1338.794
18.819	15.330	1710.714	1328.372
19.834	14.675	1708.491	1321.346
20.848	14.396	1706.347	1317.361
21.863	14.115	1704.800	1313.832
22.877	13.864	1703.595	1310.806
23.892	13.718	1701.632	1308.031
24.907	13.512	1700.488	1305.412
25.921	13.436	1699.695	1304.085
26.936	13.458	1699.273	1303.824
27.950	13.537	1698.029	1303.377
28.965	13.577	1697.329	1303.033
29.980	13.577	1696.502	1302.284
30.994	13.657	1695.268	1301.854
32.009	13.807	1694.232	1302.115
33.023	13.771	1693.310	1301.009
34.038	13.756	1692.526	1300.174
35.053	13.769	1691.412	1299.308
36.067	13.652	1690.657	1297.695
37.082	13.675	1689.518	1296.888
38.096	13.697	1688.237	1295.962
39.111	13.754	1687.401	1295.651
40.126	13.822	1686.371	1295.274
41.140	13.648	1685.876	1293.421
42.155	13.716	1684.032	1292.422
43.169	13.632	1682.621	1290.571
44.184	13.568	1681.721	1289.268
45.199	13.506	1680.806	1287.970
46.213	13.568	1678.786	1286.788
47.228	13.515	1678.164	1285.786
48.242	13.522	1677.005	1284.839
49.257	13.593	1675.648	1284.242
50.271	13.607	1674.495	1283.354
51.286	13.594	1673.167	1282.117
52.301	13.617	1672.020	1281.307
53.315	13.589	1670.571	1279.860
54.330	13.629	1668.785	1278.694
55.344	13.592	1667.481	1277.295
56.359	13.516	1666.400	1275.764
57.374	13.538	1665.286	1274.968
58.388	13.564	1663.448	1273.648
59.403	13.600	1661.985	1272.691
60.417	13.532	1660.485	1270.909
61.432	13.515	1659.798	1270.145
62.447	13.511	1658.077	1268.680
63.461	13.481	1656.842	1267.398
64.476	13.373	1656.191	1265.957
65.490	13.406	1654.692	1264.951
66.505	13.425	1653.356	1263.967
67.520	13.489	1652.518	1263.699
68.534	13.487	1651.787	1263.016
69.549	13.553	1650.318	1262.281
70.563	13.533	1648.912	1260.942
71.578	13.430	1648.105	1259.435
72.593	13.487	1646.759	1258.722
73.607	13.449	1645.524	1257.381
74.622	13.359	1644.600	1255.883
75.636	13.320	1643.469	1254.607
76.651	13.437	1642.959	1254.994
77.666	13.406	1641.792	1253.758
78.680	13.391	1640.490	1252.543
79.695	13.440	1639.212	1251.823
80.709	13.332	1638.451	1250.313
81.724	13.464	1637.646	1250.589
82.739	13.473	1636.831	1249.925
83.753	13.525	1635.910	1249.502
84.768	13.569	1634.813	1248.887
85.782	13.625	1633.806	1248.428
86.797	13.641	1632.852	1247.706
87.812	13.632	1632.322	1247.124
88.826	13.575	1630.731	1245.371
89.841	13.558	1629.454	1244.155
90.855	13.530	1628.246	1242.918
91.870	13.555	1627.037	1242.068
92.884	13.638	1625.969	1241.769
93.899	13.625	1625.234	1240.994
94.914	13.555	1623.939	1239.376
95.928	13.601	1622.837	1238.770
96.943	13.655	1621.345	1237.920
97.957	13.679	1619.813	1236.822
98.972	13.762	1617.685	1235.706
99.987	13.707	1616.692	1234.430
101.001	13.689	1614.966	1232.872
102.016	13.614	1613.599	1231.157
103.030	13.628	1611.923	1229.876
104.045	13.639	1611.103	1229.220
105.060	13.608	1609.985	1228.031
106.074	13.696	1607.990	1227.051
107.089	13.602	1606.472	1225.089
108.103	13.553	1604.400	1223.041
109.118	13.544	1603.416	1222.115
110.133	13.479	1601.864	1220.345
111.147	13.448	1601.283	1219.569
112.162	13.452	1599.642	1218.239
113.176	13.520	1597.922	1217.317
114.191	13.553	1596.528	1216.393
115.206	13.595	1595.582	1215.875
116.220	13.623	1594.385	1215.057
117.235	13.499	1593.304	1213.221
118.249	13.530	1591.517	1211.975
119.264	13.523	1590.357	1210.936
120.279	13.562	1588.955	1210.043
121.293	13.469	1587.215	1207.936
122.308	13.468	1585.663	1206.637
123.322	13.528	1584.175	1205.840
124.337	13.519	1582.749	1204.577
125.352	13.558	1581.517	1203.818
126.366	13.502	1580.348	1202.416
127.381	13.557	1579.169	1201.814
128.395	13.546	1577.725	1200.528
129.410	13.543	1576.278	1199.299
130.424	13.523	1575.028	1198.095
131.439	13.590	1573.854	1197.585
132.454	13.640	1572.220	1196.590
133.468	13.597	1571.384	1195.537
134.483	13.655	1569.631	1194.518
135.497	13.681	1568.161	1193.482
136.512	13.742	1567.053	1192.975
137.527	13.720	1565.418	1191.463
138.541	13.674	1564.300	1190.178
139.556	13.676	1562.730	1188.891
140.570	13.744	1561.125	1188.053
141.585	13.729	1559.731	1186.782
142.600	13.777	1558.592	1186.150
143.614	13.838	1557.367	1185.547
144.629	13.807	1556.271	1184.388
145.643	13.830	1555.001	1183.484
146.658	13.858	1553.420	1182.375
147.673	13.937	1551.736	1181.550
148.687	13.795	1550.465	1179.470
149.702	13.825	1548.442	1178.038
150.716	13.772	1547.161	1176.583
151.731	13.731	1546.237	1175.484
152.746	13.832	1544.285	1174.610
153.760	13.758	1542.729	1172.802
154.775	13.754	1541.791	1171.953
155.789	13.847	1540.533	1171.553
156.804	13.865	1539.360	1170.687
157.819	13.972	1537.829	1170.171
158.833	13.894	1537.104	1168.962
159.848	13.929	1535.454	1167.850
160.862	13.929	1534.379	1166.929
161.877	13.987	1532.732	1165.982
162.892	13.956	1531.558	1164.767
163.906	13.940	1530.087	1163.436
164.921	13.831	1529.698	1162.277
165.935	13.901	1527.592	1161.060
166.950	13.860	1527.149	1160.334
167.964	13.968	1525.626	1159.828
168.979	13.831	1525.329	1158.543
169.994	13.898	1524.009	1157.905
171.008	13.914	1523.072	1157.201
172.023	13.945	1521.517	1156.137
173.037	13.925	1520.567	1155.169
174.052	14.047	1519.287	1154.946
175.067	14.082	1518.003	1154.109
176.081	14.057	1516.744	1152.875
177.096	13.998	1515.624	1151.516
178.110	14.010	1514.393	1150.562
179.125	13.992	1513.249	1149.465
180.140	14.005	1512.076	1148.561
181.154	13.977	1511.557	1147.870
182.169	14.044	1509.999	1147.051
183.183	14.008	1508.441	1145.515
184.198	14.103	1507.617	1145.447
185.213	14.252	1506.230	1145.312
186.227	14.204	1505.318	1144.191
187.242	14.249	1504.470	1143.754
188.256	14.218	1503.196	1142.468
189.271	14.206	1502.415	1141.691
190.286	14.233	1500.904	1140.632
191.300	14.199	1499.995	1139.605
192.315	14.160	1498.370	1138.002
193.329	14.074	1497.699	1136.804
194.344	14.157	1496.074	1136.035
195.359	14.143	1495.404	1135.336
196.373	14.128	1494.319	1134.308
197.388	14.208	1493.343	1134.007
198.402	14.229	1492.097	1133.107
199.417	14.223	1491.347	1132.397
200.432	14.318	1489.996	1131.918
201.446	14.434	1489.067	1131.900
202.461	14.392	1487.982	1130.690
203.475	14.408	1487.162	1130.072
204.490	14.389	1485.937	1128.911
205.504	14.462	1484.588	1128.280
206.519	14.400	1483.355	1126.827
207.534	14.369	1482.580	1125.931
208.548	14.352	1481.186	1124.655
209.563	14.324	1480.657	1123.962
210.577	14.424	1479.120	1123.374
211.592	14.493	1478.300	1123.114
212.607	14.393	1477.378	1121.642
213.621	14.546	1476.601	1121.984
214.636	14.590	1475.824	1121.589
215.650	14.621	1474.331	1120.564
216.665	14.536	1473.887	1119.558
217.680	14.518	1473.044	1118.695
218.694	14.593	1472.170	1118.435
219.709	14.615	1471.375	1117.880
220.723	14.693	1470.204	1117.412
221.738	14.638	1469.489	1116.403
222.753	14.615	1468.533	1115.422
223.767	14.640	1467.304	1114.561
224.782	14.627	1466.648	1113.873
225.796	14.596	1465.983	1113.066
226.811	14.758	1464.363	1112.814
227.826	14.713	1463.722	1111.934
228.840	14.736	1463.089	1111.506
229.855	14.653	1462.144	1110.138
230.869	14.656	1461.335	1109.444
231.884	14.785	1459.960	1109.161
232.899	14.765	1458.685	1107.960
233.913	14.846	1457.102	1107.194
234.928	14.721	1456.167	1105.560
235.942	14.681	1455.115	1104.396
236.957	14.734	1453.833	1103.682
237.972	14.680	1453.242	1102.775
238.986	14.735	1451.968	1102.072
240.001	14.605	1451.289	1100.607
241.015	14.694	1450.247	1100.303
242.030	14.827	1448.560	1099.803
243.045	14.757	1447.870	1098.722
244.059	14.822	1446.867	1098.285
245.074	14.902	1445.759	1097.872
246.088	14.778	1445.522	1096.783
247.103	14.916	1444.204	1096.590
248.117	14.865	1443.771	1095.834
249.132	14.983	1442.908	1095.853
250.147	15.046	1442.156	1095.595
251.161	15.061	1441.605	1095.178
252.176	15.156	1440.638	1094.968
253.190	15.198	1439.755	1094.475
254.205	15.133	1439.082	1093.441
255.220	15.166	1438.217	1092.902
256.234	15.172	1437.383	1092.214
257.249	15.127	1436.820	1091.393
258.263	15.183	1435.889	1090.955
259.278	15.298	1434.514	1090.562
260.293	15.262	1433.677	1089.599
261.307	15.312	1432.795	1089.151
262.322	15.352	1432.119	1088.803
263.336	15.354	1431.518	1088.264
264.351	15.346	1430.907	1087.650
265.366	15.374	1429.493	1086.663
266.380	15.430	1428.395	1086.092
267.395	15.480	1426.988	1085.252
268.409	15.466	1426.383	1084.601
269.424	15.429	1425.358	1083.492
270.439	15.353	1424.772	1082.457
271.453	15.458	1423.238	1081.870
272.468	15.415	1422.688	1081.083
273.482	15.356	1422.223	1080.252
274.497	15.444	1421.275	1080.001
275.512	15.397	1420.114	1078.724
276.526	15.451	1419.186	1078.271
277.541	15.475	1417.741	1077.228
278.555	15.494	1417.316	1076.936
279.570	15.669	1416.447	1077.297
280.585	15.503	1415.383	1075.336
281.599	15.586	1414.737	1075.275
282.614	15.612	1413.679	1074.547
283.628	15.561	1412.587	1073.294
284.643	15.614	1411.784	1072.930
285.657	15.691	1410.321	1072.213
286.672	15.574	1409.603	1070.826
287.687	15.534	1409.107	1070.098
288.701	15.607	1407.719	1069.412
289.716	15.590	1406.940	1068.618
290.730	15.716	1406.046	1068.645
291.745	15.639	1405.343	1067.532
292.760	15.700	1403.842	1066.681
293.774	15.766	1402.887	1066.279
294.789	15.767	1401.818	1065.378
295.803	15.717	1401.311	1064.586
296.818	15.778	1400.427	1064.201
297.833	15.760	1399.279	1063.121
298.847	15.700	1398.563	1062.109
299.862	15.740	1397.330	1061.330
300.876	15.849	1396.244	1061.097
301.891	15.785	1395.682	1060.172
302.906	15.883	1394.441	1059.753
303.920	15.982	1393.538	1059.594
304.935	15.978	1393.133	1059.169
305.949	15.957	1392.187	1058.224
306.964	15.919	1391.695	1057.517
307.979	16.116	1389.867	1057.268
308.993	15.975	1389.995	1056.389
310.008	16.001	1388.868	1055.603
311.022	16.027	1387.659	1054.756
312.037	16.193	1386.279	1054.647
313.052	16.152	1385.519	1053.722
314.066	16.014	1385.276	1052.582
315.081	15.923	1384.312	1051.189
316.095	16.039	1382.684	1050.582
317.110	16.006	1381.718	1049.549
318.125	16.119	1380.322	1049.097
319.139	16.082	1379.848	1048.412
320.154	16.001	1379.162	1047.296
321.168	16.069	1377.820	1046.608
322.183	15.970	1377.390	1045.576
323.197	16.103	1375.868	1045.150
324.212	16.097	1374.963	1044.332
325.227	16.055	1374.410	1043.564
326.241	16.142	1373.478	1043.298
327.256	16.054	1372.658	1042.042
328.270	16.170	1371.632	1041.889
329.285	16.115	1370.619	1040.688
330.300	16.151	1369.669	1040.095
331.314	16.224	1368.348	1039.448
332.329	16.253	1367.915	1039.206
333.343	16.272	1366.904	1038.463
334.358	16.316	1366.360	1038.229
335.373	16.266	1365.255	1036.992
336.387	16.395	1364.245	1036.922
337.402	16.270	1363.957	1035.844
338.416	16.330	1363.329	1035.643
339.431	16.364	1362.437	1035.083
340.446	16.462	1361.309	1034.738
341.460	16.360	1360.746	1033.592
342.475	16.390	1359.597	1032.811
343.489	16.476	1358.833	1032.662
344.504	16.543	1357.738	1032.148
345.519	16.483	1357.207	1031.286
346.533	16.538	1355.781	1030.449
347.548	16.529	1355.373	1029.992
348.562	16.627	1354.237	1029.634
349.577	16.649	1353.399	1029.043
350.592	16.562	1353.011	1028.123
351.606	16.563	1351.919	1027.208
352.621	16.495	1350.913	1025.945
353.635	16.474	1349.733	1024.830
354.650	16.529	1348.894	1024.436
355.665	16.577	1347.371	1023.475
356.679	16.654	1346.690	1023.334
357.694	16.593	1345.690	1022.116
358.708	16.615	1344.550	1021.292
359.723	16.630	1343.382	1020.407
360.738	16.723	1342.581	1020.264
361.752	16.747	1341.082	1019.184
362.767	16.777	1340.267	1018.655
363.781	16.708	1339.645	1017.678
364.796	16.738	1338.925	1017.216
365.810	16.772	1337.934	1016.582
366.825	16.717	1337.502	1015.833
367.840	16.742	1336.734	1015.311
368.854	16.874	1335.859	1015.344
369.869	16.900	1335.471	1015.115
370.883	16.886	1334.915	1014.519
371.898	16.846	1334.059	1013.538
372.913	16.973	1333.217	1013.566
373.927	16.897	1332.172	1012.229
374.942	16.924	1331.268	1011.618
375.956	17.027	1330.833	1011.809
376.971	17.013	1329.823	1010.870
377.986	16.990	1329.285	1010.231
379.000	16.896	1328.394	1008.910
380.015	16.952	1327.372	1008.376
381.029	17.030	1326.878	1008.375
382.044	17.102	1325.820	1007.910
383.059	17.074	1325.494	1007.407
384.073	17.141	1324.555	1007.000
385.088	17.198	1323.788	1006.663
386.102	17.151	1322.941	1005.656
387.117	17.294	1321.959	1005.664
388.132	17.218	1321.531	1004.798
389.146	17.158	1320.741	1003.757
390.161	17.207	1319.660	1003.137
391.175	17.134	1319.493	1002.487
392.190	17.124	1318.702	1001.741
393.205	17.109	1317.785	1000.866
394.219	17.218	1316.551	1000.481
395.234	17.373	1315.437	1000.458
396.248	17.292	1313.952	998.765
397.263	17.309	1312.340	997.548
398.278	17.287	1311.261	996.516
399.292	17.245	1310.253	995.414
400.307	17.327	1309.035	994.878
401.321	17.221	1308.230	993.562
402.336	17.240	1307.120	992.740
403.350	17.263	1306.236	992.116
404.365	17.306	1305.117	991.428
405.380	17.229	1304.554	990.467
406.394	17.274	1304.009	990.225
407.409	17.354	1302.722	989.627
408.423	17.458	1301.946	989.551
409.438	17.423	1301.506	988.928
410.453	17.439	1300.870	988.448
411.467	17.432	1300.297	987.888
412.482	17.415	1299.941	987.429
413.496	17.534	1298.852	987.206
414.511	17.505	1298.319	986.546
415.526	17.602	1297.336	986.274
416.540	17.634	1296.717	985.901
417.555	17.719	1295.732	985.555
418.569	17.641	1295.408	984.768
419.584	17.701	1294.466	984.313
420.599	17.819	1293.335	984.044
421.613	91.662	1346.656	1446.904
422.628	90.172	1354.430	1447.032
