DTS Sentinel unit serial number:	SN413079Multiplexer serial number:	ORYXHardware model number:	OX4-SRSoftware version number:	ORYX F/W v4.00 Oryx Data Collector v3.7.2.0data status	okinstallation	princeton_trtdifferential loss correction	single-endedforward channel	channel 4reverse channel	N/Adate	2019/09/19time	04:01:34forward acquisition time	60.00reverse acquisition time	0.00gamma	496.2192k internal	0.2340k external	0.2340temperature offset calibration	1.0028default loss term (dB/km)	0.3790temperature slope calibration	1.0000multiplexer offset coefficient	1.0000multiplexer slope coefficient	1.0000fibre end	0.00T internal ref (°C)	20.42T ext. ref 1 (°C)	0.64T ext. ref 2 (°C)	14.03length (m)	temperature (°C)	Stokes	anti-Stokes-747.200	29.492	0.096	0.082
-746.185	-157.869	0.268	0.016
-745.171	24.969	-0.262	-0.218
-744.156	202.965	0.251	0.389
-743.142	-4.029	0.248	0.172
-742.127	271.066	-0.160	0.282
-741.112	-71.861	-0.224	0.083
-740.098	-20.265	0.142	-0.087
-739.083	-200.000	-0.006	0.448
-738.069	176.260	-0.100	-0.146
-737.054	-166.615	-0.242	0.010
-736.039	-196.862	-0.446	-0.003
-735.025	431.654	-0.101	0.220
-734.010	-88.662	-0.223	-0.066
-732.996	46.705	0.189	-0.176
-731.981	-45.839	-0.074	-0.037
-730.966	-89.177	0.102	-0.030
-729.952	-136.714	-0.184	-0.021
-728.937	800.000	0.093	-0.341
-727.923	-115.216	-0.403	0.077
-726.908	12.216	0.160	-0.123
-725.894	-8.597	-0.067	0.045
-724.879	68.839	0.184	-0.190
-723.864	-200.000	-0.029	-0.195
-722.850	-200.000	0.030	0.200
-721.835	-189.934	-0.187	0.002
-720.821	116.535	0.088	-0.108
-719.806	-200.000	0.021	0.306
-718.791	-10.564	-0.060	-0.040
-717.777	-114.826	-0.321	0.061
-716.762	339.505	0.158	0.308
-715.748	-30.148	-0.056	0.032
-714.733	-186.681	-0.431	-0.006
-713.718	-155.239	0.169	0.011
-712.704	-177.262	0.138	-0.003
-711.689	66.939	-0.331	0.338
-710.675	196.764	0.231	0.353
-709.660	-143.127	-0.140	0.014
-708.645	295.163	-0.125	-0.229
-707.631	-97.773	-0.387	-0.100
-706.616	800.000	-0.048	0.141
-705.602	225.739	-0.134	-0.218
-704.587	152.147	-0.207	-0.283
-703.572	195.207	0.053	-0.080
-702.558	620.421	-0.079	0.198
-701.543	40.149	-0.040	-0.036
-700.529	-155.741	0.257	-0.016
-699.514	-72.492	-0.244	-0.090
-698.499	76.271	-0.085	-0.090
-697.485	173.870	-0.220	-0.317
-696.470	-49.068	0.292	-0.140
-695.456	-58.205	0.445	0.194
-694.441	-200.000	-0.011	0.060
-693.426	93.292	0.068	0.077
-692.412	-200.000	-0.018	-0.230
-691.397	-200.000	-0.029	0.165
-690.383	21.759	-0.069	-0.056
-689.368	-52.428	0.317	-0.147
-688.354	-200.000	-0.024	-0.211
-687.339	-200.000	-0.053	0.324
-686.324	800.000	-0.052	-0.176
-685.310	-136.169	0.052	-0.006
-684.295	35.203	-0.154	-0.135
-683.281	-108.263	0.385	-0.083
-682.266	483.349	0.085	-0.192
-681.251	-152.769	-0.103	0.007
-680.237	800.000	-0.075	-0.286
-679.222	288.183	-0.190	-0.345
-678.208	688.664	0.071	0.185
-677.193	-200.000	-0.008	-0.226
-676.178	-46.200	0.114	-0.056
-675.164	-62.909	-0.330	-0.137
-674.149	-11.980	0.141	-0.092
-673.135	54.759	0.110	0.106
-672.120	2.386	0.012	-0.009
-671.105	93.802	-0.158	-0.179
-670.091	-160.600	-0.272	0.015
-669.076	-200.000	0.009	0.146
-668.062	-200.000	0.026	-0.151
-667.047	451.582	0.159	-0.350
-666.032	70.359	-0.167	0.173
-665.018	43.833	0.068	-0.062
-664.003	-200.000	0.062	-0.492
-662.989	498.682	-0.191	0.440
-661.974	452.510	-0.025	-0.056
-660.959	-141.287	-0.507	-0.052
-659.945	-184.879	0.151	-0.002
-658.930	-200.000	0.023	-0.280
-657.916	50.801	0.167	0.158
-656.901	52.821	-0.239	-0.228
-655.886	-84.306	0.119	-0.038
-654.872	641.651	0.034	0.087
-653.857	-200.000	-0.001	0.007
-652.843	-64.901	-0.182	-0.073
-651.828	-23.826	-0.211	0.126
-650.814	-86.864	-0.097	-0.029
-649.799	-200.000	-0.025	-0.222
-648.784	-91.970	0.147	-0.042
-647.770	15.231	-0.036	-0.028
-646.755	228.479	-0.114	-0.185
-645.741	-200.000	-0.015	0.221
-644.726	10.598	-0.172	0.131
-643.711	-200.000	-0.065	0.434
-642.697	800.000	-0.081	0.266
-641.682	-95.642	-0.398	-0.106
-640.668	-200.000	0.011	-0.062
-639.653	-128.689	-0.424	-0.060
-638.638	32.106	-0.068	0.058
-637.624	-93.426	0.135	-0.037
-636.609	-44.382	-0.256	-0.128
-635.595	-109.443	0.059	-0.012
-634.580	-200.000	-0.039	-0.258
-633.565	-119.102	-0.228	-0.040
-632.551	-66.749	-0.389	0.154
-631.536	-200.000	-0.015	-0.244
-630.522	532.207	-0.162	-0.382
-629.507	800.000	0.049	0.201
-628.492	-29.381	0.157	-0.090
-627.478	-128.889	-0.050	-0.007
-626.463	-70.968	-0.312	0.117
-625.449	202.656	0.164	0.252
-624.434	-150.996	0.137	-0.010
-623.419	800.000	0.013	0.041
-622.405	402.365	-0.115	-0.241
-621.390	-9.845	-0.111	0.074
-620.376	52.978	-0.267	0.255
-619.361	27.891	-0.131	0.110
-618.346	377.680	-0.093	0.190
-617.332	800.000	-0.071	-0.303
-616.317	-200.000	0.015	-0.091
-615.303	584.332	0.100	0.245
-614.288	-200.000	-0.025	0.327
-613.273	77.762	-0.076	-0.081
-612.259	-12.067	-0.195	0.128
-611.244	6.344	0.130	-0.096
-610.230	13.672	-0.096	-0.074
-609.215	-200.000	-0.003	0.096
-608.201	-143.370	0.195	-0.019
-607.186	-200.000	0.030	-0.225
-606.171	18.595	0.090	-0.072
-605.157	-74.693	0.299	0.107
-604.142	-200.000	0.002	-0.222
-603.128	-88.160	0.410	-0.122
-602.113	-102.136	0.228	0.055
-601.098	446.303	-0.104	0.228
-600.084	800.000	-0.018	-0.059
-599.069	101.241	0.196	-0.228
-598.055	-173.243	-0.303	0.009
-597.040	165.311	-0.101	-0.143
-596.025	-101.820	0.006	0.002
-595.011	800.000	0.068	0.259
-593.996	539.665	-0.074	0.176
-592.982	-77.733	0.239	-0.082
-591.967	-21.254	0.205	-0.125
-590.952	-79.784	-0.342	0.115
-589.938	-17.446	-0.085	-0.053
-588.923	609.701	0.093	0.233
-587.909	18.678	0.254	0.203
-586.894	124.750	-0.166	-0.208
-585.879	46.027	-0.022	0.020
-584.865	800.000	-0.141	-0.396
-583.850	38.383	0.327	-0.290
-582.836	-163.759	0.095	-0.004
-581.821	500.619	-0.118	-0.272
-580.806	-7.994	0.064	-0.043
-579.792	800.000	0.065	-0.249
-578.777	-35.232	-0.290	-0.157
-577.763	-200.000	0.012	-0.296
-576.748	702.843	-0.135	-0.354
-575.733	98.627	-0.162	-0.187
-574.719	80.532	-0.119	-0.127
-573.704	-137.194	0.307	0.035
-572.690	-71.581	-0.147	-0.055
-571.675	-200.000	-0.045	0.199
-570.661	-75.044	0.279	0.099
-569.646	125.205	0.114	0.143
-568.631	1.344	0.216	-0.155
-567.617	-86.726	-0.309	-0.094
-566.602	-39.705	-0.055	-0.029
-565.588	800.000	0.103	-0.291
-564.573	369.455	-0.167	0.337
-563.558	109.280	-0.265	0.316
-562.544	-200.000	-0.004	0.292
-561.529	45.112	0.248	0.227
-560.515	800.000	0.116	0.344
-559.500	168.085	-0.168	-0.238
-558.485	-200.000	0.010	0.422
-557.471	-200.000	-0.010	0.339
-556.456	256.992	-0.061	0.105
-555.442	800.000	0.051	0.156
-554.427	-96.824	0.205	0.054
-553.412	143.998	-0.027	-0.036
-552.398	-200.000	-0.054	0.341
-551.383	452.996	-0.120	-0.265
-550.369	208.096	0.143	0.223
-549.354	-200.000	-0.024	-0.155
-548.339	800.000	0.026	-0.099
-547.325	800.000	0.065	0.212
-546.310	-154.689	-0.429	-0.028
-545.296	-84.579	0.057	0.018
-544.281	96.993	0.079	0.090
-543.266	472.757	-0.030	0.067
-542.252	-101.313	0.092	-0.022
-541.237	800.000	0.030	0.083
-540.223	-49.179	-0.101	-0.048
-539.208	-128.914	0.247	-0.035
-538.193	-76.206	-0.409	-0.144
-537.179	-0.454	-0.066	-0.047
-536.164	4.917	-0.164	-0.120
-535.150	-40.672	-0.138	-0.071
-534.135	-109.817	-0.238	0.050
-533.121	34.901	0.080	0.070
-532.106	-63.634	-0.150	0.061
-531.091	-156.069	0.293	0.018
-530.077	133.011	-0.097	-0.124
-529.062	-17.948	-0.196	-0.122
-528.048	-94.425	0.196	0.053
-527.033	106.222	0.082	0.097
-526.018	77.454	-0.047	-0.050
-525.004	-200.000	0.039	-0.307
-523.989	800.000	-0.085	0.237
-522.975	-48.015	-0.100	-0.048
-521.960	-168.746	-0.253	-0.010
-520.945	-1.258	-0.080	-0.056
-519.931	-200.000	-0.006	-0.115
-518.916	-200.000	-0.046	0.295
-517.902	-57.639	-0.062	0.027
-516.887	-200.000	-0.001	0.126
-515.872	-200.000	-0.055	0.344
-514.858	171.641	0.086	-0.122
-513.843	66.408	0.270	-0.273
-512.829	145.747	-0.153	0.204
-511.814	19.856	0.080	-0.064
-510.799	-80.685	-0.160	-0.053
-509.785	-200.000	0.039	-0.177
-508.770	800.000	0.021	0.072
-507.756	800.000	-0.068	0.254
-506.741	-200.000	0.007	-0.091
-505.726	-179.854	0.173	0.004
-504.712	17.252	0.189	0.149
-503.697	-74.557	0.196	-0.070
-502.683	-200.000	-0.002	-0.069
-501.668	74.989	0.019	-0.019
-500.653	-95.546	0.161	0.043
-499.639	164.933	-0.103	0.144
-498.624	-153.705	-0.165	-0.011
-497.610	137.621	0.062	0.080
-496.595	-113.808	0.151	0.029
-495.581	35.295	-0.064	0.056
-494.566	359.191	0.123	0.243
-493.551	237.945	-0.020	0.034
-492.537	-200.000	-0.017	-0.221
-491.522	-200.000	-0.016	0.355
-490.508	448.607	0.088	0.191
-489.493	75.982	0.106	-0.111
-488.478	-96.470	-0.446	-0.117
-487.464	485.326	0.124	-0.279
-486.449	258.903	0.071	-0.122
-485.435	-40.850	-0.141	0.073
-484.420	120.929	0.283	-0.349
-483.405	-133.241	-0.396	-0.050
-482.391	-200.000	-0.017	-0.340
-481.376	-200.000	0.054	0.258
-480.362	21.018	-0.118	0.095
-479.347	127.633	0.144	0.181
-478.332	16.956	-0.126	0.099
-477.318	-200.000	-0.006	0.194
-476.303	218.365	-0.210	0.333
-475.289	-200.000	0.015	0.094
-474.274	75.950	-0.113	0.118
-473.259	102.806	-0.194	0.225
-472.245	-200.000	-0.027	-0.178
-471.230	116.563	-0.171	0.208
-470.216	800.000	-0.127	-0.446
-469.201	441.345	-0.043	0.094
-468.186	800.000	0.169	0.464
-467.172	675.416	0.070	0.180
-466.157	166.909	-0.186	-0.262
-465.143	-180.537	-0.094	0.002
-464.128	304.299	0.118	-0.216
-463.113	-82.809	-0.163	-0.052
-462.099	-68.419	0.151	0.058
-461.084	-200.000	-0.048	0.225
-460.070	-19.178	-0.252	-0.155
-459.055	160.068	0.122	0.169
-458.040	81.812	-0.303	-0.325
-457.026	513.484	0.103	-0.238
-456.011	-100.513	-0.175	-0.043
-454.997	190.641	0.143	0.213
-453.982	-113.098	0.388	-0.076
-452.968	-141.231	0.224	0.023
-451.953	639.469	0.033	0.084
-450.938	800.000	0.171	0.622
-449.924	81.983	0.128	0.138
-448.909	-28.509	-0.271	0.155
-447.895	-58.797	-0.327	-0.140
-446.880	251.125	0.105	-0.177
-445.865	27.983	-0.183	0.153
-444.851	214.020	-0.082	-0.128
-443.836	-5.215	0.121	0.082
-442.822	800.000	-0.077	-0.252
-441.807	53.160	0.096	0.091
-440.792	800.000	-0.063	-0.233
-439.778	-149.813	-0.278	-0.022
-438.763	-160.258	-0.091	0.005
-437.749	291.717	-0.204	-0.368
-436.734	-102.927	0.203	0.048
-435.719	390.674	0.042	0.085
-434.705	-7.892	-0.035	0.024
-433.690	68.301	0.205	-0.208
-432.676	-200.000	-0.068	0.373
-431.661	-200.000	0.016	-0.087
-430.646	-200.000	0.036	0.387
-429.632	-99.840	0.335	0.083
-428.617	47.564	0.319	0.295
-427.603	39.861	0.128	0.114
-426.588	52.620	-0.170	0.160
-425.573	689.293	0.110	-0.285
-424.559	-16.446	0.060	-0.038
-423.544	-60.810	-0.257	0.108
-422.530	-82.909	0.124	0.040
-421.515	174.726	-0.082	-0.117
-420.500	800.000	0.038	0.163
-419.486	101.390	-0.132	-0.152
-418.471	-19.055	0.098	-0.060
-417.457	-54.085	0.109	0.049
-416.442	33.876	-0.196	-0.169
-415.428	44.834	0.073	0.067
-414.413	800.000	-0.083	-0.316
-413.398	-200.000	-0.131	0.000
-412.384	764.499	0.122	0.329
-411.369	16.843	0.203	0.159
-410.355	-31.362	0.254	0.142
-409.340	-200.000	-0.045	0.263
-408.325	61.053	-0.056	-0.055
-407.311	-200.000	-0.058	0.329
-406.296	-49.817	0.327	0.154
-405.282	241.655	-0.131	0.217
-404.267	239.736	0.096	-0.158
-403.252	-136.635	0.381	-0.044
-402.238	-65.888	-0.440	0.174
-401.223	39.440	0.309	0.274
-400.209	-200.000	0.038	-0.267
-399.194	-200.000	0.049	0.336
-398.179	49.730	0.193	-0.180
-397.165	137.837	0.047	-0.061
-396.150	355.566	0.092	0.182
-395.136	86.034	0.374	-0.407
-394.121	9.914	-0.165	0.124
-393.106	48.669	-0.100	-0.092
-392.092	-28.480	0.336	0.192
-391.077	-28.399	0.140	0.080
-390.063	-20.742	-0.254	0.154
-389.048	339.274	0.117	-0.226
-388.033	800.000	-0.063	-0.218
-387.019	-200.000	-0.025	-0.177
-386.004	256.441	0.114	-0.193
-384.990	-108.245	0.224	-0.048
-383.975	194.142	0.110	0.165
-382.960	-41.381	0.090	0.046
-381.946	-2.502	-0.149	-0.103
-380.931	-86.837	0.418	0.126
-379.917	-166.110	0.290	-0.012
-378.902	-9.648	0.326	0.215
-377.888	-16.006	-0.050	-0.031
-376.873	-51.673	0.253	0.117
-375.858	-34.242	-0.101	0.055
-374.844	210.704	-0.100	0.156
-373.829	44.632	0.448	-0.407
-372.815	90.567	-0.089	-0.099
-371.800	-37.759	-0.169	0.089
-370.785	0.632	0.182	0.129
-369.771	-90.956	0.211	0.060
-368.756	74.776	-0.115	-0.120
-367.742	800.000	-0.059	-0.187
-366.727	-200.000	0.006	0.102
-365.712	-180.301	0.143	0.003
-364.698	491.532	-0.086	-0.194
-363.683	187.019	0.105	0.154
-362.669	-135.584	-0.264	0.031
-361.654	7.535	-0.330	-0.243
-360.639	-200.000	-0.072	-0.313
-359.625	800.000	-0.014	-0.043
-358.610	72.645	0.053	0.055
-357.596	-39.319	-0.156	-0.081
-356.581	72.372	0.131	0.135
-355.566	800.000	-0.036	-0.143
-354.552	800.000	0.088	0.267
-353.537	45.802	-0.085	0.078
-352.523	225.222	0.052	0.083
-351.508	464.209	0.095	-0.209
-350.493	-45.427	0.140	-0.068
-349.479	-200.000	0.034	-0.158
-348.464	-51.173	-0.229	0.106
-347.450	-11.414	0.186	0.121
-346.435	279.394	0.069	0.122
-345.420	-72.551	-0.265	0.096
-344.406	21.829	0.259	-0.208
-343.391	598.603	-0.064	-0.158
-342.377	-200.000	0.030	-0.238
-341.362	800.000	0.072	0.265
-340.348	195.549	-0.248	-0.372
-339.333	594.460	-0.022	-0.053
-338.318	-59.638	-0.168	0.071
-337.304	-200.000	0.113	-0.530
-336.289	-198.271	-0.176	-0.001
-335.275	195.519	-0.099	0.149
-334.260	-70.076	0.270	-0.101
-333.245	64.420	0.205	-0.203
-332.231	-177.216	0.098	0.002
-331.216	122.220	-0.241	-0.297
-330.202	60.231	0.107	-0.105
-329.187	139.890	-0.089	0.116
-328.172	332.449	-0.131	0.250
-327.158	-200.000	-0.044	0.334
-326.143	-53.133	0.134	0.061
-325.129	-155.037	0.250	-0.016
-324.114	22.676	0.058	0.047
-323.099	-11.152	-0.108	0.070
-322.085	-116.162	-0.059	0.011
-321.070	32.417	0.163	-0.139
-320.056	-97.560	0.344	-0.088
-319.041	122.254	0.180	-0.221
-318.026	-54.671	-0.074	0.033
-317.012	704.458	-0.048	-0.126
-315.997	10.331	-0.244	0.183
-314.983	29.655	0.326	0.274
-313.968	-52.842	-0.135	0.061
-312.953	800.000	-0.065	0.279
-311.939	68.883	-0.013	-0.013
-310.924	114.040	0.266	-0.319
-309.910	142.242	0.242	0.316
-308.895	324.970	0.159	0.300
-307.880	48.497	0.127	-0.117
-306.866	-88.350	0.317	0.093
-305.851	-153.749	0.102	-0.007
-304.837	158.769	0.042	0.058
-303.822	-132.680	0.288	-0.036
-302.807	15.177	-0.116	0.090
-301.793	-39.629	0.142	0.073
-300.778	558.577	-0.043	-0.101
-299.764	-200.000	0.034	0.151
-298.749	102.573	0.253	-0.291
-297.735	800.000	0.049	-0.179
-296.720	-200.000	0.007	-0.247
-295.705	800.000	-0.008	0.022
-294.691	-28.817	0.156	0.088
-293.676	396.202	0.067	0.137
-292.662	45.198	0.341	-0.310
-291.647	-47.339	0.137	0.066
-290.632	27.648	-0.244	-0.202
-289.618	-124.587	0.432	0.066
-288.603	800.000	0.015	-0.052
-287.589	153.308	-0.097	0.131
-286.574	192.090	-0.117	0.174
-285.559	-29.771	0.177	0.099
-284.545	-104.030	-0.238	0.055
-283.530	331.335	0.116	0.221
-282.516	132.996	0.187	-0.238
-281.501	520.474	-0.103	-0.239
-280.486	-139.129	0.222	-0.024
-279.472	-200.000	0.347	-0.001
-278.457	-42.940	-0.160	-0.080
-277.443	-84.243	-0.229	0.071
-276.428	-2.608	0.240	0.166
-275.413	-129.423	-0.129	-0.018
-274.399	474.034	0.102	0.226
-273.384	104.569	0.224	-0.260
-272.370	800.000	0.063	-0.214
-271.355	-200.000	-0.023	0.297
-270.340	179.823	0.145	-0.210
-269.326	800.000	-0.076	0.220
-268.311	419.065	-0.089	-0.188
-267.297	-108.262	0.177	-0.038
-266.282	-81.006	0.044	0.014
-265.267	-90.754	0.371	-0.105
-264.253	0.662	-0.225	-0.158
-263.238	-114.621	0.402	-0.076
-262.224	-11.156	-0.115	0.074
-261.209	800.000	-0.045	-0.141
-260.195	-148.832	-0.203	0.016
-259.180	-89.460	0.312	-0.090
-258.165	139.080	0.066	-0.085
-257.151	681.991	0.110	-0.283
-256.136	-49.309	0.222	-0.104
-255.122	-195.189	-0.344	0.003
-254.107	-90.207	-0.247	-0.071
-253.092	-55.449	-0.249	-0.110
-252.078	-49.339	0.146	-0.068
-251.063	-182.201	-0.437	0.008
-250.049	-28.824	0.114	-0.065
-249.034	37.619	-0.187	0.163
-248.019	-41.573	-0.447	-0.226
-247.005	-165.577	-0.552	0.024
-245.990	-200.000	0.039	-0.193
-244.976	-102.220	0.169	0.040
-243.961	401.879	0.048	0.100
-242.946	18.225	-0.208	-0.163
-241.932	464.223	0.066	-0.144
-240.917	-200.000	0.067	0.402
-239.903	-11.315	0.318	0.206
-238.888	-200.000	-0.024	-0.145
-237.873	-85.224	0.126	0.039
-236.859	-200.000	-0.106	0.469
-235.844	-200.000	-0.027	-0.263
-234.830	-200.000	-0.000	0.175
-233.815	-200.000	0.170	0.000
-232.800	-200.000	0.036	0.184
-231.786	-46.669	-0.138	-0.066
-230.771	238.210	0.209	0.341
-229.757	68.823	-0.119	0.120
-228.742	112.033	0.026	-0.031
-227.727	-101.202	-0.108	-0.026
-226.713	239.471	-0.173	-0.284
-225.698	-78.307	-0.266	0.090
-224.684	422.926	0.245	0.517
-223.669	171.883	-0.119	-0.168
-222.655	-200.000	-0.073	-0.319
-221.640	-200.000	-0.014	-0.288
-220.625	371.049	-0.041	0.082
-219.611	-77.869	-0.223	0.076
-218.596	-200.000	0.006	0.133
-217.582	-200.000	0.049	-0.309
-216.567	239.280	0.140	0.228
-215.552	87.391	0.166	-0.180
-214.538	416.474	-0.110	0.230
-213.523	191.658	-0.152	-0.225
-212.509	95.084	0.081	-0.090
-211.494	800.000	-0.045	-0.182
-210.479	-200.000	-0.022	0.229
-209.465	224.184	0.056	0.088
-208.450	-21.379	0.048	0.029
-207.436	-77.142	0.210	0.072
-206.421	20.409	-0.136	-0.108
-205.406	-72.557	0.273	-0.099
-204.392	-141.893	-0.399	0.039
-203.377	63.767	-0.159	0.157
-202.363	5.699	-0.065	-0.047
-201.348	-105.799	-0.256	-0.057
-200.333	-157.093	-0.168	-0.010
-199.319	-200.000	0.013	-0.240
-198.304	-8.054	-0.231	0.153
-197.290	800.000	-0.060	-0.223
-196.275	-200.000	-0.017	-0.147
-195.260	-150.267	0.240	0.018
-194.246	-200.000	-0.056	0.250
-193.231	-200.000	0.096	0.494
-192.217	136.032	-0.046	-0.059
-191.202	789.946	0.059	-0.160
-190.187	-86.092	-0.199	-0.060
-189.173	41.357	0.190	-0.169
-188.158	287.636	0.221	-0.393
-187.144	-30.284	-0.231	0.129
-186.129	-11.482	0.159	0.103
-185.114	-200.000	-0.001	0.067
-184.100	800.000	-0.020	-0.057
-183.085	-200.000	0.011	-0.081
-182.071	-136.390	-0.365	0.042
-181.056	-200.000	-0.002	-0.296
-180.042	10.276	-0.339	-0.253
-179.027	-200.000	-0.061	0.282
-178.012	-98.665	0.378	-0.095
-176.998	-133.104	-0.262	0.033
-175.983	800.000	-0.107	-0.362
-174.969	156.911	-0.197	-0.267
-173.954	-74.977	0.108	-0.038
-172.939	60.533	-0.240	0.233
-171.925	631.840	-0.077	-0.190
-170.910	-103.718	-0.276	0.063
-169.896	-47.231	-0.237	0.113
-168.881	77.753	-0.178	-0.186
-167.866	-149.350	0.335	0.026
-166.852	800.000	0.089	0.246
-165.837	32.256	-0.307	-0.260
-164.823	800.000	0.042	0.133
-163.808	543.398	-0.175	-0.409
-162.793	-67.584	-0.298	0.115
-161.779	245.436	0.192	0.317
-160.764	120.672	0.136	-0.165
-159.750	-200.000	-0.016	-0.138
-158.735	-86.968	0.397	0.119
-157.720	458.021	0.080	0.173
-156.706	-143.663	0.384	0.036
-155.691	-200.000	-0.225	-0.001
-154.677	48.789	0.065	-0.059
-153.662	-65.472	-0.257	-0.101
-152.647	48.238	-0.316	-0.290
-151.633	644.798	-0.050	0.125
-150.618	-200.000	0.033	0.295
-149.604	292.770	0.163	0.291
-148.589	-77.388	-0.225	-0.077
-147.574	-35.925	-0.212	0.113
-146.560	800.000	-0.036	-0.102
-145.545	-84.356	-0.080	0.025
-144.531	11.095	0.145	0.109
-143.516	60.546	0.035	0.034
-142.502	800.000	0.074	0.232
-141.487	336.362	-0.076	-0.144
-140.472	-200.000	0.017	-0.186
-139.458	-200.000	0.007	0.076
-138.443	190.368	-0.124	-0.183
-137.429	51.981	0.090	0.084
-136.414	-126.517	0.108	-0.016
-135.399	-200.000	-0.037	0.281
-134.385	665.886	-0.037	-0.095
-133.370	51.134	0.205	-0.190
-132.356	-66.613	-0.265	-0.103
-131.341	6.358	0.145	-0.105
-130.326	-141.197	0.092	0.009
-129.312	237.156	-0.018	0.030
-128.297	6.231	0.167	0.122
-127.283	-76.133	-0.122	0.042
-126.268	529.771	-0.025	0.059
-125.253	-53.699	-0.330	0.148
-124.239	-79.868	-0.376	-0.124
-123.224	124.121	-0.172	0.212
-122.210	99.193	-0.107	-0.121
-121.195	304.028	-0.216	0.392
-120.180	-9.944	-0.195	0.127
-119.166	-33.489	0.203	-0.110
-118.151	800.000	-0.033	0.090
-117.137	-200.000	0.052	-0.423
-116.122	800.000	0.037	-0.127
-115.107	-200.000	-0.011	0.173
-114.093	-200.000	-0.016	0.350
-113.078	-200.000	0.012	0.128
-112.064	243.585	0.079	0.130
-111.049	5.081	0.248	0.179
-110.034	-50.552	-0.435	-0.200
-109.020	56.177	0.198	0.188
-108.005	-22.297	-0.089	-0.053
-106.991	177.289	-0.203	-0.290
-105.976	-148.914	0.321	-0.025
-104.962	-49.054	0.313	0.146
-103.947	289.233	0.130	0.230
-102.932	-30.218	0.239	0.133
-101.918	-87.073	-0.337	0.100
-100.903	-58.708	0.323	0.137
-99.889	-200.000	-0.012	0.058
-98.874	-40.075	0.318	0.162
-97.859	-50.220	0.060	0.028
-96.845	800.000	0.083	-0.292
-95.830	-67.440	-0.145	0.056
-94.816	14.505	-0.099	-0.076
-93.801	-200.000	0.009	0.096
-92.786	-38.486	0.120	-0.062
-91.772	-200.000	-0.030	-0.197
-90.757	-200.000	-0.031	0.298
-89.743	2.730	-0.105	0.074
-88.728	-134.180	0.156	-0.019
-87.713	-164.523	0.220	0.010
-86.699	-79.300	-0.181	-0.060
-85.684	349.804	-0.139	-0.269
-84.670	-41.782	0.114	0.057
-83.655	1.895	0.171	-0.120
-82.640	-200.000	-0.022	-0.149
-81.626	559.387	-0.068	0.159
-80.611	-142.199	0.141	-0.014
-79.597	274.331	-0.143	-0.247
-78.582	-200.000	0.041	0.512
-77.567	583.351	-0.136	0.326
-76.553	-47.759	0.156	0.074
-75.538	-200.000	-0.069	0.483
-74.524	35.303	-0.162	0.138
-73.509	-75.154	-0.052	-0.018
-72.494	-189.031	0.255	0.003
-71.480	-120.580	-0.308	0.051
-70.465	-68.130	-0.070	-0.027
-69.451	398.704	0.129	-0.263
-68.436	-4.822	-0.361	-0.243
-67.422	800.000	0.042	0.152
-66.407	284.961	0.120	0.211
-65.392	-29.398	-0.221	0.124
-64.378	-8.358	0.248	0.163
-63.363	-200.000	-0.011	-0.082
-62.349	-97.465	-0.140	-0.036
-61.334	0.518	-1.358	-0.947
-60.319	47.140	0.883	0.802
-59.305	603.678	-0.626	-1.521
-58.290	347.812	0.768	1.477
-57.276	280.828	0.895	1.563
-56.261	-200.000	136.139	656.873
-55.246	333.795	1669.397	3151.968
-54.232	132.846	2808.390	3537.705
-53.217	77.105	2349.792	2436.694
-52.203	26.469	2091.204	1706.745
-51.188	22.033	2008.626	1598.983
-50.173	21.186	1994.136	1579.729
-49.159	39.179	2071.857	1808.632
-48.144	36.612	2081.923	1793.571
-47.130	22.418	2034.102	1622.561
-46.115	20.399	2023.483	1595.494
-45.100	20.325	2020.282	1592.230
-44.086	20.397	2017.703	1590.788
-43.071	20.275	2015.194	1587.628
-42.057	20.280	2013.463	1586.250
-41.042	20.287	2011.504	1584.713
-40.027	20.313	2009.905	1583.624
-39.013	20.371	2007.759	1582.401
-37.998	20.320	2005.928	1580.432
-36.984	20.379	2003.964	1579.354
-35.969	20.340	2002.428	1577.724
-34.954	20.309	2001.107	1576.340
-33.940	20.374	1999.792	1575.836
-32.925	20.417	1998.151	1574.868
-31.911	20.437	1995.972	1573.269
-30.896	20.343	1994.621	1571.289
-29.881	20.372	1993.470	1570.586
-28.867	20.498	1990.943	1569.667
-27.852	20.475	1989.957	1568.619
-26.838	20.487	1987.691	1566.882
-25.823	20.456	1985.880	1565.117
-24.809	20.462	1983.882	1563.530
-23.794	20.437	1982.604	1562.236
-22.779	20.502	1981.169	1561.625
-21.765	20.437	1979.900	1559.983
-20.750	20.397	1977.830	1557.925
-19.736	20.517	1975.553	1557.152
-18.721	20.501	1974.661	1556.242
-17.706	20.486	1972.961	1554.708
-16.692	20.379	1971.395	1552.452
-15.677	20.418	1969.528	1551.273
-14.663	20.489	1968.443	1550.986
-13.648	20.506	1967.512	1550.346
-12.633	20.389	1966.813	1548.689
-11.619	20.414	1964.727	1547.203
-10.604	20.469	1963.242	1546.466
-9.590	20.377	1962.287	1544.833
-8.575	20.495	1960.536	1544.446
-7.560	20.450	1959.105	1542.857
-6.546	20.491	1958.082	1542.347
-5.531	20.370	1957.110	1540.452
-4.517	20.416	1955.721	1539.708
-3.502	20.357	1954.871	1538.452
-2.487	20.415	1953.473	1537.801
-1.473	20.481	1952.158	1537.292
-0.458	20.456	1946.891	1532.861
0.556	19.062	1926.170	1502.374
1.571	14.751	1907.277	1450.155
2.586	10.848	1930.289	1433.167
3.600	9.936	1964.870	1450.527
4.615	10.016	1957.422	1445.618
5.629	8.052	1857.061	1354.692
6.644	3.399	1746.704	1236.806
7.659	0.855	1716.850	1195.471
8.673	0.674	1714.423	1192.248
9.688	0.706	1713.151	1191.515
10.702	0.662	1711.729	1190.076
11.717	0.508	1707.512	1185.824
12.731	0.890	1705.612	1187.402
13.746	4.650	1713.518	1222.391
14.761	11.318	1727.297	1284.797
15.775	16.132	1735.781	1329.014
16.790	17.134	1736.828	1337.594
17.804	16.340	1733.557	1328.714
18.819	15.319	1731.078	1318.674
19.834	14.727	1728.389	1311.858
20.848	14.402	1727.042	1308.173
21.863	14.331	1725.322	1306.194
22.877	13.924	1723.986	1301.881
23.892	13.782	1722.579	1299.590
24.907	13.593	1721.603	1297.260
25.921	13.620	1720.136	1296.250
26.936	13.706	1719.145	1296.061
27.950	13.720	1718.396	1295.487
28.965	13.685	1717.743	1294.609
29.980	13.794	1717.158	1294.904
30.994	13.833	1715.843	1294.103
32.009	13.832	1714.698	1293.114
33.023	13.834	1713.950	1292.455
34.038	13.923	1713.250	1292.507
35.053	13.849	1711.804	1290.720
36.067	13.841	1710.230	1289.358
37.082	13.816	1710.197	1289.030
38.096	13.855	1708.444	1287.895
39.111	13.893	1707.869	1287.645
40.126	13.891	1706.737	1286.659
41.140	13.884	1705.841	1285.814
42.155	13.720	1704.880	1283.710
43.169	13.747	1703.168	1282.515
44.184	13.698	1701.901	1281.068
45.199	13.584	1701.389	1279.691
46.213	13.618	1699.771	1278.623
47.228	13.672	1698.721	1278.135
48.242	13.746	1697.337	1277.553
49.257	13.683	1696.584	1276.387
50.271	13.761	1694.511	1275.310
51.286	13.778	1693.483	1274.556
52.301	13.721	1692.109	1272.971
53.315	13.742	1690.645	1271.919
54.330	13.714	1689.187	1270.498
55.344	13.720	1687.432	1269.106
56.359	13.699	1686.370	1268.035
57.374	13.722	1684.867	1266.967
58.388	13.735	1683.743	1266.112
59.403	13.712	1682.015	1264.525
60.417	13.712	1680.539	1263.306
61.432	13.669	1679.877	1262.366
62.447	13.533	1678.830	1260.433
63.461	13.629	1677.480	1260.041
64.476	13.522	1676.584	1258.443
65.490	13.584	1675.372	1257.892
66.505	13.603	1673.961	1256.862
67.520	13.589	1672.801	1255.779
68.534	13.641	1671.779	1255.289
69.549	13.603	1671.124	1254.396
70.563	13.666	1669.192	1253.317
71.578	13.689	1668.000	1252.486
72.593	13.644	1666.846	1251.164
73.607	13.595	1665.983	1250.041
74.622	13.580	1664.614	1248.791
75.636	13.579	1663.494	1247.831
76.651	13.560	1662.971	1247.180
77.666	13.512	1661.849	1245.870
78.680	13.569	1660.690	1245.320
79.695	13.604	1659.999	1244.951
80.709	13.659	1658.549	1244.167
81.724	13.520	1658.666	1243.101
82.739	13.593	1657.052	1242.334
83.753	13.613	1656.286	1241.795
84.768	13.645	1655.225	1241.128
85.782	13.671	1654.962	1241.023
86.797	13.832	1653.175	1240.773
87.812	13.775	1652.134	1239.458
88.826	13.773	1650.816	1238.340
89.841	13.755	1649.611	1237.195
90.855	13.692	1648.510	1235.788
91.870	13.751	1647.688	1235.500
92.884	13.720	1646.931	1234.599
93.899	13.782	1645.826	1234.121
94.914	13.774	1644.402	1232.885
95.928	13.875	1642.632	1232.195
96.943	13.867	1641.776	1231.388
97.957	13.779	1640.744	1229.848
98.972	13.858	1638.395	1228.564
99.987	13.827	1636.770	1227.012
101.001	13.757	1636.069	1225.857
102.016	13.895	1633.636	1224.947
103.030	13.814	1632.554	1223.430
104.045	13.786	1631.860	1222.594
105.060	13.832	1629.712	1221.213
106.074	13.736	1628.921	1219.811
107.089	13.724	1627.344	1218.435
108.103	13.715	1626.206	1217.402
109.118	13.649	1624.866	1215.812
110.133	13.659	1622.762	1214.205
111.147	13.673	1621.742	1213.433
112.162	13.607	1620.541	1211.942
113.176	13.651	1619.088	1211.076
114.191	13.633	1618.165	1210.142
115.206	13.702	1616.240	1209.100
116.220	13.674	1615.021	1207.879
117.235	13.704	1613.496	1206.848
118.249	13.720	1611.890	1205.655
119.264	13.686	1611.197	1204.785
120.279	13.724	1609.381	1203.593
121.293	13.743	1607.521	1202.237
122.308	13.706	1606.591	1201.163
123.322	13.661	1605.175	1199.678
124.337	13.658	1603.669	1198.423
125.352	13.683	1602.118	1197.338
126.366	13.674	1600.741	1196.135
127.381	13.658	1599.958	1195.332
128.395	13.634	1598.780	1194.172
129.410	13.624	1597.253	1192.856
130.424	13.637	1595.465	1191.509
131.439	13.658	1594.298	1190.684
132.454	13.679	1593.002	1189.760
133.468	13.721	1591.087	1188.523
134.483	13.782	1589.671	1187.798
135.497	13.898	1587.760	1187.096
136.512	13.786	1586.985	1185.607
137.527	13.757	1586.086	1184.629
138.541	13.738	1584.272	1183.031
139.556	13.808	1582.865	1182.376
140.570	13.785	1581.648	1181.198
141.585	13.833	1580.019	1180.219
142.600	13.857	1579.466	1179.874
143.614	13.904	1578.107	1179.082
144.629	13.925	1576.537	1177.956
145.643	13.885	1575.413	1176.728
146.658	13.899	1574.192	1175.813
147.673	13.919	1572.121	1174.300
148.687	13.976	1570.723	1173.560
149.702	13.949	1569.072	1172.031
150.716	13.896	1567.740	1170.559
151.731	13.791	1566.707	1168.940
152.746	13.909	1565.059	1168.442
153.760	13.917	1563.713	1167.384
154.775	13.914	1562.567	1166.406
155.789	13.949	1560.975	1165.360
156.804	14.047	1559.430	1164.794
157.819	14.058	1558.452	1164.032
158.833	14.056	1557.131	1162.932
159.848	14.074	1555.769	1161.937
160.862	14.087	1554.501	1160.981
161.877	14.058	1553.525	1159.943
162.892	14.023	1552.445	1158.788
163.906	14.033	1551.381	1157.964
164.921	14.025	1549.774	1156.604
165.935	14.000	1548.861	1155.650
166.950	14.125	1547.171	1155.152
167.964	13.992	1546.663	1153.751
168.979	14.073	1545.254	1153.159
169.994	14.219	1543.618	1152.848
171.008	14.188	1542.710	1151.852
172.023	14.009	1542.541	1150.388
173.037	14.175	1540.765	1150.102
174.052	14.187	1539.965	1149.493
175.067	14.165	1538.656	1148.261
176.081	14.201	1537.466	1147.520
177.096	14.174	1536.023	1146.151
178.110	14.204	1534.804	1145.352
179.125	14.138	1533.541	1143.848
180.140	14.145	1532.434	1142.973
181.154	14.175	1531.401	1142.307
182.169	14.234	1530.309	1141.795
183.183	14.254	1529.146	1140.964
184.198	14.216	1527.788	1139.589
185.213	14.253	1527.231	1139.327
186.227	14.350	1525.811	1138.828
187.242	14.284	1524.778	1137.509
188.256	14.466	1523.206	1137.477
189.271	14.325	1522.078	1135.571
190.286	14.470	1520.853	1135.545
191.300	14.340	1520.002	1133.924
192.315	14.232	1518.810	1132.202
193.329	14.290	1517.286	1131.360
194.344	14.249	1516.748	1130.576
195.359	14.242	1515.445	1129.459
196.373	14.322	1513.842	1128.708
197.388	14.330	1513.153	1128.149
198.402	14.406	1512.108	1127.783
199.417	14.531	1510.507	1127.337
200.432	14.588	1509.317	1126.731
201.446	14.434	1509.055	1125.396
202.461	14.588	1507.190	1124.946
203.475	14.566	1506.360	1124.074
204.490	14.585	1505.248	1123.278
205.504	14.570	1504.265	1122.344
206.519	14.594	1503.061	1121.507
207.534	14.578	1501.604	1120.211
208.548	14.535	1500.892	1119.293
209.563	14.519	1499.753	1118.235
210.577	14.528	1498.400	1117.187
211.592	14.545	1497.357	1116.425
212.607	14.657	1496.547	1116.476
213.621	14.591	1496.172	1115.655
214.636	14.675	1494.665	1114.991
215.650	14.737	1493.917	1114.747
216.665	14.726	1492.954	1113.860
217.680	14.695	1492.317	1113.079
218.694	14.789	1491.171	1112.749
219.709	14.701	1490.706	1111.717
220.723	14.800	1488.994	1111.002
221.738	14.745	1488.382	1110.081
222.753	14.788	1487.658	1109.731
223.767	14.761	1486.477	1108.573
224.782	14.681	1485.588	1107.281
225.796	14.814	1484.422	1107.193
226.811	14.932	1483.414	1107.124
227.826	14.843	1482.888	1106.042
228.840	14.856	1482.204	1105.526
229.855	14.847	1481.313	1104.702
230.869	14.921	1479.763	1103.938
231.884	14.903	1478.750	1102.965
232.899	14.822	1477.537	1101.426
233.913	14.951	1476.148	1101.142
234.928	14.882	1475.400	1100.038
235.942	14.769	1474.468	1098.499
236.957	14.861	1472.894	1097.837
237.972	14.866	1471.934	1097.054
238.986	14.882	1470.663	1096.116
240.001	14.838	1469.695	1095.007
241.015	15.025	1468.315	1095.104
242.030	14.920	1467.292	1093.561
243.045	14.858	1467.188	1092.983
244.059	15.003	1465.770	1092.775
245.074	15.061	1464.562	1092.154
246.088	15.044	1463.857	1091.425
247.103	15.056	1463.069	1090.817
248.117	15.085	1462.259	1090.304
249.132	15.123	1461.247	1089.700
250.147	15.260	1460.847	1090.197
251.161	15.224	1460.403	1089.533
252.176	15.216	1459.831	1088.961
253.190	15.280	1458.797	1088.512
254.205	15.156	1458.154	1087.127
255.220	15.380	1456.778	1087.457
256.234	15.339	1456.167	1086.643
257.249	15.424	1454.938	1086.175
258.263	15.424	1453.946	1085.341
259.278	15.368	1453.189	1084.319
260.293	15.499	1451.860	1084.074
261.307	15.427	1451.569	1083.297
262.322	15.408	1451.059	1082.696
263.336	15.490	1449.921	1082.283
264.351	15.538	1448.845	1081.692
265.366	15.446	1448.144	1080.483
266.380	15.444	1447.254	1079.708
267.395	15.482	1446.320	1079.159
268.409	15.570	1445.113	1078.728
269.424	15.543	1444.159	1077.750
270.439	15.584	1443.056	1077.094
271.453	15.573	1441.839	1076.021
272.468	15.643	1440.960	1075.715
273.482	15.648	1440.165	1075.059
274.497	15.604	1439.585	1074.251
275.512	15.527	1438.475	1072.833
276.526	15.680	1437.457	1072.958
277.541	15.613	1436.589	1071.787
278.555	15.648	1435.599	1071.175
279.570	15.645	1434.964	1070.587
280.585	15.722	1433.743	1070.071
281.599	15.778	1432.964	1069.752
282.614	15.736	1432.546	1069.082
283.628	15.754	1431.107	1068.027
284.643	15.698	1429.944	1066.704
285.657	15.734	1428.522	1065.780
286.672	15.734	1428.007	1065.300
287.687	15.743	1427.321	1064.753
288.701	15.788	1426.066	1064.006
289.716	15.828	1424.862	1063.268
290.730	15.835	1424.547	1062.980
291.745	15.851	1422.883	1061.748
292.760	15.926	1422.253	1061.658
293.774	15.897	1421.038	1060.475
294.789	15.932	1420.152	1059.937
295.803	15.943	1419.494	1059.420
296.818	16.019	1418.505	1059.067
297.833	15.892	1417.755	1057.618
298.847	15.932	1417.038	1057.238
299.862	15.928	1415.344	1055.854
300.876	16.044	1414.513	1055.873
301.891	16.001	1414.094	1055.197
302.906	16.013	1413.228	1054.534
303.920	16.100	1412.237	1054.244
304.935	16.061	1411.532	1053.376
305.949	15.994	1411.177	1052.604
306.964	16.169	1410.155	1052.841
307.979	16.225	1408.938	1052.186
308.993	16.120	1407.545	1050.396
310.008	16.194	1406.880	1050.268
311.022	16.109	1405.942	1048.950
312.037	16.198	1405.050	1048.745
313.052	16.310	1403.638	1048.294
314.066	16.261	1403.210	1047.577
315.081	16.162	1402.274	1046.168
316.095	16.252	1400.882	1045.599
317.110	16.189	1399.848	1044.341
318.125	16.225	1398.624	1043.562
319.139	16.267	1397.809	1043.121
320.154	16.203	1397.283	1042.236
321.168	16.253	1396.060	1041.543
322.183	16.240	1394.919	1040.516
323.197	16.230	1394.353	1039.942
324.212	16.185	1393.526	1038.959
325.227	16.353	1392.594	1039.205
326.241	16.231	1391.608	1037.626
327.256	16.305	1390.724	1037.328
328.270	16.350	1389.814	1036.835
329.285	16.390	1388.617	1036.093
330.300	16.440	1387.606	1035.556
331.314	16.216	1387.546	1034.048
332.329	16.344	1386.227	1033.756
333.343	16.361	1385.298	1033.075
334.358	16.390	1384.326	1032.440
335.373	16.478	1383.568	1032.319
336.387	16.409	1382.768	1031.211
337.402	16.417	1381.858	1030.487
338.416	16.406	1381.474	1030.045
339.431	16.466	1380.428	1029.539
340.446	16.611	1379.586	1029.701
341.460	16.566	1378.885	1028.812
342.475	16.574	1377.745	1027.921
343.489	16.618	1376.724	1027.332
344.504	16.740	1375.548	1027.105
345.519	16.643	1375.041	1026.046
346.533	16.640	1373.801	1025.014
347.548	16.819	1373.010	1025.418
348.562	16.729	1372.505	1024.402
349.577	16.806	1371.476	1024.009
350.592	16.702	1370.856	1022.832
351.606	16.793	1369.706	1022.430
352.621	16.802	1368.344	1021.379
353.635	16.778	1367.708	1020.664
354.650	16.747	1366.766	1019.686
355.665	16.659	1365.653	1018.235
356.679	16.794	1364.497	1018.097
357.694	16.841	1363.501	1017.545
358.708	16.743	1362.515	1016.132
359.723	16.820	1361.142	1015.477
360.738	16.808	1360.857	1015.103
361.752	16.795	1359.315	1013.789
362.767	16.884	1357.835	1013.125
363.781	16.947	1357.249	1012.973
364.796	16.853	1357.215	1012.296
365.810	16.888	1356.146	1011.622
366.825	16.943	1355.435	1011.327
367.840	16.979	1354.305	1010.608
368.854	17.041	1353.806	1010.515
369.869	17.063	1353.209	1010.111
370.883	16.997	1352.823	1009.346
371.898	17.034	1351.835	1008.740
372.913	17.244	1350.280	1008.733
373.927	17.137	1349.721	1007.595
374.942	17.137	1349.155	1007.079
375.956	17.087	1348.599	1006.282
376.971	17.129	1347.201	1005.397
377.986	17.201	1346.851	1005.474
379.000	17.203	1345.781	1004.598
380.015	17.190	1345.551	1004.258
381.029	17.213	1344.493	1003.519
382.044	17.263	1343.585	1003.044
383.059	17.331	1342.649	1002.660
384.073	17.414	1341.845	1002.459
385.088	17.248	1341.588	1001.202
386.102	17.383	1340.832	1001.339
387.117	17.377	1340.367	1000.868
388.132	17.438	1339.364	1000.391
389.146	17.350	1338.199	998.916
390.161	17.250	1338.151	998.203
391.175	17.405	1337.009	998.175
392.190	17.420	1335.997	997.417
393.205	17.515	1334.995	997.141
394.219	17.430	1334.283	996.022
395.234	17.519	1332.851	995.387
396.248	17.565	1331.290	994.401
397.263	17.459	1330.538	993.133
398.278	17.431	1328.742	991.538
399.292	17.523	1327.620	991.150
400.307	17.495	1326.659	990.179
401.321	17.571	1325.724	989.839
402.336	17.478	1324.662	988.417
403.350	17.405	1323.922	987.354
404.365	17.368	1323.239	986.541
405.380	17.520	1321.781	986.246
406.394	17.467	1321.290	985.488
407.409	17.528	1320.145	984.898
408.423	17.544	1319.602	984.497
409.438	17.615	1319.100	984.447
410.453	17.647	1318.216	983.889
411.467	17.660	1317.815	983.574
412.482	17.810	1316.717	983.535
413.496	17.609	1316.709	982.280
414.511	17.764	1315.438	982.140
415.526	17.754	1314.597	981.364
416.540	17.768	1314.223	981.084
417.555	17.837	1313.165	980.600
418.569	17.747	1313.009	979.882
419.584	17.895	1312.475	980.248
420.599	17.820	1311.820	979.240
421.613	101.819	1364.612	1492.453
422.628	100.286	1372.227	1492.521
