DTS Sentinel unit serial number:	SN413079Multiplexer serial number:	ORYXHardware model number:	OX4-SRSoftware version number:	ORYX F/W v4.00 Oryx Data Collector v3.7.2.0data status	okinstallation	princeton_trtdifferential loss correction	single-endedforward channel	channel 4reverse channel	N/Adate	2019/09/15time	11:25:35forward acquisition time	60.00reverse acquisition time	0.00gamma	496.2192k internal	0.2298k external	0.2298temperature offset calibration	1.0018default loss term (dB/km)	0.3790temperature slope calibration	1.0000multiplexer offset coefficient	1.0000multiplexer slope coefficient	1.0000fibre end	0.00T internal ref (°C)	34.31T ext. ref 1 (°C)	5.04T ext. ref 2 (°C)	29.56length (m)	temperature (°C)	Stokes	anti-Stokes-747.200	800.000	0.032	-0.126
-746.185	-64.416	0.235	0.097
-745.171	-143.165	0.105	0.010
-744.156	597.024	-0.083	0.209
-743.142	-200.000	0.003	-0.022
-742.127	410.749	-0.033	0.072
-741.112	-200.000	0.036	0.240
-740.098	-74.921	-0.076	-0.028
-739.083	-177.604	0.422	0.010
-738.069	356.749	0.180	0.365
-737.054	-51.241	0.151	-0.072
-736.039	-200.000	-0.048	-0.287
-735.025	698.798	0.091	0.243
-734.010	219.178	0.224	-0.365
-732.996	265.149	-0.180	-0.319
-731.981	140.293	0.115	0.155
-730.966	-118.856	0.374	-0.067
-729.952	191.501	-0.040	-0.061
-728.937	739.628	0.093	-0.255
-727.923	15.043	-0.226	-0.181
-726.908	-12.121	-0.245	0.164
-725.894	-200.000	0.005	-0.129
-724.879	-137.624	0.079	-0.009
-723.864	-200.000	0.011	-0.409
-722.850	-159.059	-0.296	-0.017
-721.835	-110.260	-0.266	0.057
-720.821	146.792	0.039	-0.053
-719.806	-200.000	0.019	0.110
-718.791	-200.000	0.010	0.077
-717.777	198.379	-0.186	-0.290
-716.762	-114.280	0.120	-0.024
-715.748	89.676	0.107	-0.122
-714.733	140.865	0.088	-0.118
-713.718	-200.000	0.021	-0.234
-712.704	-200.000	0.005	-0.029
-711.689	-30.871	-0.206	-0.119
-710.675	800.000	0.127	-0.360
-709.660	-57.797	0.258	-0.115
-708.645	800.000	-0.016	0.054
-707.631	23.360	-0.184	0.154
-706.616	21.803	0.078	-0.065
-705.602	-145.853	0.283	0.026
-704.587	-110.063	0.225	0.048
-703.572	800.000	0.061	-0.197
-702.558	541.201	0.078	0.189
-701.543	108.724	-0.222	-0.270
-700.529	304.502	0.217	-0.411
-699.514	-95.522	-0.271	-0.074
-698.499	800.000	-0.074	-0.240
-697.485	-186.986	-0.217	0.003
-696.470	-143.088	0.323	-0.032
-695.456	19.128	0.060	-0.049
-694.441	74.631	-0.095	-0.102
-693.426	-151.423	-0.177	-0.013
-692.412	556.384	0.019	-0.046
-691.397	16.825	0.179	-0.145
-690.383	-200.000	0.000	0.047
-689.368	56.911	0.144	-0.143
-688.354	63.127	0.130	0.132
-687.339	-107.124	-0.138	-0.031
-686.324	-68.733	0.162	0.064
-685.310	64.340	-0.180	0.184
-684.295	-142.038	0.574	0.058
-683.281	579.600	0.064	-0.159
-682.266	-66.826	-0.358	-0.144
-681.251	391.987	-0.080	0.170
-680.237	-172.050	0.183	0.006
-679.222	659.949	-0.153	0.402
-678.208	-70.933	-0.257	0.098
-677.193	-2.945	0.305	-0.217
-676.178	-68.894	0.273	0.107
-675.164	470.275	-0.036	-0.082
-674.149	-3.017	-0.258	0.183
-673.135	-200.000	-0.034	0.185
-672.120	423.784	-0.092	-0.201
-671.105	369.247	-0.061	0.126
-670.091	18.996	0.171	-0.140
-669.076	-119.494	-0.181	0.032
-668.062	260.522	0.102	0.180
-667.047	-57.979	-0.217	-0.096
-666.032	-200.000	-0.037	-0.317
-665.018	-115.085	0.487	-0.094
-664.003	-200.000	0.006	0.223
-662.989	-125.039	-0.288	0.045
-661.974	-200.000	-0.003	-0.268
-660.959	158.545	-0.269	-0.380
-659.945	-105.636	-0.243	-0.056
-658.930	457.750	-0.155	-0.350
-657.916	-200.000	0.008	-0.217
-656.901	-88.638	0.234	0.071
-655.886	195.877	0.194	0.300
-654.872	-200.000	-0.031	-0.177
-653.857	-200.000	0.035	-0.203
-652.843	-114.187	0.218	-0.043
-651.828	17.534	0.197	-0.159
-650.814	170.710	-0.132	-0.192
-649.799	635.617	-0.096	-0.247
-648.784	-23.380	0.241	-0.148
-647.770	-63.862	0.084	0.035
-646.755	181.875	-0.112	0.168
-645.741	-35.483	-0.367	0.203
-644.726	-37.859	-0.214	0.116
-643.711	-102.039	0.192	-0.047
-642.697	-200.000	0.041	0.206
-641.682	48.566	0.111	-0.106
-640.668	-200.000	0.018	0.130
-639.653	714.762	-0.101	0.271
-638.638	-93.148	-0.204	0.058
-637.624	800.000	-0.056	0.161
-636.609	18.384	0.272	-0.221
-635.595	-44.164	-0.225	-0.115
-634.580	-45.052	-0.236	-0.120
-633.565	-194.717	0.175	-0.001
-632.551	-112.497	0.393	0.080
-631.536	233.503	-0.195	-0.326
-630.522	651.480	0.045	-0.118
-629.507	182.766	-0.135	0.203
-628.492	155.205	-0.119	0.167
-627.478	320.055	0.035	0.068
-626.463	-0.657	0.087	0.062
-625.449	-200.000	-0.010	-0.136
-624.434	800.000	-0.031	0.123
-623.419	-77.338	-0.161	0.057
-622.405	-64.375	-0.310	0.128
-621.390	-182.781	0.320	0.006
-620.376	91.813	-0.211	-0.241
-619.361	174.552	-0.119	-0.175
-618.346	69.009	-0.217	0.227
-617.332	800.000	0.011	0.050
-616.317	800.000	0.081	0.294
-615.303	-77.747	0.071	-0.025
-614.288	-200.000	0.000	0.127
-613.273	-100.100	0.225	-0.057
-612.259	-200.000	0.034	0.251
-611.244	105.310	0.088	-0.106
-610.230	-155.671	-0.056	-0.004
-609.215	-154.015	-0.351	-0.024
-608.201	-37.746	0.118	0.064
-607.186	139.209	0.098	-0.131
-606.171	-200.000	0.054	-0.339
-605.157	-200.000	-0.018	-0.324
-604.142	-200.000	0.050	-0.272
-603.128	99.376	-0.127	-0.149
-602.113	113.277	-0.159	-0.195
-601.098	-65.125	-0.149	-0.061
-600.084	-170.523	0.221	0.008
-599.069	-200.000	0.065	-0.358
-598.055	76.377	0.094	-0.101
-597.040	43.912	-0.205	-0.190
-596.025	450.687	0.095	-0.213
-595.011	800.000	-0.013	0.050
-593.996	-200.000	-0.021	0.287
-592.982	304.741	-0.087	0.164
-591.967	78.628	0.232	0.252
-590.952	-47.491	-0.266	-0.131
-589.938	-200.000	-0.036	0.184
-588.923	-200.000	0.080	0.541
-587.909	-89.665	-0.363	0.108
-586.894	-162.513	0.146	-0.007
-585.879	85.695	-0.179	-0.199
-584.865	147.182	-0.016	0.022
-583.850	800.000	0.014	0.045
-582.836	-96.664	-0.132	0.035
-581.821	-73.242	0.303	0.112
-580.806	-200.000	0.001	0.099
-579.792	453.296	0.043	-0.095
-578.777	29.267	-0.151	-0.130
-577.763	77.209	0.057	0.061
-576.748	299.587	0.164	0.307
-575.733	226.762	0.137	-0.226
-574.719	474.838	-0.217	-0.496
-573.704	-31.143	-0.387	-0.221
-572.690	-89.061	-0.005	0.002
-571.675	-200.000	0.006	0.109
-570.661	37.241	0.180	-0.161
-569.646	100.885	0.085	0.101
-568.631	14.066	-0.093	-0.073
-567.617	526.018	-0.037	0.088
-566.602	22.582	0.112	0.093
-565.588	213.438	-0.142	-0.228
-564.573	499.244	0.079	0.185
-563.558	25.939	-0.171	-0.144
-562.544	269.188	-0.049	0.087
-561.529	-200.000	-0.029	-0.292
-560.515	-95.743	-0.241	-0.065
-559.500	741.393	-0.127	-0.347
-558.485	800.000	-0.041	-0.158
-557.471	125.958	-0.084	-0.108
-556.456	7.980	0.222	0.169
-555.442	55.707	0.100	-0.099
-554.427	-3.651	0.185	0.130
-553.412	20.233	-0.223	-0.183
-552.398	52.893	-0.205	0.199
-551.383	-200.000	0.054	0.277
-550.369	-164.075	0.232	0.011
-549.354	194.744	0.134	0.207
-548.339	-158.632	0.136	0.008
-547.325	-40.298	-0.271	-0.143
-546.310	-122.960	0.338	-0.055
-545.296	-98.751	0.083	0.021
-544.281	175.648	0.258	0.379
-543.266	-20.175	-0.227	0.142
-542.252	-116.757	0.430	0.080
-541.237	-117.858	-0.067	-0.012
-540.223	11.418	-0.230	-0.178
-539.208	-172.696	0.091	-0.003
-538.193	14.447	0.222	0.176
-537.179	-200.000	0.036	0.235
-536.164	-155.209	-0.071	0.005
-535.150	-153.412	0.246	0.017
-534.135	41.183	0.350	-0.320
-533.121	505.406	0.110	-0.257
-532.106	66.663	-0.010	-0.011
-531.091	-6.817	-0.216	0.149
-530.077	-150.481	-0.349	0.027
-529.062	-80.239	0.189	-0.064
-528.048	800.000	0.034	0.107
-527.033	-20.388	0.050	-0.031
-526.018	58.058	-0.167	0.166
-525.004	429.170	-0.045	-0.098
-523.989	-106.344	-0.083	-0.019
-522.975	17.836	-0.282	-0.227
-521.960	-47.505	-0.109	0.054
-520.945	-4.604	-0.378	-0.264
-519.931	13.429	-0.238	-0.187
-518.916	7.126	-0.117	-0.089
-517.902	-200.000	-0.015	-0.142
-516.887	-24.973	0.192	0.115
-515.872	58.330	0.119	-0.119
-514.858	176.925	0.090	-0.133
-513.843	-135.937	-0.309	0.037
-512.829	-200.000	-0.054	0.384
-511.814	800.000	0.026	-0.116
-510.799	-90.239	-0.216	-0.063
-509.785	-24.312	-0.116	-0.070
-508.770	6.290	-0.271	0.203
-507.756	-200.000	-0.013	0.269
-506.741	-148.870	0.199	0.016
-505.726	33.619	0.093	0.082
-504.712	172.784	0.168	0.244
-503.697	4.434	0.078	0.058
-502.683	-200.000	0.019	0.132
-501.668	-7.552	-0.290	0.199
-500.653	-51.621	0.326	0.154
-499.639	-62.538	-0.192	-0.081
-498.624	-200.000	0.041	-0.256
-497.610	290.283	0.118	0.216
-496.595	73.487	-0.203	-0.215
-495.581	-34.217	-0.187	0.104
-494.566	255.162	0.198	0.342
-493.551	-67.970	0.228	-0.090
-492.537	604.926	-0.082	-0.206
-491.522	-200.000	0.036	-0.308
-490.508	-100.895	0.167	-0.042
-489.493	-200.000	0.042	0.303
-488.478	-166.638	-0.242	-0.010
-487.464	-85.015	0.149	0.047
-486.449	742.771	-0.088	-0.240
-485.435	-71.849	-0.064	0.024
-484.420	588.652	-0.076	0.189
-483.405	-200.000	-0.000	-0.036
-482.391	13.230	0.063	0.049
-481.376	403.768	-0.091	-0.193
-480.362	-58.878	-0.438	0.192
-479.347	622.409	-0.071	0.180
-478.332	39.263	-0.111	0.100
-477.318	-149.570	0.339	-0.027
-476.303	-16.100	-0.048	-0.031
-475.289	-13.648	0.137	-0.090
-474.274	-68.329	-0.328	-0.129
-473.259	-77.635	-0.131	0.046
-472.245	114.349	0.350	-0.431
-471.230	39.055	-0.152	0.138
-470.216	39.448	-0.308	0.279
-469.201	800.000	-0.049	0.176
-468.186	18.365	-0.178	0.143
-467.172	-147.136	-0.219	-0.019
-466.157	-99.183	0.186	0.048
-465.143	-64.275	-0.317	0.130
-464.128	-116.081	0.197	-0.037
-463.113	-69.718	0.131	-0.051
-462.099	537.601	-0.144	-0.347
-461.084	-58.809	-0.192	0.084
-460.070	-84.266	0.098	0.031
-459.055	-116.624	0.260	0.048
-458.040	-200.000	-0.035	0.214
-457.026	-200.000	0.002	-0.262
-456.011	-20.878	-0.111	0.069
-454.997	7.055	0.273	-0.205
-453.982	-200.000	-0.006	0.086
-452.968	-200.000	0.017	0.089
-451.953	-200.000	-0.007	-0.107
-450.938	-200.000	0.059	-0.264
-449.924	20.520	0.445	0.363
-448.909	-90.880	-0.264	0.077
-447.895	-106.770	0.193	0.043
-446.880	-192.852	-0.120	-0.001
-445.865	189.013	-0.035	0.052
-444.851	-200.000	-0.048	0.342
-443.836	-133.841	0.451	-0.057
-442.822	72.933	-0.281	-0.296
-441.807	-78.991	-0.260	-0.089
-440.792	800.000	-0.065	-0.242
-439.778	115.638	-0.109	0.134
-438.763	437.209	0.055	-0.122
-437.749	-2.818	-0.043	0.030
-436.734	800.000	0.080	-0.290
-435.719	0.440	0.115	0.083
-434.705	-97.045	-0.287	-0.076
-433.690	91.049	0.053	0.060
-432.676	800.000	0.094	0.273
-431.661	116.226	0.295	0.365
-430.646	23.811	-0.063	-0.052
-429.632	254.635	-0.076	0.132
-428.617	-105.434	0.176	0.040
-427.603	85.843	0.230	0.255
-426.588	-73.572	-0.058	0.021
-425.573	233.483	0.079	0.130
-424.559	-200.000	0.093	0.437
-423.544	354.831	-0.089	-0.178
-422.530	800.000	-0.124	-0.399
-421.515	791.748	0.129	0.357
-420.500	-29.783	-0.128	0.073
-419.486	134.202	0.271	-0.355
-418.471	-92.406	0.155	0.044
-417.457	800.000	-0.014	0.058
-416.442	-200.000	0.011	-0.236
-415.428	110.033	0.185	0.223
-414.413	63.624	0.210	-0.213
-413.398	95.593	-0.134	-0.154
-412.384	130.654	-0.211	-0.272
-411.369	108.189	-0.179	-0.215
-410.355	-151.415	-0.227	0.017
-409.340	51.484	0.170	0.163
-408.325	117.183	0.079	0.098
-407.311	-103.383	-0.241	0.057
-406.296	244.720	0.110	0.186
-405.282	-106.497	-0.181	0.041
-404.267	-200.000	0.117	-0.000
-403.252	62.839	0.094	0.095
-402.238	-88.312	-0.051	-0.015
-401.223	291.112	0.099	-0.182
-400.209	-200.000	-0.054	-0.482
-399.194	-58.118	0.249	0.109
-398.179	-200.000	0.012	-0.087
-397.165	800.000	-0.078	-0.246
-396.150	269.519	0.167	-0.295
-395.136	130.289	-0.443	-0.571
-394.121	800.000	-0.023	-0.076
-393.106	-5.794	0.174	0.120
-392.092	-52.593	-0.283	0.131
-391.077	-36.105	0.372	-0.202
-390.063	800.000	0.033	0.109
-389.048	51.933	-0.128	0.123
-388.033	800.000	-0.056	-0.182
-387.019	207.452	0.077	-0.122
-386.004	272.244	-0.209	0.371
-384.990	-43.587	-0.098	-0.050
-383.975	-200.000	-0.004	-0.293
-382.960	161.967	-0.025	-0.035
-381.946	360.649	0.049	0.099
-380.931	-200.000	-0.023	0.144
-379.917	356.930	0.119	-0.238
-378.902	-91.380	-0.296	0.085
-377.888	147.313	-0.050	0.068
-376.873	372.046	0.100	0.205
-375.858	25.007	-0.173	-0.144
-374.844	-102.668	0.442	-0.106
-373.829	-200.000	-0.038	0.222
-372.815	-70.882	-0.185	0.070
-371.800	104.508	0.102	-0.120
-370.785	667.934	-0.071	0.185
-369.771	-200.000	-0.028	0.164
-368.756	-56.203	0.058	-0.026
-367.742	800.000	0.077	0.233
-366.727	309.296	0.110	0.206
-365.712	755.824	0.033	-0.091
-364.698	800.000	-0.079	0.340
-363.683	397.725	-0.140	-0.295
-362.669	-200.000	-0.049	0.316
-361.654	69.210	-0.156	-0.162
-360.639	-143.257	-0.259	0.025
-359.625	-200.000	0.035	-0.269
-358.610	116.042	-0.234	0.288
-357.596	-99.463	0.107	-0.027
-356.581	17.839	0.313	0.251
-355.566	118.709	0.276	0.343
-354.552	91.255	-0.152	-0.172
-353.537	-10.965	0.105	-0.069
-352.523	120.729	-0.043	-0.053
-351.508	29.519	-0.189	-0.162
-350.493	-123.475	0.178	0.028
-349.479	28.539	-0.265	0.225
-348.464	-92.012	-0.218	-0.062
-347.450	181.898	0.060	-0.089
-346.435	144.182	-0.055	-0.074
-345.420	149.228	0.146	-0.199
-344.406	-78.895	0.201	-0.069
-343.391	-133.782	-0.217	-0.027
-342.377	-116.657	0.374	0.069
-341.362	-200.000	0.028	-0.225
-340.348	-200.000	-0.005	-0.031
-339.333	-59.271	-0.104	-0.045
-338.318	-200.000	-0.045	-0.249
-337.304	4.070	0.163	0.120
-336.289	-76.607	-0.104	0.037
-335.275	-200.000	0.018	0.226
-334.260	65.007	0.159	-0.161
-333.245	278.465	-0.073	-0.131
-332.231	-85.274	-0.064	-0.020
-331.216	-191.703	0.158	0.002
-330.202	484.699	-0.081	-0.185
-329.187	-49.007	-0.316	0.152
-328.172	-200.000	0.029	0.160
-327.158	3.916	0.046	0.034
-326.143	-56.669	-0.254	-0.113
-325.129	-200.000	-0.049	-0.308
-324.114	-200.000	-0.017	-0.334
-323.099	1.000	0.299	-0.215
-322.085	-113.401	0.074	0.015
-321.070	47.088	0.066	0.061
-320.056	-65.322	-0.162	0.066
-319.041	73.705	-0.123	0.130
-318.026	404.283	0.053	0.113
-317.012	633.890	-0.014	0.036
-315.997	-140.503	-0.120	-0.013
-314.983	677.232	0.022	-0.057
-313.968	-53.431	-0.200	-0.092
-312.953	-12.502	0.049	-0.032
-311.939	31.826	0.073	0.063
-310.924	-92.889	0.369	0.104
-309.910	-50.165	-0.151	-0.072
-308.895	-108.268	0.134	-0.029
-307.880	127.245	-0.225	-0.286
-306.866	800.000	0.081	-0.275
-305.851	71.004	0.119	0.124
-304.837	-86.528	0.244	0.075
-303.822	-200.000	0.009	-0.062
-302.807	-109.167	-0.214	0.046
-301.793	-44.590	0.291	0.146
-300.778	102.883	-0.138	0.162
-299.764	230.746	-0.216	-0.355
-298.749	-99.187	0.311	0.079
-297.735	-167.608	0.095	0.004
-296.720	321.813	-0.072	0.137
-295.705	-2.633	-0.135	-0.095
-294.691	64.356	0.071	0.071
-293.676	-56.005	-0.287	0.128
-292.662	101.171	0.372	0.434
-291.647	-200.000	0.020	0.100
-290.632	48.054	0.173	0.163
-289.618	131.281	-0.093	-0.119
-288.603	-200.000	-0.062	0.552
-287.589	89.260	-0.159	0.178
-286.574	-113.946	0.032	0.006
-285.559	-13.317	0.070	0.045
-284.545	-200.000	-0.022	0.406
-283.530	-200.000	0.030	-0.216
-282.516	-200.000	0.010	-0.057
-281.501	-45.704	0.102	-0.050
-280.486	350.349	0.204	0.403
-279.472	-195.931	0.258	-0.002
-278.457	-66.796	-0.345	-0.137
-277.443	800.000	0.051	-0.176
-276.428	424.524	-0.080	0.172
-275.413	-143.680	0.144	-0.014
-274.399	-79.998	0.081	0.027
-273.384	-200.000	-0.064	0.364
-272.370	-200.000	-0.037	0.279
-271.355	-102.726	0.308	-0.074
-270.340	45.152	-0.093	-0.086
-269.326	-103.722	0.362	0.085
-268.311	396.817	0.175	0.366
-267.297	-4.696	-0.146	0.101
-266.282	800.000	-0.089	-0.316
-265.267	-22.019	-0.279	0.170
-264.253	-200.000	-0.026	0.210
-263.238	-11.515	0.044	-0.029
-262.224	-120.274	0.150	-0.026
-261.209	451.579	0.096	-0.213
-260.195	-76.062	0.146	0.052
-259.180	-174.488	0.230	0.007
-258.165	800.000	-0.052	0.188
-257.151	-6.613	-0.168	0.114
-256.136	-137.677	-0.093	-0.010
-255.122	-43.119	-0.123	-0.062
-254.107	370.312	0.146	-0.297
-253.092	-13.255	0.123	-0.080
-252.078	16.485	0.108	-0.085
-251.063	-167.751	-0.297	-0.012
-250.049	195.296	-0.066	-0.101
-249.034	-200.000	0.016	0.128
-248.019	-200.000	0.001	0.220
-247.005	-50.212	-0.170	0.080
-245.990	177.912	0.104	0.151
-244.976	-200.000	0.013	-0.073
-243.961	-13.299	0.393	-0.255
-242.946	-5.893	-0.170	-0.117
-241.932	-175.880	-0.124	-0.003
-240.917	-77.003	0.281	-0.098
-239.903	-102.758	0.077	-0.018
-238.888	-200.000	-0.039	0.174
-237.873	-3.152	-0.198	0.138
-236.859	238.021	0.337	-0.560
-235.844	-200.000	0.010	0.263
-234.830	800.000	-0.093	0.292
-233.815	31.584	-0.076	-0.066
-232.800	-200.000	-0.062	0.300
-231.786	-52.126	0.147	0.068
-230.771	-200.000	0.009	-0.277
-229.757	304.028	-0.029	-0.054
-228.742	-200.000	-0.008	-0.118
-227.727	94.100	0.268	0.304
-226.713	-128.747	0.070	-0.010
-225.698	800.000	0.006	-0.019
-224.684	-198.436	-0.140	-0.001
-223.669	-200.000	-0.034	-0.199
-222.655	-200.000	-0.034	-0.209
-221.640	-74.769	-0.144	0.052
-220.625	268.879	-0.144	-0.252
-219.611	380.676	-0.074	-0.152
-218.596	-200.000	0.016	0.228
-217.582	-182.864	-0.234	-0.004
-216.567	-1.191	0.143	-0.101
-215.552	226.441	-0.089	-0.145
-214.538	-81.025	-0.208	0.069
-213.523	-118.103	-0.240	-0.043
-212.509	322.814	-0.055	-0.105
-211.494	-200.000	-0.043	-0.307
-210.479	-200.000	0.001	0.280
-209.465	65.538	0.146	0.147
-208.450	121.598	-0.186	-0.232
-207.436	-85.099	-0.178	0.056
-206.421	-147.901	0.131	-0.011
-205.406	-104.823	-0.156	-0.036
-204.392	-200.000	0.013	-0.270
-203.377	-8.416	0.165	-0.111
-202.363	274.544	0.176	-0.312
-201.348	-95.984	0.189	-0.050
-200.333	87.899	0.231	-0.256
-199.319	-19.770	-0.202	0.125
-198.304	-200.000	0.025	0.308
-197.290	508.183	0.060	0.139
-196.275	22.298	-0.148	-0.121
-195.260	-166.847	-0.114	0.005
-194.246	100.975	0.069	0.080
-193.231	133.378	0.196	-0.253
-192.217	-150.211	0.239	0.018
-191.202	-200.000	-0.060	0.301
-190.187	521.951	-0.077	0.180
-189.173	24.664	0.047	0.039
-188.158	-200.000	-0.044	-0.218
-187.144	800.000	0.021	0.087
-186.129	-129.698	-0.142	-0.019
-185.114	800.000	0.059	0.211
-184.100	115.145	0.118	0.143
-183.085	-103.567	0.325	-0.076
-182.071	81.948	0.264	0.286
-181.056	194.934	0.118	0.179
-180.042	-97.886	-0.184	0.047
-179.027	-52.798	0.262	0.121
-178.012	21.700	0.435	-0.353
-176.998	154.779	0.090	-0.123
-175.983	75.931	0.175	-0.184
-174.969	800.000	-0.037	0.137
-173.954	-47.795	-0.021	-0.010
-172.939	-9.624	-0.179	-0.119
-171.925	-64.807	-0.283	0.114
-170.910	121.704	0.083	-0.104
-169.896	-15.197	0.318	-0.203
-168.881	-200.000	0.002	-0.220
-167.866	84.649	0.073	-0.080
-166.852	-83.972	0.157	-0.050
-165.837	27.855	0.197	0.166
-164.823	-99.220	-0.086	0.022
-163.808	-24.975	-0.307	0.182
-162.793	-17.061	0.107	-0.068
-161.779	-200.000	-0.045	-0.360
-160.764	-117.008	-0.255	-0.046
-159.750	-76.036	0.174	0.061
-158.735	800.000	0.023	-0.085
-157.720	-200.000	-0.024	0.109
-156.706	-200.000	-0.026	0.296
-155.691	-177.223	0.200	-0.005
-154.677	-200.000	0.047	-0.439
-153.662	416.787	0.045	0.096
-152.647	29.487	-0.063	-0.054
-151.633	27.317	-0.087	0.073
-150.618	-156.680	0.196	-0.012
-149.604	-136.560	-0.108	-0.013
-148.589	-200.000	0.224	0.001
-147.574	78.043	-0.105	-0.111
-146.560	343.948	-0.090	0.176
-145.545	259.260	0.026	0.045
-144.531	21.525	-0.205	0.166
-143.516	-81.613	0.226	-0.074
-142.502	-54.664	-0.291	0.131
-141.487	67.866	-0.206	0.211
-140.472	800.000	0.036	0.129
-139.458	67.591	-0.042	0.043
-138.443	248.406	0.025	0.042
-137.429	78.026	0.077	0.082
-136.414	-200.000	-0.009	0.041
-135.399	-200.000	-0.009	-0.253
-134.385	-39.221	0.077	0.040
-133.370	56.880	-0.070	0.068
-132.356	-200.000	-0.033	-0.159
-131.341	-169.329	0.095	0.004
-130.326	138.161	-0.171	0.223
-129.312	70.744	0.042	0.044
-128.297	-61.296	-0.142	0.060
-127.283	-135.224	0.163	0.020
-126.268	-20.341	0.076	0.046
-125.253	287.660	-0.075	0.135
-124.239	-45.135	-0.146	0.072
-123.224	-159.177	0.049	-0.003
-122.210	14.910	-0.336	-0.262
-121.195	-45.360	-0.208	0.103
-120.180	-200.000	-0.035	0.282
-119.166	-11.267	-0.204	0.134
-118.151	-200.000	0.023	-0.258
-117.137	-135.537	0.270	0.032
-116.122	-154.310	-0.185	0.012
-115.107	-38.446	0.046	0.024
-114.093	-63.645	-0.303	0.124
-113.078	-35.963	0.046	-0.025
-112.064	-200.000	0.055	-0.317
-111.049	-93.475	-0.082	-0.023
-110.034	-122.773	-0.129	-0.021
-109.020	-157.188	0.090	0.005
-108.005	117.021	-0.063	-0.077
-106.991	-200.000	0.007	-0.108
-105.976	-69.653	0.145	0.055
-104.962	30.556	-0.110	-0.093
-103.947	76.288	-0.137	0.145
-102.932	-200.000	-0.062	0.368
-101.918	-200.000	-0.008	0.191
-100.903	28.448	-0.178	0.150
-99.889	-112.356	0.149	0.030
-98.874	53.452	0.225	0.215
-97.859	165.098	0.105	0.148
-96.845	516.997	-0.045	-0.105
-95.830	-51.463	-0.270	-0.126
-94.816	-143.459	0.085	0.008
-93.801	-200.000	-0.010	-0.129
-92.786	-3.357	-0.183	-0.127
-91.772	37.745	-0.229	0.203
-90.757	26.881	0.133	-0.111
-89.743	72.821	-0.161	0.167
-88.728	312.514	-0.094	0.175
-87.713	-200.000	0.053	0.242
-86.699	800.000	-0.049	0.211
-85.684	-200.000	0.000	-0.099
-84.670	47.050	0.136	-0.126
-83.655	-200.000	-0.010	0.363
-82.640	40.428	-0.163	0.146
-81.626	49.524	0.138	0.129
-80.611	85.754	-0.201	-0.220
-79.597	341.841	-0.052	-0.100
-78.582	800.000	0.023	-0.075
-77.567	-21.956	0.193	0.116
-76.553	444.857	0.069	0.151
-75.538	400.941	0.091	0.189
-74.524	-131.152	-0.207	0.027
-73.509	62.744	0.388	-0.386
-72.494	222.192	0.039	0.062
-71.480	29.760	0.085	0.072
-70.465	230.784	0.036	0.058
-69.451	-200.000	-0.027	0.214
-68.436	95.229	-0.286	-0.324
-67.422	-47.407	0.129	0.062
-66.407	-79.820	0.137	0.046
-65.392	267.451	-0.088	0.153
-64.378	-125.543	0.151	-0.023
-63.363	114.810	-0.064	0.077
-62.349	23.196	-0.032	0.026
-61.334	-20.162	-1.017	-0.623
-60.319	90.565	0.326	0.362
-59.305	-200.000	-0.059	-0.820
-58.290	297.293	0.405	0.738
-57.276	213.797	0.902	1.417
-56.261	-200.000	97.214	569.538
-55.246	616.847	1399.701	3489.732
-54.232	183.156	2614.964	3837.646
-53.217	110.422	2338.940	2792.836
-52.203	40.869	2085.455	1869.673
-51.188	35.975	1998.007	1746.949
-50.173	34.391	1979.776	1716.686
-49.159	48.531	2031.666	1891.091
-48.144	51.417	2050.861	1935.244
-47.130	36.837	2008.493	1763.692
-46.115	34.354	1996.993	1731.005
-45.100	34.245	1993.634	1727.035
-44.086	34.131	1991.210	1723.838
-43.071	34.214	1988.169	1721.883
-42.057	34.102	1986.818	1719.635
-41.042	34.043	1985.175	1717.616
-40.027	34.176	1983.086	1716.935
-39.013	34.233	1980.495	1715.134
-37.998	34.253	1978.695	1713.695
-36.984	34.241	1976.794	1711.872
-35.969	34.192	1975.539	1710.270
-34.954	34.262	1973.121	1708.740
-33.940	34.247	1971.720	1707.330
-32.925	34.280	1970.392	1706.404
-31.911	34.311	1968.354	1704.853
-30.896	34.320	1966.729	1703.451
-29.881	34.308	1965.254	1702.001
-28.867	34.322	1963.232	1700.306
-27.852	34.372	1961.920	1699.555
-26.838	34.345	1959.894	1697.490
-25.823	34.342	1957.825	1695.605
-24.809	34.367	1956.045	1694.214
-23.794	34.380	1953.839	1692.353
-22.779	34.353	1952.701	1691.062
-21.765	34.361	1951.107	1689.685
-20.750	34.364	1949.767	1688.484
-19.736	34.362	1948.005	1686.872
-18.721	34.290	1947.132	1685.414
-17.706	34.450	1945.029	1684.940
-16.692	34.357	1943.553	1682.768
-15.677	34.345	1941.498	1680.823
-14.663	34.360	1940.123	1679.696
-13.648	34.348	1938.744	1678.332
-12.633	34.319	1937.976	1677.338
-11.619	34.348	1936.578	1676.325
-10.604	34.293	1935.199	1674.577
-9.590	34.330	1933.876	1673.689
-8.575	34.269	1933.225	1672.521
-7.560	34.322	1931.131	1671.115
-6.546	34.256	1930.424	1669.853
-5.531	34.359	1928.848	1669.324
-4.517	34.409	1927.675	1668.684
-3.502	34.312	1927.051	1667.228
-2.487	34.319	1925.497	1665.883
-1.473	34.327	1924.377	1664.916
-0.458	34.369	1919.845	1661.295
0.556	33.361	1899.955	1634.864
1.571	29.192	1880.469	1582.236
2.586	24.970	1903.219	1564.452
3.600	23.879	1939.852	1584.701
4.615	23.481	1935.130	1577.161
5.629	18.518	1834.152	1452.788
6.644	9.730	1715.217	1288.527
7.659	5.511	1677.390	1226.972
8.673	5.118	1674.093	1221.377
9.688	5.036	1672.769	1219.665
10.702	5.010	1671.536	1218.451
11.717	5.006	1667.982	1215.726
12.731	5.523	1667.997	1219.653
13.746	11.436	1681.686	1275.901
14.761	18.220	1696.991	1340.740
15.775	19.457	1696.749	1350.118
16.790	18.316	1692.491	1337.693
17.804	17.122	1689.316	1325.750
18.819	16.075	1686.242	1315.062
19.834	15.457	1683.657	1308.116
20.848	15.116	1682.076	1304.114
21.863	14.901	1680.477	1301.084
22.877	14.662	1678.646	1297.694
23.892	14.373	1677.423	1294.390
24.907	14.360	1675.872	1292.977
25.921	14.384	1675.196	1292.525
26.936	14.356	1673.922	1291.211
27.950	14.357	1673.325	1290.647
28.965	14.408	1672.799	1290.524
29.980	14.478	1672.165	1290.460
30.994	14.542	1670.435	1289.503
32.009	14.586	1669.425	1288.949
33.023	14.583	1669.153	1288.602
34.038	14.653	1667.695	1287.906
35.053	14.631	1666.256	1286.512
36.067	14.537	1665.566	1285.142
37.082	14.589	1663.809	1284.068
38.096	14.579	1662.670	1283.002
39.111	14.506	1662.796	1282.426
40.126	14.553	1661.819	1281.913
41.140	14.526	1660.903	1280.890
42.155	14.482	1658.807	1278.823
43.169	14.356	1657.613	1276.821
44.184	14.288	1656.547	1275.365
45.199	14.227	1654.971	1273.574
46.213	14.235	1654.143	1272.888
47.228	14.271	1652.804	1272.020
48.242	14.339	1651.707	1271.583
49.257	14.466	1650.619	1271.602
50.271	14.424	1649.368	1270.200
51.286	14.420	1648.187	1269.152
52.301	14.439	1646.941	1268.223
53.315	14.438	1645.142	1266.721
54.330	14.390	1644.249	1265.552
55.344	14.374	1642.171	1263.722
56.359	14.339	1640.492	1262.050
57.374	14.285	1640.110	1261.236
58.388	14.363	1638.624	1260.574
59.403	14.293	1637.557	1259.110
60.417	14.170	1636.033	1256.900
61.432	14.344	1634.552	1256.965
62.447	14.287	1633.584	1255.676
63.461	14.203	1632.483	1254.085
64.476	14.164	1631.750	1253.123
65.490	14.117	1630.186	1251.454
66.505	14.166	1629.286	1251.024
67.520	14.212	1627.972	1250.244
68.534	14.168	1627.359	1249.337
69.549	14.235	1625.884	1248.596
70.563	14.303	1624.360	1247.825
71.578	14.242	1623.848	1246.863
72.593	14.168	1622.426	1245.105
73.607	14.203	1621.473	1244.527
74.622	14.109	1620.258	1242.783
75.636	14.010	1619.666	1241.481
76.651	14.061	1619.020	1241.256
77.666	14.107	1618.506	1241.091
78.680	14.092	1617.042	1239.751
79.695	14.148	1616.291	1239.479
80.709	14.187	1614.810	1238.528
81.724	14.184	1614.385	1238.067
82.739	14.286	1613.628	1238.135
83.753	14.338	1612.583	1237.615
84.768	14.374	1612.120	1237.417
85.782	14.466	1611.140	1237.239
86.797	14.525	1610.174	1236.822
87.812	14.487	1608.983	1235.520
88.826	14.477	1607.687	1234.339
89.841	14.419	1606.784	1233.103
90.855	14.423	1605.710	1232.203
91.870	14.422	1604.805	1231.388
92.884	14.539	1603.525	1231.164
93.899	14.505	1602.939	1230.356
94.914	14.491	1601.607	1229.120
95.928	14.620	1599.985	1228.715
96.943	14.604	1599.284	1227.948
97.957	14.501	1597.986	1226.090
98.972	14.535	1596.028	1224.724
99.987	14.475	1594.951	1223.354
101.001	14.480	1592.821	1221.647
102.016	14.514	1591.610	1220.858
103.030	14.486	1590.239	1219.494
104.045	14.445	1589.087	1218.207
105.060	14.493	1587.815	1217.470
106.074	14.467	1586.164	1215.907
107.089	14.400	1584.256	1213.851
108.103	14.210	1583.417	1211.718
109.118	14.223	1581.808	1210.471
110.133	14.169	1580.019	1208.602
111.147	14.144	1579.235	1207.718
112.162	14.231	1577.829	1207.162
113.176	14.244	1576.573	1206.193
114.191	14.258	1574.784	1204.816
115.206	14.351	1573.449	1204.361
116.220	14.267	1572.789	1203.141
117.235	14.285	1571.346	1202.066
118.249	14.259	1569.690	1200.499
119.264	14.350	1568.147	1199.872
120.279	14.313	1566.776	1198.447
121.293	14.234	1565.497	1196.796
122.308	14.248	1563.730	1195.440
123.322	14.230	1562.401	1194.192
124.337	14.204	1561.441	1193.168
125.352	14.110	1559.680	1191.038
126.366	14.136	1558.769	1190.425
127.381	14.145	1557.748	1189.607
128.395	14.275	1555.764	1188.910
129.410	14.224	1554.909	1187.793
130.424	14.271	1553.428	1186.891
131.439	14.209	1552.465	1185.606
132.454	14.306	1550.877	1184.979
133.468	14.271	1549.891	1183.872
134.483	14.300	1548.333	1182.787
135.497	14.394	1546.684	1182.085
136.512	14.424	1545.358	1181.181
137.527	14.390	1544.190	1179.942
138.541	14.333	1543.162	1178.651
139.556	14.421	1541.629	1177.999
140.570	14.465	1540.445	1177.301
141.585	14.464	1539.066	1176.131
142.600	14.504	1538.132	1175.599
143.614	14.537	1536.716	1174.642
144.629	14.630	1535.557	1174.311
145.643	14.647	1534.281	1173.348
146.658	14.681	1532.730	1172.295
147.673	14.602	1531.464	1170.667
148.687	14.539	1529.989	1169.000
149.702	14.603	1528.059	1167.868
150.716	14.529	1526.808	1166.293
151.731	14.551	1525.337	1165.215
152.746	14.474	1523.722	1163.340
153.760	14.348	1522.429	1161.374
154.775	14.547	1520.983	1161.554
155.789	14.509	1520.237	1160.617
156.804	14.603	1518.548	1159.880
157.819	14.652	1517.691	1159.460
158.833	14.664	1516.785	1158.752
159.848	14.630	1515.600	1157.505
160.862	14.733	1514.639	1157.384
161.877	14.765	1512.940	1156.204
162.892	14.622	1511.658	1154.131
163.906	14.595	1510.174	1152.712
164.921	14.525	1509.038	1151.261
165.935	14.529	1507.979	1150.377
166.950	14.575	1506.992	1149.837
167.964	14.619	1505.738	1149.088
168.979	14.566	1505.161	1148.178
169.994	14.577	1503.706	1147.043
171.008	14.581	1503.194	1146.577
172.023	14.725	1501.344	1146.055
173.037	14.712	1500.382	1145.129
174.052	14.809	1499.606	1145.103
175.067	14.833	1498.510	1144.324
176.081	14.748	1496.818	1142.354
177.096	14.617	1495.926	1140.675
178.110	14.702	1494.293	1139.911
179.125	14.639	1493.762	1138.973
180.140	14.714	1492.315	1138.280
181.154	14.659	1491.203	1136.957
182.169	14.741	1490.486	1136.866
183.183	14.824	1489.164	1136.323
184.198	14.795	1488.142	1135.246
185.213	14.828	1487.366	1134.777
186.227	14.896	1486.227	1134.267
187.242	14.856	1485.425	1133.286
188.256	14.981	1483.746	1132.750
189.271	14.921	1483.337	1131.931
190.286	15.059	1481.747	1131.554
191.300	14.950	1480.937	1130.094
192.315	14.880	1479.265	1128.245
193.329	14.676	1478.259	1126.008
194.344	14.714	1476.940	1125.160
195.359	14.658	1476.106	1124.048
196.373	14.749	1475.061	1123.764
197.388	14.846	1474.558	1123.934
198.402	14.954	1472.919	1123.310
199.417	15.036	1472.164	1123.184
200.432	15.101	1471.125	1122.725
201.446	15.169	1470.241	1122.410
202.461	15.219	1468.950	1121.657
203.475	15.160	1468.254	1120.631
204.490	15.272	1467.205	1120.485
205.504	15.321	1465.638	1119.513
206.519	15.188	1465.066	1118.091
207.534	15.112	1463.975	1116.653
208.548	15.162	1462.286	1115.596
209.563	15.124	1461.248	1114.457
210.577	15.052	1460.877	1113.594
211.592	15.109	1459.736	1113.005
212.607	15.140	1459.201	1112.705
213.621	15.263	1458.255	1112.700
214.636	15.275	1457.939	1112.442
215.650	15.265	1456.474	1111.158
216.665	15.286	1455.324	1110.322
217.680	15.355	1454.464	1110.026
218.694	15.360	1453.599	1109.300
219.709	15.493	1452.800	1109.470
220.723	15.462	1452.070	1108.610
221.738	15.399	1451.158	1107.398
222.753	15.326	1450.345	1106.201
223.767	15.294	1449.488	1105.237
224.782	15.397	1448.315	1104.921
225.796	15.456	1447.489	1104.583
226.811	15.529	1446.502	1104.213
227.826	15.460	1445.808	1103.129
228.840	15.519	1444.988	1102.793
229.855	15.374	1444.231	1101.165
230.869	15.458	1443.038	1100.710
231.884	15.402	1442.094	1099.527
232.899	15.499	1440.581	1098.913
233.913	15.456	1439.490	1097.701
234.928	15.406	1438.567	1096.575
235.942	15.385	1436.837	1095.023
236.957	15.293	1435.801	1093.536
237.972	15.380	1434.564	1093.065
238.986	15.426	1433.328	1092.324
240.001	15.374	1432.561	1091.301
241.015	15.422	1431.602	1090.789
242.030	15.426	1430.373	1089.782
243.045	15.438	1430.053	1089.521
244.059	15.577	1428.313	1088.995
245.074	15.626	1427.771	1088.803
246.088	15.670	1426.899	1088.328
247.103	15.654	1426.065	1087.496
248.117	15.651	1425.733	1087.124
249.132	15.761	1424.631	1086.901
250.147	15.809	1423.956	1086.596
251.161	15.932	1423.366	1086.844
252.176	15.933	1423.132	1086.576
253.190	15.986	1422.380	1086.247
254.205	16.063	1420.992	1085.587
255.220	16.022	1420.252	1084.664
256.234	16.017	1419.732	1084.139
257.249	16.115	1418.865	1084.012
258.263	16.090	1418.101	1083.170
259.278	16.036	1417.177	1082.018
260.293	16.078	1416.215	1081.461
261.307	16.068	1415.447	1080.711
262.322	16.152	1414.557	1080.479
263.336	16.174	1413.817	1079.960
264.351	16.120	1413.164	1079.014
265.366	16.200	1411.922	1078.485
266.380	16.237	1410.963	1077.893
267.395	16.229	1410.185	1077.155
268.409	16.229	1409.004	1076.157
269.424	16.215	1408.109	1075.285
270.439	16.191	1407.245	1074.377
271.453	16.139	1406.271	1073.210
272.468	16.204	1405.062	1072.607
273.482	16.134	1404.750	1071.825
274.497	16.147	1403.993	1071.238
275.512	16.194	1402.885	1070.593
276.526	16.223	1401.827	1069.874
277.541	16.170	1400.774	1068.645
278.555	16.183	1400.457	1068.389
279.570	16.204	1399.400	1067.622
280.585	16.230	1398.314	1066.862
281.599	16.403	1397.490	1067.230
282.614	16.411	1396.918	1066.753
283.628	16.416	1395.457	1065.570
284.643	16.235	1394.673	1063.737
285.657	16.273	1393.579	1063.051
286.672	16.263	1392.748	1062.256
287.687	16.252	1391.775	1061.354
288.701	16.332	1390.090	1060.479
289.716	16.433	1389.116	1060.273
290.730	16.431	1388.644	1059.808
291.745	16.334	1388.038	1058.645
292.760	16.361	1387.039	1057.959
293.774	16.482	1385.721	1057.617
294.789	16.454	1384.848	1056.683
295.803	16.513	1384.105	1056.386
296.818	16.631	1383.137	1056.291
297.833	16.585	1382.312	1055.285
298.847	16.467	1381.074	1053.506
299.862	16.479	1380.234	1052.847
300.876	16.563	1379.271	1052.547
301.891	16.621	1377.998	1051.837
302.906	16.602	1377.411	1051.184
303.920	16.661	1376.807	1050.991
304.935	16.510	1376.634	1049.827
305.949	16.679	1375.517	1049.934
306.964	16.793	1374.706	1049.927
307.979	16.813	1373.969	1049.397
308.993	16.724	1373.168	1048.143
310.008	16.768	1372.076	1047.488
311.022	16.767	1370.839	1046.443
312.037	16.917	1369.730	1046.434
313.052	16.860	1369.169	1045.556
314.066	16.858	1368.199	1044.713
315.081	16.817	1366.902	1043.380
316.095	16.649	1366.231	1041.741
317.110	16.655	1365.056	1040.786
318.125	16.843	1363.656	1040.781
319.139	16.854	1362.747	1040.062
320.154	16.794	1361.871	1038.934
321.168	16.667	1361.221	1037.571
322.183	16.680	1360.377	1036.912
323.197	16.788	1359.184	1036.574
324.212	16.842	1358.114	1035.996
325.227	16.822	1357.359	1035.205
326.241	16.857	1356.377	1034.579
327.256	16.902	1355.767	1034.296
328.270	16.784	1354.997	1032.899
329.285	16.788	1354.118	1032.160
330.300	16.783	1352.866	1031.086
331.314	16.839	1352.126	1030.772
332.329	16.902	1351.332	1030.460
333.343	16.767	1350.709	1029.073
334.358	16.843	1349.958	1028.872
335.373	16.830	1349.051	1028.006
336.387	16.935	1348.501	1028.135
337.402	16.927	1347.624	1027.329
338.416	16.977	1346.943	1027.020
339.431	17.049	1346.352	1026.912
340.446	17.152	1345.196	1026.564
341.460	17.120	1344.388	1025.665
342.475	17.204	1343.422	1025.339
343.489	17.253	1342.574	1024.898
344.504	17.231	1341.546	1023.891
345.519	17.276	1340.715	1023.436
346.533	17.266	1340.159	1022.865
347.548	17.411	1338.784	1022.594
348.562	17.391	1338.202	1021.941
349.577	17.396	1337.609	1021.424
350.592	17.442	1336.438	1020.717
351.606	17.231	1335.508	1018.650
352.621	17.236	1334.639	1017.928
353.635	17.137	1333.725	1016.551
354.650	17.203	1332.482	1015.909
355.665	17.184	1331.799	1015.183
356.679	17.216	1330.844	1014.558
357.694	17.311	1329.149	1013.738
358.708	17.343	1328.218	1013.131
359.723	17.287	1327.487	1012.153
360.738	17.355	1326.214	1011.493
361.752	17.366	1325.188	1010.688
362.767	17.331	1324.651	1009.979
363.781	17.462	1322.887	1009.325
364.796	17.415	1322.625	1008.753
365.810	17.497	1321.793	1008.517
366.825	17.525	1321.072	1008.045
367.840	17.541	1320.528	1007.633
368.854	17.594	1319.872	1007.357
369.869	17.692	1319.469	1007.540
370.883	17.698	1318.768	1006.953
371.898	17.666	1318.019	1006.104
372.913	17.577	1317.207	1004.867
373.927	17.675	1316.081	1004.495
374.942	17.754	1315.279	1004.259
375.956	17.721	1314.886	1003.680
376.971	17.693	1314.070	1002.799
377.986	17.729	1312.663	1001.850
379.000	17.676	1312.138	1001.052
380.015	17.629	1311.679	1000.334
381.029	17.777	1310.544	1000.248
382.044	17.901	1309.891	1000.389
383.059	17.941	1309.396	1000.155
384.073	17.884	1308.497	999.051
385.088	17.859	1307.614	998.140
386.102	17.925	1306.848	997.855
387.117	17.887	1306.483	997.263
388.132	17.850	1305.535	996.233
389.146	17.815	1304.497	995.154
390.161	17.886	1303.937	995.049
391.175	17.832	1302.925	993.875
392.190	17.875	1301.752	993.140
393.205	17.821	1301.059	992.215
394.219	18.009	1300.127	992.507
395.234	17.971	1299.494	991.712
396.248	17.958	1298.115	990.498
397.263	17.972	1296.525	989.276
398.278	17.995	1294.953	988.127
399.292	18.011	1294.109	987.487
400.307	17.879	1293.060	985.838
401.321	17.890	1292.138	985.107
402.336	17.870	1290.949	984.003
403.350	17.788	1290.308	982.952
404.365	17.924	1289.243	982.835
405.380	17.948	1288.476	982.304
406.394	18.010	1287.666	981.952
407.409	17.930	1286.805	980.753
408.423	17.978	1286.395	980.629
409.438	18.118	1285.455	980.629
410.453	18.065	1284.967	979.863
411.467	18.165	1283.924	979.558
412.482	18.285	1283.293	979.674
413.496	18.298	1282.737	979.236
414.511	18.286	1282.198	978.672
415.526	18.177	1281.481	977.415
416.540	18.386	1280.666	977.898
417.555	18.364	1280.211	977.339
418.569	18.494	1279.337	977.327
419.584	18.431	1278.893	976.544
420.599	18.465	1278.489	976.343
421.613	137.717	1430.652	1790.163
422.628	132.608	1452.782	1790.265
