DTS Sentinel unit serial number:	SN413079Multiplexer serial number:	ORYXHardware model number:	OX4-SRSoftware version number:	ORYX F/W v4.00 Oryx Data Collector v3.7.2.0data status	okinstallation	princeton_trtdifferential loss correction	single-endedforward channel	channel 4reverse channel	N/Adate	2019/09/17time	12:01:35forward acquisition time	60.00reverse acquisition time	0.00gamma	496.2192k internal	0.2307k external	0.2307temperature offset calibration	0.9990default loss term (dB/km)	0.3790temperature slope calibration	1.0000multiplexer offset coefficient	1.0000multiplexer slope coefficient	1.0000fibre end	0.00T internal ref (°C)	31.12T ext. ref 1 (°C)	0.42T ext. ref 2 (°C)	27.21length (m)	temperature (°C)	Stokes	anti-Stokes-747.200	259.015	0.064	0.112
-746.185	60.968	-0.078	-0.079
-745.171	-181.001	0.076	-0.002
-744.156	-7.825	-0.177	0.122
-743.142	76.871	-0.031	0.034
-742.127	291.939	-0.191	0.354
-741.112	139.207	-0.110	-0.147
-740.098	-200.000	-0.058	0.311
-739.083	800.000	0.083	0.302
-738.069	-42.808	0.291	-0.151
-737.054	-62.149	-0.351	-0.149
-736.039	578.015	-0.092	-0.229
-735.025	75.519	0.031	-0.033
-734.010	276.212	0.104	-0.187
-732.996	-81.633	-0.247	-0.082
-731.981	-90.217	-0.123	0.036
-730.966	-200.000	0.064	-0.502
-729.952	-200.000	-0.006	-0.110
-728.937	-200.000	0.005	-0.102
-727.923	68.203	0.219	-0.228
-726.908	551.520	-0.050	-0.123
-725.894	93.848	0.099	-0.114
-724.879	-132.661	-0.372	0.048
-723.864	100.450	0.236	-0.278
-722.850	-87.373	-0.086	0.026
-721.835	71.256	0.096	0.101
-720.821	-200.000	-0.002	-0.033
-719.806	-96.441	-0.167	0.045
-718.791	-29.145	0.212	-0.124
-717.777	-59.033	0.219	-0.096
-716.762	70.518	-0.228	0.239
-715.748	-55.033	-0.174	-0.080
-714.733	-108.869	-0.269	-0.058
-713.718	-58.589	0.132	-0.058
-712.704	134.515	-0.309	-0.407
-711.689	40.686	-0.106	-0.097
-710.675	-29.794	0.127	-0.073
-709.660	-186.965	-0.120	0.002
-708.645	-100.064	0.155	0.039
-707.631	369.158	-0.079	-0.161
-706.616	-98.370	-0.094	-0.025
-705.602	-49.831	0.321	0.155
-704.587	277.782	0.120	-0.216
-703.572	13.640	-0.127	0.100
-702.558	-89.669	-0.258	0.077
-701.543	-149.269	0.246	-0.020
-700.529	15.037	0.192	0.152
-699.514	64.528	-0.152	-0.155
-698.499	-200.000	-0.007	-0.199
-697.485	60.980	0.041	0.042
-696.470	-54.005	0.032	0.015
-695.456	-79.773	-0.249	0.085
-694.441	-42.359	-0.230	-0.119
-693.426	-82.335	0.226	-0.075
-692.412	-200.000	-0.005	-0.048
-691.397	-46.105	0.092	-0.046
-690.383	171.657	0.155	-0.226
-689.368	-92.513	-0.145	-0.041
-688.354	171.894	0.051	0.074
-687.339	-87.040	0.202	0.062
-686.324	-200.000	-0.011	0.266
-685.310	155.745	0.111	0.155
-684.295	124.106	-0.081	0.104
-683.281	747.849	0.050	0.137
-682.266	144.301	0.067	0.091
-681.251	-106.104	0.302	-0.069
-680.237	-200.000	0.638	-0.002
-679.222	-200.000	-0.075	-0.408
-678.208	800.000	-0.029	-0.096
-677.193	-200.000	0.014	-0.171
-676.178	-147.102	-0.209	-0.018
-675.164	-176.216	-0.392	0.010
-674.149	48.956	0.198	0.188
-673.135	292.092	0.080	0.147
-672.120	-142.109	-0.071	-0.007
-671.105	147.112	0.231	-0.315
-670.091	-200.000	0.100	-0.464
-669.076	234.599	0.158	0.264
-668.062	800.000	0.057	0.190
-667.047	-153.039	-0.323	-0.023
-666.032	-11.126	0.391	-0.262
-665.018	618.423	-0.053	0.135
-664.003	-121.745	-0.286	0.048
-662.989	-200.000	0.009	-0.047
-661.974	72.073	0.118	-0.125
-660.959	-46.172	0.310	-0.155
-659.945	-200.000	-0.042	-0.458
-658.930	35.148	-0.103	0.091
-657.916	-131.614	0.154	-0.021
-656.901	-112.879	-0.182	0.037
-655.886	115.637	0.190	-0.236
-654.872	-43.644	0.063	0.032
-653.857	-111.979	-0.097	0.020
-652.843	-200.000	-0.005	-0.062
-651.828	-175.130	0.250	-0.007
-650.814	-94.465	0.464	0.128
-649.799	-195.746	-0.276	0.002
-648.784	-112.635	0.304	-0.061
-647.770	-16.623	0.173	0.111
-646.755	214.455	-0.093	0.149
-645.741	98.316	0.022	-0.026
-644.726	10.778	0.279	0.216
-643.711	-101.343	0.202	-0.050
-642.697	47.774	0.169	0.160
-641.682	-102.500	0.278	-0.067
-640.668	-19.025	-0.095	-0.060
-639.653	137.919	-0.164	0.218
-638.638	-200.000	0.023	-0.152
-637.624	-200.000	0.036	0.323
-636.609	33.823	-0.083	-0.073
-635.595	689.547	-0.132	0.351
-634.580	587.978	-0.044	0.111
-633.565	151.205	0.177	-0.244
-632.551	24.369	0.125	0.104
-631.536	90.226	0.102	0.116
-630.522	-162.124	-0.142	-0.007
-629.507	-3.002	-0.169	0.119
-628.492	688.755	0.023	-0.062
-627.478	800.000	0.159	-0.499
-626.463	-200.000	0.042	0.239
-625.449	-113.495	0.103	-0.020
-624.434	-200.000	-0.026	-0.261
-623.419	47.305	0.157	0.148
-622.405	121.402	-0.145	-0.183
-621.390	-65.627	0.147	0.060
-620.376	97.512	-0.057	-0.067
-619.361	-50.755	-0.081	-0.038
-618.346	-200.000	0.043	-0.211
-617.332	-98.736	-0.441	0.114
-616.317	-53.569	0.203	-0.094
-615.303	78.127	0.129	-0.139
-614.288	19.287	0.137	-0.111
-613.273	81.562	0.256	-0.280
-612.259	761.650	-0.050	-0.136
-611.244	-137.981	0.275	-0.031
-610.230	-200.000	-0.010	-0.334
-609.215	-200.000	-0.011	0.182
-608.201	-130.762	-0.120	-0.016
-607.186	676.132	-0.159	0.418
-606.171	-200.000	-0.051	0.277
-605.157	206.340	0.085	0.133
-604.142	215.895	0.068	0.109
-603.128	59.501	0.089	0.088
-602.113	-200.000	0.011	0.150
-601.098	55.330	-0.228	-0.223
-600.084	-55.466	0.373	-0.169
-599.069	161.446	0.178	0.251
-598.055	-150.370	-0.420	-0.033
-597.040	800.000	0.038	0.166
-596.025	-31.922	-0.157	-0.089
-595.011	-200.000	0.025	-0.146
-593.996	35.342	0.303	0.268
-592.982	59.077	-0.066	-0.065
-591.967	-168.016	0.388	0.015
-590.952	48.401	-0.262	-0.248
-589.938	-99.256	-0.235	-0.060
-588.923	74.517	0.092	-0.098
-587.909	-140.813	-0.170	0.018
-586.894	-200.000	0.026	-0.242
-585.879	81.681	0.102	-0.111
-584.865	185.184	0.212	-0.318
-583.850	-200.000	0.018	-0.230
-582.836	339.761	-0.152	-0.300
-581.821	-153.667	-0.515	-0.036
-580.806	21.341	-0.604	-0.496
-579.792	229.137	-0.137	-0.225
-578.777	319.843	0.200	0.383
-577.763	-25.388	-0.217	0.130
-576.748	-116.901	0.163	-0.030
-575.733	800.000	0.090	-0.305
-574.719	800.000	0.036	-0.103
-573.704	-8.178	0.243	0.165
-572.690	608.570	-0.088	0.222
-571.675	-170.068	0.271	-0.010
-570.661	-133.091	0.043	-0.006
-569.646	644.490	-0.035	-0.091
-568.631	-96.783	0.005	0.001
-567.617	500.342	-0.092	-0.214
-566.602	-200.000	-0.054	-0.242
-565.588	-48.372	0.272	-0.132
-564.573	-163.573	-0.281	0.013
-563.558	-43.425	-0.116	0.059
-562.544	-40.358	0.040	-0.021
-561.529	581.305	0.078	0.193
-560.515	607.503	0.134	0.338
-559.500	585.851	0.062	-0.155
-558.485	-200.000	-0.013	-0.199
-557.471	-200.000	-0.017	-0.593
-556.456	4.972	-0.096	-0.072
-555.442	-151.818	0.253	0.019
-554.427	-61.807	0.239	0.101
-553.412	255.042	0.109	0.189
-552.398	-32.874	0.168	0.094
-551.383	500.543	-0.103	-0.239
-550.369	-69.085	0.228	0.089
-549.354	-200.000	0.015	0.204
-548.339	124.608	0.178	0.226
-547.325	577.157	0.083	0.205
-546.310	-57.900	-0.180	0.080
-545.296	800.000	-0.165	0.537
-544.281	246.136	0.102	0.174
-543.266	115.439	-0.138	-0.170
-542.252	-76.379	-0.329	0.117
-541.237	108.297	0.079	-0.095
-540.223	-106.607	-0.093	0.021
-539.208	311.543	-0.108	0.205
-538.193	95.027	-0.109	0.125
-537.179	362.288	0.199	-0.403
-536.164	800.000	0.042	-0.155
-535.150	368.447	-0.120	0.244
-534.135	111.886	0.165	-0.201
-533.121	-122.239	-0.266	0.044
-532.106	366.523	0.145	-0.295
-531.091	139.885	0.207	0.275
-530.077	-52.227	-0.155	0.072
-529.062	-200.000	-0.010	0.172
-528.048	65.982	-0.160	-0.163
-527.033	-72.908	-0.201	-0.075
-526.018	-200.000	0.004	0.132
-525.004	-50.187	0.371	-0.177
-523.989	-121.137	-0.110	-0.019
-522.975	-65.480	-0.168	0.068
-521.960	66.304	-0.159	0.163
-520.945	-112.653	0.215	-0.043
-519.931	140.432	-0.147	-0.195
-518.916	-139.380	0.162	0.018
-517.902	-107.989	0.184	-0.040
-516.887	118.616	-0.090	-0.112
-515.872	-200.000	0.023	-0.296
-514.858	127.855	-0.203	0.260
-513.843	57.767	-0.233	0.230
-512.829	800.000	0.034	0.114
-511.814	-31.866	0.230	0.130
-510.799	800.000	0.026	0.090
-509.785	-88.144	-0.227	-0.069
-508.770	391.477	0.088	-0.184
-507.756	800.000	0.047	-0.153
-506.741	-56.759	0.159	0.071
-505.726	-134.207	-0.135	-0.017
-504.712	-200.000	-0.000	0.068
-503.697	-84.566	-0.076	0.024
-502.683	151.425	-0.162	0.222
-501.668	800.000	-0.013	0.037
-500.653	-105.956	-0.199	0.045
-499.639	-93.115	0.298	0.084
-498.624	173.378	-0.112	0.163
-497.610	-38.737	0.103	0.055
-496.595	340.494	0.180	0.354
-495.581	-74.501	0.189	0.069
-494.566	-200.000	-0.156	0.000
-493.551	-13.869	-0.207	0.135
-492.537	47.487	0.058	0.054
-491.522	145.877	0.103	-0.139
-490.508	-93.237	-0.185	0.052
-489.493	18.345	0.305	-0.245
-488.478	-80.751	0.109	0.037
-487.464	-62.134	-0.408	0.171
-486.449	-53.238	0.223	-0.103
-485.435	29.079	0.147	-0.126
-484.420	281.773	0.129	0.232
-483.405	135.542	-0.108	0.141
-482.391	-37.815	-0.321	0.172
-481.376	800.000	0.025	0.087
-480.362	800.000	-0.025	0.071
-479.347	-200.000	0.091	0.505
-478.332	-111.956	0.145	-0.029
-477.318	163.421	0.203	-0.287
-476.303	505.689	-0.076	-0.177
-475.289	124.045	0.108	0.137
-474.274	-200.000	-0.012	0.251
-473.259	-55.050	0.336	-0.152
-472.245	800.000	-0.122	-0.409
-471.230	8.330	0.139	-0.105
-470.216	-200.000	0.009	-0.366
-469.201	-200.000	-0.022	0.239
-468.186	1.172	0.117	0.084
-467.172	-152.592	0.285	-0.021
-466.157	371.395	-0.212	0.432
-465.143	664.103	0.097	0.252
-464.128	800.000	0.177	0.558
-463.113	-23.404	-0.248	0.150
-462.099	-38.921	0.099	-0.053
-461.084	9.931	-0.124	-0.094
-460.070	-104.636	-0.281	-0.065
-459.055	-80.634	0.536	0.180
-458.040	800.000	-0.042	0.146
-457.026	237.291	0.162	-0.269
-456.011	430.851	-0.162	-0.353
-454.997	-61.629	0.255	0.107
-453.982	-52.925	-0.333	0.154
-452.968	-59.243	-0.304	-0.132
-451.953	659.890	0.148	0.382
-450.938	-116.725	-0.260	-0.048
-449.924	30.601	-0.055	0.048
-448.909	82.466	0.158	-0.172
-447.895	-200.000	0.011	0.060
-446.880	7.092	0.101	0.075
-445.865	486.666	-0.074	-0.169
-444.851	-1.529	-0.393	-0.279
-443.836	-1.593	-0.272	-0.192
-442.822	-9.611	-0.250	0.167
-441.807	25.220	0.149	0.124
-440.792	-38.749	-0.184	-0.098
-439.778	-200.000	0.026	-0.203
-438.763	145.519	-0.054	0.073
-437.749	229.682	0.110	0.181
-436.734	-200.000	-0.020	-0.207
-435.719	-200.000	-0.043	0.231
-434.705	306.996	-0.135	-0.253
-433.690	-6.159	0.206	-0.142
-432.676	60.304	0.096	-0.096
-431.661	-200.000	-0.002	-0.203
-430.646	-200.000	0.037	-0.164
-429.632	29.737	0.218	-0.186
-428.617	75.924	-0.054	0.058
-427.603	195.788	-0.081	-0.123
-426.588	516.648	-0.106	0.248
-425.573	24.688	-0.066	0.055
-424.559	416.922	-0.116	0.249
-423.544	309.622	-0.107	-0.201
-422.530	-29.314	0.145	0.083
-421.515	-200.000	0.029	0.249
-420.500	-200.000	-0.001	-0.213
-419.486	800.000	0.035	-0.111
-418.471	326.366	-0.108	0.207
-417.457	-61.323	-0.311	-0.132
-416.442	-200.000	-0.045	0.355
-415.428	-116.502	-0.252	-0.047
-414.413	56.018	-0.151	0.147
-413.398	-200.000	-0.020	0.197
-412.384	-90.092	0.236	-0.069
-411.369	-47.970	-0.340	0.165
-410.355	-170.566	0.160	0.006
-409.340	-59.691	-0.375	0.161
-408.325	800.000	-0.077	0.255
-407.311	-200.000	-0.005	-0.335
-406.296	-132.145	0.088	-0.011
-405.282	66.446	0.142	-0.145
-404.267	-39.895	-0.311	0.163
-403.252	-11.906	0.125	-0.082
-402.238	-148.543	-0.081	0.007
-401.223	-100.070	-0.496	-0.124
-400.209	-200.000	-0.030	0.466
-399.194	-119.747	-0.705	0.122
-398.179	-57.282	-0.212	0.093
-397.165	-61.820	-0.196	0.082
-396.150	-200.000	0.002	0.206
-395.136	800.000	-0.034	0.130
-394.121	-42.484	-0.217	0.111
-393.106	494.386	0.063	0.145
-392.092	-200.000	-0.003	0.107
-391.077	800.000	-0.078	-0.284
-390.063	487.832	0.188	0.431
-389.048	800.000	0.069	0.273
-388.033	347.391	0.108	0.214
-387.019	-128.951	0.256	0.036
-386.004	-9.447	0.166	0.111
-384.990	99.460	0.093	-0.108
-383.975	-29.642	0.175	0.100
-382.960	-200.000	0.020	-0.313
-381.946	-68.017	-0.164	-0.064
-380.931	-112.367	0.213	-0.043
-379.917	155.375	-0.076	0.105
-378.902	163.314	-0.143	-0.202
-377.888	34.208	-0.129	-0.113
-376.873	-71.930	-0.132	0.049
-375.858	800.000	0.028	0.108
-374.844	165.360	-0.137	0.194
-373.829	102.650	-0.158	-0.186
-372.815	800.000	0.072	-0.268
-371.800	-70.460	0.255	-0.097
-370.785	-88.368	0.205	0.061
-369.771	-147.920	-0.218	0.018
-368.756	-155.187	-0.135	0.009
-367.742	-138.295	-0.347	0.038
-366.727	800.000	0.085	0.374
-365.712	226.210	-0.118	0.191
-364.698	-54.194	0.172	0.078
-363.683	-107.554	0.222	-0.049
-362.669	-94.894	0.184	0.050
-361.654	800.000	0.016	-0.051
-360.639	-200.000	0.029	0.287
-359.625	-89.496	-0.454	-0.134
-358.610	-74.882	0.366	0.132
-357.596	-142.006	-0.074	0.007
-356.581	-154.620	-0.194	0.013
-355.566	800.000	0.054	-0.228
-354.552	-121.037	0.278	-0.047
-353.537	-115.251	0.356	0.067
-352.523	-200.000	-0.014	-0.215
-351.508	-3.169	0.126	-0.088
-350.493	172.190	0.024	-0.035
-349.479	-145.681	0.052	-0.005
-348.464	800.000	0.124	0.433
-347.450	82.448	0.096	0.104
-346.435	800.000	-0.089	0.246
-345.420	-200.000	-0.011	-0.276
-344.406	-112.262	-0.084	0.017
-343.391	585.579	0.033	0.082
-342.377	79.316	0.170	0.182
-341.362	790.811	0.102	-0.280
-340.348	-135.003	0.609	0.074
-339.333	-150.307	-0.327	-0.025
-338.318	800.000	0.068	-0.222
-337.304	-200.000	0.236	0.001
-336.289	154.339	-0.267	-0.367
-335.275	258.859	-0.032	-0.056
-334.260	157.938	-0.121	-0.168
-333.245	150.640	0.222	-0.302
-332.231	291.810	0.138	-0.252
-331.216	88.021	-0.123	0.136
-330.202	192.513	0.121	-0.182
-329.187	-117.665	-0.032	-0.006
-328.172	108.089	0.135	-0.161
-327.158	-32.209	-0.120	0.067
-326.143	-79.982	0.073	0.025
-325.129	797.071	-0.107	0.296
-324.114	-113.903	-0.209	0.041
-323.099	-200.000	0.016	-0.629
-322.085	-18.946	0.047	-0.029
-321.070	-200.000	0.001	-0.527
-320.056	-200.000	-0.000	-0.194
-319.041	64.271	0.235	0.237
-318.026	-200.000	0.002	-0.092
-317.012	-200.000	0.080	-0.494
-315.997	138.563	-0.062	0.082
-314.983	275.975	-0.073	-0.130
-313.968	-200.000	0.027	0.198
-312.953	-20.053	0.164	-0.101
-311.939	800.000	-0.073	0.249
-310.924	136.134	-0.084	0.110
-309.910	-200.000	-0.024	0.129
-308.895	141.117	-0.096	0.127
-307.880	-200.000	0.005	-0.071
-306.866	-32.802	0.160	-0.089
-305.851	800.000	0.072	-0.213
-304.837	-109.528	-0.047	-0.010
-303.822	-127.293	0.080	0.012
-302.807	-200.000	0.020	0.093
-301.793	516.790	0.067	0.157
-300.778	-52.358	0.089	-0.041
-299.764	-108.661	0.127	-0.027
-298.749	-200.000	-0.056	-0.332
-297.735	-200.000	0.034	-0.249
-296.720	252.848	0.120	0.204
-295.705	-106.404	0.205	0.046
-294.691	800.000	0.029	0.100
-293.676	34.284	0.173	0.151
-292.662	-107.034	0.109	0.024
-291.647	-200.000	0.252	0.001
-290.632	-156.673	0.195	-0.012
-289.618	242.104	0.128	0.214
-288.603	-200.000	-0.028	-0.178
-287.589	800.000	-0.068	-0.212
-286.574	-23.698	-0.302	-0.181
-285.559	78.246	-0.129	-0.138
-284.545	72.987	-0.061	0.063
-283.530	187.768	-0.089	0.133
-282.516	-46.311	-0.029	0.014
-281.501	-81.209	0.088	0.029
-280.486	-200.000	-0.038	0.251
-279.472	-85.298	-0.167	-0.052
-278.457	491.649	0.021	0.047
-277.443	-200.000	-0.024	-0.337
-276.428	-58.657	-0.024	-0.010
-275.413	506.447	-0.090	-0.208
-274.399	452.484	-0.099	0.219
-273.384	-47.075	0.151	-0.074
-272.370	-200.000	-0.010	0.193
-271.355	-125.664	0.331	0.050
-270.340	-162.617	-0.279	-0.014
-269.326	84.275	-0.193	0.210
-268.311	39.536	-0.102	-0.091
-267.297	13.266	0.261	0.202
-266.282	-56.204	0.275	-0.122
-265.267	-70.442	-0.191	0.072
-264.253	800.000	-0.025	-0.071
-263.238	11.972	0.204	0.157
-262.224	325.601	0.082	0.156
-261.209	51.830	0.189	0.179
-260.195	-47.354	-0.272	0.132
-259.180	292.509	0.201	0.366
-258.165	250.390	-0.108	0.183
-257.151	461.054	-0.181	0.403
-256.136	-2.037	-0.238	-0.167
-255.122	-50.851	0.109	0.051
-254.107	164.448	0.330	-0.465
-253.092	-140.907	-0.076	0.008
-252.078	-45.091	-0.232	-0.115
-251.063	-32.299	-0.278	-0.155
-250.049	-108.902	0.260	0.055
-249.034	800.000	0.033	0.103
-248.019	-151.527	-0.250	-0.018
-247.005	160.173	0.269	-0.374
-245.990	-89.389	-0.256	0.075
-244.976	-200.000	-0.038	-0.278
-243.961	-200.000	0.022	0.098
-242.946	-72.141	-0.210	-0.078
-241.932	-99.001	0.229	0.058
-240.917	10.447	0.189	-0.144
-239.903	11.197	-0.166	0.127
-238.888	-200.000	0.000	-0.039
-237.873	456.383	-0.067	-0.148
-236.859	359.249	-0.084	-0.168
-235.844	-145.097	-0.076	0.007
-234.830	202.693	0.135	-0.208
-233.815	-200.000	0.014	0.336
-232.800	-128.239	-0.489	-0.070
-231.786	101.146	0.264	-0.306
-230.771	24.125	0.220	0.181
-229.757	-54.003	0.285	-0.129
-228.742	20.842	-0.029	-0.023
-227.727	245.615	0.200	-0.335
-226.713	-66.941	-0.211	-0.083
-225.698	-94.612	0.398	-0.108
-224.684	-175.390	0.204	-0.006
-223.669	-51.990	-0.159	-0.073
-222.655	-8.438	0.309	-0.207
-221.640	-200.000	-0.005	-0.196
-220.625	27.772	0.136	-0.114
-219.611	-105.088	-0.186	-0.042
-218.596	106.374	-0.210	0.248
-217.582	425.533	-0.245	-0.526
-216.567	225.807	0.045	-0.073
-215.552	-9.119	-0.193	0.129
-214.538	-60.674	-0.404	-0.171
-213.523	148.001	0.085	0.114
-212.509	-200.000	-0.012	0.086
-211.494	800.000	0.065	0.189
-210.479	-200.000	-0.029	0.284
-209.465	-98.176	0.148	0.038
-208.450	-200.000	-0.002	-0.175
-207.436	800.000	-0.117	0.365
-206.421	-91.081	0.124	0.035
-205.406	-20.820	-0.242	0.148
-204.392	68.835	-0.031	0.032
-203.377	-69.368	-0.221	0.084
-202.363	-42.588	-0.053	0.027
-201.348	-200.000	0.052	0.272
-200.333	-153.467	0.164	0.011
-199.319	800.000	0.116	-0.359
-198.304	127.038	-0.155	-0.196
-197.290	-200.000	0.024	0.276
-196.275	-20.955	-0.143	-0.087
-195.260	-200.000	0.013	-0.222
-194.246	800.000	0.065	-0.217
-193.231	-200.000	-0.013	-0.232
-192.217	108.759	0.167	-0.199
-191.202	314.771	-0.113	0.211
-190.187	55.808	-0.170	0.164
-189.173	-200.000	-0.069	-0.324
-188.158	-54.969	0.097	0.044
-187.144	124.663	0.216	0.270
-186.129	-144.749	-0.064	0.006
-185.114	-27.111	0.376	-0.218
-184.100	-200.000	-0.024	0.169
-183.085	-200.000	-0.075	0.399
-182.071	154.929	-0.163	0.223
-181.056	155.129	0.106	0.145
-180.042	-56.037	0.428	0.190
-179.027	123.114	-0.309	-0.386
-178.012	107.730	-0.104	0.123
-176.998	-200.000	-0.008	-0.095
-175.983	-200.000	0.007	-0.266
-174.969	-79.728	-0.215	-0.072
-173.954	54.148	-0.046	0.044
-172.939	-102.784	0.130	-0.031
-171.925	-187.143	0.113	0.002
-170.910	-165.812	0.168	-0.007
-169.896	-43.833	-0.334	-0.167
-168.881	36.616	0.143	-0.126
-167.866	385.253	0.125	0.257
-166.852	126.889	0.209	0.263
-165.837	-173.170	0.207	-0.006
-164.823	800.000	0.039	-0.147
-163.808	206.340	-0.216	0.334
-162.793	-141.781	0.288	-0.029
-161.779	-53.781	-0.098	-0.045
-160.764	-107.950	-0.311	0.067
-159.750	237.360	-0.188	-0.310
-158.735	109.936	-0.205	0.245
-157.720	-37.816	-0.107	-0.057
-156.706	-30.914	-0.192	-0.108
-155.691	-200.000	-0.005	0.034
-154.677	-48.773	0.027	-0.013
-153.662	800.000	-0.042	-0.160
-152.647	-200.000	0.038	-0.192
-151.633	565.669	-0.089	-0.215
-150.618	-161.253	-0.130	-0.007
-149.604	-200.000	0.016	0.211
-148.589	59.317	-0.093	-0.091
-147.574	47.626	0.040	-0.037
-146.560	-200.000	-0.040	-0.288
-145.545	3.186	0.015	0.011
-144.531	-200.000	-0.013	-0.321
-143.516	800.000	0.039	0.112
-142.502	-21.098	0.243	0.148
-141.487	-200.000	0.023	0.108
-140.472	45.715	-0.248	-0.228
-139.458	800.000	-0.104	0.375
-138.443	-12.209	-0.040	0.026
-137.429	260.485	-0.067	0.115
-136.414	-200.000	0.027	-0.326
-135.399	111.514	0.107	-0.128
-134.385	195.544	0.039	-0.059
-133.370	341.773	-0.086	0.167
-132.356	-77.949	-0.036	-0.012
-131.341	-100.483	-0.314	0.077
-130.326	6.273	0.193	-0.142
-129.312	-35.088	0.159	-0.086
-128.297	481.433	-0.143	0.323
-127.283	490.486	0.081	-0.184
-126.268	-51.348	0.292	0.135
-125.253	189.333	0.253	0.376
-124.239	171.896	0.112	0.160
-123.224	-74.931	0.465	0.166
-122.210	-100.324	-0.185	0.045
-121.195	0.607	-0.068	-0.048
-120.180	800.000	-0.033	0.116
-119.166	100.198	0.029	0.033
-118.151	239.675	0.089	0.147
-117.137	247.923	0.144	0.242
-116.122	25.683	-0.466	-0.385
-115.107	154.265	-0.086	0.117
-114.093	-200.000	0.015	-0.207
-113.078	-200.000	-0.002	-0.077
-112.064	-200.000	0.044	-0.500
-111.049	-200.000	-0.054	-0.236
-110.034	120.271	0.260	-0.320
-109.020	-18.467	0.233	0.144
-108.005	68.232	-0.184	0.187
-106.991	-59.307	-0.377	-0.161
-105.976	-75.812	0.030	-0.010
-104.962	75.960	0.100	0.105
-103.947	-79.943	-0.153	-0.051
-102.932	157.536	-0.194	0.267
-101.918	-200.000	-0.032	0.217
-100.903	448.225	0.035	-0.076
-99.889	-70.763	0.245	0.092
-98.874	96.747	0.151	-0.171
-97.859	-51.936	-0.154	-0.071
-96.845	-200.000	0.034	0.165
-95.830	-23.858	-0.125	-0.074
-94.816	-92.686	0.209	0.058
-93.801	206.475	0.134	0.207
-92.786	-200.000	0.029	0.384
-91.772	748.240	0.046	0.124
-90.757	52.417	0.126	0.120
-89.743	211.230	-0.060	-0.093
-88.728	-50.192	-0.153	0.072
-87.713	-200.000	0.043	-0.257
-86.699	240.540	-0.166	-0.274
-85.684	-85.217	0.358	0.111
-84.670	339.945	-0.093	0.180
-83.655	100.264	-0.189	0.217
-82.640	-200.000	0.011	-0.343
-81.626	405.841	0.070	-0.146
-80.611	-142.463	-0.095	-0.009
-79.597	-129.677	-0.125	0.017
-78.582	-51.549	-0.097	0.045
-77.567	-103.230	0.249	0.058
-76.553	-78.141	-0.219	-0.075
-75.538	800.000	-0.056	-0.152
-74.524	-109.137	-0.206	0.043
-73.509	217.071	0.131	-0.207
-72.494	27.690	0.226	-0.188
-71.480	-151.494	0.247	-0.018
-70.465	656.917	-0.161	-0.411
-69.451	-188.771	0.176	-0.002
-68.436	277.417	0.064	0.113
-67.422	341.194	0.041	0.080
-66.407	-134.953	-0.184	0.022
-65.392	33.715	0.269	-0.232
-64.378	-84.819	-0.224	-0.070
-63.363	11.140	-0.130	0.098
-62.349	27.756	0.122	0.102
-61.334	3.144	-1.031	-0.742
-60.319	106.991	0.460	0.541
-59.305	217.492	-0.465	-0.734
-58.290	158.311	0.682	0.937
-57.276	-200.000	0.405	1.923
-56.261	-200.000	98.108	592.188
-55.246	514.292	1411.946	3261.519
-54.232	151.831	2602.096	3511.487
-53.217	101.209	2330.286	2685.274
-52.203	37.800	2086.257	1834.599
-51.188	32.882	1999.768	1713.953
-50.173	31.283	1981.647	1683.946
-49.159	46.248	2032.111	1863.800
-48.144	47.380	2049.456	1889.979
-47.130	33.425	2012.060	1729.169
-46.115	31.091	2001.552	1698.848
-45.100	31.014	1998.213	1695.240
-44.086	31.031	1995.457	1692.997
-43.071	30.987	1992.889	1690.348
-42.057	30.934	1990.916	1688.125
-41.042	30.939	1988.745	1686.267
-40.027	30.960	1987.107	1684.994
-39.013	31.114	1984.503	1684.112
-37.998	31.050	1983.200	1682.362
-36.984	31.043	1981.006	1680.372
-35.969	31.040	1979.156	1678.714
-34.954	31.047	1977.533	1677.327
-33.940	31.153	1975.748	1676.699
-32.925	31.153	1974.395	1675.485
-31.911	31.191	1972.499	1674.151
-30.896	31.096	1971.443	1672.335
-29.881	31.142	1969.816	1671.300
-28.867	31.151	1967.592	1669.429
-27.852	31.263	1965.817	1668.862
-26.838	31.140	1964.633	1666.686
-25.823	31.161	1962.647	1665.129
-24.809	31.251	1960.306	1663.877
-23.794	31.176	1959.250	1662.247
-22.779	31.164	1957.170	1660.308
-21.765	31.111	1956.005	1658.786
-20.750	31.103	1954.312	1657.206
-19.736	31.116	1952.751	1655.935
-18.721	31.106	1950.694	1654.033
-17.706	31.115	1949.454	1652.999
-16.692	31.170	1947.521	1651.785
-15.677	31.132	1945.783	1649.909
-14.663	31.148	1944.412	1648.821
-13.648	31.168	1942.845	1647.600
-12.633	31.168	1941.833	1646.677
-11.619	31.136	1940.767	1645.425
-10.604	31.193	1938.732	1644.135
-9.590	31.032	1937.988	1642.027
-8.575	31.079	1936.868	1641.427
-7.560	31.128	1935.045	1640.245
-6.546	31.149	1933.889	1639.386
-5.531	31.108	1932.529	1637.806
-4.517	31.133	1931.501	1637.091
-3.502	31.161	1930.161	1636.135
-2.487	31.143	1928.896	1634.841
-1.473	31.145	1928.046	1634.075
-0.458	31.277	1924.064	1631.784
0.556	29.810	1904.329	1606.413
1.571	25.867	1885.482	1556.396
2.586	21.895	1908.458	1540.416
3.600	20.752	1943.583	1558.402
4.615	20.425	1939.173	1551.809
5.629	15.956	1837.234	1432.184
6.644	6.539	1714.733	1261.527
7.659	0.977	1675.716	1189.121
8.673	0.515	1671.918	1182.704
9.688	0.490	1670.527	1181.418
10.702	0.403	1669.404	1179.843
11.717	0.282	1665.770	1176.227
12.731	0.906	1665.770	1180.992
13.746	7.667	1680.516	1244.424
14.761	15.749	1696.868	1320.090
15.775	17.993	1698.340	1338.724
16.790	17.271	1695.712	1330.886
17.804	16.185	1692.863	1320.036
18.819	15.209	1689.210	1309.445
19.834	14.598	1687.226	1303.026
20.848	14.408	1685.184	1299.853
21.863	14.048	1684.072	1296.073
22.877	13.803	1682.690	1292.985
23.892	13.562	1680.624	1289.405
24.907	13.512	1679.456	1288.010
25.921	13.428	1678.639	1286.611
26.936	13.488	1677.329	1285.958
27.950	13.517	1677.073	1285.880
28.965	13.556	1675.919	1285.183
29.980	13.630	1675.145	1285.051
30.994	13.594	1674.548	1284.196
32.009	13.676	1673.251	1283.726
33.023	13.741	1672.754	1283.734
34.038	13.818	1671.385	1283.165
35.053	13.757	1670.416	1281.835
36.067	13.649	1669.838	1280.442
37.082	13.696	1668.215	1279.448
38.096	13.609	1667.598	1278.190
39.111	13.731	1666.354	1278.063
40.126	13.605	1666.109	1276.794
41.140	13.686	1664.947	1276.408
42.155	13.621	1663.380	1274.600
43.169	13.477	1662.404	1272.631
44.184	13.390	1661.238	1270.959
45.199	13.448	1659.625	1270.057
46.213	13.435	1658.551	1269.022
47.228	13.449	1657.600	1268.291
48.242	13.434	1656.367	1267.116
49.257	13.522	1655.150	1266.748
50.271	13.530	1654.065	1265.868
51.286	13.620	1652.139	1264.970
52.301	13.605	1651.120	1263.961
53.315	13.626	1649.544	1262.804
54.330	13.575	1647.802	1260.968
55.344	13.547	1646.479	1259.635
56.359	13.426	1645.197	1257.619
57.374	13.447	1644.130	1256.855
58.388	13.578	1642.722	1256.658
59.403	13.489	1641.523	1254.956
60.417	13.481	1640.322	1253.868
61.432	13.473	1638.738	1252.486
62.447	13.376	1637.548	1250.728
63.461	13.389	1636.734	1250.094
64.476	13.481	1635.151	1249.474
65.490	13.381	1634.230	1247.904
66.505	13.400	1632.628	1246.713
67.520	13.428	1632.222	1246.500
68.534	13.448	1630.878	1245.516
69.549	13.441	1629.708	1244.462
70.563	13.525	1628.213	1243.840
71.578	13.419	1627.190	1242.153
72.593	13.347	1626.672	1241.104
73.607	13.346	1625.219	1239.881
74.622	13.316	1624.132	1238.716
75.636	13.342	1623.120	1238.027
76.651	13.281	1622.422	1236.932
77.666	13.276	1621.502	1236.088
78.680	13.284	1620.427	1235.215
79.695	13.260	1619.841	1234.478
80.709	13.405	1618.729	1234.602
81.724	13.385	1617.479	1233.395
82.739	13.407	1616.648	1232.811
83.753	13.499	1615.499	1232.512
84.768	13.558	1614.680	1232.216
85.782	13.530	1614.417	1231.698
86.797	13.562	1613.358	1231.023
87.812	13.639	1612.008	1230.454
88.826	13.591	1610.182	1228.593
89.841	13.516	1609.591	1227.482
90.855	13.497	1608.687	1226.543
91.870	13.552	1607.885	1226.227
92.884	13.622	1606.318	1225.444
93.899	13.659	1605.548	1225.024
94.914	13.649	1603.916	1223.597
95.928	13.690	1602.984	1223.073
96.943	13.618	1602.008	1221.694
97.957	13.703	1600.394	1220.977
98.972	13.649	1598.901	1219.334
99.987	13.616	1597.730	1218.091
101.001	13.660	1595.933	1216.935
102.016	13.629	1594.523	1215.529
103.030	13.617	1593.251	1214.365
104.045	13.568	1592.445	1213.278
105.060	13.690	1590.796	1212.812
106.074	13.566	1588.879	1210.338
107.089	13.512	1587.249	1208.590
108.103	13.429	1585.729	1206.725
109.118	13.436	1584.350	1205.616
110.133	13.334	1583.520	1204.139
111.147	13.410	1581.714	1203.213
112.162	13.398	1581.010	1202.478
113.176	13.447	1579.467	1201.556
114.191	13.483	1578.210	1200.752
115.206	13.523	1576.810	1199.876
116.220	13.502	1575.692	1198.764
117.235	13.541	1574.037	1197.680
118.249	13.512	1572.927	1196.519
119.264	13.529	1571.478	1195.438
120.279	13.479	1570.301	1194.071
121.293	13.457	1568.767	1192.647
122.308	13.388	1567.159	1190.823
123.322	13.442	1565.862	1190.116
124.337	13.481	1564.401	1189.178
125.352	13.498	1562.683	1187.893
126.366	13.404	1561.994	1186.586
127.381	13.450	1560.439	1185.634
128.395	13.506	1559.501	1185.214
129.410	13.450	1557.950	1183.534
130.424	13.362	1557.467	1182.432
131.439	13.454	1555.461	1181.461
132.454	13.473	1554.083	1180.445
133.468	13.489	1552.796	1179.476
134.483	13.558	1551.275	1178.707
135.497	13.647	1549.246	1177.696
136.512	13.521	1548.702	1176.283
137.527	13.533	1547.360	1175.245
138.541	13.449	1546.021	1173.530
139.556	13.613	1543.902	1172.975
140.570	13.533	1542.988	1171.610
141.585	13.590	1541.236	1170.583
142.600	13.650	1539.849	1169.848
143.614	13.683	1538.865	1169.231
144.629	13.728	1537.892	1168.701
145.643	13.746	1536.616	1167.758
146.658	13.847	1535.058	1167.182
147.673	13.892	1532.975	1165.810
148.687	13.730	1532.522	1164.224
149.702	13.765	1530.907	1163.137
150.716	13.691	1529.042	1161.104
151.731	13.668	1527.908	1159.976
152.746	13.667	1526.485	1158.785
153.760	13.727	1525.039	1158.002
154.775	13.758	1524.071	1157.385
155.789	13.841	1521.948	1156.250
156.804	13.851	1520.583	1155.178
157.819	13.861	1519.666	1154.448
158.833	13.777	1518.894	1153.175
159.848	13.865	1517.650	1152.743
160.862	13.996	1516.481	1152.661
161.877	13.967	1515.068	1151.286
162.892	13.926	1514.045	1150.123
163.906	13.903	1512.781	1148.896
164.921	13.879	1511.672	1147.789
165.935	13.823	1510.630	1146.511
166.950	13.773	1509.316	1145.066
167.964	13.851	1508.273	1144.712
168.979	13.861	1507.463	1144.065
169.994	13.847	1506.017	1142.768
171.008	13.866	1505.186	1142.165
172.023	13.939	1504.451	1142.014
173.037	13.895	1502.933	1140.455
174.052	13.959	1501.408	1139.637
175.067	13.918	1500.732	1138.739
176.081	14.043	1499.322	1138.426
177.096	13.893	1498.072	1136.353
178.110	13.881	1496.749	1135.164
179.125	13.939	1495.578	1134.571
180.140	13.872	1494.373	1133.097
181.154	14.048	1493.343	1133.419
182.169	13.990	1492.228	1132.078
183.183	13.984	1490.964	1130.980
184.198	14.056	1489.845	1130.520
185.213	14.018	1488.946	1129.476
186.227	14.123	1487.697	1129.146
187.242	14.158	1486.931	1128.701
188.256	14.152	1485.579	1127.533
189.271	14.186	1484.636	1126.947
190.286	14.262	1483.220	1126.288
191.300	14.182	1482.299	1124.949
192.315	14.102	1480.929	1123.269
193.329	13.983	1479.703	1121.436
194.344	13.979	1478.697	1120.545
195.359	14.000	1477.978	1120.045
196.373	14.078	1476.459	1119.316
197.388	14.134	1475.630	1118.968
198.402	14.147	1474.510	1118.108
199.417	14.219	1473.149	1117.460
200.432	14.369	1471.786	1117.336
201.446	14.331	1471.022	1116.399
202.461	14.445	1469.724	1116.080
203.475	14.369	1469.372	1115.204
204.490	14.412	1468.343	1114.611
205.504	14.441	1466.787	1113.525
206.519	14.436	1465.562	1112.467
207.534	14.363	1464.346	1110.955
208.548	14.412	1463.110	1110.244
209.563	14.352	1462.691	1109.429
210.577	14.302	1461.622	1108.187
211.592	14.407	1460.520	1107.951
212.607	14.447	1459.905	1107.655
213.621	14.492	1458.911	1107.098
214.636	14.491	1458.278	1106.516
215.650	14.505	1456.785	1105.377
216.665	14.464	1456.383	1104.703
217.680	14.517	1455.293	1104.130
218.694	14.464	1455.301	1103.688
219.709	14.536	1453.843	1102.959
220.723	14.558	1452.889	1102.285
221.738	14.481	1451.942	1100.957
222.753	14.635	1450.916	1101.100
223.767	14.617	1450.121	1100.281
224.782	14.586	1448.872	1099.033
225.796	14.622	1447.983	1098.497
226.811	14.724	1447.003	1098.329
227.826	14.708	1446.660	1097.864
228.840	14.658	1446.017	1096.953
229.855	14.556	1445.028	1095.432
230.869	14.642	1444.123	1095.215
231.884	14.697	1442.825	1094.494
232.899	14.674	1441.540	1093.274
233.913	14.703	1440.311	1092.436
234.928	14.608	1439.120	1090.810
235.942	14.611	1438.043	1089.921
236.957	14.621	1436.785	1088.934
237.972	14.684	1435.725	1088.445
238.986	14.567	1434.717	1086.825
240.001	14.669	1433.973	1086.826
241.015	14.577	1432.829	1085.263
242.030	14.814	1430.873	1085.227
243.045	14.800	1430.685	1084.900
244.059	14.753	1429.538	1083.627
245.074	14.766	1429.247	1083.396
246.088	14.836	1428.004	1082.809
247.103	14.814	1427.317	1082.050
248.117	14.901	1426.611	1081.981
249.132	14.884	1425.889	1081.233
250.147	15.007	1424.805	1081.108
251.161	14.997	1424.508	1080.722
252.176	15.069	1423.435	1080.274
253.190	15.102	1422.884	1079.977
254.205	15.171	1422.081	1079.713
255.220	15.170	1421.118	1078.881
256.234	15.140	1420.294	1077.969
257.249	15.214	1419.568	1077.797
258.263	15.209	1418.360	1076.751
259.278	15.286	1417.607	1076.582
260.293	15.271	1416.772	1075.755
261.307	15.294	1415.994	1075.216
262.322	15.182	1415.865	1074.303
263.336	15.356	1414.543	1074.319
264.351	15.364	1413.057	1073.146
265.366	15.394	1411.892	1072.363
266.380	15.493	1411.171	1072.350
267.395	15.338	1410.469	1070.733
268.409	15.358	1409.613	1070.116
269.424	15.429	1408.307	1069.481
270.439	15.423	1407.371	1068.639
271.453	15.335	1406.493	1067.320
272.468	15.450	1405.653	1067.317
273.482	15.354	1404.946	1066.078
274.497	15.310	1404.425	1065.304
275.512	15.402	1403.379	1065.006
276.526	15.365	1402.361	1063.902
277.541	15.460	1401.268	1063.578
278.555	15.423	1400.401	1062.593
279.570	15.479	1399.423	1062.111
280.585	15.518	1398.696	1061.713
281.599	15.532	1397.726	1060.970
282.614	15.500	1397.245	1060.307
283.628	15.500	1395.971	1059.247
284.643	15.504	1395.536	1058.852
285.657	15.552	1393.770	1057.722
286.672	15.574	1392.768	1057.003
287.687	15.590	1391.655	1056.167
288.701	15.666	1390.773	1055.878
289.716	15.647	1389.741	1054.886
290.730	15.632	1389.645	1054.627
291.745	15.634	1388.272	1053.498
292.760	15.674	1387.164	1052.820
293.774	15.682	1385.922	1051.834
294.789	15.701	1385.505	1051.542
295.803	15.717	1384.582	1050.851
296.818	15.822	1383.793	1050.813
297.833	15.676	1382.828	1049.073
298.847	15.656	1382.320	1048.472
299.862	15.687	1381.038	1047.603
300.876	15.693	1380.176	1046.889
301.891	15.756	1378.841	1046.174
302.906	15.756	1377.897	1045.369
303.920	15.816	1377.609	1045.433
304.935	15.856	1376.986	1045.113
305.949	15.857	1375.909	1044.208
306.964	15.964	1375.367	1044.369
307.979	15.901	1374.212	1043.010
308.993	16.010	1373.020	1042.688
310.008	15.912	1372.238	1041.397
311.022	15.947	1371.292	1040.798
312.037	16.024	1370.236	1040.381
313.052	16.038	1369.527	1039.840
314.066	16.061	1368.387	1039.021
315.081	15.921	1367.158	1037.135
316.095	15.951	1366.147	1036.464
317.110	16.015	1365.128	1035.993
318.125	16.028	1363.859	1035.017
319.139	16.044	1363.257	1034.562
320.154	16.044	1362.652	1034.014
321.168	15.956	1361.248	1032.316
322.183	16.129	1359.872	1032.240
323.197	15.990	1359.835	1031.270
324.212	16.028	1358.480	1030.388
325.227	16.081	1357.634	1029.977
326.241	16.092	1356.731	1029.268
327.256	16.106	1356.092	1028.778
328.270	16.063	1355.163	1027.717
329.285	16.151	1354.264	1027.481
330.300	16.126	1353.353	1026.548
331.314	16.109	1352.541	1025.738
332.329	16.192	1351.113	1025.071
333.343	16.193	1350.397	1024.442
334.358	16.171	1349.680	1023.675
335.373	16.170	1349.489	1023.429
336.387	16.250	1348.296	1022.921
337.402	16.286	1347.450	1022.405
338.416	16.274	1346.628	1021.621
339.431	16.326	1345.993	1021.362
340.446	16.368	1345.151	1020.890
341.460	16.413	1344.168	1020.322
342.475	16.443	1343.586	1019.969
343.489	16.512	1342.338	1019.352
344.504	16.467	1341.642	1018.461
345.519	16.402	1341.062	1017.541
346.533	16.551	1339.540	1017.188
347.548	16.541	1338.625	1016.348
348.562	16.514	1338.062	1015.663
349.577	16.554	1337.399	1015.313
350.592	16.502	1336.922	1014.546
351.606	16.551	1335.479	1013.659
352.621	16.497	1334.677	1012.636
353.635	16.558	1333.320	1011.880
354.650	16.475	1332.827	1010.924
355.665	16.556	1331.660	1010.433
356.679	16.504	1330.359	1009.043
357.694	16.501	1329.377	1008.191
358.708	16.659	1328.304	1008.228
359.723	16.592	1327.488	1007.124
360.738	16.606	1326.324	1006.233
361.752	16.594	1325.523	1005.465
362.767	16.617	1324.277	1004.567
363.781	16.618	1323.587	1003.962
364.796	16.688	1322.880	1003.751
365.810	16.703	1322.064	1003.130
366.825	16.679	1321.490	1002.466
367.840	16.806	1320.585	1002.440
368.854	16.881	1319.197	1001.744
369.869	16.838	1319.201	1001.402
370.883	16.795	1318.906	1000.839
371.898	16.788	1317.853	999.907
372.913	16.870	1317.144	999.762
373.927	16.945	1316.371	999.530
374.942	16.859	1315.542	998.310
375.956	16.909	1314.453	997.689
376.971	16.968	1313.490	997.212
377.986	17.004	1312.604	996.664
379.000	17.024	1311.836	996.113
380.015	17.042	1311.540	995.905
381.029	17.027	1310.810	995.172
382.044	17.055	1310.013	994.644
383.059	17.143	1309.179	994.440
384.073	17.148	1308.364	993.760
385.088	17.088	1308.075	993.100
386.102	17.110	1307.307	992.560
387.117	17.055	1306.687	991.679
388.132	17.079	1305.973	991.188
389.146	17.028	1305.095	990.140
390.161	17.141	1304.016	989.889
391.175	17.236	1302.826	989.456
392.190	17.151	1302.502	988.622
393.205	17.048	1301.882	987.466
394.219	17.133	1300.557	986.873
395.234	17.295	1299.231	986.714
396.248	17.157	1298.110	984.976
397.263	17.172	1296.680	983.891
398.278	17.248	1295.396	983.269
399.292	17.209	1294.413	982.210
400.307	17.125	1293.640	981.055
401.321	17.196	1292.501	980.512
402.336	17.162	1291.117	979.181
403.350	17.140	1290.238	978.299
404.365	17.250	1289.427	978.230
405.380	17.267	1288.328	977.407
406.394	17.305	1287.588	976.979
407.409	17.270	1287.097	976.318
408.423	17.315	1286.596	976.109
409.438	17.313	1285.776	975.390
410.453	17.402	1285.229	975.403
411.467	17.512	1284.116	975.098
412.482	17.472	1283.855	974.585
413.496	17.481	1283.383	974.194
414.511	17.560	1282.402	973.812
415.526	17.593	1281.322	973.094
416.540	17.602	1280.761	972.634
417.555	17.573	1280.077	971.866
418.569	17.579	1279.666	971.498
419.584	17.728	1279.048	971.796
420.599	17.657	1278.594	970.960
421.613	94.370	1349.778	1463.437
422.628	92.352	1360.111	1463.562
