DTS Sentinel unit serial number:	SN413079Multiplexer serial number:	ORYXHardware model number:	OX4-SRSoftware version number:	ORYX F/W v4.00 Oryx Data Collector v3.7.2.0data status	okinstallation	princeton_trtdifferential loss correction	single-endedforward channel	channel 4reverse channel	N/Adate	2019/09/18time	06:05:35forward acquisition time	60.00reverse acquisition time	0.00gamma	496.2192k internal	0.2333k external	0.2333temperature offset calibration	1.0000default loss term (dB/km)	0.3790temperature slope calibration	1.0000multiplexer offset coefficient	1.0000multiplexer slope coefficient	1.0000fibre end	0.00T internal ref (°C)	23.19T ext. ref 1 (°C)	0.19T ext. ref 2 (°C)	17.63length (m)	temperature (°C)	Stokes	anti-Stokes-747.200	0.668	0.056	-0.040
-746.185	800.000	-0.127	0.366
-745.171	-189.483	-0.185	-0.002
-744.156	720.641	0.010	-0.026
-743.142	800.000	0.088	0.327
-742.127	-200.000	0.007	0.090
-741.112	349.957	0.088	-0.175
-740.098	-49.752	-0.231	0.110
-739.083	64.627	0.085	-0.086
-738.069	-200.000	-0.019	0.232
-737.054	-18.100	-0.263	0.165
-736.039	-40.071	-0.368	0.193
-735.025	-68.472	0.114	0.044
-734.010	-200.000	0.002	0.030
-732.996	800.000	0.042	-0.140
-731.981	-200.000	-0.009	-0.079
-730.966	-18.758	0.258	0.161
-729.952	-53.727	-0.493	-0.226
-728.937	-200.000	-0.030	0.179
-727.923	75.673	-0.058	0.062
-726.908	185.518	-0.030	-0.045
-725.894	-94.658	-0.193	0.053
-724.879	113.650	-0.069	-0.085
-723.864	-98.517	-0.237	-0.061
-722.850	-115.773	-0.191	-0.036
-721.835	220.067	0.144	-0.231
-720.821	38.959	0.284	0.255
-719.806	92.469	-0.097	-0.110
-718.791	800.000	0.035	-0.149
-717.777	-161.613	-0.110	0.006
-716.762	-200.000	-0.086	-0.401
-715.748	-200.000	0.063	0.340
-714.733	-140.841	0.361	-0.037
-713.718	-18.089	-0.235	-0.148
-712.704	-200.000	0.056	0.288
-711.689	-200.000	-0.014	0.238
-710.675	74.012	0.105	-0.110
-709.660	-122.184	-0.294	0.048
-708.645	-37.738	-0.293	-0.157
-707.631	282.454	-0.035	0.064
-706.616	67.984	0.053	0.054
-705.602	-200.000	0.016	-0.173
-704.587	800.000	-0.042	0.185
-703.572	-200.000	-0.073	0.407
-702.558	-200.000	-0.032	-0.145
-701.543	-141.091	0.182	-0.019
-700.529	293.895	0.102	-0.188
-699.514	-84.368	-0.182	-0.058
-698.499	-113.426	-0.267	-0.052
-697.485	120.032	-0.165	0.206
-696.470	230.355	0.076	-0.125
-695.456	365.748	0.125	-0.252
-694.441	-200.000	-0.032	-0.504
-693.426	-150.017	-0.420	0.033
-692.412	413.550	0.088	-0.188
-691.397	-76.616	0.217	-0.076
-690.383	324.918	-0.151	0.290
-689.368	800.000	-0.109	-0.326
-688.354	195.800	-0.126	0.192
-687.339	-200.000	-0.006	0.348
-686.324	-6.950	-0.079	-0.054
-685.310	-76.229	-0.256	-0.091
-684.295	800.000	0.082	-0.316
-683.281	137.237	-0.010	-0.013
-682.266	-80.917	-0.041	-0.014
-681.251	-200.000	0.016	-0.288
-680.237	157.752	0.192	0.267
-679.222	-109.686	-0.268	-0.057
-678.208	-114.625	-0.310	-0.060
-677.193	-200.000	0.025	0.151
-676.178	-55.685	-0.249	-0.112
-675.164	800.000	0.039	0.156
-674.149	-200.000	-0.135	-0.001
-673.135	97.023	-0.217	-0.249
-672.120	120.114	0.284	-0.354
-671.105	-154.899	0.420	-0.028
-670.091	351.959	-0.094	0.186
-669.076	576.095	-0.132	0.323
-668.062	490.128	0.067	0.154
-667.047	-200.000	-0.029	0.179
-666.032	-200.000	0.016	-0.148
-665.018	-85.979	0.477	-0.148
-664.003	-45.775	-0.409	-0.203
-662.989	123.983	0.172	0.217
-661.974	-22.556	-0.083	-0.050
-660.959	317.749	-0.146	-0.277
-659.945	536.986	0.047	-0.111
-658.930	201.874	-0.126	-0.194
-657.916	149.487	-0.029	-0.040
-656.901	800.000	-0.108	-0.330
-655.886	-67.184	0.256	-0.101
-654.872	-59.983	-0.099	-0.042
-653.857	-57.298	-0.193	-0.085
-652.843	531.251	0.089	0.211
-651.828	19.785	-0.221	-0.179
-650.814	-0.301	-0.541	-0.386
-649.799	209.733	0.196	-0.308
-648.784	20.634	-0.241	0.195
-647.770	-200.000	-0.051	-0.412
-646.755	-110.550	-0.247	-0.051
-645.741	-35.599	-0.185	-0.101
-644.726	-80.394	-0.103	0.035
-643.711	-112.203	0.330	-0.066
-642.697	212.210	-0.049	-0.077
-641.682	175.380	-0.190	-0.275
-640.668	7.841	0.083	0.063
-639.653	-1.504	0.269	0.190
-638.638	52.330	-0.206	0.197
-637.624	760.872	0.026	0.072
-636.609	491.367	-0.165	-0.379
-635.595	-154.517	0.325	0.022
-634.580	503.858	0.131	-0.303
-633.565	-8.324	0.356	0.240
-632.551	-101.939	-0.250	-0.061
-631.536	-200.000	-0.030	-0.444
-630.522	-2.406	0.095	0.067
-629.507	53.374	-0.307	0.294
-628.492	800.000	0.063	0.218
-627.478	-200.000	0.038	-0.222
-626.463	753.193	0.130	-0.351
-625.449	-200.000	-0.023	-0.234
-624.434	-87.165	0.278	-0.084
-623.419	38.976	-0.150	-0.135
-622.405	-46.363	-0.196	0.097
-621.390	-182.340	-0.171	0.003
-620.376	265.268	-0.061	-0.107
-619.361	-17.312	0.104	-0.066
-618.346	800.000	0.101	-0.282
-617.332	15.273	0.119	0.093
-616.317	800.000	0.030	0.126
-615.303	-2.457	0.334	0.234
-614.288	-200.000	-0.045	-0.207
-613.273	-93.243	-0.153	-0.042
-612.259	800.000	0.119	0.340
-611.244	-22.855	0.299	0.181
-610.230	305.373	0.067	0.125
-609.215	800.000	-0.049	-0.167
-608.201	-140.146	0.404	0.042
-607.186	183.601	0.119	-0.176
-606.171	41.981	-0.188	0.170
-605.157	-71.532	0.265	-0.099
-604.142	-200.000	-0.002	-0.025
-603.128	-200.000	-0.023	-0.104
-602.113	-143.692	0.074	0.007
-601.098	-111.757	0.207	-0.042
-600.084	-110.393	0.130	0.027
-599.069	800.000	0.063	-0.242
-598.055	211.935	-0.162	-0.255
-597.040	-90.821	0.163	-0.047
-596.025	-59.755	0.174	0.075
-595.011	-185.551	0.182	-0.003
-593.996	-200.000	-0.016	0.126
-592.982	-98.880	0.135	-0.034
-591.967	-49.322	-0.049	-0.023
-590.952	-87.432	-0.281	-0.085
-589.938	-61.383	-0.020	-0.009
-588.923	268.260	0.093	0.162
-587.909	-97.663	-0.192	-0.050
-586.894	-30.386	-0.016	-0.009
-585.879	-44.987	0.045	-0.022
-584.865	69.470	0.020	-0.021
-583.850	-141.225	0.142	0.014
-582.836	6.853	-0.304	-0.226
-581.821	800.000	-0.056	-0.230
-580.806	-53.425	0.260	-0.119
-579.792	-200.000	-0.021	-0.374
-578.777	-82.708	-0.137	-0.044
-577.763	-77.038	-0.437	0.152
-576.748	-67.001	-0.178	-0.070
-575.733	96.808	0.241	-0.276
-574.719	800.000	-0.074	-0.277
-573.704	-200.000	-0.031	-0.385
-572.690	800.000	0.052	0.190
-571.675	-200.000	0.039	0.300
-570.661	-72.093	0.326	0.121
-569.646	800.000	0.093	-0.394
-568.631	76.512	-0.147	-0.156
-567.617	-143.003	-0.109	-0.011
-566.602	-200.000	0.069	-0.326
-565.588	-39.408	0.315	0.165
-564.573	425.869	-0.043	0.092
-563.558	-86.540	-0.007	-0.002
-562.544	800.000	-0.026	0.095
-561.529	199.257	0.095	-0.145
-560.515	0.539	-0.161	0.115
-559.500	220.732	0.048	0.076
-558.485	-93.020	0.256	-0.071
-557.471	800.000	-0.017	-0.061
-556.456	1.463	0.137	0.098
-555.442	-18.060	-0.317	-0.198
-554.427	-200.000	0.042	0.361
-553.412	-200.000	-0.060	0.335
-552.398	-96.338	0.213	0.056
-551.383	-200.000	-0.008	-0.066
-550.369	-200.000	-0.041	0.222
-549.354	331.903	-0.101	0.195
-548.339	3.464	-0.150	-0.109
-547.325	292.433	0.092	-0.168
-546.310	49.028	-0.121	0.113
-545.296	-135.258	0.321	0.038
-544.281	-118.589	-0.244	0.043
-543.266	19.622	-0.153	-0.123
-542.252	530.619	-0.072	0.171
-541.237	-200.000	-0.027	-0.423
-540.223	-200.000	0.021	-0.182
-539.208	-160.204	-0.178	-0.010
-538.193	67.760	0.188	-0.192
-537.179	0.889	0.116	0.083
-536.164	-126.741	-0.175	-0.026
-535.150	-50.758	0.134	0.063
-534.135	-66.551	0.143	0.057
-533.121	-200.000	0.022	0.102
-532.106	-74.017	-0.329	-0.119
-531.091	-61.335	0.422	-0.177
-530.077	91.235	-0.071	0.079
-529.062	41.258	0.271	-0.244
-528.048	-106.692	0.289	-0.064
-527.033	-200.000	-0.021	-0.149
-526.018	522.322	-0.043	-0.100
-525.004	-120.151	-0.297	0.051
-523.989	-110.793	-0.252	0.052
-522.975	-200.000	-0.020	0.268
-521.960	-176.821	-0.184	0.005
-520.945	-146.335	-0.100	0.009
-519.931	335.298	0.205	0.395
-518.916	-200.000	0.012	0.087
-517.902	-47.640	-0.117	0.057
-516.887	-65.331	-0.057	-0.023
-515.872	126.804	-0.211	-0.267
-514.858	800.000	0.087	-0.377
-513.843	-69.306	0.251	0.096
-512.829	800.000	0.091	0.290
-511.814	149.226	0.160	-0.216
-510.799	-173.771	-0.221	0.007
-509.785	108.112	0.078	0.093
-508.770	-85.084	-0.199	0.062
-507.756	-21.128	-0.226	0.138
-506.741	800.000	-0.036	-0.121
-505.726	99.949	0.178	0.206
-504.712	68.500	-0.043	-0.043
-503.697	-200.000	0.018	-0.168
-502.683	124.656	-0.056	-0.071
-501.668	18.896	-0.434	-0.346
-500.653	-105.882	0.171	-0.038
-499.639	-132.026	-0.386	0.050
-498.624	-67.672	0.393	0.153
-497.610	619.501	-0.094	-0.235
-496.595	-200.000	0.007	-0.050
-495.581	-21.174	0.440	-0.268
-494.566	56.058	0.269	-0.260
-493.551	543.714	0.062	-0.146
-492.537	32.363	-0.031	0.027
-491.522	-200.000	0.060	-0.317
-490.508	-58.101	-0.309	-0.134
-489.493	-77.382	0.195	0.067
-488.478	-96.831	-0.336	0.088
-487.464	163.827	0.092	-0.129
-486.449	560.944	-0.032	-0.076
-485.435	-171.131	0.187	0.006
-484.420	-128.727	0.245	0.034
-483.405	-84.988	-0.172	-0.054
-482.391	3.878	-0.250	-0.182
-481.376	-144.072	-0.425	0.040
-480.362	-200.000	-0.003	0.044
-479.347	-32.619	0.205	-0.114
-478.332	128.806	0.144	0.183
-477.318	5.341	-0.086	-0.063
-476.303	-200.000	-0.024	-0.219
-475.289	-154.882	0.024	-0.002
-474.274	-22.753	0.245	0.147
-473.259	-200.000	-0.001	0.367
-472.245	168.643	-0.046	0.066
-471.230	486.967	0.088	0.200
-470.216	-40.843	-0.302	-0.156
-469.201	-200.000	-0.024	0.215
-468.186	47.654	-0.248	-0.230
-467.172	0.277	-0.132	-0.094
-466.157	194.490	0.029	0.043
-465.143	64.397	-0.015	-0.015
-464.128	800.000	0.042	-0.181
-463.113	-106.790	-0.277	0.061
-462.099	431.526	0.105	-0.227
-461.084	31.579	0.097	-0.083
-460.070	-200.000	-0.013	0.232
-459.055	-101.445	-0.180	0.044
-458.040	800.000	0.112	0.359
-457.026	-97.301	0.100	0.026
-456.011	-174.258	0.267	-0.008
-454.997	-121.857	-0.453	0.074
-453.982	197.975	-0.066	-0.101
-452.968	-184.495	0.197	0.003
-451.953	-200.000	0.055	0.286
-450.938	-122.898	-0.306	0.049
-449.924	148.557	0.213	0.286
-448.909	-200.000	-0.013	-0.295
-447.895	129.546	0.118	0.150
-446.880	-160.861	0.092	-0.005
-445.865	-116.809	-0.249	-0.045
-444.851	-200.000	-0.002	-0.173
-443.836	55.620	-0.154	0.149
-442.822	800.000	-0.040	0.117
-441.807	15.191	-0.216	0.168
-440.792	-129.291	-0.264	-0.036
-439.778	-200.000	-0.001	0.068
-438.763	355.637	-0.089	-0.175
-437.749	-200.000	0.049	-0.293
-436.734	-200.000	0.040	-0.303
-435.719	800.000	0.100	-0.294
-434.705	-139.195	0.315	0.034
-433.690	-24.307	-0.071	-0.042
-432.676	52.290	-0.091	0.086
-431.661	95.465	0.249	0.282
-430.646	-149.063	-0.302	-0.024
-429.632	154.857	-0.124	0.169
-428.617	451.643	0.023	0.050
-427.603	-139.832	0.158	-0.017
-426.588	258.025	-0.048	-0.082
-425.573	-132.860	0.433	0.055
-424.559	-12.756	-0.050	0.032
-423.544	-68.542	0.401	-0.154
-422.530	744.187	-0.093	0.248
-421.515	-115.125	0.071	0.013
-420.500	-170.753	-0.167	0.006
-419.486	-88.493	0.162	-0.048
-418.471	332.979	0.153	-0.294
-417.457	-71.336	-0.215	-0.080
-416.442	-55.150	0.402	0.180
-415.428	-200.000	-0.043	0.421
-414.413	-163.172	0.226	-0.011
-413.398	159.331	-0.081	0.112
-412.384	292.297	0.087	-0.157
-411.369	32.521	0.467	0.401
-410.355	35.434	-0.158	0.138
-409.340	-34.313	-0.079	0.043
-408.325	-27.917	0.369	-0.212
-407.311	-43.141	-0.242	0.122
-406.296	61.388	-0.112	0.111
-405.282	67.549	-0.145	-0.147
-404.267	360.822	0.060	0.120
-403.252	-86.017	-0.571	-0.175
-402.238	-105.327	0.169	-0.038
-401.223	260.107	-0.150	-0.257
-400.209	313.991	-0.073	0.137
-399.194	120.006	-0.375	0.461
-398.179	61.812	-0.149	-0.148
-397.165	171.447	0.128	0.182
-396.150	-133.629	0.250	-0.031
-395.136	-108.875	0.092	-0.020
-394.121	512.379	0.034	0.078
-393.106	-200.000	-0.026	-0.151
-392.092	-200.000	0.019	-0.241
-391.077	-200.000	0.048	-0.321
-390.063	-160.082	-0.309	0.017
-389.048	490.257	0.057	0.128
-388.033	-200.000	-0.044	0.276
-387.019	470.530	0.135	-0.300
-386.004	9.149	-0.195	0.146
-384.990	194.957	0.086	0.130
-383.975	264.516	-0.056	-0.097
-382.960	21.844	0.273	-0.221
-381.946	-102.886	0.073	-0.017
-380.931	-42.336	-0.523	0.265
-379.917	-129.679	0.288	-0.039
-378.902	-45.546	0.067	0.033
-377.888	-145.455	-0.434	-0.039
-376.873	-63.553	0.092	-0.038
-375.858	129.005	0.044	-0.055
-374.844	20.813	0.101	-0.081
-373.829	-136.197	-0.109	0.013
-372.815	-200.000	0.001	0.145
-371.800	243.881	0.090	0.150
-370.785	-143.806	-0.314	-0.029
-369.771	-200.000	-0.017	0.302
-368.756	-73.092	0.258	-0.094
-367.742	128.161	0.065	0.082
-366.727	-200.000	0.002	0.110
-365.712	379.480	0.179	0.363
-364.698	-200.000	-0.011	0.141
-363.683	127.345	-0.147	-0.185
-362.669	-200.000	-0.012	0.060
-361.654	262.435	-0.030	-0.052
-360.639	-200.000	0.036	-0.208
-359.625	-52.327	-0.219	0.101
-358.610	48.902	0.214	0.199
-357.596	-77.046	-0.074	-0.026
-356.581	-124.479	-0.193	0.030
-355.566	-200.000	-0.013	0.151
-354.552	-200.000	0.014	-0.251
-353.537	-162.959	-0.125	0.006
-352.523	46.542	0.239	0.220
-351.508	181.975	0.111	-0.161
-350.493	800.000	-0.130	0.505
-349.479	-88.631	0.151	0.044
-348.464	-159.325	-0.147	0.008
-347.450	-170.310	0.189	0.007
-346.435	-200.000	-0.022	0.165
-345.420	524.448	-0.144	0.335
-344.406	208.890	0.199	0.308
-343.391	-104.410	-0.210	-0.048
-342.377	-125.078	0.304	-0.046
-341.362	-84.173	-0.082	0.026
-340.348	-200.000	-0.029	0.285
-339.333	138.527	0.217	0.282
-338.318	-125.321	0.228	-0.034
-337.304	120.584	0.349	0.429
-336.289	-70.387	-0.218	0.082
-335.275	107.724	0.098	-0.116
-334.260	277.442	0.210	0.369
-333.245	-163.791	0.113	0.005
-332.231	-106.737	0.236	0.052
-331.216	96.782	-0.316	-0.359
-330.202	272.912	0.136	0.238
-329.187	13.436	-0.184	-0.142
-328.172	628.995	-0.063	-0.159
-327.158	-200.000	-0.009	-0.354
-326.143	-200.000	0.013	0.290
-325.129	519.760	-0.120	0.277
-324.114	259.427	0.208	0.356
-323.099	326.079	-0.192	0.364
-322.085	65.354	-0.069	0.069
-321.070	800.000	0.119	0.333
-320.056	-200.000	0.043	-0.295
-319.041	21.139	0.183	0.147
-318.026	-5.372	-0.326	0.222
-317.012	-136.664	0.229	-0.026
-315.997	-40.586	-0.176	-0.090
-314.983	-14.278	-0.202	0.129
-313.968	-200.000	-0.001	-0.244
-312.953	-105.725	-0.302	-0.067
-311.939	-200.000	0.005	0.340
-310.924	-200.000	-0.007	0.119
-309.910	-200.000	-0.015	-0.157
-308.895	-19.343	-0.179	-0.110
-307.880	65.841	-0.206	-0.206
-306.866	48.574	-0.232	-0.215
-305.851	532.924	-0.025	-0.059
-304.837	800.000	0.158	-0.530
-303.822	-60.169	0.208	0.088
-302.807	-61.102	-0.040	0.017
-301.793	-71.090	-0.222	0.082
-300.778	-117.225	0.195	0.035
-299.764	118.266	0.234	0.285
-298.749	-103.826	0.138	0.032
-297.735	8.515	-0.247	-0.184
-296.720	52.560	0.124	-0.117
-295.705	-200.000	0.014	0.231
-294.691	800.000	0.092	0.371
-293.676	-70.132	0.221	0.083
-292.662	800.000	0.027	-0.099
-291.647	166.438	-0.066	-0.093
-290.632	682.151	-0.089	0.230
-289.618	12.627	-0.186	0.141
-288.603	10.000	0.055	-0.042
-287.589	-26.896	0.031	-0.018
-286.574	-65.895	0.285	0.112
-285.559	117.377	-0.014	0.017
-284.545	-200.000	0.046	-0.293
-283.530	31.989	-0.107	0.091
-282.516	-200.000	-0.003	0.074
-281.501	-11.050	-0.174	-0.114
-280.486	52.788	0.208	0.197
-279.472	-178.624	-0.210	0.005
-278.457	800.000	-0.055	0.177
-277.443	98.161	0.066	0.075
-276.428	-10.095	-0.350	-0.230
-275.413	542.416	0.031	0.072
-274.399	8.319	-0.402	-0.299
-273.384	-38.731	0.179	-0.093
-272.370	-59.916	0.159	0.067
-271.355	-55.850	-0.179	0.079
-270.340	-200.000	-0.037	0.210
-269.326	358.263	-0.029	-0.056
-268.311	-111.675	0.048	0.010
-267.297	34.989	0.053	-0.046
-266.282	-160.050	-0.562	-0.030
-265.267	159.371	-0.046	0.064
-264.253	140.243	0.074	0.096
-263.238	9.433	0.064	-0.048
-262.224	800.000	-0.040	0.161
-261.209	-101.890	-0.152	-0.036
-260.195	117.391	-0.090	0.110
-259.180	91.464	0.150	0.166
-258.165	-200.000	-0.016	-0.167
-257.151	-96.042	0.400	-0.105
-256.136	-149.968	0.304	0.023
-255.122	-200.000	0.037	-0.389
-254.107	126.373	0.093	-0.116
-253.092	-52.360	0.086	0.039
-252.078	57.806	-0.097	-0.094
-251.063	-18.557	-0.069	-0.043
-250.049	3.354	-0.056	0.040
-249.034	-200.000	-0.022	0.098
-248.019	120.986	0.239	0.293
-247.005	-73.572	0.374	0.135
-245.990	43.161	-0.138	0.125
-244.976	800.000	-0.111	-0.417
-243.961	56.152	-0.042	0.040
-242.946	-63.072	0.148	0.060
-241.932	-200.000	-0.011	0.085
-240.917	800.000	-0.067	0.230
-239.903	312.206	-0.117	-0.216
-238.888	-171.264	-0.466	-0.015
-237.873	40.919	0.150	-0.133
-236.859	769.311	0.088	0.237
-235.844	800.000	0.080	-0.279
-234.830	60.964	-0.170	-0.166
-233.815	228.768	-0.138	-0.221
-232.800	-200.000	-0.006	0.346
-231.786	685.601	0.139	0.357
-230.771	-74.003	0.348	0.124
-229.757	306.655	-0.105	-0.192
-228.742	-200.000	-0.017	-0.277
-227.727	47.378	0.215	-0.197
-226.713	800.000	0.030	-0.119
-225.698	636.899	0.092	-0.230
-224.684	-200.000	-0.000	0.177
-223.669	266.288	-0.049	-0.084
-222.655	233.643	-0.116	0.188
-221.640	-47.333	0.368	0.176
-220.625	271.305	-0.101	-0.175
-219.611	88.522	-0.259	-0.283
-218.596	-200.000	-0.008	-0.344
-217.582	68.365	-0.123	0.124
-216.567	159.066	0.060	-0.082
-215.552	449.175	-0.111	-0.240
-214.538	62.762	0.196	-0.193
-213.523	-200.000	-0.042	0.259
-212.509	30.282	0.114	-0.096
-211.494	505.860	-0.151	0.345
-210.479	-1.711	0.090	-0.063
-209.465	800.000	0.019	0.080
-208.450	-75.253	0.275	-0.097
-207.436	176.821	0.104	-0.149
-206.421	117.238	-0.153	-0.185
-205.406	-72.937	0.158	0.057
-204.392	-135.059	-0.253	0.030
-203.377	329.884	0.031	-0.058
-202.363	-15.374	-0.118	-0.074
-201.348	99.669	-0.193	-0.220
-200.333	99.444	0.183	-0.209
-199.319	39.048	0.176	-0.155
-198.304	46.123	0.022	-0.020
-197.290	43.450	-0.142	0.128
-196.275	164.705	0.071	0.098
-195.260	48.691	0.264	-0.244
-194.246	162.998	-0.178	-0.246
-193.231	-200.000	0.025	0.368
-192.217	-50.771	-0.167	-0.077
-191.202	-200.000	-0.099	0.549
-190.187	800.000	0.043	0.186
-189.173	-200.000	0.010	0.164
-188.158	132.869	0.307	-0.390
-187.144	-90.790	-0.483	0.137
-186.129	-101.667	0.163	-0.039
-185.114	-74.118	0.233	-0.083
-184.100	146.380	-0.096	0.127
-183.085	-200.000	-0.011	0.241
-182.071	800.000	0.097	0.405
-181.056	333.912	0.155	-0.295
-180.042	112.874	-0.130	0.155
-179.027	52.127	-0.283	0.265
-178.012	-67.767	-0.520	0.200
-176.998	-200.000	0.061	0.372
-175.983	-137.058	0.161	-0.018
-174.969	429.081	-0.077	0.164
-173.954	-2.921	-0.300	-0.206
-172.939	297.857	0.182	0.328
-171.925	800.000	-0.167	0.585
-170.910	-123.450	0.094	0.015
-169.896	92.200	-0.245	-0.272
-168.881	-97.088	0.220	-0.057
-167.866	-200.000	-0.023	-0.478
-166.852	-34.103	0.314	-0.170
-165.837	-100.660	-0.196	-0.048
-164.823	-48.823	-0.358	0.169
-163.808	300.792	-0.087	0.158
-162.793	337.995	0.149	0.286
-161.779	-171.752	0.363	-0.012
-160.764	334.157	0.085	-0.161
-159.750	360.851	0.080	-0.158
-158.735	-6.875	0.133	0.089
-157.720	290.959	0.039	0.070
-156.706	-60.486	-0.312	-0.130
-155.691	388.877	-0.082	-0.167
-154.677	105.289	-0.174	-0.202
-153.662	459.028	-0.005	-0.011
-152.647	345.011	0.061	0.117
-151.633	-15.661	-0.268	-0.168
-150.618	800.000	0.091	-0.377
-149.604	467.898	-0.112	0.248
-148.589	-68.676	0.199	0.076
-147.574	38.924	-0.144	0.127
-146.560	114.150	-0.372	-0.445
-145.545	-25.988	-0.125	0.072
-144.531	-153.811	0.343	-0.023
-143.516	125.924	-0.225	-0.279
-142.502	45.890	-0.380	-0.346
-141.487	-200.000	-0.036	0.359
-140.472	-70.727	0.266	-0.099
-139.458	-25.056	0.289	-0.168
-138.443	-200.000	-0.029	0.230
-137.429	-200.000	-0.000	0.254
-136.414	-87.312	-0.081	-0.024
-135.399	162.959	0.212	0.293
-134.385	-144.745	-0.136	-0.012
-133.370	-167.533	0.314	-0.012
-132.356	-95.761	0.189	0.050
-131.341	133.506	-0.294	-0.374
-130.326	-122.011	0.173	-0.028
-129.312	-68.819	-0.092	0.035
-128.297	225.286	-0.121	0.193
-127.283	-200.000	0.019	-0.204
-126.268	91.538	0.135	-0.149
-125.253	-72.257	-0.363	0.132
-124.239	260.169	-0.195	0.331
-123.224	-77.140	0.130	0.044
-122.210	-200.000	-0.012	-0.285
-121.195	-200.000	0.009	-0.154
-120.180	-86.724	-0.135	0.041
-119.166	144.318	0.125	0.164
-118.151	800.000	0.040	0.133
-117.137	800.000	-0.116	0.390
-116.122	800.000	-0.027	0.095
-115.107	-106.876	0.198	-0.043
-114.093	-16.716	0.132	0.082
-113.078	800.000	-0.046	0.159
-112.064	64.030	-0.124	0.123
-111.049	132.774	-0.203	-0.257
-110.034	-200.000	-0.027	0.119
-109.020	800.000	-0.123	0.374
-108.005	-30.945	0.161	-0.089
-106.991	-91.344	-0.355	0.099
-105.976	-125.785	-0.158	-0.023
-104.962	-108.109	-0.242	0.052
-103.947	136.194	0.213	0.273
-102.932	-111.858	0.193	-0.038
-101.918	-8.702	-0.409	0.269
-100.903	44.601	0.070	0.063
-99.889	800.000	0.106	-0.287
-98.874	413.164	0.069	0.143
-97.859	73.124	0.087	0.089
-96.845	54.857	0.240	-0.227
-95.830	96.392	-0.111	-0.125
-94.816	800.000	-0.047	-0.178
-93.801	-31.692	-0.294	0.162
-92.786	269.898	0.153	-0.264
-91.772	-200.000	0.017	0.097
-90.757	-200.000	0.048	0.433
-89.743	36.814	0.227	0.197
-88.728	-58.209	0.109	0.046
-87.713	452.391	0.070	0.152
-86.699	800.000	0.083	0.238
-85.684	-180.344	-0.229	-0.005
-84.670	9.282	0.132	0.098
-83.655	425.118	-0.149	0.315
-82.640	115.838	0.145	-0.174
-81.626	-88.581	-0.403	0.118
-80.611	-200.000	0.057	0.455
-79.597	-163.891	-0.319	0.015
-78.582	-99.606	0.282	0.069
-77.567	-25.735	-0.034	0.020
-76.553	-200.000	0.026	-0.218
-75.538	-57.317	-0.099	0.043
-74.524	70.491	-0.288	0.292
-73.509	-140.815	0.279	-0.028
-72.494	-92.213	0.205	0.057
-71.480	-200.000	-0.026	0.189
-70.465	-200.000	-0.003	-0.249
-69.451	-72.844	0.275	-0.099
-68.436	30.545	0.179	0.150
-67.422	-133.642	-0.211	0.026
-66.407	-76.634	0.148	-0.051
-65.392	-200.000	-0.080	-0.496
-64.378	800.000	-0.042	0.150
-63.363	800.000	-0.047	-0.129
-62.349	-200.000	-0.001	0.532
-61.334	2.929	-1.096	-0.779
-60.319	43.703	0.718	0.643
-59.305	800.000	-0.369	-1.381
-58.290	800.000	0.408	1.333
-57.276	489.371	0.753	1.684
-56.261	-200.000	125.555	650.985
-55.246	401.307	1579.894	3247.402
-54.232	138.677	2749.757	3535.235
-53.217	85.774	2345.536	2524.757
-52.203	29.692	2089.228	1740.833
-51.188	24.925	2003.531	1626.178
-50.173	23.853	1986.794	1602.872
-49.159	42.177	2059.750	1831.089
-48.144	39.961	2072.309	1821.772
-47.130	25.367	2024.932	1647.343
-46.115	23.191	2013.651	1618.229
-45.100	23.088	2010.655	1614.817
-44.086	23.085	2008.381	1612.898
-43.071	22.954	2005.995	1609.731
-42.057	22.973	2004.123	1608.333
-41.042	23.086	2001.450	1607.152
-40.027	23.152	1999.467	1606.098
-39.013	23.089	1998.013	1604.295
-37.998	23.095	1996.598	1603.144
-36.984	23.058	1995.083	1601.532
-35.969	23.034	1992.815	1599.430
-34.954	23.060	1991.618	1598.642
-33.940	23.200	1989.327	1597.999
-32.925	23.189	1987.794	1596.605
-31.911	23.124	1986.776	1595.139
-30.896	23.200	1984.523	1593.958
-29.881	23.220	1983.604	1593.330
-28.867	23.197	1981.800	1591.616
-27.852	23.195	1980.379	1590.388
-26.838	23.236	1978.211	1588.953
-25.823	23.187	1975.993	1586.672
-24.809	23.257	1974.466	1586.014
-23.794	23.282	1972.613	1584.680
-22.779	23.279	1970.689	1583.048
-21.765	23.294	1969.103	1581.843
-20.750	23.258	1967.912	1580.500
-19.736	23.225	1966.931	1579.359
-18.721	23.202	1964.945	1577.491
-17.706	23.282	1963.182	1576.730
-16.692	23.188	1961.712	1574.646
-15.677	23.172	1959.848	1572.953
-14.663	23.231	1958.677	1572.468
-13.648	23.149	1957.774	1570.959
-12.633	23.176	1956.423	1570.051
-11.619	23.248	1954.952	1569.440
-10.604	23.208	1953.896	1568.181
-9.590	23.205	1952.174	1566.705
-8.575	23.187	1950.777	1565.368
-7.560	23.202	1949.078	1564.077
-6.546	23.180	1948.395	1563.266
-5.531	23.290	1946.700	1562.817
-4.517	23.249	1945.575	1561.487
-3.502	23.199	1944.366	1560.015
-2.487	23.216	1943.058	1559.056
-1.473	23.222	1942.066	1558.247
-0.458	23.310	1936.651	1554.619
0.556	21.613	1916.242	1525.762
1.571	17.443	1897.826	1474.897
2.586	13.803	1921.567	1461.220
3.600	13.103	1956.542	1481.410
4.615	13.244	1950.393	1477.887
5.629	10.343	1848.911	1376.245
6.644	4.025	1735.134	1240.928
7.659	0.591	1702.088	1190.157
8.673	0.250	1699.767	1185.741
9.688	0.210	1698.653	1184.545
10.702	0.229	1696.968	1183.411
11.717	0.091	1693.002	1179.466
12.731	0.610	1691.277	1182.216
13.746	5.396	1701.628	1226.975
14.761	12.518	1716.461	1293.762
15.775	16.290	1722.362	1327.818
16.790	16.776	1722.321	1331.488
17.804	15.924	1718.752	1321.930
18.819	14.892	1716.130	1311.698
19.834	14.382	1713.174	1305.328
20.848	14.106	1712.299	1302.390
21.863	13.865	1710.687	1299.159
22.877	13.702	1708.734	1296.288
23.892	13.438	1707.583	1293.233
24.907	13.282	1706.363	1290.979
25.921	13.227	1705.367	1289.685
26.936	13.316	1704.516	1289.623
27.950	13.292	1703.560	1288.593
28.965	13.378	1702.945	1288.691
29.980	13.422	1702.185	1288.342
30.994	13.493	1701.138	1287.986
32.009	13.468	1700.382	1287.103
33.023	13.532	1699.229	1286.617
34.038	13.537	1698.459	1285.956
35.053	13.616	1696.973	1285.329
36.067	13.492	1696.223	1283.687
37.082	13.438	1695.192	1282.375
38.096	13.470	1694.179	1281.746
39.111	13.450	1693.513	1280.973
40.126	13.505	1692.745	1280.704
41.140	13.579	1691.227	1280.016
42.155	13.354	1690.144	1277.344
43.169	13.312	1688.827	1275.913
44.184	13.240	1687.698	1274.390
45.199	13.276	1686.740	1273.833
46.213	13.333	1684.965	1272.816
47.228	13.257	1684.431	1271.717
48.242	13.314	1682.517	1270.595
49.257	13.470	1681.302	1270.766
50.271	13.460	1680.026	1269.613
51.286	13.400	1678.971	1268.244
52.301	13.447	1677.420	1267.316
53.315	13.440	1676.154	1266.198
54.330	13.405	1674.815	1264.803
55.344	13.368	1673.274	1263.242
56.359	13.354	1671.937	1262.020
57.374	13.386	1670.595	1261.138
58.388	13.333	1669.535	1259.825
59.403	13.381	1668.194	1259.063
60.417	13.353	1666.756	1257.653
61.432	13.269	1665.684	1256.097
62.447	13.285	1664.587	1255.282
63.461	13.252	1663.386	1254.015
64.476	13.297	1661.596	1252.891
65.490	13.260	1660.591	1251.747
66.505	13.243	1659.227	1250.476
67.520	13.311	1658.007	1249.962
68.534	13.258	1657.588	1249.134
69.549	13.274	1656.339	1248.201
70.563	13.350	1654.588	1247.343
71.578	13.374	1653.232	1246.395
72.593	13.197	1652.590	1244.468
73.607	13.163	1651.915	1243.589
74.622	13.166	1649.981	1242.044
75.636	13.168	1649.088	1241.283
76.651	13.185	1648.471	1240.831
77.666	13.168	1647.051	1239.527
78.680	13.198	1646.539	1239.257
79.695	13.190	1645.319	1238.169
80.709	13.168	1644.504	1237.285
81.724	13.217	1643.410	1236.719
82.739	13.288	1642.763	1236.651
83.753	13.230	1641.793	1235.376
84.768	13.366	1640.724	1235.483
85.782	13.400	1639.493	1234.698
86.797	13.418	1638.768	1234.175
87.812	13.438	1637.657	1233.377
88.826	13.424	1636.684	1232.431
89.841	13.294	1635.651	1230.576
90.855	13.386	1634.295	1230.131
91.870	13.336	1633.608	1229.138
92.884	13.422	1632.269	1228.659
93.899	13.411	1632.000	1228.265
94.914	13.489	1629.351	1226.742
95.928	13.503	1628.569	1226.149
96.943	13.523	1627.315	1225.241
97.957	13.447	1625.928	1223.532
98.972	13.459	1624.617	1222.526
99.987	13.405	1623.529	1221.199
101.001	13.512	1621.154	1220.092
102.016	13.456	1619.857	1218.593
103.030	13.424	1618.567	1217.285
104.045	13.488	1617.300	1216.691
105.060	13.514	1616.053	1215.833
106.074	13.462	1614.342	1214.062
107.089	13.422	1613.036	1212.676
108.103	13.314	1611.418	1210.565
109.118	13.277	1610.199	1209.273
110.133	13.331	1608.745	1208.465
111.147	13.223	1607.188	1206.402
112.162	13.328	1605.875	1206.075
113.176	13.288	1604.404	1204.570
114.191	13.390	1603.322	1204.392
115.206	13.410	1601.716	1203.230
116.220	13.391	1600.776	1202.278
117.235	13.417	1598.910	1200.957
118.249	13.327	1598.059	1199.556
119.264	13.352	1596.531	1198.484
120.279	13.322	1595.361	1197.284
121.293	13.359	1593.785	1196.266
122.308	13.309	1592.283	1194.668
123.322	13.296	1590.888	1193.428
124.337	13.336	1589.522	1192.582
125.352	13.246	1588.257	1190.878
126.366	13.329	1586.738	1190.230
127.381	13.302	1585.807	1189.233
128.395	13.252	1585.211	1188.320
129.410	13.397	1583.189	1187.740
130.424	13.328	1581.775	1186.086
131.439	13.289	1580.292	1184.587
132.454	13.364	1579.456	1184.389
133.468	13.412	1577.286	1183.002
134.483	13.432	1575.912	1182.008
135.497	13.394	1574.725	1180.744
136.512	13.372	1573.814	1179.802
137.527	13.465	1572.179	1179.130
138.541	13.441	1570.928	1177.918
139.556	13.416	1569.502	1176.569
140.570	13.489	1568.138	1175.956
141.585	13.463	1566.564	1174.494
142.600	13.514	1565.955	1174.294
143.614	13.518	1564.756	1173.319
144.629	13.626	1562.893	1172.580
145.643	13.601	1561.544	1171.287
146.658	13.658	1559.950	1170.389
147.673	13.560	1558.218	1168.301
148.687	13.596	1556.997	1167.529
149.702	13.604	1555.313	1166.224
150.716	13.403	1554.389	1164.012
151.731	13.487	1552.710	1163.245
152.746	13.613	1551.251	1162.929
153.760	13.583	1550.097	1161.754
154.775	13.627	1548.846	1161.017
155.789	13.634	1547.674	1160.090
156.804	13.672	1546.236	1159.173
157.819	13.753	1545.039	1158.740
158.833	13.795	1543.531	1157.799
159.848	13.746	1542.238	1156.383
160.862	13.661	1541.820	1155.376
161.877	13.768	1540.266	1154.857
162.892	13.702	1539.079	1153.406
163.906	13.713	1537.456	1152.161
164.921	13.592	1536.283	1150.344
165.935	13.795	1534.702	1150.466
166.950	13.755	1534.075	1149.612
167.964	13.752	1532.828	1148.554
168.979	13.700	1532.167	1147.604
169.994	13.794	1530.691	1147.041
171.008	13.793	1529.904	1146.344
172.023	13.710	1529.357	1145.262
173.037	13.858	1527.105	1144.496
174.052	13.844	1526.168	1143.595
175.067	13.880	1525.314	1143.101
176.081	13.837	1523.732	1141.518
177.096	13.746	1522.977	1140.223
178.110	13.710	1521.556	1138.815
179.125	13.835	1520.211	1138.566
180.140	13.770	1519.881	1137.771
181.154	13.752	1518.539	1136.542
182.169	13.893	1517.066	1136.303
183.183	13.934	1515.457	1135.277
184.198	13.936	1514.457	1134.439
185.213	13.872	1513.807	1133.418
186.227	13.921	1512.445	1132.635
187.242	13.995	1511.855	1132.592
188.256	13.987	1510.484	1131.409
189.271	14.048	1509.278	1130.826
190.286	14.109	1507.988	1130.171
191.300	14.087	1506.807	1129.036
192.315	13.989	1505.616	1127.378
193.329	13.881	1504.854	1125.978
194.344	13.855	1503.634	1124.789
195.359	13.938	1502.144	1124.136
196.373	13.892	1501.434	1123.197
197.388	14.013	1500.466	1123.186
198.402	14.102	1499.233	1122.767
199.417	14.094	1498.044	1121.725
200.432	14.212	1496.804	1121.488
201.446	14.173	1495.853	1120.416
202.461	14.215	1494.646	1119.696
203.475	14.213	1493.619	1118.817
204.490	14.208	1492.204	1117.620
205.504	14.267	1491.144	1117.123
206.519	14.240	1490.211	1116.147
207.534	14.251	1488.630	1114.937
208.548	14.251	1487.668	1114.120
209.563	14.233	1487.095	1113.467
210.577	14.180	1485.990	1112.191
211.592	14.255	1485.165	1111.972
212.607	14.252	1484.266	1111.186
213.621	14.301	1483.451	1110.800
214.636	14.344	1482.509	1110.285
215.650	14.332	1481.368	1109.251
216.665	14.397	1480.493	1108.930
217.680	14.378	1479.670	1108.088
218.694	14.476	1478.751	1107.958
219.709	14.460	1478.074	1107.244
220.723	14.366	1477.010	1105.726
221.738	14.343	1476.211	1104.875
222.753	14.409	1474.891	1104.226
223.767	14.502	1473.954	1104.044
224.782	14.534	1473.035	1103.467
225.796	14.509	1472.148	1102.545
226.811	14.485	1471.420	1101.742
227.826	14.590	1470.201	1101.424
228.840	14.531	1469.748	1100.597
229.855	14.575	1468.798	1100.077
230.869	14.567	1467.567	1099.007
231.884	14.473	1466.654	1097.605
232.899	14.569	1465.418	1097.218
233.913	14.541	1464.139	1095.977
234.928	14.586	1463.083	1095.384
235.942	14.574	1461.656	1094.146
236.957	14.526	1460.375	1092.774
237.972	14.533	1459.523	1092.085
238.986	14.557	1458.292	1091.222
240.001	14.561	1457.487	1090.547
241.015	14.562	1456.245	1089.528
242.030	14.519	1455.418	1088.532
243.045	14.610	1454.477	1088.329
244.059	14.669	1453.346	1087.768
245.074	14.731	1452.425	1087.392
246.088	14.785	1451.344	1086.833
247.103	14.701	1451.232	1086.106
248.117	14.810	1450.385	1086.086
249.132	14.824	1449.282	1085.258
250.147	14.855	1448.717	1084.936
251.161	14.955	1447.791	1084.797
252.176	14.853	1447.675	1083.952
253.190	14.977	1446.508	1083.786
254.205	14.990	1445.347	1082.903
255.220	15.004	1444.985	1082.626
256.234	14.994	1443.703	1081.506
257.249	15.092	1443.154	1081.634
258.263	15.120	1441.890	1080.773
259.278	15.104	1441.004	1079.910
260.293	15.158	1439.996	1079.403
261.307	15.098	1439.291	1078.393
262.322	15.079	1438.965	1077.933
263.336	15.124	1437.986	1077.394
264.351	15.223	1436.846	1077.077
265.366	15.126	1436.122	1075.819
266.380	15.170	1434.934	1075.116
267.395	15.186	1434.130	1074.522
268.409	15.215	1433.208	1073.923
269.424	15.277	1432.010	1073.328
270.439	15.245	1431.092	1072.340
271.453	15.326	1429.773	1071.775
272.468	15.221	1428.900	1070.353
273.482	15.236	1428.233	1069.856
274.497	15.205	1427.633	1069.109
275.512	15.296	1426.814	1068.982
276.526	15.297	1425.880	1068.196
277.541	15.335	1424.958	1067.649
278.555	15.327	1423.979	1066.776
279.570	15.326	1422.785	1065.779
280.585	15.340	1422.168	1065.313
281.599	15.379	1421.109	1064.673
282.614	15.411	1420.232	1064.123
283.628	15.363	1418.928	1062.750
284.643	15.457	1417.968	1062.527
285.657	15.384	1416.711	1061.031
286.672	15.386	1416.073	1060.474
287.687	15.503	1415.034	1060.340
288.701	15.446	1413.818	1058.974
289.716	15.401	1413.674	1058.491
290.730	15.438	1412.829	1057.997
291.745	15.385	1411.811	1056.808
292.760	15.527	1410.400	1056.547
293.774	15.484	1409.327	1055.385
294.789	15.461	1408.495	1054.525
295.803	15.571	1407.713	1054.537
296.818	15.596	1407.146	1054.175
297.833	15.648	1405.821	1053.415
298.847	15.661	1404.655	1052.525
299.862	15.584	1403.843	1051.345
300.876	15.527	1403.008	1050.268
301.891	15.637	1401.594	1049.805
302.906	15.720	1400.984	1049.772
303.920	15.669	1400.594	1049.070
304.935	15.810	1399.339	1048.917
305.949	15.800	1398.572	1048.183
306.964	15.862	1397.589	1047.745
307.979	15.867	1396.788	1047.079
308.993	15.821	1396.236	1046.285
310.008	15.880	1395.137	1045.740
311.022	15.889	1393.665	1044.598
312.037	15.888	1392.817	1043.861
313.052	15.921	1392.088	1043.432
314.066	15.924	1390.967	1042.514
315.081	15.932	1390.041	1041.778
316.095	15.878	1388.995	1040.569
317.110	15.822	1387.829	1039.256
318.125	15.826	1386.884	1038.481
319.139	15.930	1385.784	1038.206
320.154	15.754	1385.574	1036.874
321.168	15.850	1384.192	1036.338
322.183	15.908	1383.387	1036.004
323.197	15.881	1381.989	1034.697
324.212	15.969	1381.029	1034.430
325.227	15.970	1380.570	1033.999
326.241	15.978	1379.534	1033.183
327.256	16.045	1378.470	1032.702
328.270	15.969	1378.142	1031.900
329.285	15.990	1377.209	1031.239
330.300	16.019	1376.148	1030.531
331.314	16.020	1375.338	1029.839
332.329	15.905	1374.789	1028.633
333.343	16.043	1373.497	1028.416
334.358	16.081	1372.540	1027.843
335.373	16.012	1372.018	1026.937
336.387	16.105	1371.043	1026.684
337.402	16.159	1370.196	1026.292
338.416	16.242	1369.394	1026.102
339.431	16.260	1368.699	1025.601
340.446	16.260	1368.067	1025.036
341.460	16.335	1366.761	1024.420
342.475	16.338	1366.289	1023.994
343.489	16.363	1365.405	1023.395
344.504	16.342	1364.542	1022.528
345.519	16.357	1363.838	1022.001
346.533	16.368	1362.548	1021.014
347.548	16.329	1361.738	1020.079
348.562	16.332	1361.040	1019.481
349.577	16.459	1359.699	1019.155
350.592	16.363	1359.185	1018.101
351.606	16.445	1358.154	1017.732
352.621	16.436	1357.142	1016.826
353.635	16.431	1356.031	1015.877
354.650	16.330	1355.271	1014.613
355.665	16.403	1354.270	1014.208
356.679	16.415	1353.142	1013.349
357.694	16.479	1351.899	1012.713
358.708	16.426	1351.059	1011.676
359.723	16.440	1349.767	1010.703
360.738	16.560	1348.947	1010.713
361.752	16.521	1348.012	1009.694
362.767	16.576	1346.811	1009.033
363.781	16.502	1345.885	1007.806
364.796	16.580	1345.295	1007.738
365.810	16.595	1344.680	1007.278
366.825	16.552	1343.767	1006.253
367.840	16.650	1343.264	1006.367
368.854	16.701	1342.190	1005.777
369.869	16.794	1342.030	1006.120
370.883	16.723	1341.306	1005.066
371.898	16.671	1340.526	1004.088
372.913	16.692	1339.867	1003.625
373.927	16.770	1338.583	1003.040
374.942	16.705	1337.588	1001.819
375.956	16.825	1336.678	1001.758
376.971	16.903	1335.988	1001.616
377.986	16.799	1335.315	1000.406
379.000	16.847	1334.268	999.816
380.015	16.832	1333.344	998.949
381.029	16.834	1333.159	998.735
382.044	16.979	1332.348	998.889
383.059	16.955	1331.319	997.890
384.073	16.972	1330.627	997.381
385.088	16.919	1330.538	996.916
386.102	16.923	1329.436	996.026
387.117	17.033	1328.998	996.256
388.132	16.996	1328.069	995.251
389.146	16.994	1326.733	994.153
390.161	17.003	1326.262	993.763
391.175	17.005	1325.254	992.932
392.190	17.044	1324.174	992.264
393.205	16.953	1323.977	991.495
394.219	17.106	1322.642	991.305
395.234	17.156	1321.064	990.324
396.248	17.267	1319.440	989.664
397.263	17.141	1318.970	988.493
398.278	17.157	1317.361	987.291
399.292	17.137	1315.980	986.056
400.307	17.060	1315.553	985.199
401.321	17.102	1314.372	984.473
402.336	16.960	1313.582	982.967
403.350	17.054	1312.205	982.393
404.365	17.149	1311.278	982.165
405.380	17.048	1310.755	981.099
406.394	17.148	1310.192	981.171
407.409	17.069	1309.218	979.900
408.423	17.214	1308.545	980.147
409.438	17.354	1307.389	979.997
410.453	17.363	1306.944	979.631
411.467	17.259	1306.250	978.427
412.482	17.270	1305.846	978.098
413.496	17.376	1305.326	978.234
414.511	17.474	1303.998	977.716
415.526	17.406	1303.478	976.848
416.540	17.377	1302.859	976.132
417.555	17.485	1301.959	975.986
418.569	17.451	1301.547	975.396
419.584	17.448	1301.214	975.046
420.599	17.490	1300.504	974.666
421.613	99.834	1362.073	1488.009
422.628	98.062	1370.952	1488.095
