DTS Sentinel unit serial number:	SN413079Multiplexer serial number:	ORYXHardware model number:	OX4-SRSoftware version number:	ORYX F/W v4.00 Oryx Data Collector v3.7.2.0data status	okinstallation	princeton_trtdifferential loss correction	single-endedforward channel	channel 4reverse channel	N/Adate	2019/09/17time	05:09:34forward acquisition time	60.00reverse acquisition time	0.00gamma	496.2192k internal	0.2313k external	0.2313temperature offset calibration	0.9976default loss term (dB/km)	0.3790temperature slope calibration	1.0000multiplexer offset coefficient	1.0000multiplexer slope coefficient	1.0000fibre end	0.00T internal ref (°C)	29.44T ext. ref 1 (°C)	0.14T ext. ref 2 (°C)	23.89length (m)	temperature (°C)	Stokes	anti-Stokes-747.200	-21.715	-0.179	0.111
-746.185	-55.945	0.343	0.155
-745.171	370.320	-0.119	-0.245
-744.156	800.000	-0.041	0.148
-743.142	-110.925	0.132	0.028
-742.127	-200.000	0.037	0.242
-741.112	800.000	0.021	0.079
-740.098	38.343	-0.033	-0.030
-739.083	-140.042	0.125	-0.013
-738.069	179.471	-0.134	0.199
-737.054	-165.619	0.167	0.007
-736.039	-61.447	-0.394	0.168
-735.025	-31.033	0.307	0.176
-734.010	-113.429	-0.309	0.061
-732.996	800.000	0.125	-0.438
-731.981	193.152	-0.076	-0.117
-730.966	-116.162	0.086	-0.016
-729.952	18.749	0.225	-0.183
-728.937	437.863	-0.127	0.280
-727.923	-152.406	-0.372	-0.027
-726.908	-200.000	0.015	0.214
-725.894	246.673	-0.091	0.155
-724.879	800.000	-0.055	-0.198
-723.864	126.403	0.063	-0.081
-722.850	54.799	0.138	-0.135
-721.835	-200.000	-0.045	-0.333
-720.821	324.529	-0.063	-0.122
-719.806	800.000	-0.031	-0.117
-718.791	440.241	0.101	-0.224
-717.777	-54.870	0.149	-0.068
-716.762	345.991	0.148	0.295
-715.748	-200.000	0.044	0.214
-714.733	800.000	-0.057	0.205
-713.718	800.000	0.038	-0.146
-712.704	-54.191	0.443	-0.204
-711.689	217.437	-0.092	-0.149
-710.675	-200.000	0.013	0.260
-709.660	718.289	0.128	0.346
-708.645	-200.000	0.013	0.143
-707.631	32.513	-0.161	-0.141
-706.616	-193.559	0.164	0.001
-705.602	-84.035	0.025	-0.008
-704.587	668.216	-0.027	0.070
-703.572	800.000	-0.029	-0.091
-702.558	-200.000	-0.038	0.302
-701.543	-74.187	-0.256	-0.094
-700.529	-153.224	-0.246	-0.017
-699.514	44.477	0.083	-0.077
-698.499	638.248	-0.068	0.175
-697.485	157.419	-0.106	-0.149
-696.470	800.000	-0.045	0.200
-695.456	31.332	0.045	0.039
-694.441	160.179	-0.173	0.244
-693.426	-159.618	0.227	0.013
-692.412	-200.000	-0.024	0.295
-691.397	258.782	0.105	0.183
-690.383	99.834	-0.178	0.209
-689.368	-117.400	0.168	-0.031
-688.354	-120.887	0.186	-0.032
-687.339	-173.510	0.213	0.007
-686.324	150.222	-0.156	0.214
-685.310	-143.276	0.139	0.013
-684.295	-77.016	0.051	-0.018
-683.281	7.447	-0.280	0.212
-682.266	-200.000	-0.000	0.058
-681.251	400.631	-0.081	-0.173
-680.237	73.753	-0.140	-0.148
-679.222	-122.290	0.294	-0.049
-678.208	61.064	0.030	0.030
-677.193	-64.008	-0.151	0.062
-676.178	-76.488	0.210	0.075
-675.164	-180.308	0.328	0.007
-674.149	-200.000	0.000	-0.188
-673.135	91.807	0.174	-0.198
-672.120	-200.000	0.059	0.368
-671.105	800.000	0.113	-0.338
-670.091	432.230	0.115	-0.252
-669.076	414.175	0.086	-0.185
-668.062	-200.000	0.016	0.280
-667.047	-200.000	0.016	0.146
-666.032	-200.000	0.012	-0.154
-665.018	468.933	-0.100	-0.227
-664.003	-200.000	-0.018	-0.169
-662.989	213.380	-0.252	0.402
-661.974	-77.573	-0.263	-0.092
-660.959	270.686	-0.216	-0.384
-659.945	-110.044	-0.188	-0.040
-658.930	363.810	-0.088	-0.180
-657.916	-200.000	0.003	0.204
-656.901	-107.467	-0.042	-0.009
-655.886	251.054	-0.057	-0.097
-654.872	-200.000	-0.022	-0.212
-653.857	291.415	-0.102	0.188
-652.843	74.852	0.110	0.117
-651.828	-200.000	-0.013	0.152
-650.814	281.496	0.049	-0.089
-649.799	800.000	0.013	-0.057
-648.784	800.000	0.043	0.141
-647.770	800.000	0.062	-0.225
-646.755	-200.000	0.002	-0.142
-645.741	29.483	0.115	0.099
-644.726	110.140	-0.171	-0.207
-643.711	-200.000	0.009	-0.366
-642.697	-200.000	-0.028	-0.303
-641.682	-30.343	-0.055	-0.031
-640.668	-76.245	-0.164	-0.058
-639.653	-30.075	-0.236	-0.136
-638.638	243.831	-0.039	-0.066
-637.624	726.430	0.132	0.356
-636.609	-200.000	-0.015	0.470
-635.595	659.743	-0.101	0.261
-634.580	-154.884	0.075	0.005
-633.565	-3.646	-0.160	-0.112
-632.551	-200.000	0.022	-0.159
-631.536	295.995	0.228	0.422
-630.522	-200.000	0.037	0.168
-629.507	-101.578	0.090	0.022
-628.492	532.250	0.115	-0.275
-627.478	66.226	-0.142	0.146
-626.463	-35.048	-0.167	0.092
-625.449	-20.454	0.106	0.066
-624.434	774.440	0.124	0.341
-623.419	-200.000	-0.064	-0.356
-622.405	-130.872	0.070	-0.010
-621.390	171.534	0.050	-0.073
-620.376	784.826	0.134	0.370
-619.361	70.555	0.195	0.203
-618.346	-200.000	-0.062	0.325
-617.332	800.000	-0.094	-0.336
-616.317	-200.000	-0.021	-0.366
-615.303	-19.171	-0.147	-0.092
-614.288	16.197	0.087	-0.069
-613.273	401.801	0.155	-0.330
-612.259	-200.000	0.049	-0.397
-611.244	-167.639	0.201	-0.008
-610.230	-3.159	-0.208	0.146
-609.215	-52.116	0.124	-0.058
-608.201	-162.941	-0.200	-0.010
-607.186	12.724	0.312	-0.243
-606.171	-65.479	0.085	-0.035
-605.157	-112.286	0.321	-0.065
-604.142	186.094	-0.135	-0.202
-603.128	-55.048	-0.081	0.037
-602.113	128.786	-0.190	-0.245
-601.098	110.016	-0.122	0.148
-600.084	206.799	0.063	0.099
-599.069	95.956	-0.139	0.160
-598.055	716.351	-0.064	-0.171
-597.040	279.798	-0.111	-0.199
-596.025	-60.035	0.209	0.090
-595.011	-102.112	0.224	0.054
-593.996	224.584	-0.151	-0.247
-592.982	-98.070	0.302	-0.078
-591.967	-75.486	0.244	0.088
-590.952	800.000	-0.068	0.201
-589.938	800.000	-0.074	-0.270
-588.923	-47.334	0.056	-0.028
-587.909	-127.253	-0.303	-0.045
-586.894	17.676	0.205	-0.165
-585.879	492.855	0.089	-0.206
-584.865	106.783	-0.159	0.190
-583.850	-69.580	0.120	-0.046
-582.836	70.522	0.107	-0.112
-581.821	399.453	0.104	-0.220
-580.806	-200.000	-0.029	0.131
-579.792	194.972	0.124	0.189
-578.777	-200.000	-0.006	0.041
-577.763	800.000	0.081	-0.325
-576.748	26.327	-0.079	0.067
-575.733	148.942	-0.143	-0.194
-574.719	-200.000	0.071	-0.358
-573.704	-90.898	0.378	0.110
-572.690	-143.073	-0.342	0.033
-571.675	-68.589	0.208	0.081
-570.661	-115.161	-0.053	0.010
-569.646	-84.066	-0.134	0.043
-568.631	-147.201	-0.220	-0.019
-567.617	159.855	-0.183	0.257
-566.602	-161.801	0.021	-0.001
-565.588	796.742	0.006	0.018
-564.573	-105.983	0.339	0.077
-563.558	-200.000	-0.005	0.034
-562.544	-36.480	0.254	-0.138
-561.529	5.745	-0.207	-0.154
-560.515	300.693	-0.071	0.132
-559.500	3.281	-0.293	0.214
-558.485	-200.000	-0.050	-0.299
-557.471	125.741	0.089	0.114
-556.456	-200.000	-0.013	-0.106
-555.442	-72.088	0.312	0.117
-554.427	-200.000	-0.034	0.245
-553.412	-200.000	0.015	0.207
-552.398	198.747	0.139	-0.214
-551.383	-54.059	-0.306	0.140
-550.369	-118.442	-0.297	-0.053
-549.354	52.298	-0.155	-0.149
-548.339	-77.677	-0.344	0.120
-547.325	800.000	-0.052	0.154
-546.310	175.839	0.146	0.214
-545.296	378.891	0.046	-0.095
-544.281	158.703	0.039	0.055
-543.266	695.076	0.008	-0.021
-542.252	-66.684	-0.131	-0.052
-541.237	-86.653	0.247	0.076
-540.223	-200.000	-0.004	-0.084
-539.208	800.000	0.141	-0.430
-538.193	-119.661	0.205	0.036
-537.179	191.844	-0.061	-0.093
-536.164	42.050	0.146	-0.133
-535.150	-60.831	-0.153	0.065
-534.135	-141.832	-0.384	0.039
-533.121	-93.585	-0.038	-0.011
-532.106	-150.661	0.187	0.014
-531.091	-200.000	0.024	0.315
-530.077	-133.646	0.341	0.043
-529.062	10.572	0.162	0.124
-528.048	-102.243	-0.181	0.044
-527.033	328.091	0.106	0.205
-526.018	-200.000	0.001	-0.123
-525.004	-27.192	0.123	-0.072
-523.989	75.560	-0.197	0.209
-522.975	375.222	-0.152	0.312
-521.960	475.539	-0.123	0.280
-520.945	-82.428	0.251	-0.082
-519.931	-200.000	0.051	-0.321
-518.916	205.318	-0.176	-0.275
-517.902	-116.284	0.288	-0.054
-516.887	214.484	0.074	-0.117
-515.872	-112.925	-0.158	0.032
-514.858	51.600	-0.113	-0.108
-513.843	-85.959	-0.331	-0.103
-512.829	107.630	-0.023	0.027
-511.814	55.655	0.206	-0.201
-510.799	800.000	-0.037	0.135
-509.785	131.329	0.070	0.090
-508.770	-62.460	-0.078	0.032
-507.756	183.121	0.056	0.084
-506.741	-58.636	-0.227	0.099
-505.726	210.403	-0.132	-0.208
-504.712	130.033	-0.029	-0.038
-503.697	-49.106	-0.190	-0.092
-502.683	33.268	0.244	0.213
-501.668	-163.028	-0.008	0.000
-500.653	528.070	-0.058	0.137
-499.639	458.362	-0.112	0.249
-498.624	47.613	0.216	0.202
-497.610	60.968	0.115	-0.115
-496.595	424.102	-0.130	-0.280
-495.581	-200.000	-0.008	-0.102
-494.566	800.000	-0.055	0.201
-493.551	26.726	0.326	0.274
-492.537	-200.000	0.002	0.123
-491.522	15.793	-0.111	0.088
-490.508	-33.721	0.298	0.165
-489.493	169.722	0.074	-0.106
-488.478	-190.999	-0.352	0.004
-487.464	61.525	-0.095	0.095
-486.449	217.933	-0.048	-0.077
-485.435	161.977	0.049	0.069
-484.420	-102.871	0.304	-0.073
-483.405	-200.000	-0.011	-0.086
-482.391	-21.610	0.185	-0.113
-481.376	-8.191	0.300	-0.203
-480.362	-99.984	0.023	-0.006
-479.347	718.464	0.008	0.021
-478.332	-19.682	-0.136	-0.084
-477.318	-123.424	0.109	-0.017
-476.303	19.166	0.268	-0.216
-475.289	712.372	-0.060	-0.160
-474.274	78.176	-0.201	-0.215
-473.259	47.939	0.068	-0.063
-472.245	31.538	0.092	-0.079
-471.230	299.189	0.152	0.281
-470.216	-197.213	-0.322	0.002
-469.201	121.481	0.132	0.166
-468.186	-112.956	-0.230	-0.046
-467.172	221.817	-0.174	0.281
-466.157	-200.000	0.005	0.256
-465.143	-27.696	0.126	-0.073
-464.128	-200.000	-0.057	0.285
-463.113	-200.000	0.068	0.319
-462.099	-143.248	-0.071	0.007
-461.084	800.000	0.045	0.177
-460.070	-53.597	0.331	-0.152
-459.055	800.000	-0.154	-0.440
-458.040	800.000	-0.085	-0.297
-457.026	-200.000	0.093	-0.416
-456.011	-68.538	0.174	-0.068
-454.997	69.462	-0.083	0.086
-453.982	-81.745	-0.270	-0.089
-452.968	52.505	-0.195	-0.187
-451.953	-50.877	0.284	-0.134
-450.938	800.000	-0.072	-0.274
-449.924	-21.987	0.101	0.062
-448.909	-59.773	-0.271	0.116
-447.895	-86.163	0.165	0.051
-446.880	182.206	0.068	-0.100
-445.865	46.197	-0.249	-0.232
-444.851	-200.000	-0.012	0.112
-443.836	-22.806	0.148	-0.090
-442.822	-81.504	0.553	-0.182
-441.807	-49.850	0.066	0.032
-440.792	-143.338	-0.459	0.044
-439.778	14.781	-0.038	0.030
-438.763	-176.662	0.106	-0.003
-437.749	-200.000	-0.044	0.457
-436.734	29.896	-0.383	0.327
-435.719	-200.000	-0.121	0.556
-434.705	-200.000	0.018	-0.348
-433.690	-104.493	0.233	0.054
-432.676	-200.000	-0.018	-0.272
-431.661	200.601	-0.194	-0.298
-430.646	-90.582	-0.118	0.034
-429.632	-39.681	-0.057	-0.030
-428.617	-129.408	-0.127	-0.018
-427.603	215.395	0.108	-0.171
-426.588	106.548	-0.107	0.127
-425.573	52.190	0.185	-0.177
-424.559	261.192	-0.206	0.357
-423.544	-9.868	-0.247	-0.164
-422.530	-131.413	0.215	-0.029
-421.515	800.000	-0.037	0.121
-420.500	-137.578	0.233	-0.026
-419.486	-43.275	-0.114	-0.058
-418.471	51.815	0.136	0.130
-417.457	-16.600	-0.177	0.112
-416.442	-85.349	0.146	-0.046
-415.428	176.967	-0.050	0.072
-414.413	115.441	-0.076	0.093
-413.398	-33.082	0.305	0.169
-412.384	-200.000	0.094	-0.425
-411.369	-84.856	0.167	0.053
-410.355	-47.056	0.196	-0.096
-409.340	-17.503	0.159	-0.100
-408.325	-200.000	-0.015	0.104
-407.311	-107.981	0.106	0.023
-406.296	57.953	-0.386	-0.378
-405.282	-171.929	-0.031	0.001
-404.267	-15.531	0.153	0.098
-403.252	-101.665	0.222	-0.054
-402.238	72.720	0.206	0.215
-401.223	-2.600	-0.118	0.083
-400.209	82.719	0.182	-0.198
-399.194	-59.096	0.131	0.056
-398.179	560.422	0.097	-0.236
-397.165	-200.000	0.065	-0.414
-396.150	-200.000	-0.032	-0.145
-395.136	97.224	-0.179	-0.206
-394.121	-200.000	0.022	0.240
-393.106	-200.000	0.042	0.249
-392.092	-82.273	-0.113	0.037
-391.077	15.408	-0.092	0.073
-390.063	278.634	-0.096	0.171
-389.048	-200.000	0.046	0.213
-388.033	304.565	0.071	-0.131
-387.019	-96.827	0.227	-0.060
-386.004	-124.172	-0.177	-0.028
-384.990	22.037	0.099	0.081
-383.975	-200.000	0.037	0.205
-382.960	-64.771	0.170	0.069
-381.946	-154.773	0.218	0.014
-380.931	800.000	-0.036	-0.108
-379.917	-200.000	-0.027	0.337
-378.902	217.448	0.134	-0.213
-377.888	222.084	0.214	-0.345
-376.873	79.428	0.161	-0.173
-375.858	284.439	0.017	0.030
-374.844	-200.000	0.013	0.166
-373.829	-110.039	0.135	0.028
-372.815	800.000	-0.035	-0.151
-371.800	20.762	0.157	0.127
-370.785	723.478	0.127	0.338
-369.771	-0.298	-0.169	-0.120
-368.756	-4.241	0.106	0.073
-367.742	90.334	0.066	-0.074
-366.727	-1.712	-0.147	-0.103
-365.712	-150.258	-0.184	0.014
-364.698	57.141	0.314	0.306
-363.683	-94.309	-0.136	-0.037
-362.669	454.062	0.077	0.170
-361.654	-45.235	-0.265	0.132
-360.639	-134.855	0.095	0.012
-359.625	-200.000	-0.019	0.098
-358.610	562.479	0.059	0.142
-357.596	-200.000	-0.000	-0.388
-356.581	-200.000	-0.033	-0.182
-355.566	48.161	-0.232	0.217
-354.552	-200.000	0.044	-0.394
-353.537	-66.490	0.349	0.138
-352.523	539.952	-0.105	-0.251
-351.508	132.837	-0.175	0.226
-350.493	534.982	-0.063	-0.148
-349.479	276.697	0.146	0.258
-348.464	-58.185	0.392	0.171
-347.450	82.817	-0.140	-0.152
-346.435	-72.052	-0.120	-0.044
-345.420	800.000	0.087	-0.330
-344.406	-200.000	0.013	-0.082
-343.391	-200.000	-0.013	0.092
-342.377	-157.455	0.476	0.029
-341.362	415.933	-0.192	-0.409
-340.348	-200.000	-0.007	0.066
-339.333	149.507	-0.251	0.340
-338.318	-4.017	0.124	0.086
-337.304	19.145	-0.077	-0.062
-336.289	-41.444	-0.061	-0.031
-335.275	-200.000	0.040	0.190
-334.260	-66.701	-0.058	-0.023
-333.245	729.509	-0.069	0.184
-332.231	-43.587	0.155	0.078
-331.216	39.905	-0.067	-0.060
-330.202	-85.096	-0.070	-0.022
-329.187	128.900	0.235	0.299
-328.172	-200.000	0.022	-0.111
-327.158	-70.774	-0.185	-0.070
-326.143	-190.038	-0.330	0.004
-325.129	531.907	0.079	-0.187
-324.114	-200.000	-0.000	-0.106
-323.099	8.051	0.227	-0.170
-322.085	-111.774	0.401	-0.081
-321.070	-124.214	-0.503	-0.079
-320.056	800.000	-0.005	0.017
-319.041	221.827	0.313	-0.502
-318.026	14.624	0.088	0.069
-317.012	133.474	0.039	-0.050
-315.997	-90.658	-0.158	0.045
-314.983	326.124	-0.129	0.247
-313.968	-154.961	-0.257	0.017
-312.953	-97.849	0.090	0.023
-311.939	79.127	0.077	0.083
-310.924	271.131	-0.167	-0.294
-309.910	523.135	0.120	0.281
-308.895	-37.891	0.161	0.085
-307.880	189.256	-0.091	-0.136
-306.866	98.809	0.303	0.349
-305.851	-64.521	-0.236	0.095
-304.837	462.541	0.143	0.319
-303.822	-122.883	-0.244	-0.039
-302.807	-200.000	-0.012	-0.121
-301.793	-200.000	-0.040	-0.262
-300.778	337.695	0.221	-0.428
-299.764	800.000	-0.121	0.362
-298.749	-94.547	-0.260	0.071
-297.735	-148.787	-0.094	-0.008
-296.720	-37.404	-0.051	0.027
-295.705	-200.000	-0.012	-0.063
-294.691	-200.000	-0.032	0.207
-293.676	-54.945	-0.315	0.141
-292.662	0.981	-0.084	0.060
-291.647	100.979	-0.101	0.117
-290.632	520.873	0.130	0.303
-289.618	-119.834	0.088	-0.015
-288.603	-51.142	-0.200	0.094
-287.589	45.387	-0.173	-0.159
-286.574	265.711	0.178	0.309
-285.559	-160.308	0.229	0.012
-284.545	-49.664	0.121	0.057
-283.530	-191.650	-0.182	-0.002
-282.516	-141.143	0.519	-0.053
-281.501	-164.307	0.103	0.005
-280.486	245.225	0.060	0.101
-279.472	147.600	-0.120	-0.161
-278.457	-136.928	-0.375	-0.043
-277.443	-16.798	-0.223	0.141
-276.428	-33.744	-0.030	0.017
-275.413	341.063	-0.119	0.232
-274.399	-81.783	0.312	0.102
-273.384	800.000	-0.009	0.031
-272.370	-91.452	-0.284	-0.081
-271.355	544.679	0.081	-0.193
-270.340	438.838	0.109	0.236
-269.326	-200.000	-0.064	-0.321
-268.311	800.000	-0.071	0.311
-267.297	98.758	0.040	0.047
-266.282	230.423	-0.135	-0.220
-265.267	304.758	-0.082	0.151
-264.253	-30.273	0.427	-0.241
-263.238	800.000	-0.022	0.080
-262.224	-83.123	-0.381	-0.122
-261.209	87.808	0.016	-0.017
-260.195	370.430	0.036	0.072
-259.180	-81.031	-0.236	0.078
-258.165	327.657	0.140	0.268
-257.151	-200.000	0.008	0.122
-256.136	-8.758	0.151	-0.101
-255.122	-2.923	0.176	-0.122
-254.107	342.306	-0.096	-0.186
-253.092	3.821	0.304	0.221
-252.078	-46.717	-0.311	-0.152
-251.063	-94.246	-0.310	-0.084
-250.049	-123.254	0.294	-0.047
-249.034	-116.148	-0.026	-0.005
-248.019	-35.079	0.111	0.060
-247.005	-25.085	-0.275	0.162
-245.990	800.000	-0.012	0.049
-244.976	66.287	-0.201	0.203
-243.961	6.979	-0.238	-0.177
-242.946	210.357	-0.141	0.220
-241.932	201.787	0.132	0.203
-240.917	-2.013	-0.276	-0.193
-239.903	30.305	0.178	-0.151
-238.888	-21.776	0.139	0.084
-237.873	-121.302	-0.193	0.032
-236.859	278.386	-0.117	-0.207
-235.844	-176.564	0.524	-0.013
-234.830	-138.467	-0.221	-0.024
-233.815	-200.000	-0.028	-0.298
-232.800	-104.778	-0.266	-0.061
-231.786	2.379	0.163	0.117
-230.771	18.560	0.244	-0.194
-229.757	212.323	0.176	0.276
-228.742	-200.000	-0.000	-0.093
-227.727	33.791	-0.062	-0.054
-226.713	800.000	-0.071	0.289
-225.698	-200.000	0.020	-0.267
-224.684	800.000	-0.091	-0.316
-223.669	-120.579	0.376	-0.063
-222.655	191.063	0.166	-0.248
-221.640	-3.749	-0.248	-0.171
-220.625	532.681	-0.056	0.133
-219.611	-163.052	-0.449	-0.022
-218.596	475.259	0.102	0.229
-217.582	-124.650	0.204	0.031
-216.567	-200.000	0.024	0.166
-215.552	566.921	0.177	0.426
-214.538	285.644	-0.055	0.099
-213.523	-200.000	-0.016	-0.099
-212.509	800.000	0.093	-0.271
-211.494	39.744	-0.070	0.063
-210.479	-1.382	0.185	0.130
-209.465	-117.775	-0.460	0.082
-208.450	87.459	-0.178	-0.196
-207.436	-45.949	-0.186	0.091
-206.421	-131.611	0.301	-0.039
-205.406	139.206	0.055	0.072
-204.392	457.570	-0.111	0.244
-203.377	-82.268	-0.150	0.049
-202.363	156.649	-0.044	0.061
-201.348	-68.352	0.321	-0.124
-200.333	-151.437	-0.217	0.016
-199.319	725.329	-0.076	-0.201
-198.304	-20.159	-0.257	0.157
-197.290	107.702	-0.168	0.198
-196.275	800.000	-0.082	-0.263
-195.260	-71.189	-0.302	-0.112
-194.246	160.684	0.066	0.091
-193.231	800.000	-0.114	0.398
-192.217	19.793	-0.296	0.237
-191.202	-50.181	-0.080	-0.038
-190.187	33.281	0.151	-0.130
-189.173	800.000	0.067	0.209
-188.158	-200.000	-0.052	0.244
-187.144	-200.000	-0.042	0.317
-186.129	34.006	0.311	-0.269
-185.114	800.000	0.020	-0.062
-184.100	-135.778	0.355	-0.042
-183.085	256.665	-0.104	0.178
-182.071	109.022	0.205	0.244
-181.056	180.201	0.166	-0.242
-180.042	111.609	-0.225	-0.269
-179.027	-200.000	0.004	-0.263
-178.012	293.246	-0.079	-0.142
-176.998	-46.048	-0.098	-0.048
-175.983	800.000	-0.006	-0.021
-174.969	-191.254	-0.243	0.002
-173.954	-68.652	0.174	-0.067
-172.939	237.151	-0.137	0.225
-171.925	-71.717	0.287	0.106
-170.910	-18.592	-0.230	0.142
-169.896	75.271	-0.123	-0.129
-168.881	185.171	0.158	0.233
-167.866	800.000	-0.028	0.113
-166.852	-72.354	-0.539	0.198
-165.837	-47.764	0.299	-0.144
-164.823	-54.652	0.240	-0.108
-163.808	-85.725	0.156	0.048
-162.793	-39.450	-0.161	0.084
-161.779	14.625	-0.170	-0.132
-160.764	27.589	0.275	-0.230
-159.750	-121.039	-0.379	-0.063
-158.735	20.969	-0.123	0.099
-157.720	106.694	-0.119	0.139
-156.706	-61.856	0.086	-0.036
-155.691	-133.508	0.229	0.028
-154.677	-6.197	-0.305	-0.207
-153.662	-200.000	0.002	0.042
-152.647	113.096	-0.051	-0.061
-151.633	-200.000	-0.012	0.128
-150.618	61.504	-0.030	-0.030
-149.604	-92.707	0.063	0.018
-148.589	-200.000	-0.047	0.321
-147.574	7.426	0.132	-0.097
-146.560	73.694	0.273	-0.283
-145.545	212.730	0.145	-0.227
-144.531	-200.000	-0.038	-0.273
-143.516	57.690	-0.118	-0.114
-142.502	-200.000	-0.012	0.245
-141.487	69.875	-0.136	0.139
-140.472	800.000	-0.033	0.093
-139.458	193.013	0.088	-0.131
-138.443	144.377	-0.070	0.092
-137.429	800.000	0.082	0.352
-136.414	-200.000	-0.005	0.485
-135.399	572.291	0.128	0.308
-134.385	-23.459	-0.090	0.053
-133.370	800.000	-0.063	-0.178
-132.356	342.518	0.108	0.209
-131.341	166.549	0.247	0.346
-130.326	66.308	-0.159	0.160
-129.312	743.119	-0.012	0.032
-128.297	-200.000	-0.006	0.220
-127.283	-121.950	-0.284	0.046
-126.268	65.048	-0.170	0.170
-125.253	-160.230	-0.215	0.012
-124.239	-61.923	-0.193	0.080
-123.224	433.968	-0.063	0.136
-122.210	-200.000	0.007	0.108
-121.195	-34.925	0.083	-0.045
-120.180	6.481	0.158	-0.116
-119.166	62.578	0.167	-0.165
-118.151	-142.458	-0.132	-0.013
-117.137	-200.000	-0.059	0.264
-116.122	-57.157	0.044	-0.019
-115.107	14.545	-0.055	-0.043
-114.093	-53.162	0.178	-0.081
-113.078	-120.854	0.159	-0.027
-112.064	-123.819	0.075	-0.012
-111.049	-44.761	0.165	-0.082
-110.034	-174.232	-0.256	0.007
-109.020	-59.168	0.243	0.103
-108.005	331.724	0.169	-0.323
-106.991	-23.108	0.368	0.219
-105.976	-200.000	0.026	0.123
-104.962	50.855	-0.295	0.277
-103.947	-51.004	-0.079	0.037
-102.932	-129.543	-0.406	-0.056
-101.918	-89.206	0.088	-0.026
-100.903	192.769	-0.053	-0.079
-99.889	-136.055	0.223	0.026
-98.874	-55.544	0.159	-0.070
-97.859	-31.101	0.355	0.198
-96.845	-111.989	-0.336	-0.067
-95.830	10.950	0.082	0.062
-94.816	-200.000	-0.027	-0.362
-93.801	-200.000	-0.018	0.079
-92.786	-200.000	0.001	-0.017
-91.772	65.264	0.151	0.151
-90.757	800.000	-0.115	0.417
-89.743	-61.129	0.302	0.126
-88.728	199.962	-0.091	-0.138
-87.713	436.295	0.133	0.287
-86.699	-200.000	0.033	0.362
-85.684	150.604	0.091	0.122
-84.670	452.659	-0.158	-0.345
-83.655	-65.673	-0.280	-0.111
-82.640	624.117	-0.012	0.029
-81.626	247.503	-0.104	-0.173
-80.611	-129.347	0.113	-0.016
-79.597	-14.996	-0.190	-0.120
-78.582	-11.599	-0.112	0.073
-77.567	176.260	0.138	-0.199
-76.553	38.307	-0.051	0.045
-75.538	-98.890	-0.487	-0.122
-74.524	-140.420	-0.190	-0.020
-73.509	-4.184	-0.097	0.066
-72.494	-99.405	0.093	-0.023
-71.480	-200.000	0.005	0.270
-70.465	723.488	0.053	-0.140
-69.451	64.976	-0.195	-0.194
-68.436	-6.887	0.106	0.071
-67.422	-200.000	-0.007	0.387
-66.407	193.266	-0.032	0.048
-65.392	-155.480	-0.280	-0.018
-64.378	30.449	0.086	-0.072
-63.363	42.542	0.277	0.249
-62.349	-75.455	-0.273	-0.096
-61.334	36.221	-0.782	-0.680
-60.319	218.614	0.410	0.646
-59.305	488.502	-0.511	-1.152
-58.290	151.321	0.842	1.131
-57.276	479.630	0.731	1.635
-56.261	-200.000	109.087	598.521
-55.246	440.068	1489.924	3214.803
-54.232	142.723	2683.061	3520.160
-53.217	96.394	2328.489	2630.410
-52.203	35.818	2077.498	1803.595
-51.188	31.150	1995.113	1689.850
-50.173	29.667	1978.687	1662.535
-49.159	46.049	2035.311	1860.081
-48.144	46.218	2051.516	1876.363
-47.130	31.724	2010.433	1707.787
-46.115	29.453	1999.321	1677.662
-45.100	29.378	1996.115	1674.228
-44.086	29.329	1993.946	1671.898
-43.071	29.284	1990.780	1668.773
-42.057	29.274	1988.955	1667.079
-41.042	29.266	1987.716	1665.904
-40.027	29.413	1985.409	1665.231
-39.013	29.391	1983.557	1663.417
-37.998	29.369	1981.329	1661.280
-36.984	29.397	1979.551	1659.981
-35.969	29.338	1977.777	1657.897
-34.954	29.357	1976.340	1656.793
-33.940	29.388	1974.738	1655.667
-32.925	29.370	1972.938	1653.929
-31.911	29.478	1970.819	1653.049
-30.896	29.398	1969.993	1651.576
-29.881	29.476	1967.652	1650.245
-28.867	29.527	1966.665	1649.812
-27.852	29.558	1964.544	1648.239
-26.838	29.508	1962.871	1646.325
-25.823	29.497	1960.724	1644.362
-24.809	29.513	1959.291	1643.238
-23.794	29.527	1957.706	1641.973
-22.779	29.497	1955.463	1639.755
-21.765	29.415	1954.347	1638.025
-20.750	29.440	1952.944	1637.008
-19.736	29.407	1951.533	1635.465
-18.721	29.523	1949.563	1634.775
-17.706	29.515	1948.098	1633.412
-16.692	29.507	1945.500	1631.098
-15.677	29.430	1944.680	1629.664
-14.663	29.400	1943.429	1628.286
-13.648	29.392	1941.703	1626.711
-12.633	29.435	1940.414	1625.941
-11.619	29.448	1939.189	1624.966
-10.604	29.407	1937.788	1623.369
-9.590	29.397	1936.593	1622.214
-8.575	29.445	1934.703	1620.990
-7.560	29.491	1933.517	1620.334
-6.546	29.435	1932.562	1618.976
-5.531	29.429	1930.913	1617.479
-4.517	29.438	1930.129	1616.839
-3.502	29.479	1928.742	1615.967
-2.487	29.420	1927.558	1614.396
-1.473	29.522	1926.570	1614.395
-0.458	29.571	1921.250	1610.306
0.556	27.432	1901.692	1581.524
1.571	23.252	1882.481	1529.386
2.586	19.201	1905.559	1512.502
3.600	18.233	1940.699	1531.596
4.615	18.161	1935.925	1527.048
5.629	14.370	1834.827	1415.035
6.644	5.696	1714.785	1253.221
7.659	0.667	1676.806	1185.954
8.673	0.175	1673.708	1179.803
9.688	0.139	1672.535	1178.590
10.702	0.159	1670.633	1177.303
11.717	0.087	1667.363	1174.335
12.731	0.612	1667.422	1178.369
13.746	6.897	1680.693	1236.950
14.761	14.962	1697.588	1312.801
15.775	17.554	1699.892	1334.805
16.790	16.982	1697.402	1328.256
17.804	15.971	1693.532	1317.208
18.819	14.991	1690.596	1307.155
19.834	14.438	1688.138	1300.821
20.848	14.048	1687.013	1296.801
21.863	13.853	1685.102	1293.701
22.877	13.498	1683.597	1289.665
23.892	13.353	1682.479	1287.568
24.907	13.209	1681.281	1285.410
25.921	13.196	1680.054	1284.263
26.936	13.241	1678.949	1283.652
27.950	13.225	1678.482	1283.055
28.965	13.215	1677.997	1282.495
29.980	13.317	1676.893	1282.330
30.994	13.376	1675.612	1281.695
32.009	13.394	1675.210	1281.414
33.023	13.427	1674.432	1280.958
34.038	13.450	1673.179	1280.065
35.053	13.438	1672.085	1279.024
36.067	13.466	1670.531	1277.938
37.082	13.448	1670.049	1277.313
38.096	13.426	1669.483	1276.599
39.111	13.480	1668.263	1275.973
40.126	13.463	1667.590	1275.208
41.140	13.385	1666.831	1273.917
42.155	13.377	1665.175	1272.476
43.169	13.227	1663.881	1270.220
44.184	13.266	1662.811	1269.593
45.199	13.256	1661.780	1268.616
46.213	13.190	1660.593	1267.092
47.228	13.210	1659.331	1266.170
48.242	13.200	1658.115	1265.057
49.257	13.345	1656.837	1265.079
50.271	13.334	1655.459	1263.827
51.286	13.363	1654.165	1262.954
52.301	13.336	1653.316	1261.987
53.315	13.307	1651.858	1260.541
54.330	13.367	1650.238	1259.645
55.344	13.255	1648.791	1257.582
56.359	13.238	1647.393	1256.275
57.374	13.200	1645.877	1254.716
58.388	13.217	1645.075	1254.127
59.403	13.267	1643.523	1253.206
60.417	13.216	1642.185	1251.691
61.432	13.190	1640.957	1250.444
62.447	13.237	1639.495	1249.578
63.461	13.102	1638.887	1247.984
64.476	13.087	1637.903	1247.013
65.490	13.055	1636.645	1245.702
66.505	13.083	1635.550	1244.969
67.520	13.150	1634.075	1244.238
68.534	13.111	1633.146	1243.131
69.549	13.148	1631.997	1242.421
70.563	13.237	1630.576	1241.897
71.578	13.141	1629.958	1240.602
72.593	13.091	1628.776	1239.213
73.607	13.086	1627.890	1238.391
74.622	13.047	1626.466	1236.906
75.636	13.018	1626.133	1236.328
76.651	13.056	1624.975	1235.620
77.666	13.020	1624.040	1234.533
78.680	13.026	1623.490	1234.052
79.695	13.074	1622.013	1233.175
80.709	13.077	1620.993	1232.314
81.724	13.147	1620.331	1232.223
82.739	13.171	1619.421	1231.601
83.753	13.153	1618.356	1230.549
84.768	13.258	1617.665	1230.699
85.782	13.295	1616.703	1230.134
86.797	13.392	1615.888	1230.126
87.812	13.367	1614.718	1228.935
88.826	13.341	1613.609	1227.791
89.841	13.261	1612.498	1226.244
90.855	13.259	1611.516	1225.378
91.870	13.284	1610.208	1224.454
92.884	13.317	1609.127	1223.774
93.899	13.379	1607.996	1223.262
94.914	13.365	1607.158	1222.414
95.928	13.315	1606.131	1221.154
96.943	13.407	1604.513	1220.493
97.957	13.426	1602.835	1219.250
98.972	13.362	1601.201	1217.427
99.987	13.370	1600.108	1216.547
101.001	13.422	1598.235	1215.398
102.016	13.475	1596.115	1214.066
103.030	13.292	1595.743	1212.333
104.045	13.342	1594.695	1211.799
105.060	13.440	1592.575	1210.795
106.074	13.388	1591.084	1209.176
107.089	13.266	1590.030	1207.375
108.103	13.152	1588.863	1205.552
109.118	13.175	1587.269	1204.401
110.133	13.261	1585.470	1203.560
111.147	13.240	1584.342	1202.440
112.162	13.209	1583.393	1201.393
113.176	13.210	1582.417	1200.553
114.191	13.261	1580.708	1199.518
115.206	13.254	1579.817	1198.685
116.220	13.238	1578.577	1197.521
117.235	13.228	1577.222	1196.319
118.249	13.175	1576.171	1195.032
119.264	13.242	1574.273	1193.969
120.279	13.255	1572.893	1192.914
121.293	13.239	1571.545	1191.668
122.308	13.204	1570.542	1190.553
123.322	13.182	1569.073	1189.170
124.337	13.195	1567.283	1187.807
125.352	13.144	1566.615	1186.827
126.366	13.166	1565.323	1185.897
127.381	13.173	1563.857	1184.734
128.395	13.357	1562.418	1184.858
129.410	13.163	1561.068	1182.345
130.424	13.153	1560.230	1181.530
131.439	13.227	1558.932	1180.974
132.454	13.205	1557.342	1179.503
133.468	13.308	1556.186	1179.263
134.483	13.304	1554.828	1178.097
135.497	13.327	1553.221	1176.941
136.512	13.351	1551.648	1175.816
137.527	13.329	1550.808	1174.916
138.541	13.328	1549.290	1173.659
139.556	13.331	1548.407	1172.907
140.570	13.333	1546.607	1171.449
141.585	13.365	1545.311	1170.593
142.600	13.502	1543.744	1170.268
143.614	13.437	1543.079	1169.207
144.629	13.515	1541.562	1168.500
145.643	13.668	1539.921	1168.232
146.658	13.590	1538.796	1166.728
147.673	13.571	1537.137	1165.235
148.687	13.539	1535.747	1163.852
149.702	13.495	1534.209	1162.272
150.716	13.451	1532.650	1160.679
151.731	13.383	1531.437	1159.181
152.746	13.396	1530.910	1158.772
153.760	13.502	1528.589	1157.656
154.775	13.557	1527.150	1156.849
155.789	13.430	1526.595	1155.435
156.804	13.557	1525.187	1155.158
157.819	13.606	1523.660	1154.235
158.833	13.546	1522.481	1152.826
159.848	13.640	1521.802	1152.863
160.862	13.707	1520.073	1151.913
161.877	13.634	1519.200	1150.646
162.892	13.566	1517.906	1149.089
163.906	13.589	1516.594	1148.156
164.921	13.577	1515.228	1146.940
165.935	13.579	1514.149	1146.037
166.950	13.597	1513.351	1145.451
167.964	13.580	1512.816	1144.825
168.979	13.686	1510.653	1143.825
169.994	13.648	1509.968	1142.943
171.008	13.641	1508.596	1141.749
172.023	13.570	1507.990	1140.705
173.037	13.606	1506.692	1139.870
174.052	13.671	1505.827	1139.563
175.067	13.705	1504.490	1138.684
176.081	13.730	1503.109	1137.709
177.096	13.677	1501.900	1136.331
178.110	13.694	1500.132	1135.007
179.125	13.636	1499.549	1134.070
180.140	13.710	1498.449	1133.642
181.154	13.664	1497.735	1132.685
182.169	13.743	1496.361	1132.089
183.183	13.817	1494.892	1131.376
184.198	13.816	1493.914	1130.535
185.213	13.772	1493.020	1129.454
186.227	13.846	1492.112	1129.175
187.242	13.883	1490.839	1128.360
188.256	13.927	1489.845	1127.807
189.271	13.953	1488.748	1127.054
190.286	13.974	1487.860	1126.423
191.300	13.906	1487.011	1125.222
192.315	13.807	1484.952	1122.896
193.329	13.616	1484.363	1121.054
194.344	13.677	1483.028	1120.362
195.359	13.776	1481.769	1119.977
196.373	13.742	1480.947	1119.030
197.388	13.924	1479.795	1119.283
198.402	13.944	1478.654	1118.457
199.417	13.939	1477.975	1117.812
200.432	14.051	1476.665	1117.478
201.446	14.113	1475.640	1117.020
202.461	14.087	1474.833	1116.137
203.475	14.194	1473.159	1115.486
204.490	14.092	1472.570	1114.258
205.504	14.129	1471.285	1113.437
206.519	14.097	1470.563	1112.577
207.534	14.146	1468.883	1111.534
208.548	14.126	1467.454	1110.222
209.563	14.048	1467.002	1109.263
210.577	14.168	1465.667	1108.951
211.592	14.105	1465.120	1108.023
212.607	14.109	1464.352	1107.369
213.621	14.169	1463.590	1107.093
214.636	14.219	1462.657	1106.624
215.650	14.279	1461.278	1105.880
216.665	14.264	1460.867	1105.369
217.680	14.272	1459.981	1104.655
218.694	14.307	1459.043	1104.084
219.709	14.419	1457.755	1103.752
220.723	14.342	1457.003	1102.572
221.738	14.331	1456.075	1101.701
222.753	14.317	1455.250	1100.887
223.767	14.417	1454.255	1100.699
224.782	14.335	1453.800	1099.711
225.796	14.356	1452.913	1099.081
226.811	14.501	1451.929	1099.198
227.826	14.475	1450.784	1098.065
228.840	14.452	1450.207	1097.379
229.855	14.481	1449.111	1096.640
230.869	14.439	1448.243	1095.611
231.884	14.302	1447.361	1093.946
232.899	14.428	1446.265	1093.847
233.913	14.408	1444.921	1092.608
234.928	14.331	1444.111	1091.390
235.942	14.399	1442.589	1090.590
236.957	14.394	1441.181	1089.398
237.972	14.370	1440.168	1088.380
238.986	14.390	1438.964	1087.503
240.001	14.450	1438.205	1087.222
241.015	14.390	1437.409	1086.137
242.030	14.420	1436.310	1085.406
243.045	14.383	1435.114	1084.160
244.059	14.563	1434.237	1084.573
245.074	14.599	1433.452	1084.122
246.088	14.561	1432.342	1082.936
247.103	14.585	1431.858	1082.633
248.117	14.592	1431.230	1082.105
249.132	14.523	1430.267	1080.836
250.147	14.739	1429.350	1081.445
251.161	14.722	1428.845	1080.856
252.176	14.851	1428.043	1080.989
253.190	14.882	1427.392	1080.603
254.205	14.842	1426.389	1079.485
255.220	14.877	1425.992	1079.320
256.234	14.954	1424.706	1078.745
257.249	14.957	1423.722	1077.926
258.263	14.963	1422.930	1077.270
259.278	15.035	1421.868	1076.833
260.293	14.993	1421.087	1075.872
261.307	15.073	1419.885	1075.381
262.322	15.039	1419.377	1074.687
263.336	14.935	1419.578	1074.077
264.351	15.040	1417.789	1073.298
265.366	15.020	1417.241	1072.661
266.380	15.188	1415.822	1072.565
267.395	15.182	1414.502	1071.436
268.409	15.235	1413.885	1071.208
269.424	15.103	1412.903	1069.528
270.439	15.146	1411.810	1068.880
271.453	15.094	1410.996	1067.840
272.468	15.065	1410.414	1067.121
273.482	15.069	1409.353	1066.246
274.497	15.146	1408.462	1065.971
275.512	15.137	1407.774	1065.299
276.526	15.145	1407.151	1064.780
277.541	15.133	1406.129	1063.836
278.555	15.131	1405.294	1063.102
279.570	15.224	1404.040	1062.647
280.585	15.201	1403.517	1062.013
281.599	15.304	1402.237	1061.599
282.614	15.368	1401.336	1061.232
283.628	15.261	1400.354	1059.718
284.643	15.232	1399.268	1058.616
285.657	15.277	1398.140	1057.955
286.672	15.251	1397.087	1056.899
287.687	15.300	1396.370	1056.575
288.701	15.300	1395.434	1055.768
289.716	15.360	1395.064	1055.774
290.730	15.355	1394.202	1054.998
291.745	15.385	1392.680	1053.940
292.760	15.317	1392.029	1052.931
293.774	15.350	1390.812	1052.118
294.789	15.548	1389.529	1052.301
295.803	15.512	1389.014	1051.592
296.818	15.542	1387.726	1050.707
297.833	15.423	1387.428	1049.646
298.847	15.485	1386.333	1049.115
299.862	15.443	1385.388	1048.045
300.876	15.372	1384.415	1046.769
301.891	15.497	1383.550	1046.805
302.906	15.535	1382.908	1046.460
303.920	15.565	1382.024	1045.885
304.935	15.609	1381.771	1045.879
305.949	15.593	1380.702	1044.876
306.964	15.751	1379.481	1044.839
307.979	15.712	1379.087	1044.208
308.993	15.675	1377.829	1042.933
310.008	15.624	1377.030	1041.919
311.022	15.644	1376.178	1041.307
312.037	15.744	1374.934	1040.892
313.052	15.776	1373.771	1040.121
314.066	15.744	1373.113	1039.330
315.081	15.747	1372.011	1038.421
316.095	15.745	1370.991	1037.545
317.110	15.740	1369.609	1036.376
318.125	15.684	1369.029	1035.504
319.139	15.732	1368.096	1035.001
320.154	15.737	1367.248	1034.300
321.168	15.685	1365.920	1032.881
322.183	15.876	1365.094	1033.339
323.197	15.682	1364.361	1031.500
324.212	15.822	1363.328	1031.488
325.227	15.962	1362.952	1031.969
326.241	15.794	1361.835	1030.006
327.256	15.784	1360.746	1029.027
328.270	15.828	1360.329	1028.890
329.285	15.818	1359.022	1027.748
330.300	15.786	1358.430	1027.019
331.314	15.853	1357.435	1026.582
332.329	15.826	1356.492	1025.614
333.343	15.893	1355.632	1025.283
334.358	15.902	1354.362	1024.284
335.373	15.868	1353.887	1023.626
336.387	15.900	1353.740	1023.621
337.402	15.997	1352.782	1023.395
338.416	15.997	1352.192	1022.861
339.431	16.063	1351.162	1022.387
340.446	16.069	1350.509	1021.843
341.460	16.088	1349.275	1020.931
342.475	16.166	1348.367	1020.625
343.489	16.178	1347.433	1019.899
344.504	16.189	1346.554	1019.213
345.519	16.270	1345.580	1018.874
346.533	16.227	1344.715	1017.869
347.548	16.363	1343.204	1017.453
348.562	16.334	1343.030	1017.058
349.577	16.313	1342.256	1016.253
350.592	16.212	1341.856	1015.253
351.606	16.309	1340.611	1014.809
352.621	16.337	1339.065	1013.714
353.635	16.191	1338.371	1012.226
354.650	16.155	1337.860	1011.529
355.665	16.316	1336.205	1011.154
356.679	16.265	1335.539	1010.254
357.694	16.323	1334.080	1009.412
358.708	16.273	1333.535	1008.608
359.723	16.330	1332.201	1007.853
360.738	16.382	1331.327	1007.409
361.752	16.474	1329.993	1006.863
362.767	16.416	1329.015	1005.689
363.781	16.400	1328.299	1004.962
364.796	16.461	1327.454	1004.594
365.810	16.412	1326.781	1003.707
366.825	16.557	1325.979	1003.870
367.840	16.461	1325.458	1002.820
368.854	16.542	1324.738	1002.663
369.869	16.604	1324.321	1002.627
370.883	16.653	1323.193	1001.977
371.898	16.600	1322.442	1001.001
372.913	16.625	1322.274	1000.938
373.927	16.632	1320.666	999.674
374.942	16.605	1319.708	998.696
375.956	16.700	1319.217	998.797
376.971	16.684	1318.630	998.174
377.986	16.756	1317.471	997.628
379.000	16.715	1316.788	996.786
380.015	16.750	1316.214	996.467
381.029	16.756	1315.637	995.977
382.044	16.812	1314.833	995.611
383.059	16.884	1314.045	995.345
384.073	16.831	1313.410	994.467
385.088	16.850	1312.656	993.917
386.102	16.840	1312.276	993.486
387.117	16.781	1311.377	992.373
388.132	16.846	1310.298	991.848
389.146	16.856	1309.522	991.228
390.161	16.874	1308.403	990.402
391.175	16.910	1308.160	990.339
392.190	16.810	1307.612	989.253
393.205	16.826	1306.558	988.463
394.219	16.941	1305.362	988.140
395.234	16.969	1303.725	986.973
396.248	17.045	1302.740	986.583
397.263	16.945	1301.606	985.058
398.278	16.966	1300.186	984.020
399.292	16.969	1299.073	983.106
400.307	16.843	1298.454	981.820
401.321	17.008	1297.194	981.733
402.336	16.915	1296.503	980.587
403.350	16.833	1295.549	979.305
404.365	16.994	1294.127	979.074
405.380	16.889	1293.577	977.967
406.394	16.944	1292.788	977.600
407.409	17.059	1292.262	977.777
408.423	17.140	1291.191	977.345
409.438	17.141	1290.262	976.561
410.453	17.167	1289.756	976.242
411.467	17.202	1289.001	975.787
412.482	17.159	1288.991	975.446
413.496	17.228	1287.931	974.952
414.511	17.262	1287.121	974.448
415.526	17.337	1286.325	974.192
416.540	17.398	1285.779	974.040
417.555	17.351	1285.185	973.234
418.569	17.359	1284.331	972.547
419.584	17.377	1284.082	972.376
420.599	17.404	1282.935	971.572
421.613	95.352	1354.793	1472.300
422.628	93.307	1365.212	1472.384
