DTS Sentinel unit serial number:	SN413079Multiplexer serial number:	ORYXHardware model number:	OX4-SRSoftware version number:	ORYX F/W v4.00 Oryx Data Collector v3.7.2.0data status	okinstallation	princeton_trtdifferential loss correction	single-endedforward channel	channel 4reverse channel	N/Adate	2019/09/18time	09:17:34forward acquisition time	60.00reverse acquisition time	0.00gamma	496.2192k internal	0.2324k external	0.2324temperature offset calibration	0.9981default loss term (dB/km)	0.3790temperature slope calibration	1.0000multiplexer offset coefficient	1.0000multiplexer slope coefficient	1.0000fibre end	0.00T internal ref (°C)	25.81T ext. ref 1 (°C)	0.25T ext. ref 2 (°C)	23.20length (m)	temperature (°C)	Stokes	anti-Stokes-747.200	434.998	-0.100	0.219
-746.185	441.403	-0.067	0.149
-745.171	49.302	0.059	0.056
-744.156	-92.485	-0.215	-0.061
-743.142	112.145	0.122	0.149
-742.127	197.471	0.143	0.220
-741.112	12.659	-0.222	0.173
-740.098	117.840	-0.105	0.130
-739.083	18.873	0.275	0.223
-738.069	-70.684	0.161	0.061
-737.054	88.474	-0.049	0.055
-736.039	-55.978	-0.103	-0.046
-735.025	114.683	0.088	0.109
-734.010	10.073	-0.316	-0.242
-732.996	800.000	0.043	-0.133
-731.981	-112.229	-0.122	-0.025
-730.966	800.000	-0.049	-0.151
-729.952	-126.397	0.544	0.082
-728.937	705.160	0.119	-0.318
-727.923	123.630	-0.008	-0.010
-726.908	3.520	-0.064	0.047
-725.894	30.341	-0.142	0.122
-724.879	157.457	0.092	0.129
-723.864	-118.263	0.406	-0.073
-722.850	-200.000	-0.000	0.304
-721.835	800.000	-0.020	0.074
-720.821	454.678	0.046	-0.103
-719.806	-80.299	0.306	-0.103
-718.791	-26.684	-0.107	0.063
-717.777	-59.584	0.553	0.239
-716.762	315.007	0.121	-0.229
-715.748	160.028	0.093	0.131
-714.733	-15.121	0.059	0.038
-713.718	-13.442	-0.129	-0.084
-712.704	60.237	0.108	0.108
-711.689	-4.966	0.184	0.128
-710.675	691.695	-0.068	0.179
-709.660	-164.044	0.287	0.013
-708.645	-169.497	0.174	0.006
-707.631	-59.132	0.062	0.027
-706.616	800.000	0.092	0.301
-705.602	-70.080	0.008	-0.003
-704.587	-200.000	0.061	-0.271
-703.572	-113.601	0.143	0.028
-702.558	274.338	-0.156	-0.278
-701.543	302.239	-0.087	-0.162
-700.529	209.412	0.200	0.317
-699.514	-200.000	0.007	-0.033
-698.499	105.934	0.187	-0.223
-697.485	800.000	-0.052	0.165
-696.470	-200.000	-0.015	-0.217
-695.456	139.710	-0.092	0.122
-694.441	800.000	-0.050	0.150
-693.426	116.381	0.026	-0.032
-692.412	800.000	0.087	-0.296
-691.397	217.207	0.081	0.129
-690.383	800.000	-0.009	0.033
-689.368	-200.000	0.039	-0.235
-688.354	-1.991	0.182	0.129
-687.339	2.843	0.035	0.025
-686.324	-76.887	0.378	0.133
-685.310	-200.000	-0.049	-0.262
-684.295	180.673	0.102	0.151
-683.281	-15.634	0.094	0.060
-682.266	-78.921	0.450	0.154
-681.251	39.845	0.089	-0.080
-680.237	800.000	-0.045	0.161
-679.222	-200.000	0.034	-0.257
-678.208	246.495	0.169	-0.287
-677.193	49.189	0.148	-0.140
-676.178	231.896	0.049	-0.080
-675.164	-200.000	-0.066	-0.317
-674.149	57.714	-0.084	-0.082
-673.135	-200.000	0.020	-0.207
-672.120	-38.978	0.074	-0.039
-671.105	800.000	-0.174	0.490
-670.091	0.160	-0.104	0.074
-669.076	-79.481	0.379	0.129
-668.062	-133.977	0.248	-0.031
-667.047	306.867	0.140	0.263
-666.032	-157.757	-0.377	0.023
-665.018	272.394	-0.205	-0.364
-664.003	-65.151	-0.085	-0.034
-662.989	66.848	0.136	0.139
-661.974	-33.485	0.111	-0.062
-660.959	-101.982	-0.241	0.059
-659.945	-171.281	-0.091	-0.003
-658.930	7.059	0.191	-0.143
-657.916	-124.541	-0.224	0.035
-656.901	800.000	0.038	-0.142
-655.886	-200.000	-0.020	0.153
-654.872	-173.451	0.090	0.003
-653.857	161.849	0.044	-0.061
-652.843	-200.000	-0.021	-0.194
-651.828	71.337	-0.167	-0.175
-650.814	489.264	0.082	-0.187
-649.799	117.045	-0.201	-0.248
-648.784	93.404	0.150	-0.170
-647.770	367.896	-0.087	-0.177
-646.755	-128.008	-0.435	0.063
-645.741	-96.473	0.336	-0.089
-644.726	-14.611	0.097	0.063
-643.711	-101.741	0.288	-0.070
-642.697	34.447	-0.111	0.097
-641.682	-129.199	-0.334	0.047
-640.668	5.166	0.204	0.151
-639.653	84.012	-0.291	-0.320
-638.638	-152.116	0.515	-0.038
-637.624	-200.000	-0.030	-0.186
-636.609	554.728	-0.139	-0.336
-635.595	-200.000	-0.017	0.092
-634.580	6.089	0.077	0.057
-633.565	509.190	-0.113	-0.263
-632.551	800.000	0.081	-0.250
-631.536	69.034	0.190	0.196
-630.522	95.628	-0.246	0.282
-629.507	-200.000	-0.005	-0.132
-628.492	472.384	-0.096	-0.217
-627.478	-200.000	-0.001	0.130
-626.463	64.854	-0.101	0.103
-625.449	445.357	0.025	-0.055
-624.434	-125.482	0.165	0.025
-623.419	65.547	-0.062	-0.063
-622.405	520.567	-0.107	-0.252
-621.390	-200.000	-0.003	0.141
-620.376	395.893	-0.061	0.129
-619.361	26.605	-0.048	0.040
-618.346	-65.324	0.244	-0.099
-617.332	800.000	0.018	-0.060
-616.317	-124.131	-0.081	0.013
-615.303	625.845	-0.041	-0.104
-614.288	11.179	-0.259	-0.199
-613.273	49.979	0.332	-0.314
-612.259	593.859	0.164	0.407
-611.244	800.000	0.047	-0.156
-610.230	-95.083	-0.262	0.071
-609.215	-200.000	-0.023	0.163
-608.201	-69.257	0.138	0.053
-607.186	-150.469	-0.041	0.003
-606.171	117.413	0.034	0.042
-605.157	-72.512	0.196	-0.073
-604.142	6.430	0.115	0.085
-603.128	-63.416	0.105	-0.044
-602.113	476.612	0.173	-0.393
-601.098	264.770	-0.035	0.061
-600.084	141.515	0.197	0.261
-599.069	-39.349	0.178	-0.094
-598.055	38.704	-0.214	0.191
-597.040	-157.026	0.239	-0.015
-596.025	43.768	0.089	0.082
-595.011	27.871	-0.125	-0.105
-593.996	-134.433	-0.162	-0.020
-592.982	-34.558	0.245	-0.134
-591.967	371.500	0.074	0.151
-590.952	-95.032	-0.369	-0.100
-589.938	197.286	0.073	0.111
-588.923	19.147	0.077	-0.062
-587.909	-104.390	-0.199	0.046
-586.894	-11.571	-0.272	0.179
-585.879	363.521	0.159	-0.321
-584.865	-115.099	0.177	0.034
-583.850	-200.000	-0.055	0.271
-582.836	-89.797	-0.242	-0.071
-581.821	-47.509	-0.133	-0.065
-580.806	-84.571	-0.257	-0.081
-579.792	-64.153	-0.396	-0.162
-578.777	626.947	-0.074	-0.187
-577.763	-200.000	0.003	0.049
-576.748	86.044	-0.148	0.164
-575.733	-57.034	-0.178	0.079
-574.719	174.160	-0.202	-0.292
-573.704	198.673	-0.061	0.093
-572.690	-200.000	0.043	0.223
-571.675	254.245	0.141	0.242
-570.661	800.000	0.066	0.195
-569.646	800.000	0.056	0.182
-568.631	-132.296	-0.228	-0.030
-567.617	-200.000	0.009	-0.108
-566.602	278.850	0.184	-0.328
-565.588	800.000	0.002	0.007
-564.573	-200.000	0.041	0.203
-563.558	800.000	0.070	-0.258
-562.544	800.000	0.029	-0.099
-561.529	145.430	-0.269	-0.361
-560.515	79.065	0.136	-0.146
-559.500	4.933	0.043	0.031
-558.485	-112.275	0.409	0.082
-557.471	-169.117	-0.058	-0.002
-556.456	38.873	-0.274	-0.245
-555.442	109.888	0.107	-0.129
-554.427	-200.000	0.034	0.233
-553.412	-63.076	-0.467	-0.193
-552.398	36.865	0.152	0.134
-551.383	-138.649	0.106	-0.012
-550.369	211.465	0.076	-0.119
-549.354	178.582	0.073	-0.107
-548.339	430.434	-0.061	-0.131
-547.325	-90.648	-0.174	-0.050
-546.310	-13.597	0.120	-0.078
-545.296	-200.000	0.027	0.326
-544.281	325.838	0.079	0.152
-543.266	-108.149	-0.195	-0.042
-542.252	115.197	0.239	-0.292
-541.237	-200.000	-0.028	-0.213
-540.223	424.119	-0.064	0.138
-539.208	97.119	-0.131	-0.151
-538.193	88.986	0.070	0.078
-537.179	129.097	-0.107	0.137
-536.164	-200.000	-0.035	-0.178
-535.150	-131.080	0.102	-0.014
-534.135	800.000	0.133	-0.396
-533.121	232.561	0.102	-0.167
-532.106	-84.075	-0.357	-0.113
-531.091	102.524	-0.108	0.127
-530.077	24.740	0.191	-0.159
-529.062	303.057	-0.068	-0.126
-528.048	41.685	0.230	-0.209
-527.033	-25.889	0.110	0.065
-526.018	229.661	-0.084	-0.137
-525.004	44.970	-0.174	0.161
-523.989	81.015	-0.181	0.196
-522.975	-200.000	-0.026	0.167
-521.960	-200.000	-0.016	-0.217
-520.945	-83.355	0.225	-0.072
-519.931	-90.905	0.209	0.060
-518.916	800.000	-0.054	0.180
-517.902	103.179	0.235	-0.276
-516.887	207.174	0.162	-0.253
-515.872	800.000	0.038	0.158
-514.858	800.000	0.063	0.228
-513.843	251.774	-0.033	-0.056
-512.829	151.879	0.143	0.195
-511.814	-47.405	-0.285	0.139
-510.799	-42.538	0.162	-0.082
-509.785	-20.614	0.219	-0.135
-508.770	-53.625	0.199	-0.091
-507.756	800.000	-0.063	0.183
-506.741	159.333	-0.155	-0.215
-505.726	95.675	0.029	0.033
-504.712	-42.061	-0.102	0.052
-503.697	234.739	-0.132	0.218
-502.683	800.000	0.038	0.160
-501.668	474.127	0.053	0.118
-500.653	-200.000	-0.024	-0.259
-499.639	-200.000	0.028	-0.146
-498.624	-36.546	0.180	0.097
-497.610	156.544	-0.080	0.110
-496.595	4.956	-0.105	-0.077
-495.581	-185.841	0.083	0.001
-494.566	-109.813	0.130	-0.027
-493.551	-115.612	-0.157	0.029
-492.537	-155.015	-0.231	0.015
-491.522	230.986	0.113	-0.185
-490.508	154.606	-0.089	-0.122
-489.493	453.514	0.106	0.234
-488.478	-191.744	-0.309	-0.003
-487.464	77.392	-0.030	0.032
-486.449	-200.000	0.022	0.263
-485.435	-77.289	0.281	-0.098
-484.420	-200.000	-0.005	-0.142
-483.405	-147.021	-0.442	0.038
-482.391	298.833	-0.082	0.150
-481.376	121.344	0.288	-0.358
-480.362	-200.000	0.008	-0.424
-479.347	307.990	-0.066	-0.122
-478.332	-72.875	-0.281	-0.103
-477.318	40.329	-0.074	-0.067
-476.303	148.686	-0.067	0.090
-475.289	374.811	0.140	-0.285
-474.274	-50.808	-0.531	0.249
-473.259	-140.619	-0.285	-0.029
-472.245	-118.330	0.134	0.024
-471.230	21.194	-0.344	-0.279
-470.216	-58.733	-0.194	-0.084
-469.201	-200.000	-0.011	0.210
-468.186	-200.000	0.006	0.234
-467.172	26.079	-0.184	0.153
-466.157	-83.403	0.118	0.038
-465.143	-200.000	-0.042	-0.250
-464.128	-200.000	0.051	-0.553
-463.113	-200.000	-0.001	-0.105
-462.099	-57.938	0.129	-0.056
-461.084	21.239	0.156	-0.126
-460.070	-47.612	-0.268	0.130
-459.055	65.185	-0.218	-0.220
-458.040	-58.159	0.264	-0.115
-457.026	697.649	0.083	0.219
-456.011	364.525	-0.015	0.031
-454.997	677.753	-0.050	0.129
-453.982	236.742	-0.112	0.185
-452.968	-20.901	0.148	0.090
-451.953	594.832	-0.152	-0.376
-450.938	-127.537	-0.191	-0.028
-449.924	-108.148	-0.130	0.028
-448.909	137.387	-0.112	0.146
-447.895	-52.570	-0.150	0.069
-446.880	-200.000	0.056	0.307
-445.865	-25.727	0.060	-0.036
-444.851	-160.191	-0.191	-0.010
-443.836	258.680	-0.243	-0.418
-442.822	224.682	-0.136	0.220
-441.807	-17.532	0.242	0.152
-440.792	90.275	0.041	0.046
-439.778	-33.457	-0.237	-0.131
-438.763	-131.893	0.053	0.007
-437.749	64.575	-0.045	0.045
-436.734	-42.913	-0.294	0.149
-435.719	-200.000	-0.004	-0.057
-434.705	561.595	-0.180	0.433
-433.690	226.195	0.061	0.098
-432.676	77.699	0.125	-0.133
-431.661	167.760	-0.146	-0.207
-430.646	126.462	-0.088	0.111
-429.632	-54.120	0.475	-0.215
-428.617	800.000	-0.087	0.315
-427.603	114.596	0.051	-0.062
-426.588	800.000	0.086	-0.345
-425.573	103.759	-0.054	0.064
-424.559	40.749	0.156	0.140
-423.544	-200.000	-0.002	0.428
-422.530	-3.630	0.344	0.238
-421.515	800.000	-0.082	0.308
-420.500	800.000	0.123	0.343
-419.486	212.746	0.189	-0.298
-418.471	30.413	0.184	0.157
-417.457	-152.243	-0.225	0.016
-416.442	414.508	-0.126	-0.268
-415.428	217.904	-0.094	-0.149
-414.413	-110.031	0.265	0.055
-413.398	-63.452	-0.013	-0.005
-412.384	55.606	-0.084	-0.081
-411.369	-145.730	0.304	0.027
-410.355	-89.329	-0.109	0.032
-409.340	-132.614	0.293	-0.037
-408.325	-50.770	0.239	0.112
-407.311	800.000	-0.079	0.263
-406.296	-200.000	-0.044	0.391
-405.282	-90.494	0.236	-0.068
-404.267	21.509	-0.134	0.108
-403.252	-125.153	-0.132	0.020
-402.238	13.365	0.163	-0.126
-401.223	137.580	0.172	0.224
-400.209	512.332	-0.091	-0.210
-399.194	-190.771	0.357	0.004
-398.179	-76.181	-0.178	-0.062
-397.165	234.921	0.129	-0.213
-396.150	159.403	0.190	0.264
-395.136	-200.000	0.020	-0.142
-394.121	-200.000	0.107	0.504
-393.106	-65.567	-0.206	0.082
-392.092	221.112	0.108	0.173
-391.077	-15.808	0.166	0.105
-390.063	-200.000	-0.000	-0.055
-389.048	-79.307	-0.276	0.093
-388.033	-23.881	-0.183	-0.109
-387.019	406.418	0.088	0.185
-386.004	-200.000	-0.002	0.027
-384.990	-105.335	-0.035	0.008
-383.975	-78.278	-0.285	0.097
-382.960	37.996	0.110	0.098
-381.946	-200.000	-0.002	-0.067
-380.931	261.157	0.024	-0.042
-379.917	-73.478	0.212	0.077
-378.902	-152.153	0.221	-0.016
-377.888	-13.132	-0.340	-0.220
-376.873	-93.578	0.027	-0.007
-375.858	-200.000	-0.021	-0.184
-374.844	514.159	-0.103	-0.240
-373.829	-200.000	-0.033	-0.288
-372.815	-162.924	0.081	0.004
-371.800	800.000	0.056	0.221
-370.785	143.575	0.141	-0.187
-369.771	238.614	-0.240	-0.396
-368.756	18.983	0.097	-0.077
-367.742	164.537	0.124	-0.174
-366.727	-200.000	0.024	0.322
-365.712	65.485	0.254	-0.256
-364.698	145.786	-0.065	-0.087
-363.683	67.931	-0.192	-0.195
-362.669	-183.070	-0.281	0.005
-361.654	800.000	-0.050	0.140
-360.639	-78.566	-0.152	-0.052
-359.625	50.468	0.064	-0.060
-358.610	-200.000	-0.018	-0.191
-357.596	-16.699	-0.053	-0.033
-356.581	-65.504	-0.496	-0.198
-355.566	125.475	-0.080	0.100
-354.552	-94.465	-0.128	-0.035
-353.537	65.121	-0.104	-0.104
-352.523	308.100	-0.054	-0.100
-351.508	-31.898	0.255	0.142
-350.493	800.000	-0.081	-0.317
-349.479	50.428	-0.104	0.097
-348.464	100.480	0.226	-0.261
-347.450	13.146	0.273	-0.210
-346.435	-200.000	0.002	-0.245
-345.420	-123.644	-0.126	-0.020
-344.406	800.000	0.025	0.072
-343.391	314.705	-0.091	0.171
-342.377	-200.000	-0.009	-0.048
-341.362	-90.378	0.281	0.081
-340.348	204.717	-0.116	0.179
-339.333	555.616	-0.048	0.115
-338.318	-117.083	-0.162	0.029
-337.304	90.604	0.109	0.121
-336.289	33.890	0.165	-0.143
-335.275	-66.480	-0.269	0.106
-334.260	-104.431	-0.441	0.101
-333.245	-15.021	0.137	-0.087
-332.231	-8.518	-0.060	0.040
-331.216	-94.772	0.189	-0.051
-330.202	-200.000	0.014	-0.073
-329.187	-26.100	0.270	-0.157
-328.172	-49.526	-0.239	0.113
-327.158	94.188	0.089	0.100
-326.143	65.981	-0.036	-0.037
-325.129	121.839	0.024	-0.030
-324.114	48.377	-0.091	-0.085
-323.099	-143.643	-0.108	-0.010
-322.085	-114.301	-0.117	-0.022
-321.070	32.628	-0.259	-0.223
-320.056	-200.000	-0.009	-0.149
-319.041	-66.696	-0.316	0.124
-318.026	239.562	0.087	-0.144
-317.012	-65.826	0.139	-0.055
-315.997	42.115	0.121	-0.109
-314.983	116.191	0.195	0.237
-313.968	-24.979	0.233	-0.137
-312.953	134.662	-0.021	0.027
-311.939	-65.255	-0.034	0.014
-310.924	-21.182	-0.078	0.048
-309.910	91.744	0.083	0.093
-308.895	-98.247	-0.052	0.013
-307.880	123.444	0.219	-0.272
-306.866	-47.775	0.255	0.123
-305.851	800.000	-0.049	-0.182
-304.837	800.000	0.044	0.168
-303.822	-22.781	-0.094	0.057
-302.807	-82.552	-0.173	0.056
-301.793	800.000	-0.051	0.152
-300.778	390.224	-0.115	0.236
-299.764	-33.802	0.163	0.089
-298.749	220.619	0.193	0.306
-297.735	-105.657	-0.058	-0.013
-296.720	358.953	-0.172	0.341
-295.705	-200.000	0.013	0.189
-294.691	316.423	-0.117	0.220
-293.676	94.039	0.171	0.193
-292.662	-200.000	0.133	-0.000
-291.647	-200.000	0.007	-0.193
-290.632	800.000	0.037	0.151
-289.618	-200.000	-0.015	0.418
-288.603	-145.900	-0.202	-0.018
-287.589	800.000	-0.031	0.103
-286.574	-26.244	-0.157	-0.091
-285.559	59.296	-0.084	0.082
-284.545	-23.702	0.071	-0.042
-283.530	283.417	-0.124	0.221
-282.516	-200.000	0.053	0.252
-281.501	-123.738	-0.124	-0.020
-280.486	-26.789	-0.241	-0.140
-279.472	-140.990	-0.212	0.022
-278.457	-136.761	-0.094	-0.011
-277.443	109.975	-0.093	-0.111
-276.428	228.993	0.121	-0.196
-275.413	-200.000	0.000	-0.239
-274.399	88.938	-0.063	0.070
-273.384	41.972	-0.244	-0.219
-272.370	-66.119	0.275	0.109
-271.355	-14.771	-0.160	-0.102
-270.340	24.199	0.314	0.257
-269.326	-109.002	-0.049	0.010
-268.311	-43.328	0.226	0.113
-267.297	-98.481	-0.191	-0.048
-266.282	87.891	0.148	-0.163
-265.267	-110.202	0.184	-0.038
-264.253	762.411	-0.125	-0.337
-263.238	798.118	-0.068	0.187
-262.224	21.078	0.205	0.164
-261.209	-26.492	0.132	0.077
-260.195	249.373	-0.139	0.233
-259.180	-24.058	0.366	-0.217
-258.165	59.695	0.115	-0.112
-257.151	-41.449	-0.292	0.149
-256.136	33.920	-0.021	0.018
-255.122	-19.382	0.220	0.135
-254.107	-200.000	-0.029	0.180
-253.092	387.177	0.180	0.368
-252.078	645.104	0.083	-0.209
-251.063	-105.747	0.108	0.024
-250.049	19.251	-0.282	-0.224
-249.034	119.174	0.087	-0.106
-248.019	171.262	-0.076	-0.108
-247.005	41.663	0.024	-0.021
-245.990	-53.851	0.100	0.045
-244.976	59.057	0.151	0.147
-243.961	-200.000	0.021	0.319
-242.946	-6.125	-0.011	-0.007
-241.932	-7.405	0.158	-0.106
-240.917	-160.741	0.134	-0.007
-239.903	86.940	-0.104	-0.113
-238.888	195.296	0.189	0.284
-237.873	-52.240	-0.113	-0.052
-236.859	-200.000	0.098	0.425
-235.844	-138.364	0.044	-0.005
-234.830	517.358	0.115	-0.267
-233.815	168.191	-0.349	0.492
-232.800	800.000	0.038	0.147
-231.786	-200.000	0.007	0.195
-230.771	-135.788	0.278	0.033
-229.757	103.576	0.233	0.270
-228.742	371.543	0.104	-0.208
-227.727	609.753	0.176	-0.435
-226.713	47.851	-0.204	-0.189
-225.698	187.371	-0.063	0.093
-224.684	123.226	0.123	-0.152
-223.669	-200.000	-0.017	-0.099
-222.655	39.396	-0.121	-0.107
-221.640	-150.422	0.079	-0.006
-220.625	486.371	0.068	0.152
-219.611	-76.219	-0.313	0.109
-218.596	198.185	0.185	-0.279
-217.582	87.403	-0.074	0.081
-216.567	-116.965	0.251	-0.045
-215.552	-125.891	-0.149	-0.022
-214.538	-200.000	0.002	-0.201
-213.523	-88.326	0.181	0.054
-212.509	0.743	-0.175	0.124
-211.494	-14.933	-0.100	-0.063
-210.479	-81.473	0.079	0.026
-209.465	-4.737	-0.013	-0.009
-208.450	-32.139	-0.116	0.064
-207.436	-52.887	0.185	0.084
-206.421	-80.728	0.266	0.087
-205.406	-194.667	0.280	-0.002
-204.392	299.153	0.130	0.237
-203.377	-200.000	-0.035	-0.354
-202.363	319.129	-0.026	0.049
-201.348	-200.000	0.019	-0.130
-200.333	-35.596	-0.233	-0.125
-199.319	-59.829	0.274	0.116
-198.304	45.516	0.234	0.214
-197.290	800.000	-0.093	-0.335
-196.275	-63.021	-0.200	0.082
-195.260	94.207	0.042	-0.047
-194.246	52.780	0.153	-0.145
-193.231	404.525	-0.205	0.427
-192.217	1.430	0.131	0.093
-191.202	-7.478	0.032	-0.021
-190.187	-200.000	-0.020	0.115
-189.173	-200.000	-0.046	-0.252
-188.158	-200.000	0.030	0.159
-187.144	222.884	-0.223	0.355
-186.129	-200.000	-0.009	-0.065
-185.114	-26.991	0.079	0.045
-184.100	-28.444	0.173	-0.098
-183.085	-200.000	-0.070	-0.311
-182.071	-8.539	0.102	0.068
-181.056	800.000	0.042	-0.136
-180.042	42.089	-0.095	-0.085
-179.027	800.000	0.014	0.058
-178.012	-51.966	0.170	0.078
-176.998	-98.282	0.098	0.025
-175.983	-114.206	-0.284	-0.054
-174.969	800.000	-0.051	0.157
-173.954	40.760	0.245	0.218
-172.939	-152.118	-0.177	-0.013
-171.925	-200.000	-0.063	0.467
-170.910	291.156	0.061	-0.109
-169.896	523.861	0.107	-0.249
-168.881	536.385	0.188	0.439
-167.866	800.000	0.086	0.295
-166.852	-90.956	-0.180	-0.051
-165.837	300.054	0.041	0.074
-164.823	-200.000	-0.041	0.293
-163.808	287.259	-0.109	0.194
-162.793	-135.874	0.088	0.010
-161.779	-200.000	0.048	0.250
-160.764	-169.877	-0.186	0.007
-159.750	253.587	0.271	0.456
-158.735	-200.000	-0.076	-0.420
-157.720	58.202	0.105	-0.102
-156.706	800.000	0.084	0.247
-155.691	-200.000	0.015	-0.159
-154.677	114.804	-0.168	-0.202
-153.662	-140.807	0.170	0.017
-152.647	-103.298	0.208	0.049
-151.633	306.197	-0.102	-0.188
-150.618	120.114	0.058	-0.071
-149.604	-200.000	0.004	0.187
-148.589	-56.347	0.300	-0.132
-147.574	-200.000	-0.022	0.139
-146.560	16.709	-0.424	0.330
-145.545	-66.782	0.256	0.100
-144.531	800.000	-0.050	-0.168
-143.516	-17.017	0.254	-0.158
-142.502	-66.663	0.362	-0.141
-141.487	-200.000	0.028	-0.215
-140.472	-0.849	-0.362	-0.253
-139.458	383.143	-0.170	0.345
-138.443	-27.792	0.223	-0.127
-137.429	-93.217	-0.206	0.056
-136.414	82.967	0.019	-0.020
-135.399	567.515	-0.094	-0.226
-134.385	-142.130	0.372	0.036
-133.370	174.598	0.089	0.127
-132.356	-8.539	0.061	-0.041
-131.341	599.888	-0.071	0.174
-130.326	661.995	0.057	0.144
-129.312	631.946	0.045	-0.112
-128.297	19.405	-0.135	0.107
-127.283	80.956	0.127	0.135
-126.268	-82.690	-0.255	-0.081
-125.253	800.000	-0.094	0.335
-124.239	-200.000	0.014	-0.406
-123.224	-80.035	0.102	0.034
-122.210	29.575	-0.140	0.117
-121.195	-67.605	0.292	-0.113
-120.180	-200.000	-0.021	0.100
-119.166	-87.392	0.117	-0.035
-118.151	-200.000	0.016	-0.436
-117.137	491.224	0.132	-0.298
-116.122	149.945	0.095	0.127
-115.107	-200.000	-0.025	-0.222
-114.093	12.259	0.203	0.154
-113.078	-200.000	0.074	0.356
-112.064	-105.012	0.099	0.022
-111.049	800.000	0.062	0.239
-110.034	-127.394	0.284	-0.041
-109.020	478.165	-0.034	0.075
-108.005	800.000	0.019	0.052
-106.991	530.673	-0.150	0.349
-105.976	62.225	-0.337	0.331
-104.962	64.565	0.131	0.130
-103.947	460.699	-0.092	0.202
-102.932	-68.154	0.213	0.082
-101.918	-27.945	0.043	-0.025
-100.903	349.551	0.137	0.266
-99.889	190.147	-0.192	0.284
-98.874	800.000	-0.021	-0.073
-97.859	800.000	0.059	0.199
-96.845	-79.642	-0.414	-0.137
-95.830	37.136	0.256	0.223
-94.816	800.000	0.114	-0.361
-93.801	-152.276	0.410	-0.029
-92.786	4.774	0.227	0.164
-91.772	800.000	0.072	0.228
-90.757	478.538	0.060	0.133
-89.743	86.117	0.255	-0.277
-88.728	-200.000	0.034	0.204
-87.713	-133.706	0.190	0.023
-86.699	203.754	-0.074	-0.113
-85.684	-104.873	0.411	-0.093
-84.670	549.654	0.079	-0.186
-83.655	-89.484	-0.249	0.072
-82.640	-144.755	0.227	0.021
-81.626	-110.756	0.041	-0.008
-80.611	-56.217	0.232	0.101
-79.597	-81.167	0.150	-0.049
-78.582	800.000	0.025	-0.099
-77.567	800.000	-0.054	0.232
-76.553	-82.535	-0.221	-0.070
-75.538	-111.564	0.143	0.029
-74.524	-13.855	-0.215	0.137
-73.509	-200.000	-0.002	0.018
-72.494	-158.655	-0.282	0.016
-71.480	800.000	0.049	0.153
-70.465	37.457	0.119	0.104
-69.451	186.232	-0.263	-0.384
-68.436	22.295	0.164	-0.132
-67.422	-200.000	0.005	-0.062
-66.407	385.418	0.158	-0.321
-65.392	-45.158	-0.181	0.088
-64.378	-137.154	0.134	-0.015
-63.363	-147.707	0.135	0.011
-62.349	-29.034	-0.222	0.125
-61.334	37.560	-1.282	-1.118
-60.319	29.156	0.652	0.543
-59.305	511.427	-0.497	-1.137
-58.290	249.240	0.666	1.109
-57.276	244.451	0.830	1.370
-56.261	-200.000	115.348	615.490
-55.246	425.557	1532.865	3243.573
-54.232	139.955	2727.367	3531.899
-53.217	90.030	2353.969	2584.256
-52.203	32.240	2097.433	1777.941
-51.188	27.516	2011.885	1662.374
-50.173	26.197	1994.379	1635.907
-49.159	42.587	2054.411	1836.503
-48.144	41.789	2069.485	1842.555
-47.130	28.119	2028.558	1681.429
-46.115	25.895	2017.947	1652.205
-45.100	25.783	2014.268	1648.099
-44.086	25.751	2012.341	1646.166
-43.071	25.698	2009.721	1643.472
-42.057	25.617	2007.548	1640.898
-41.042	25.680	2005.711	1639.897
-40.027	25.685	2003.852	1638.359
-39.013	25.716	2001.710	1636.824
-37.998	25.737	2000.149	1635.676
-36.984	25.662	1998.489	1633.573
-35.969	25.647	1996.726	1631.929
-34.954	25.640	1994.703	1630.154
-33.940	25.753	1993.521	1630.144
-32.925	25.824	1991.749	1629.272
-31.911	25.794	1990.496	1627.910
-30.896	25.770	1988.374	1625.891
-29.881	25.852	1986.686	1625.186
-28.867	25.867	1985.259	1624.094
-27.852	25.909	1983.277	1622.781
-26.838	25.865	1981.311	1620.719
-25.823	25.879	1979.293	1619.128
-24.809	25.831	1978.223	1617.759
-23.794	25.764	1977.032	1616.119
-22.779	25.790	1974.659	1614.349
-21.765	25.920	1972.633	1613.786
-20.750	25.821	1971.276	1611.729
-19.736	25.900	1969.568	1610.976
-18.721	25.927	1967.756	1609.673
-17.706	25.797	1966.299	1607.252
-16.692	25.818	1964.464	1605.880
-15.677	25.802	1963.255	1604.681
-14.663	25.893	1961.402	1603.916
-13.648	25.829	1961.048	1602.992
-12.633	25.863	1959.064	1601.608
-11.619	25.833	1958.156	1600.533
-10.604	25.902	1956.281	1599.557
-9.590	25.822	1955.396	1598.054
-8.575	25.839	1953.558	1596.641
-7.560	25.860	1952.464	1595.871
-6.546	25.911	1951.094	1595.137
-5.531	25.814	1950.183	1593.467
-4.517	25.806	1948.976	1592.355
-3.502	25.841	1947.546	1591.426
-2.487	25.824	1946.819	1590.623
-1.473	25.861	1945.227	1589.587
-0.458	25.943	1940.766	1586.598
0.556	24.432	1922.176	1563.489
1.571	20.760	1905.944	1518.191
2.586	17.554	1931.074	1509.696
3.600	16.879	1968.135	1532.431
4.615	16.495	1961.866	1523.955
5.629	12.705	1858.137	1410.843
6.644	5.006	1739.168	1258.449
7.659	0.699	1703.943	1198.744
8.673	0.310	1701.431	1193.790
9.688	0.274	1699.937	1192.350
10.702	0.225	1698.489	1190.838
11.717	0.171	1694.604	1187.585
12.731	0.600	1693.613	1190.165
13.746	6.215	1706.112	1243.325
14.761	13.529	1721.047	1312.239
15.775	16.597	1725.104	1339.544
16.790	16.675	1724.411	1339.504
17.804	15.871	1721.598	1330.844
18.819	14.890	1717.967	1320.181
19.834	14.378	1715.071	1313.798
20.848	14.068	1714.157	1310.542
21.863	13.834	1712.101	1307.013
22.877	13.495	1710.613	1303.094
23.892	13.392	1709.235	1301.117
24.907	13.223	1707.972	1298.713
25.921	13.127	1707.387	1297.401
26.936	13.168	1705.742	1296.358
27.950	13.197	1705.558	1296.333
28.965	13.292	1704.810	1296.394
29.980	13.294	1703.778	1295.509
30.994	13.396	1702.752	1295.414
32.009	13.380	1702.184	1294.743
33.023	13.431	1701.190	1294.264
34.038	13.414	1700.212	1293.279
35.053	13.374	1699.326	1292.175
36.067	13.334	1698.201	1290.890
37.082	13.305	1697.538	1290.049
38.096	13.444	1695.827	1289.717
39.111	13.381	1695.401	1288.788
40.126	13.428	1694.759	1288.557
41.140	13.333	1693.796	1286.968
42.155	13.327	1692.006	1285.450
43.169	13.268	1690.750	1283.921
44.184	13.205	1690.145	1282.858
45.199	13.265	1688.272	1281.790
46.213	13.131	1687.494	1280.045
47.228	13.184	1686.045	1279.244
48.242	13.182	1684.861	1278.219
49.257	13.249	1683.872	1277.872
50.271	13.318	1682.273	1277.080
51.286	13.308	1680.788	1275.760
52.301	13.278	1679.461	1274.408
53.315	13.288	1678.447	1273.605
54.330	13.246	1676.719	1271.860
55.344	13.169	1675.770	1270.435
56.359	13.235	1673.745	1269.294
57.374	13.185	1672.705	1268.006
58.388	13.182	1671.432	1266.904
59.403	13.206	1670.298	1266.120
60.417	13.114	1668.558	1263.988
61.432	13.156	1667.162	1263.136
62.447	13.165	1666.103	1262.288
63.461	13.039	1665.169	1260.509
64.476	13.057	1664.317	1259.891
65.490	13.118	1662.228	1258.666
66.505	13.080	1661.110	1257.412
67.520	13.096	1660.227	1256.755
68.534	13.218	1658.950	1256.610
69.549	13.145	1658.204	1255.374
70.563	13.193	1656.961	1254.690
71.578	13.117	1656.136	1253.377
72.593	13.069	1654.870	1251.945
73.607	13.079	1653.678	1251.002
74.622	13.007	1652.412	1249.393
75.636	13.012	1651.123	1248.344
76.651	13.021	1650.527	1247.848
77.666	12.988	1649.697	1246.867
78.680	13.027	1648.780	1246.358
79.695	13.050	1647.539	1245.483
80.709	13.057	1646.600	1244.714
81.724	13.168	1645.454	1244.576
82.739	13.099	1645.055	1243.638
83.753	13.171	1643.711	1243.056
84.768	13.169	1642.708	1242.177
85.782	13.218	1641.799	1241.746
86.797	13.311	1640.944	1241.686
87.812	13.281	1640.033	1240.664
88.826	13.284	1638.546	1239.452
89.841	13.221	1637.672	1238.211
90.855	13.151	1636.694	1236.834
91.870	13.278	1635.313	1236.631
92.884	13.246	1634.692	1235.816
93.899	13.249	1633.458	1234.794
94.914	13.257	1632.227	1233.811
95.928	13.342	1630.878	1233.321
96.943	13.353	1629.576	1232.308
97.957	13.278	1628.493	1230.819
98.972	13.269	1626.761	1229.332
99.987	13.232	1625.499	1227.997
101.001	13.370	1623.273	1227.231
102.016	13.262	1621.926	1225.303
103.030	13.265	1620.315	1224.004
104.045	13.322	1619.465	1223.670
105.060	13.299	1617.840	1222.168
106.074	13.318	1616.666	1221.309
107.089	13.176	1614.659	1218.641
108.103	13.184	1613.274	1217.546
109.118	13.118	1612.201	1216.143
110.133	13.175	1610.656	1215.287
111.147	13.135	1609.341	1213.895
112.162	13.228	1607.720	1213.250
113.176	13.169	1606.729	1211.962
114.191	13.165	1605.137	1210.624
115.206	13.271	1603.548	1210.095
116.220	13.189	1602.452	1208.557
117.235	13.212	1600.807	1207.376
118.249	13.193	1600.082	1206.588
119.264	13.236	1598.586	1205.663
120.279	13.224	1596.969	1204.253
121.293	13.268	1594.939	1202.937
122.308	13.186	1593.527	1201.164
123.322	13.201	1591.829	1199.892
124.337	13.233	1590.467	1198.986
125.352	13.195	1589.593	1197.953
126.366	13.155	1588.003	1196.354
127.381	13.145	1586.919	1195.361
128.395	13.104	1586.201	1194.413
129.410	13.174	1584.397	1193.456
130.424	13.154	1583.458	1192.498
131.439	13.130	1582.013	1191.132
132.454	13.253	1580.453	1190.741
133.468	13.290	1579.195	1189.956
134.483	13.259	1577.825	1188.590
135.497	13.250	1576.297	1187.271
136.512	13.274	1575.057	1186.406
137.527	13.253	1573.168	1184.727
138.541	13.281	1572.198	1184.095
139.556	13.276	1570.336	1182.549
140.570	13.334	1569.051	1181.890
141.585	13.306	1568.181	1180.930
142.600	13.454	1566.426	1180.559
143.614	13.315	1565.843	1179.025
144.629	13.340	1564.500	1178.092
145.643	13.476	1562.760	1177.643
146.658	13.531	1560.904	1176.532
147.673	13.473	1559.813	1175.189
148.687	13.467	1558.259	1173.872
149.702	13.355	1556.894	1171.951
150.716	13.442	1554.873	1170.942
151.731	13.385	1553.679	1169.531
152.746	13.360	1552.418	1168.306
153.760	13.358	1550.664	1166.865
154.775	13.352	1549.752	1166.037
155.789	13.508	1547.933	1165.663
156.804	13.457	1547.192	1164.642
157.819	13.426	1546.084	1163.484
158.833	13.420	1544.822	1162.391
159.848	13.562	1543.392	1162.210
160.862	13.645	1541.998	1161.637
161.877	13.672	1540.574	1160.652
162.892	13.624	1539.241	1159.207
163.906	13.498	1538.474	1157.646
164.921	13.588	1536.887	1156.983
165.935	13.459	1535.873	1155.213
166.950	13.557	1535.281	1155.353
167.964	13.545	1534.271	1154.407
168.979	13.561	1533.282	1153.672
169.994	13.560	1531.737	1152.401
171.008	13.607	1530.929	1152.012
172.023	13.571	1529.588	1150.657
173.037	13.638	1528.613	1150.283
174.052	13.691	1527.361	1149.610
175.067	13.713	1526.625	1149.101
176.081	13.650	1525.464	1147.695
177.096	13.643	1524.179	1146.579
178.110	13.627	1523.018	1145.487
179.125	13.589	1522.162	1144.481
180.140	13.620	1520.738	1143.526
181.154	13.648	1519.807	1142.919
182.169	13.644	1518.576	1141.862
183.183	13.702	1517.339	1141.228
184.198	13.743	1516.221	1140.567
185.213	13.840	1514.848	1140.103
186.227	13.772	1513.652	1138.634
187.242	13.847	1512.685	1138.319
188.256	13.869	1511.072	1137.157
189.271	13.908	1510.605	1136.975
190.286	13.909	1509.535	1136.071
191.300	13.880	1508.510	1135.000
192.315	13.825	1507.106	1133.473
193.329	13.733	1505.755	1131.729
194.344	13.761	1504.259	1130.695
195.359	13.679	1503.998	1129.835
196.373	13.784	1502.885	1129.617
197.388	13.893	1501.349	1129.104
198.402	13.955	1500.264	1128.610
199.417	13.966	1499.138	1127.734
200.432	14.009	1498.222	1127.238
201.446	14.031	1497.309	1126.604
202.461	13.984	1496.377	1125.480
203.475	14.019	1495.262	1124.783
204.490	14.109	1493.837	1124.220
205.504	14.099	1492.618	1123.137
206.519	14.025	1491.521	1121.708
207.534	14.037	1490.404	1120.854
208.548	14.023	1489.134	1119.703
209.563	14.000	1488.001	1118.599
210.577	14.051	1487.268	1118.288
211.592	14.009	1486.387	1117.245
212.607	14.030	1485.290	1116.465
213.621	14.158	1484.618	1116.720
214.636	14.116	1483.924	1115.814
215.650	14.205	1482.375	1115.151
216.665	14.217	1481.906	1114.779
217.680	14.229	1480.956	1114.045
218.694	14.241	1480.489	1113.676
219.709	14.277	1479.487	1113.063
220.723	14.350	1478.229	1112.510
221.738	14.280	1476.846	1110.900
222.753	14.269	1476.208	1110.247
223.767	14.218	1476.053	1109.696
224.782	14.282	1474.542	1108.890
225.796	14.254	1474.083	1108.259
226.811	14.389	1472.641	1107.972
227.826	14.415	1471.735	1107.362
228.840	14.386	1471.149	1106.633
229.855	14.354	1470.288	1105.676
230.869	14.391	1468.912	1104.786
231.884	14.362	1467.810	1103.669
232.899	14.367	1466.614	1102.704
233.913	14.381	1465.192	1101.631
234.928	14.358	1464.111	1100.569
235.942	14.243	1463.263	1099.073
236.957	14.286	1462.320	1098.556
237.972	14.315	1460.907	1097.588
238.986	14.399	1459.615	1097.070
240.001	14.374	1458.655	1096.088
241.015	14.307	1458.054	1095.099
242.030	14.415	1456.258	1094.363
243.045	14.418	1455.753	1093.906
244.059	14.491	1454.697	1093.496
245.074	14.468	1453.760	1092.546
246.088	14.526	1453.397	1092.554
247.103	14.530	1452.131	1091.529
248.117	14.570	1451.807	1091.452
249.132	14.581	1450.944	1090.782
250.147	14.597	1450.141	1090.182
251.161	14.677	1449.113	1089.836
252.176	14.825	1448.600	1090.322
253.190	14.842	1447.839	1089.759
254.205	14.848	1446.751	1088.884
255.220	14.778	1445.972	1087.750
256.234	14.894	1444.894	1087.593
257.249	14.871	1444.391	1086.973
258.263	14.914	1443.279	1086.319
259.278	14.880	1442.503	1085.416
260.293	14.869	1441.583	1084.554
261.307	14.890	1441.034	1084.184
262.322	14.988	1440.455	1084.287
263.336	15.048	1438.674	1083.240
264.351	15.037	1438.324	1082.806
265.366	14.929	1437.417	1081.334
266.380	15.064	1436.010	1081.049
267.395	15.068	1435.538	1080.622
268.409	15.082	1434.598	1079.914
269.424	15.033	1433.658	1078.790
270.439	15.072	1432.334	1077.950
271.453	15.110	1431.380	1077.385
272.468	15.160	1430.170	1076.694
273.482	15.088	1430.015	1076.024
274.497	15.082	1429.056	1075.169
275.512	15.087	1427.857	1074.202
276.526	15.049	1427.758	1073.787
277.541	15.112	1426.360	1073.048
278.555	15.098	1425.479	1072.201
279.570	15.100	1424.420	1071.319
280.585	15.101	1424.042	1070.951
281.599	15.212	1423.043	1070.810
282.614	15.281	1421.603	1070.072
283.628	15.260	1420.080	1068.698
284.643	15.258	1419.200	1067.929
285.657	15.211	1418.294	1066.855
286.672	15.268	1417.472	1066.501
287.687	15.297	1416.295	1065.706
288.701	15.268	1415.621	1064.919
289.716	15.297	1414.730	1064.344
290.730	15.340	1414.213	1064.131
291.745	15.387	1412.970	1063.401
292.760	15.394	1412.046	1062.657
293.774	15.246	1411.254	1061.029
294.789	15.370	1409.947	1060.735
295.803	15.390	1409.222	1060.223
296.818	15.410	1408.374	1059.615
297.833	15.461	1406.786	1058.650
298.847	15.407	1406.017	1057.639
299.862	15.384	1405.428	1056.957
300.876	15.441	1404.457	1056.492
301.891	15.429	1403.339	1055.478
302.906	15.439	1402.671	1054.948
303.920	15.509	1401.904	1054.717
304.935	15.597	1401.033	1054.520
305.949	15.628	1400.060	1053.886
306.964	15.625	1399.282	1053.190
307.979	15.718	1398.333	1052.967
308.993	15.685	1396.911	1051.594
310.008	15.647	1396.374	1050.862
311.022	15.687	1395.399	1050.286
312.037	15.667	1394.392	1049.308
313.052	15.784	1393.461	1049.248
314.066	15.695	1392.524	1047.894
315.081	15.680	1391.651	1047.049
316.095	15.681	1390.622	1046.186
317.110	15.637	1389.760	1045.172
318.125	15.638	1388.745	1044.325
319.139	15.866	1387.004	1044.338
320.154	15.722	1386.206	1042.753
321.168	15.715	1385.290	1041.925
322.183	15.688	1384.246	1040.879
323.197	15.747	1383.474	1040.575
324.212	15.737	1383.041	1040.096
325.227	15.816	1381.791	1039.554
326.241	15.861	1380.545	1038.801
327.256	15.838	1379.932	1038.103
328.270	15.833	1379.206	1037.436
329.285	15.825	1378.078	1036.445
330.300	15.846	1376.785	1035.513
331.314	15.827	1376.239	1034.893
332.329	15.813	1375.459	1034.125
333.343	15.795	1374.336	1033.083
334.358	15.797	1373.842	1032.630
335.373	15.952	1372.920	1032.797
336.387	15.879	1372.010	1031.573
337.402	15.903	1371.397	1031.167
338.416	15.950	1370.459	1030.661
339.431	16.010	1370.038	1030.617
340.446	16.018	1369.292	1030.013
341.460	15.948	1368.435	1028.851
342.475	16.060	1367.084	1028.430
343.489	16.054	1366.128	1027.581
344.504	16.099	1365.372	1027.196
345.519	16.205	1364.299	1026.943
346.533	16.290	1363.346	1026.654
347.548	16.308	1362.275	1025.864
348.562	16.237	1361.925	1025.080
349.577	16.294	1360.689	1024.401
350.592	16.300	1360.245	1024.015
351.606	16.223	1359.563	1022.944
352.621	16.215	1358.135	1021.731
353.635	16.146	1357.340	1020.624
354.650	16.126	1356.445	1019.742
355.665	16.237	1355.118	1019.321
356.679	16.212	1353.655	1017.982
357.694	16.333	1352.586	1017.816
358.708	16.309	1351.445	1016.724
359.723	16.325	1350.840	1016.276
360.738	16.323	1349.977	1015.523
361.752	16.299	1348.971	1014.534
362.767	16.219	1347.675	1012.986
363.781	16.254	1347.385	1012.891
364.796	16.349	1346.125	1012.425
365.810	16.405	1345.595	1012.272
366.825	16.483	1344.428	1011.773
367.840	16.495	1343.716	1011.215
368.854	16.458	1343.229	1010.537
369.869	16.543	1342.607	1010.487
370.883	16.541	1342.389	1010.224
371.898	16.533	1341.328	1009.287
372.913	16.513	1340.249	1008.267
373.927	16.482	1339.655	1007.549
374.942	16.555	1338.862	1007.298
375.956	16.622	1337.849	1006.844
376.971	16.665	1336.754	1006.186
377.986	16.639	1336.424	1005.692
379.000	16.554	1335.355	1004.297
380.015	16.682	1334.250	1004.138
381.029	16.832	1333.515	1004.383
382.044	16.695	1333.028	1003.114
383.059	16.822	1331.802	1002.855
384.073	16.752	1331.684	1002.266
385.088	16.843	1331.282	1002.408
386.102	16.770	1330.662	1001.425
387.117	16.794	1329.872	1000.882
388.132	16.813	1329.274	1000.457
389.146	16.828	1328.049	999.534
390.161	16.817	1327.085	998.657
391.175	16.802	1326.175	997.795
392.190	16.870	1325.191	997.366
393.205	16.794	1324.635	996.414
394.219	16.932	1323.798	996.506
395.234	16.897	1322.226	995.029
396.248	16.909	1320.940	994.045
397.263	16.943	1319.532	993.096
398.278	16.910	1318.547	992.072
399.292	16.885	1317.275	990.881
400.307	16.883	1316.603	990.273
401.321	16.827	1315.245	988.838
402.336	16.869	1314.377	988.345
403.350	16.890	1313.462	987.693
404.365	16.952	1312.301	987.094
405.380	16.941	1311.265	986.164
406.394	16.952	1310.719	985.730
407.409	17.008	1309.905	985.355
408.423	17.025	1309.447	985.023
409.438	17.122	1308.280	984.616
410.453	17.173	1307.441	984.198
411.467	17.051	1307.297	983.294
412.482	17.191	1306.430	983.365
413.496	17.178	1305.724	982.668
414.511	17.220	1305.019	982.296
415.526	17.290	1304.100	981.922
416.540	17.195	1303.765	981.034
417.555	17.259	1303.115	980.828
418.569	17.280	1302.481	980.386
419.584	17.371	1301.540	980.112
420.599	17.356	1301.050	979.574
421.613	97.882	1360.833	1484.259
422.628	96.175	1369.482	1484.354
