DTS Sentinel unit serial number:	SN413079Multiplexer serial number:	ORYXHardware model number:	OX4-SRSoftware version number:	ORYX F/W v4.00 Oryx Data Collector v3.7.2.0data status	okinstallation	princeton_trtdifferential loss correction	single-endedforward channel	channel 4reverse channel	N/Adate	2019/09/11time	15:07:10forward acquisition time	60.00reverse acquisition time	0.00gamma	496.2192k internal	0.2277k external	0.2277temperature offset calibration	1.0013default loss term (dB/km)	0.3790temperature slope calibration	1.0000multiplexer offset coefficient	1.0000multiplexer slope coefficient	1.0000fibre end	0.00T internal ref (°C)	42.94T ext. ref 1 (°C)	0.95T ext. ref 2 (°C)	37.97length (m)	temperature (°C)	Stokes	anti-Stokes-747.200	212.091	0.039	0.063
-746.185	597.549	-0.057	0.146
-745.171	76.428	0.109	0.119
-744.156	-119.856	-0.236	-0.042
-743.142	-140.510	0.072	0.008
-742.127	-154.585	-0.135	-0.009
-741.112	-20.626	-0.149	0.094
-740.098	-200.000	0.071	0.358
-739.083	25.225	0.125	0.107
-738.069	-130.242	0.209	0.029
-737.054	-110.264	-0.049	0.010
-736.039	-104.825	-0.305	0.072
-735.025	800.000	-0.125	-0.357
-734.010	-200.000	0.257	-0.001
-732.996	137.516	0.145	-0.195
-731.981	704.408	0.066	0.180
-730.966	527.139	-0.083	-0.202
-729.952	-56.154	-0.230	-0.105
-728.937	377.986	-0.041	0.086
-727.923	-130.087	-0.232	0.033
-726.908	-45.878	-0.388	-0.197
-725.894	-132.709	0.146	-0.019
-724.879	-109.947	-0.277	0.060
-723.864	-152.306	0.106	0.008
-722.850	-86.457	0.180	-0.057
-721.835	40.248	-0.097	-0.090
-720.821	614.583	0.052	0.134
-719.806	-29.786	0.058	-0.034
-718.791	119.538	-0.092	-0.118
-717.777	-122.255	0.167	-0.028
-716.762	-49.269	0.209	-0.102
-715.748	318.990	0.029	-0.056
-714.733	95.728	-0.119	0.139
-713.718	367.147	-0.048	-0.099
-712.704	26.981	0.108	-0.093
-711.689	107.405	0.285	0.348
-710.675	-200.000	0.006	-0.028
-709.660	-111.636	-0.253	-0.053
-708.645	181.614	0.131	0.198
-707.631	-151.909	0.085	0.006
-706.616	147.920	0.258	0.358
-705.602	62.046	-0.355	0.364
-704.587	-149.100	-0.233	0.019
-703.572	-109.462	0.198	0.043
-702.558	281.989	-0.099	0.182
-701.543	-64.940	0.246	-0.102
-700.529	-98.936	0.192	-0.050
-699.514	-0.795	0.014	0.010
-698.499	-2.861	0.275	-0.198
-697.485	-113.920	-0.282	-0.056
-696.470	-54.540	0.180	0.084
-695.456	98.207	0.057	-0.068
-694.441	-200.000	0.021	-0.128
-693.426	-9.399	0.156	-0.107
-692.412	352.503	-0.052	-0.106
-691.397	-66.127	-0.229	0.094
-690.383	800.000	0.020	0.064
-689.368	-40.974	-0.411	0.219
-688.354	-55.678	-0.058	-0.027
-687.339	-94.530	0.126	-0.035
-686.324	800.000	0.063	0.210
-685.310	265.748	-0.033	0.060
-684.295	-103.079	-0.375	-0.091
-683.281	50.123	-0.174	-0.168
-682.266	-154.479	0.044	-0.003
-681.251	45.144	-0.054	0.051
-680.237	800.000	-0.012	0.036
-679.222	-130.273	0.352	-0.049
-678.208	800.000	-0.088	-0.310
-677.193	-136.420	-0.573	-0.069
-676.178	-80.795	-0.043	-0.015
-675.164	313.977	-0.142	0.275
-674.149	-56.204	-0.149	-0.068
-673.135	196.999	-0.102	0.160
-672.120	-62.529	-0.135	0.058
-671.105	-200.000	-0.013	-0.213
-670.091	27.584	-0.105	-0.090
-669.076	-127.295	-0.109	0.016
-668.062	21.141	-0.020	0.016
-667.047	-75.937	-0.169	0.061
-666.032	253.627	0.114	-0.200
-665.018	249.530	-0.174	-0.304
-664.003	-168.516	-0.161	0.006
-662.989	-77.746	0.257	-0.091
-661.974	-197.195	0.051	-0.000
-660.959	-51.862	-0.093	-0.045
-659.945	132.867	-0.023	-0.031
-658.930	-95.435	0.439	-0.121
-657.916	535.513	0.035	0.086
-656.901	-44.108	-0.367	-0.189
-655.886	-20.872	-0.151	-0.095
-654.872	-143.138	-0.230	-0.023
-653.857	4.615	0.277	0.209
-652.843	-14.031	-0.136	-0.090
-651.828	-73.991	-0.330	0.123
-650.814	-30.208	-0.352	0.206
-649.799	-80.328	-0.237	-0.081
-648.784	-84.830	0.181	-0.058
-647.770	219.938	-0.103	0.170
-646.755	-16.902	-0.160	-0.104
-645.741	-88.532	0.494	0.151
-644.726	304.296	-0.096	-0.183
-643.711	-160.607	0.151	0.008
-642.697	-67.463	-0.373	0.150
-641.682	136.952	-0.209	-0.280
-640.668	800.000	0.028	-0.103
-639.653	10.444	-0.097	-0.076
-638.638	58.916	-0.031	0.031
-637.624	-80.232	0.406	-0.139
-636.609	-186.576	-0.262	-0.004
-635.595	120.260	-0.095	-0.122
-634.580	800.000	-0.060	-0.180
-633.565	-36.969	0.214	0.118
-632.551	800.000	0.119	-0.339
-631.536	800.000	-0.058	-0.189
-630.522	-200.000	-0.002	-0.083
-629.507	225.113	-0.035	-0.057
-628.492	-15.642	-0.268	0.175
-627.478	142.467	0.127	0.173
-626.463	-200.000	0.017	-0.178
-625.449	260.611	-0.055	0.097
-624.434	103.113	-0.274	-0.329
-623.419	-57.204	0.260	-0.118
-622.405	-142.337	0.507	-0.051
-621.390	42.794	-0.116	-0.109
-620.376	-51.727	-0.006	0.003
-619.361	-86.741	0.035	0.011
-618.346	-200.000	-0.016	0.332
-617.332	225.469	-0.115	0.191
-616.317	108.047	0.188	-0.230
-615.303	44.928	0.083	0.078
-614.288	101.946	-0.212	0.253
-613.273	-87.426	-0.197	-0.061
-612.259	-52.886	0.250	-0.118
-611.244	-200.000	-0.024	-0.123
-610.230	69.493	-0.101	0.107
-609.215	586.205	-0.135	0.340
-608.201	381.553	-0.181	-0.381
-607.186	350.283	-0.080	0.162
-606.171	-200.000	0.040	-0.261
-605.157	-44.716	-0.261	0.133
-604.142	800.000	-0.007	-0.027
-603.128	-97.892	-0.109	-0.029
-602.113	-81.349	0.084	-0.029
-601.098	-131.947	-0.178	-0.024
-600.084	486.764	0.098	-0.230
-599.069	-77.214	0.375	-0.134
-598.055	-200.000	0.077	-0.385
-597.040	68.411	0.175	-0.183
-596.025	800.000	0.061	-0.173
-595.011	285.337	0.112	-0.206
-593.996	-42.825	0.321	-0.167
-592.982	-133.647	0.274	-0.035
-591.967	-130.309	-0.128	0.018
-590.952	-200.000	-0.048	-0.312
-589.938	-106.237	-0.113	0.026
-588.923	226.027	-0.041	0.067
-587.909	-200.000	0.025	-0.196
-586.894	584.399	0.083	0.208
-585.879	-200.000	-0.015	0.161
-584.865	351.549	0.161	-0.326
-583.850	-129.957	-0.396	0.056
-582.836	-200.000	-0.012	-0.095
-581.821	-58.650	-0.377	0.167
-580.806	-3.043	-0.177	0.126
-579.792	54.543	0.144	-0.142
-578.777	-70.136	-0.290	-0.113
-577.763	-129.630	-0.079	0.011
-576.748	-102.092	-0.259	-0.064
-575.733	12.498	0.349	-0.275
-574.719	741.197	-0.051	0.141
-573.704	-170.510	-0.381	-0.014
-572.690	41.148	-0.057	0.053
-571.675	800.000	-0.032	0.121
-570.661	-68.612	-0.251	0.099
-569.646	73.658	-0.105	-0.113
-568.631	800.000	-0.053	-0.227
-567.617	-49.454	0.305	0.149
-566.602	-89.871	0.145	0.043
-565.588	-129.159	-0.371	0.053
-564.573	-91.012	-0.139	0.041
-563.558	107.551	-0.062	-0.075
-562.544	176.453	-0.084	-0.125
-561.529	-24.000	-0.057	-0.035
-560.515	-200.000	-0.026	0.422
-559.500	-47.708	-0.304	0.151
-558.485	-159.202	-0.271	-0.016
-557.471	546.352	-0.142	0.349
-556.456	-200.000	-0.046	0.320
-555.442	-200.000	0.017	-0.141
-554.427	-200.000	-0.002	0.192
-553.412	3.071	0.258	0.191
-552.398	-200.000	-0.237	0.001
-551.383	136.609	0.196	0.261
-550.369	-1.099	0.093	-0.067
-549.354	-163.381	0.051	-0.002
-548.339	-3.096	-0.066	0.047
-547.325	800.000	0.050	-0.177
-546.310	800.000	-0.074	-0.222
-545.296	-100.210	-0.227	-0.058
-544.281	80.281	-0.177	0.195
-543.266	4.764	-0.113	-0.085
-542.252	800.000	-0.085	0.263
-541.237	-34.409	0.147	-0.082
-540.223	19.916	0.073	0.061
-539.208	-111.465	0.320	0.067
-538.193	328.532	-0.159	-0.312
-537.179	80.433	-0.101	0.112
-536.164	800.000	0.079	-0.321
-535.150	-200.000	0.002	0.105
-534.135	332.812	-0.162	0.319
-533.121	-104.023	-0.142	-0.034
-532.106	103.681	0.114	0.136
-531.091	-185.262	-0.297	-0.005
-530.077	-19.073	-0.362	0.230
-529.062	332.247	0.113	0.224
-528.048	170.836	0.056	-0.082
-527.033	333.518	0.058	-0.115
-526.018	170.021	0.120	-0.175
-525.004	-179.743	-0.243	0.005
-523.989	800.000	-0.031	-0.134
-522.975	765.629	0.040	-0.110
-521.960	54.357	0.154	-0.151
-520.945	65.684	-0.183	0.189
-519.931	-88.569	0.386	0.117
-518.916	-44.638	0.238	-0.122
-517.902	10.480	0.108	0.084
-516.887	-137.527	-0.147	-0.017
-515.872	-30.742	0.089	0.051
-514.858	309.859	0.142	0.271
-513.843	800.000	0.032	0.127
-512.829	800.000	0.051	0.177
-511.814	800.000	-0.039	0.110
-510.799	375.474	0.079	-0.164
-509.785	54.945	-0.053	0.053
-508.770	417.564	0.025	0.053
-507.756	-92.878	0.306	0.087
-506.741	-177.777	-0.314	0.008
-505.726	35.006	0.248	-0.222
-504.712	9.612	-0.192	0.149
-503.697	-68.870	-0.294	-0.116
-502.683	2.318	0.101	0.075
-501.668	22.199	0.149	-0.124
-500.653	800.000	0.050	-0.150
-499.639	800.000	0.035	-0.143
-498.624	800.000	0.108	0.378
-497.610	-200.000	-0.076	-0.404
-496.595	-188.163	0.191	-0.002
-495.581	-200.000	-0.028	-0.124
-494.566	-48.418	0.364	-0.179
-493.551	-200.000	0.005	-0.238
-492.537	387.690	-0.115	-0.242
-491.522	318.695	-0.050	-0.096
-490.508	-200.000	-0.002	-0.430
-489.493	-105.672	0.022	0.005
-488.478	-68.302	-0.201	0.080
-487.464	800.000	-0.040	0.115
-486.449	-200.000	0.026	-0.232
-485.435	116.287	-0.093	-0.117
-484.420	800.000	-0.079	-0.285
-483.405	-76.007	0.078	0.028
-482.391	327.137	-0.131	0.255
-481.376	-84.013	-0.211	-0.068
-480.362	-137.113	0.086	0.010
-479.347	178.706	0.090	-0.134
-478.332	67.980	0.151	-0.158
-477.318	-85.654	-0.093	-0.029
-476.303	-62.519	-0.176	0.075
-475.289	-8.218	-0.178	0.122
-474.274	167.580	-0.199	-0.288
-473.259	-200.000	-0.017	0.370
-472.245	-131.445	0.396	-0.053
-471.230	-102.745	-0.108	0.026
-470.216	72.899	0.191	0.204
-469.201	-55.621	0.335	0.153
-468.186	61.500	-0.318	0.323
-467.172	-72.909	0.097	0.036
-466.157	40.445	0.162	-0.148
-465.143	-86.158	0.373	-0.117
-464.128	95.677	-0.232	0.270
-463.113	-200.000	0.021	-0.125
-462.099	147.870	0.172	0.237
-461.084	395.465	-0.129	-0.274
-460.070	426.091	-0.072	0.158
-459.055	11.196	-0.229	-0.178
-458.040	122.900	-0.066	-0.084
-457.026	411.981	-0.170	-0.369
-456.011	-95.016	-0.265	0.073
-454.997	-200.000	-0.015	-0.096
-453.982	-71.289	-0.267	-0.102
-452.968	-50.410	0.159	0.076
-451.953	-200.000	0.005	0.258
-450.938	419.589	0.052	0.113
-449.924	-82.308	-0.213	-0.070
-448.909	100.614	-0.067	-0.079
-447.895	-86.284	0.033	-0.010
-446.880	-35.598	0.299	-0.165
-445.865	24.677	0.021	-0.017
-444.851	-55.492	-0.304	-0.139
-443.836	197.542	-0.184	-0.286
-442.822	245.328	-0.089	-0.153
-441.807	-142.010	0.041	-0.004
-440.792	-65.583	-0.225	0.092
-439.778	-171.080	0.173	0.006
-438.763	122.521	0.067	0.085
-437.749	-100.091	-0.262	0.067
-436.734	15.806	0.185	0.148
-435.719	323.583	0.125	0.243
-434.705	800.000	0.138	-0.440
-433.690	-147.348	0.180	0.016
-432.676	183.505	-0.079	-0.119
-431.661	800.000	-0.004	0.012
-430.646	-113.279	-0.289	-0.058
-429.632	-152.998	-0.253	-0.018
-428.617	-89.643	-0.155	0.046
-427.603	-93.524	0.187	-0.053
-426.588	220.964	-0.068	0.111
-425.573	-56.217	-0.062	-0.028
-424.559	-200.000	0.047	-0.260
-423.544	76.754	-0.078	0.084
-422.530	-37.364	-0.175	-0.095
-421.515	186.537	-0.127	0.192
-420.500	130.451	0.115	-0.150
-419.486	-109.743	-0.268	-0.057
-418.471	-200.000	0.017	0.219
-417.457	-143.153	-0.067	0.007
-416.442	-200.000	-0.002	0.178
-415.428	237.596	0.141	-0.237
-414.413	-200.000	0.016	-0.116
-413.398	402.488	0.122	-0.260
-412.384	-88.619	0.153	-0.046
-411.369	800.000	-0.035	-0.131
-410.355	-94.780	0.227	0.063
-409.340	104.877	0.165	0.198
-408.325	800.000	0.127	-0.438
-407.311	-200.000	-0.065	0.296
-406.296	-200.000	-0.089	-0.434
-405.282	111.441	-0.062	-0.076
-404.267	-128.443	0.300	0.043
-403.252	-34.046	0.313	0.175
-402.238	614.368	0.026	-0.067
-401.223	-147.968	0.260	0.022
-400.209	-135.589	0.188	-0.023
-399.194	168.464	0.160	-0.232
-398.179	-200.000	0.002	0.034
-397.165	87.123	0.173	0.195
-396.150	-104.458	-0.310	-0.073
-395.136	147.340	-0.050	-0.069
-394.121	60.734	0.130	0.131
-393.106	-25.508	0.130	-0.078
-392.092	-200.000	-0.004	-0.063
-391.077	99.172	-0.158	-0.186
-390.063	-146.470	0.122	0.011
-389.048	7.434	0.066	0.050
-388.033	-140.486	0.363	-0.038
-387.019	-77.756	0.136	-0.048
-386.004	-200.000	0.045	0.227
-384.990	-200.000	-0.011	0.094
-383.975	277.149	0.166	0.300
-382.960	-78.803	-0.077	0.027
-381.946	-200.000	0.027	-0.174
-380.931	800.000	0.038	0.125
-379.917	11.373	-0.101	0.078
-378.902	380.404	0.043	0.089
-377.888	-105.177	-0.137	-0.032
-376.873	800.000	0.106	-0.444
-375.858	64.552	0.304	-0.312
-374.844	-89.479	0.182	0.054
-373.829	-200.000	-0.064	0.372
-372.815	37.737	0.164	0.148
-371.800	20.982	-0.094	0.077
-370.785	-200.000	0.004	0.087
-369.771	-200.000	-0.006	-0.043
-368.756	-200.000	-0.080	0.400
-367.742	-146.481	0.122	0.011
-366.727	-200.000	0.020	-0.224
-365.712	-60.266	0.287	-0.124
-364.698	-24.916	0.319	0.192
-363.683	-114.383	-0.102	0.020
-362.669	536.084	-0.030	-0.073
-361.654	-100.008	0.241	0.061
-360.639	173.025	0.230	-0.337
-359.625	-200.000	0.008	0.072
-358.610	146.172	0.146	-0.199
-357.596	800.000	0.128	0.421
-356.581	-200.000	-0.015	0.113
-355.566	-200.000	0.013	0.117
-354.552	-29.579	-0.088	-0.051
-353.537	411.132	-0.143	0.308
-352.523	47.848	0.059	-0.056
-351.508	-200.000	0.019	-0.101
-350.493	800.000	-0.095	-0.299
-349.479	-19.158	0.211	0.133
-348.464	190.698	-0.169	-0.257
-347.450	-91.849	0.129	-0.037
-346.435	-35.970	0.210	-0.115
-345.420	-165.551	-0.063	0.003
-344.406	554.212	-0.095	0.233
-343.391	800.000	0.037	-0.157
-342.377	577.183	-0.176	0.436
-341.362	-0.590	-0.273	-0.196
-340.348	-148.408	0.363	-0.030
-339.333	-94.689	-0.076	0.021
-338.318	-26.964	0.083	-0.049
-337.304	-94.657	-0.198	-0.055
-336.289	-34.745	0.244	0.135
-335.275	364.403	-0.079	-0.162
-334.260	-200.000	-0.008	-0.261
-333.245	-33.270	0.301	0.169
-332.231	-200.000	0.006	0.167
-331.216	460.925	-0.051	-0.115
-330.202	164.159	0.206	0.294
-329.187	236.185	-0.163	-0.273
-328.172	-200.000	0.000	-0.379
-327.158	68.708	0.206	-0.214
-326.143	-66.958	-0.049	0.020
-325.129	322.580	-0.104	-0.201
-324.114	800.000	-0.039	-0.110
-323.099	-111.564	0.094	-0.019
-322.085	-200.000	0.011	-0.261
-321.070	-200.000	0.015	0.298
-320.056	61.463	-0.139	-0.140
-319.041	-200.000	0.015	0.145
-318.026	124.863	-0.085	0.108
-317.012	327.240	-0.144	-0.279
-315.997	-42.113	-0.134	-0.069
-314.983	16.946	0.271	-0.217
-313.968	-29.736	0.194	0.112
-312.953	-68.631	-0.111	0.043
-311.939	-46.353	-0.306	0.152
-310.924	-200.000	0.003	-0.164
-309.910	-200.000	0.032	-0.238
-308.895	-164.476	0.212	-0.010
-307.880	-127.053	0.086	-0.013
-306.866	-200.000	-0.006	0.137
-305.851	44.609	-0.144	0.134
-304.837	800.000	-0.101	0.368
-303.822	-104.270	0.113	-0.026
-302.807	-14.562	-0.171	0.111
-301.793	220.415	0.231	-0.375
-300.778	310.874	-0.124	0.235
-299.764	-20.651	0.279	-0.173
-298.749	139.729	0.138	0.184
-297.735	-47.051	0.156	0.077
-296.720	56.412	-0.161	0.159
-295.705	-142.033	0.317	-0.032
-294.691	800.000	0.097	0.298
-293.676	-89.276	0.115	0.034
-292.662	-44.206	0.393	-0.199
-291.647	-85.177	-0.383	-0.121
-290.632	-122.298	-0.211	-0.035
-289.618	800.000	0.122	0.448
-288.603	-200.000	-0.036	0.372
-287.589	-104.222	-0.278	-0.065
-286.574	-76.707	0.224	0.080
-285.559	174.798	0.100	0.146
-284.545	-90.269	0.165	0.048
-283.530	-42.903	0.314	-0.162
-282.516	-98.801	-0.174	0.045
-281.501	69.477	-0.300	0.313
-280.486	146.151	0.137	0.186
-279.472	-63.484	-0.362	0.151
-278.457	800.000	-0.053	0.215
-277.443	-120.007	0.217	-0.038
-276.428	264.702	-0.203	-0.357
-275.413	433.328	0.114	-0.251
-274.399	-124.973	-0.277	0.043
-273.384	-200.000	0.026	-0.393
-272.370	96.993	0.094	-0.109
-271.355	541.295	-0.055	-0.131
-270.340	324.846	0.116	0.224
-269.326	605.210	-0.018	0.046
-268.311	108.579	-0.291	-0.351
-267.297	-149.684	0.278	-0.022
-266.282	-118.023	-0.333	-0.060
-265.267	-200.000	0.036	0.291
-264.253	349.298	-0.124	0.247
-263.238	-24.554	0.132	-0.079
-262.224	585.333	0.115	0.285
-261.209	-157.362	-0.191	-0.012
-260.195	148.108	-0.225	-0.307
-259.180	690.732	0.034	0.091
-258.165	103.127	-0.100	0.119
-257.151	-200.000	-0.035	0.214
-256.136	-60.464	-0.254	0.109
-255.122	-200.000	0.005	-0.278
-254.107	-79.015	-0.343	0.118
-253.092	-99.726	-0.320	-0.081
-252.078	84.657	-0.185	0.204
-251.063	-0.981	0.249	0.178
-250.049	-63.865	0.237	0.098
-249.034	-183.637	0.066	-0.001
-248.019	128.748	-0.073	0.095
-247.005	-22.058	-0.509	0.313
-245.990	-53.809	0.138	-0.064
-244.976	-200.000	-0.021	0.391
-243.961	59.891	0.167	0.166
-242.946	20.126	-0.084	-0.068
-241.932	-102.175	-0.090	-0.022
-240.917	-84.968	-0.150	-0.048
-239.903	-200.000	-0.015	0.196
-238.888	732.990	-0.152	-0.410
-237.873	73.843	0.158	-0.167
-236.859	-200.000	0.009	0.101
-235.844	253.078	-0.191	-0.328
-234.830	162.184	0.046	-0.065
-233.815	93.800	0.233	-0.267
-232.800	-200.000	0.111	0.605
-231.786	-32.948	0.133	0.075
-230.771	80.516	0.206	-0.224
-229.757	-20.655	-0.290	0.180
-228.742	42.959	-0.096	-0.089
-227.727	183.139	0.051	0.076
-226.713	-133.127	0.054	0.007
-225.698	-81.380	0.195	-0.065
-224.684	-114.851	-0.072	0.014
-223.669	564.345	0.145	0.354
-222.655	84.311	0.209	0.231
-221.640	150.058	0.238	-0.325
-220.625	-76.520	-0.035	-0.012
-219.611	164.940	-0.028	-0.039
-218.596	-37.695	-0.057	0.031
-217.582	-65.447	-0.281	-0.114
-216.567	47.794	0.213	-0.201
-215.552	-200.000	0.025	0.134
-214.538	-125.098	-0.514	0.080
-213.523	-47.459	-0.169	0.083
-212.509	451.674	0.186	0.415
-211.494	293.229	-0.023	-0.042
-210.479	-18.256	-0.221	-0.140
-209.465	80.300	0.132	0.143
-208.450	35.322	0.114	-0.101
-207.436	-200.000	0.053	-0.297
-206.421	800.000	-0.037	0.156
-205.406	-85.796	-0.232	0.073
-204.392	691.966	-0.016	-0.043
-203.377	-29.975	-0.098	0.056
-202.363	-55.066	0.078	-0.035
-201.348	-26.447	0.218	-0.129
-200.333	55.978	0.148	0.145
-199.319	-200.000	-0.211	-0.000
-198.304	268.980	-0.101	0.179
-197.290	273.970	0.109	0.194
-196.275	800.000	-0.096	0.283
-195.260	-6.498	0.158	0.108
-194.246	409.019	-0.135	-0.288
-193.231	-25.205	0.109	-0.065
-192.217	-103.379	-0.145	0.034
-191.202	73.093	0.125	0.132
-190.187	14.874	0.254	0.201
-189.173	-42.629	-0.210	-0.108
-188.158	-200.000	0.027	0.438
-187.144	-200.000	0.058	0.321
-186.129	40.123	-0.062	0.056
-185.114	472.442	-0.019	-0.043
-184.100	258.568	-0.146	0.253
-183.085	69.560	-0.089	0.092
-182.071	800.000	-0.044	-0.165
-181.056	-200.000	-0.018	-0.360
-180.042	-118.482	-0.096	-0.017
-179.027	53.111	-0.184	-0.178
-178.012	800.000	0.083	0.306
-176.998	-180.764	-0.124	-0.003
-175.983	-79.478	0.387	0.132
-174.969	800.000	0.088	-0.337
-173.954	140.036	-0.091	0.121
-172.939	478.087	0.138	0.314
-171.925	800.000	-0.046	-0.175
-170.910	69.334	-0.034	-0.035
-169.896	-71.551	0.309	-0.116
-168.881	-50.274	0.243	0.116
-167.866	761.933	-0.015	0.042
-166.852	-27.957	-0.146	-0.085
-165.837	800.000	0.082	0.266
-164.823	406.270	0.194	0.412
-163.808	-101.151	0.219	0.054
-162.793	800.000	-0.103	0.367
-161.779	800.000	0.081	0.243
-160.764	-70.410	0.103	0.039
-159.750	-26.290	-0.159	-0.094
-158.735	-170.424	0.268	0.009
-157.720	251.397	-0.160	-0.274
-156.706	-61.499	-0.245	0.104
-155.691	220.877	0.189	-0.305
-154.677	208.213	0.095	0.150
-153.662	-200.000	-0.008	0.096
-152.647	616.114	0.067	-0.169
-151.633	69.584	-0.123	0.128
-150.618	-110.067	0.368	0.077
-149.604	73.814	-0.107	0.112
-148.589	302.724	0.092	0.171
-147.574	45.258	-0.249	-0.231
-146.560	-86.820	-0.447	0.138
-145.545	-96.764	-0.173	-0.046
-144.531	-123.831	0.308	0.049
-143.516	-20.044	0.265	-0.165
-142.502	64.634	-0.133	-0.135
-141.487	-13.206	0.072	-0.047
-140.472	24.309	-0.093	0.078
-139.458	-102.803	-0.463	0.111
-138.443	-44.420	0.147	0.074
-137.429	-14.865	0.210	0.136
-136.414	43.039	0.208	0.191
-135.399	-129.308	-0.123	0.017
-134.385	524.356	0.128	0.302
-133.370	-200.000	0.038	0.250
-132.356	116.438	-0.134	0.165
-131.341	800.000	0.052	-0.208
-130.326	556.622	0.095	-0.229
-129.312	-113.065	-0.269	-0.053
-128.297	-66.231	-0.262	0.105
-127.283	-91.681	0.352	0.101
-126.268	-187.151	-0.272	-0.004
-125.253	-51.479	0.243	0.114
-124.239	-200.000	-0.024	0.475
-123.224	800.000	-0.082	-0.302
-122.210	-164.480	-0.319	0.015
-121.195	-90.724	0.258	-0.075
-120.180	-61.874	0.073	-0.031
-119.166	-200.000	-0.036	-0.180
-118.151	130.467	0.044	0.057
-117.137	644.174	-0.101	-0.260
-116.122	95.796	0.027	-0.031
-115.107	-63.170	0.157	-0.065
-114.093	-117.026	0.414	-0.076
-113.078	-104.579	-0.108	-0.025
-112.064	-0.098	0.224	-0.161
-111.049	-200.000	0.026	-0.375
-110.034	-143.927	0.163	-0.015
-109.020	-200.000	-0.024	0.278
-108.005	36.445	0.210	0.186
-106.991	-200.000	0.034	-0.245
-105.976	7.592	-0.200	-0.151
-104.962	800.000	-0.034	0.133
-103.947	800.000	-0.084	0.310
-102.932	-148.398	0.096	0.008
-101.918	684.910	-0.097	0.253
-100.903	18.682	-0.205	0.165
-99.889	-115.103	0.118	0.022
-98.874	560.937	0.108	0.263
-97.859	52.217	0.074	-0.071
-96.845	-200.000	-0.024	-0.195
-95.830	-88.126	-0.182	0.055
-94.816	-119.485	-0.225	-0.039
-93.801	445.882	-0.164	-0.362
-92.786	-110.075	-0.276	-0.058
-91.772	-82.044	0.185	0.061
-90.757	-128.910	-0.406	-0.057
-89.743	800.000	-0.047	0.198
-88.728	-200.000	0.036	-0.239
-87.713	-200.000	-0.021	0.284
-86.699	-200.000	-0.034	-0.183
-85.684	23.177	-0.436	0.360
-84.670	717.191	0.143	0.382
-83.655	185.577	-0.088	-0.131
-82.640	-200.000	0.017	0.079
-81.626	-200.000	0.009	-0.048
-80.611	-107.207	-0.045	-0.010
-79.597	-200.000	0.044	0.316
-78.582	800.000	0.031	0.134
-77.567	192.692	-0.138	-0.210
-76.553	800.000	0.165	-0.476
-75.538	-55.585	0.215	-0.097
-74.524	-200.000	-0.048	-0.211
-73.509	-96.293	0.081	0.022
-72.494	86.469	0.181	0.201
-71.480	182.957	0.081	-0.119
-70.465	102.524	-0.014	-0.016
-69.451	756.891	-0.053	-0.144
-68.436	-116.796	-0.255	-0.047
-67.422	298.468	0.061	-0.113
-66.407	-200.000	0.043	-0.242
-65.392	145.372	-0.026	-0.036
-64.378	-191.410	0.317	-0.003
-63.363	800.000	-0.121	-0.339
-62.349	-93.286	-0.133	0.037
-61.334	83.449	-0.792	-0.865
-60.319	132.481	0.126	0.163
-59.305	-200.000	-0.022	-0.846
-58.290	181.246	0.403	0.595
-57.276	296.091	0.707	1.300
-56.261	-200.000	74.244	532.080
-55.246	566.825	1299.963	3164.563
-54.232	143.252	2529.906	3376.680
-53.217	111.732	2373.335	2873.052
-52.203	50.381	2111.174	2001.300
-51.188	45.035	2018.722	1864.904
-50.173	43.176	1999.717	1830.420
-49.159	55.152	2035.915	1973.226
-48.144	60.455	2055.985	2041.057
-47.130	45.802	2021.107	1873.827
-46.115	43.004	2010.226	1838.178
-45.100	42.795	2007.623	1833.819
-44.086	42.889	2005.182	1832.377
-43.071	42.867	2002.489	1829.643
-42.057	42.806	2000.871	1827.530
-41.042	42.828	1999.131	1826.076
-40.027	42.811	1997.269	1824.149
-39.013	42.784	1994.977	1821.735
-37.998	42.825	1993.198	1820.408
-36.984	42.879	1991.734	1819.484
-35.969	42.950	1989.077	1817.633
-34.954	42.937	1987.467	1815.966
-33.940	42.970	1986.231	1815.069
-32.925	42.938	1984.276	1812.921
-31.911	43.040	1982.189	1811.858
-30.896	42.921	1981.043	1809.671
-29.881	42.923	1979.504	1808.210
-28.867	43.014	1977.208	1806.855
-27.852	42.940	1976.139	1805.146
-26.838	42.982	1974.130	1803.613
-25.823	42.981	1971.757	1801.367
-24.809	42.961	1970.307	1799.790
-23.794	42.978	1968.617	1798.328
-22.779	42.975	1966.756	1796.530
-21.765	42.907	1965.405	1794.613
-20.750	42.991	1963.676	1793.714
-19.736	42.944	1962.485	1792.134
-18.721	42.888	1961.350	1790.533
-17.706	42.972	1959.150	1789.196
-16.692	42.944	1957.261	1787.152
-15.677	42.891	1955.904	1785.371
-14.663	42.920	1954.338	1784.134
-13.648	43.005	1952.853	1783.457
-12.633	42.957	1951.576	1781.794
-11.619	42.936	1950.412	1780.474
-10.604	42.983	1948.433	1779.010
-9.590	42.966	1947.723	1778.145
-8.575	42.926	1946.352	1776.469
-7.560	42.965	1944.888	1775.409
-6.546	42.923	1943.760	1773.935
-5.531	43.008	1941.626	1772.662
-4.517	42.965	1940.575	1771.259
-3.502	42.887	1939.906	1769.890
-2.487	42.993	1938.282	1769.273
-1.473	43.013	1937.727	1768.870
-0.458	43.063	1933.789	1765.643
0.556	42.182	1915.796	1741.872
1.571	38.234	1894.410	1688.254
2.586	33.757	1915.337	1667.531
3.600	32.351	1952.336	1686.991
4.615	31.299	1950.002	1675.397
5.629	23.691	1843.001	1518.541
6.644	9.554	1708.374	1294.621
7.659	1.745	1661.952	1198.076
8.673	1.061	1657.879	1189.668
9.688	1.073	1655.637	1188.044
10.702	0.947	1654.373	1186.046
11.717	0.729	1651.965	1182.512
12.731	1.245	1651.208	1185.898
13.746	9.171	1671.583	1262.941
14.761	20.632	1696.489	1372.610
15.775	24.776	1702.792	1410.337
16.790	24.753	1701.831	1409.234
17.804	24.746	1701.272	1408.590
18.819	24.840	1700.279	1408.385
19.834	24.860	1699.679	1407.918
20.848	25.116	1699.075	1409.311
21.863	25.012	1698.715	1408.067
22.877	25.042	1697.180	1406.905
23.892	25.030	1696.390	1406.036
24.907	25.005	1695.442	1404.926
25.921	25.100	1694.286	1404.590
26.936	25.027	1693.598	1403.325
27.950	25.065	1692.473	1402.563
28.965	25.015	1691.942	1401.608
29.980	25.060	1691.311	1401.316
30.994	24.976	1689.790	1399.271
32.009	25.144	1688.119	1399.081
33.023	25.050	1687.416	1397.634
34.038	25.002	1686.641	1396.495
35.053	25.088	1685.187	1395.840
36.067	25.103	1684.248	1395.054
37.082	25.007	1683.767	1393.789
38.096	25.067	1682.418	1393.013
39.111	25.156	1681.392	1392.735
40.126	25.070	1681.426	1391.966
41.140	25.157	1679.966	1391.311
42.155	25.069	1679.169	1389.843
43.169	25.082	1677.744	1388.644
44.184	25.064	1676.853	1387.641
45.199	25.034	1675.844	1386.455
46.213	25.067	1675.193	1386.048
47.228	24.953	1674.180	1384.208
48.242	25.075	1672.374	1383.536
49.257	25.061	1671.365	1382.465
50.271	25.061	1670.340	1381.498
51.286	25.124	1668.927	1380.692
52.301	25.073	1667.961	1379.375
53.315	25.043	1666.736	1378.013
54.330	25.102	1665.000	1376.910
55.344	25.044	1663.794	1375.341
56.359	25.104	1662.750	1374.823
57.374	25.094	1661.944	1373.958
58.388	25.048	1660.602	1372.373
59.403	25.108	1659.465	1371.767
60.417	25.121	1657.995	1370.535
61.432	25.114	1657.224	1369.717
62.447	25.108	1656.393	1368.863
63.461	25.084	1655.361	1367.711
64.476	25.101	1653.968	1366.565
65.490	25.172	1652.998	1366.182
66.505	25.210	1651.570	1365.175
67.520	25.086	1651.533	1364.080
68.534	25.098	1650.254	1362.991
69.549	25.157	1648.934	1362.233
70.563	25.180	1647.781	1361.334
71.578	25.105	1646.789	1359.819
72.593	25.128	1645.997	1359.223
73.607	25.154	1645.244	1358.678
74.622	25.177	1644.348	1357.993
75.636	25.088	1643.289	1356.326
76.651	25.191	1642.020	1355.938
77.666	25.146	1641.483	1355.033
78.680	25.169	1640.658	1354.401
79.695	25.205	1639.671	1353.739
80.709	25.129	1638.458	1352.048
81.724	25.171	1638.163	1351.999
82.739	25.134	1637.377	1350.950
83.753	25.080	1636.449	1349.664
84.768	25.113	1635.247	1348.798
85.782	25.151	1634.142	1348.050
86.797	25.097	1633.550	1347.038
87.812	25.135	1632.724	1346.524
88.826	25.081	1631.760	1345.204
89.841	25.192	1630.413	1344.809
90.855	25.213	1629.450	1344.054
91.870	25.188	1628.855	1343.257
92.884	25.138	1627.569	1341.700
93.899	25.079	1626.649	1340.386
94.914	25.189	1625.477	1340.124
95.928	25.150	1624.340	1338.773
96.943	25.191	1622.836	1337.720
97.957	25.187	1621.533	1336.497
98.972	25.138	1620.550	1335.204
99.987	25.227	1619.158	1334.605
101.001	25.166	1617.858	1332.960
102.016	25.176	1616.261	1331.601
103.030	25.133	1615.211	1330.297
104.045	25.119	1614.038	1329.112
105.060	25.174	1612.275	1327.951
106.074	25.142	1611.594	1327.036
107.089	25.166	1610.292	1326.024
108.103	25.226	1609.290	1325.524
109.118	25.248	1607.814	1324.353
110.133	25.190	1606.912	1323.061
111.147	25.238	1605.685	1322.288
112.162	25.243	1604.545	1321.275
113.176	25.249	1603.155	1320.058
114.191	25.193	1601.992	1318.568
115.206	25.254	1600.883	1317.984
116.220	25.225	1600.308	1317.182
117.235	25.235	1598.954	1316.026
118.249	25.101	1597.906	1314.064
119.264	25.250	1596.737	1314.078
120.279	25.216	1595.231	1312.474
121.293	25.245	1594.278	1311.786
122.308	25.195	1593.114	1310.348
123.322	25.213	1591.778	1309.262
124.337	25.271	1590.693	1308.680
125.352	25.208	1589.958	1307.496
126.366	25.283	1588.897	1307.061
127.381	25.215	1588.070	1305.763
128.395	25.286	1587.333	1305.563
129.410	25.370	1585.924	1304.899
130.424	25.322	1585.002	1303.675
131.439	25.275	1583.745	1302.186
132.454	25.316	1582.319	1301.194
133.468	25.282	1581.486	1300.146
134.483	25.293	1579.967	1298.864
135.497	25.289	1578.666	1297.649
136.512	25.309	1577.323	1296.576
137.527	25.408	1576.560	1296.546
138.541	25.343	1575.445	1295.048
139.556	25.403	1574.287	1294.415
140.570	25.334	1573.230	1292.932
141.585	25.264	1571.899	1291.219
142.600	25.353	1570.377	1290.494
143.614	25.273	1569.568	1289.144
144.629	25.396	1568.542	1289.069
145.643	25.367	1567.292	1287.716
146.658	25.341	1566.056	1286.405
147.673	25.343	1564.515	1285.040
148.687	25.266	1563.616	1283.638
149.702	25.281	1562.633	1282.822
150.716	25.297	1561.525	1281.917
151.731	25.261	1560.077	1280.351
152.746	25.270	1559.480	1279.816
153.760	25.263	1558.227	1278.623
154.775	25.276	1557.132	1277.701
155.789	25.280	1556.434	1277.047
156.804	25.312	1555.315	1276.245
157.819	25.252	1554.088	1274.697
158.833	25.269	1553.049	1273.856
159.848	25.318	1552.069	1273.283
160.862	25.381	1550.853	1272.620
161.877	25.362	1550.168	1271.810
162.892	25.429	1549.107	1271.303
163.906	25.336	1548.194	1269.782
164.921	25.267	1547.384	1268.518
165.935	25.422	1546.115	1268.461
166.950	25.468	1545.168	1267.894
167.964	25.394	1544.295	1266.543
168.979	25.455	1543.130	1265.909
169.994	25.404	1542.401	1264.837
171.008	25.307	1542.008	1263.724
172.023	25.395	1540.727	1263.181
173.037	25.317	1539.988	1261.914
174.052	25.428	1538.510	1261.371
175.067	25.510	1537.429	1260.950
176.081	25.369	1536.970	1259.468
177.096	25.444	1535.761	1258.897
178.110	25.534	1533.978	1257.954
179.125	25.373	1533.747	1256.521
180.140	25.369	1532.684	1255.516
181.154	25.540	1531.894	1255.950
182.169	25.517	1531.078	1255.011
183.183	25.464	1530.008	1253.650
184.198	25.466	1529.014	1252.740
185.213	25.392	1528.668	1251.827
186.227	25.445	1527.888	1251.446
187.242	25.512	1526.462	1250.638
188.256	25.556	1525.227	1249.821
189.271	25.553	1524.224	1248.866
190.286	25.483	1523.685	1247.828
191.300	25.622	1523.022	1248.140
192.315	25.474	1522.261	1246.380
193.329	25.522	1521.402	1245.896
194.344	25.484	1520.562	1244.834
195.359	25.539	1519.501	1244.241
196.373	25.519	1518.852	1243.459
197.388	25.428	1518.218	1242.202
198.402	25.494	1516.656	1241.270
199.417	25.428	1515.973	1240.145
200.432	25.448	1515.505	1239.794
201.446	25.499	1514.571	1239.267
202.461	25.540	1513.339	1238.434
203.475	25.523	1512.616	1237.615
204.490	25.507	1511.481	1236.466
205.504	25.538	1511.291	1236.416
206.519	25.468	1510.169	1234.904
207.534	25.472	1509.576	1234.337
208.548	25.644	1508.372	1234.424
209.563	25.575	1507.432	1233.071
210.577	25.583	1506.276	1232.074
211.592	25.578	1505.997	1231.703
212.607	25.631	1505.159	1231.271
213.621	25.668	1504.416	1230.807
214.636	25.685	1503.693	1230.222
215.650	25.713	1502.795	1229.573
216.665	25.641	1501.698	1228.074
217.680	25.723	1500.965	1227.924
218.694	25.711	1500.403	1227.274
219.709	25.657	1499.502	1226.059
220.723	25.735	1499.043	1226.106
221.738	25.623	1497.692	1224.130
222.753	25.669	1496.862	1223.660
223.767	25.505	1496.317	1221.991
224.782	25.578	1495.127	1221.409
225.796	25.550	1494.938	1220.953
226.811	25.708	1493.542	1220.776
227.826	25.808	1492.994	1220.898
228.840	25.771	1492.307	1219.979
229.855	25.701	1491.502	1218.739
230.869	25.676	1490.707	1217.812
231.884	25.692	1489.801	1217.070
232.899	25.673	1488.534	1215.803
233.913	25.702	1487.556	1215.088
234.928	25.701	1486.531	1214.137
235.942	25.775	1485.661	1213.821
236.957	25.827	1484.417	1213.046
237.972	25.794	1483.215	1211.734
238.986	25.792	1482.253	1210.827
240.001	25.717	1481.927	1209.952
241.015	25.852	1480.683	1209.735
242.030	25.885	1479.539	1208.913
243.045	25.915	1478.671	1208.298
244.059	25.854	1478.187	1207.388
245.074	25.854	1477.509	1206.725
246.088	25.772	1476.672	1205.385
247.103	25.924	1475.851	1205.625
248.117	25.957	1474.847	1204.920
249.132	25.978	1473.937	1204.209
250.147	25.981	1473.249	1203.561
251.161	25.890	1473.087	1202.718
252.176	25.981	1472.241	1202.527
253.190	25.965	1471.320	1201.564
254.205	26.009	1470.053	1200.712
255.220	25.918	1469.798	1199.792
256.234	26.010	1469.109	1199.738
257.249	26.030	1467.608	1198.540
258.263	25.957	1467.429	1197.801
259.278	26.005	1466.360	1197.139
260.293	26.089	1465.394	1196.804
261.307	26.009	1465.034	1195.869
262.322	26.001	1464.448	1195.237
263.336	26.055	1463.410	1194.641
264.351	26.025	1463.073	1194.057
265.366	26.191	1461.245	1193.559
266.380	26.034	1461.001	1192.217
267.395	26.086	1459.503	1191.234
268.409	25.968	1459.202	1190.101
269.424	26.044	1458.393	1189.839
270.439	26.077	1457.210	1188.983
271.453	26.050	1456.505	1188.127
272.468	26.057	1456.256	1187.868
273.482	26.133	1455.041	1187.272
274.497	26.092	1454.311	1186.301
275.512	26.160	1453.149	1185.694
276.526	26.112	1452.792	1184.980
277.541	26.162	1451.948	1184.516
278.555	26.110	1451.214	1183.474
279.570	26.254	1450.367	1183.622
280.585	26.214	1449.288	1182.375
281.599	26.226	1448.465	1181.673
282.614	26.231	1447.694	1180.973
283.628	26.149	1446.633	1179.469
284.643	26.128	1445.808	1178.558
285.657	26.252	1444.875	1178.499
286.672	26.126	1443.866	1176.750
287.687	26.165	1443.040	1176.228
288.701	26.177	1442.307	1175.601
289.716	26.267	1441.596	1175.508
290.730	26.214	1440.899	1174.491
291.745	26.225	1440.117	1173.816
292.760	26.334	1438.835	1173.375
293.774	26.261	1438.036	1172.150
294.789	26.340	1436.824	1171.569
295.803	26.367	1436.733	1171.565
296.818	26.309	1435.946	1170.444
297.833	26.319	1434.953	1169.599
298.847	26.368	1434.099	1169.115
299.862	26.317	1433.402	1168.113
300.876	26.372	1432.234	1167.410
301.891	26.383	1431.680	1166.929
302.906	26.379	1430.943	1166.199
303.920	26.505	1429.902	1166.060
304.935	26.405	1429.864	1165.280
305.949	26.523	1428.664	1164.959
306.964	26.379	1428.480	1163.778
307.979	26.560	1426.731	1163.414
308.993	26.488	1426.102	1162.335
310.008	26.485	1425.697	1161.883
311.022	26.390	1424.722	1160.375
312.037	26.517	1423.490	1160.086
313.052	26.356	1423.142	1158.670
314.066	26.495	1421.982	1158.512
315.081	26.503	1420.713	1157.427
316.095	26.451	1420.175	1156.553
317.110	26.400	1419.536	1155.603
318.125	26.576	1418.152	1155.501
319.139	26.583	1417.388	1154.817
320.154	26.606	1416.623	1154.241
321.168	26.606	1415.686	1153.374
322.183	26.570	1414.927	1152.422
323.197	26.504	1414.088	1151.220
324.212	26.571	1413.178	1150.804
325.227	26.565	1412.491	1150.104
326.241	26.587	1411.579	1149.395
327.256	26.656	1410.712	1149.025
328.270	26.626	1410.090	1148.229
329.285	26.562	1409.630	1147.350
330.300	26.667	1408.430	1146.934
331.314	26.699	1407.820	1146.536
332.329	26.660	1406.802	1145.362
333.343	26.712	1406.203	1145.103
334.358	26.686	1405.636	1144.373
335.373	26.758	1404.455	1143.765
336.387	26.708	1404.100	1143.061
337.402	26.802	1403.177	1142.802
338.416	26.878	1402.820	1142.887
339.431	26.802	1402.174	1141.783
340.446	26.766	1401.727	1141.087
341.460	26.717	1400.963	1140.055
342.475	26.895	1399.764	1140.100
343.489	26.975	1398.626	1139.573
344.504	26.881	1397.547	1138.003
345.519	26.796	1396.777	1136.742
346.533	26.876	1396.178	1136.658
347.548	26.795	1395.421	1135.433
348.562	26.874	1394.305	1134.918
349.577	26.943	1393.459	1134.558
350.592	26.932	1393.180	1134.167
351.606	26.810	1392.657	1132.877
352.621	26.856	1391.118	1131.812
353.635	26.851	1390.079	1130.832
354.650	26.916	1389.536	1130.698
355.665	26.924	1388.642	1129.919
356.679	26.936	1387.630	1129.074
357.694	26.974	1386.633	1128.397
358.708	27.004	1385.237	1127.347
359.723	27.009	1384.392	1126.591
360.738	26.878	1383.745	1125.154
361.752	26.924	1382.822	1124.588
362.767	27.056	1381.287	1124.056
363.781	26.931	1380.626	1122.648
364.796	27.065	1380.096	1122.942
365.810	26.995	1379.318	1121.777
366.825	27.089	1378.458	1121.558
367.840	27.035	1378.015	1120.765
368.854	27.061	1377.011	1120.012
369.869	27.094	1376.466	1119.675
370.883	27.170	1375.521	1119.273
371.898	27.090	1375.480	1118.646
372.913	27.164	1374.231	1117.992
373.927	27.194	1373.624	1117.582
374.942	27.186	1372.730	1116.704
375.956	27.123	1372.316	1115.884
376.971	27.170	1371.687	1115.559
377.986	27.097	1370.814	1114.306
379.000	27.191	1370.120	1114.217
380.015	27.183	1369.191	1113.315
381.029	27.237	1368.898	1113.309
382.044	27.196	1368.076	1112.290
383.059	27.223	1367.114	1111.578
384.073	27.210	1366.768	1111.116
385.088	27.397	1366.342	1111.814
386.102	27.235	1365.983	1110.434
387.117	27.336	1364.833	1110.015
388.132	27.316	1364.212	1109.290
389.146	27.284	1363.607	1108.504
390.161	27.276	1362.605	1107.543
391.175	27.399	1361.437	1107.245
392.190	27.375	1360.628	1106.343
393.205	27.333	1360.410	1105.814
394.219	27.307	1359.525	1104.838
395.234	27.327	1358.487	1104.018
396.248	27.333	1357.888	1103.472
397.263	27.486	1356.189	1102.917
398.278	27.542	1354.970	1102.166
399.292	27.363	1354.432	1100.549
400.307	27.494	1353.425	1100.427
401.321	27.512	1352.908	1100.018
402.336	27.462	1351.987	1098.873
403.350	27.560	1350.646	1098.273
404.365	27.484	1349.941	1097.143
405.380	27.450	1349.412	1096.413
406.394	27.612	1348.174	1096.286
407.409	27.541	1347.535	1095.239
408.423	27.562	1346.877	1094.736
409.438	27.590	1346.394	1094.412
410.453	27.742	1345.720	1094.684
411.467	27.725	1344.620	1093.588
412.482	27.658	1344.157	1092.715
413.496	27.679	1343.394	1092.121
414.511	27.690	1342.744	1091.565
415.526	27.655	1342.448	1091.015
416.540	27.590	1341.828	1090.029
417.555	27.713	1340.621	1089.684
418.569	27.626	1340.433	1088.916
419.584	27.644	1340.125	1088.680
420.599	27.642	1339.568	1088.116
421.613	73.293	1316.153	1328.578
422.628	73.967	1312.732	1328.696
