DTS Sentinel unit serial number:	SN413079Multiplexer serial number:	ORYXHardware model number:	OX4-SRSoftware version number:	ORYX F/W v4.00 Oryx Data Collector v3.7.2.0data status	okinstallation	princeton_trtdifferential loss correction	single-endedforward channel	channel 4reverse channel	N/Adate	2019/09/12time	19:16:19forward acquisition time	15.00reverse acquisition time	0.00gamma	496.2192k internal	0.2308k external	0.2308temperature offset calibration	1.0141default loss term (dB/km)	0.3790temperature slope calibration	1.0000multiplexer offset coefficient	1.0000multiplexer slope coefficient	1.0000fibre end	0.00T internal ref (°C)	32.50T ext. ref 1 (°C)	3.19T ext. ref 2 (°C)	27.01length (m)	temperature (°C)	Stokes	anti-Stokes-747.200	104.821	0.363	0.434
-746.185	-70.961	-0.321	-0.123
-745.171	62.712	-0.134	-0.136
-744.156	-200.000	0.083	-0.686
-743.142	-200.000	0.069	0.764
-742.127	290.821	-0.301	0.556
-741.112	384.691	0.184	0.385
-740.098	800.000	-0.100	0.285
-739.083	-43.921	0.736	0.376
-738.069	636.092	0.298	0.768
-737.054	272.789	-0.150	-0.269
-736.039	800.000	-0.345	1.213
-735.025	223.745	0.352	0.578
-734.010	-28.228	-0.716	-0.420
-732.996	220.256	0.245	-0.398
-731.981	-200.000	0.057	-0.471
-730.966	-99.219	-0.104	0.027
-729.952	-85.685	-0.328	-0.104
-728.937	39.099	-0.456	-0.414
-727.923	93.861	0.082	0.095
-726.908	-200.000	-0.060	0.443
-725.894	-109.388	-0.141	0.030
-724.879	800.000	0.045	0.192
-723.864	-123.330	0.212	0.034
-722.850	76.421	-0.241	0.259
-721.835	800.000	0.047	0.161
-720.821	237.476	-0.210	-0.353
-719.806	225.597	0.392	-0.646
-718.791	364.194	0.205	-0.418
-717.777	295.778	-0.314	0.585
-716.762	800.000	-0.144	-0.503
-715.748	175.959	0.144	-0.212
-714.733	-50.187	-0.501	-0.241
-713.718	567.764	0.119	-0.294
-712.704	-95.809	0.349	0.095
-711.689	-110.590	-0.434	0.091
-710.675	800.000	0.063	-0.265
-709.660	281.356	-0.050	0.091
-708.645	259.744	0.334	0.585
-707.631	-69.507	0.612	0.238
-706.616	-128.213	0.062	0.009
-705.602	-134.280	-0.674	0.084
-704.587	341.004	0.525	1.040
-703.572	-200.000	-0.071	0.786
-702.558	-200.000	0.056	-0.506
-701.543	15.648	-0.497	0.396
-700.529	-46.525	0.632	-0.315
-699.514	4.186	-0.303	-0.225
-698.499	-130.130	0.697	-0.096
-697.485	391.415	0.124	0.262
-696.470	36.551	0.686	-0.615
-695.456	800.000	-0.478	-1.518
-694.441	7.418	-0.032	0.025
-693.426	234.637	-0.434	-0.726
-692.412	322.508	-0.164	0.317
-691.397	145.957	0.390	-0.531
-690.383	800.000	0.342	1.129
-689.368	31.770	0.396	-0.345
-688.354	-113.253	-0.254	0.051
-687.339	31.808	-0.104	-0.090
-686.324	-200.000	-0.060	0.316
-685.310	-200.000	-0.039	0.427
-684.295	-58.642	-0.153	0.067
-683.281	-30.146	-0.556	0.321
-682.266	103.482	-0.204	0.243
-681.251	-64.748	0.896	0.368
-680.237	242.623	0.436	-0.739
-679.222	105.875	-0.248	-0.297
-678.208	14.663	0.453	-0.359
-677.193	-116.568	0.299	-0.056
-676.178	-114.902	-0.899	0.174
-675.164	501.668	-0.240	0.561
-674.149	330.132	-0.203	0.397
-673.135	-42.184	-0.127	-0.066
-672.120	24.200	0.511	0.428
-671.105	-18.127	0.255	0.162
-670.091	115.627	0.152	-0.188
-669.076	82.976	-0.531	0.586
-668.062	73.041	0.992	-1.050
-667.047	131.400	-0.517	-0.673
-666.032	800.000	-0.334	1.019
-665.018	16.437	0.705	-0.564
-664.003	-200.000	-0.090	0.467
-662.989	717.208	-0.208	-0.560
-661.974	800.000	-0.129	0.389
-660.959	-55.360	0.148	0.067
-659.945	-200.000	0.008	-0.165
-658.930	-87.812	0.602	0.184
-657.916	83.009	0.136	-0.150
-656.901	59.956	0.287	-0.287
-655.886	-79.475	0.592	-0.203
-654.872	800.000	0.231	-0.813
-653.857	-200.000	-0.020	0.550
-652.843	-144.877	-0.709	-0.066
-651.828	800.000	0.152	0.433
-650.814	133.971	-0.031	-0.041
-649.799	317.731	-0.505	0.967
-648.784	800.000	0.053	-0.163
-647.770	86.986	-0.319	0.357
-646.755	-32.645	0.594	0.335
-645.741	196.582	0.217	-0.335
-644.726	121.797	0.258	-0.326
-643.711	-200.000	-0.106	-0.615
-642.697	46.353	-0.457	-0.429
-641.682	603.674	-0.385	-0.969
-640.668	800.000	0.174	0.672
-639.653	-63.844	-0.647	-0.268
-638.638	-200.000	-0.056	-0.688
-637.624	335.690	-0.127	0.249
-636.609	-200.000	0.337	-0.001
-635.595	316.973	0.281	0.537
-634.580	23.197	-0.575	0.478
-633.565	-103.818	0.304	0.072
-632.551	-200.000	-0.050	-0.633
-631.536	189.140	0.104	-0.157
-630.522	-96.547	-0.409	-0.109
-629.507	-200.000	0.010	-0.657
-628.492	-188.838	-1.027	0.013
-627.478	8.951	0.386	0.295
-626.463	-109.270	-1.246	-0.267
-625.449	-31.003	0.458	-0.262
-624.434	-96.239	0.500	-0.134
-623.419	-135.798	-0.611	0.073
-622.405	-141.859	-0.531	-0.054
-621.390	-116.384	-0.529	-0.099
-620.376	62.282	-0.480	0.485
-619.361	-36.492	0.783	0.426
-618.346	-42.944	0.865	-0.444
-617.332	-116.336	-0.792	0.148
-616.317	-10.830	-0.027	-0.018
-615.303	-131.268	0.400	0.054
-614.288	-200.000	-0.141	-0.782
-613.273	145.146	0.162	-0.219
-612.259	371.164	0.270	-0.553
-611.244	-83.347	-0.692	-0.225
-610.230	-200.000	-0.134	-0.736
-609.215	455.040	0.157	-0.352
-608.201	-200.000	0.126	-0.651
-607.186	-67.676	-0.921	0.365
-606.171	-200.000	-0.058	-0.487
-605.157	-23.348	-0.877	-0.533
-604.142	379.791	-0.178	-0.370
-603.128	-200.000	0.017	0.099
-602.113	249.374	0.035	-0.059
-601.098	-24.579	-0.448	-0.270
-600.084	233.470	0.186	-0.309
-599.069	-200.000	-0.002	-0.219
-598.055	-200.000	-0.012	-0.068
-597.040	408.565	0.113	-0.241
-596.025	-80.991	-0.306	-0.102
-595.011	800.000	-0.032	-0.112
-593.996	-72.821	0.636	-0.237
-592.982	800.000	0.067	-0.195
-591.967	127.439	-0.394	0.505
-590.952	800.000	0.009	0.027
-589.938	-99.458	1.024	-0.260
-588.923	-170.374	-0.819	-0.029
-587.909	-9.293	0.812	-0.548
-586.894	800.000	-0.103	-0.335
-585.879	-68.606	0.203	0.079
-584.865	-46.874	0.237	-0.117
-583.850	-200.000	0.096	-0.541
-582.836	103.351	0.417	-0.494
-581.821	-200.000	-0.009	0.436
-580.806	190.094	-0.147	0.223
-579.792	0.820	-0.223	-0.161
-578.777	400.622	-0.096	0.202
-577.763	-155.601	1.387	-0.090
-576.748	211.561	0.282	-0.449
-575.733	-200.000	0.158	0.804
-574.719	137.524	0.519	-0.686
-573.704	-48.156	0.513	-0.250
-572.690	-200.000	0.030	-0.261
-571.675	-200.000	-0.018	-0.285
-570.661	130.400	0.436	-0.564
-569.646	-200.000	-0.106	-0.623
-568.631	-55.902	0.760	-0.342
-567.617	2.618	-0.163	-0.119
-566.602	-151.455	0.759	0.057
-565.588	800.000	0.167	0.497
-564.573	-71.291	0.579	-0.219
-563.558	166.182	-0.212	0.303
-562.544	-124.903	-0.513	0.080
-561.529	-61.340	0.280	-0.119
-560.515	-95.681	-0.800	0.216
-559.500	-155.950	0.429	-0.028
-558.485	-200.000	-0.031	0.469
-557.471	-200.000	0.042	0.997
-556.456	-64.492	-0.280	-0.115
-555.442	-83.103	0.660	0.214
-554.427	88.467	0.254	0.285
-553.412	-20.293	-0.635	0.395
-552.398	92.989	-0.178	0.203
-551.383	800.000	0.101	-0.319
-550.369	-25.560	0.319	-0.190
-549.354	111.839	-0.507	0.618
-548.339	33.612	0.062	-0.054
-547.325	-17.692	-1.184	0.750
-546.310	412.135	-0.325	0.697
-545.296	-200.000	-0.003	0.231
-544.281	114.679	-0.283	0.348
-543.266	-62.867	-0.964	0.402
-542.252	50.792	0.262	0.250
-541.237	768.944	0.104	0.286
-540.223	198.290	0.555	-0.856
-539.208	-200.000	0.165	-0.767
-538.193	21.221	-0.483	0.396
-537.179	3.603	-0.767	0.564
-536.164	375.464	-0.380	0.782
-535.150	-97.271	0.714	0.188
-534.135	-11.572	0.535	0.354
-533.121	251.203	0.069	0.118
-532.106	84.752	0.479	-0.528
-531.091	-11.789	0.464	-0.307
-530.077	119.263	-0.391	-0.487
-529.062	439.171	-0.168	0.370
-528.048	60.131	0.269	0.268
-527.033	-59.650	0.542	0.234
-526.018	-64.852	-1.032	-0.421
-525.004	258.637	0.100	-0.173
-523.989	-43.071	-0.200	0.102
-522.975	130.652	-0.393	0.508
-521.960	-200.000	0.069	0.351
-520.945	55.494	0.241	-0.235
-519.931	-119.355	0.405	0.071
-518.916	663.938	-0.058	0.151
-517.902	90.364	-0.421	-0.475
-516.887	-9.600	-0.404	0.271
-515.872	-114.860	0.351	-0.067
-514.858	-200.000	-0.047	0.426
-513.843	-49.091	0.293	-0.141
-512.829	107.759	0.273	0.328
-511.814	800.000	0.219	-0.756
-510.799	462.612	0.261	0.587
-509.785	21.394	-0.383	0.314
-508.770	80.554	-0.232	0.252
-507.756	-152.955	-1.053	-0.075
-506.741	-59.637	0.748	-0.323
-505.726	249.912	-0.221	0.378
-504.712	40.715	-0.586	-0.532
-503.697	-19.821	0.702	-0.437
-502.683	156.410	-0.181	-0.252
-501.668	-105.047	-0.297	-0.069
-500.653	-200.000	0.070	0.594
-499.639	-134.612	0.262	0.032
-498.624	247.618	0.039	-0.067
-497.610	800.000	0.132	-0.455
-496.595	118.227	0.505	-0.627
-495.581	39.286	-0.729	0.657
-494.566	27.201	-0.691	0.584
-493.551	15.871	0.182	-0.145
-492.537	-18.238	0.260	-0.164
-491.522	-200.000	-0.028	0.224
-490.508	-200.000	0.068	1.109
-489.493	-29.844	0.435	-0.250
-488.478	279.631	-0.160	0.287
-487.464	-200.000	-0.036	0.220
-486.449	12.731	-0.804	-0.624
-485.435	240.463	0.540	-0.906
-484.420	-200.000	0.103	0.553
-483.405	-71.353	-0.605	0.228
-482.391	-141.429	0.662	-0.067
-481.376	-50.122	-0.240	0.114
-480.362	-5.068	-0.387	-0.268
-479.347	-20.744	0.660	0.408
-478.332	-175.937	-0.390	0.010
-477.318	-200.000	0.157	0.845
-476.303	-98.589	0.203	-0.052
-475.289	-48.655	-0.312	0.151
-474.274	-200.000	0.034	0.275
-473.259	-32.095	-0.722	0.406
-472.245	-192.784	0.610	-0.006
-471.230	-134.944	-0.525	0.064
-470.216	135.174	-0.274	0.358
-469.201	-200.000	-0.123	0.554
-468.186	401.839	-0.349	-0.738
-467.172	-100.539	1.057	-0.263
-466.157	92.196	0.327	0.370
-465.143	-200.000	0.047	-0.248
-464.128	-200.000	0.038	-0.300
-463.113	54.830	-0.663	0.643
-462.099	3.647	-0.306	0.224
-461.084	99.883	0.116	0.135
-460.070	-11.688	-0.523	0.345
-459.055	-105.162	0.602	-0.138
-458.040	-200.000	0.132	0.839
-457.026	144.711	-0.218	0.293
-456.011	-136.916	-0.564	-0.065
-454.997	147.322	0.393	0.532
-453.982	178.823	0.160	0.235
-452.968	-136.210	0.555	0.065
-451.953	-178.399	-0.881	-0.021
-450.938	-200.000	-0.186	-1.096
-449.924	-117.933	0.161	0.029
-448.909	800.000	-0.062	0.243
-447.895	-173.529	0.627	-0.019
-446.880	-200.000	-0.011	-0.143
-445.865	139.032	-0.104	-0.137
-444.851	42.533	-0.167	-0.153
-443.836	-45.428	0.291	0.145
-442.822	-146.525	0.211	-0.018
-441.807	-30.942	0.397	0.225
-440.792	263.458	0.193	-0.337
-439.778	-200.000	-0.203	-0.000
-438.763	508.721	-0.172	-0.402
-437.749	-139.266	0.634	-0.069
-436.734	639.357	-0.252	-0.643
-435.719	-67.306	0.396	0.156
-434.705	113.171	0.521	-0.635
-433.690	-152.265	0.786	0.057
-432.676	383.778	0.179	0.370
-431.661	-21.418	0.295	0.181
-430.646	-200.000	0.132	0.796
-429.632	-28.064	0.515	-0.299
-428.617	55.392	-0.219	-0.213
-427.603	184.801	-0.298	0.444
-426.588	88.474	0.378	0.421
-425.573	6.548	-0.081	0.060
-424.559	-19.576	-0.360	-0.224
-423.544	-27.370	-0.789	-0.461
-422.530	-58.558	0.551	-0.240
-421.515	800.000	0.096	0.326
-420.500	800.000	0.258	-0.936
-419.486	-103.922	-0.573	0.134
-418.471	800.000	0.217	0.629
-417.457	421.080	0.144	-0.310
-416.442	162.816	-0.216	0.304
-415.428	-27.726	0.853	-0.497
-414.413	206.174	0.416	-0.649
-413.398	-0.296	-0.434	0.309
-412.384	348.809	-0.142	-0.282
-411.369	-183.019	0.278	0.005
-410.355	-40.241	-0.262	0.137
-409.340	-64.388	0.296	-0.121
-408.325	-65.951	0.372	-0.149
-407.311	-200.000	-0.020	-0.448
-406.296	-61.617	-0.312	0.131
-405.282	31.315	0.508	0.437
-404.267	-134.435	-0.643	-0.079
-403.252	-105.520	-0.945	-0.215
-402.238	-179.495	0.256	0.006
-401.223	-113.808	-0.322	-0.063
-400.209	-60.528	-0.346	0.147
-399.194	7.593	0.509	-0.382
-398.179	344.421	0.306	-0.603
-397.165	653.621	-0.269	-0.691
-396.150	43.181	-0.436	0.399
-395.136	300.021	-0.346	-0.640
-394.121	-144.000	0.369	-0.035
-393.106	-184.962	-0.617	0.010
-392.092	-76.277	-0.441	0.156
-391.077	73.792	0.375	-0.394
-390.063	-66.018	0.250	-0.100
-389.048	69.178	-0.622	-0.642
-388.033	-118.387	-0.282	0.050
-387.019	42.637	0.510	0.465
-386.004	-87.474	0.301	0.091
-384.990	-19.489	0.193	0.120
-383.975	-35.262	0.647	0.353
-382.960	128.227	0.206	0.263
-381.946	61.658	0.556	0.555
-380.931	-5.519	-0.483	-0.332
-379.917	-81.868	-0.498	0.163
-378.902	-181.476	0.561	0.011
-377.888	-23.583	-0.195	0.117
-376.873	-200.000	0.642	-0.001
-375.858	-200.000	-0.021	-0.248
-374.844	42.669	-0.623	-0.569
-373.829	-200.000	0.011	0.188
-372.815	213.429	-0.296	-0.469
-371.800	-200.000	-0.060	0.804
-370.785	-22.683	1.140	0.690
-369.771	-33.842	-0.312	0.172
-368.756	433.834	-0.573	1.247
-367.742	-61.543	-0.418	0.176
-366.727	-200.000	0.122	0.785
-365.712	-200.000	-0.021	0.162
-364.698	532.293	0.045	0.107
-363.683	68.404	-0.189	0.194
-362.669	59.981	-0.505	0.500
-361.654	-28.404	-0.415	0.240
-360.639	-66.074	-0.686	0.274
-359.625	-46.420	-0.661	0.325
-358.610	201.937	0.067	-0.104
-357.596	-47.471	0.235	0.114
-356.581	-93.589	-0.678	0.187
-355.566	142.590	0.347	-0.462
-354.552	-200.000	0.922	0.000
-353.537	-26.513	-0.112	-0.066
-352.523	204.389	0.335	-0.520
-351.508	-200.000	-0.044	0.807
-350.493	278.940	-0.276	0.492
-349.479	800.000	0.222	-0.854
-348.464	777.579	0.092	-0.252
-347.450	-200.000	0.047	-0.811
-346.435	-119.169	-1.170	-0.204
-345.420	-34.346	0.183	-0.100
-344.406	241.147	0.339	-0.566
-343.391	800.000	-0.223	-0.757
-342.377	174.777	0.433	0.627
-341.362	-200.000	-0.031	0.522
-340.348	-161.434	-0.783	-0.040
-339.333	-200.000	0.080	-0.516
-338.318	41.719	0.505	0.458
-337.304	800.000	-0.163	0.548
-336.289	-200.000	-0.029	-0.141
-335.275	-200.000	0.001	0.273
-334.260	-56.327	-0.545	-0.242
-333.245	-200.000	0.157	-1.164
-332.231	-200.000	0.002	-0.293
-331.216	97.517	0.165	-0.189
-330.202	327.799	-0.302	0.580
-329.187	-105.439	-0.250	0.057
-328.172	43.503	-0.260	0.238
-327.158	-37.505	-0.669	0.357
-326.143	-200.000	-0.018	0.671
-325.129	-160.159	0.586	-0.032
-324.114	777.378	0.225	0.613
-323.099	800.000	0.165	-0.463
-322.085	-59.322	-0.296	0.127
-321.070	-28.114	0.274	-0.158
-320.056	-35.748	-0.473	0.256
-319.041	270.578	0.060	0.106
-318.026	-16.246	0.422	-0.268
-317.012	-57.972	-0.610	-0.266
-315.997	-20.920	-0.152	-0.093
-314.983	-116.010	-0.070	-0.013
-313.968	163.440	-0.232	0.326
-312.953	95.244	-0.183	0.208
-311.939	341.427	-0.085	0.167
-310.924	50.576	0.408	-0.385
-309.910	-122.398	0.228	-0.037
-308.895	44.792	-0.397	0.365
-307.880	-200.000	-0.025	0.410
-306.866	-20.791	0.334	-0.205
-305.851	131.874	-0.505	0.649
-304.837	-191.698	0.186	-0.002
-303.822	113.592	0.111	0.134
-302.807	21.282	0.144	0.117
-301.793	-200.000	-0.069	-0.744
-300.778	728.457	0.206	0.548
-299.764	-36.418	-0.685	-0.368
-298.749	33.948	0.301	-0.261
-297.735	165.622	-0.403	-0.569
-296.720	-200.000	-0.084	-0.552
-295.705	-149.232	1.108	0.088
-294.691	-200.000	0.149	0.802
-293.676	-185.677	-0.335	-0.005
-292.662	800.000	-0.101	0.394
-291.647	-200.000	-0.032	0.749
-290.632	-89.386	0.598	0.176
-289.618	-200.000	0.108	-0.597
-288.603	49.276	-0.548	0.515
-287.589	33.964	-0.664	-0.577
-286.574	-177.542	-0.313	-0.008
-285.559	-71.754	-1.178	-0.439
-284.545	83.936	-0.177	0.192
-283.530	-13.884	-0.315	0.203
-282.516	318.787	-0.080	0.152
-281.501	800.000	-0.192	-0.662
-280.486	-74.814	-0.518	-0.186
-279.472	-46.437	0.444	0.218
-278.457	186.365	-0.225	-0.334
-277.443	-74.860	0.943	0.338
-276.428	2.351	-0.269	0.194
-275.413	219.023	-0.113	-0.181
-274.399	147.941	-0.336	0.453
-273.384	-118.648	-0.339	-0.060
-272.370	-34.399	-0.352	-0.193
-271.355	-199.825	0.206	-0.001
-270.340	-143.231	1.098	-0.105
-269.326	110.033	0.286	-0.342
-268.311	92.890	0.036	0.041
-267.297	-57.340	-0.797	-0.349
-266.282	-17.803	0.699	0.438
-265.267	62.468	-0.618	0.616
-264.253	-74.580	0.367	0.132
-263.238	800.000	-0.236	1.023
-262.224	-134.092	-0.214	0.026
-261.209	-77.514	0.459	0.159
-260.195	-36.490	-0.376	0.202
-259.180	-155.273	0.505	0.033
-258.165	-200.000	0.052	0.567
-257.151	-200.000	-0.308	0.002
-256.136	236.026	0.045	0.074
-255.122	142.847	0.224	-0.297
-254.107	-200.000	0.078	0.574
-253.092	-114.991	-0.529	-0.100
-252.078	-0.511	-0.582	0.412
-251.063	-200.000	-0.051	-0.522
-250.049	-81.525	-0.748	-0.245
-249.034	337.256	0.087	-0.169
-248.019	-165.300	0.476	0.021
-247.005	-162.522	-0.740	-0.036
-245.990	-200.000	-0.018	-0.349
-244.976	9.715	0.302	-0.228
-243.961	18.704	1.340	1.069
-242.946	-148.094	0.791	0.065
-241.932	270.413	0.417	-0.730
-240.917	385.159	-0.132	0.271
-239.903	-200.000	-0.020	0.103
-238.888	162.146	0.277	0.386
-237.873	90.288	0.119	0.132
-236.859	153.557	-0.069	0.095
-235.844	800.000	-0.074	-0.235
-234.830	-200.000	-0.087	-0.542
-233.815	-116.163	0.635	0.118
-232.800	568.810	-0.237	-0.573
-231.786	-92.938	0.382	-0.106
-230.771	800.000	-0.196	-0.564
-229.757	-200.000	0.062	-0.271
-228.742	-36.404	-0.133	-0.071
-227.727	-72.491	-0.695	-0.256
-226.713	-19.679	-0.404	0.249
-225.698	-128.194	-0.471	0.067
-224.684	34.615	0.525	0.457
-223.669	384.193	-0.160	-0.329
-222.655	-26.126	0.287	0.168
-221.640	-117.249	0.344	0.062
-220.625	-145.984	-1.349	-0.119
-219.611	-200.000	-0.308	1.445
-218.596	75.784	-0.463	-0.487
-217.582	-171.204	0.108	-0.004
-216.567	-65.467	0.206	-0.082
-215.552	-200.000	0.010	-0.301
-214.538	-198.565	0.639	-0.004
-213.523	-200.000	-0.105	-1.051
-212.509	370.585	0.412	0.831
-211.494	-117.177	0.884	-0.160
-210.479	-79.946	0.802	-0.268
-209.465	-200.000	0.075	-0.353
-208.450	800.000	-0.208	-0.773
-207.436	37.431	-0.093	0.082
-206.421	-101.364	0.513	-0.124
-205.406	80.807	0.289	-0.310
-204.392	-200.000	0.456	-0.001
-203.377	-10.621	-0.235	-0.155
-202.363	-13.081	0.636	-0.412
-201.348	89.518	0.151	-0.168
-200.333	2.449	0.612	-0.441
-199.319	24.283	-0.054	-0.044
-198.304	800.000	0.294	-0.868
-197.290	-97.299	0.418	0.108
-196.275	-200.000	0.000	-0.373
-195.260	-200.000	-0.048	-0.280
-194.246	-152.662	0.335	-0.024
-193.231	-200.000	0.025	0.556
-192.217	-122.157	0.605	-0.099
-191.202	-170.630	-0.735	-0.025
-190.187	79.911	-0.261	0.279
-189.173	-87.890	0.152	-0.045
-188.158	-44.874	0.891	-0.442
-187.144	290.736	0.046	0.084
-186.129	-61.272	0.620	-0.260
-185.114	-200.000	0.033	-0.320
-184.100	15.920	-0.865	-0.677
-183.085	-200.000	0.081	0.380
-182.071	-67.233	-0.328	0.129
-181.056	-200.000	0.002	0.102
-180.042	6.013	0.341	-0.251
-179.027	800.000	0.127	-0.386
-178.012	65.784	-0.463	0.467
-176.998	800.000	-0.031	-0.134
-175.983	-30.534	-0.262	0.147
-174.969	98.469	0.189	0.216
-173.954	88.417	0.117	-0.129
-172.939	-22.053	-0.661	0.399
-171.925	220.953	0.291	0.464
-170.910	-119.867	0.399	0.068
-169.896	-200.000	-0.005	0.370
-168.881	-22.166	0.383	-0.231
-167.866	-74.324	-0.214	-0.077
-166.852	-59.529	0.644	0.275
-165.837	-66.812	-0.427	0.168
-164.823	-143.262	-0.198	0.019
-163.808	-110.850	-0.555	0.114
-162.793	800.000	0.188	0.752
-161.779	12.495	0.535	-0.410
-160.764	-200.000	0.100	-0.445
-159.750	-29.900	0.544	-0.308
-158.735	-10.670	-0.189	-0.124
-157.720	464.103	0.187	0.416
-156.706	-5.472	-0.690	0.470
-155.691	-200.000	0.112	0.588
-154.677	105.555	0.198	0.232
-153.662	-101.801	-0.332	-0.080
-152.647	-84.079	0.371	-0.117
-151.633	-8.090	0.723	0.484
-150.618	-151.402	-0.835	-0.062
-149.604	-28.223	0.342	0.196
-148.589	-100.138	-0.205	0.051
-147.574	-138.812	0.656	0.071
-146.560	800.000	0.128	0.485
-145.545	370.870	0.153	0.309
-144.531	-116.690	0.461	0.084
-143.516	-93.870	0.082	0.022
-142.502	-200.000	-0.010	0.672
-141.487	63.715	-0.384	-0.383
-140.472	-200.000	-0.004	0.310
-139.458	247.072	0.541	0.906
-138.443	586.026	0.184	0.450
-137.429	63.661	0.349	-0.347
-136.414	-200.000	0.030	-0.241
-135.399	-152.533	-0.376	-0.027
-134.385	-64.309	-0.626	-0.253
-133.370	-140.070	0.143	-0.015
-132.356	-200.000	-0.047	0.748
-131.341	-200.000	-0.001	0.060
-130.326	-145.268	1.172	0.105
-129.312	800.000	0.119	0.328
-128.297	-167.699	0.140	0.006
-127.283	800.000	0.075	-0.246
-126.268	-200.000	0.044	-0.253
-125.253	-200.000	-0.041	-0.200
-124.239	22.308	0.697	0.565
-123.224	-29.048	-0.830	-0.473
-122.210	-174.474	0.960	0.027
-121.195	186.573	-0.264	-0.389
-120.180	174.178	0.181	0.259
-119.166	-178.078	0.614	0.014
-118.151	-98.619	0.687	0.174
-117.137	297.192	0.248	0.452
-116.122	33.429	-0.348	-0.300
-115.107	-161.937	0.278	-0.014
-114.093	278.199	0.096	0.170
-113.078	-135.487	-0.328	-0.039
-112.064	-118.406	0.708	-0.124
-111.049	800.000	-0.209	-0.651
-110.034	188.811	0.625	0.928
-109.020	-7.161	-0.488	-0.328
-108.005	-104.843	0.434	-0.099
-106.991	-65.695	0.381	0.152
-105.976	-57.518	0.448	-0.195
-104.962	64.635	0.120	-0.120
-103.947	33.479	-0.455	-0.392
-102.932	84.398	-0.485	-0.526
-101.918	25.167	0.619	0.510
-100.903	-106.472	0.597	0.132
-99.889	-127.741	-0.332	0.048
-98.874	498.287	0.099	0.227
-97.859	-200.000	0.136	0.753
-96.845	-161.144	0.558	-0.029
-95.830	0.194	0.485	0.343
-94.816	-129.563	-0.172	-0.024
-93.801	800.000	-0.067	0.262
-92.786	800.000	0.218	0.627
-91.772	-103.093	-0.550	0.129
-90.757	144.755	0.309	-0.409
-89.743	24.414	0.125	-0.103
-88.728	-20.596	-0.527	-0.321
-87.713	43.798	-0.314	-0.285
-86.699	73.310	-0.398	-0.412
-85.684	800.000	0.174	0.572
-84.670	259.352	0.333	-0.570
-83.655	800.000	-0.222	-0.622
-82.640	583.247	-0.309	0.752
-81.626	-200.000	-0.186	0.841
-80.611	114.543	0.432	0.521
-79.597	-113.338	0.915	0.178
-78.582	-74.505	-0.845	-0.302
-77.567	-86.782	0.561	0.170
-76.553	800.000	0.047	-0.192
-75.538	-63.020	-0.824	0.337
-74.524	510.862	0.450	1.037
-73.509	-2.947	0.616	-0.426
-72.494	15.058	-0.422	0.327
-71.480	-15.215	0.367	0.233
-70.465	-97.083	0.725	0.188
-69.451	-200.000	-0.085	0.439
-68.436	-1.872	0.875	0.609
-67.422	124.871	0.322	-0.402
-66.407	-75.767	-0.397	-0.139
-65.392	-200.000	0.149	-0.805
-64.378	-132.846	-0.159	-0.020
-63.363	-107.218	-0.746	-0.163
-62.349	-164.363	-0.748	0.034
-61.334	23.540	-1.069	-0.871
-60.319	104.323	0.488	0.569
-59.305	794.318	-0.557	-1.517
-58.290	-200.000	-0.043	0.952
-57.276	-200.000	0.310	1.465
-56.261	-200.000	95.687	597.427
-55.246	670.868	1351.991	3464.930
-54.232	200.756	2523.601	3839.432
-53.217	109.386	2279.922	2701.044
-52.203	39.201	2045.837	1810.835
-51.188	34.348	1963.289	1694.671
-50.173	32.921	1943.913	1665.302
-49.159	48.072	1997.665	1847.284
-48.144	48.777	2013.300	1867.973
-47.130	34.826	1975.838	1709.512
-46.115	32.553	1964.854	1679.698
-45.100	32.224	1964.059	1676.021
-44.086	32.362	1960.404	1674.062
-43.071	32.205	1957.774	1670.354
-42.057	32.321	1955.394	1669.289
-41.042	32.406	1953.496	1668.353
-40.027	32.358	1951.984	1666.566
-39.013	32.463	1949.370	1665.199
-37.998	32.464	1948.197	1664.142
-36.984	32.339	1946.584	1661.593
-35.969	32.419	1944.279	1660.267
-34.954	32.569	1941.050	1658.765
-33.940	32.532	1940.933	1658.269
-32.925	32.552	1940.061	1657.640
-31.911	32.338	1939.036	1654.817
-30.896	32.444	1936.779	1653.753
-29.881	32.541	1934.203	1652.335
-28.867	32.503	1933.382	1651.240
-27.852	32.574	1930.648	1649.457
-26.838	32.536	1929.088	1647.731
-25.823	32.610	1927.896	1647.293
-24.809	32.608	1926.046	1645.632
-23.794	32.459	1924.406	1642.858
-22.779	32.496	1922.761	1641.714
-21.765	32.526	1920.387	1639.882
-20.750	32.565	1918.657	1638.678
-19.736	32.588	1917.480	1637.809
-18.721	32.524	1916.340	1636.217
-17.706	32.421	1914.861	1633.998
-16.692	32.638	1912.399	1633.710
-15.677	32.474	1911.420	1631.385
-14.663	32.598	1909.493	1630.752
-13.648	32.598	1908.200	1629.583
-12.633	32.393	1907.463	1627.114
-11.619	32.533	1906.285	1627.257
-10.604	32.438	1905.212	1625.452
-9.590	32.360	1903.762	1623.477
-8.575	32.507	1902.428	1623.550
-7.560	32.575	1900.883	1622.752
-6.546	32.578	1899.978	1621.939
-5.531	32.489	1898.753	1620.061
-4.517	32.447	1896.989	1618.129
-3.502	32.312	1895.972	1616.038
-2.487	32.418	1895.550	1616.525
-1.473	32.586	1894.384	1616.912
-0.458	32.579	1889.352	1612.494
0.556	33.722	1869.590	1585.338
1.571	29.201	1850.706	1531.699
2.586	25.044	1872.460	1514.515
3.600	23.880	1907.653	1532.814
4.615	23.225	1902.105	1522.589
5.629	17.836	1802.510	1398.685
6.644	8.394	1684.580	1234.413
7.659	3.650	1647.054	1170.897
8.673	3.330	1643.793	1166.057
9.688	3.129	1643.339	1164.106
10.702	3.206	1641.204	1163.071
11.717	3.095	1637.601	1159.582
12.731	3.611	1637.739	1163.464
13.746	10.150	1653.567	1224.238
14.761	19.872	1675.453	1314.549
15.775	24.689	1681.245	1355.594
16.790	25.247	1681.025	1359.525
17.804	24.836	1680.422	1355.805
18.819	24.531	1678.885	1352.135
19.834	24.445	1677.990	1350.649
20.848	24.460	1676.936	1349.792
21.863	24.490	1676.541	1349.581
22.877	24.762	1675.607	1350.767
23.892	24.841	1674.906	1350.674
24.907	24.808	1672.878	1348.673
25.921	24.743	1672.546	1347.795
26.936	24.630	1672.363	1346.675
27.950	24.645	1670.767	1345.385
28.965	24.823	1669.482	1345.569
29.980	24.628	1669.409	1343.924
30.994	24.823	1667.782	1343.960
32.009	24.782	1667.124	1343.006
33.023	24.842	1666.265	1342.644
34.038	24.935	1665.315	1342.458
35.053	24.581	1664.814	1339.280
36.067	24.754	1664.180	1339.947
37.082	24.776	1661.644	1337.958
38.096	24.548	1661.852	1336.302
39.111	24.571	1660.252	1335.065
40.126	24.570	1660.936	1335.487
41.140	24.774	1659.559	1335.784
42.155	24.624	1658.145	1333.416
43.169	24.513	1656.142	1330.857
44.184	24.455	1655.349	1329.673
45.199	24.430	1653.531	1327.903
46.213	24.292	1653.588	1326.806
47.228	24.524	1652.678	1327.686
48.242	24.691	1651.924	1328.203
49.257	24.635	1650.526	1326.545
50.271	24.613	1650.044	1325.878
51.286	24.567	1648.031	1323.798
52.301	24.730	1646.572	1323.716
53.315	24.784	1644.851	1322.620
54.330	24.690	1644.097	1321.197
55.344	24.600	1642.884	1319.443
56.359	24.526	1641.708	1317.834
57.374	24.543	1640.468	1316.850
58.388	24.587	1640.075	1316.744
59.403	24.575	1638.184	1315.018
60.417	24.493	1636.388	1312.857
61.432	24.283	1635.943	1310.841
62.447	24.361	1635.371	1310.836
63.461	24.317	1633.852	1309.185
64.476	24.279	1633.426	1308.450
65.490	24.464	1631.826	1308.402
66.505	24.305	1630.371	1305.959
67.520	24.213	1630.651	1305.390
68.534	24.205	1629.370	1304.192
69.549	24.317	1627.998	1303.801
70.563	24.330	1627.134	1303.085
71.578	24.410	1624.997	1301.844
72.593	24.260	1624.886	1300.546
73.607	24.379	1622.875	1299.689
74.622	24.312	1622.053	1298.427
75.636	24.098	1622.041	1296.742
76.651	24.137	1620.957	1296.048
77.666	24.252	1619.157	1295.330
78.680	24.339	1619.482	1296.103
79.695	24.181	1618.757	1294.265
80.709	24.136	1617.598	1292.892
81.724	24.382	1615.977	1293.272
82.739	24.387	1616.954	1293.969
83.753	24.534	1615.963	1294.132
84.768	24.827	1614.047	1294.601
85.782	24.781	1614.449	1294.476
86.797	24.858	1613.602	1294.236
87.812	25.111	1612.338	1294.937
88.826	24.927	1611.383	1292.730
89.841	24.622	1611.556	1290.551
90.855	24.851	1609.029	1290.063
91.870	24.793	1610.403	1290.636
92.884	25.019	1608.363	1290.510
93.899	24.997	1607.499	1289.548
94.914	24.943	1605.513	1287.448
95.928	25.138	1605.028	1288.348
96.943	24.952	1603.690	1285.828
97.957	25.043	1602.282	1285.236
98.972	25.151	1600.210	1284.235
99.987	25.078	1598.559	1282.272
101.001	24.763	1598.326	1279.722
102.016	24.840	1596.811	1278.947
103.030	24.925	1594.629	1277.689
104.045	24.853	1593.579	1276.221
105.060	24.968	1593.533	1276.890
106.074	24.786	1591.035	1273.480
107.089	24.399	1590.943	1270.541
108.103	24.584	1589.367	1270.487
109.118	24.329	1587.608	1267.154
110.133	24.227	1585.999	1265.033
111.147	24.285	1585.269	1264.755
112.162	24.298	1583.451	1263.282
113.176	24.359	1582.788	1263.070
114.191	24.436	1582.013	1262.890
115.206	24.263	1581.614	1261.235
116.220	24.437	1579.269	1260.484
117.235	24.725	1577.132	1260.695
118.249	24.502	1577.774	1259.526
119.264	24.232	1576.700	1256.649
120.279	24.005	1574.345	1253.062
121.293	24.156	1573.003	1252.950
122.308	24.444	1572.293	1254.295
123.322	24.330	1570.758	1252.160
124.337	24.221	1569.232	1250.065
125.352	24.042	1567.629	1247.427
126.366	24.089	1567.658	1247.670
127.381	24.212	1566.304	1247.338
128.395	24.320	1565.000	1246.950
129.410	24.112	1563.528	1244.212
130.424	23.959	1562.150	1241.939
131.439	23.940	1560.826	1240.640
132.454	24.115	1560.415	1241.426
133.468	24.171	1558.613	1240.273
134.483	24.234	1557.814	1239.963
135.497	24.445	1557.932	1241.418
136.512	24.507	1557.127	1241.095
137.527	24.635	1555.310	1240.428
138.541	24.251	1554.469	1236.983
139.556	24.255	1553.144	1235.847
140.570	24.321	1551.793	1235.120
141.585	24.515	1550.201	1235.087
142.600	24.571	1549.414	1234.733
143.614	24.871	1549.023	1236.387
144.629	25.170	1547.059	1236.769
145.643	24.795	1547.716	1234.599
146.658	24.975	1545.151	1233.687
147.673	24.873	1545.097	1232.829
148.687	24.751	1542.392	1229.720
149.702	24.734	1542.000	1229.188
150.716	24.745	1540.266	1227.769
151.731	24.293	1539.133	1223.655
152.746	24.246	1538.176	1222.463
153.760	24.279	1536.281	1221.079
154.775	24.342	1535.429	1220.723
155.789	24.723	1534.039	1222.116
156.804	24.797	1534.113	1222.572
157.819	24.700	1532.953	1220.874
158.833	24.621	1531.146	1218.791
159.848	24.668	1530.409	1218.416
160.862	25.001	1528.064	1218.711
161.877	24.832	1528.002	1217.401
162.892	24.575	1527.217	1214.921
163.906	24.463	1526.540	1213.510
164.921	24.246	1525.504	1211.110
165.935	24.254	1523.736	1209.654
166.950	24.292	1522.605	1208.900
167.964	24.699	1521.556	1210.722
168.979	24.634	1521.184	1209.878
169.994	24.559	1519.948	1208.277
171.008	24.528	1518.416	1206.745
172.023	24.470	1517.888	1205.830
173.037	24.557	1517.130	1205.704
174.052	24.610	1515.181	1204.410
175.067	24.763	1515.017	1205.200
176.081	24.612	1514.984	1204.054
177.096	24.521	1512.029	1200.981
178.110	24.411	1511.594	1199.796
179.125	24.301	1510.437	1198.031
180.140	24.550	1509.924	1199.191
181.154	24.487	1508.202	1197.295
182.169	24.629	1508.315	1198.229
183.183	24.528	1506.693	1196.155
184.198	24.798	1506.349	1197.589
185.213	24.714	1505.724	1196.418
186.227	24.871	1504.532	1196.415
187.242	24.914	1504.560	1196.619
188.256	24.589	1503.855	1193.784
189.271	24.908	1501.316	1193.792
190.286	25.073	1500.615	1194.227
191.300	25.064	1499.440	1193.125
192.315	24.660	1498.515	1189.596
193.329	24.524	1496.563	1187.034
194.344	24.532	1497.880	1188.032
195.359	24.586	1496.983	1187.575
196.373	24.477	1494.933	1185.117
197.388	24.550	1492.340	1183.443
198.402	24.254	1491.916	1181.036
199.417	24.438	1490.255	1180.833
200.432	24.745	1491.303	1183.594
201.446	24.955	1490.967	1184.616
202.461	25.009	1490.367	1184.385
203.475	25.090	1488.489	1183.325
204.490	25.142	1487.965	1183.149
205.504	24.799	1486.382	1179.522
206.519	24.476	1486.338	1177.253
207.534	24.457	1484.458	1175.536
208.548	24.548	1483.438	1175.219
209.563	24.323	1482.681	1173.039
210.577	24.343	1481.287	1171.961
211.592	24.320	1480.561	1171.137
212.607	24.282	1479.723	1170.118
213.621	24.721	1479.606	1172.803
214.636	25.033	1479.532	1174.687
215.650	25.062	1477.260	1172.965
216.665	24.715	1476.413	1169.921
217.680	24.629	1475.564	1168.583
218.694	24.715	1475.686	1169.136
219.709	25.184	1474.866	1171.451
220.723	24.848	1473.842	1168.340
221.738	24.556	1472.715	1165.437
222.753	24.905	1472.350	1167.323
223.767	24.839	1471.629	1166.216
224.782	24.569	1470.705	1163.619
225.796	24.459	1469.171	1161.588
226.811	25.007	1468.611	1164.606
227.826	24.922	1467.701	1163.232
228.840	24.753	1467.142	1161.587
229.855	24.703	1466.499	1160.651
230.869	24.586	1464.850	1158.486
231.884	24.818	1464.149	1159.330
232.899	24.566	1462.434	1156.237
233.913	24.398	1461.841	1154.582
234.928	24.146	1460.335	1151.660
235.942	24.271	1460.473	1152.477
236.957	24.504	1458.256	1152.127
237.972	24.532	1456.376	1150.722
238.986	24.177	1455.031	1147.270
240.001	23.960	1455.304	1145.988
241.015	24.141	1454.675	1146.556
242.030	24.190	1453.029	1145.472
243.045	24.236	1452.827	1145.509
244.059	24.546	1451.147	1146.071
245.074	24.460	1451.369	1145.593
246.088	24.592	1450.730	1145.833
247.103	24.839	1450.261	1146.942
248.117	25.155	1448.722	1147.647
249.132	25.060	1448.510	1146.771
250.147	24.870	1448.063	1145.098
251.161	24.972	1449.277	1146.615
252.176	25.323	1448.501	1148.143
253.190	25.496	1446.406	1147.485
254.205	25.477	1445.578	1146.605
255.220	25.455	1445.181	1146.047
256.234	25.605	1444.115	1146.057
257.249	25.856	1444.163	1147.596
258.263	25.530	1443.312	1144.739
259.278	25.441	1441.946	1142.990
260.293	25.404	1441.167	1142.033
261.307	25.511	1439.853	1141.570
262.322	25.657	1439.357	1142.007
263.336	25.549	1439.292	1141.166
264.351	25.479	1438.351	1139.874
265.366	25.444	1437.337	1138.749
266.380	25.314	1435.493	1136.363
267.395	25.500	1435.105	1137.134
268.409	25.588	1434.387	1137.023
269.424	25.501	1433.055	1135.316
270.439	25.129	1433.556	1133.258
271.453	25.287	1431.175	1132.273
272.468	25.466	1429.880	1132.278
273.482	25.080	1429.418	1129.378
274.497	25.098	1428.656	1128.790
275.512	24.857	1427.851	1126.537
276.526	24.960	1426.543	1126.056
277.541	25.117	1425.278	1125.942
278.555	25.129	1424.659	1125.427
279.570	25.137	1424.440	1125.210
280.585	25.409	1423.200	1125.830
281.599	25.483	1422.841	1125.912
282.614	25.453	1422.374	1125.257
283.628	25.399	1420.165	1123.072
284.643	25.089	1420.036	1120.934
285.657	25.356	1418.403	1121.210
286.672	25.249	1418.496	1120.518
287.687	25.144	1416.879	1118.484
288.701	25.154	1416.907	1118.469
289.716	25.412	1415.883	1119.169
290.730	25.238	1414.988	1117.283
291.745	25.068	1414.985	1116.122
292.760	25.207	1413.357	1115.601
293.774	25.295	1412.312	1115.226
294.789	25.368	1410.918	1114.480
295.803	25.324	1411.895	1114.878
296.818	25.610	1411.206	1116.011
297.833	25.523	1409.321	1113.881
298.847	25.409	1407.665	1111.773
299.862	25.237	1406.520	1109.702
300.876	25.308	1405.939	1109.586
301.891	25.116	1405.373	1107.859
302.906	25.155	1404.724	1107.488
303.920	25.186	1405.021	1107.813
304.935	25.641	1403.743	1109.516
305.949	25.799	1403.776	1110.417
306.964	25.755	1402.358	1108.930
307.979	25.782	1401.191	1108.075
308.993	25.728	1400.082	1106.762
310.008	25.377	1399.586	1104.119
311.022	25.627	1397.877	1104.203
312.037	25.625	1397.083	1103.469
313.052	25.731	1396.463	1103.535
314.066	25.595	1395.111	1101.535
315.081	25.201	1393.950	1098.107
316.095	25.237	1393.185	1097.628
317.110	25.101	1390.960	1094.945
318.125	25.222	1391.188	1095.771
319.139	25.096	1390.628	1094.459
320.154	25.208	1388.182	1093.125
321.168	25.144	1388.490	1092.878
322.183	24.788	1387.806	1090.076
323.197	25.254	1386.336	1091.661
324.212	25.163	1385.646	1090.466
325.227	25.320	1384.858	1090.700
326.241	25.288	1384.505	1090.131
327.256	25.415	1382.949	1089.582
328.270	25.275	1383.343	1088.945
329.285	25.089	1381.475	1086.251
330.300	25.079	1380.966	1085.696
331.314	25.311	1379.781	1086.072
332.329	25.561	1379.216	1087.041
333.343	25.330	1377.809	1084.441
334.358	25.123	1376.735	1082.250
335.373	25.242	1376.454	1082.656
336.387	25.733	1375.995	1085.157
337.402	25.509	1376.590	1084.179
338.416	25.499	1376.077	1083.622
339.431	25.768	1375.320	1084.550
340.446	25.679	1375.187	1083.813
341.460	26.049	1372.676	1083.961
342.475	25.865	1372.772	1082.834
343.489	25.949	1372.646	1083.141
344.504	25.830	1371.597	1081.503
345.519	26.082	1369.519	1081.282
346.533	26.117	1369.717	1081.554
347.548	26.017	1369.063	1080.338
348.562	26.332	1366.943	1080.455
349.577	26.235	1367.052	1079.868
350.592	26.093	1365.315	1077.553
351.606	25.858	1364.070	1075.069
352.621	25.618	1363.543	1073.127
353.635	25.536	1361.722	1071.111
354.650	25.217	1361.593	1069.018
355.665	25.189	1360.733	1068.080
356.679	25.416	1359.096	1068.050
357.694	25.336	1358.400	1066.934
358.708	25.693	1357.085	1067.924
359.723	25.549	1357.345	1067.179
360.738	25.711	1355.973	1066.969
361.752	25.773	1355.503	1066.873
362.767	25.871	1352.900	1065.306
363.781	25.732	1352.148	1063.799
364.796	25.788	1351.836	1063.791
365.810	25.646	1351.902	1062.907
366.825	25.814	1351.529	1063.512
367.840	26.044	1351.711	1064.920
368.854	26.173	1350.081	1064.303
369.869	26.368	1350.249	1065.489
370.883	26.316	1349.324	1064.362
371.898	26.355	1347.353	1062.939
372.913	25.938	1347.602	1060.591
373.927	25.693	1346.931	1058.525
374.942	25.810	1345.338	1057.870
375.956	25.998	1344.459	1058.185
376.971	26.183	1344.095	1058.893
377.986	26.181	1342.978	1057.904
379.000	25.873	1342.293	1055.472
380.015	26.227	1342.364	1057.504
381.029	26.387	1341.594	1057.741
382.044	26.417	1339.899	1056.485
383.059	26.555	1339.688	1057.032
384.073	26.417	1339.018	1055.605
385.088	26.128	1339.347	1054.084
386.102	25.980	1337.907	1051.992
387.117	26.143	1337.482	1052.514
388.132	26.170	1336.167	1051.544
389.146	26.067	1335.107	1050.021
390.161	25.978	1333.633	1048.249
391.175	25.950	1333.053	1047.539
392.190	25.670	1333.005	1045.780
393.205	25.725	1331.775	1045.043
394.219	26.275	1331.085	1047.601
395.234	26.381	1330.599	1047.739
396.248	26.131	1329.452	1045.294
397.263	25.884	1327.314	1042.093
398.278	25.667	1326.674	1040.242
399.292	25.782	1324.756	1039.312
400.307	25.967	1323.706	1039.461
401.321	26.045	1323.471	1039.634
402.336	25.967	1322.624	1038.430
403.350	25.775	1321.375	1036.250
404.365	25.479	1320.554	1033.812
405.380	25.715	1319.496	1034.250
406.394	26.095	1318.163	1035.292
407.409	26.105	1317.610	1034.827
408.423	25.831	1317.695	1033.228
409.438	26.219	1317.535	1035.236
410.453	26.167	1316.352	1033.921
411.467	26.314	1316.606	1034.867
412.482	26.520	1315.461	1035.057
413.496	26.297	1315.789	1033.946
414.511	26.436	1314.457	1033.600
415.526	26.502	1312.846	1032.619
416.540	26.459	1312.247	1031.811
417.555	26.690	1311.674	1032.590
418.569	26.831	1311.515	1033.173
419.584	26.660	1311.678	1032.237
420.599	26.615	1309.736	1030.362
421.613	142.688	1435.739	1792.722
422.628	138.360	1454.007	1792.733
