DTS Sentinel unit serial number:	SN413079Multiplexer serial number:	ORYXHardware model number:	OX4-SRSoftware version number:	ORYX F/W v4.00 Oryx Data Collector v3.7.2.0data status	okinstallation	princeton_trtdifferential loss correction	single-endedforward channel	channel 4reverse channel	N/Adate	2019/09/14time	14:49:35forward acquisition time	60.00reverse acquisition time	0.00gamma	496.2192k internal	0.2290k external	0.2290temperature offset calibration	1.0137default loss term (dB/km)	0.3790temperature slope calibration	1.0000multiplexer offset coefficient	1.0000multiplexer slope coefficient	1.0000fibre end	0.00T internal ref (°C)	39.17T ext. ref 1 (°C)	4.97T ext. ref 2 (°C)	33.80length (m)	temperature (°C)	Stokes	anti-Stokes-747.200	-200.000	-0.011	0.256
-746.185	800.000	0.047	0.190
-745.171	82.003	0.072	-0.080
-744.156	-86.118	0.063	0.020
-743.142	-200.000	0.033	0.165
-742.127	-200.000	0.063	0.290
-741.112	-119.601	0.099	0.018
-740.098	140.965	-0.116	-0.158
-739.083	171.494	-0.153	0.225
-738.069	141.550	-0.090	0.122
-737.054	-131.263	0.197	0.027
-736.039	-83.310	-0.363	0.119
-735.025	-69.284	0.100	0.039
-734.010	-70.978	-0.190	-0.073
-732.996	-68.020	0.134	-0.054
-731.981	-200.000	0.012	-0.195
-730.966	-49.993	-0.382	0.185
-729.952	467.480	-0.042	-0.097
-728.937	230.174	-0.109	-0.183
-727.923	59.897	-0.536	-0.542
-726.908	41.490	-0.151	-0.139
-725.894	108.504	0.030	-0.037
-724.879	-8.261	0.154	0.106
-723.864	-78.937	-0.232	-0.081
-722.850	-23.758	-0.153	-0.094
-721.835	589.784	-0.046	-0.117
-720.821	-83.377	-0.146	0.048
-719.806	107.328	-0.226	-0.275
-718.791	-200.000	0.009	-0.069
-717.777	-169.013	-0.080	0.003
-716.762	800.000	0.016	0.064
-715.748	-200.000	-0.055	-0.262
-714.733	-2.526	0.088	-0.063
-713.718	-158.318	0.400	0.024
-712.704	43.836	-0.204	-0.191
-711.689	-84.077	0.069	0.022
-710.675	-13.798	-0.143	-0.094
-709.660	112.821	0.071	-0.088
-708.645	-145.181	-0.293	-0.027
-707.631	-200.000	0.029	0.181
-706.616	156.522	-0.067	-0.094
-705.602	800.000	0.033	0.131
-704.587	-126.818	-0.219	0.033
-703.572	132.661	-0.195	-0.258
-702.558	-99.155	-0.261	0.068
-701.543	324.394	-0.155	0.302
-700.529	-200.000	0.028	0.182
-699.514	-200.000	0.022	-0.264
-698.499	-74.293	-0.374	0.138
-697.485	88.840	0.100	-0.114
-696.470	182.673	-0.071	-0.107
-695.456	149.241	0.155	0.215
-694.441	-144.325	0.186	-0.018
-693.426	27.023	-0.064	0.055
-692.412	800.000	-0.074	0.322
-691.397	201.722	-0.091	0.144
-690.383	272.784	0.094	0.169
-689.368	401.311	0.030	-0.065
-688.354	-101.680	-0.185	-0.046
-687.339	800.000	-0.068	-0.285
-686.324	210.465	-0.136	0.218
-685.310	-110.349	-0.346	-0.073
-684.295	28.491	-0.201	-0.173
-683.281	-200.000	-0.064	-0.523
-682.266	-87.613	-0.156	-0.048
-681.251	-167.382	0.078	-0.003
-680.237	426.588	-0.025	0.054
-679.222	-200.000	-0.018	-0.318
-678.208	-200.000	-0.011	0.289
-677.193	800.000	0.050	0.205
-676.178	355.692	0.143	-0.291
-675.164	-165.813	0.248	-0.011
-674.149	182.495	0.196	0.296
-673.135	104.833	-0.071	-0.086
-672.120	-111.238	-0.211	-0.044
-671.105	-90.148	-0.184	-0.055
-670.091	-23.569	-0.155	-0.095
-669.076	800.000	-0.010	0.032
-668.062	-9.880	0.133	0.090
-667.047	115.600	-0.120	-0.150
-666.032	-26.151	-0.380	-0.228
-665.018	-119.218	0.144	-0.026
-664.003	-56.941	0.238	0.107
-662.989	-43.468	-0.227	-0.117
-661.974	13.488	-0.117	-0.093
-660.959	-15.019	-0.007	0.005
-659.945	-200.000	-0.010	-0.314
-658.930	-47.717	-0.040	0.020
-657.916	-35.886	-0.219	0.121
-656.901	217.612	0.100	0.162
-655.886	-5.251	0.092	-0.064
-654.872	224.607	0.286	0.472
-653.857	-12.980	0.162	0.108
-652.843	-87.445	0.157	-0.048
-651.828	-51.823	0.050	0.024
-650.814	-200.000	-0.008	0.194
-649.799	-200.000	0.000	0.234
-648.784	-102.662	-0.418	0.102
-647.770	77.908	0.287	-0.313
-646.755	-36.755	-0.268	-0.147
-645.741	141.411	-0.068	0.092
-644.726	-200.000	-0.064	0.300
-643.711	-120.883	-0.247	-0.042
-642.697	-32.461	0.131	-0.075
-641.682	-71.864	0.302	0.115
-640.668	-27.850	-0.216	0.128
-639.653	35.624	0.274	0.245
-638.638	-100.399	-0.319	-0.081
-637.624	146.209	-0.175	0.239
-636.609	34.020	-0.095	0.084
-635.595	-127.978	-0.241	0.035
-634.580	-26.399	0.210	-0.125
-633.565	-158.205	0.163	0.010
-632.551	-196.128	0.323	0.002
-631.536	262.695	-0.098	-0.173
-630.522	800.000	0.056	0.164
-629.507	1.182	0.222	0.162
-628.492	225.599	0.225	0.371
-627.478	19.457	0.084	-0.069
-626.463	213.934	0.127	-0.204
-625.449	-125.531	-0.079	0.012
-624.434	-136.048	0.159	0.019
-623.419	122.561	0.147	-0.187
-622.405	-34.434	-0.163	0.091
-621.390	47.526	-0.235	0.223
-620.376	-52.108	-0.234	0.111
-619.361	13.405	-0.043	-0.034
-618.346	-200.000	-0.038	-0.187
-617.332	-38.489	-0.411	-0.221
-616.317	-161.935	0.364	0.019
-615.303	23.721	-0.214	-0.180
-614.288	-200.000	-0.042	0.295
-613.273	-200.000	-0.017	0.175
-612.259	-30.526	-0.150	0.087
-611.244	-56.958	0.119	-0.053
-610.230	429.158	0.074	-0.162
-609.215	204.152	-0.136	-0.214
-608.201	800.000	0.209	-0.651
-607.186	800.000	-0.038	-0.119
-606.171	-154.141	0.283	-0.020
-605.157	183.155	-0.241	0.363
-604.142	-116.989	-0.361	-0.067
-603.128	-117.653	0.058	-0.011
-602.113	800.000	-0.092	0.260
-601.098	551.688	-0.121	-0.297
-600.084	-200.000	0.032	-0.232
-599.069	-29.530	-0.152	-0.089
-598.055	461.245	-0.107	-0.243
-597.040	-200.000	-0.026	-0.280
-596.025	800.000	0.045	-0.161
-595.011	186.185	0.064	0.098
-593.996	157.953	-0.093	0.131
-592.982	-31.849	-0.174	0.099
-591.967	53.465	-0.083	-0.082
-590.952	-200.000	-0.028	-0.292
-589.938	668.278	0.045	-0.119
-588.923	149.961	-0.106	-0.146
-587.909	74.725	-0.157	-0.169
-586.894	21.143	-0.184	0.152
-585.879	800.000	0.026	0.081
-584.865	-20.363	0.233	-0.146
-583.850	375.790	0.074	0.153
-582.836	-61.528	-0.207	0.088
-581.821	-43.080	-0.205	-0.106
-580.806	692.342	-0.040	-0.108
-579.792	-200.000	-0.040	0.212
-578.777	24.955	-0.239	-0.202
-577.763	800.000	0.062	-0.198
-576.748	-200.000	-0.001	0.132
-575.733	-94.255	0.119	-0.033
-574.719	106.267	0.239	-0.288
-573.704	-15.083	-0.163	-0.106
-572.690	96.097	-0.205	-0.239
-571.675	-114.956	0.096	0.019
-570.661	28.936	-0.191	0.165
-569.646	-200.000	-0.018	0.189
-568.631	209.334	-0.022	0.036
-567.617	-87.152	-0.485	-0.150
-566.602	-172.892	0.194	-0.006
-565.588	800.000	0.078	0.235
-564.573	5.493	0.093	-0.070
-563.558	-93.743	0.462	0.129
-562.544	-200.000	-0.001	-0.098
-561.529	800.000	0.064	0.251
-560.515	-125.363	-0.110	0.017
-559.500	-135.129	-0.165	-0.020
-558.485	-200.000	-0.003	0.515
-557.471	-65.515	0.234	-0.096
-556.456	-85.007	0.038	0.012
-555.442	-56.302	-0.083	-0.037
-554.427	-167.665	0.344	0.014
-553.412	63.694	0.226	0.231
-552.398	-23.461	-0.124	0.075
-551.383	-200.000	-0.001	0.160
-550.369	16.440	-0.149	-0.120
-549.354	702.273	0.051	0.136
-548.339	282.346	-0.097	0.176
-547.325	240.783	0.103	-0.174
-546.310	-121.827	0.408	-0.068
-545.296	32.631	0.131	-0.115
-544.281	-108.788	-0.254	-0.055
-543.266	-124.206	-0.177	-0.028
-542.252	-99.756	0.124	0.032
-541.237	-200.000	0.010	-0.061
-540.223	157.631	-0.100	0.140
-539.208	591.064	0.024	0.059
-538.193	327.365	-0.056	-0.110
-537.179	17.494	0.101	0.081
-536.164	-134.609	-0.138	0.017
-535.150	-58.803	0.224	0.099
-534.135	-200.000	0.051	-0.298
-533.121	-18.422	-0.192	-0.122
-532.106	158.025	-0.099	-0.139
-531.091	-200.000	0.008	-0.407
-530.077	231.112	0.086	-0.144
-529.062	61.864	-0.159	0.161
-528.048	-48.395	0.242	0.118
-527.033	-200.000	0.017	0.117
-526.018	103.130	0.259	0.308
-525.004	239.390	0.122	-0.206
-523.989	-48.320	-0.329	-0.161
-522.975	-104.358	-0.246	-0.058
-521.960	333.185	-0.054	-0.106
-520.945	-200.000	-0.053	-0.272
-519.931	-117.969	-0.181	0.033
-518.916	110.081	-0.144	0.176
-517.902	-103.515	-0.411	-0.098
-516.887	637.006	0.046	-0.119
-515.872	-59.416	0.430	-0.188
-514.858	-38.675	-0.176	0.094
-513.843	-93.745	-0.380	0.106
-512.829	-101.232	0.144	-0.036
-511.814	800.000	-0.029	0.082
-510.799	553.278	-0.005	-0.013
-509.785	73.117	0.103	0.110
-508.770	31.653	0.110	0.096
-507.756	281.571	-0.162	0.295
-506.741	43.556	-0.159	0.148
-505.726	56.470	0.321	0.317
-504.712	116.732	0.203	0.253
-503.697	-198.745	0.199	0.001
-502.683	800.000	0.058	0.240
-501.668	128.011	0.177	-0.228
-500.653	-30.797	-0.225	0.129
-499.639	-31.711	0.112	0.064
-498.624	-26.212	-0.290	0.173
-497.610	-200.000	-0.055	0.275
-496.595	-141.998	0.037	0.004
-495.581	328.257	0.238	-0.463
-494.566	800.000	-0.031	0.088
-493.551	377.390	0.202	0.420
-492.537	-200.000	-0.035	0.207
-491.522	-76.930	0.203	0.072
-490.508	68.724	-0.137	-0.143
-489.493	800.000	-0.056	-0.158
-488.478	350.252	0.120	-0.240
-487.464	-156.824	-0.282	-0.018
-486.449	800.000	-0.008	-0.023
-485.435	-88.923	0.214	-0.064
-484.420	36.193	0.085	0.076
-483.405	-113.043	-0.099	0.020
-482.391	-25.816	0.042	-0.025
-481.376	251.625	-0.196	0.338
-480.362	-200.000	-0.036	-0.230
-479.347	2.726	-0.212	-0.156
-478.332	-200.000	-0.010	0.074
-477.318	665.655	0.077	-0.201
-476.303	-114.542	0.492	-0.096
-475.289	-86.706	-0.288	-0.089
-474.274	153.552	-0.142	-0.197
-473.259	-85.850	-0.319	-0.100
-472.245	800.000	-0.042	-0.133
-471.230	-6.217	0.364	0.252
-470.216	-18.998	-0.172	0.109
-469.201	800.000	-0.054	0.163
-468.186	-200.000	0.019	-0.264
-467.172	52.875	0.306	-0.296
-466.157	-200.000	0.049	-0.278
-465.143	-200.000	-0.020	-0.137
-464.128	299.633	-0.188	0.351
-463.113	-88.693	-0.186	-0.056
-462.099	-46.050	0.138	0.069
-461.084	-120.810	0.156	-0.027
-460.070	-18.770	0.104	-0.066
-459.055	-142.327	-0.173	0.017
-458.040	-140.614	-0.297	0.031
-457.026	-170.912	-0.071	0.002
-456.011	-61.197	0.318	0.136
-454.997	70.098	0.099	0.104
-453.982	-60.960	-0.067	0.029
-452.968	-87.384	-0.310	-0.095
-451.953	-108.625	0.038	0.008
-450.938	36.263	0.226	0.201
-449.924	442.649	0.076	0.169
-448.909	7.136	0.219	0.165
-447.895	-124.205	0.138	0.022
-446.880	-38.622	-0.269	-0.144
-445.865	-49.621	0.222	0.107
-444.851	800.000	0.097	-0.317
-443.836	104.333	-0.250	-0.298
-442.822	408.183	0.109	-0.234
-441.807	-29.319	0.164	-0.095
-440.792	-137.695	0.117	-0.013
-439.778	-163.086	0.360	-0.018
-438.763	-129.298	0.321	-0.045
-437.749	-146.850	0.251	0.022
-436.734	223.846	-0.117	-0.192
-435.719	-165.301	-0.521	0.023
-434.705	611.848	-0.117	0.297
-433.690	79.191	0.139	0.151
-432.676	-200.000	-0.041	0.311
-431.661	11.960	0.162	-0.126
-430.646	67.376	0.066	0.068
-429.632	307.561	-0.110	-0.207
-428.617	-200.000	0.052	-0.265
-427.603	-68.608	-0.262	-0.103
-426.588	-103.587	0.223	0.053
-425.573	44.413	-0.166	0.154
-424.559	322.670	0.153	-0.294
-423.544	58.978	-0.152	-0.151
-422.530	800.000	0.022	0.073
-421.515	-94.853	-0.091	-0.025
-420.500	237.165	0.044	0.074
-419.486	-98.740	-0.280	0.072
-418.471	-44.528	-0.106	0.054
-417.457	-71.533	-0.288	-0.109
-416.442	463.861	0.162	-0.366
-415.428	216.636	0.161	0.259
-414.413	800.000	-0.058	-0.237
-413.398	44.456	0.175	-0.162
-412.384	-200.000	0.045	-0.288
-411.369	-75.285	0.320	-0.116
-410.355	800.000	0.100	-0.330
-409.340	-62.625	-0.271	-0.114
-408.325	40.505	-0.120	-0.110
-407.311	-200.000	0.001	0.155
-406.296	128.186	0.216	-0.278
-405.282	-167.674	0.080	0.003
-404.267	115.368	-0.136	0.168
-403.252	-110.776	-0.031	0.006
-402.238	-48.556	0.165	0.080
-401.223	184.829	0.111	0.166
-400.209	-200.000	-0.026	-0.183
-399.194	384.299	0.034	-0.071
-398.179	36.171	-0.268	-0.239
-397.165	0.236	0.225	0.162
-396.150	-67.964	0.217	0.086
-395.136	800.000	-0.040	0.112
-394.121	32.396	0.101	0.088
-393.106	-98.584	0.161	-0.041
-392.092	104.630	-0.124	-0.148
-391.077	-126.416	-0.309	0.047
-390.063	-200.000	0.004	0.109
-389.048	695.144	0.095	0.252
-388.033	-200.000	0.014	0.110
-387.019	-18.332	-0.216	-0.136
-386.004	620.615	0.106	0.270
-384.990	-125.168	0.319	0.049
-383.975	-173.870	0.360	-0.011
-382.960	754.702	0.117	0.320
-381.946	-200.000	0.041	0.199
-380.931	-200.000	0.002	-0.010
-379.917	-86.583	0.074	0.023
-378.902	5.535	0.079	-0.059
-377.888	636.091	-0.111	0.285
-376.873	-63.677	-0.224	0.093
-375.858	800.000	0.062	0.201
-374.844	-82.504	-0.211	0.069
-373.829	-102.148	-0.381	-0.093
-372.815	-3.491	0.211	0.148
-371.800	175.199	-0.031	0.045
-370.785	-43.017	0.269	-0.138
-369.771	191.529	-0.011	-0.017
-368.756	422.650	0.021	0.046
-367.742	-182.248	-0.178	0.003
-366.727	192.359	-0.064	0.098
-365.712	800.000	-0.073	0.226
-364.698	262.513	-0.192	-0.336
-363.683	-58.952	-0.241	-0.105
-362.669	-200.000	0.010	-0.175
-361.654	223.009	-0.080	0.130
-360.639	-88.614	-0.400	-0.120
-359.625	-149.292	0.220	-0.018
-358.610	122.694	-0.032	-0.041
-357.596	-125.105	0.133	0.021
-356.581	126.174	0.096	0.123
-355.566	-146.067	0.129	0.012
-354.552	800.000	0.062	0.236
-353.537	800.000	-0.034	-0.141
-352.523	-53.635	-0.252	-0.116
-351.508	-152.920	-0.351	0.025
-350.493	-77.175	-0.191	-0.067
-349.479	12.315	-0.316	0.245
-348.464	220.114	-0.123	-0.199
-347.450	14.323	0.419	0.329
-346.435	30.007	-0.253	0.218
-345.420	-35.884	0.156	0.085
-344.406	278.128	-0.054	-0.097
-343.391	-56.110	0.287	-0.129
-342.377	-200.000	-0.017	0.138
-341.362	-136.375	-0.196	-0.023
-340.348	-74.625	0.180	0.065
-339.333	-112.187	-0.290	-0.059
-338.318	-15.492	-0.102	-0.065
-337.304	-30.054	-0.180	0.103
-336.289	-200.000	0.065	-0.349
-335.275	-0.527	0.157	-0.112
-334.260	29.533	-0.153	-0.131
-333.245	-69.624	0.450	-0.174
-332.231	293.838	-0.051	-0.094
-331.216	6.457	-0.163	0.122
-330.202	575.957	-0.032	0.078
-329.187	800.000	0.056	-0.232
-328.172	-84.513	0.126	0.040
-327.158	-138.163	-0.205	-0.023
-326.143	-62.700	0.211	0.088
-325.129	-79.489	0.296	-0.101
-324.114	-200.000	-0.070	-0.309
-323.099	-53.729	0.219	-0.101
-322.085	-125.862	-0.420	-0.064
-321.070	-151.442	-0.157	-0.012
-320.056	-27.456	0.417	0.244
-319.041	800.000	0.075	-0.220
-318.026	284.016	-0.134	0.242
-317.012	-200.000	-0.029	0.184
-315.997	800.000	0.033	0.113
-314.983	-166.336	-0.086	0.004
-313.968	128.026	-0.245	0.314
-312.953	-60.336	-0.053	0.023
-311.939	-81.943	-0.264	-0.087
-310.924	-122.330	0.212	0.035
-309.910	-8.006	0.031	0.021
-308.895	7.238	-0.133	0.100
-307.880	700.858	-0.041	0.109
-306.866	302.667	0.143	0.267
-305.851	-200.000	0.012	-0.074
-304.837	-200.000	-0.003	0.161
-303.822	-173.166	0.214	-0.007
-302.807	24.722	-0.034	0.029
-301.793	-101.194	-0.075	0.018
-300.778	191.602	0.012	-0.018
-299.764	-67.619	0.156	0.062
-298.749	-103.468	0.162	-0.038
-297.735	-3.169	-0.202	-0.142
-296.720	713.892	-0.093	0.249
-295.705	-13.127	-0.102	0.067
-294.691	800.000	-0.037	0.109
-293.676	327.051	0.069	0.134
-292.662	-200.000	-0.003	0.035
-291.647	-57.454	0.299	0.132
-290.632	-46.561	-0.261	0.129
-289.618	-30.364	0.344	0.196
-288.603	18.118	0.241	0.193
-287.589	800.000	0.035	-0.129
-286.574	17.661	0.250	-0.200
-285.559	197.512	0.043	0.066
-284.545	-200.000	-0.006	0.165
-283.530	-53.526	0.148	0.068
-282.516	-200.000	-0.024	-0.209
-281.501	32.425	0.245	0.213
-280.486	800.000	-0.133	0.422
-279.472	276.975	0.098	-0.176
-278.457	-79.537	0.094	-0.032
-277.443	-125.274	0.253	0.039
-276.428	-52.115	0.074	0.034
-275.413	-74.339	0.060	-0.022
-274.399	-200.000	-0.021	-0.111
-273.384	-84.454	0.382	0.121
-272.370	-200.000	-0.009	0.384
-271.355	-29.366	0.141	0.081
-270.340	-57.271	-0.352	0.156
-269.326	21.751	-0.128	-0.105
-268.311	293.703	-0.071	-0.130
-267.297	249.668	0.246	-0.419
-266.282	178.434	0.188	0.277
-265.267	-47.249	-0.106	0.052
-264.253	-200.000	0.023	-0.253
-263.238	-144.869	-0.035	0.003
-262.224	-200.000	0.008	-0.384
-261.209	7.611	0.087	0.065
-260.195	135.727	0.118	-0.154
-259.180	-120.207	0.043	0.007
-258.165	-200.000	0.039	0.220
-257.151	16.418	-0.103	-0.082
-256.136	82.037	-0.199	-0.217
-255.122	-170.900	0.270	-0.009
-254.107	-16.350	-0.283	0.180
-253.092	-200.000	0.006	0.240
-252.078	80.196	-0.243	0.262
-251.063	-200.000	-0.059	0.449
-250.049	-200.000	0.008	0.359
-249.034	-47.468	-0.215	-0.105
-248.019	-200.000	0.009	0.120
-247.005	247.537	0.113	0.191
-245.990	-126.649	0.314	0.047
-244.976	306.021	-0.059	0.109
-243.961	-97.105	0.340	0.089
-242.946	-127.611	0.307	0.045
-241.932	800.000	0.035	-0.130
-240.917	-18.238	-0.203	0.128
-239.903	130.297	0.076	-0.098
-238.888	-64.386	0.312	-0.128
-237.873	-129.731	-0.285	-0.039
-236.859	800.000	-0.052	-0.190
-235.844	18.758	0.158	0.127
-234.830	-79.532	0.239	0.081
-233.815	140.600	0.095	-0.126
-232.800	70.681	0.183	0.190
-231.786	800.000	0.050	-0.168
-230.771	-53.207	0.201	0.093
-229.757	-32.537	0.013	0.007
-228.742	-80.914	0.203	-0.068
-227.727	47.266	-0.244	0.229
-226.713	-38.657	0.330	-0.175
-225.698	800.000	-0.104	-0.329
-224.684	-7.540	0.179	-0.121
-223.669	188.117	0.183	-0.274
-222.655	-200.000	0.042	-0.398
-221.640	-200.000	0.012	0.233
-220.625	134.184	0.170	-0.222
-219.611	96.290	-0.050	0.057
-218.596	-24.347	-0.385	-0.230
-217.582	61.055	-0.091	0.090
-216.567	-106.757	-0.169	0.038
-215.552	11.874	-0.121	0.094
-214.538	265.127	-0.114	0.199
-213.523	85.154	0.080	0.088
-212.509	20.692	-0.172	0.140
-211.494	-61.334	-0.196	-0.083
-210.479	271.739	-0.209	-0.369
-209.465	-200.000	-0.010	0.319
-208.450	-24.683	-0.074	-0.044
-207.436	201.940	-0.069	-0.106
-206.421	-200.000	-0.013	-0.290
-205.406	-54.814	-0.180	0.082
-204.392	424.931	0.038	0.082
-203.377	82.655	-0.168	-0.183
-202.363	92.435	0.209	-0.236
-201.348	-34.775	-0.249	0.136
-200.333	196.340	-0.126	0.193
-199.319	-141.582	0.208	0.021
-198.304	120.568	-0.182	0.226
-197.290	800.000	-0.054	-0.166
-196.275	137.537	0.049	-0.064
-195.260	53.300	-0.221	0.212
-194.246	400.484	-0.092	-0.194
-193.231	294.829	-0.097	0.177
-192.217	575.722	-0.095	0.233
-191.202	-152.771	0.182	0.013
-190.187	620.940	-0.047	-0.118
-189.173	56.920	0.041	0.040
-188.158	-102.579	0.219	0.052
-187.144	5.555	-0.279	-0.207
-186.129	197.027	0.266	0.406
-185.114	123.213	0.149	0.188
-184.100	47.883	-0.121	0.113
-183.085	-141.677	0.372	0.037
-182.071	453.038	-0.094	-0.208
-181.056	-39.258	0.216	0.113
-180.042	-50.887	-0.144	-0.068
-179.027	-158.971	0.064	0.004
-178.012	-72.328	0.347	-0.129
-176.998	40.419	0.190	0.171
-175.983	-56.397	-0.157	-0.070
-174.969	800.000	-0.032	0.111
-173.954	41.135	0.258	-0.233
-172.939	54.598	-0.232	-0.224
-171.925	1.593	-0.116	-0.083
-170.910	800.000	0.070	-0.276
-169.896	45.315	-0.230	-0.213
-168.881	-125.768	0.184	0.028
-167.866	53.086	-0.029	-0.028
-166.852	29.026	0.143	-0.122
-165.837	-55.256	-0.363	0.163
-164.823	264.076	-0.066	-0.116
-163.808	75.126	-0.112	0.118
-162.793	-200.000	-0.021	-0.223
-161.779	65.329	-0.195	-0.198
-160.764	-37.567	0.328	-0.175
-159.750	-103.585	0.083	-0.020
-158.735	800.000	-0.033	-0.128
-157.720	-200.000	-0.010	-0.057
-156.706	-76.103	0.080	0.028
-155.691	348.382	-0.056	-0.111
-154.677	230.774	0.075	-0.123
-153.662	-200.000	-0.017	-0.079
-152.647	-8.100	-0.192	-0.130
-151.633	-86.316	-0.317	0.098
-150.618	800.000	0.060	0.249
-149.604	-68.205	0.085	0.033
-148.589	-200.000	-0.003	0.079
-147.574	-125.198	0.268	-0.041
-146.560	143.473	-0.246	0.328
-145.545	-138.787	-0.313	-0.034
-144.531	168.585	0.072	0.103
-143.516	-56.809	0.108	-0.048
-142.502	175.891	0.133	0.193
-141.487	800.000	-0.031	0.100
-140.472	-145.470	-0.159	-0.014
-139.458	-138.120	0.205	0.023
-138.443	800.000	0.136	0.437
-137.429	-43.526	-0.199	0.100
-136.414	270.446	0.088	0.155
-135.399	800.000	0.059	0.183
-134.385	800.000	0.010	0.035
-133.370	-164.385	-0.128	0.006
-132.356	-76.430	-0.279	0.098
-131.341	432.691	0.102	0.222
-130.326	-200.000	-0.166	-0.001
-129.312	-200.000	-0.077	0.489
-128.297	-55.406	0.327	-0.147
-127.283	-200.000	-0.036	-0.271
-126.268	800.000	-0.043	-0.138
-125.253	-200.000	-0.006	0.058
-124.239	800.000	0.017	0.069
-123.224	-200.000	0.026	0.282
-122.210	341.536	0.092	0.180
-121.195	-82.124	-0.056	-0.018
-120.180	63.584	-0.155	0.156
-119.166	-200.000	-0.004	-0.387
-118.151	242.769	0.243	-0.407
-117.137	-119.180	-0.099	0.017
-116.122	-65.513	0.126	0.051
-115.107	-8.361	0.096	-0.064
-114.093	64.695	-0.067	0.067
-113.078	179.334	-0.275	0.402
-112.064	319.675	0.156	0.296
-111.049	515.154	-0.130	0.303
-110.034	37.177	0.081	-0.071
-109.020	17.361	-0.064	-0.051
-108.005	800.000	0.083	-0.251
-106.991	-49.687	-0.116	0.055
-105.976	31.081	0.163	-0.140
-104.962	125.679	-0.430	-0.543
-103.947	-73.814	0.133	-0.048
-102.932	17.261	0.142	-0.113
-101.918	-89.747	-0.172	-0.050
-100.903	-200.000	0.033	-0.549
-99.889	740.298	0.053	-0.142
-98.874	-153.957	0.347	-0.024
-97.859	-46.625	-0.170	-0.083
-96.845	8.413	-0.329	-0.247
-95.830	800.000	0.048	-0.176
-94.816	413.507	0.040	-0.086
-93.801	687.565	0.090	0.236
-92.786	-73.417	-0.031	-0.011
-91.772	1.553	0.120	-0.086
-90.757	104.532	-0.309	0.364
-89.743	137.069	0.076	0.099
-88.728	295.274	0.073	-0.134
-87.713	-200.000	-0.021	0.308
-86.699	-200.000	-0.008	-0.335
-85.684	800.000	-0.031	-0.137
-84.670	-3.512	0.135	-0.094
-83.655	-200.000	0.125	-0.598
-82.640	-39.438	0.215	-0.113
-81.626	-94.805	-0.096	0.026
-80.611	-35.059	-0.315	0.171
-79.597	-97.023	-0.236	0.062
-78.582	149.027	-0.044	0.059
-77.567	-177.215	0.152	-0.004
-76.553	539.617	0.113	0.268
-75.538	181.280	0.109	0.160
-74.524	-154.727	-0.131	0.009
-73.509	-38.109	0.171	-0.090
-72.494	-43.420	-0.130	0.065
-71.480	-104.572	0.165	-0.038
-70.465	49.335	0.053	-0.049
-69.451	-122.132	-0.011	-0.002
-68.436	93.860	0.098	-0.110
-67.422	145.152	-0.155	-0.207
-66.407	270.067	-0.070	0.123
-65.392	126.723	0.228	0.288
-64.378	-10.434	-0.069	0.046
-63.363	62.900	-0.129	-0.129
-62.349	153.483	0.156	0.213
-61.334	37.963	-0.886	-0.786
-60.319	132.103	0.182	0.233
-59.305	-200.000	-0.153	-0.710
-58.290	189.369	0.677	1.012
-57.276	350.042	0.797	1.571
-56.261	-200.000	81.421	493.307
-55.246	547.658	1361.872	3250.679
-54.232	181.299	2597.455	3808.107
-53.217	111.257	2390.334	2872.085
-52.203	45.527	2128.388	1959.473
-51.188	40.841	2036.113	1831.393
-50.173	39.229	2015.647	1798.183
-49.159	51.321	2056.718	1946.650
-48.144	54.899	2077.540	1999.351
-47.130	41.755	2039.870	1842.912
-46.115	39.242	2028.567	1809.540
-45.100	39.182	2025.555	1806.237
-44.086	39.095	2023.553	1803.583
-43.071	39.031	2021.448	1801.047
-42.057	39.027	2019.375	1799.088
-41.042	39.156	2016.707	1797.819
-40.027	39.046	2015.332	1795.514
-39.013	39.112	2013.028	1793.994
-37.998	39.172	2010.980	1792.646
-36.984	39.115	2009.492	1790.727
-35.969	39.040	2007.955	1788.606
-34.954	39.017	2005.865	1786.463
-33.940	39.153	2004.618	1786.523
-32.925	39.082	2002.994	1784.359
-31.911	39.156	2001.043	1783.218
-30.896	39.186	1999.077	1781.671
-29.881	39.212	1997.887	1780.776
-28.867	39.189	1996.233	1779.016
-27.852	39.208	1993.909	1777.047
-26.838	39.258	1991.798	1775.552
-25.823	39.224	1990.027	1773.597
-24.809	39.170	1988.412	1771.595
-23.794	39.241	1986.809	1770.734
-22.779	39.199	1984.906	1768.592
-21.765	39.245	1982.772	1767.033
-20.750	39.226	1981.444	1765.609
-19.736	39.185	1979.779	1763.694
-18.721	39.265	1977.769	1762.547
-17.706	39.227	1976.643	1761.130
-16.692	39.164	1974.734	1758.796
-15.677	39.142	1973.300	1757.254
-14.663	39.178	1972.257	1756.577
-13.648	39.267	1970.765	1755.970
-12.633	39.254	1969.437	1754.603
-11.619	39.147	1968.450	1752.706
-10.604	39.224	1966.289	1751.393
-9.590	39.193	1964.954	1749.858
-8.575	39.141	1964.021	1748.496
-7.560	39.197	1962.246	1747.344
-6.546	39.188	1960.902	1746.002
-5.531	39.119	1959.797	1744.334
-4.517	39.105	1958.787	1743.242
-3.502	39.143	1957.457	1742.324
-2.487	39.128	1955.915	1740.748
-1.473	39.135	1954.902	1739.843
-0.458	39.372	1950.368	1737.831
0.556	40.407	1929.715	1707.674
1.571	35.580	1908.725	1647.666
2.586	30.803	1928.559	1623.117
3.600	29.187	1965.732	1639.886
4.615	27.656	1959.639	1621.059
5.629	20.996	1854.347	1477.595
6.644	10.418	1729.237	1293.745
7.659	5.380	1688.449	1223.768
8.673	4.947	1684.618	1217.499
9.688	4.918	1682.999	1215.995
10.702	4.993	1681.543	1215.416
11.717	5.032	1678.295	1213.268
12.731	5.537	1678.054	1216.912
13.746	11.929	1694.081	1278.463
14.761	20.131	1712.067	1356.368
15.775	21.929	1712.511	1370.659
16.790	20.527	1708.878	1356.695
17.804	19.580	1704.787	1345.947
18.819	18.481	1702.073	1335.129
19.834	17.742	1699.718	1327.418
20.848	17.532	1697.524	1323.954
21.863	17.281	1696.688	1321.232
22.877	17.011	1694.853	1317.586
23.892	16.851	1693.509	1315.186
24.907	16.834	1692.426	1314.094
25.921	16.862	1691.145	1313.204
26.936	16.731	1690.425	1311.516
27.950	16.800	1689.305	1311.060
28.965	16.871	1688.816	1311.117
29.980	16.857	1687.936	1310.209
30.994	16.879	1687.284	1309.755
32.009	17.118	1685.818	1310.348
33.023	17.071	1685.367	1309.517
34.038	17.205	1684.137	1309.482
35.053	17.098	1683.048	1307.690
36.067	16.999	1681.855	1305.890
37.082	16.950	1680.719	1304.512
38.096	16.905	1679.449	1303.066
39.111	17.018	1678.836	1303.341
40.126	17.014	1678.018	1302.563
41.140	17.059	1676.991	1301.996
42.155	16.907	1675.020	1299.184
43.169	16.727	1673.904	1296.828
44.184	16.636	1672.923	1295.251
45.199	16.619	1671.525	1293.925
46.213	16.593	1670.436	1292.771
47.228	16.636	1669.404	1292.188
48.242	16.737	1668.484	1292.128
49.257	16.882	1667.327	1292.228
50.271	16.922	1665.933	1291.334
51.286	16.822	1665.034	1289.762
52.301	16.860	1663.540	1288.778
53.315	16.979	1661.413	1287.923
54.330	16.930	1660.143	1286.452
55.344	16.800	1658.425	1284.019
56.359	16.725	1657.016	1282.246
57.374	16.680	1656.335	1281.269
58.388	16.730	1655.508	1280.890
59.403	16.747	1653.695	1279.506
60.417	16.652	1652.217	1277.530
61.432	16.619	1651.425	1276.560
62.447	16.600	1649.890	1275.119
63.461	16.619	1649.023	1274.474
64.476	16.424	1648.112	1272.187
65.490	16.535	1646.282	1271.501
66.505	16.465	1645.443	1270.218
67.520	16.530	1644.452	1269.827
68.534	16.533	1643.235	1268.797
69.549	16.572	1642.140	1268.131
70.563	16.598	1641.119	1267.420
71.578	16.581	1639.692	1266.081
72.593	16.488	1638.476	1264.337
73.607	16.437	1637.568	1263.141
74.622	16.437	1636.417	1262.146
75.636	16.410	1635.500	1261.121
76.651	16.318	1635.203	1260.093
77.666	16.437	1634.350	1260.215
78.680	16.391	1633.465	1259.079
79.695	16.458	1632.695	1258.873
80.709	16.438	1631.585	1257.757
81.724	16.592	1630.830	1258.204
82.739	16.613	1630.036	1257.640
83.753	16.740	1628.745	1257.475
84.768	16.807	1627.809	1257.134
85.782	16.870	1627.408	1257.187
86.797	16.962	1626.359	1256.943
87.812	16.994	1625.506	1256.410
88.826	16.912	1624.338	1254.787
89.841	16.832	1623.046	1253.092
90.855	16.889	1622.247	1252.784
91.870	16.817	1621.555	1251.606
92.884	16.939	1620.334	1251.455
93.899	17.006	1619.573	1251.251
94.914	16.963	1617.989	1249.595
95.928	17.048	1616.577	1249.021
96.943	17.041	1615.732	1248.205
97.957	17.003	1613.980	1246.465
98.972	17.011	1611.974	1244.866
99.987	16.932	1611.112	1243.510
101.001	17.017	1609.107	1242.476
102.016	16.917	1608.105	1240.856
103.030	16.967	1606.343	1239.752
104.045	16.992	1604.827	1238.659
105.060	16.970	1603.714	1237.525
106.074	16.850	1602.026	1235.239
107.089	16.857	1600.304	1233.855
108.103	16.567	1599.012	1230.639
109.118	16.519	1597.451	1228.979
110.133	16.605	1596.134	1228.484
111.147	16.451	1595.078	1226.445
112.162	16.565	1593.495	1225.943
113.176	16.581	1591.966	1224.779
114.191	16.657	1590.401	1224.011
115.206	16.719	1589.267	1223.482
116.220	16.743	1587.985	1222.560
117.235	16.659	1586.764	1220.905
118.249	16.684	1585.528	1220.029
119.264	16.637	1584.429	1218.736
120.279	16.624	1583.072	1217.493
121.293	16.541	1581.385	1215.488
122.308	16.577	1579.824	1214.436
123.322	16.363	1578.774	1211.989
124.337	16.499	1577.099	1211.573
125.352	16.488	1575.770	1210.367
126.366	16.505	1574.165	1209.143
127.381	16.505	1573.401	1208.448
128.395	16.425	1572.682	1207.220
129.410	16.527	1571.010	1206.559
130.424	16.513	1569.865	1205.473
131.439	16.542	1568.816	1204.765
132.454	16.619	1566.959	1203.778
133.468	16.667	1565.710	1203.056
134.483	16.675	1564.335	1201.953
135.497	16.731	1563.299	1201.443
136.512	16.702	1562.171	1200.266
137.527	16.794	1560.208	1199.304
138.541	16.779	1558.970	1198.142
139.556	16.718	1558.023	1196.873
140.570	16.851	1556.358	1196.428
141.585	16.928	1555.089	1195.893
142.600	17.014	1553.763	1195.369
143.614	17.078	1552.997	1195.129
144.629	17.011	1551.767	1193.606
145.643	17.079	1550.222	1192.786
146.658	17.088	1548.761	1191.617
147.673	17.065	1547.660	1190.510
148.687	16.991	1545.692	1188.371
149.702	17.040	1543.698	1187.074
150.716	16.921	1542.319	1185.073
151.731	16.838	1541.326	1183.628
152.746	16.894	1540.033	1182.924
153.760	16.764	1538.857	1181.007
154.775	16.819	1537.834	1180.501
155.789	16.876	1536.769	1179.976
156.804	17.061	1534.514	1179.422
157.819	16.961	1533.783	1178.068
158.833	17.092	1532.652	1177.999
159.848	17.107	1531.535	1177.145
160.862	17.192	1530.728	1177.011
161.877	17.138	1529.683	1175.728
162.892	17.086	1528.159	1174.092
163.906	17.013	1526.652	1172.325
164.921	16.859	1525.561	1170.318
165.935	16.898	1524.529	1169.691
166.950	16.817	1524.064	1168.672
167.964	16.965	1522.447	1168.352
168.979	17.071	1521.273	1168.075
169.994	17.003	1520.374	1166.815
171.008	16.950	1519.531	1165.700
172.023	16.969	1518.315	1164.795
173.037	17.101	1516.781	1164.424
174.052	17.177	1516.066	1164.291
175.067	17.127	1515.299	1163.253
176.081	17.080	1514.120	1161.924
177.096	17.004	1512.168	1159.804
178.110	16.988	1511.322	1158.946
179.125	16.923	1510.188	1157.530
180.140	17.053	1508.831	1157.269
181.154	17.032	1507.830	1156.258
182.169	17.152	1506.779	1156.169
183.183	17.090	1505.674	1154.797
184.198	17.155	1504.682	1154.377
185.213	17.319	1503.720	1154.650
186.227	17.333	1502.385	1153.616
187.242	17.336	1501.481	1152.842
188.256	17.367	1500.299	1152.041
189.271	17.438	1499.154	1151.543
190.286	17.412	1498.919	1151.080
191.300	17.397	1497.658	1149.913
192.315	17.131	1495.911	1146.672
193.329	16.881	1494.526	1143.824
194.344	16.988	1493.598	1143.732
195.359	16.986	1492.290	1142.613
196.373	17.019	1491.658	1142.255
197.388	17.186	1490.567	1142.441
198.402	17.307	1489.308	1142.187
199.417	17.431	1487.971	1141.891
200.432	17.535	1487.552	1142.168
201.446	17.604	1486.459	1141.691
202.461	17.637	1485.216	1140.851
203.475	17.577	1484.407	1139.727
204.490	17.765	1483.223	1139.976
205.504	17.657	1482.111	1138.298
206.519	17.622	1480.483	1136.716
207.534	17.528	1479.245	1135.038
208.548	17.407	1478.680	1133.698
209.563	17.535	1477.468	1133.520
210.577	17.506	1476.782	1132.698
211.592	17.459	1475.768	1131.511
212.607	17.608	1474.524	1131.449
213.621	17.615	1474.633	1131.477
214.636	17.662	1473.306	1130.669
215.650	17.610	1472.379	1129.512
216.665	17.570	1471.551	1128.515
217.680	17.624	1470.541	1127.995
218.694	17.700	1470.038	1128.010
219.709	17.814	1469.082	1127.936
220.723	17.937	1468.053	1127.855
221.738	17.773	1467.349	1126.132
222.753	17.739	1466.251	1124.967
223.767	17.677	1465.734	1124.061
224.782	17.676	1464.868	1123.290
225.796	17.759	1463.113	1122.390
226.811	17.786	1462.566	1122.050
227.826	17.913	1461.593	1122.041
228.840	17.966	1460.287	1121.287
229.855	17.784	1459.620	1119.481
230.869	17.779	1458.736	1118.668
231.884	17.857	1457.477	1118.116
232.899	17.736	1456.309	1116.330
233.913	17.697	1455.111	1115.059
234.928	17.662	1454.236	1114.059
235.942	17.734	1452.526	1113.118
236.957	17.691	1451.423	1111.898
237.972	17.624	1450.725	1110.828
238.986	17.686	1449.199	1109.967
240.001	17.753	1448.375	1109.673
241.015	17.873	1447.168	1109.427
242.030	17.738	1446.478	1107.923
243.045	17.763	1445.452	1107.203
244.059	17.835	1444.540	1106.875
245.074	17.899	1443.474	1106.370
246.088	17.925	1442.776	1105.905
247.103	18.035	1441.910	1105.858
248.117	18.041	1440.953	1105.064
249.132	18.050	1440.568	1104.733
250.147	18.186	1439.860	1104.968
251.161	18.252	1439.510	1105.028
252.176	18.263	1439.164	1104.735
253.190	18.440	1438.148	1104.997
254.205	18.413	1437.767	1104.437
255.220	18.529	1436.064	1103.774
256.234	18.498	1435.458	1103.016
257.249	18.540	1434.766	1102.655
258.263	18.520	1433.974	1101.821
259.278	18.516	1433.483	1101.319
260.293	18.448	1431.988	1099.637
261.307	18.485	1431.408	1099.329
262.322	18.586	1430.529	1099.209
263.336	18.556	1429.930	1098.458
264.351	18.598	1428.978	1097.898
265.366	18.535	1427.805	1096.493
266.380	18.683	1426.796	1096.572
267.395	18.680	1425.771	1095.667
268.409	18.713	1425.006	1095.190
269.424	18.689	1423.830	1094.036
270.439	18.564	1422.794	1092.349
271.453	18.507	1421.828	1091.149
272.468	18.568	1420.939	1090.758
273.482	18.587	1420.030	1090.084
274.497	18.526	1419.206	1088.969
275.512	18.484	1418.527	1088.084
276.526	18.500	1417.699	1087.449
277.541	18.574	1416.754	1087.103
278.555	18.624	1415.728	1086.533
279.570	18.506	1415.131	1085.235
280.585	18.630	1414.201	1085.207
281.599	18.777	1413.178	1085.255
282.614	18.930	1412.060	1085.269
283.628	18.792	1411.079	1083.545
284.643	18.656	1410.088	1081.831
285.657	18.620	1408.854	1080.561
286.672	18.779	1407.804	1080.663
287.687	18.715	1406.919	1079.483
288.701	18.695	1406.048	1078.599
289.716	18.670	1405.387	1077.838
290.730	18.804	1404.665	1078.026
291.745	18.724	1402.997	1076.150
292.760	18.768	1402.257	1075.762
293.774	18.800	1401.028	1074.928
294.789	18.762	1400.333	1074.058
295.803	18.896	1399.664	1074.288
296.818	19.002	1398.727	1074.139
297.833	18.856	1397.787	1072.410
298.847	18.873	1396.833	1071.687
299.862	18.817	1395.883	1070.518
300.876	18.854	1394.776	1069.805
301.891	18.887	1393.655	1069.052
302.906	18.889	1393.157	1068.591
303.920	18.986	1392.817	1068.834
304.935	19.151	1391.937	1069.093
305.949	19.153	1391.092	1068.360
306.964	19.134	1390.720	1067.861
307.979	19.231	1389.581	1067.496
308.993	19.216	1388.187	1066.235
310.008	19.179	1386.951	1064.965
311.022	19.167	1386.065	1064.116
312.037	19.245	1385.087	1063.751
313.052	19.313	1384.164	1063.369
314.066	19.301	1383.039	1062.335
315.081	19.105	1381.943	1060.192
316.095	19.103	1380.773	1059.187
317.110	19.010	1379.965	1057.906
318.125	18.868	1379.327	1056.446
319.139	19.016	1378.271	1056.452
320.154	18.953	1377.146	1055.113
321.168	19.037	1375.908	1054.583
322.183	19.104	1374.798	1054.052
323.197	19.093	1374.078	1053.339
324.212	19.094	1373.310	1052.664
325.227	19.130	1372.606	1052.249
326.241	19.164	1371.785	1051.737
327.256	19.117	1370.773	1050.580
328.270	19.252	1369.760	1050.531
329.285	19.085	1369.324	1049.089
330.300	19.172	1368.141	1048.621
331.314	19.099	1367.303	1047.440
332.329	19.181	1366.040	1046.881
333.343	19.121	1365.259	1045.822
334.358	19.269	1364.381	1045.956
335.373	19.208	1364.110	1045.283
336.387	19.312	1363.253	1045.167
337.402	19.246	1362.311	1043.949
338.416	19.469	1361.151	1044.322
339.431	19.489	1360.712	1044.010
340.446	19.491	1360.102	1043.463
341.460	19.430	1359.371	1042.443
342.475	19.626	1358.576	1042.923
343.489	19.746	1357.118	1042.436
344.504	19.709	1356.275	1041.472
345.519	19.750	1355.660	1041.156
346.533	19.697	1355.076	1040.294
347.548	19.790	1354.092	1040.011
348.562	19.765	1353.635	1039.415
349.577	19.821	1352.408	1038.717
350.592	19.830	1351.604	1038.064
351.606	19.713	1350.328	1036.290
352.621	19.627	1349.082	1034.723
353.635	19.504	1348.482	1033.438
354.650	19.528	1347.307	1032.591
355.665	19.519	1346.084	1031.506
356.679	19.598	1345.366	1031.337
357.694	19.637	1344.320	1030.676
358.708	19.614	1343.195	1029.585
359.723	19.598	1342.171	1028.616
360.738	19.753	1341.061	1028.593
361.752	19.766	1339.709	1027.541
362.767	19.855	1338.700	1027.209
363.781	19.746	1338.166	1026.062
364.796	19.763	1337.360	1025.451
365.810	19.709	1337.275	1024.976
366.825	19.895	1336.398	1025.317
367.840	20.057	1335.114	1025.199
368.854	20.043	1334.526	1024.573
369.869	20.063	1334.448	1024.541
370.883	20.098	1333.486	1023.920
371.898	20.097	1332.552	1023.102
372.913	20.026	1332.083	1022.233
373.927	20.014	1331.020	1021.257
374.942	19.976	1330.392	1020.462
375.956	20.014	1329.286	1019.745
376.971	20.137	1328.493	1019.770
377.986	20.142	1327.687	1019.093
379.000	20.076	1327.048	1018.121
380.015	20.219	1325.901	1017.993
381.029	20.205	1325.710	1017.675
382.044	20.259	1324.903	1017.282
383.059	20.262	1324.114	1016.604
384.073	20.341	1323.276	1016.331
385.088	20.341	1322.627	1015.744
386.102	20.315	1321.790	1014.861
387.117	20.306	1321.290	1014.333
388.132	20.295	1320.503	1013.576
389.146	20.267	1319.492	1012.548
390.161	20.097	1318.794	1010.927
391.175	20.140	1317.868	1010.379
392.190	20.071	1317.079	1009.284
393.205	20.154	1316.474	1009.213
394.219	20.332	1315.467	1009.389
395.234	20.369	1314.263	1008.588
396.248	20.499	1312.498	1007.903
397.263	20.248	1311.618	1005.681
398.278	20.226	1310.348	1004.491
399.292	20.402	1308.557	1004.043
400.307	20.141	1307.821	1001.884
401.321	20.043	1307.275	1000.813
402.336	20.203	1305.770	1000.495
403.350	20.173	1304.565	999.309
404.365	20.199	1303.814	998.793
405.380	20.166	1303.172	998.023
406.394	20.279	1302.001	997.687
407.409	20.395	1301.723	998.056
408.423	20.310	1300.957	996.890
409.438	20.485	1300.062	997.121
410.453	20.596	1299.436	997.192
411.467	20.583	1298.821	996.556
412.482	20.553	1298.310	995.904
413.496	20.697	1297.476	995.998
414.511	20.692	1296.971	995.496
415.526	20.745	1296.391	995.267
416.540	20.814	1295.575	994.946
417.555	20.773	1294.649	993.912
418.569	20.864	1294.522	994.245
419.584	20.826	1293.616	993.242
420.599	20.809	1293.050	992.626
421.613	136.669	1423.277	1760.677
422.628	132.286	1442.238	1760.775
