DTS Sentinel unit serial number:	SN413079Multiplexer serial number:	ORYXHardware model number:	OX4-SRSoftware version number:	ORYX F/W v4.00 Oryx Data Collector v3.7.2.0data status	okinstallation	princeton_trtdifferential loss correction	single-endedforward channel	channel 4reverse channel	N/Adate	2019/09/14time	05:05:35forward acquisition time	60.00reverse acquisition time	0.00gamma	496.2192k internal	0.2320k external	0.2320temperature offset calibration	1.0135default loss term (dB/km)	0.3790temperature slope calibration	1.0000multiplexer offset coefficient	1.0000multiplexer slope coefficient	1.0000fibre end	0.00T internal ref (°C)	26.87T ext. ref 1 (°C)	3.38T ext. ref 2 (°C)	22.00length (m)	temperature (°C)	Stokes	anti-Stokes-747.200	69.516	0.154	0.160
-746.185	62.515	0.117	0.118
-745.171	800.000	-0.018	0.077
-744.156	24.375	-0.258	0.215
-743.142	800.000	-0.014	-0.057
-742.127	-200.000	0.015	0.064
-741.112	-22.928	0.089	-0.054
-740.098	-200.000	0.012	0.086
-739.083	-114.518	0.165	0.032
-738.069	-139.942	0.110	-0.012
-737.054	-138.112	0.341	-0.038
-736.039	71.876	-0.277	-0.291
-735.025	-152.165	-0.079	-0.006
-734.010	-77.824	-0.103	0.036
-732.996	115.673	-0.138	0.171
-731.981	563.283	0.119	-0.290
-730.966	72.475	0.077	0.081
-729.952	800.000	-0.083	0.288
-728.937	-91.261	0.461	0.133
-727.923	33.692	-0.204	0.180
-726.908	-44.877	-0.316	-0.159
-725.894	-11.566	0.133	0.088
-724.879	-200.000	-0.006	-0.118
-723.864	190.565	-0.224	-0.341
-722.850	215.875	-0.091	-0.146
-721.835	-200.000	-0.003	0.158
-720.821	79.787	-0.162	-0.176
-719.806	-107.945	-0.083	0.018
-718.791	-130.355	0.112	0.015
-717.777	128.079	0.262	-0.336
-716.762	-13.683	-0.120	0.079
-715.748	-22.683	-0.151	-0.092
-714.733	310.860	-0.192	0.363
-713.718	-200.000	0.005	0.038
-712.704	27.050	0.077	0.065
-711.689	800.000	-0.148	0.499
-710.675	-78.188	-0.196	0.068
-709.660	-139.810	-0.188	0.020
-708.645	-143.949	0.232	0.022
-707.631	82.651	-0.157	-0.173
-706.616	800.000	0.028	0.101
-705.602	495.325	-0.004	-0.009
-704.587	-104.748	-0.047	0.011
-703.572	-138.539	0.472	0.052
-702.558	-157.097	0.155	-0.010
-701.543	-200.000	0.025	-0.160
-700.529	-174.522	0.240	0.007
-699.514	-91.596	0.306	0.088
-698.499	-159.018	0.452	-0.026
-697.485	-17.754	-0.120	0.076
-696.470	-200.000	0.006	-0.334
-695.456	-200.000	-0.054	0.249
-694.441	-96.067	-0.208	-0.056
-693.426	6.895	0.033	-0.025
-692.412	-141.943	-0.099	-0.010
-691.397	17.828	0.189	0.152
-690.383	-13.000	0.108	-0.071
-689.368	-133.559	-0.198	0.025
-688.354	-124.006	-0.143	0.023
-687.339	800.000	-0.027	0.105
-686.324	5.445	0.291	0.217
-685.310	-29.933	0.394	0.227
-684.295	-183.024	0.316	-0.006
-683.281	-14.447	-0.174	0.113
-682.266	-200.000	-0.007	-0.076
-681.251	-200.000	-0.004	-0.102
-680.237	-30.356	-0.363	0.208
-679.222	800.000	-0.032	0.138
-678.208	-28.755	-0.362	0.210
-677.193	-29.441	-0.391	-0.225
-676.178	44.056	0.191	-0.177
-675.164	-126.833	0.177	-0.026
-674.149	-86.187	-0.440	0.137
-673.135	-70.748	-0.209	0.079
-672.120	143.113	0.174	-0.233
-671.105	128.693	-0.079	0.102
-670.091	-154.904	-0.090	-0.006
-669.076	20.849	0.254	0.208
-668.062	302.769	-0.051	0.095
-667.047	-37.939	-0.301	-0.161
-666.032	-12.284	-0.116	-0.077
-665.018	-63.561	-0.132	-0.055
-664.003	63.820	0.103	0.104
-662.989	-136.994	0.046	0.005
-661.974	-17.772	0.101	0.064
-660.959	-24.601	-0.057	-0.034
-659.945	-200.000	-0.023	0.272
-658.930	-200.000	0.298	0.001
-657.916	-77.026	-0.058	-0.021
-656.901	800.000	0.090	-0.285
-655.886	-54.345	0.256	0.117
-654.872	67.154	0.328	-0.337
-653.857	254.743	-0.081	-0.139
-652.843	800.000	0.011	0.033
-651.828	-200.000	0.010	0.276
-650.814	-200.000	0.014	0.256
-649.799	-136.327	0.255	-0.030
-648.784	800.000	0.056	0.201
-647.770	800.000	0.047	0.170
-646.755	593.885	-0.029	-0.072
-645.741	-200.000	0.050	-0.246
-644.726	148.159	0.155	-0.210
-643.711	-126.120	-0.324	0.049
-642.697	800.000	0.085	0.323
-641.682	-143.022	-0.270	0.026
-640.668	107.822	-0.134	0.160
-639.653	-80.560	-0.312	-0.105
-638.638	-133.465	0.274	-0.035
-637.624	-86.890	0.296	-0.091
-636.609	-153.823	-0.241	-0.017
-635.595	284.019	-0.054	-0.098
-634.580	377.162	-0.117	-0.240
-633.565	270.656	-0.081	-0.144
-632.551	-4.897	0.174	-0.121
-631.536	800.000	0.034	-0.112
-630.522	208.581	0.155	-0.243
-629.507	66.940	0.091	-0.094
-628.492	-200.000	-0.002	-0.033
-627.478	14.880	-0.165	0.130
-626.463	283.363	0.028	0.050
-625.449	800.000	-0.055	0.232
-624.434	-132.009	0.077	-0.010
-623.419	436.905	0.133	-0.292
-622.405	20.785	-0.242	0.197
-621.390	-88.092	0.526	-0.159
-620.376	88.820	-0.166	-0.186
-619.361	-200.000	0.047	-0.227
-618.346	-200.000	-0.391	0.000
-617.332	259.947	0.128	0.222
-616.317	83.520	-0.198	0.217
-615.303	286.973	-0.056	0.102
-614.288	96.764	-0.242	0.279
-613.273	116.788	-0.230	-0.284
-612.259	35.583	0.132	0.117
-611.244	-200.000	0.044	0.217
-610.230	453.779	0.043	0.095
-609.215	240.555	0.024	-0.039
-608.201	800.000	-0.068	-0.245
-607.186	-61.814	-0.048	0.020
-606.171	185.147	0.083	0.123
-605.157	800.000	-0.043	0.173
-604.142	-75.260	-0.339	-0.122
-603.128	800.000	-0.058	-0.253
-602.113	115.662	0.169	-0.208
-601.098	67.768	0.126	-0.129
-600.084	108.809	0.142	-0.171
-599.069	800.000	-0.071	-0.242
-598.055	165.135	0.209	-0.296
-597.040	120.457	0.178	-0.222
-596.025	126.440	0.098	-0.124
-595.011	233.153	-0.221	-0.366
-593.996	527.110	-0.014	0.032
-592.982	-104.981	0.286	-0.066
-591.967	-17.355	-0.206	-0.130
-590.952	-122.137	-0.210	-0.035
-589.938	-167.500	0.129	0.005
-588.923	-200.000	0.036	-0.166
-587.909	8.345	-0.159	0.120
-586.894	-158.763	0.137	-0.008
-585.879	-200.000	-0.025	0.520
-584.865	55.109	0.149	0.144
-583.850	-200.000	0.008	0.421
-582.836	295.804	0.169	0.311
-581.821	-200.000	-0.024	0.468
-580.806	75.019	-0.163	0.173
-579.792	99.275	-0.100	-0.116
-578.777	160.397	0.089	-0.125
-577.763	-154.017	0.126	-0.009
-576.748	54.078	0.131	0.127
-575.733	-200.000	0.010	-0.211
-574.719	81.639	0.155	0.169
-573.704	800.000	0.104	0.329
-572.690	-0.755	0.205	-0.146
-571.675	122.972	-0.116	0.145
-570.661	134.854	-0.224	0.293
-569.646	113.223	-0.060	-0.074
-568.631	29.010	0.133	0.113
-567.617	-91.281	-0.333	0.096
-566.602	-200.000	-0.025	-0.476
-565.588	48.295	0.044	0.041
-564.573	54.403	-0.102	0.098
-563.558	178.377	-0.060	0.088
-562.544	152.408	0.103	0.141
-561.529	-146.294	0.138	-0.012
-560.515	-200.000	-0.036	-0.258
-559.500	-108.283	-0.274	0.059
-558.485	-9.955	0.033	0.022
-557.471	800.000	0.128	-0.386
-556.456	-200.000	-0.038	-0.338
-555.442	-200.000	-0.066	-0.421
-554.427	164.749	-0.095	-0.135
-553.412	-62.480	0.191	-0.080
-552.398	-200.000	-0.004	-0.072
-551.383	20.981	0.187	0.152
-550.369	57.478	0.053	0.052
-549.354	27.140	0.277	-0.233
-548.339	-200.000	0.019	-0.199
-547.325	800.000	-0.035	-0.106
-546.310	-200.000	0.003	0.277
-545.296	-41.154	-0.120	-0.062
-544.281	46.081	-0.158	-0.147
-543.266	-25.433	-0.176	-0.104
-542.252	12.675	0.249	0.193
-541.237	-200.000	0.004	-0.254
-540.223	-200.000	0.017	-0.286
-539.208	39.796	-0.116	0.105
-538.193	-132.621	-0.306	0.039
-537.179	-51.000	-0.277	-0.130
-536.164	800.000	0.028	0.078
-535.150	-143.274	-0.205	0.020
-534.135	-90.042	0.351	0.103
-533.121	13.840	0.112	-0.087
-532.106	-145.806	-0.225	-0.020
-531.091	450.070	-0.193	-0.427
-530.077	-200.000	-0.013	-0.087
-529.062	77.173	-0.207	-0.221
-528.048	-200.000	-0.035	0.300
-527.033	-200.000	0.039	-0.252
-526.018	178.199	0.078	-0.114
-525.004	800.000	0.006	0.023
-523.989	-34.122	-0.236	0.130
-522.975	85.822	-0.185	-0.204
-521.960	-66.097	-0.302	-0.121
-520.945	228.216	-0.168	-0.275
-519.931	55.081	0.204	-0.198
-518.916	186.146	-0.101	0.150
-517.902	800.000	0.030	-0.109
-516.887	-14.700	-0.109	-0.070
-515.872	-35.684	0.020	-0.011
-514.858	304.136	-0.097	0.180
-513.843	-106.433	0.147	-0.033
-512.829	71.654	-0.046	-0.048
-511.814	288.416	-0.058	0.105
-510.799	-82.145	-0.249	-0.081
-509.785	165.879	0.064	0.091
-508.770	-56.275	-0.041	-0.018
-507.756	-48.979	-0.121	0.058
-506.741	-3.143	0.065	0.046
-505.726	800.000	-0.051	-0.212
-504.712	-75.182	-0.112	-0.040
-503.697	241.971	-0.165	-0.277
-502.683	-200.000	0.055	0.307
-501.668	-51.227	-0.028	-0.013
-500.653	117.405	0.187	-0.230
-499.639	543.991	-0.115	0.276
-498.624	800.000	0.056	0.183
-497.610	-200.000	0.081	0.455
-496.595	-121.653	0.149	0.025
-495.581	-77.640	-0.258	-0.089
-494.566	665.906	-0.124	0.319
-493.551	-43.139	0.120	-0.061
-492.537	-116.721	-0.260	0.048
-491.522	-127.083	-0.106	-0.016
-490.508	321.937	0.109	0.208
-489.493	-90.543	-0.416	0.120
-488.478	89.239	-0.040	0.044
-487.464	-200.000	0.027	-0.171
-486.449	-41.922	0.121	-0.062
-485.435	-200.000	-0.023	0.187
-484.420	308.538	-0.102	-0.191
-483.405	142.184	-0.090	-0.120
-482.391	-84.908	-0.057	-0.018
-481.376	732.059	-0.143	-0.383
-480.362	-100.846	0.163	-0.040
-479.347	-135.181	0.226	-0.027
-478.332	153.476	0.187	0.256
-477.318	-21.253	-0.198	0.121
-476.303	-200.000	-0.000	0.102
-475.289	800.000	0.116	0.370
-474.274	-200.000	0.035	-0.174
-473.259	800.000	-0.080	-0.264
-472.245	-5.606	0.039	0.027
-471.230	-185.944	-0.563	-0.008
-470.216	800.000	-0.031	-0.087
-469.201	800.000	-0.013	0.039
-468.186	210.887	-0.055	-0.086
-467.172	201.690	-0.197	0.303
-466.157	-166.044	0.400	0.017
-465.143	675.079	0.049	-0.127
-464.128	626.303	-0.034	0.087
-463.113	88.501	-0.088	-0.098
-462.099	24.675	-0.457	-0.378
-461.084	470.042	0.028	0.062
-460.070	-200.000	0.007	0.126
-459.055	620.143	0.025	0.062
-458.040	-28.078	0.275	0.159
-457.026	-42.740	-0.082	-0.042
-456.011	-127.427	0.181	0.026
-454.997	800.000	-0.099	-0.366
-453.982	-149.328	-0.210	-0.017
-452.968	129.146	-0.200	-0.256
-451.953	800.000	0.027	-0.080
-450.938	215.795	-0.167	-0.265
-449.924	450.678	-0.037	-0.082
-448.909	641.759	-0.030	-0.075
-447.895	130.671	-0.089	-0.115
-446.880	430.037	0.080	-0.173
-445.865	-85.235	-0.421	-0.131
-444.851	-182.313	-0.146	-0.003
-443.836	115.510	0.143	-0.174
-442.822	418.746	0.031	-0.066
-441.807	121.649	0.089	-0.111
-440.792	21.781	-0.141	0.115
-439.778	-115.209	0.120	0.023
-438.763	-112.505	-0.393	-0.078
-437.749	-173.760	-0.239	0.007
-436.734	-21.041	0.062	-0.038
-435.719	256.312	-0.054	0.092
-434.705	-60.023	0.198	0.085
-433.690	-200.000	0.010	-0.113
-432.676	398.110	-0.077	-0.161
-431.661	-200.000	-0.019	-0.202
-430.646	453.837	0.106	-0.235
-429.632	-62.346	0.274	-0.114
-428.617	186.456	-0.172	-0.256
-427.603	-68.195	0.156	0.061
-426.588	800.000	-0.091	0.315
-425.573	240.618	-0.177	-0.296
-424.559	79.947	-0.078	0.084
-423.544	-200.000	0.015	0.304
-422.530	-113.295	-0.141	0.028
-421.515	332.968	-0.022	-0.042
-420.500	-93.722	0.072	-0.020
-419.486	-42.129	0.273	0.140
-418.471	-120.489	-0.181	0.031
-417.457	149.317	-0.089	-0.120
-416.442	-122.939	0.321	0.052
-415.428	-63.609	-0.128	0.052
-414.413	-107.566	0.274	-0.060
-413.398	-97.998	-0.395	0.102
-412.384	-175.259	-0.090	0.002
-411.369	683.723	-0.024	-0.062
-410.355	-102.024	0.253	-0.061
-409.340	-200.000	0.012	-0.354
-408.325	323.139	-0.079	0.150
-407.311	-200.000	0.002	-0.251
-406.296	-65.951	0.179	-0.071
-405.282	-27.592	0.185	0.107
-404.267	47.735	0.139	-0.129
-403.252	95.557	-0.134	0.153
-402.238	800.000	-0.017	-0.052
-401.223	-200.000	-0.001	-0.062
-400.209	-8.323	0.214	0.144
-399.194	-200.000	-0.032	0.165
-398.179	-82.789	-0.232	0.075
-397.165	-200.000	-0.059	-0.270
-396.150	-107.570	-0.122	0.027
-395.136	32.593	0.099	-0.085
-394.121	-61.046	0.270	0.114
-393.106	418.133	0.054	0.116
-392.092	182.919	-0.035	-0.051
-391.077	-200.000	0.019	0.202
-390.063	458.329	0.105	0.233
-389.048	30.856	-0.042	-0.036
-388.033	-130.740	0.191	0.026
-387.019	-3.956	0.140	-0.097
-386.004	-85.732	-0.215	-0.067
-384.990	220.416	-0.047	0.075
-383.975	84.114	-0.145	0.158
-382.960	120.670	-0.209	0.260
-381.946	800.000	0.052	-0.184
-380.931	800.000	-0.050	0.209
-379.917	-54.136	-0.197	-0.089
-378.902	-27.945	-0.347	-0.200
-377.888	800.000	0.026	-0.098
-376.873	59.762	0.381	0.375
-375.858	196.734	-0.109	-0.165
-374.844	21.312	-0.145	0.117
-373.829	-200.000	-0.025	0.207
-372.815	421.558	0.135	0.289
-371.800	-119.430	0.399	-0.069
-370.785	318.853	-0.079	-0.149
-369.771	-168.252	-0.095	0.004
-368.756	593.833	0.071	0.174
-367.742	-57.463	0.373	-0.163
-366.727	-68.426	0.086	0.033
-365.712	-35.348	-0.284	0.154
-364.698	681.973	0.145	-0.377
-363.683	-28.740	0.074	0.042
-362.669	41.306	0.175	-0.157
-361.654	396.275	0.193	-0.401
-360.639	-168.374	-0.201	-0.008
-359.625	-109.037	-0.227	-0.048
-358.610	4.298	0.300	-0.219
-357.596	-116.530	-0.224	-0.041
-356.581	800.000	0.069	-0.196
-355.566	800.000	0.086	-0.243
-354.552	42.019	0.132	0.119
-353.537	-116.625	-0.327	0.060
-352.523	800.000	0.142	-0.517
-351.508	-171.958	-0.150	0.005
-350.493	-200.000	0.022	0.250
-349.479	66.877	-0.231	0.234
-348.464	800.000	0.027	0.116
-347.450	-12.655	0.038	0.025
-346.435	63.417	0.086	-0.086
-345.420	-97.130	0.176	-0.046
-344.406	-200.000	0.050	0.273
-343.391	-96.227	0.119	0.032
-342.377	-63.480	0.158	0.065
-341.362	-118.809	0.264	-0.046
-340.348	6.150	0.090	0.067
-339.333	-72.405	0.240	0.088
-338.318	146.826	0.008	-0.010
-337.304	-200.000	0.003	-0.253
-336.289	38.203	-0.137	-0.121
-335.275	146.446	-0.116	-0.156
-334.260	84.470	0.164	0.179
-333.245	-130.026	-0.275	0.037
-332.231	-62.563	0.312	0.129
-331.216	-95.095	-0.044	-0.012
-330.202	800.000	0.049	-0.211
-329.187	25.589	0.349	-0.289
-328.172	800.000	-0.048	-0.193
-327.158	-200.000	0.004	0.040
-326.143	800.000	-0.098	0.395
-325.129	136.070	0.163	-0.211
-324.114	-64.382	0.105	0.042
-323.099	-198.778	-0.357	-0.002
-322.085	-200.000	0.041	0.273
-321.070	800.000	0.051	-0.182
-320.056	-200.000	0.013	0.382
-319.041	167.689	0.065	0.092
-318.026	98.957	0.106	0.122
-317.012	133.963	0.086	-0.110
-315.997	-200.000	-0.002	0.154
-314.983	114.363	0.172	-0.208
-313.968	169.022	0.052	0.074
-312.953	499.686	0.103	0.235
-311.939	-200.000	0.001	-0.007
-310.924	-45.828	0.307	0.151
-309.910	800.000	0.053	0.157
-308.895	-200.000	-0.034	-0.200
-307.880	-51.523	0.355	-0.165
-306.866	516.186	-0.045	0.104
-305.851	127.522	0.060	0.076
-304.837	-200.000	0.020	0.183
-303.822	-101.461	0.317	-0.077
-302.807	-141.604	0.300	0.030
-301.793	-150.884	0.020	0.001
-300.778	147.062	0.101	0.135
-299.764	-81.724	0.166	0.054
-298.749	-175.609	0.520	-0.014
-297.735	-8.241	0.297	-0.199
-296.720	-200.000	0.013	-0.107
-295.705	147.603	-0.154	0.207
-294.691	134.530	-0.086	0.111
-293.676	-112.050	0.168	0.034
-292.662	-70.397	-0.275	-0.104
-291.647	726.579	0.075	0.198
-290.632	-72.563	-0.267	0.098
-289.618	800.000	0.013	0.055
-288.603	-26.575	0.272	-0.158
-287.589	78.037	-0.219	-0.232
-286.574	-22.283	-0.214	0.129
-285.559	608.275	0.042	0.103
-284.545	-15.526	-0.299	-0.190
-283.530	247.862	0.073	0.122
-282.516	223.439	0.149	0.239
-281.501	194.652	0.076	0.115
-280.486	800.000	0.145	0.441
-279.472	50.878	0.300	-0.282
-278.457	-21.473	-0.108	0.065
-277.443	-29.807	-0.114	-0.065
-276.428	-79.085	0.189	-0.064
-275.413	-71.389	-0.150	0.056
-274.399	-100.211	-0.282	0.070
-273.384	256.878	0.070	-0.119
-272.370	151.683	-0.224	0.303
-271.355	22.718	-0.072	-0.059
-270.340	32.850	0.215	-0.185
-269.326	4.628	0.135	-0.098
-268.311	-4.850	0.182	-0.125
-267.297	-103.373	0.089	0.021
-266.282	84.310	-0.074	0.080
-265.267	173.505	0.047	-0.067
-264.253	424.713	0.092	-0.196
-263.238	-137.172	0.202	-0.023
-262.224	-200.000	0.006	-0.083
-261.209	142.964	0.022	0.029
-260.195	108.747	-0.141	-0.168
-259.180	800.000	0.033	0.129
-258.165	228.595	-0.077	0.124
-257.151	128.019	0.157	0.198
-256.136	102.491	-0.227	0.264
-255.122	270.359	-0.047	-0.081
-254.107	205.325	0.122	0.188
-253.092	-58.569	-0.200	-0.086
-252.078	75.472	0.164	0.172
-251.063	-82.459	-0.303	0.098
-250.049	-101.425	0.159	0.038
-249.034	3.374	-0.141	0.102
-248.019	-103.793	0.189	-0.044
-247.005	142.428	0.075	0.098
-245.990	213.940	0.292	0.459
-244.976	153.716	-0.202	0.274
-243.961	595.205	-0.164	0.401
-242.946	-200.000	0.033	-0.214
-241.932	721.412	0.094	-0.248
-240.917	-12.233	-0.331	-0.214
-239.903	-36.597	-0.081	0.043
-238.888	-109.429	-0.199	-0.042
-237.873	-142.235	-0.542	0.053
-236.859	100.141	-0.101	-0.116
-235.844	63.152	0.173	0.172
-234.830	-200.000	0.020	-0.365
-233.815	-15.699	0.183	0.116
-232.800	345.471	-0.071	0.138
-231.786	43.569	-0.162	0.147
-230.771	-200.000	0.004	0.085
-229.757	-152.515	0.138	-0.010
-228.742	80.022	-0.197	-0.210
-227.727	179.876	-0.266	0.386
-226.713	-103.801	0.238	0.055
-225.698	-200.000	-0.031	-0.152
-224.684	-200.000	-0.018	-0.401
-223.669	-143.965	-0.120	0.011
-222.655	-200.000	0.009	0.070
-221.640	151.476	-0.138	0.186
-220.625	-121.596	0.163	-0.027
-219.611	-133.733	0.027	0.003
-218.596	-200.000	0.019	0.254
-217.582	65.856	-0.195	0.196
-216.567	-63.767	-0.231	-0.094
-215.552	149.301	0.316	0.423
-214.538	-200.000	0.005	0.121
-213.523	-135.540	0.179	0.021
-212.509	-200.000	-0.058	-0.320
-211.494	-66.138	-0.057	-0.022
-210.479	-15.397	0.239	-0.151
-209.465	-75.017	0.127	0.045
-208.450	800.000	-0.015	-0.053
-207.436	-62.200	-0.172	0.071
-206.421	-168.087	-0.334	0.013
-205.406	122.773	-0.066	-0.082
-204.392	211.760	0.026	-0.040
-203.377	-200.000	0.057	-0.360
-202.363	-200.000	0.041	0.507
-201.348	-130.402	0.123	0.017
-200.333	-162.479	-0.360	-0.018
-199.319	-44.763	0.040	0.020
-198.304	74.687	0.101	-0.105
-197.290	-200.000	0.021	0.142
-196.275	69.319	0.083	-0.084
-195.260	-200.000	0.017	0.178
-194.246	800.000	-0.130	0.466
-193.231	-93.610	0.341	0.093
-192.217	-33.618	-0.226	0.123
-191.202	-49.996	-0.245	0.115
-190.187	120.095	-0.110	0.135
-189.173	23.426	0.284	0.231
-188.158	-200.000	0.049	0.341
-187.144	4.089	0.094	-0.068
-186.129	-79.136	0.196	0.066
-185.114	246.865	0.120	0.201
-184.100	-5.485	0.244	-0.166
-183.085	-200.000	-0.001	-0.046
-182.071	800.000	-0.064	0.224
-181.056	130.677	-0.011	0.014
-180.042	-15.673	-0.296	-0.187
-179.027	446.956	0.126	0.274
-178.012	7.203	-0.058	0.043
-176.998	82.560	0.386	-0.415
-175.983	-200.000	-0.071	-0.349
-174.969	-79.267	-0.240	0.080
-173.954	-10.806	0.252	-0.164
-172.939	-200.000	-0.016	-0.071
-171.925	16.897	0.384	0.301
-170.910	-53.663	-0.130	0.059
-169.896	-74.511	-0.166	-0.059
-168.881	641.458	0.180	0.454
-167.866	-65.992	0.157	-0.062
-166.852	-200.000	0.008	0.235
-165.837	800.000	-0.075	0.265
-164.823	201.494	-0.118	-0.180
-163.808	-200.000	-0.021	-0.148
-162.793	-76.028	0.342	-0.120
-161.779	-120.942	-0.346	0.058
-160.764	537.277	0.111	0.260
-159.750	-67.091	0.240	0.093
-158.735	-200.000	-0.016	0.448
-157.720	-10.361	0.349	-0.229
-156.706	141.656	-0.132	-0.173
-155.691	205.574	0.095	0.145
-154.677	348.917	-0.178	-0.347
-153.662	63.757	-0.242	0.240
-152.647	92.780	-0.091	-0.102
-151.633	-151.069	0.315	0.023
-150.618	-132.659	0.114	0.014
-149.604	20.857	0.044	-0.036
-148.589	-200.000	-0.031	0.185
-147.574	-200.000	-0.018	-0.129
-146.560	379.467	-0.065	0.131
-145.545	179.794	0.051	0.074
-144.531	6.077	-0.057	0.042
-143.516	726.522	-0.037	-0.098
-142.502	425.913	-0.087	0.186
-141.487	-53.366	0.501	-0.227
-140.472	280.516	0.025	0.043
-139.458	-123.178	0.145	-0.023
-138.443	-71.725	-0.134	0.049
-137.429	-200.000	-0.047	0.316
-136.414	-36.470	0.367	0.195
-135.399	87.585	-0.054	-0.059
-134.385	-86.002	0.145	0.044
-133.370	-105.700	0.299	-0.067
-132.356	593.545	0.065	0.158
-131.341	-200.000	-0.010	-0.210
-130.326	-200.000	0.009	0.047
-129.312	-19.524	0.262	-0.160
-128.297	-200.000	0.004	-0.086
-127.283	14.982	-0.011	0.008
-126.268	-104.375	0.096	-0.022
-125.253	-8.184	0.041	0.028
-124.239	-136.788	-0.192	-0.022
-123.224	245.558	0.274	0.455
-122.210	-6.114	0.023	0.016
-121.195	800.000	0.045	-0.166
-120.180	66.137	-0.236	0.237
-119.166	-14.424	-0.214	0.136
-118.151	737.175	0.005	-0.013
-117.137	-200.000	-0.031	0.157
-116.122	505.965	-0.082	0.187
-115.107	89.218	0.035	-0.038
-114.093	800.000	-0.010	0.034
-113.078	181.959	0.109	0.158
-112.064	-41.604	0.105	-0.053
-111.049	216.082	-0.058	0.090
-110.034	-200.000	-0.061	-0.288
-109.020	276.169	0.129	-0.226
-108.005	392.116	-0.026	-0.054
-106.991	-166.929	0.040	0.002
-105.976	-23.125	0.182	-0.108
-104.962	-134.950	-0.128	0.015
-103.947	800.000	-0.141	0.420
-102.932	136.306	-0.126	0.162
-101.918	53.742	-0.201	-0.190
-100.903	-200.000	0.041	-0.185
-99.889	-200.000	0.021	0.226
-98.874	-116.404	-0.549	0.100
-97.859	151.602	0.106	-0.142
-96.845	-200.000	0.028	-0.247
-95.830	-200.000	0.017	-0.081
-94.816	-72.479	-0.107	-0.039
-93.801	149.894	-0.061	-0.081
-92.786	111.796	0.038	-0.046
-91.772	30.277	-0.198	-0.167
-90.757	109.747	0.120	0.142
-89.743	68.037	0.260	0.262
-88.728	-137.578	-0.125	-0.014
-87.713	-92.430	0.248	0.069
-86.699	106.231	-0.157	0.184
-85.684	86.351	0.160	0.174
-84.670	9.856	-0.172	-0.128
-83.655	381.317	0.031	-0.063
-82.640	396.769	0.123	-0.253
-81.626	293.505	-0.066	-0.119
-80.611	385.912	0.095	-0.194
-79.597	223.470	-0.068	0.108
-78.582	-82.880	-0.272	-0.087
-77.567	651.327	0.066	-0.166
-76.553	49.835	-0.181	-0.168
-75.538	-200.000	0.048	0.368
-74.524	-119.364	0.113	-0.019
-73.509	83.628	0.120	0.129
-72.494	164.872	-0.075	0.105
-71.480	800.000	0.116	0.456
-70.465	-124.050	0.066	0.010
-69.451	-200.000	-0.311	0.001
-68.436	-74.362	-0.129	-0.046
-67.422	46.190	0.100	0.091
-66.407	75.341	0.157	0.163
-65.392	59.372	-0.270	0.262
-64.378	131.998	-0.116	0.147
-63.363	-157.187	-0.190	0.011
-62.349	800.000	-0.040	-0.144
-61.334	142.765	-0.843	-1.103
-60.319	48.949	0.586	0.542
-59.305	-200.000	-0.207	-1.037
-58.290	377.089	0.692	1.392
-57.276	800.000	0.585	1.595
-56.261	-200.000	115.804	661.281
-55.246	524.433	1531.739	3545.876
-54.232	172.247	2715.871	3843.963
-53.217	98.761	2337.156	2654.213
-52.203	33.610	2080.604	1779.723
-51.188	28.632	1995.003	1661.509
-50.173	27.317	1977.743	1635.254
-49.159	45.902	2038.400	1855.528
-48.144	44.369	2053.122	1854.877
-47.130	29.265	2011.334	1680.612
-46.115	26.938	2000.695	1650.527
-45.100	26.761	1998.386	1646.948
-44.086	26.840	1995.478	1645.200
-43.071	26.807	1992.716	1642.558
-42.057	26.667	1990.990	1639.804
-41.042	26.730	1988.997	1638.669
-40.027	26.727	1987.007	1636.939
-39.013	26.723	1984.981	1635.162
-37.998	26.721	1983.665	1633.997
-36.984	26.759	1981.737	1632.684
-35.969	26.776	1979.390	1630.846
-34.954	26.814	1977.288	1629.391
-33.940	26.844	1976.361	1628.829
-32.925	26.876	1974.809	1627.769
-31.911	26.866	1973.230	1626.317
-30.896	26.913	1971.122	1624.940
-29.881	26.867	1969.667	1623.257
-28.867	26.910	1968.235	1622.399
-27.852	26.848	1966.279	1620.171
-26.838	26.851	1964.878	1618.978
-25.823	26.895	1963.101	1617.845
-24.809	26.936	1960.684	1616.155
-23.794	26.887	1959.441	1614.623
-22.779	26.891	1957.578	1613.063
-21.765	26.983	1955.452	1612.060
-20.750	26.913	1954.042	1610.211
-19.736	26.982	1952.554	1609.533
-18.721	26.945	1950.903	1607.786
-17.706	26.893	1949.622	1606.209
-16.692	26.922	1947.468	1604.625
-15.677	26.924	1946.061	1603.415
-14.663	26.904	1945.109	1602.395
-13.648	26.878	1943.723	1600.959
-12.633	26.894	1942.288	1599.852
-11.619	26.864	1940.928	1598.408
-10.604	26.936	1939.318	1597.648
-9.590	26.895	1938.337	1596.417
-8.575	26.865	1936.659	1594.711
-7.560	26.907	1935.374	1593.959
-6.546	26.984	1934.098	1593.519
-5.531	26.930	1932.821	1591.925
-4.517	26.836	1931.727	1590.143
-3.502	26.840	1930.931	1589.455
-2.487	26.920	1929.318	1588.771
-1.473	26.910	1928.492	1587.935
-0.458	26.949	1923.656	1584.235
0.556	27.756	1904.142	1556.559
1.571	23.631	1886.013	1506.664
2.586	19.893	1909.372	1493.005
3.600	18.953	1944.795	1512.310
4.615	18.432	1938.258	1502.523
5.629	14.024	1836.643	1386.925
6.644	6.867	1722.170	1244.181
7.659	3.645	1689.459	1195.526
8.673	3.375	1686.177	1191.008
9.688	3.387	1685.115	1190.251
10.702	3.362	1683.542	1188.835
11.717	3.406	1680.000	1186.572
12.731	3.778	1679.119	1188.707
13.746	8.560	1691.072	1234.032
14.761	16.246	1707.747	1305.768
15.775	19.978	1713.335	1338.832
16.790	20.286	1712.926	1340.782
17.804	19.403	1709.255	1330.977
18.819	18.328	1706.442	1320.381
19.834	17.642	1703.931	1313.039
20.848	17.452	1702.742	1310.539
21.863	17.304	1701.434	1308.280
22.877	17.095	1700.203	1305.613
23.892	16.934	1698.751	1303.147
24.907	16.781	1697.672	1301.029
25.921	16.881	1696.257	1300.592
26.936	16.834	1695.039	1299.188
27.950	16.779	1694.242	1298.036
28.965	16.896	1693.833	1298.502
29.980	16.997	1693.141	1298.632
30.994	17.043	1692.180	1298.135
32.009	17.231	1690.662	1298.293
33.023	17.166	1690.032	1297.198
34.038	17.189	1689.319	1296.706
35.053	17.120	1688.375	1295.342
36.067	17.079	1686.707	1293.635
37.082	16.920	1685.940	1291.723
38.096	17.126	1684.033	1291.715
39.111	17.071	1683.871	1291.061
40.126	17.092	1683.032	1290.456
41.140	17.113	1682.264	1289.914
42.155	16.938	1680.367	1287.018
43.169	16.755	1679.214	1284.635
44.184	16.702	1677.371	1282.706
45.199	16.751	1676.197	1282.067
46.213	16.704	1675.125	1280.780
47.228	16.674	1674.558	1280.009
48.242	16.904	1673.619	1280.912
49.257	16.881	1672.943	1280.109
50.271	16.875	1670.990	1278.453
51.286	16.938	1669.776	1277.885
52.301	16.987	1668.584	1277.236
53.315	17.035	1666.505	1275.888
54.330	16.929	1665.792	1274.432
55.344	16.848	1663.765	1272.161
56.359	16.716	1662.424	1270.032
57.374	16.807	1661.153	1269.632
58.388	16.833	1660.215	1268.995
59.403	16.716	1658.573	1266.753
60.417	16.703	1657.280	1265.557
61.432	16.669	1656.235	1264.391
62.447	16.593	1655.350	1263.037
63.461	16.563	1653.858	1261.566
64.476	16.526	1652.748	1260.329
65.490	16.606	1651.222	1259.652
66.505	16.535	1650.381	1258.372
67.520	16.525	1649.398	1257.434
68.534	16.626	1647.958	1256.979
69.549	16.681	1647.124	1256.640
70.563	16.592	1646.038	1255.035
71.578	16.551	1645.285	1254.046
72.593	16.494	1643.866	1252.434
73.607	16.405	1643.471	1251.363
74.622	16.381	1641.706	1249.733
75.636	16.401	1640.639	1248.954
76.651	16.402	1639.665	1248.114
77.666	16.508	1638.890	1248.194
78.680	16.466	1637.667	1246.840
79.695	16.444	1637.851	1246.712
80.709	16.522	1636.316	1246.004
81.724	16.610	1635.788	1246.140
82.739	16.670	1634.812	1245.730
83.753	16.832	1633.749	1245.997
84.768	16.883	1633.039	1245.722
85.782	16.858	1632.777	1245.226
86.797	16.960	1631.332	1244.769
87.812	16.888	1630.931	1243.823
88.826	16.958	1630.155	1243.633
89.841	16.920	1628.584	1242.043
90.855	16.893	1627.958	1241.264
91.870	16.969	1626.890	1240.893
92.884	17.028	1625.283	1239.991
93.899	17.126	1624.320	1239.860
94.914	17.130	1623.234	1238.947
95.928	17.129	1622.143	1237.997
96.943	17.204	1620.980	1237.550
97.957	17.115	1619.231	1235.459
98.972	17.096	1617.641	1233.998
99.987	16.979	1615.899	1231.708
101.001	17.108	1613.936	1231.036
102.016	17.097	1612.952	1230.097
103.030	16.940	1611.923	1228.069
104.045	17.026	1610.443	1227.455
105.060	17.043	1608.965	1226.340
106.074	16.942	1607.766	1224.594
107.089	16.871	1606.096	1222.700
108.103	16.686	1604.355	1219.929
109.118	16.608	1602.783	1218.069
110.133	16.620	1601.033	1216.715
111.147	16.556	1599.709	1215.145
112.162	16.637	1598.575	1214.759
113.176	16.529	1597.335	1212.933
114.191	16.701	1595.834	1212.916
115.206	16.753	1594.574	1212.222
116.220	16.735	1593.443	1211.131
117.235	16.666	1591.967	1209.406
118.249	16.756	1590.260	1208.644
119.264	16.650	1589.471	1207.183
120.279	16.633	1587.703	1205.615
121.293	16.547	1586.490	1203.972
122.308	16.541	1585.121	1202.782
123.322	16.551	1583.066	1201.192
124.337	16.469	1581.690	1199.457
125.352	16.408	1580.505	1198.022
126.366	16.463	1579.284	1197.381
127.381	16.485	1578.355	1196.721
128.395	16.434	1577.029	1195.251
129.410	16.469	1575.703	1194.387
130.424	16.571	1574.137	1193.816
131.439	16.527	1573.117	1192.624
132.454	16.579	1572.295	1192.264
133.468	16.569	1570.485	1190.715
134.483	16.703	1568.996	1190.426
135.497	16.690	1567.496	1189.086
136.512	16.748	1566.384	1188.549
137.527	16.707	1565.092	1187.174
138.541	16.682	1564.027	1186.085
139.556	16.749	1562.385	1185.201
140.570	16.790	1560.950	1184.300
141.585	16.893	1559.722	1183.980
142.600	16.915	1558.654	1183.215
143.614	17.061	1557.503	1183.260
144.629	17.084	1556.335	1182.423
145.643	17.215	1555.182	1182.360
146.658	17.184	1553.723	1180.929
147.673	17.058	1552.452	1178.984
148.687	17.042	1550.428	1177.228
149.702	16.846	1549.261	1174.878
150.716	16.855	1547.251	1173.312
151.731	16.788	1546.127	1171.897
152.746	16.817	1544.630	1170.854
153.760	16.773	1543.384	1169.504
154.775	16.819	1542.277	1168.878
155.789	16.874	1541.187	1168.330
156.804	16.999	1539.950	1168.152
157.819	16.977	1538.828	1167.046
158.833	17.100	1537.125	1166.496
159.848	17.135	1536.130	1165.873
160.862	17.213	1535.023	1165.468
161.877	17.276	1533.795	1164.862
162.892	17.204	1532.604	1163.362
163.906	17.091	1531.320	1161.515
164.921	16.889	1530.003	1159.027
165.935	16.853	1528.927	1157.868
166.950	16.896	1528.233	1157.532
167.964	17.001	1526.348	1156.720
168.979	17.036	1525.930	1156.535
169.994	16.999	1524.612	1155.187
171.008	16.954	1523.426	1153.878
172.023	17.041	1522.515	1153.676
173.037	17.047	1521.359	1152.739
174.052	17.258	1520.207	1153.197
175.067	17.311	1518.953	1152.505
176.081	17.110	1518.044	1150.349
177.096	17.042	1516.192	1148.384
178.110	17.009	1514.850	1147.044
179.125	17.009	1513.923	1146.238
180.140	17.055	1512.920	1145.689
181.154	17.054	1512.029	1144.905
182.169	17.103	1511.266	1144.558
183.183	17.173	1509.887	1143.884
184.198	17.184	1509.077	1143.243
185.213	17.333	1507.685	1143.087
186.227	17.442	1506.418	1142.755
187.242	17.309	1505.809	1141.306
188.256	17.282	1505.038	1140.438
189.271	17.380	1503.699	1139.976
190.286	17.444	1502.853	1139.668
191.300	17.498	1501.206	1138.677
192.315	17.240	1499.958	1135.902
193.329	16.902	1498.938	1132.771
194.344	16.877	1497.541	1131.450
195.359	16.964	1496.706	1131.299
196.373	17.062	1495.479	1130.922
197.388	17.167	1494.397	1130.705
198.402	17.298	1493.507	1130.806
199.417	17.419	1493.038	1131.151
200.432	17.541	1491.696	1130.848
201.446	17.683	1491.073	1131.219
202.461	17.618	1490.100	1129.946
203.475	17.676	1488.742	1129.203
204.490	17.746	1488.028	1129.023
205.504	17.666	1486.763	1127.433
206.519	17.542	1484.912	1125.113
207.534	17.472	1484.205	1124.013
208.548	17.443	1483.029	1122.833
209.563	17.394	1481.864	1121.531
210.577	17.453	1481.028	1121.182
211.592	17.521	1479.967	1120.734
212.607	17.534	1479.687	1120.506
213.621	17.696	1478.759	1120.769
214.636	17.753	1477.751	1120.281
215.650	17.677	1477.434	1119.442
216.665	17.641	1476.048	1118.053
217.680	17.782	1474.891	1118.007
218.694	17.765	1474.944	1117.835
219.709	17.845	1473.508	1117.171
220.723	17.814	1472.922	1116.427
221.738	17.800	1471.611	1115.239
222.753	17.725	1471.227	1114.363
223.767	17.757	1470.110	1113.625
224.782	17.819	1468.906	1113.018
225.796	17.804	1468.107	1112.215
226.811	17.859	1467.621	1112.110
227.826	17.931	1466.723	1111.801
228.840	17.834	1465.845	1110.403
229.855	17.825	1464.371	1109.131
230.869	17.850	1463.281	1108.367
231.884	17.861	1462.355	1107.642
232.899	17.840	1461.018	1106.396
233.913	17.669	1460.573	1104.854
234.928	17.593	1459.496	1103.444
235.942	17.574	1457.903	1102.024
236.957	17.688	1456.468	1101.578
237.972	17.664	1455.357	1100.481
238.986	17.649	1453.979	1099.250
240.001	17.719	1453.340	1099.116
241.015	17.660	1452.795	1098.228
242.030	17.799	1450.969	1097.647
243.045	17.769	1450.287	1096.839
244.059	17.843	1449.319	1096.489
245.074	17.867	1448.818	1096.165
246.088	17.840	1447.681	1095.036
247.103	17.882	1447.047	1094.727
248.117	18.001	1445.935	1094.552
249.132	18.070	1445.516	1094.578
250.147	18.221	1444.978	1095.042
251.161	18.291	1444.595	1095.101
252.176	18.393	1444.203	1095.362
253.190	18.419	1443.181	1094.657
254.205	18.529	1442.180	1094.499
255.220	18.589	1441.793	1094.491
256.234	18.517	1441.032	1093.361
257.249	18.539	1439.939	1092.570
258.263	18.631	1438.665	1092.093
259.278	18.669	1438.046	1091.772
260.293	18.545	1437.045	1090.129
261.307	18.498	1436.329	1089.188
262.322	18.589	1435.548	1089.077
263.336	18.665	1435.015	1089.060
264.351	18.661	1433.714	1087.951
265.366	18.752	1432.624	1087.600
266.380	18.785	1431.772	1087.065
267.395	18.793	1430.760	1086.255
268.409	18.754	1429.678	1085.092
269.424	18.652	1428.898	1083.755
270.439	18.584	1427.595	1082.242
271.453	18.675	1426.631	1081.993
272.468	18.609	1426.053	1081.042
273.482	18.660	1425.261	1080.664
274.497	18.537	1423.949	1078.802
275.512	18.503	1423.174	1077.907
276.526	18.579	1422.124	1077.493
277.541	18.627	1420.851	1076.732
278.555	18.490	1420.576	1075.569
279.570	18.576	1419.786	1075.418
280.585	18.687	1418.695	1075.193
281.599	18.647	1418.697	1074.849
282.614	18.907	1416.971	1075.072
283.628	18.921	1415.232	1073.746
284.643	18.675	1414.582	1071.621
285.657	18.707	1413.618	1070.996
286.672	18.696	1412.878	1070.270
287.687	18.745	1411.829	1069.686
288.701	18.620	1410.685	1067.945
289.716	18.655	1410.721	1068.096
290.730	18.760	1409.268	1067.556
291.745	18.793	1407.853	1066.593
292.760	18.745	1407.402	1065.859
293.774	18.845	1406.190	1065.470
294.789	18.814	1405.346	1064.541
295.803	19.037	1404.257	1065.003
296.818	18.981	1403.546	1064.025
297.833	19.008	1402.353	1063.191
298.847	18.896	1401.757	1061.951
299.862	18.846	1400.699	1060.747
300.876	18.802	1399.886	1059.771
301.891	18.828	1398.673	1058.920
302.906	18.973	1398.001	1059.209
303.920	18.918	1397.778	1058.607
304.935	19.061	1396.615	1058.514
305.949	19.110	1396.280	1058.466
306.964	19.215	1395.603	1058.506
307.979	19.292	1394.554	1058.085
308.993	19.260	1393.082	1056.679
310.008	19.164	1392.279	1055.390
311.022	19.258	1391.020	1054.915
312.037	19.263	1389.975	1054.061
313.052	19.177	1389.637	1053.184
314.066	19.221	1388.080	1052.182
315.081	19.092	1387.224	1050.650
316.095	18.960	1386.071	1048.883
317.110	19.004	1384.461	1047.837
318.125	18.959	1383.875	1047.025
319.139	19.032	1382.417	1046.273
320.154	18.980	1382.078	1045.612
321.168	18.985	1380.800	1044.581
322.183	18.967	1379.971	1043.753
323.197	18.998	1378.864	1043.012
324.212	19.087	1378.164	1042.929
325.227	19.185	1377.574	1042.984
326.241	19.203	1376.161	1041.933
327.256	19.127	1375.788	1041.098
328.270	19.070	1375.259	1040.257
329.285	19.067	1373.896	1039.119
330.300	19.117	1372.649	1038.387
331.314	19.074	1372.026	1037.561
332.329	19.173	1371.242	1037.473
333.343	19.225	1369.921	1036.693
334.358	19.149	1369.557	1035.873
335.373	19.205	1368.805	1035.546
336.387	19.230	1368.078	1035.054
337.402	19.332	1367.256	1034.958
338.416	19.294	1366.660	1034.182
339.431	19.412	1365.877	1034.210
340.446	19.385	1365.565	1033.718
341.460	19.485	1364.449	1033.382
342.475	19.705	1363.103	1033.587
343.489	19.695	1362.464	1032.949
344.504	19.733	1361.644	1032.461
345.519	19.750	1360.462	1031.577
346.533	19.732	1360.129	1031.128
347.548	19.653	1359.442	1030.041
348.562	19.920	1358.243	1030.633
349.577	19.908	1357.473	1029.886
350.592	19.758	1356.627	1028.265
351.606	19.564	1355.764	1026.367
352.621	19.536	1354.147	1024.882
353.635	19.563	1353.028	1024.105
354.650	19.522	1352.165	1023.121
355.665	19.547	1351.202	1022.450
356.679	19.468	1350.277	1021.190
357.694	19.527	1349.420	1020.799
358.708	19.685	1348.338	1020.824
359.723	19.790	1346.910	1020.273
360.738	19.771	1346.025	1019.400
361.752	19.692	1345.117	1018.160
362.767	19.650	1344.369	1017.253
363.781	19.755	1343.511	1017.131
364.796	19.733	1343.138	1016.633
365.810	19.651	1342.248	1015.387
366.825	19.920	1341.533	1016.331
367.840	20.086	1340.345	1016.317
368.854	19.970	1340.285	1015.500
369.869	20.181	1339.534	1016.081
370.883	20.225	1338.704	1015.618
371.898	20.087	1338.012	1014.198
372.913	19.996	1337.131	1012.903
373.927	20.043	1335.805	1012.085
374.942	19.993	1335.202	1011.248
375.956	20.132	1334.328	1011.304
376.971	20.237	1333.221	1010.991
377.986	20.139	1332.878	1010.072
379.000	20.126	1331.968	1009.216
380.015	20.122	1331.398	1008.670
381.029	20.223	1330.902	1008.793
382.044	20.316	1330.124	1008.655
383.059	20.413	1329.179	1008.414
384.073	20.281	1328.465	1007.016
385.088	20.305	1328.169	1006.839
386.102	20.297	1327.536	1006.226
387.117	20.225	1327.151	1005.429
388.132	20.326	1325.804	1004.900
389.146	20.093	1324.820	1002.720
390.161	20.137	1323.459	1001.858
391.175	20.104	1323.103	1001.306
392.190	20.150	1321.871	1000.550
393.205	20.211	1321.435	1000.483
394.219	20.276	1320.620	1000.156
395.234	20.384	1318.897	999.382
396.248	20.284	1317.873	997.940
397.263	20.315	1316.416	996.928
398.278	20.230	1314.850	995.164
399.292	20.223	1313.628	994.114
400.307	20.158	1313.024	993.194
401.321	20.019	1312.345	991.801
402.336	20.105	1310.879	991.098
403.350	20.059	1309.866	989.978
404.365	20.018	1308.571	988.676
405.380	20.145	1308.021	988.898
406.394	20.195	1307.428	988.650
407.409	20.194	1306.907	988.163
408.423	20.344	1306.035	988.272
409.438	20.331	1305.405	987.631
410.453	20.523	1304.764	988.153
411.467	20.432	1304.281	987.178
412.482	20.572	1303.670	987.427
413.496	20.523	1303.147	986.663
414.511	20.659	1302.646	986.967
415.526	20.683	1301.297	985.995
416.540	20.777	1300.560	985.881
417.555	20.847	1299.951	985.728
418.569	20.861	1299.692	985.525
419.584	20.885	1298.972	985.025
420.599	20.756	1298.084	983.540
421.613	145.283	1435.512	1797.517
422.628	140.513	1455.475	1797.603
