DTS Sentinel unit serial number:	SN413079Multiplexer serial number:	ORYXHardware model number:	OX4-SRSoftware version number:	ORYX F/W v4.00 Oryx Data Collector v3.7.2.0data status	okinstallation	princeton_trtdifferential loss correction	single-endedforward channel	channel 4reverse channel	N/Adate	2019/09/13time	19:13:35forward acquisition time	60.00reverse acquisition time	0.00gamma	496.2192k internal	0.2313k external	0.2313temperature offset calibration	1.0169default loss term (dB/km)	0.3790temperature slope calibration	1.0000multiplexer offset coefficient	1.0000multiplexer slope coefficient	1.0000fibre end	0.00T internal ref (°C)	31.39T ext. ref 1 (°C)	3.82T ext. ref 2 (°C)	24.75length (m)	temperature (°C)	Stokes	anti-Stokes-747.200	800.000	-0.083	-0.317
-746.185	704.273	-0.068	-0.183
-745.171	40.833	0.318	-0.291
-744.156	-96.343	-0.249	0.067
-743.142	-200.000	-0.019	0.255
-742.127	-8.164	-0.245	0.167
-741.112	117.960	0.140	0.175
-740.098	86.146	0.170	0.190
-739.083	-137.043	-0.262	0.030
-738.069	-93.747	-0.203	0.057
-737.054	800.000	-0.075	-0.318
-736.039	1.435	-0.303	-0.221
-735.025	-106.407	0.113	-0.026
-734.010	-38.390	-0.294	0.158
-732.996	25.636	-0.317	0.268
-731.981	-200.000	-0.044	0.299
-730.966	-36.912	-0.091	0.049
-729.952	92.180	-0.125	0.143
-728.937	-200.000	-0.039	-0.211
-727.923	-162.086	-0.046	-0.002
-726.908	127.250	-0.057	0.073
-725.894	800.000	0.066	-0.290
-724.879	-170.703	-0.347	0.012
-723.864	-33.645	-0.394	-0.221
-722.850	82.418	-0.139	0.153
-721.835	-200.000	-0.043	-0.246
-720.821	225.740	0.046	-0.075
-719.806	250.883	0.035	-0.061
-718.791	-200.000	0.048	0.398
-717.777	602.062	-0.108	0.273
-716.762	183.740	-0.319	-0.478
-715.748	786.274	0.101	-0.282
-714.733	-200.000	-0.040	-0.194
-713.718	-55.654	0.173	-0.079
-712.704	-46.020	0.317	-0.158
-711.689	94.836	0.097	-0.111
-710.675	208.306	-0.019	-0.031
-709.660	-101.754	-0.161	0.040
-708.645	-57.425	-0.223	-0.099
-707.631	-106.035	0.288	0.066
-706.616	-142.840	0.110	-0.011
-705.602	-44.922	-0.176	0.089
-704.587	26.375	-0.113	0.095
-703.572	293.903	0.059	0.109
-702.558	-24.177	0.106	0.064
-701.543	-70.728	0.163	-0.062
-700.529	-11.384	-0.262	-0.174
-699.514	-151.061	0.326	0.025
-698.499	-200.000	-0.043	-0.297
-697.485	658.662	-0.137	-0.356
-696.470	140.048	-0.088	0.117
-695.456	116.223	-0.037	0.046
-694.441	209.974	-0.147	0.233
-693.426	-200.000	0.046	-0.260
-692.412	792.328	-0.097	0.271
-691.397	-200.000	-0.001	-0.098
-690.383	-164.518	-0.248	0.011
-689.368	800.000	0.128	-0.424
-688.354	66.078	-0.026	0.026
-687.339	-45.684	-0.251	0.126
-686.324	-92.875	0.283	-0.080
-685.310	-88.186	0.279	0.085
-684.295	-75.761	0.125	-0.045
-683.281	-4.835	-0.135	0.094
-682.266	-95.025	-0.167	-0.046
-681.251	-200.000	-0.008	-0.087
-680.237	113.794	0.228	0.280
-679.222	-180.639	-0.364	-0.008
-678.208	101.257	-0.129	-0.152
-677.193	-60.269	-0.189	0.082
-676.178	800.000	0.012	0.038
-675.164	187.098	-0.077	-0.117
-674.149	-76.366	0.041	0.015
-673.135	51.609	-0.079	0.076
-672.120	800.000	-0.062	-0.225
-671.105	20.383	-0.152	-0.124
-670.091	568.730	0.118	-0.290
-669.076	648.294	-0.087	0.225
-668.062	800.000	0.098	0.383
-667.047	476.739	-0.025	-0.057
-666.032	-188.919	-0.172	-0.002
-665.018	-107.677	-0.227	0.050
-664.003	800.000	0.094	-0.262
-662.989	135.866	0.059	-0.077
-661.974	-135.059	-0.468	0.057
-660.959	800.000	0.050	-0.207
-659.945	115.594	0.113	0.140
-658.930	83.854	0.073	0.080
-657.916	-199.939	0.555	0.003
-656.901	144.546	0.130	0.175
-655.886	528.850	-0.035	0.084
-654.872	279.331	-0.168	0.303
-653.857	11.185	0.078	0.060
-652.843	-22.547	-0.246	0.150
-651.828	-11.892	-0.240	0.159
-650.814	44.305	-0.161	0.149
-649.799	23.713	-0.255	0.212
-648.784	-17.915	0.335	0.212
-647.770	-39.147	-0.110	-0.058
-646.755	597.357	-0.038	0.095
-645.741	-24.439	-0.252	0.152
-644.726	-200.000	0.030	0.169
-643.711	-95.454	0.285	-0.077
-642.697	-81.865	-0.628	0.208
-641.682	-200.000	-0.063	0.316
-640.668	-65.834	-0.091	0.037
-639.653	33.905	-0.273	-0.240
-638.638	-200.000	-0.030	0.202
-637.624	20.981	0.052	-0.043
-636.609	126.167	-0.135	0.172
-635.595	800.000	0.080	-0.334
-634.580	-200.000	-0.006	-0.056
-633.565	241.366	0.141	-0.237
-632.551	9.048	0.314	0.239
-631.536	800.000	0.059	-0.226
-630.522	-200.000	-0.009	-0.269
-629.507	32.306	-0.117	-0.102
-628.492	57.566	-0.164	-0.162
-627.478	63.720	-0.178	-0.181
-626.463	19.454	-0.182	0.148
-625.449	-150.519	-0.238	-0.018
-624.434	-200.000	-0.002	-0.080
-623.419	331.249	-0.239	0.465
-622.405	90.707	0.183	0.207
-621.390	-8.519	-0.163	0.111
-620.376	5.159	-0.087	0.065
-619.361	-200.000	-0.016	-0.277
-618.346	-200.000	0.021	0.209
-617.332	-57.147	-0.309	0.137
-616.317	-200.000	0.035	0.330
-615.303	374.577	-0.007	-0.015
-614.288	-88.266	-0.279	-0.084
-613.273	-45.254	-0.074	-0.037
-612.259	-200.000	0.044	-0.481
-611.244	-200.000	-0.034	0.182
-610.230	800.000	0.058	-0.222
-609.215	49.729	-0.188	0.179
-608.201	158.827	0.110	0.155
-607.186	-43.147	0.213	0.109
-606.171	-200.000	0.047	0.221
-605.157	800.000	0.062	-0.195
-604.142	-200.000	0.027	0.122
-603.128	-129.626	0.118	0.016
-602.113	-200.000	0.033	0.250
-601.098	800.000	0.055	-0.166
-600.084	-2.263	0.082	-0.058
-599.069	94.452	0.191	0.219
-598.055	9.429	0.042	0.032
-597.040	80.553	-0.099	-0.108
-596.025	-47.239	0.199	0.098
-595.011	-10.852	-0.124	-0.082
-593.996	-155.967	0.113	-0.007
-592.982	4.799	-0.135	0.100
-591.967	-155.920	-0.257	0.016
-590.952	-200.000	0.000	-0.052
-589.938	10.223	-0.071	0.054
-588.923	800.000	0.111	0.319
-587.909	-4.588	-0.254	-0.177
-586.894	-200.000	-0.016	0.129
-585.879	-200.000	-0.027	-0.155
-584.865	-19.205	0.101	0.063
-583.850	374.785	-0.059	0.121
-582.836	695.401	-0.064	-0.170
-581.821	-200.000	0.058	0.259
-580.806	-69.313	0.325	0.126
-579.792	214.379	0.047	0.075
-578.777	-200.000	0.049	-0.321
-577.763	421.643	-0.035	-0.075
-576.748	-53.349	0.287	-0.133
-575.733	-83.492	-0.294	-0.095
-574.719	49.260	-0.276	-0.262
-573.704	-18.022	0.365	0.230
-572.690	-121.436	-0.244	-0.041
-571.675	-82.745	-0.339	0.110
-570.661	-200.000	-0.057	-0.289
-569.646	9.105	-0.123	-0.093
-568.631	-84.812	0.390	-0.123
-567.617	104.265	-0.218	0.258
-566.602	112.058	-0.158	0.192
-565.588	-91.488	-0.277	0.080
-564.573	-200.000	0.007	0.343
-563.558	400.356	-0.157	-0.332
-562.544	-88.916	-0.062	0.019
-561.529	-19.592	0.137	0.085
-560.515	125.328	0.059	0.075
-559.500	-70.212	-0.214	0.082
-558.485	-200.000	0.004	-0.089
-557.471	800.000	0.208	-0.605
-556.456	-49.744	-0.083	-0.040
-555.442	170.865	0.166	-0.240
-554.427	60.802	0.086	0.086
-553.412	111.449	0.038	-0.047
-552.398	-77.072	0.238	-0.084
-551.383	-9.129	-0.071	-0.048
-550.369	-179.420	0.173	0.004
-549.354	105.747	0.200	-0.238
-548.339	137.425	0.148	-0.195
-547.325	-11.782	-0.231	-0.153
-546.310	131.922	0.164	-0.213
-545.296	-200.000	0.027	-0.136
-544.281	-53.592	0.200	-0.092
-543.266	-200.000	-0.056	0.388
-542.252	54.027	-0.130	0.126
-541.237	9.035	0.110	0.084
-540.223	-56.757	-0.196	-0.087
-539.208	-159.406	0.127	0.007
-538.193	425.432	-0.083	-0.179
-537.179	-126.644	-0.108	0.016
-536.164	164.475	-0.151	-0.215
-535.150	15.053	0.204	-0.161
-534.135	69.553	0.256	-0.266
-533.121	399.406	0.145	-0.305
-532.106	-91.485	0.487	0.140
-531.091	-20.845	-0.041	-0.025
-530.077	800.000	-0.159	0.585
-529.062	-134.752	-0.129	-0.016
-528.048	723.083	-0.048	-0.128
-527.033	800.000	-0.120	-0.349
-526.018	167.866	0.106	-0.151
-525.004	-28.147	-0.314	0.183
-523.989	281.145	-0.102	-0.183
-522.975	-200.000	-0.358	-0.000
-521.960	39.423	0.339	0.306
-520.945	103.516	-0.063	-0.074
-519.931	-47.063	-0.132	0.065
-518.916	113.650	-0.055	0.068
-517.902	40.926	-0.358	-0.325
-516.887	-200.000	0.146	-0.699
-515.872	-165.056	0.136	0.006
-514.858	216.722	-0.135	0.216
-513.843	-96.684	-0.231	0.061
-512.829	-0.140	0.045	0.032
-511.814	800.000	0.030	-0.108
-510.799	-29.392	0.351	-0.202
-509.785	179.001	-0.249	0.366
-508.770	318.398	-0.173	0.330
-507.756	-200.000	-0.017	0.153
-506.741	15.708	0.220	-0.174
-505.726	-178.515	-0.178	0.004
-504.712	800.000	-0.042	0.154
-503.697	-200.000	-0.013	0.097
-502.683	-200.000	0.262	-0.001
-501.668	151.832	-0.158	-0.216
-500.653	39.576	-0.194	-0.174
-499.639	-120.177	0.279	0.048
-498.624	-23.711	0.305	-0.184
-497.610	-200.000	0.007	-0.214
-496.595	15.026	-0.148	-0.116
-495.581	-200.000	-0.033	0.224
-494.566	-133.105	0.347	0.044
-493.551	-116.326	0.118	-0.022
-492.537	-132.629	0.315	-0.041
-491.522	-156.521	0.152	0.009
-490.508	-94.358	-0.257	-0.070
-489.493	800.000	-0.073	-0.298
-488.478	268.976	-0.158	-0.279
-487.464	86.904	0.249	0.277
-486.449	-4.089	-0.116	0.081
-485.435	-93.762	0.082	-0.023
-484.420	800.000	0.033	0.135
-483.405	-200.000	-0.026	0.166
-482.391	29.768	0.068	-0.058
-481.376	71.926	0.132	-0.138
-480.362	-7.849	-0.150	0.102
-479.347	69.427	0.071	0.074
-478.332	-102.234	-0.097	-0.023
-477.318	-101.818	0.112	0.027
-476.303	9.510	0.306	-0.233
-475.289	-0.873	-0.110	0.078
-474.274	-200.000	-0.060	0.397
-473.259	-104.997	-0.199	-0.046
-472.245	-200.000	-0.034	-0.172
-471.230	489.705	0.043	0.100
-470.216	-69.368	-0.456	0.176
-469.201	-200.000	-0.061	0.336
-468.186	329.404	0.076	0.146
-467.172	178.819	0.182	-0.267
-466.157	-200.000	-0.029	-0.277
-465.143	17.278	0.127	0.101
-464.128	326.844	0.106	-0.203
-463.113	800.000	-0.027	-0.115
-462.099	-54.206	0.244	0.111
-461.084	85.205	-0.059	0.064
-460.070	-200.000	0.027	-0.186
-459.055	-31.546	-0.394	0.222
-458.040	800.000	-0.109	0.326
-457.026	199.659	0.110	0.169
-456.011	13.558	0.138	-0.107
-454.997	-28.821	-0.133	-0.077
-453.982	202.369	-0.125	-0.194
-452.968	-102.621	0.156	0.037
-451.953	-200.000	0.033	0.305
-450.938	753.410	0.097	0.263
-449.924	483.603	-0.079	-0.181
-448.909	-10.218	0.050	-0.034
-447.895	54.291	0.283	0.274
-446.880	-174.114	-0.420	0.012
-445.865	-122.071	0.062	-0.010
-444.851	-47.815	-0.072	-0.035
-443.836	83.620	-0.300	-0.328
-442.822	29.804	0.150	-0.128
-441.807	-200.000	-0.008	0.197
-440.792	-200.000	-0.017	-0.187
-439.778	800.000	-0.080	-0.280
-438.763	-52.045	0.229	-0.107
-437.749	140.255	-0.203	0.268
-436.734	-58.113	-0.192	-0.084
-435.719	321.706	0.142	0.270
-434.705	-18.150	0.266	-0.167
-433.690	-200.000	0.004	-0.088
-432.676	-150.986	0.273	0.021
-431.661	-200.000	0.007	0.126
-430.646	-200.000	0.017	0.142
-429.632	800.000	-0.037	-0.141
-428.617	67.643	0.173	-0.177
-427.603	-27.231	-0.112	0.065
-426.588	-137.682	0.182	-0.021
-425.573	-126.374	-0.077	-0.012
-424.559	15.340	-0.096	0.075
-423.544	-200.000	0.136	0.000
-422.530	16.348	-0.167	-0.132
-421.515	-79.041	0.070	-0.024
-420.500	50.855	-0.235	-0.223
-419.486	21.087	0.298	-0.242
-418.471	-34.609	-0.396	0.217
-417.457	800.000	-0.040	0.145
-416.442	800.000	0.070	-0.196
-415.428	110.826	-0.148	0.179
-414.413	-173.895	-0.422	-0.012
-413.398	800.000	0.063	-0.197
-412.384	-151.796	0.237	-0.017
-411.369	346.862	-0.171	-0.338
-410.355	293.685	0.090	0.165
-409.340	62.618	-0.363	0.363
-408.325	0.630	0.247	0.177
-407.311	55.223	-0.224	-0.217
-406.296	-151.870	0.081	-0.006
-405.282	98.106	0.138	0.159
-404.267	169.628	-0.034	-0.049
-403.252	171.544	-0.122	-0.175
-402.238	-171.952	0.273	0.009
-401.223	64.213	0.133	0.134
-400.209	-150.762	0.064	0.005
-399.194	-138.259	-0.193	0.021
-398.179	142.242	-0.172	0.228
-397.165	-51.856	0.105	-0.049
-396.150	-130.298	0.278	-0.038
-395.136	800.000	0.042	-0.176
-394.121	-95.344	-0.365	0.098
-393.106	-136.263	0.146	0.017
-392.092	575.704	-0.086	-0.209
-391.077	215.274	-0.076	0.120
-390.063	800.000	-0.053	0.184
-389.048	554.632	0.045	0.108
-388.033	-200.000	-0.006	0.044
-387.019	103.144	-0.226	0.265
-386.004	-98.959	-0.363	-0.092
-384.990	391.106	0.212	0.441
-383.975	-11.146	0.165	-0.109
-382.960	90.804	0.013	-0.014
-381.946	305.652	-0.069	-0.128
-380.931	-184.733	0.342	-0.005
-379.917	-46.735	-0.163	-0.080
-378.902	-30.691	-0.301	0.171
-377.888	-130.543	-0.217	-0.029
-376.873	78.153	-0.190	-0.202
-375.858	-111.281	0.076	-0.016
-374.844	-62.410	0.226	0.094
-373.829	118.237	0.172	0.212
-372.815	-131.224	0.362	-0.048
-371.800	-96.855	-0.314	-0.082
-370.785	-73.759	-0.302	-0.110
-369.771	-200.000	-0.015	0.319
-368.756	-200.000	0.027	-0.143
-367.742	800.000	-0.046	0.132
-366.727	-200.000	-0.004	-0.109
-365.712	-200.000	0.022	-0.099
-364.698	-141.287	-0.283	-0.029
-363.683	-135.284	0.294	-0.035
-362.669	73.711	0.099	0.104
-361.654	-200.000	0.038	-0.227
-360.639	28.728	0.090	-0.076
-359.625	-77.256	0.403	-0.140
-358.610	-128.813	0.343	-0.048
-357.596	-105.283	0.175	-0.040
-356.581	-200.000	0.011	-0.115
-355.566	567.323	0.087	-0.212
-354.552	-55.232	0.305	-0.137
-353.537	672.862	-0.030	-0.077
-352.523	-4.859	-0.074	0.051
-351.508	800.000	0.148	0.520
-350.493	95.238	0.126	-0.144
-349.479	157.664	0.188	0.260
-348.464	-59.375	0.408	-0.175
-347.450	-2.006	-0.181	0.127
-346.435	-64.654	0.395	-0.160
-345.420	451.518	-0.020	0.044
-344.406	-64.491	-0.205	-0.083
-343.391	-200.000	-0.022	-0.144
-342.377	17.651	0.121	-0.096
-341.362	-52.660	0.203	0.094
-340.348	-67.502	0.203	0.080
-339.333	3.227	-0.206	0.150
-338.318	-200.000	-0.032	-0.270
-337.304	-136.709	-0.013	-0.002
-336.289	-200.000	-0.060	-0.291
-335.275	126.316	0.122	-0.154
-334.260	-59.131	-0.179	-0.077
-333.245	74.373	0.141	-0.148
-332.231	787.466	0.145	0.398
-331.216	-126.683	0.109	0.016
-330.202	472.161	-0.152	-0.341
-329.187	-200.000	0.049	-0.412
-328.172	-81.463	-0.113	0.037
-327.158	512.633	0.148	0.344
-326.143	-94.487	0.161	0.044
-325.129	463.969	-0.202	-0.450
-324.114	800.000	0.053	-0.189
-323.099	-200.000	0.047	0.218
-322.085	28.227	-0.098	0.083
-321.070	-115.793	-0.250	0.047
-320.056	-124.921	0.128	0.020
-319.041	125.301	-0.222	-0.279
-318.026	-30.767	0.472	0.267
-317.012	125.989	0.154	-0.194
-315.997	165.780	-0.196	0.277
-314.983	-5.748	0.172	0.118
-313.968	-129.246	0.221	-0.031
-312.953	-200.000	0.009	-0.165
-311.939	800.000	0.114	-0.330
-310.924	5.085	0.218	-0.160
-309.910	-195.217	0.082	0.001
-308.895	152.995	-0.272	0.371
-307.880	-95.316	-0.323	-0.087
-306.866	498.951	0.032	0.074
-305.851	-75.696	-0.017	-0.006
-304.837	800.000	-0.042	0.167
-303.822	-93.864	0.414	-0.114
-302.807	507.379	0.032	0.075
-301.793	-106.052	-0.204	0.046
-300.778	70.338	-0.265	0.273
-299.764	-200.000	0.045	-0.326
-298.749	321.013	0.048	0.090
-297.735	-130.515	0.466	-0.063
-296.720	-200.000	-0.030	-0.151
-295.705	90.588	0.311	0.348
-294.691	-64.690	0.168	0.068
-293.676	122.194	-0.263	0.327
-292.662	303.141	0.081	-0.150
-291.647	-72.159	0.140	0.052
-290.632	-200.000	-0.016	0.171
-289.618	511.778	0.046	-0.106
-288.603	660.612	-0.038	0.097
-287.589	55.774	-0.150	-0.145
-286.574	-83.669	-0.094	-0.030
-285.559	211.767	-0.061	0.096
-284.545	62.822	0.119	-0.119
-283.530	-200.000	0.015	-0.110
-282.516	-104.370	0.156	-0.036
-281.501	-19.018	0.144	-0.089
-280.486	-39.247	0.326	-0.171
-279.472	-170.336	-0.259	0.009
-278.457	56.945	-0.173	0.168
-277.443	800.000	-0.029	0.093
-276.428	155.154	-0.042	0.057
-275.413	84.343	-0.135	0.147
-274.399	-59.732	-0.212	-0.091
-273.384	12.814	-0.162	-0.125
-272.370	-172.318	-0.141	-0.004
-271.355	-200.000	0.025	-0.270
-270.340	800.000	-0.112	-0.347
-269.326	-200.000	0.011	0.345
-268.311	120.987	0.238	0.294
-267.297	-200.000	0.068	-0.626
-266.282	32.934	-0.124	0.107
-265.267	219.352	-0.216	0.345
-264.253	93.438	0.236	-0.266
-263.238	582.290	-0.058	0.140
-262.224	-43.322	0.019	0.009
-261.209	67.122	0.108	0.110
-260.195	-57.656	-0.203	-0.089
-259.180	267.213	0.171	0.297
-258.165	-200.000	-0.013	0.139
-257.151	-200.000	0.025	0.212
-256.136	-133.913	0.045	-0.006
-255.122	420.465	0.071	-0.151
-254.107	-92.769	0.034	-0.009
-253.092	7.819	-0.165	0.123
-252.078	-200.000	0.015	0.255
-251.063	321.704	-0.190	0.359
-250.049	750.188	-0.076	0.204
-249.034	-27.697	-0.427	-0.246
-248.019	-13.751	0.142	0.091
-247.005	800.000	0.139	0.395
-245.990	-107.432	-0.260	-0.057
-244.976	-63.584	0.120	0.049
-243.961	41.171	0.217	-0.195
-242.946	-200.000	0.008	0.226
-241.932	123.007	0.101	0.126
-240.917	-85.449	-0.130	-0.040
-239.903	-110.021	0.171	0.036
-238.888	336.370	-0.088	-0.169
-237.873	206.532	-0.090	0.140
-236.859	435.401	-0.055	0.119
-235.844	483.208	0.029	-0.065
-234.830	107.668	0.385	-0.456
-233.815	-200.000	0.024	-0.257
-232.800	21.403	-0.151	-0.122
-231.786	328.585	-0.063	-0.120
-230.771	319.654	-0.022	0.041
-229.757	-200.000	-0.004	0.095
-228.742	6.871	-0.131	-0.097
-227.727	-19.231	-0.236	0.146
-226.713	-200.000	0.073	-0.364
-225.698	-79.701	0.235	0.079
-224.684	800.000	0.044	-0.148
-223.669	279.692	0.087	-0.154
-222.655	118.559	-0.222	0.273
-221.640	14.162	-0.129	-0.100
-220.625	43.536	0.261	0.237
-219.611	-22.432	0.158	0.095
-218.596	-79.359	-0.226	0.076
-217.582	55.598	-0.032	-0.030
-216.567	-198.433	0.265	0.002
-215.552	331.426	-0.147	0.282
-214.538	-200.000	-0.010	-0.194
-213.523	800.000	-0.085	0.267
-212.509	-200.000	0.031	0.167
-211.494	-32.677	-0.123	0.068
-210.479	-32.169	-0.056	0.031
-209.465	92.121	-0.092	0.103
-208.450	-200.000	0.026	0.159
-207.436	-200.000	-0.005	-0.269
-206.421	799.809	-0.096	-0.263
-205.406	-200.000	0.025	-0.327
-204.392	-82.976	-0.294	0.094
-203.377	-4.535	0.222	-0.152
-202.363	-86.838	-0.116	0.035
-201.348	800.000	0.099	0.425
-200.333	800.000	-0.037	0.125
-199.319	636.650	-0.012	-0.029
-198.304	228.841	0.027	0.044
-197.290	194.485	-0.037	-0.056
-196.275	-3.659	0.328	-0.227
-195.260	-48.958	-0.112	-0.053
-194.246	-29.302	-0.362	-0.206
-193.231	-78.197	-0.146	-0.050
-192.217	587.722	0.091	0.222
-191.202	800.000	-0.057	0.187
-190.187	-106.527	-0.436	0.097
-189.173	-200.000	0.040	0.190
-188.158	-200.000	-0.008	-0.072
-187.144	217.936	-0.025	0.040
-186.129	-101.194	0.056	-0.014
-185.114	100.870	0.045	0.052
-184.100	138.367	-0.173	0.225
-183.085	-200.000	0.337	0.001
-182.071	-134.775	-0.202	0.024
-181.056	13.243	0.393	-0.302
-180.042	209.599	0.039	-0.061
-179.027	129.019	-0.143	-0.181
-178.012	61.184	0.322	-0.317
-176.998	35.280	-0.140	0.121
-175.983	-79.701	0.095	0.032
-174.969	-131.412	-0.259	0.034
-173.954	-12.841	0.341	-0.220
-172.939	5.852	-0.054	0.039
-171.925	40.697	0.137	0.122
-170.910	89.887	0.087	0.096
-169.896	-200.000	0.047	0.275
-168.881	-79.143	-0.079	0.027
-167.866	-60.226	0.192	-0.081
-166.852	-200.000	-0.002	0.065
-165.837	-200.000	-0.010	0.178
-164.823	372.951	-0.042	0.085
-163.808	177.741	-0.148	-0.214
-162.793	191.482	0.193	0.289
-161.779	61.450	-0.225	0.222
-160.764	19.050	-0.095	-0.075
-159.750	-7.879	0.073	-0.049
-158.735	49.350	0.136	-0.126
-157.720	405.971	0.112	0.234
-156.706	-145.309	-0.099	0.009
-155.691	385.760	0.138	0.282
-154.677	-200.000	0.026	-0.438
-153.662	656.621	0.066	0.168
-152.647	-104.105	-0.375	-0.086
-151.633	-200.000	-0.023	-0.223
-150.618	233.067	0.181	0.295
-149.604	251.426	0.022	0.037
-148.589	155.098	0.054	0.074
-147.574	64.297	-0.107	-0.107
-146.560	800.000	-0.036	-0.133
-145.545	-23.529	-0.096	-0.057
-144.531	2.609	-0.200	0.143
-143.516	28.007	0.179	-0.149
-142.502	-86.809	-0.309	-0.093
-141.487	139.073	0.200	-0.260
-140.472	46.123	-0.164	-0.150
-139.458	800.000	-0.090	0.249
-138.443	21.070	0.122	0.098
-137.429	-19.635	0.252	0.155
-136.414	-101.876	-0.144	0.034
-135.399	28.050	0.106	-0.089
-134.385	800.000	-0.114	0.369
-133.370	-102.332	-0.224	-0.053
-132.356	-200.000	-0.021	-0.093
-131.341	800.000	0.043	0.120
-130.326	-140.665	0.254	-0.026
-129.312	235.100	-0.168	0.275
-128.297	-136.517	0.087	-0.010
-127.283	304.977	0.084	0.154
-126.268	157.388	-0.037	-0.051
-125.253	-128.575	0.393	0.055
-124.239	117.345	-0.136	0.165
-123.224	488.116	-0.098	-0.222
-122.210	-200.000	-0.034	0.471
-121.195	18.650	0.211	0.167
-120.180	-6.147	-0.079	0.053
-119.166	-89.771	-0.164	-0.048
-118.151	-84.360	-0.136	-0.043
-117.137	-200.000	0.011	-0.100
-116.122	-47.343	-0.218	-0.105
-115.107	-59.528	0.132	0.056
-114.093	351.449	-0.088	-0.173
-113.078	-27.248	0.189	-0.109
-112.064	199.290	-0.071	0.108
-111.049	733.502	0.078	0.206
-110.034	-200.000	0.000	-0.232
-109.020	-164.561	-0.271	0.012
-108.005	581.794	-0.111	0.269
-106.991	-200.000	-0.004	0.521
-105.976	152.675	-0.018	-0.025
-104.962	446.110	0.096	0.209
-103.947	-29.334	-0.073	-0.041
-102.932	-200.000	0.023	-0.197
-101.918	99.176	0.032	0.037
-100.903	-21.890	0.189	0.113
-99.889	160.821	-0.116	-0.161
-98.874	485.090	-0.118	0.265
-97.859	800.000	0.041	0.159
-96.845	195.879	0.046	0.069
-95.830	-20.837	-0.225	0.137
-94.816	8.112	0.231	-0.172
-93.801	266.203	0.045	0.078
-92.786	83.960	-0.202	-0.218
-91.772	43.167	0.236	0.213
-90.757	297.844	-0.126	-0.230
-89.743	-200.000	0.013	0.063
-88.728	152.718	0.072	-0.097
-87.713	-78.091	0.033	-0.011
-86.699	-11.551	-0.164	0.106
-85.684	163.189	0.198	-0.275
-84.670	607.298	-0.046	-0.113
-83.655	-200.000	-0.005	0.411
-82.640	-80.858	0.453	-0.148
-81.626	94.895	-0.223	-0.250
-80.611	800.000	0.039	-0.148
-79.597	-32.960	-0.318	0.175
-78.582	125.862	0.030	-0.038
-77.567	-200.000	0.033	-0.155
-76.553	800.000	-0.081	-0.234
-75.538	800.000	0.056	0.180
-74.524	230.209	0.076	0.122
-73.509	455.433	-0.043	-0.095
-72.494	-200.000	-0.033	0.182
-71.480	-81.857	-0.094	-0.030
-70.465	370.151	-0.116	0.232
-69.451	-200.000	-0.004	-0.076
-68.436	-194.076	0.180	-0.001
-67.422	88.555	0.109	0.120
-66.407	-90.141	-0.243	-0.070
-65.392	-200.000	-0.021	-0.261
-64.378	-14.445	-0.194	-0.123
-63.363	-35.348	-0.139	0.075
-62.349	-97.023	0.112	-0.029
-61.334	33.008	-0.892	-0.763
-60.319	184.041	0.516	0.755
-59.305	426.473	-0.514	-1.094
-58.290	330.481	0.581	1.105
-57.276	800.000	0.592	1.685
-56.261	-200.000	101.099	598.004
-55.246	568.413	1415.808	3396.487
-54.232	187.340	2608.954	3842.031
-53.217	107.478	2302.289	2704.241
-52.203	38.037	2058.722	1807.681
-51.188	33.098	1973.936	1689.160
-50.173	31.571	1955.910	1660.136
-49.159	47.208	2010.056	1847.165
-48.144	48.413	2027.730	1874.181
-47.130	33.696	1987.204	1705.623
-46.115	31.385	1977.069	1676.160
-45.100	31.262	1973.976	1672.367
-44.086	31.205	1972.010	1670.128
-43.071	31.173	1969.616	1667.747
-42.057	31.163	1967.043	1665.417
-41.042	31.284	1964.400	1664.190
-40.027	31.206	1963.114	1662.341
-39.013	31.274	1961.216	1661.273
-37.998	31.323	1959.380	1660.083
-36.984	31.259	1957.898	1658.198
-35.969	31.322	1955.519	1656.679
-34.954	31.378	1954.139	1655.932
-33.940	31.437	1952.114	1654.676
-32.925	31.408	1950.553	1653.032
-31.911	31.308	1949.465	1651.159
-30.896	31.350	1947.730	1649.999
-29.881	31.378	1946.134	1648.830
-28.867	31.444	1944.837	1648.246
-27.852	31.474	1942.614	1646.556
-26.838	31.530	1940.462	1645.164
-25.823	31.428	1938.977	1642.936
-24.809	31.439	1936.913	1641.224
-23.794	31.447	1935.530	1640.057
-22.779	31.481	1933.761	1638.786
-21.765	31.331	1933.219	1636.948
-20.750	31.338	1931.327	1635.348
-19.736	31.401	1928.914	1633.788
-18.721	31.443	1927.563	1632.950
-17.706	31.381	1926.375	1631.330
-16.692	31.428	1923.947	1629.626
-15.677	31.434	1922.745	1628.588
-14.663	31.431	1921.604	1627.533
-13.648	31.488	1919.840	1626.473
-12.633	31.405	1919.382	1625.300
-11.619	31.414	1917.569	1623.773
-10.604	31.378	1915.503	1621.647
-9.590	31.399	1914.608	1621.006
-8.575	31.416	1913.059	1619.778
-7.560	31.376	1911.793	1618.301
-6.546	31.401	1910.648	1617.485
-5.531	31.383	1909.336	1616.155
-4.517	31.450	1907.998	1615.533
-3.502	31.373	1907.337	1614.245
-2.487	31.343	1905.834	1612.653
-1.473	31.347	1905.269	1612.142
-0.458	31.490	1899.494	1608.424
0.556	32.548	1879.870	1576.573
1.571	27.496	1859.659	1517.519
2.586	22.848	1880.248	1494.932
3.600	21.507	1915.219	1511.034
4.615	20.737	1908.587	1499.035
5.629	15.835	1808.157	1379.938
6.644	7.812	1693.288	1230.332
7.659	4.168	1658.517	1177.315
8.673	3.756	1655.758	1172.127
9.688	3.807	1654.021	1171.182
10.702	3.851	1652.889	1170.609
11.717	3.876	1649.822	1168.523
12.731	4.295	1648.583	1170.704
13.746	9.457	1661.132	1218.679
14.761	17.528	1678.356	1292.724
15.775	21.385	1684.148	1326.388
16.790	21.403	1683.061	1325.550
17.804	20.347	1680.313	1315.274
18.819	19.311	1677.208	1304.892
19.834	18.845	1674.203	1298.913
20.848	18.583	1673.275	1296.102
21.863	18.443	1672.115	1294.031
22.877	18.230	1670.373	1290.963
23.892	18.037	1669.137	1288.436
24.907	17.986	1668.149	1287.171
25.921	17.968	1667.144	1286.153
26.936	17.924	1665.910	1284.748
27.950	18.014	1664.497	1284.225
28.965	17.960	1664.669	1283.838
29.980	18.185	1663.524	1284.532
30.994	18.090	1663.199	1283.452
32.009	18.255	1661.774	1283.479
33.023	18.352	1660.892	1283.414
34.038	18.355	1660.196	1282.784
35.053	18.354	1658.732	1281.531
36.067	18.206	1657.241	1279.159
37.082	18.162	1656.356	1278.034
38.096	18.260	1655.015	1277.616
39.111	18.237	1654.403	1276.861
40.126	18.302	1653.959	1276.885
41.140	18.211	1653.313	1275.595
42.155	18.043	1651.147	1272.562
43.169	17.848	1649.618	1269.821
44.184	17.809	1648.477	1268.541
45.199	17.744	1647.707	1267.355
46.213	17.715	1646.098	1265.789
47.228	17.809	1645.079	1265.588
48.242	17.910	1644.151	1265.515
49.257	18.108	1643.402	1266.291
50.271	18.061	1642.456	1265.098
51.286	18.016	1641.026	1263.553
52.301	18.076	1639.360	1262.601
53.315	18.168	1638.206	1262.284
54.330	17.999	1636.286	1259.449
55.344	17.941	1634.496	1257.528
56.359	17.803	1633.217	1255.420
57.374	17.877	1631.942	1254.874
58.388	17.893	1631.260	1254.354
59.403	17.801	1629.313	1252.074
60.417	17.720	1628.175	1250.493
61.432	17.732	1627.006	1249.570
62.447	17.689	1625.591	1248.057
63.461	17.631	1624.638	1246.791
64.476	17.591	1623.600	1245.590
65.490	17.541	1622.679	1244.412
66.505	17.525	1621.336	1243.151
67.520	17.597	1620.491	1242.923
68.534	17.736	1618.691	1242.445
69.549	17.664	1618.087	1241.345
70.563	17.632	1616.946	1240.131
71.578	17.578	1615.634	1238.620
72.593	17.529	1614.268	1237.104
73.607	17.474	1613.284	1235.843
74.622	17.398	1612.268	1234.405
75.636	17.437	1611.198	1233.761
76.651	17.410	1610.453	1232.886
77.666	17.470	1609.874	1232.765
78.680	17.462	1609.215	1232.095
79.695	17.429	1608.608	1231.278
80.709	17.609	1607.119	1231.336
81.724	17.629	1606.779	1231.109
82.739	17.754	1605.716	1231.087
83.753	17.745	1605.302	1230.597
84.768	17.850	1604.388	1230.541
85.782	18.086	1603.828	1231.705
86.797	18.182	1602.908	1231.583
87.812	18.212	1602.083	1231.056
88.826	18.157	1601.149	1229.830
89.841	18.042	1599.661	1227.757
90.855	18.094	1598.961	1227.485
91.870	18.144	1597.768	1226.820
92.884	18.200	1596.677	1226.271
93.899	18.210	1596.039	1225.744
94.914	18.249	1595.001	1225.117
95.928	18.266	1593.646	1224.092
96.943	18.376	1592.406	1223.814
97.957	18.280	1590.701	1221.713
98.972	18.197	1589.110	1219.788
99.987	18.214	1587.760	1218.764
101.001	18.144	1586.545	1217.232
102.016	18.163	1584.782	1215.903
103.030	18.202	1583.693	1215.240
104.045	18.164	1582.554	1213.987
105.060	18.272	1580.800	1213.298
106.074	18.190	1579.175	1211.367
107.089	17.980	1577.661	1208.609
108.103	17.746	1576.108	1205.657
109.118	17.605	1574.331	1203.199
110.133	17.549	1573.132	1201.779
111.147	17.639	1571.611	1201.144
112.162	17.629	1570.495	1200.118
113.176	17.646	1568.835	1198.864
114.191	17.739	1567.536	1198.416
115.206	17.811	1566.356	1197.913
116.220	17.774	1565.072	1196.567
117.235	17.794	1563.779	1195.610
118.249	17.707	1563.018	1194.316
119.264	17.719	1561.317	1192.992
120.279	17.726	1559.855	1191.817
121.293	17.638	1558.227	1189.857
122.308	17.694	1556.380	1188.728
123.322	17.524	1555.400	1186.694
124.337	17.492	1553.750	1185.103
125.352	17.499	1552.407	1184.026
126.366	17.396	1551.622	1182.604
127.381	17.340	1550.880	1181.544
128.395	17.464	1549.150	1180.987
129.410	17.439	1548.094	1179.899
130.424	17.482	1546.285	1178.715
131.439	17.540	1545.232	1178.210
132.454	17.650	1544.061	1177.971
133.468	17.736	1542.530	1177.297
134.483	17.697	1541.760	1176.337
135.497	17.783	1540.427	1175.807
136.512	17.760	1539.255	1174.651
137.527	17.746	1537.716	1173.276
138.541	17.869	1536.254	1172.900
139.556	17.890	1534.855	1171.874
140.570	17.963	1533.728	1171.408
141.585	18.010	1532.769	1170.892
142.600	18.082	1531.583	1170.376
143.614	18.096	1531.081	1169.988
144.629	18.234	1529.366	1169.516
145.643	18.262	1528.627	1169.043
146.658	18.253	1527.265	1167.835
147.673	18.212	1525.272	1165.926
148.687	18.043	1524.280	1163.913
149.702	17.913	1522.577	1161.629
150.716	17.959	1520.505	1160.257
151.731	17.860	1519.148	1158.443
152.746	17.809	1517.902	1157.048
153.760	17.883	1516.662	1156.501
154.775	18.020	1515.437	1156.392
155.789	17.940	1514.379	1154.941
156.804	18.133	1512.803	1154.939
157.819	18.149	1511.975	1154.315
158.833	18.105	1510.987	1153.158
159.848	18.201	1510.008	1152.960
160.862	18.276	1508.886	1152.504
161.877	18.364	1507.639	1152.041
162.892	18.254	1505.764	1149.770
163.906	17.974	1504.727	1146.998
164.921	17.918	1503.094	1145.270
165.935	17.893	1502.632	1144.649
166.950	17.962	1501.321	1144.012
167.964	18.081	1499.940	1143.654
168.979	18.162	1498.930	1143.325
169.994	18.118	1497.857	1142.111
171.008	18.022	1497.088	1140.784
172.023	18.026	1495.794	1139.725
173.037	18.111	1494.881	1139.495
174.052	18.262	1494.033	1139.753
175.067	18.305	1492.779	1138.979
176.081	18.263	1491.558	1137.672
177.096	17.998	1490.046	1134.659
178.110	17.972	1488.922	1133.526
179.125	17.937	1487.889	1132.409
180.140	18.101	1486.488	1132.326
181.154	18.081	1485.532	1131.368
182.169	18.178	1484.444	1131.084
183.183	18.143	1483.644	1130.140
184.198	18.281	1482.761	1130.279
185.213	18.334	1481.479	1129.553
186.227	18.379	1480.322	1128.866
187.242	18.305	1479.660	1127.774
188.256	18.479	1478.573	1127.990
189.271	18.500	1477.258	1127.022
190.286	18.549	1476.232	1126.467
191.300	18.507	1475.090	1125.218
192.315	18.284	1473.458	1122.412
193.329	17.919	1471.983	1118.797
194.344	17.847	1471.415	1117.796
195.359	17.935	1470.578	1117.635
196.373	18.136	1469.542	1118.066
197.388	18.162	1468.651	1117.459
198.402	18.301	1467.680	1117.525
199.417	18.453	1466.491	1117.515
200.432	18.648	1465.348	1117.817
201.446	18.772	1464.818	1118.118
202.461	18.751	1463.839	1117.134
203.475	18.848	1463.087	1117.094
204.490	18.873	1462.238	1116.510
205.504	18.783	1461.000	1114.882
206.519	18.681	1459.564	1113.026
207.534	18.509	1458.658	1111.123
208.548	18.418	1457.574	1109.609
209.563	18.507	1456.175	1109.019
210.577	18.507	1455.058	1108.070
211.592	18.419	1454.583	1107.044
212.607	18.446	1454.079	1106.740
213.621	18.697	1453.491	1107.811
214.636	18.770	1452.317	1107.287
215.650	18.708	1451.119	1105.879
216.665	18.619	1450.445	1104.693
217.680	18.693	1449.596	1104.423
218.694	18.805	1449.234	1104.770
219.709	18.825	1448.664	1104.368
220.723	18.854	1447.404	1103.495
221.738	18.875	1446.235	1102.640
222.753	18.879	1445.007	1101.636
223.767	18.806	1443.880	1100.207
224.782	18.710	1443.536	1099.236
225.796	18.901	1442.584	1099.636
226.811	18.954	1441.719	1099.217
227.826	18.952	1441.341	1098.820
228.840	18.888	1440.233	1097.472
229.855	18.857	1439.050	1096.270
230.869	18.760	1438.184	1094.896
231.884	18.736	1436.891	1093.665
232.899	18.833	1435.672	1093.260
233.913	18.754	1434.385	1091.678
234.928	18.588	1433.323	1089.718
235.942	18.566	1432.238	1088.655
236.957	18.570	1430.916	1087.582
237.972	18.700	1429.067	1086.906
238.986	18.621	1428.421	1085.815
240.001	18.601	1427.764	1085.091
241.015	18.587	1426.820	1084.191
242.030	18.647	1425.142	1083.202
243.045	18.721	1424.698	1083.233
244.059	18.764	1424.288	1083.099
245.074	18.887	1422.847	1082.678
246.088	18.893	1422.302	1082.208
247.103	19.042	1421.435	1082.391
248.117	19.039	1420.898	1081.865
249.132	19.127	1420.336	1081.898
250.147	19.217	1419.414	1081.662
251.161	19.225	1419.401	1081.608
252.176	19.563	1418.782	1083.158
253.190	19.676	1417.630	1082.891
254.205	19.623	1416.816	1081.841
255.220	19.685	1416.326	1081.761
256.234	19.695	1415.677	1081.231
257.249	19.671	1414.913	1080.405
258.263	19.697	1414.083	1079.834
259.278	19.681	1413.158	1078.932
260.293	19.659	1411.909	1077.748
261.307	19.694	1411.157	1077.295
262.322	19.720	1410.864	1077.140
263.336	19.864	1409.628	1077.000
264.351	19.785	1408.764	1075.753
265.366	19.824	1407.485	1074.923
266.380	19.865	1406.867	1074.610
267.395	19.813	1405.971	1073.507
268.409	19.764	1405.493	1072.740
269.424	19.749	1404.107	1071.497
270.439	19.721	1402.968	1070.360
271.453	19.691	1401.961	1069.309
272.468	19.650	1401.148	1068.339
273.482	19.619	1400.109	1067.261
274.497	19.523	1399.299	1065.961
275.512	19.614	1397.964	1065.409
276.526	19.603	1397.272	1064.720
277.541	19.555	1396.626	1063.835
278.555	19.638	1395.912	1063.709
279.570	19.692	1394.808	1063.109
280.585	19.707	1393.909	1062.424
281.599	19.917	1393.157	1063.041
282.614	19.915	1392.385	1062.346
283.628	19.818	1391.421	1060.926
284.643	19.708	1390.199	1059.221
285.657	19.695	1389.321	1058.382
286.672	19.681	1388.400	1057.499
287.687	19.706	1387.399	1056.798
288.701	19.589	1386.529	1055.327
289.716	19.771	1385.696	1055.709
290.730	19.741	1384.790	1054.744
291.745	19.770	1383.361	1053.737
292.760	19.811	1382.408	1053.169
293.774	19.730	1382.308	1052.507
294.789	19.833	1380.948	1052.006
295.803	19.905	1380.433	1051.957
296.818	19.968	1379.667	1051.665
297.833	19.914	1378.658	1050.471
298.847	19.874	1377.365	1049.152
299.862	19.813	1376.241	1047.832
300.876	19.865	1375.288	1047.330
301.891	19.790	1374.721	1046.353
302.906	19.898	1373.811	1046.216
303.920	20.128	1373.128	1046.997
304.935	20.154	1372.917	1046.898
305.949	20.155	1372.179	1046.250
306.964	20.332	1370.947	1046.287
307.979	20.389	1370.187	1045.959
308.993	20.172	1369.451	1043.994
310.008	20.206	1368.219	1043.169
311.022	20.278	1367.147	1042.689
312.037	20.397	1365.753	1042.248
313.052	20.360	1365.387	1041.659
314.066	20.193	1364.346	1039.769
315.081	20.136	1363.094	1038.379
316.095	20.026	1361.701	1036.573
317.110	19.845	1361.330	1035.113
318.125	19.976	1359.629	1034.513
319.139	20.082	1358.564	1034.240
320.154	20.012	1358.107	1033.383
321.168	20.028	1356.710	1032.326
322.183	19.953	1355.813	1031.103
323.197	19.909	1355.455	1030.482
324.212	20.001	1354.583	1030.275
325.227	20.087	1353.693	1030.015
326.241	20.106	1352.686	1029.271
327.256	20.097	1352.005	1028.607
328.270	20.131	1350.931	1027.902
329.285	20.001	1350.078	1026.393
330.300	20.008	1349.162	1025.649
331.314	20.073	1348.110	1025.142
332.329	19.980	1347.410	1023.966
333.343	20.049	1346.845	1023.856
334.358	20.032	1345.962	1022.994
335.373	20.156	1345.160	1023.027
336.387	20.360	1344.427	1023.580
337.402	20.375	1343.552	1022.910
338.416	20.325	1342.920	1022.046
339.431	20.430	1342.357	1022.146
340.446	20.509	1341.744	1022.050
341.460	20.451	1341.337	1021.312
342.475	20.639	1339.913	1021.241
343.489	20.746	1339.409	1021.391
344.504	20.703	1338.351	1020.242
345.519	20.834	1337.477	1020.256
346.533	20.900	1336.637	1019.907
347.548	20.790	1336.391	1018.990
348.562	20.970	1335.258	1019.084
349.577	20.985	1333.951	1018.089
350.592	20.903	1332.963	1016.764
351.606	20.654	1331.867	1014.387
352.621	20.569	1330.669	1012.890
353.635	20.444	1329.888	1011.475
354.650	20.451	1328.932	1010.698
355.665	20.475	1327.611	1009.747
356.679	20.573	1326.596	1009.456
357.694	20.573	1325.802	1008.758
358.708	20.556	1324.977	1007.945
359.723	20.700	1323.765	1007.766
360.738	20.744	1322.607	1007.050
361.752	20.774	1321.851	1006.563
362.767	20.677	1320.981	1005.247
363.781	20.725	1320.117	1004.777
364.796	20.725	1319.194	1003.986
365.810	20.810	1318.523	1003.876
366.825	20.871	1318.174	1003.878
367.840	20.993	1317.326	1003.840
368.854	21.098	1316.900	1004.033
369.869	21.263	1316.352	1004.475
370.883	21.231	1315.825	1003.798
371.898	21.140	1315.017	1002.573
372.913	21.125	1314.104	1001.703
373.927	21.013	1313.107	1000.210
374.942	21.000	1312.114	999.293
375.956	21.136	1311.378	999.420
376.971	21.285	1310.526	999.535
377.986	21.178	1309.870	998.337
379.000	21.151	1309.454	997.775
380.015	21.194	1309.054	997.626
381.029	21.359	1307.629	997.398
382.044	21.391	1307.376	997.295
383.059	21.469	1306.636	997.088
384.073	21.238	1306.330	995.452
385.088	21.299	1305.219	994.864
386.102	21.332	1304.546	994.450
387.117	21.487	1303.706	994.603
388.132	21.368	1302.662	993.042
389.146	21.149	1301.718	990.994
390.161	21.113	1300.730	989.946
391.175	21.104	1300.132	989.357
392.190	21.129	1299.242	988.731
393.205	21.120	1298.717	988.192
394.219	21.360	1297.798	988.766
395.234	21.413	1296.619	988.080
396.248	21.345	1294.842	986.251
397.263	21.174	1293.904	984.488
398.278	21.230	1292.515	983.657
399.292	21.163	1291.614	982.509
400.307	21.118	1290.439	981.274
401.321	21.031	1289.172	979.735
402.336	20.980	1288.179	978.607
403.350	21.064	1287.043	978.128
404.365	21.098	1285.960	977.413
405.380	21.013	1285.246	976.307
406.394	21.076	1284.876	976.289
407.409	21.161	1284.179	976.152
408.423	21.282	1283.654	976.340
409.438	21.427	1282.938	976.521
410.453	21.545	1282.525	976.776
411.467	21.546	1281.680	976.052
412.482	21.673	1281.284	976.374
413.496	21.644	1280.654	975.646
414.511	21.643	1279.778	974.884
415.526	21.617	1279.151	974.175
416.540	21.842	1278.467	974.821
417.555	21.887	1278.002	974.628
418.569	21.830	1277.718	974.011
419.584	21.810	1276.583	972.950
420.599	21.789	1275.507	971.924
421.613	145.684	1432.139	1794.890
422.628	140.219	1454.951	1794.983
