DTS Sentinel unit serial number:	SN413079Multiplexer serial number:	ORYXHardware model number:	OX4-SRSoftware version number:	ORYX F/W v4.00 Oryx Data Collector v3.7.2.0data status	okinstallation	princeton_trtdifferential loss correction	single-endedforward channel	channel 4reverse channel	N/Adate	2019/09/16time	20:09:35forward acquisition time	60.00reverse acquisition time	0.00gamma	496.2192k internal	0.2311k external	0.2311temperature offset calibration	0.9967default loss term (dB/km)	0.3790temperature slope calibration	1.0000multiplexer offset coefficient	1.0000multiplexer slope coefficient	1.0000fibre end	0.00T internal ref (°C)	33.12T ext. ref 1 (°C)	0.05T ext. ref 2 (°C)	26.67length (m)	temperature (°C)	Stokes	anti-Stokes-747.200	24.354	0.099	-0.083
-746.185	-200.000	0.005	0.235
-745.171	-72.425	-0.236	0.089
-744.156	-55.700	-0.245	0.111
-743.142	741.104	-0.028	0.076
-742.127	-19.491	-0.142	-0.089
-741.112	-67.326	0.272	-0.109
-740.098	-31.742	0.090	-0.051
-739.083	745.587	0.141	-0.384
-738.069	442.794	-0.095	0.212
-737.054	-113.112	-0.129	-0.026
-736.039	-7.069	-0.253	0.174
-735.025	-200.000	-0.002	0.144
-734.010	-0.613	-0.179	0.129
-732.996	-200.000	0.046	-0.399
-731.981	-3.433	0.053	-0.037
-730.966	124.916	-0.102	-0.130
-729.952	-48.808	-0.150	0.073
-728.937	432.402	-0.096	0.212
-727.923	636.006	0.131	-0.336
-726.908	-142.736	-0.261	-0.026
-725.894	724.321	0.101	-0.274
-724.879	327.788	-0.050	-0.098
-723.864	-3.058	0.145	-0.103
-722.850	-144.486	0.288	0.027
-721.835	-174.284	-0.126	0.004
-720.821	-200.000	0.070	0.326
-719.806	-25.005	-0.192	-0.115
-718.791	59.148	0.082	-0.082
-717.777	54.575	0.055	-0.054
-716.762	-120.591	0.161	-0.028
-715.748	800.000	0.072	-0.318
-714.733	53.765	-0.189	-0.184
-713.718	-24.842	-0.171	0.103
-712.704	283.467	0.196	-0.357
-711.689	800.000	-0.063	-0.206
-710.675	497.985	-0.045	0.106
-709.660	-46.885	0.143	-0.071
-708.645	184.351	-0.009	0.013
-707.631	42.583	0.244	-0.225
-706.616	-109.801	-0.297	-0.063
-705.602	-132.905	0.087	-0.011
-704.587	4.410	-0.288	-0.214
-703.572	800.000	-0.061	0.234
-702.558	-172.564	-0.179	0.006
-701.543	-85.295	0.349	0.110
-700.529	-57.329	0.242	0.108
-699.514	-25.791	0.013	-0.008
-698.499	-25.470	0.199	0.119
-697.485	-200.000	-0.036	0.240
-696.470	610.903	0.135	-0.343
-695.456	-79.284	-0.129	-0.044
-694.441	-163.012	0.225	-0.011
-693.426	-61.031	-0.253	-0.108
-692.412	-51.611	-0.053	0.025
-691.397	182.055	-0.032	-0.047
-690.383	-149.412	0.196	-0.016
-689.368	-82.558	-0.214	-0.070
-688.354	-200.000	-0.044	-0.200
-687.339	-133.318	-0.117	-0.015
-686.324	-141.762	0.313	0.032
-685.310	-24.536	0.167	0.101
-684.295	-182.650	-0.220	-0.004
-683.281	126.993	-0.067	0.086
-682.266	-139.015	0.189	-0.021
-681.251	-12.252	-0.146	-0.097
-680.237	695.141	0.065	0.172
-679.222	14.343	-0.160	-0.126
-678.208	-103.106	0.161	0.039
-677.193	-28.969	0.199	0.116
-676.178	-200.000	0.012	-0.297
-675.164	-200.000	-0.036	-0.163
-674.149	-91.365	0.107	-0.031
-673.135	365.379	-0.059	0.120
-672.120	800.000	-0.084	-0.374
-671.105	800.000	-0.025	-0.075
-670.091	-22.311	-0.317	-0.195
-669.076	800.000	-0.104	-0.311
-668.062	-48.322	-0.187	0.091
-667.047	-200.000	-0.006	-0.227
-666.032	685.951	0.108	-0.284
-665.018	-66.139	0.086	-0.035
-664.003	-27.007	-0.223	-0.132
-662.989	-121.247	0.228	-0.039
-661.974	9.439	0.109	0.083
-660.959	-126.715	-0.024	0.004
-659.945	154.397	0.119	0.165
-658.930	-200.000	0.034	0.175
-657.916	-200.000	0.074	-0.408
-656.901	22.575	-0.111	0.092
-655.886	511.396	-0.086	-0.202
-654.872	-200.000	0.016	-0.153
-653.857	248.461	-0.204	-0.349
-652.843	148.774	0.223	0.306
-651.828	189.512	-0.171	0.260
-650.814	4.453	-0.179	-0.133
-649.799	-151.246	-0.191	-0.014
-648.784	229.962	-0.060	-0.099
-647.770	227.185	0.042	0.069
-646.755	-200.000	-0.037	0.285
-645.741	26.979	0.219	-0.185
-644.726	-200.000	0.050	0.230
-643.711	-200.000	0.035	0.407
-642.697	47.323	-0.234	-0.221
-641.682	242.697	-0.034	-0.058
-640.668	181.501	-0.096	-0.143
-639.653	-125.738	0.179	-0.027
-638.638	259.542	-0.115	0.201
-637.624	3.303	-0.169	-0.124
-636.609	-79.728	0.231	0.079
-635.595	4.340	0.221	-0.164
-634.580	-149.315	-0.320	0.026
-633.565	-200.000	-0.028	-0.201
-632.551	-74.263	-0.304	-0.111
-631.536	54.665	0.256	0.250
-630.522	486.374	0.130	-0.299
-629.507	-95.667	-0.388	-0.105
-628.492	336.363	0.205	-0.402
-627.478	-126.367	0.360	-0.054
-626.463	192.984	0.161	-0.246
-625.449	12.293	0.156	0.122
-624.434	-106.867	0.122	0.027
-623.419	800.000	-0.034	0.140
-622.405	-13.356	0.282	0.185
-621.390	-136.605	0.082	-0.010
-620.376	-157.932	-0.179	0.011
-619.361	-114.143	0.334	-0.065
-618.346	-200.000	0.047	-0.269
-617.332	536.223	0.078	0.188
-616.317	301.259	0.048	0.090
-615.303	697.777	-0.079	0.210
-614.288	-200.000	0.015	-0.153
-613.273	-200.000	0.001	0.044
-612.259	800.000	0.014	-0.047
-611.244	-108.559	-0.305	-0.066
-610.230	335.509	-0.140	-0.275
-609.215	-200.000	0.007	0.201
-608.201	800.000	0.100	0.320
-607.186	70.457	0.143	0.149
-606.171	1.907	-0.152	-0.110
-605.157	-19.888	-0.298	-0.186
-604.142	238.599	-0.159	0.267
-603.128	-34.479	0.296	-0.164
-602.113	-121.588	0.189	0.032
-601.098	-178.188	0.233	-0.006
-600.084	93.540	-0.112	-0.128
-599.069	-156.131	-0.059	-0.004
-598.055	-81.112	0.055	-0.018
-597.040	519.018	-0.117	-0.277
-596.025	-39.257	-0.037	-0.020
-595.011	-14.121	0.286	0.186
-593.996	-200.000	-0.028	-0.436
-592.982	-92.524	-0.296	-0.084
-591.967	-62.329	0.089	0.038
-590.952	334.326	-0.151	-0.294
-589.938	64.784	0.175	-0.179
-588.923	-91.825	-0.309	-0.088
-587.909	-200.000	0.009	-0.064
-586.894	800.000	-0.101	-0.390
-585.879	167.572	-0.092	-0.132
-584.865	173.817	0.172	0.250
-583.850	149.548	0.081	-0.111
-582.836	-123.957	0.137	0.022
-581.821	-48.693	0.413	0.200
-580.806	-200.000	-0.014	-0.081
-579.792	89.437	0.083	-0.093
-578.777	800.000	-0.101	-0.340
-577.763	-147.754	-0.149	0.013
-576.748	10.305	-0.085	-0.065
-575.733	177.208	-0.186	-0.272
-574.719	285.379	0.223	0.404
-573.704	-200.000	0.013	-0.113
-572.690	-153.816	-0.418	0.029
-571.675	-67.623	0.209	0.082
-570.661	1.787	0.058	0.042
-569.646	265.014	-0.064	0.112
-568.631	-94.555	0.041	0.011
-567.617	-96.240	-0.326	0.087
-566.602	-170.117	0.093	-0.003
-565.588	555.599	-0.067	0.162
-564.573	265.541	0.130	-0.229
-563.558	-200.000	0.002	-0.192
-562.544	-36.242	-0.250	0.136
-561.529	29.164	0.230	-0.197
-560.515	-180.693	-0.081	-0.002
-559.500	379.761	0.037	-0.077
-558.485	179.463	0.073	-0.108
-557.471	-200.000	0.018	0.104
-556.456	5.782	-0.142	0.106
-555.442	158.599	0.163	0.228
-554.427	94.065	-0.058	0.066
-553.412	26.770	-0.123	-0.104
-552.398	-49.203	0.165	0.079
-551.383	-56.511	-0.291	0.130
-550.369	-5.311	0.068	0.047
-549.354	-200.000	0.035	-0.267
-548.339	251.162	-0.078	-0.133
-547.325	800.000	-0.020	0.079
-546.310	-200.000	0.038	-0.230
-545.296	-49.813	0.343	-0.164
-544.281	184.117	-0.071	-0.106
-543.266	-42.680	-0.138	0.071
-542.252	57.162	0.158	0.155
-541.237	-113.479	0.071	-0.014
-540.223	-116.702	-0.314	0.058
-539.208	219.521	-0.200	0.323
-538.193	-20.877	-0.083	-0.051
-537.179	800.000	-0.046	-0.178
-536.164	43.444	-0.116	-0.107
-535.150	-96.380	0.035	-0.009
-534.135	-70.229	0.214	0.082
-533.121	-200.000	-0.006	-0.125
-532.106	800.000	0.061	-0.176
-531.091	-200.000	0.014	-0.166
-530.077	-164.619	0.099	-0.004
-529.062	34.391	-0.169	0.149
-528.048	35.762	0.268	-0.237
-527.033	-200.000	-0.035	0.267
-526.018	-64.166	-0.009	-0.004
-525.004	6.855	0.104	-0.078
-523.989	-43.566	0.256	-0.130
-522.975	168.395	0.141	0.202
-521.960	46.218	0.225	0.210
-520.945	159.015	-0.178	-0.249
-519.931	47.181	0.060	0.056
-518.916	-200.000	-0.012	0.422
-517.902	800.000	-0.148	0.472
-516.887	-200.000	0.008	0.341
-515.872	-142.609	0.159	-0.016
-514.858	-129.272	0.190	-0.027
-513.843	-200.000	-0.045	-0.276
-512.829	-44.066	0.330	-0.167
-511.814	-200.000	-0.064	-0.411
-510.799	112.894	-0.083	-0.102
-509.785	-200.000	0.047	-0.220
-508.770	377.266	0.119	-0.244
-507.756	-200.000	0.033	-0.168
-506.741	1.013	-0.322	-0.232
-505.726	800.000	-0.057	0.185
-504.712	131.948	0.056	0.073
-503.697	-200.000	-0.003	0.113
-502.683	136.743	-0.073	0.096
-501.668	167.442	0.086	0.123
-500.653	-151.448	0.184	-0.014
-499.639	-200.000	-0.033	-0.264
-498.624	429.618	-0.091	-0.198
-497.610	800.000	0.061	-0.170
-496.595	-111.047	0.337	0.070
-495.581	3.363	0.113	0.083
-494.566	565.057	0.051	0.124
-493.551	-17.953	-0.131	0.082
-492.537	-200.000	-0.038	-0.270
-491.522	-58.456	0.106	-0.046
-490.508	-77.207	0.129	-0.045
-489.493	47.689	0.041	-0.038
-488.478	-200.000	0.083	0.379
-487.464	-81.038	0.104	-0.035
-486.449	-200.000	0.006	-0.122
-485.435	-153.145	0.386	0.027
-484.420	26.238	-0.033	-0.028
-483.405	-200.000	0.035	-0.275
-482.391	-200.000	-0.005	0.040
-481.376	-34.124	0.262	0.145
-480.362	0.972	-0.055	0.040
-479.347	800.000	0.025	-0.095
-478.332	26.637	-0.154	-0.129
-477.318	-32.321	-0.239	-0.134
-476.303	-200.000	0.025	0.224
-475.289	-200.000	0.001	-0.011
-474.274	213.271	-0.087	-0.138
-473.259	35.564	0.103	-0.091
-472.245	-106.869	0.204	0.046
-471.230	579.440	-0.031	0.077
-470.216	-200.000	0.031	0.411
-469.201	-200.000	-0.044	0.209
-468.186	-26.050	0.200	0.118
-467.172	-118.144	-0.242	0.043
-466.157	211.330	-0.083	-0.131
-465.143	-200.000	-0.008	0.064
-464.128	725.801	-0.060	-0.161
-463.113	-69.939	-0.242	-0.093
-462.099	76.877	-0.457	-0.487
-461.084	125.311	0.140	-0.178
-460.070	-123.427	-0.195	-0.031
-459.055	-124.038	0.126	-0.020
-458.040	129.193	0.228	0.292
-457.026	-200.000	0.003	0.318
-456.011	-149.162	-0.383	-0.031
-454.997	800.000	0.171	0.560
-453.982	322.497	-0.012	0.024
-452.968	-104.709	0.186	0.043
-451.953	-83.520	0.100	-0.032
-450.938	-42.348	-0.120	-0.062
-449.924	-200.000	-0.029	-0.332
-448.909	90.975	0.185	-0.209
-447.895	-58.636	-0.206	0.090
-446.880	-200.000	-0.007	-0.365
-445.865	800.000	-0.107	-0.427
-444.851	-200.000	0.255	0.001
-443.836	76.103	0.320	-0.340
-442.822	-200.000	-0.001	-0.333
-441.807	-200.000	0.008	0.066
-440.792	158.871	-0.137	-0.191
-439.778	-67.489	0.145	-0.057
-438.763	-149.393	0.111	0.009
-437.749	-36.336	0.172	-0.093
-436.734	-64.004	0.064	-0.026
-435.719	-200.000	-0.061	0.306
-434.705	269.501	-0.121	0.213
-433.690	-29.994	-0.166	-0.095
-432.676	60.998	-0.076	-0.076
-431.661	66.543	-0.235	-0.239
-430.646	-138.506	0.213	-0.023
-429.632	-20.167	0.191	0.118
-428.617	107.200	-0.190	-0.226
-427.603	-34.640	0.131	0.072
-426.588	198.654	0.078	-0.120
-425.573	-37.716	0.245	0.131
-424.559	-44.322	-0.336	0.169
-423.544	-200.000	0.019	-0.194
-422.530	-200.000	-0.010	-0.200
-421.515	-30.924	0.110	0.063
-420.500	-200.000	-0.034	-0.313
-419.486	-141.387	-0.338	0.034
-418.471	385.438	-0.066	0.137
-417.457	272.793	-0.132	0.233
-416.442	367.392	0.098	-0.197
-415.428	199.306	-0.153	0.235
-414.413	47.791	0.181	0.170
-413.398	800.000	-0.046	-0.135
-412.384	-200.000	-0.079	0.390
-411.369	-200.000	0.108	0.504
-410.355	-200.000	-0.180	-0.000
-409.340	617.840	-0.116	0.293
-408.325	-95.291	-0.395	-0.106
-407.311	-7.439	0.189	0.128
-406.296	-28.684	-0.148	0.086
-405.282	-46.409	0.386	-0.190
-404.267	800.000	-0.079	-0.225
-403.252	-37.987	0.082	-0.044
-402.238	-44.086	-0.309	0.155
-401.223	-200.000	0.030	-0.425
-400.209	-147.689	0.362	-0.030
-399.194	210.518	-0.117	-0.184
-398.179	132.669	0.090	0.116
-397.165	446.670	-0.197	-0.433
-396.150	9.875	-0.126	-0.096
-395.136	87.956	-0.182	0.202
-394.121	69.003	0.355	0.365
-393.106	133.586	0.255	0.331
-392.092	400.311	-0.177	0.371
-391.077	-163.041	-0.416	-0.020
-390.063	122.533	0.038	-0.048
-389.048	-200.000	-0.019	-0.189
-388.033	-32.138	0.270	-0.151
-387.019	800.000	-0.056	-0.236
-386.004	321.244	-0.142	-0.269
-384.990	463.517	-0.125	-0.280
-383.975	23.236	-0.274	0.226
-382.960	23.980	-0.158	0.130
-381.946	-21.155	0.292	-0.179
-380.931	800.000	-0.037	0.128
-379.917	-136.639	0.175	-0.020
-378.902	-62.413	0.245	0.102
-377.888	656.311	-0.015	0.040
-376.873	-200.000	0.036	-0.163
-375.858	104.226	-0.251	0.295
-374.844	366.867	0.050	0.100
-373.829	279.811	-0.030	0.054
-372.815	437.020	0.097	-0.211
-371.800	-200.000	-0.047	-0.282
-370.785	-101.609	0.441	-0.107
-369.771	-200.000	-0.038	-0.219
-368.756	-104.973	-0.175	0.040
-367.742	1.248	-0.245	0.176
-366.727	19.829	0.368	0.297
-365.712	185.978	-0.139	0.207
-364.698	49.776	-0.144	0.136
-363.683	-88.693	0.065	0.019
-362.669	-200.000	0.046	0.227
-361.654	-14.058	0.214	0.138
-360.639	-43.526	-0.280	0.141
-359.625	388.241	0.041	0.084
-358.610	41.856	-0.230	0.209
-357.596	58.600	0.168	0.165
-356.581	-200.000	-0.195	-0.001
-355.566	791.134	0.122	0.334
-354.552	63.369	-0.013	-0.013
-353.537	-70.749	0.213	-0.080
-352.523	408.957	-0.095	0.201
-351.508	220.011	0.151	0.241
-350.493	-200.000	0.021	-0.160
-349.479	-200.000	0.027	0.232
-348.464	800.000	0.032	-0.115
-347.450	161.535	-0.099	0.139
-346.435	-43.405	-0.146	-0.074
-345.420	800.000	0.034	0.108
-344.406	-145.267	0.461	-0.042
-343.391	238.566	0.125	-0.208
-342.377	613.656	0.133	-0.334
-341.362	167.991	0.077	-0.109
-340.348	-104.945	-0.233	-0.053
-339.333	-149.363	-0.057	0.005
-338.318	-200.000	0.065	0.522
-337.304	-3.045	-0.442	-0.309
-336.289	-70.104	0.198	-0.075
-335.275	-73.854	0.184	-0.067
-334.260	396.733	0.050	-0.104
-333.245	693.868	-0.014	-0.036
-332.231	-86.987	0.236	-0.072
-331.216	800.000	0.225	0.646
-330.202	-200.000	-0.001	0.263
-329.187	425.144	0.050	-0.108
-328.172	702.042	0.070	0.184
-327.158	360.989	0.012	0.025
-326.143	-121.296	-0.387	0.064
-325.129	264.543	-0.080	-0.138
-324.114	114.369	0.106	0.129
-323.099	725.440	0.114	-0.304
-322.085	-35.891	-0.226	0.122
-321.070	690.756	-0.021	-0.054
-320.056	601.970	-0.079	0.195
-319.041	-63.545	0.139	-0.057
-318.026	385.324	0.186	-0.384
-317.012	723.871	-0.088	-0.234
-315.997	115.835	-0.230	-0.281
-314.983	-54.489	0.311	-0.141
-313.968	-200.000	0.014	0.271
-312.953	800.000	-0.038	0.106
-311.939	-19.557	-0.239	0.148
-310.924	-200.000	-0.019	-0.234
-309.910	116.107	-0.080	0.097
-308.895	-101.896	-0.238	-0.057
-307.880	303.267	0.161	-0.297
-306.866	-52.719	0.162	-0.075
-305.851	-165.330	-0.429	-0.019
-304.837	-13.967	0.135	0.087
-303.822	31.739	-0.387	-0.332
-302.807	601.032	0.041	-0.100
-301.793	-30.020	0.175	0.100
-300.778	-72.529	-0.243	0.090
-299.764	-200.000	0.066	0.417
-298.749	-126.421	0.249	-0.037
-297.735	-73.189	-0.142	-0.052
-296.720	-200.000	-0.004	-0.082
-295.705	-45.916	0.050	0.024
-294.691	-60.097	-0.222	0.094
-293.676	-107.029	0.277	0.061
-292.662	485.283	0.123	-0.280
-291.647	50.136	-0.126	0.119
-290.632	-64.233	-0.314	0.128
-289.618	-25.162	0.157	0.093
-288.603	-200.000	-0.010	0.144
-287.589	-14.535	0.084	-0.054
-286.574	-102.670	0.226	-0.054
-285.559	237.445	0.224	-0.370
-284.545	225.968	-0.067	0.108
-283.530	-200.000	0.018	-0.274
-282.516	85.113	-0.219	0.239
-281.501	-200.000	-0.038	0.278
-280.486	-43.191	-0.161	0.081
-279.472	-200.000	0.053	-0.249
-278.457	-179.956	-0.093	-0.002
-277.443	-200.000	0.034	-0.235
-276.428	125.763	0.326	0.410
-275.413	188.410	0.094	-0.139
-274.399	-158.068	-0.168	-0.010
-273.384	-200.000	-0.074	0.415
-272.370	77.059	0.102	0.108
-271.355	46.261	-0.316	0.291
-270.340	800.000	-0.087	0.353
-269.326	108.631	0.205	-0.244
-268.311	800.000	-0.093	0.281
-267.297	110.250	0.124	0.149
-266.282	53.133	-0.218	-0.208
-265.267	143.026	0.242	-0.321
-264.253	-176.317	-0.152	0.004
-263.238	-73.452	0.319	-0.116
-262.224	-200.000	0.045	0.248
-261.209	800.000	-0.100	0.280
-260.195	800.000	0.024	0.081
-259.180	-85.203	0.210	0.065
-258.165	-126.595	-0.276	-0.041
-257.151	-27.310	0.152	-0.088
-256.136	-132.189	0.462	-0.060
-255.122	-200.000	0.016	0.222
-254.107	-200.000	0.011	0.261
-253.092	-47.114	-0.092	0.045
-252.078	800.000	-0.044	-0.133
-251.063	-60.283	0.307	-0.130
-250.049	109.589	-0.180	-0.215
-249.034	-97.725	0.132	0.034
-248.019	800.000	-0.077	0.250
-247.005	53.660	-0.090	-0.086
-245.990	-200.000	0.045	-0.495
-244.976	183.387	-0.095	0.140
-243.961	800.000	-0.127	0.519
-242.946	-200.000	-0.031	0.173
-241.932	-200.000	-0.042	-0.246
-240.917	5.869	0.163	0.120
-239.903	-67.898	0.258	-0.100
-238.888	800.000	0.026	-0.075
-237.873	-163.366	-0.260	-0.012
-236.859	169.689	0.130	0.185
-235.844	-200.000	-0.029	-0.156
-234.830	-48.015	0.278	-0.134
-233.815	131.346	0.132	0.169
-232.800	-84.278	-0.220	-0.069
-231.786	-11.782	-0.329	-0.215
-230.771	800.000	-0.041	0.143
-229.757	-27.994	0.225	0.130
-228.742	-17.879	0.060	0.037
-227.727	-22.430	-0.187	0.113
-226.713	-137.789	-0.153	0.017
-225.698	-58.824	-0.177	0.076
-224.684	661.286	0.057	-0.146
-223.669	-101.214	-0.100	-0.024
-222.655	24.620	0.155	0.127
-221.640	208.791	0.146	-0.228
-220.625	365.168	-0.122	-0.243
-219.611	-200.000	-0.013	-0.121
-218.596	800.000	-0.127	0.506
-217.582	-200.000	0.043	0.370
-216.567	332.530	-0.154	-0.296
-215.552	-124.446	0.078	0.012
-214.538	-131.134	-0.481	0.064
-213.523	800.000	-0.095	0.335
-212.509	22.552	-0.005	0.004
-211.494	23.736	-0.151	0.123
-210.479	-36.680	-0.197	-0.105
-209.465	98.049	-0.165	-0.189
-208.450	-41.415	0.124	0.063
-207.436	800.000	0.053	-0.176
-206.421	255.167	-0.050	0.085
-205.406	112.938	0.126	-0.152
-204.392	-200.000	0.034	-0.196
-203.377	-58.671	-0.402	0.173
-202.363	43.279	0.257	0.234
-201.348	670.029	0.058	-0.149
-200.333	204.943	-0.056	0.086
-199.319	-66.229	-0.118	-0.047
-198.304	92.926	0.024	-0.027
-197.290	107.276	-0.152	-0.179
-196.275	-118.310	-0.187	0.033
-195.260	-200.000	-0.119	-0.537
-194.246	-73.169	0.295	0.107
-193.231	-200.000	-0.022	0.573
-192.217	-113.233	-0.265	-0.052
-191.202	800.000	0.091	-0.269
-190.187	-200.000	-0.036	0.300
-189.173	-147.921	0.226	-0.019
-188.158	68.379	-0.101	-0.102
-187.144	287.683	0.084	0.151
-186.129	29.708	-0.300	0.254
-185.114	-121.826	-0.176	0.029
-184.100	-75.816	0.155	0.055
-183.085	68.969	0.054	0.055
-182.071	450.285	0.067	0.147
-181.056	-200.000	-0.013	0.211
-180.042	-40.750	-0.196	-0.101
-179.027	-101.361	0.150	0.036
-178.012	-32.465	0.075	-0.042
-176.998	122.921	0.132	-0.165
-175.983	6.227	0.256	-0.188
-174.969	-85.345	0.303	-0.094
-173.954	-50.919	-0.156	-0.073
-172.939	-112.655	0.155	-0.031
-171.925	717.276	-0.065	-0.172
-170.910	-156.141	-0.292	-0.018
-169.896	323.996	0.119	0.226
-168.881	47.758	-0.143	0.133
-167.866	800.000	0.027	0.085
-166.852	0.055	-0.260	0.184
-165.837	-155.376	-0.382	-0.025
-164.823	800.000	-0.029	-0.118
-163.808	-165.574	-0.099	-0.004
-162.793	-41.653	0.280	0.143
-161.779	-160.207	0.218	0.012
-160.764	-154.367	-0.161	-0.011
-159.750	-27.094	0.270	-0.156
-158.735	-83.400	-0.103	-0.033
-157.720	531.965	0.082	0.192
-156.706	-77.957	-0.334	-0.114
-155.691	117.842	-0.218	0.266
-154.677	800.000	0.048	0.204
-153.662	800.000	0.034	0.110
-152.647	-132.231	-0.125	0.016
-151.633	184.489	-0.059	0.086
-150.618	160.240	0.099	-0.137
-149.604	118.475	0.143	-0.175
-148.589	-20.360	-0.227	0.138
-147.574	184.905	-0.085	-0.125
-146.560	-199.275	0.179	-0.001
-145.545	-156.381	0.141	0.009
-144.531	800.000	0.104	0.309
-143.516	305.101	-0.083	0.153
-142.502	-175.993	-0.263	0.007
-141.487	-200.000	0.056	0.355
-140.472	63.792	-0.080	0.080
-139.458	399.407	-0.153	0.317
-138.443	-117.704	0.196	-0.035
-137.429	-99.644	-0.200	0.050
-136.414	-200.000	0.025	-0.274
-135.399	274.742	-0.147	-0.258
-134.385	-200.000	-0.038	0.507
-133.370	800.000	0.056	0.161
-132.356	-60.416	-0.155	-0.065
-131.341	89.490	-0.054	0.060
-130.326	324.349	0.153	0.290
-129.312	96.182	0.121	0.137
-128.297	23.242	0.208	-0.169
-127.283	754.069	0.121	-0.324
-126.268	57.290	-0.263	0.254
-125.253	5.574	0.275	0.201
-124.239	-44.109	0.253	-0.126
-123.224	669.069	0.210	-0.538
-122.210	-130.980	0.171	0.023
-121.195	154.267	-0.155	0.210
-120.180	0.684	0.173	0.123
-119.166	23.752	0.090	0.074
-118.151	74.555	-0.060	0.063
-117.137	-200.000	0.038	-0.326
-116.122	-108.997	0.064	0.013
-115.107	-90.852	-0.269	-0.077
-114.093	33.578	0.229	-0.197
-113.078	800.000	0.046	0.189
-112.064	-137.040	0.264	0.030
-111.049	122.461	-0.033	-0.041
-110.034	626.502	-0.062	0.155
-109.020	800.000	-0.022	-0.088
-108.005	800.000	-0.069	0.284
-106.991	45.974	0.254	-0.233
-105.976	800.000	0.031	0.123
-104.962	-21.611	-0.220	0.133
-103.947	-108.147	0.284	0.061
-102.932	-200.000	-0.016	0.089
-101.918	-200.000	0.056	0.336
-100.903	-200.000	0.006	-0.049
-99.889	253.542	0.020	0.033
-98.874	-130.915	0.191	0.025
-97.859	717.197	0.129	-0.340
-96.845	97.295	-0.134	-0.152
-95.830	-80.913	0.090	-0.029
-94.816	502.891	0.080	-0.183
-93.801	433.516	-0.198	-0.426
-92.786	-143.880	-0.121	-0.011
-91.772	-200.000	0.023	0.281
-90.757	-200.000	-0.028	0.157
-89.743	-200.000	-0.034	-0.262
-88.728	-109.246	-0.271	0.057
-87.713	-24.605	-0.259	-0.152
-86.699	-112.709	0.262	0.051
-85.684	-138.806	0.113	-0.012
-84.670	-59.305	0.398	0.169
-83.655	-200.000	-0.007	0.117
-82.640	-5.546	0.233	0.158
-81.626	282.719	0.062	-0.110
-80.611	-116.962	-0.091	-0.016
-79.597	-42.123	-0.199	-0.101
-78.582	800.000	0.074	-0.243
-77.567	-9.853	0.191	-0.126
-76.553	-189.868	-0.186	0.002
-75.538	-141.710	-0.214	0.021
-74.524	-108.274	-0.102	-0.022
-73.509	-200.000	-0.016	-0.103
-72.494	-170.158	-0.178	-0.006
-71.480	-152.681	0.618	0.044
-70.465	-163.667	0.086	-0.004
-69.451	800.000	-0.083	0.292
-68.436	-27.364	0.180	0.103
-67.422	-200.000	-0.014	-0.276
-66.407	-200.000	-0.008	0.086
-65.392	29.346	0.069	-0.058
-64.378	43.627	-0.136	0.123
-63.363	-145.932	0.451	-0.039
-62.349	800.000	0.073	0.272
-61.334	154.877	-0.809	-1.099
-60.319	201.739	0.392	0.597
-59.305	489.708	-0.400	-0.904
-58.290	249.427	0.648	1.085
-57.276	800.000	0.323	1.377
-56.261	-200.000	92.746	562.314
-55.246	559.795	1358.356	3241.810
-54.232	161.762	2532.922	3504.217
-53.217	103.959	2298.480	2669.564
-52.203	39.755	2061.069	1827.328
-51.188	34.910	1975.965	1708.654
-50.173	33.320	1957.992	1678.963
-49.159	48.673	2005.955	1858.146
-48.144	50.052	2024.539	1887.663
-47.130	35.556	1986.538	1723.323
-46.115	33.169	1976.524	1693.225
-45.100	33.084	1973.511	1689.816
-44.086	33.032	1971.271	1687.369
-43.071	32.985	1968.576	1684.579
-42.057	32.919	1966.799	1682.399
-41.042	32.877	1964.852	1680.296
-40.027	32.965	1962.261	1678.794
-39.013	32.928	1960.784	1677.137
-37.998	32.948	1959.033	1675.753
-36.984	33.090	1956.709	1674.959
-35.969	33.089	1954.934	1673.357
-34.954	33.087	1953.418	1671.982
-33.940	33.099	1951.850	1670.678
-32.925	33.139	1950.422	1669.742
-31.911	33.104	1949.014	1668.164
-30.896	33.167	1947.207	1667.102
-29.881	33.108	1945.899	1665.393
-28.867	33.237	1943.269	1664.216
-27.852	33.163	1942.186	1662.568
-26.838	33.193	1939.878	1660.797
-25.823	33.160	1938.007	1658.839
-24.809	33.125	1937.188	1657.759
-23.794	33.232	1934.821	1656.606
-22.779	33.085	1933.551	1654.165
-21.765	33.129	1932.016	1653.176
-20.750	33.067	1930.255	1651.062
-19.736	33.071	1928.312	1649.366
-18.721	33.159	1926.322	1648.367
-17.706	33.166	1925.420	1647.590
-16.692	33.144	1923.813	1645.954
-15.677	33.147	1922.102	1644.459
-14.663	33.148	1920.195	1642.767
-13.648	33.120	1919.336	1641.725
-12.633	33.252	1918.046	1641.703
-11.619	33.249	1916.616	1640.382
-10.604	33.196	1914.896	1638.385
-9.590	33.129	1914.069	1637.040
-8.575	33.133	1913.042	1636.128
-7.560	33.111	1911.888	1634.888
-6.546	33.114	1910.526	1633.682
-5.531	33.214	1908.774	1632.982
-4.517	33.105	1908.003	1631.321
-3.502	33.163	1906.359	1630.350
-2.487	33.138	1905.297	1629.159
-1.473	33.100	1904.657	1628.219
-0.458	33.118	1899.803	1624.158
0.556	30.821	1879.115	1594.622
1.571	26.297	1858.423	1538.505
2.586	22.006	1880.229	1519.371
3.600	20.888	1915.182	1537.617
4.615	20.511	1910.908	1530.731
5.629	15.984	1811.328	1412.950
6.644	6.387	1690.215	1242.922
7.659	0.688	1650.261	1169.424
8.673	0.086	1647.138	1162.461
9.688	0.131	1645.391	1161.473
10.702	0.036	1644.203	1159.797
11.717	-0.073	1641.268	1156.784
12.731	0.560	1640.868	1161.270
13.746	7.479	1655.126	1224.800
14.761	15.882	1671.939	1302.392
15.775	17.947	1673.597	1319.546
16.790	17.010	1670.386	1309.666
17.804	15.909	1666.595	1298.090
18.819	14.906	1663.644	1287.962
19.834	14.329	1661.697	1281.898
20.848	14.070	1660.015	1278.493
21.863	13.726	1658.168	1274.313
22.877	13.600	1656.082	1271.634
23.892	13.243	1655.320	1268.195
24.907	13.108	1654.473	1266.404
25.921	13.204	1652.805	1265.745
26.936	13.229	1652.042	1265.246
27.950	13.213	1651.391	1264.506
28.965	13.333	1650.397	1264.552
29.980	13.271	1650.190	1263.808
30.994	13.209	1649.367	1262.597
32.009	13.348	1648.171	1262.630
33.023	13.489	1647.573	1263.134
34.038	13.474	1646.540	1262.114
35.053	13.409	1645.922	1261.033
36.067	13.387	1644.449	1259.629
37.082	13.341	1643.377	1258.347
38.096	13.408	1642.249	1257.879
39.111	13.309	1641.982	1256.811
40.126	13.386	1641.255	1256.728
41.140	13.435	1639.948	1255.991
42.155	13.218	1638.608	1253.208
43.169	13.213	1637.315	1252.070
44.184	13.236	1636.001	1251.126
45.199	13.170	1635.160	1249.877
46.213	13.162	1633.691	1248.576
47.228	13.164	1632.379	1247.478
48.242	13.183	1631.763	1247.040
49.257	13.320	1630.006	1246.621
50.271	13.307	1628.759	1245.463
51.286	13.203	1627.717	1243.772
52.301	13.345	1626.515	1243.807
53.315	13.292	1625.194	1242.294
54.330	13.256	1623.522	1240.632
55.344	13.217	1621.716	1238.853
56.359	13.165	1620.467	1237.396
57.374	13.255	1619.016	1236.853
58.388	13.170	1618.157	1235.452
59.403	13.179	1616.620	1234.234
60.417	13.168	1615.471	1233.167
61.432	13.119	1614.185	1231.714
62.447	13.159	1612.942	1230.950
63.461	13.124	1611.605	1229.564
64.476	13.064	1610.447	1228.123
65.490	13.047	1609.603	1227.246
66.505	13.001	1608.293	1225.797
67.520	13.088	1606.958	1225.317
68.534	13.112	1606.360	1224.929
69.549	13.103	1605.367	1224.001
70.563	13.125	1603.698	1222.778
71.578	13.095	1602.963	1221.891
72.593	13.101	1601.516	1220.725
73.607	13.069	1600.537	1219.632
74.622	13.023	1599.497	1218.390
75.636	13.038	1598.164	1217.381
76.651	12.999	1598.127	1216.956
77.666	12.940	1597.084	1215.618
78.680	13.050	1596.123	1215.593
79.695	13.031	1595.353	1214.754
80.709	12.996	1594.720	1213.910
81.724	13.093	1593.043	1213.239
82.739	13.113	1591.806	1212.335
83.753	13.234	1591.151	1212.618
84.768	13.184	1590.470	1211.626
85.782	13.369	1589.297	1211.983
86.797	13.436	1588.467	1211.729
87.812	13.374	1587.424	1210.371
88.826	13.346	1586.395	1209.275
89.841	13.219	1585.766	1207.759
90.855	13.277	1584.575	1207.172
91.870	13.359	1583.186	1206.608
92.884	13.300	1582.455	1205.510
93.899	13.301	1582.012	1205.075
94.914	13.331	1580.646	1204.143
95.928	13.375	1579.512	1203.495
96.943	13.379	1578.095	1202.337
97.957	13.478	1575.934	1201.302
98.972	13.324	1575.405	1199.676
99.987	13.296	1573.951	1198.263
101.001	13.387	1571.944	1197.289
102.016	13.417	1570.706	1196.454
103.030	13.392	1569.269	1195.074
104.045	13.329	1568.409	1193.858
105.060	13.409	1566.763	1193.077
106.074	13.331	1565.730	1191.625
107.089	13.287	1563.804	1189.736
108.103	13.250	1562.620	1188.463
109.118	13.193	1561.109	1186.797
110.133	13.086	1560.463	1185.435
111.147	13.186	1558.764	1184.752
112.162	13.106	1557.656	1183.238
113.176	13.285	1555.685	1182.916
114.191	13.219	1554.720	1181.607
115.206	13.216	1553.388	1180.467
116.220	13.226	1552.134	1179.481
117.235	13.242	1550.665	1178.369
118.249	13.165	1549.670	1176.965
119.264	13.245	1548.048	1176.194
120.279	13.212	1547.027	1175.079
121.293	13.162	1545.396	1173.387
122.308	13.198	1543.978	1172.459
123.322	13.127	1542.617	1170.817
124.337	13.144	1541.228	1169.783
125.352	13.129	1540.025	1168.656
126.366	13.162	1538.733	1167.809
127.381	13.148	1537.794	1166.895
128.395	13.185	1536.779	1166.284
129.410	13.239	1535.049	1165.243
130.424	13.157	1534.561	1164.197
131.439	13.196	1532.803	1163.030
132.454	13.207	1531.423	1161.958
133.468	13.292	1529.885	1161.287
134.483	13.259	1528.986	1160.269
135.497	13.295	1527.298	1159.137
136.512	13.280	1526.132	1158.043
137.527	13.293	1524.332	1156.667
138.541	13.269	1523.608	1155.851
139.556	13.266	1522.345	1154.767
140.570	13.324	1520.899	1153.971
141.585	13.351	1519.154	1152.737
142.600	13.453	1518.079	1152.526
143.614	13.449	1517.161	1151.702
144.629	13.399	1515.883	1150.279
145.643	13.393	1514.771	1149.294
146.658	13.511	1513.003	1148.669
147.673	13.444	1511.908	1147.272
148.687	13.361	1510.022	1145.163
149.702	13.419	1508.538	1144.337
150.716	13.440	1507.075	1143.274
151.731	13.371	1505.767	1141.704
152.746	13.387	1504.362	1140.646
153.760	13.390	1503.027	1139.554
154.775	13.394	1501.723	1138.493
155.789	13.488	1500.407	1138.041
156.804	13.509	1499.846	1137.662
157.819	13.492	1498.586	1136.489
158.833	13.582	1496.635	1135.523
159.848	13.587	1496.173	1135.106
160.862	13.704	1494.399	1134.459
161.877	13.742	1493.408	1133.867
162.892	13.598	1492.620	1132.188
163.906	13.528	1491.238	1130.561
164.921	13.540	1489.587	1129.288
165.935	13.582	1488.826	1128.901
166.950	13.545	1487.875	1127.822
167.964	13.596	1486.241	1126.836
168.979	13.496	1485.385	1125.404
169.994	13.630	1484.154	1125.281
171.008	13.591	1483.540	1124.456
172.023	13.543	1482.274	1123.072
173.037	13.631	1481.427	1122.926
174.052	13.715	1479.736	1122.114
175.067	13.755	1478.591	1121.416
176.081	13.688	1477.493	1120.031
177.096	13.614	1476.664	1118.806
178.110	13.622	1474.893	1117.420
179.125	13.638	1473.816	1116.609
180.140	13.528	1473.159	1115.272
181.154	13.694	1472.049	1115.448
182.169	13.676	1471.088	1114.505
183.183	13.754	1469.765	1113.923
184.198	13.728	1469.086	1113.140
185.213	13.789	1467.458	1112.217
186.227	13.840	1466.365	1111.626
187.242	13.870	1466.202	1111.611
188.256	13.870	1464.363	1110.117
189.271	13.945	1463.644	1109.973
190.286	13.952	1462.586	1109.120
191.300	13.852	1461.823	1107.776
192.315	13.726	1460.443	1105.788
193.329	13.678	1458.871	1104.184
194.344	13.707	1457.473	1103.221
195.359	13.598	1457.084	1102.103
196.373	13.864	1455.345	1102.457
197.388	13.851	1454.835	1101.890
198.402	13.851	1453.503	1100.782
199.417	13.966	1452.531	1100.713
200.432	13.934	1452.040	1100.028
201.446	14.048	1450.890	1099.816
202.461	14.064	1449.415	1098.703
203.475	14.057	1448.567	1097.921
204.490	14.222	1447.142	1097.828
205.504	14.142	1446.365	1096.615
206.519	14.095	1445.127	1095.270
207.534	14.049	1444.336	1094.274
208.548	13.968	1442.785	1092.469
209.563	14.086	1441.723	1092.340
210.577	14.100	1440.658	1091.526
211.592	14.069	1440.205	1090.884
212.607	14.167	1439.356	1090.790
213.621	14.226	1438.566	1090.480
214.636	14.215	1438.033	1089.908
215.650	14.183	1437.018	1088.835
216.665	14.123	1436.174	1087.702
217.680	14.281	1435.070	1087.807
218.694	14.219	1434.465	1086.842
219.709	14.206	1433.692	1086.082
220.723	14.347	1432.228	1085.791
221.738	14.261	1431.540	1084.612
222.753	14.392	1430.508	1084.588
223.767	14.332	1429.295	1083.182
224.782	14.388	1428.549	1082.889
225.796	14.278	1428.010	1081.665
226.811	14.332	1427.383	1081.450
227.826	14.463	1426.075	1081.209
228.840	14.421	1425.137	1080.129
229.855	14.327	1424.769	1079.151
230.869	14.384	1423.560	1078.505
231.884	14.414	1422.430	1077.749
232.899	14.491	1420.897	1076.991
233.913	14.504	1419.680	1076.056
234.928	14.365	1418.957	1074.512
235.942	14.435	1417.387	1073.681
236.957	14.422	1416.283	1072.667
237.972	14.347	1415.464	1071.466
238.986	14.446	1414.048	1070.938
240.001	14.442	1413.282	1070.235
241.015	14.427	1412.618	1069.545
242.030	14.307	1411.798	1068.059
243.045	14.518	1410.314	1068.190
244.059	14.434	1409.417	1066.884
245.074	14.566	1408.622	1067.029
246.088	14.501	1408.327	1066.298
247.103	14.648	1407.337	1066.392
248.117	14.584	1406.604	1065.332
249.132	14.639	1405.295	1064.597
250.147	14.681	1405.371	1064.833
251.161	14.750	1404.554	1064.559
252.176	14.889	1403.654	1064.665
253.190	14.906	1402.873	1064.084
254.205	14.872	1402.372	1063.397
255.220	14.887	1401.358	1062.627
256.234	14.948	1400.568	1062.320
257.249	14.983	1399.619	1061.735
258.263	14.922	1399.050	1060.816
259.278	14.885	1398.420	1060.015
260.293	14.960	1396.697	1059.091
261.307	15.038	1395.772	1058.787
262.322	15.035	1395.180	1058.226
263.336	15.087	1394.775	1058.153
264.351	15.046	1393.956	1057.178
265.366	15.172	1392.527	1056.793
266.380	15.141	1391.891	1056.023
267.395	15.235	1390.375	1055.371
268.409	15.189	1389.692	1054.472
269.424	15.224	1388.527	1053.716
270.439	15.041	1387.955	1052.039
271.453	15.119	1387.083	1051.775
272.468	15.133	1385.827	1050.812
273.482	15.192	1385.107	1050.545
274.497	15.078	1384.740	1049.459
275.512	15.110	1383.993	1049.003
276.526	15.193	1382.793	1048.519
277.541	15.132	1381.731	1047.236
278.555	15.072	1381.227	1046.387
279.570	15.186	1380.229	1046.253
280.585	15.270	1379.140	1045.862
281.599	15.261	1378.700	1045.374
282.614	15.206	1377.935	1044.359
283.628	15.266	1376.401	1043.478
284.643	15.227	1375.609	1042.543
285.657	15.290	1374.310	1041.860
286.672	15.274	1373.017	1040.690
287.687	15.289	1372.528	1040.318
288.701	15.291	1371.750	1039.651
289.716	15.387	1370.779	1039.417
290.730	15.336	1370.238	1038.600
291.745	15.278	1368.874	1037.113
292.760	15.401	1368.206	1037.277
293.774	15.436	1366.979	1036.468
294.789	15.401	1366.084	1035.481
295.803	15.486	1365.109	1035.179
296.818	15.492	1364.060	1034.327
297.833	15.484	1363.365	1033.660
298.847	15.447	1362.724	1032.853
299.862	15.497	1361.088	1031.828
300.876	15.509	1360.410	1031.296
301.891	15.391	1359.822	1030.034
302.906	15.512	1358.537	1029.716
303.920	15.544	1357.697	1029.180
304.935	15.561	1357.085	1028.732
305.949	15.575	1357.117	1028.751
306.964	15.683	1356.045	1028.505
307.979	15.773	1354.510	1027.803
308.993	15.596	1354.158	1026.363
310.008	15.696	1352.878	1025.909
311.022	15.667	1351.860	1024.875
312.037	15.763	1350.873	1024.616
313.052	15.812	1349.939	1024.120
314.066	15.758	1349.085	1023.051
315.081	15.713	1348.054	1021.903
316.095	15.661	1346.879	1020.607
317.110	15.742	1345.687	1020.105
318.125	15.677	1345.074	1019.157
319.139	15.650	1344.123	1018.183
320.154	15.614	1342.962	1016.996
321.168	15.680	1342.400	1016.881
322.183	15.708	1341.202	1016.053
323.197	15.766	1340.176	1015.531
324.212	15.707	1339.445	1014.535
325.227	15.898	1338.530	1014.904
326.241	15.986	1337.494	1014.555
327.256	15.775	1336.867	1012.723
328.270	15.864	1336.020	1012.526
329.285	15.827	1335.212	1011.602
330.300	15.833	1334.532	1011.032
331.314	15.822	1333.410	1010.029
332.329	15.835	1332.753	1009.516
333.343	15.814	1331.668	1008.480
334.358	15.836	1330.798	1007.865
335.373	15.922	1330.032	1007.708
336.387	15.952	1329.409	1007.330
337.402	15.932	1328.691	1006.578
338.416	15.971	1327.671	1005.948
339.431	15.960	1327.319	1005.524
340.446	16.032	1326.728	1005.419
341.460	16.017	1326.036	1004.713
342.475	16.026	1325.070	1003.950
343.489	16.134	1323.994	1003.688
344.504	16.122	1323.010	1002.783
345.519	16.265	1322.302	1003.005
346.533	16.323	1321.027	1002.291
347.548	16.222	1320.410	1001.140
348.562	16.290	1319.482	1000.746
349.577	16.253	1319.017	1000.090
350.592	16.334	1317.799	999.556
351.606	16.252	1317.030	998.398
352.621	16.108	1316.011	996.689
353.635	16.160	1314.812	995.997
354.650	16.230	1314.264	995.908
355.665	16.335	1312.664	995.226
356.679	16.331	1311.739	994.413
357.694	16.243	1310.893	993.166
358.708	16.327	1310.042	992.925
359.723	16.299	1309.171	992.014
360.738	16.308	1307.801	990.943
361.752	16.350	1306.690	990.261
362.767	16.369	1306.247	989.945
363.781	16.431	1304.783	989.113
364.796	16.296	1304.555	988.059
365.810	16.364	1303.892	987.873
366.825	16.464	1302.810	987.544
367.840	16.510	1302.318	987.356
368.854	16.582	1301.495	987.064
369.869	16.571	1301.139	986.640
370.883	16.605	1300.448	986.227
371.898	16.595	1299.719	985.529
372.913	16.543	1298.945	984.557
373.927	16.551	1297.874	983.702
374.942	16.644	1296.725	983.281
375.956	16.646	1295.928	982.604
376.971	16.726	1295.657	982.779
377.986	16.567	1294.918	981.208
379.000	16.644	1293.964	980.845
380.015	16.628	1293.274	980.142
381.029	16.691	1292.654	979.950
382.044	16.748	1292.121	979.785
383.059	16.810	1290.846	979.094
384.073	16.854	1290.200	978.772
385.088	16.804	1289.762	978.064
386.102	16.808	1289.363	977.698
387.117	16.845	1288.174	976.920
388.132	16.915	1287.705	976.882
389.146	16.791	1286.622	975.263
390.161	16.766	1285.860	974.453
391.175	16.833	1285.125	974.197
392.190	16.873	1284.136	973.588
393.205	16.898	1283.397	973.087
394.219	16.902	1282.561	972.390
395.234	17.024	1281.096	971.892
396.248	16.863	1280.028	970.073
397.263	16.985	1278.293	969.368
398.278	16.801	1277.446	967.590
399.292	16.792	1276.423	966.683
400.307	16.869	1275.428	966.280
401.321	16.779	1274.397	964.898
402.336	16.777	1273.356	964.013
403.350	16.919	1272.086	963.777
404.365	16.901	1271.570	963.195
405.380	16.926	1270.644	962.554
406.394	16.977	1270.008	962.275
407.409	16.979	1269.107	961.517
408.423	16.986	1268.659	961.131
409.438	17.087	1267.879	961.028
410.453	17.149	1267.143	960.738
411.467	17.173	1266.306	960.155
412.482	17.135	1266.380	959.908
413.496	17.194	1265.464	959.462
414.511	17.190	1264.549	958.665
415.526	17.210	1263.856	958.164
416.540	17.303	1263.186	958.097
417.555	17.305	1262.300	957.348
418.569	17.243	1262.241	956.873
419.584	17.340	1261.596	956.846
420.599	17.316	1260.680	955.929
421.613	93.560	1346.461	1456.244
422.628	91.122	1358.926	1456.342
