DTS Sentinel unit serial number:	SN413079Multiplexer serial number:	ORYXHardware model number:	OX4-SRSoftware version number:	ORYX F/W v4.00 Oryx Data Collector v3.7.2.0data status	okinstallation	princeton_trtdifferential loss correction	single-endedforward channel	channel 4reverse channel	N/Adate	2019/09/15time	02:29:35forward acquisition time	60.00reverse acquisition time	0.00gamma	496.2192k internal	0.2308k external	0.2308temperature offset calibration	1.0036default loss term (dB/km)	0.3790temperature slope calibration	1.0000multiplexer offset coefficient	1.0000multiplexer slope coefficient	1.0000fibre end	0.00T internal ref (°C)	31.52T ext. ref 1 (°C)	4.56T ext. ref 2 (°C)	25.85length (m)	temperature (°C)	Stokes	anti-Stokes-747.200	152.918	0.057	0.080
-746.185	-33.818	0.210	-0.118
-745.171	-64.840	0.108	-0.044
-744.156	-12.837	-0.317	0.210
-743.142	606.232	0.078	0.198
-742.127	187.920	-0.124	0.189
-741.112	3.811	0.191	-0.142
-740.098	800.000	-0.028	0.121
-739.083	-29.754	0.371	-0.215
-738.069	-200.000	-0.057	0.342
-737.054	800.000	-0.150	0.442
-736.039	-112.006	-0.281	0.058
-735.025	-200.000	0.010	0.282
-734.010	-200.000	0.004	-0.203
-732.996	-124.641	-0.497	0.078
-731.981	-113.396	0.184	-0.037
-730.966	-165.760	0.211	0.009
-729.952	-64.659	0.272	0.112
-728.937	-99.865	-0.072	-0.018
-727.923	-110.529	-0.389	-0.082
-726.908	-139.352	0.226	-0.025
-725.894	-130.943	0.190	0.026
-724.879	392.215	-0.178	-0.375
-723.864	-200.000	0.013	0.307
-722.850	-47.117	-0.111	0.055
-721.835	-110.613	0.114	-0.024
-720.821	-200.000	-0.005	-0.039
-719.806	-121.715	-0.287	0.048
-718.791	156.357	0.158	0.221
-717.777	-58.940	0.385	0.169
-716.762	100.140	-0.184	-0.217
-715.748	-103.172	0.338	0.081
-714.733	-200.000	-0.041	0.323
-713.718	85.904	0.209	0.233
-712.704	144.243	-0.042	-0.057
-711.689	250.416	-0.230	0.396
-710.675	800.000	0.132	-0.406
-709.660	214.556	0.222	-0.357
-708.645	61.674	0.100	0.101
-707.631	238.857	0.067	-0.114
-706.616	264.058	0.070	-0.124
-705.602	-200.000	-0.049	-0.242
-704.587	-80.949	0.078	0.026
-703.572	-200.000	0.014	-0.359
-702.558	-173.950	0.106	0.003
-701.543	45.438	0.145	-0.136
-700.529	246.162	-0.023	-0.040
-699.514	-105.043	0.392	-0.091
-698.499	232.043	0.222	-0.370
-697.485	-168.897	0.226	0.009
-696.470	578.794	-0.111	0.277
-695.456	800.000	0.072	-0.292
-694.441	800.000	0.052	0.230
-693.426	402.563	-0.173	0.370
-692.412	692.515	-0.172	0.458
-691.397	-161.689	-0.252	0.013
-690.383	-91.288	0.363	-0.105
-689.368	-46.377	-0.172	-0.086
-688.354	-63.612	-0.469	-0.195
-687.339	27.421	-0.339	0.289
-686.324	118.866	-0.164	0.205
-685.310	6.280	0.187	0.141
-684.295	-162.293	0.295	-0.015
-683.281	-176.299	-0.230	-0.006
-682.266	200.586	-0.210	-0.327
-681.251	191.946	0.128	-0.196
-680.237	-5.099	0.134	0.094
-679.222	575.215	0.166	0.412
-678.208	-53.645	-0.405	0.188
-677.193	128.040	-0.055	-0.071
-676.178	-200.000	0.020	-0.445
-675.164	85.008	-0.117	-0.130
-674.149	-200.000	-0.060	0.407
-673.135	-200.000	-0.015	0.224
-672.120	-65.544	-0.377	0.153
-671.105	-92.254	0.209	-0.060
-670.091	-200.000	0.008	0.165
-669.076	-200.000	0.006	0.263
-668.062	-128.439	-0.185	-0.027
-667.047	-200.000	-0.014	-0.069
-666.032	-27.654	0.028	0.017
-665.018	-144.794	0.127	-0.012
-664.003	-147.464	0.186	-0.016
-662.989	-200.000	0.039	-0.263
-661.974	54.560	-0.318	-0.310
-660.959	-200.000	0.043	0.292
-659.945	-91.720	-0.117	-0.034
-658.930	-200.000	-0.026	-0.252
-657.916	-200.000	0.003	0.107
-656.901	-200.000	0.044	0.210
-655.886	-129.787	0.124	0.017
-654.872	248.145	0.201	-0.344
-653.857	-76.160	0.333	-0.119
-652.843	800.000	-0.070	-0.215
-651.828	-38.720	-0.226	0.121
-650.814	-200.000	0.001	0.262
-649.799	-36.391	-0.089	0.049
-648.784	145.367	-0.135	-0.183
-647.770	152.595	0.116	0.161
-646.755	-129.939	-0.397	0.055
-645.741	-200.000	-0.002	0.096
-644.726	-42.824	-0.332	0.171
-643.711	329.015	-0.132	0.256
-642.697	-200.000	-0.010	0.305
-641.682	243.117	-0.084	0.142
-640.668	-93.595	0.388	-0.109
-639.653	-200.000	0.012	-0.168
-638.638	155.012	-0.129	0.180
-637.624	72.457	-0.224	0.237
-636.609	-78.964	-0.538	0.185
-635.595	-200.000	-0.042	0.345
-634.580	-66.567	0.151	-0.060
-633.565	68.018	0.205	-0.212
-632.551	-200.000	-0.074	-0.336
-631.536	38.037	-0.246	-0.222
-630.522	163.430	0.205	-0.292
-629.507	84.341	-0.253	-0.280
-628.492	-200.000	-0.003	-0.374
-627.478	-54.952	-0.264	-0.121
-626.463	228.160	-0.136	-0.224
-625.449	-200.000	-0.030	-0.186
-624.434	-77.874	-0.056	0.020
-623.419	-94.075	0.051	0.014
-622.405	-200.000	-0.049	-0.322
-621.390	-47.809	-0.176	-0.086
-620.376	-200.000	0.079	-0.474
-619.361	-2.738	0.155	-0.110
-618.346	-13.539	0.190	-0.124
-617.332	-200.000	0.095	-0.507
-616.317	800.000	-0.094	-0.275
-615.303	117.189	0.270	0.335
-614.288	506.053	0.079	-0.185
-613.273	-56.222	-0.233	0.105
-612.259	-28.556	0.240	0.140
-611.244	-200.000	-0.060	-0.299
-610.230	12.720	-0.167	0.130
-609.215	800.000	0.048	-0.160
-608.201	-96.503	-0.173	-0.046
-607.186	554.167	-0.159	0.387
-606.171	-200.000	0.072	-0.360
-605.157	-6.157	-0.160	-0.111
-604.142	-200.000	-0.081	0.375
-603.128	800.000	0.101	0.380
-602.113	-144.670	0.497	0.046
-601.098	-142.115	0.479	0.048
-600.084	-23.004	-0.098	0.060
-599.069	-38.083	-0.359	-0.193
-598.055	416.958	0.120	-0.259
-597.040	300.565	-0.052	-0.097
-596.025	-200.000	-0.008	-0.223
-595.011	169.591	0.184	0.266
-593.996	-138.032	-0.058	-0.007
-592.982	-39.106	0.163	-0.087
-591.967	-76.655	-0.153	-0.054
-590.952	-200.000	0.018	-0.126
-589.938	-200.000	0.016	0.222
-588.923	242.471	-0.240	-0.406
-587.909	-171.395	0.136	0.005
-586.894	328.114	-0.124	0.241
-585.879	40.967	0.128	-0.117
-584.865	-71.831	0.290	-0.109
-583.850	-200.000	0.026	-0.230
-582.836	132.565	-0.220	-0.287
-581.821	-57.052	-0.134	0.060
-580.806	800.000	-0.032	0.092
-579.792	78.802	-0.087	-0.094
-578.777	83.866	-0.114	-0.126
-577.763	-116.711	-0.245	-0.046
-576.748	-138.765	-0.170	0.019
-575.733	-200.000	-0.030	-0.159
-574.719	-94.121	0.276	-0.076
-573.704	21.355	-0.300	0.246
-572.690	41.560	-0.049	0.045
-571.675	655.538	-0.096	0.248
-570.661	800.000	0.035	0.151
-569.646	-45.062	-0.035	-0.018
-568.631	90.169	-0.094	0.106
-567.617	-56.032	0.082	-0.037
-566.602	-24.780	-0.405	-0.243
-565.588	43.805	0.247	-0.228
-564.573	229.296	0.120	-0.197
-563.558	-200.000	0.016	0.119
-562.544	-200.000	-0.010	0.060
-561.529	543.070	0.025	-0.059
-560.515	-93.610	0.537	0.150
-559.500	-200.000	-0.003	0.114
-558.485	62.630	-0.152	-0.153
-557.471	-200.000	0.009	-0.049
-556.456	-148.142	0.104	0.009
-555.442	95.446	0.220	-0.253
-554.427	-200.000	0.023	-0.162
-553.412	800.000	0.072	-0.311
-552.398	-122.715	0.402	0.066
-551.383	98.526	0.169	0.196
-550.369	167.059	0.034	0.049
-549.354	0.473	-0.096	0.069
-548.339	-200.000	-0.046	0.366
-547.325	-200.000	0.027	0.155
-546.310	800.000	-0.021	-0.059
-545.296	-135.907	-0.123	0.015
-544.281	-200.000	0.034	0.282
-543.266	-200.000	-0.080	0.389
-542.252	800.000	-0.154	0.445
-541.237	35.077	-0.207	0.183
-540.223	-36.322	0.140	0.076
-539.208	-88.506	0.273	0.082
-538.193	30.932	-0.130	-0.112
-537.179	-67.407	-0.332	-0.131
-536.164	137.384	0.205	0.271
-535.150	-200.000	-0.022	-0.127
-534.135	-94.428	0.131	0.036
-533.121	147.242	0.127	-0.172
-532.106	591.787	0.026	0.065
-531.091	-120.546	-0.082	0.014
-530.077	575.512	0.178	0.439
-529.062	800.000	-0.035	0.133
-528.048	211.797	-0.045	-0.072
-527.033	496.288	0.132	0.305
-526.018	142.568	-0.174	0.233
-525.004	-200.000	0.011	-0.104
-523.989	68.633	-0.082	0.085
-522.975	200.411	0.180	-0.278
-521.960	50.839	-0.163	-0.156
-520.945	-7.304	-0.236	-0.161
-519.931	-79.563	0.242	-0.082
-518.916	32.304	-0.166	0.144
-517.902	-147.461	0.161	-0.014
-516.887	-43.101	0.048	0.025
-515.872	7.147	-0.279	-0.210
-514.858	800.000	0.103	0.300
-513.843	-40.401	-0.281	0.147
-512.829	-117.713	0.383	0.070
-511.814	-16.990	0.238	0.152
-510.799	-80.039	0.290	0.098
-509.785	-158.590	0.052	0.003
-508.770	-168.237	0.118	0.005
-507.756	143.287	0.262	-0.352
-506.741	-45.847	0.141	-0.070
-505.726	-6.033	-0.027	0.018
-504.712	-3.839	-0.277	0.194
-503.697	-200.000	-0.008	-0.324
-502.683	-109.351	0.102	-0.022
-501.668	-10.288	0.091	0.061
-500.653	-130.616	-0.486	0.066
-499.639	-79.493	-0.104	0.035
-498.624	151.285	0.196	0.268
-497.610	800.000	-0.064	-0.194
-496.595	-57.496	0.164	0.073
-495.581	-142.877	0.057	0.006
-494.566	-200.000	-0.030	-0.216
-493.551	266.575	0.035	0.061
-492.537	-5.781	0.261	-0.180
-491.522	800.000	0.064	-0.227
-490.508	-67.118	-0.160	-0.063
-489.493	-129.054	0.168	0.024
-488.478	715.769	-0.124	-0.332
-487.464	-118.912	0.196	-0.035
-486.449	-12.269	-0.080	-0.052
-485.435	0.193	-0.052	0.037
-484.420	180.518	-0.180	0.266
-483.405	64.114	0.156	0.158
-482.391	-31.303	-0.084	0.047
-481.376	204.979	0.065	-0.102
-480.362	9.129	0.117	0.089
-479.347	22.460	0.247	0.203
-478.332	-60.605	0.256	-0.109
-477.318	-200.000	-0.051	-0.441
-476.303	-140.630	-0.196	-0.020
-475.289	-64.996	-0.219	-0.089
-474.274	800.000	0.073	0.264
-473.259	800.000	-0.036	0.156
-472.245	-155.359	-0.220	0.014
-471.230	-57.237	-0.223	-0.099
-470.216	-5.645	0.104	-0.071
-469.201	384.968	0.137	0.285
-468.186	-200.000	0.024	0.339
-467.172	-21.844	0.127	0.078
-466.157	156.558	-0.171	0.237
-465.143	-186.427	0.274	-0.004
-464.128	-148.444	-0.067	-0.005
-463.113	-200.000	0.045	0.304
-462.099	-200.000	0.006	0.206
-461.084	-66.473	-0.471	-0.188
-460.070	-60.829	-0.088	-0.038
-459.055	-133.959	0.425	-0.053
-458.040	-89.895	-0.159	-0.047
-457.026	79.762	-0.261	-0.282
-456.011	-200.000	-0.044	-0.288
-454.997	-22.068	-0.150	-0.092
-453.982	-200.000	0.021	-0.281
-452.968	-26.804	0.218	-0.128
-451.953	800.000	-0.052	0.189
-450.938	144.189	0.012	0.016
-449.924	127.387	-0.088	-0.112
-448.909	81.945	-0.023	-0.025
-447.895	-200.000	-0.023	-0.150
-446.880	-108.912	0.248	0.053
-445.865	-153.652	-0.154	-0.011
-444.851	66.833	-0.018	0.018
-443.836	50.856	0.096	-0.091
-442.822	-33.580	0.143	0.079
-441.807	-85.150	-0.298	0.094
-440.792	43.289	-0.271	-0.249
-439.778	6.120	0.227	0.169
-438.763	-200.000	0.031	0.214
-437.749	-122.196	0.232	-0.038
-436.734	586.269	-0.098	-0.242
-435.719	-53.819	-0.325	-0.149
-434.705	800.000	0.015	-0.055
-433.690	163.991	-0.057	0.080
-432.676	218.532	0.041	0.065
-431.661	-154.392	-0.163	0.011
-430.646	218.861	0.027	-0.043
-429.632	-155.047	0.202	-0.013
-428.617	583.371	0.172	0.425
-427.603	5.064	-0.236	-0.174
-426.588	-174.044	-0.475	0.014
-425.573	-169.864	0.054	0.002
-424.559	-200.000	-0.025	0.196
-423.544	-10.866	-0.069	-0.046
-422.530	-200.000	0.029	-0.292
-421.515	-200.000	0.019	0.083
-420.500	800.000	-0.062	0.196
-419.486	-200.000	0.045	0.231
-418.471	-43.992	-0.304	0.153
-417.457	-200.000	0.035	0.256
-416.442	-76.262	-0.263	-0.093
-415.428	-125.342	-0.183	-0.028
-414.413	-8.983	-0.129	0.087
-413.398	-19.669	0.175	-0.108
-412.384	-82.399	0.303	-0.099
-411.369	530.002	0.066	-0.156
-410.355	39.856	0.197	-0.177
-409.340	-200.000	-0.015	0.073
-408.325	-146.759	0.019	0.002
-407.311	441.232	-0.086	0.188
-406.296	118.007	0.235	0.291
-405.282	800.000	0.116	-0.348
-404.267	-22.931	0.169	-0.102
-403.252	-147.503	0.410	-0.035
-402.238	67.903	-0.182	0.187
-401.223	-92.309	-0.128	0.036
-400.209	800.000	0.033	-0.102
-399.194	9.693	-0.179	0.136
-398.179	800.000	0.024	0.105
-397.165	-200.000	-0.027	0.157
-396.150	-162.302	-0.313	-0.016
-395.136	-129.788	0.215	-0.030
-394.121	-60.058	-0.361	0.155
-393.106	292.375	-0.037	0.067
-392.092	263.141	-0.027	-0.047
-391.077	-98.742	-0.167	-0.043
-390.063	28.090	-0.114	0.096
-389.048	74.595	-0.044	0.046
-388.033	-51.886	-0.270	-0.126
-387.019	-200.000	-0.012	-0.157
-386.004	574.867	0.158	-0.387
-384.990	256.135	-0.163	0.281
-383.975	-97.719	-0.198	0.051
-382.960	-125.988	-0.251	0.038
-381.946	-154.476	0.231	-0.016
-380.931	-200.000	-0.016	-0.086
-379.917	-93.723	-0.101	0.028
-378.902	-200.000	0.109	-0.496
-377.888	168.704	0.066	-0.094
-376.873	181.826	-0.121	-0.179
-375.858	-163.067	0.421	-0.020
-374.844	-71.503	0.167	0.063
-373.829	-61.846	-0.292	0.122
-372.815	-160.226	-0.156	0.008
-371.800	165.092	0.060	-0.085
-370.785	800.000	0.072	-0.267
-369.771	-66.584	-0.136	0.054
-368.756	-200.000	-0.020	0.091
-367.742	-164.363	0.257	0.012
-366.727	94.614	-0.064	-0.073
-365.712	485.679	-0.064	-0.147
-364.698	-200.000	0.008	0.196
-363.683	26.882	-0.163	-0.136
-362.669	71.517	0.263	0.274
-361.654	260.987	0.149	0.259
-360.639	800.000	-0.052	0.166
-359.625	75.516	-0.213	-0.225
-358.610	-43.474	-0.144	-0.073
-357.596	531.286	0.014	-0.032
-356.581	-132.062	0.304	-0.040
-355.566	-5.962	-0.246	-0.169
-354.552	800.000	-0.078	-0.238
-353.537	505.585	-0.062	0.143
-352.523	-200.000	0.051	-0.306
-351.508	8.882	0.137	0.103
-350.493	120.394	-0.149	0.185
-349.479	800.000	0.045	-0.168
-348.464	800.000	-0.078	-0.220
-347.450	-56.486	0.306	-0.136
-346.435	-108.710	0.445	-0.095
-345.420	124.578	-0.140	0.177
-344.406	62.741	0.334	-0.334
-343.391	143.193	0.092	-0.122
-342.377	23.081	-0.268	0.220
-341.362	-200.000	0.057	0.354
-340.348	-160.727	0.061	-0.003
-339.333	222.397	0.029	-0.047
-338.318	-19.345	-0.213	-0.132
-337.304	-200.000	-0.027	-0.310
-336.289	192.330	-0.112	0.169
-335.275	-161.759	-0.107	-0.005
-334.260	16.429	0.105	-0.083
-333.245	69.836	-0.273	-0.282
-332.231	-200.000	0.097	0.532
-331.216	-200.000	0.021	0.096
-330.202	550.326	0.094	-0.226
-329.187	-135.815	-0.219	-0.026
-328.172	78.140	0.185	0.198
-327.158	-51.174	0.445	0.209
-326.143	-200.000	-0.045	-0.217
-325.129	242.290	0.016	-0.027
-324.114	-94.451	0.284	0.078
-323.099	69.631	0.212	0.218
-322.085	800.000	-0.051	0.191
-321.070	220.948	0.103	-0.165
-320.056	103.834	-0.190	0.224
-319.041	48.548	0.061	0.057
-318.026	177.535	0.241	0.351
-317.012	187.639	0.139	-0.207
-315.997	-103.113	0.158	-0.037
-314.983	111.149	-0.207	0.250
-313.968	73.877	0.153	-0.161
-312.953	800.000	-0.083	-0.255
-311.939	682.606	0.034	0.088
-310.924	-200.000	0.009	-0.107
-309.910	-60.539	0.285	-0.121
-308.895	-147.656	0.236	-0.020
-307.880	-41.975	-0.409	0.209
-306.866	-200.000	-0.010	0.166
-305.851	800.000	-0.101	0.287
-304.837	-101.141	0.334	-0.082
-303.822	8.359	0.179	-0.135
-302.807	20.236	0.158	-0.128
-301.793	800.000	0.077	-0.281
-300.778	46.843	-0.271	-0.252
-299.764	744.535	-0.044	0.118
-298.749	800.000	-0.102	0.415
-297.735	-131.502	0.521	-0.069
-296.720	-200.000	-0.017	0.123
-295.705	349.664	0.018	0.035
-294.691	-14.766	0.079	0.051
-293.676	61.283	0.276	0.274
-292.662	-12.921	0.187	-0.121
-291.647	-66.713	0.119	0.047
-290.632	-58.202	0.137	-0.060
-289.618	-57.401	-0.153	-0.067
-288.603	-45.524	-0.026	0.013
-287.589	752.774	0.066	0.179
-286.574	-86.030	-0.465	0.143
-285.559	482.499	0.117	0.266
-284.545	355.769	0.132	0.263
-283.530	579.636	-0.079	0.194
-282.516	-93.378	0.064	0.018
-281.501	-200.000	0.000	-0.151
-280.486	-57.809	-0.247	0.108
-279.472	131.643	0.137	0.176
-278.457	800.000	-0.024	-0.097
-277.443	77.754	0.096	-0.102
-276.428	-75.135	0.079	0.028
-275.413	48.354	0.330	0.308
-274.399	800.000	-0.052	0.196
-273.384	-62.295	0.146	0.061
-272.370	356.850	-0.159	-0.317
-271.355	149.602	-0.187	-0.253
-270.340	-98.258	-0.192	-0.049
-269.326	290.669	-0.105	-0.191
-268.311	-200.000	0.031	-0.376
-267.297	54.901	-0.293	0.283
-266.282	42.033	0.045	0.041
-265.267	361.869	-0.040	0.080
-264.253	410.635	-0.126	0.266
-263.238	-200.000	0.047	0.288
-262.224	798.953	0.075	-0.206
-261.209	-200.000	-0.019	0.120
-260.195	-191.078	0.181	-0.002
-259.180	39.638	-0.179	-0.161
-258.165	-123.355	0.344	-0.055
-257.151	93.805	0.199	-0.225
-256.136	-200.000	0.092	0.000
-255.122	-200.000	0.022	0.314
-254.107	-0.768	-0.243	-0.171
-253.092	-106.910	-0.184	0.041
-252.078	-191.061	-0.367	-0.004
-251.063	-55.582	-0.280	-0.125
-250.049	72.931	-0.118	-0.123
-249.034	-200.000	-0.005	0.181
-248.019	800.000	-0.032	0.101
-247.005	-86.197	-0.186	0.057
-245.990	250.314	0.120	0.204
-244.976	16.993	-0.181	0.143
-243.961	69.849	-0.126	0.130
-242.946	121.595	-0.032	-0.040
-241.932	-102.540	-0.240	0.057
-240.917	19.931	0.219	-0.176
-239.903	-128.937	-0.239	-0.033
-238.888	-14.109	0.138	0.089
-237.873	-113.601	0.210	0.041
-236.859	-5.128	-0.123	0.085
-235.844	29.312	-0.105	0.089
-234.830	-69.067	-0.122	-0.047
-233.815	-200.000	-0.017	0.171
-232.800	800.000	0.050	0.213
-231.786	38.555	-0.206	-0.183
-230.771	-117.833	0.279	-0.050
-229.757	-200.000	-0.023	-0.251
-228.742	-5.032	-0.049	-0.034
-227.727	0.893	0.176	0.125
-226.713	648.814	-0.205	-0.521
-225.698	84.610	-0.262	-0.286
-224.684	-200.000	-0.059	-0.292
-223.669	299.916	-0.160	-0.293
-222.655	-134.424	-0.123	0.015
-221.640	-104.578	0.125	-0.029
-220.625	70.056	0.106	-0.109
-219.611	800.000	-0.061	0.202
-218.596	-68.777	-0.278	0.107
-217.582	-126.101	0.127	-0.019
-216.567	-13.794	-0.167	0.107
-215.552	-200.000	-0.014	-0.555
-214.538	-33.335	0.400	-0.220
-213.523	-127.798	-0.225	-0.032
-212.509	241.724	-0.080	0.133
-211.494	84.440	0.237	-0.258
-210.479	136.531	0.227	-0.295
-209.465	-54.837	0.205	-0.092
-208.450	55.201	-0.314	0.302
-207.436	-200.000	0.026	-0.225
-206.421	14.335	0.327	-0.254
-205.406	-21.561	-0.263	0.160
-204.392	-64.791	0.396	-0.159
-203.377	800.000	-0.067	0.190
-202.363	72.358	0.035	-0.037
-201.348	123.483	0.129	-0.161
-200.333	-162.289	-0.087	0.004
-199.319	-200.000	0.039	0.303
-198.304	428.416	-0.076	0.163
-197.290	77.275	0.279	-0.296
-196.275	-200.000	-0.001	-0.053
-195.260	-58.575	0.319	0.138
-194.246	-200.000	-0.015	-0.171
-193.231	-200.000	0.053	0.249
-192.217	-38.777	-0.082	0.043
-191.202	-200.000	0.030	0.133
-190.187	-200.000	-0.026	-0.217
-189.173	-38.300	0.131	0.069
-188.158	599.104	0.040	0.098
-187.144	458.722	0.056	0.125
-186.129	25.201	0.198	0.164
-185.114	571.798	-0.097	0.234
-184.100	116.770	-0.253	0.309
-183.085	-122.794	-0.314	0.050
-182.071	-200.000	-0.014	0.083
-181.056	110.093	0.264	-0.315
-180.042	-140.400	-0.162	0.017
-179.027	800.000	-0.101	0.296
-178.012	-200.000	-0.019	0.231
-176.998	139.418	0.184	-0.240
-175.983	-167.807	-0.166	-0.007
-174.969	-137.659	0.189	0.021
-173.954	80.123	0.208	-0.222
-172.939	-124.686	0.025	-0.004
-171.925	-194.300	-0.184	0.001
-170.910	-86.000	-0.172	-0.053
-169.896	-128.173	0.162	0.023
-168.881	44.849	0.089	0.081
-167.866	-143.574	-0.161	-0.015
-166.852	22.335	-0.055	0.044
-165.837	17.789	-0.091	0.072
-164.823	-53.168	0.181	0.082
-163.808	233.730	-0.060	0.098
-162.793	-8.873	0.489	0.326
-161.779	-74.142	0.133	-0.048
-160.764	-200.000	-0.029	0.202
-159.750	-194.648	-0.246	-0.002
-158.735	-77.312	-0.190	0.066
-157.720	4.502	0.063	0.046
-156.706	13.430	-0.147	-0.113
-155.691	-95.640	0.149	-0.040
-154.677	-200.000	-0.035	0.379
-153.662	-200.000	-0.016	-0.086
-152.647	-200.000	0.010	-0.048
-151.633	-134.758	0.394	0.048
-150.618	74.371	0.096	-0.100
-149.604	265.236	-0.048	-0.083
-148.589	-200.000	0.075	0.359
-147.574	173.094	-0.226	-0.323
-146.560	800.000	0.043	0.132
-145.545	800.000	-0.018	0.064
-144.531	-200.000	-0.001	0.014
-143.516	800.000	-0.023	0.075
-142.502	195.341	-0.166	0.250
-141.487	165.019	0.190	0.266
-140.472	196.487	-0.172	-0.259
-139.458	193.361	-0.067	-0.101
-138.443	-50.489	0.335	-0.157
-137.429	-200.000	0.053	0.304
-136.414	113.011	-0.193	0.232
-135.399	20.100	-0.091	-0.073
-134.385	-117.133	0.107	0.019
-133.370	-144.122	-0.080	-0.007
-132.356	54.105	-0.076	0.073
-131.341	800.000	-0.097	0.378
-130.326	600.429	-0.048	0.119
-129.312	-81.570	0.220	0.072
-128.297	-200.000	0.054	0.293
-127.283	126.014	-0.084	-0.105
-126.268	-64.261	0.265	-0.107
-125.253	-1.436	0.034	-0.024
-124.239	800.000	-0.081	-0.280
-123.224	-53.428	0.294	0.134
-122.210	-44.588	0.020	-0.010
-121.195	-101.628	0.231	-0.056
-120.180	412.652	0.173	-0.364
-119.166	26.859	0.286	-0.238
-118.151	-200.000	-0.039	0.461
-117.137	470.481	0.117	-0.260
-116.122	-37.682	-0.307	0.162
-115.107	-200.000	0.225	0.001
-114.093	-200.000	0.053	0.263
-113.078	-76.335	0.324	0.113
-112.064	74.211	-0.081	0.085
-111.049	-200.000	-0.092	0.410
-110.034	800.000	0.046	-0.137
-109.020	-200.000	-0.024	0.300
-108.005	-115.053	0.411	-0.077
-106.991	-200.000	-0.005	-0.295
-105.976	253.798	-0.165	-0.280
-104.962	673.351	0.114	-0.294
-103.947	-150.614	0.107	-0.008
-102.932	-78.467	-0.128	-0.043
-101.918	42.351	-0.066	0.060
-100.903	-200.000	-0.005	0.128
-99.889	800.000	0.018	0.070
-98.874	-95.088	-0.234	-0.063
-97.859	-200.000	0.016	-0.422
-96.845	-200.000	-0.029	0.212
-95.830	77.307	-0.187	-0.197
-94.816	62.332	0.099	-0.098
-93.801	-66.523	-0.262	-0.103
-92.786	-37.919	0.069	0.036
-91.772	-56.469	0.054	-0.024
-90.757	-200.000	0.027	-0.191
-89.743	-5.367	-0.195	0.133
-88.728	-200.000	0.032	0.184
-87.713	-200.000	-0.016	0.183
-86.699	273.129	0.053	0.093
-85.684	3.242	0.308	-0.222
-84.670	-200.000	-0.009	-0.166
-83.655	-200.000	-0.201	-0.000
-82.640	346.998	-0.126	0.246
-81.626	90.393	0.145	0.161
-80.611	97.478	-0.264	0.300
-79.597	-200.000	0.009	0.293
-78.582	-67.075	0.355	0.139
-77.567	-77.767	-0.371	0.127
-76.553	135.226	-0.042	0.055
-75.538	-28.811	0.232	0.132
-74.524	235.622	-0.228	-0.373
-73.509	34.823	-0.179	-0.155
-72.494	-87.176	0.254	0.076
-71.480	800.000	-0.047	0.188
-70.465	800.000	-0.089	-0.340
-69.451	-87.471	-0.038	-0.011
-68.436	-88.051	0.290	-0.086
-67.422	-200.000	-0.054	-0.321
-66.407	800.000	0.025	-0.069
-65.392	-200.000	0.010	0.233
-64.378	-110.323	0.295	-0.061
-63.363	175.933	-0.120	-0.172
-62.349	800.000	0.040	-0.118
-61.334	2.011	-1.059	-0.757
-60.319	34.688	0.680	0.588
-59.305	800.000	-0.271	-1.038
-58.290	237.996	0.744	1.222
-57.276	569.659	0.705	1.696
-56.261	-200.000	98.365	603.713
-55.246	610.026	1389.311	3434.195
-54.232	191.632	2578.087	3842.798
-53.217	108.816	2303.774	2724.224
-52.203	38.230	2064.174	1818.165
-51.188	33.258	1979.304	1698.842
-50.173	31.661	1960.891	1668.748
-49.159	46.794	2011.776	1849.018
-48.144	48.080	2029.878	1877.201
-47.130	33.864	1990.955	1714.041
-46.115	31.558	1980.702	1684.413
-45.100	31.370	1978.119	1680.462
-44.086	31.318	1975.668	1677.842
-43.071	31.298	1972.791	1675.153
-42.057	31.322	1970.458	1673.321
-41.042	31.251	1968.768	1671.186
-40.027	31.435	1966.165	1670.556
-39.013	31.437	1964.796	1669.340
-37.998	31.505	1962.644	1668.060
-36.984	31.447	1961.175	1666.228
-35.969	31.432	1959.459	1664.568
-34.954	31.509	1956.994	1663.089
-33.940	31.479	1956.376	1662.238
-32.925	31.480	1954.332	1660.444
-31.911	31.551	1952.620	1659.545
-30.896	31.590	1950.583	1658.093
-29.881	31.398	1949.986	1655.821
-28.867	31.596	1948.026	1655.847
-27.852	31.582	1946.411	1654.286
-26.838	31.590	1943.909	1652.163
-25.823	31.582	1942.161	1650.537
-24.809	31.582	1940.396	1648.973
-23.794	31.486	1939.140	1646.993
-22.779	31.516	1937.377	1645.697
-21.765	31.461	1935.852	1643.857
-20.750	31.519	1933.967	1642.694
-19.736	31.543	1932.087	1641.249
-18.721	31.555	1931.006	1640.368
-17.706	31.566	1929.218	1638.876
-16.692	31.574	1927.676	1637.572
-15.677	31.502	1926.665	1636.017
-14.663	31.565	1924.455	1634.632
-13.648	31.534	1923.656	1633.619
-12.633	31.536	1922.108	1632.253
-11.619	31.565	1920.939	1631.448
-10.604	31.563	1919.247	1629.928
-9.590	31.524	1917.966	1628.441
-8.575	31.516	1916.957	1627.448
-7.560	31.512	1915.487	1626.098
-6.546	31.506	1914.108	1624.816
-5.531	31.472	1913.191	1623.675
-4.517	31.487	1912.150	1622.855
-3.502	31.403	1911.051	1621.130
-2.487	31.521	1909.433	1620.714
-1.473	31.467	1908.869	1619.707
-0.458	31.469	1904.039	1615.558
0.556	30.617	1883.931	1587.834
1.571	26.331	1865.051	1535.459
2.586	22.358	1887.169	1519.308
3.600	21.349	1922.533	1538.766
4.615	20.724	1917.357	1528.994
5.629	16.137	1816.917	1410.497
6.644	8.330	1701.890	1259.700
7.659	4.751	1667.149	1206.182
8.673	4.557	1664.101	1202.372
9.688	4.533	1662.423	1200.866
10.702	4.610	1660.777	1200.166
11.717	4.539	1657.750	1197.323
12.731	5.051	1656.256	1200.078
13.746	9.973	1668.019	1246.557
14.761	16.837	1684.064	1311.738
15.775	19.237	1686.550	1332.140
16.790	18.491	1683.822	1324.106
17.804	17.390	1680.334	1312.755
18.819	16.376	1676.989	1302.213
19.834	15.824	1674.618	1296.011
20.848	15.420	1673.578	1291.979
21.863	15.204	1671.762	1288.800
22.877	14.948	1670.382	1285.652
23.892	14.776	1669.370	1283.442
24.907	14.634	1668.207	1281.341
25.921	14.658	1666.974	1280.466
26.936	14.751	1665.556	1279.981
27.950	14.743	1664.788	1279.211
28.965	14.706	1664.501	1278.599
29.980	14.693	1663.828	1277.863
30.994	14.872	1662.628	1278.197
32.009	15.003	1661.481	1278.203
33.023	15.052	1660.800	1277.946
34.038	15.033	1659.222	1276.471
35.053	14.927	1658.635	1275.102
36.067	14.900	1657.208	1273.681
37.082	14.833	1655.869	1272.028
38.096	14.853	1655.245	1271.588
39.111	14.850	1654.643	1270.997
40.126	14.947	1653.701	1270.893
41.140	14.899	1652.958	1269.847
42.155	14.799	1651.434	1267.804
43.169	14.698	1649.732	1265.616
44.184	14.683	1648.497	1264.446
45.199	14.552	1647.728	1262.753
46.213	14.565	1646.801	1262.031
47.228	14.615	1645.602	1261.374
48.242	14.792	1643.898	1261.293
49.257	14.778	1643.237	1260.572
50.271	14.801	1641.990	1259.676
51.286	14.727	1640.865	1258.145
52.301	14.792	1639.382	1257.387
53.315	14.767	1638.104	1256.105
54.330	14.786	1636.317	1254.764
55.344	14.802	1634.753	1253.579
56.359	14.702	1632.945	1251.328
57.374	14.773	1632.069	1251.078
58.388	14.781	1630.968	1250.183
59.403	14.678	1629.654	1248.298
60.417	14.606	1628.192	1246.530
61.432	14.562	1627.608	1245.645
62.447	14.556	1626.625	1244.738
63.461	14.566	1624.793	1243.295
64.476	14.506	1623.759	1241.952
65.490	14.487	1622.917	1241.056
66.505	14.508	1621.248	1239.822
67.520	14.505	1620.383	1239.032
68.534	14.469	1619.454	1237.944
69.549	14.554	1618.172	1237.485
70.563	14.623	1617.304	1237.227
71.578	14.527	1616.056	1235.446
72.593	14.428	1614.967	1233.774
73.607	14.385	1614.308	1232.843
74.622	14.398	1612.868	1231.733
75.636	14.371	1612.119	1230.852
76.651	14.371	1611.606	1230.349
77.666	14.357	1610.791	1229.516
78.680	14.348	1609.542	1228.384
79.695	14.492	1608.374	1228.444
80.709	14.503	1607.529	1227.777
81.724	14.508	1607.011	1227.310
82.739	14.649	1605.936	1227.414
83.753	14.726	1604.748	1226.966
84.768	14.706	1604.147	1226.251
85.782	14.788	1603.759	1226.445
86.797	14.888	1602.626	1226.200
87.812	14.927	1601.631	1225.618
88.826	14.795	1600.273	1223.506
89.841	14.699	1599.722	1222.274
90.855	14.798	1598.467	1221.927
91.870	14.804	1597.027	1220.766
92.884	14.900	1596.284	1220.788
93.899	14.834	1595.230	1219.397
94.914	14.850	1594.179	1218.601
95.928	14.877	1592.779	1217.621
96.943	14.970	1591.395	1217.130
97.957	14.814	1590.394	1215.123
98.972	14.844	1588.656	1213.904
99.987	14.810	1587.117	1212.377
101.001	14.859	1585.389	1211.300
102.016	14.924	1583.811	1210.462
103.030	14.800	1582.789	1208.676
104.045	14.812	1581.728	1207.841
105.060	14.841	1580.026	1206.649
106.074	14.817	1578.687	1205.341
107.089	14.722	1577.072	1203.320
108.103	14.586	1575.737	1201.216
109.118	14.539	1574.093	1199.518
110.133	14.474	1572.574	1197.790
111.147	14.518	1571.563	1197.230
112.162	14.547	1570.154	1196.256
113.176	14.500	1568.763	1194.758
114.191	14.633	1567.475	1194.616
115.206	14.689	1565.893	1193.707
116.220	14.631	1564.961	1192.477
117.235	14.673	1563.394	1191.482
118.249	14.634	1562.199	1190.182
119.264	14.658	1560.783	1189.168
120.279	14.545	1559.623	1187.376
121.293	14.490	1558.025	1185.665
122.308	14.586	1556.435	1185.035
123.322	14.561	1554.762	1183.480
124.337	14.377	1553.850	1181.376
125.352	14.437	1552.436	1180.615
126.366	14.491	1551.102	1179.881
127.381	14.536	1550.108	1179.340
128.395	14.521	1548.662	1178.029
129.410	14.544	1547.860	1177.473
130.424	14.457	1546.560	1175.769
131.439	14.542	1545.056	1175.123
132.454	14.530	1543.915	1174.064
133.468	14.709	1542.021	1173.779
134.483	14.719	1540.872	1172.874
135.497	14.765	1539.293	1171.890
136.512	14.774	1538.215	1171.028
137.527	14.700	1536.927	1169.424
138.541	14.772	1535.312	1168.597
139.556	14.729	1534.590	1167.640
140.570	14.815	1532.815	1166.788
141.585	14.853	1531.896	1166.255
142.600	14.811	1530.624	1164.889
143.614	14.878	1529.146	1164.124
144.629	15.038	1527.853	1164.153
145.643	15.077	1526.517	1163.298
146.658	14.965	1525.862	1161.923
147.673	14.994	1523.869	1160.505
148.687	14.968	1521.816	1158.653
149.702	14.875	1520.879	1157.198
150.716	14.838	1519.521	1155.808
151.731	14.814	1518.045	1154.415
152.746	14.829	1516.780	1153.455
153.760	14.830	1514.899	1151.928
154.775	14.780	1514.069	1150.853
155.789	14.927	1512.830	1150.818
156.804	14.970	1511.455	1149.966
157.819	14.938	1510.372	1148.824
158.833	15.035	1508.945	1148.303
159.848	15.013	1508.363	1147.603
160.862	15.110	1507.098	1147.207
161.877	15.131	1505.555	1146.069
162.892	15.049	1504.389	1144.523
163.906	14.997	1502.740	1142.811
164.921	14.896	1501.899	1141.380
165.935	14.970	1500.683	1140.859
166.950	14.877	1500.119	1139.698
167.964	14.988	1498.662	1139.244
168.979	14.927	1498.600	1138.682
169.994	15.012	1496.686	1137.708
171.008	14.877	1496.055	1136.205
172.023	15.008	1494.783	1136.028
173.037	15.138	1493.273	1135.661
174.052	15.006	1493.158	1134.580
175.067	15.073	1491.729	1133.851
176.081	15.168	1490.159	1133.194
177.096	15.047	1488.797	1131.246
178.110	15.034	1487.350	1129.956
179.125	14.964	1486.617	1128.829
180.140	15.048	1485.329	1128.316
181.154	15.101	1484.278	1127.773
182.169	15.103	1483.648	1127.207
183.183	15.142	1482.334	1126.375
184.198	15.176	1481.237	1125.670
185.213	15.347	1479.882	1125.689
186.227	15.248	1479.046	1124.290
187.242	15.254	1478.227	1123.603
188.256	15.250	1477.318	1122.788
189.271	15.323	1475.749	1121.983
190.286	15.362	1474.711	1121.355
191.300	15.218	1473.993	1119.750
192.315	15.067	1472.307	1117.366
193.329	15.016	1470.464	1115.526
194.344	14.966	1469.509	1114.370
195.359	15.013	1468.707	1113.978
196.373	15.065	1468.185	1113.827
197.388	15.220	1466.707	1113.639
198.402	15.356	1465.356	1113.416
199.417	15.423	1464.460	1113.084
200.432	15.475	1463.932	1112.928
201.446	15.485	1463.292	1112.410
202.461	15.554	1461.937	1111.736
203.475	15.547	1460.507	1110.501
204.490	15.612	1459.823	1110.312
205.504	15.547	1458.438	1108.731
206.519	15.498	1457.334	1107.476
207.534	15.396	1456.697	1106.216
208.548	15.426	1455.055	1105.074
209.563	15.393	1454.173	1104.089
210.577	15.399	1453.087	1103.202
211.592	15.490	1452.202	1103.029
212.607	15.526	1451.492	1102.629
213.621	15.528	1451.026	1102.190
214.636	15.616	1449.811	1101.749
215.650	15.591	1448.972	1100.852
216.665	15.577	1448.257	1100.116
217.680	15.632	1447.279	1099.635
218.694	15.780	1446.387	1099.827
219.709	15.683	1445.569	1098.478
220.723	15.771	1444.478	1098.127
221.738	15.755	1443.799	1097.409
222.753	15.771	1442.666	1096.552
223.767	15.726	1442.009	1095.665
224.782	15.737	1440.885	1094.788
225.796	15.739	1440.059	1094.075
226.811	15.773	1439.283	1093.607
227.826	15.758	1438.635	1092.920
228.840	15.893	1437.574	1092.896
229.855	15.741	1436.861	1091.271
230.869	15.831	1434.915	1090.278
231.884	15.795	1434.414	1089.571
232.899	15.854	1433.216	1088.947
233.913	15.723	1432.604	1087.539
234.928	15.761	1431.126	1086.560
235.942	15.721	1429.884	1085.267
236.957	15.657	1428.555	1083.749
237.972	15.704	1427.452	1083.118
238.986	15.664	1426.508	1082.050
240.001	15.722	1425.553	1081.601
241.015	15.750	1424.846	1081.148
242.030	15.757	1423.622	1080.172
243.045	15.838	1422.189	1079.509
244.059	15.867	1421.429	1079.019
245.074	15.850	1420.931	1078.436
246.088	15.911	1420.121	1078.117
247.103	15.904	1419.198	1077.279
248.117	15.999	1418.517	1077.270
249.132	15.996	1417.871	1076.668
250.147	16.123	1417.569	1077.154
251.161	16.269	1416.572	1077.235
252.176	16.277	1416.243	1076.936
253.190	16.396	1415.124	1076.752
254.205	16.345	1414.327	1075.722
255.220	16.420	1413.548	1075.513
256.234	16.382	1413.289	1074.980
257.249	16.516	1411.970	1074.735
258.263	16.432	1411.026	1073.383
259.278	16.435	1410.058	1072.574
260.293	16.423	1409.340	1071.855
261.307	16.508	1408.008	1071.288
262.322	16.438	1407.938	1070.693
263.336	16.561	1406.909	1070.596
264.351	16.580	1405.708	1069.710
265.366	16.638	1404.688	1069.205
266.380	16.651	1404.174	1068.801
267.395	16.707	1402.380	1067.691
268.409	16.619	1402.459	1067.106
269.424	16.554	1401.196	1065.638
270.439	16.491	1400.251	1064.427
271.453	16.572	1398.952	1063.855
272.468	16.532	1398.070	1062.844
273.482	16.525	1397.633	1062.369
274.497	16.474	1396.753	1061.286
275.512	16.476	1395.761	1060.450
276.526	16.555	1394.724	1060.069
277.541	16.658	1393.527	1059.707
278.555	16.564	1393.016	1058.637
279.570	16.584	1392.271	1058.103
280.585	16.612	1391.293	1057.440
281.599	16.780	1390.372	1057.698
282.614	16.743	1389.589	1056.778
283.628	16.668	1388.514	1055.398
284.643	16.655	1387.274	1054.282
285.657	16.711	1386.250	1053.757
286.672	16.593	1385.712	1052.519
287.687	16.675	1384.814	1052.254
288.701	16.648	1383.626	1051.095
289.716	16.757	1382.836	1051.078
290.730	16.692	1381.818	1049.807
291.745	16.779	1380.577	1049.308
292.760	16.732	1380.048	1048.524
293.774	16.825	1379.171	1048.339
294.789	16.767	1377.990	1046.988
295.803	16.864	1377.377	1047.029
296.818	16.961	1376.085	1046.557
297.833	16.852	1375.238	1045.147
298.847	16.760	1374.493	1043.917
299.862	16.841	1373.319	1043.432
300.876	16.872	1372.386	1042.827
301.891	16.851	1371.860	1042.206
302.906	16.872	1371.372	1041.872
303.920	16.925	1370.130	1041.158
304.935	17.037	1369.423	1041.216
305.949	17.091	1368.614	1040.839
306.964	17.167	1367.837	1040.621
307.979	17.164	1366.979	1039.861
308.993	17.193	1365.545	1038.856
310.008	17.139	1364.927	1037.963
311.022	17.043	1364.327	1036.826
312.037	17.103	1363.473	1036.451
313.052	17.224	1362.643	1036.471
314.066	17.243	1361.129	1035.341
315.081	17.106	1360.322	1033.800
316.095	17.083	1358.857	1032.455
317.110	16.977	1357.972	1031.049
318.125	17.017	1357.211	1030.625
319.139	16.966	1356.557	1029.726
320.154	17.054	1355.361	1029.262
321.168	16.981	1354.494	1028.071
322.183	17.102	1353.333	1027.830
323.197	17.188	1352.274	1027.455
324.212	17.158	1351.212	1026.376
325.227	17.181	1350.591	1025.953
326.241	17.167	1350.067	1025.377
327.256	17.206	1348.675	1024.463
328.270	17.185	1348.059	1023.781
329.285	17.178	1347.206	1023.001
330.300	17.146	1346.242	1021.987
331.314	17.147	1345.530	1021.358
332.329	17.210	1344.578	1020.924
333.343	17.141	1343.585	1019.669
334.358	17.175	1342.740	1019.139
335.373	17.214	1342.128	1018.817
336.387	17.309	1341.324	1018.689
337.402	17.275	1340.743	1017.951
338.416	17.316	1339.745	1017.350
339.431	17.388	1339.395	1017.426
340.446	17.519	1338.448	1017.396
341.460	17.459	1337.692	1016.372
342.475	17.533	1336.725	1015.994
343.489	17.709	1335.980	1016.384
344.504	17.527	1334.891	1014.384
345.519	17.637	1333.794	1014.115
346.533	17.574	1333.278	1013.256
347.548	17.700	1332.258	1013.141
348.562	17.708	1331.523	1012.540
349.577	17.773	1330.576	1012.115
350.592	17.647	1330.003	1010.841
351.606	17.587	1328.703	1009.410
352.621	17.444	1327.888	1007.855
353.635	17.540	1326.648	1007.392
354.650	17.486	1325.844	1006.373
355.665	17.524	1324.967	1005.843
356.679	17.508	1323.708	1004.704
357.694	17.622	1322.581	1004.429
358.708	17.641	1321.528	1003.655
359.723	17.728	1320.562	1003.346
360.738	17.688	1319.869	1002.496
361.752	17.724	1318.533	1001.601
362.767	17.723	1317.500	1000.722
363.781	17.799	1316.729	1000.494
364.796	17.782	1315.889	999.668
365.810	17.800	1315.281	999.222
366.825	17.899	1314.555	999.162
367.840	17.806	1314.611	998.573
368.854	17.987	1313.390	998.615
369.869	18.009	1312.818	998.222
370.883	18.101	1311.817	997.906
371.898	18.062	1311.577	997.411
372.913	18.045	1310.630	996.502
373.927	17.965	1309.622	995.182
374.942	17.942	1308.827	994.353
375.956	18.085	1307.700	994.245
376.971	18.050	1307.082	993.484
377.986	17.968	1306.939	992.811
379.000	18.044	1305.645	992.179
380.015	18.018	1304.816	991.312
381.029	18.110	1304.048	991.174
382.044	18.180	1303.737	991.256
383.059	18.213	1302.885	990.709
384.073	18.226	1301.895	989.944
385.088	18.279	1301.269	989.689
386.102	18.232	1300.935	989.076
387.117	18.290	1300.357	988.884
388.132	18.185	1299.338	987.414
389.146	18.166	1297.968	986.176
390.161	18.254	1297.179	985.997
391.175	18.159	1296.702	985.001
392.190	18.140	1295.787	984.106
393.205	18.199	1294.763	983.582
394.219	18.371	1293.588	983.592
395.234	18.336	1292.798	982.698
396.248	18.297	1291.416	981.338
397.263	18.298	1290.506	980.568
398.278	18.249	1289.365	979.336
399.292	18.249	1287.858	978.102
400.307	18.164	1286.919	976.817
401.321	18.191	1285.641	975.917
402.336	18.174	1284.596	974.938
403.350	18.156	1283.903	974.221
404.365	18.235	1282.515	973.534
405.380	18.319	1281.671	973.286
406.394	18.225	1281.104	972.236
407.409	18.270	1280.919	972.263
408.423	18.352	1279.916	971.882
409.438	18.433	1279.383	971.849
410.453	18.575	1278.576	971.957
411.467	18.563	1277.620	971.074
412.482	18.588	1277.577	971.100
413.496	18.607	1277.055	970.723
414.511	18.662	1275.963	970.116
415.526	18.733	1275.119	969.790
416.540	18.687	1274.495	968.973
417.555	18.719	1274.030	968.711
418.569	18.817	1273.069	968.446
419.584	18.753	1273.090	968.015
420.599	18.712	1272.079	966.931
421.613	140.599	1431.543	1795.433
422.628	135.168	1454.770	1795.526
