DTS Sentinel unit serial number:	SN413079Multiplexer serial number:	ORYXHardware model number:	OX4-SRSoftware version number:	ORYX F/W v4.00 Oryx Data Collector v3.7.2.0data status	okinstallation	princeton_trtdifferential loss correction	single-endedforward channel	channel 4reverse channel	N/Adate	2019/09/14time	17:29:34forward acquisition time	60.00reverse acquisition time	0.00gamma	496.2192k internal	0.2294k external	0.2294temperature offset calibration	1.0121default loss term (dB/km)	0.3790temperature slope calibration	1.0000multiplexer offset coefficient	1.0000multiplexer slope coefficient	1.0000fibre end	0.00T internal ref (°C)	37.70T ext. ref 1 (°C)	5.06T ext. ref 2 (°C)	32.13length (m)	temperature (°C)	Stokes	anti-Stokes-747.200	12.616	-0.251	-0.198
-746.185	800.000	-0.113	0.427
-745.171	-100.419	0.441	0.112
-744.156	-54.295	0.233	0.108
-743.142	-95.131	0.104	0.029
-742.127	800.000	0.120	0.446
-741.112	-200.000	-0.012	0.073
-740.098	17.007	0.125	0.102
-739.083	-200.000	-0.001	0.098
-738.069	-35.877	-0.133	-0.074
-737.054	-167.015	-0.151	0.006
-736.039	75.102	0.095	0.102
-735.025	-200.000	0.024	0.389
-734.010	35.106	-0.057	0.051
-732.996	45.361	-0.349	-0.329
-731.981	-31.022	0.161	-0.093
-730.966	800.000	0.086	-0.348
-729.952	39.045	-0.140	0.128
-728.937	175.574	-0.098	-0.145
-727.923	-80.283	-0.241	-0.082
-726.908	43.033	-0.258	-0.240
-725.894	-200.000	-0.031	0.365
-724.879	111.477	-0.116	0.143
-723.864	164.987	0.168	0.243
-722.850	77.679	0.071	-0.077
-721.835	588.682	0.018	-0.045
-720.821	-32.512	-0.358	-0.204
-719.806	48.056	0.028	0.027
-718.791	-200.000	0.020	-0.260
-717.777	581.905	0.135	-0.337
-716.762	-76.076	-0.220	0.080
-715.748	800.000	0.018	0.053
-714.733	800.000	0.086	-0.262
-713.718	78.302	-0.108	0.117
-712.704	-99.728	-0.053	-0.014
-711.689	-200.000	-0.007	-0.380
-710.675	-146.510	0.273	-0.024
-709.660	800.000	-0.059	-0.188
-708.645	43.091	-0.066	0.061
-707.631	173.947	0.060	-0.089
-706.616	-50.079	0.156	0.076
-705.602	282.842	-0.056	-0.103
-704.587	-62.908	-0.152	-0.064
-703.572	389.209	-0.088	-0.187
-702.558	-200.000	0.049	-0.228
-701.543	20.210	0.069	-0.057
-700.529	-117.626	-0.229	0.042
-699.514	-179.922	-0.149	0.003
-698.499	401.606	-0.119	-0.255
-697.485	-166.260	0.189	0.008
-696.470	-118.181	0.083	-0.015
-695.456	-23.076	0.237	0.146
-694.441	207.757	0.046	-0.074
-693.426	152.152	-0.224	-0.311
-692.412	-90.497	-0.219	-0.065
-691.397	523.361	-0.110	0.265
-690.383	800.000	0.170	0.514
-689.368	-200.000	-0.017	0.291
-688.354	-200.000	0.016	-0.277
-687.339	-200.000	-0.018	-0.489
-686.324	-200.000	0.001	-0.238
-685.310	-31.728	0.198	0.113
-684.295	800.000	-0.066	-0.288
-683.281	238.531	0.069	0.116
-682.266	-200.000	-0.031	-0.238
-681.251	226.616	0.122	-0.203
-680.237	-111.748	-0.202	0.042
-679.222	57.278	-0.139	-0.139
-678.208	-135.265	-0.108	0.013
-677.193	-151.572	-0.130	-0.010
-676.178	158.273	-0.266	0.376
-675.164	62.345	-0.145	-0.148
-674.149	-200.000	-0.010	-0.138
-673.135	221.756	-0.022	0.036
-672.120	-200.000	0.078	-0.466
-671.105	-154.875	0.218	0.015
-670.091	659.410	0.081	-0.213
-669.076	260.807	-0.076	0.135
-668.062	444.720	-0.021	0.046
-667.047	-200.000	0.036	-0.170
-666.032	-77.079	0.232	0.082
-665.018	465.720	0.065	0.147
-664.003	-84.461	-0.228	0.073
-662.989	-126.492	0.268	-0.041
-661.974	453.037	-0.054	0.122
-660.959	217.708	-0.207	-0.336
-659.945	-84.342	-0.191	-0.062
-658.930	-106.599	0.340	0.077
-657.916	800.000	-0.087	0.258
-656.901	-200.000	0.018	-0.258
-655.886	-32.984	-0.098	-0.055
-654.872	-200.000	-0.005	-0.551
-653.857	-115.973	0.211	-0.040
-652.843	447.172	-0.116	-0.260
-651.828	153.571	0.122	-0.171
-650.814	-26.972	-0.080	0.048
-649.799	165.682	-0.128	0.184
-648.784	-60.114	-0.134	-0.058
-647.770	-74.718	-0.077	-0.028
-646.755	-89.176	-0.162	0.049
-645.741	401.783	-0.078	-0.166
-644.726	800.000	0.024	-0.096
-643.711	132.974	-0.085	-0.111
-642.697	43.890	-0.043	0.040
-641.682	-120.263	0.029	0.005
-640.668	557.607	-0.081	0.200
-639.653	800.000	-0.081	-0.302
-638.638	-200.000	0.003	0.046
-637.624	-91.921	0.244	0.070
-636.609	309.840	-0.167	-0.319
-635.595	253.789	-0.263	0.458
-634.580	-119.901	-0.238	-0.042
-633.565	49.135	0.057	0.055
-632.551	655.197	0.121	0.317
-631.536	66.866	0.074	-0.077
-630.522	503.253	-0.099	0.233
-629.507	441.273	0.074	0.166
-628.492	-200.000	-0.016	0.174
-627.478	327.618	0.056	0.110
-626.463	50.034	-0.174	0.167
-625.449	145.271	0.081	0.110
-624.434	-109.208	0.318	0.069
-623.419	-42.851	-0.250	0.129
-622.405	18.607	0.182	0.148
-621.390	334.297	0.104	0.204
-620.376	-200.000	-0.050	-0.230
-619.361	-200.000	-0.010	0.073
-618.346	-107.785	-0.434	-0.096
-617.332	-80.180	-0.147	-0.050
-616.317	800.000	-0.025	-0.082
-615.303	-101.945	-0.099	-0.024
-614.288	-17.034	-0.304	-0.195
-613.273	-200.000	0.012	-0.105
-612.259	-48.938	-0.378	-0.184
-611.244	-37.422	-0.107	-0.058
-610.230	66.013	-0.128	0.133
-609.215	70.323	-0.078	0.082
-608.201	-162.217	0.527	0.027
-607.186	104.483	-0.128	-0.153
-606.171	34.789	0.085	0.076
-605.157	-200.000	0.319	-0.001
-604.142	-200.000	0.019	0.230
-603.128	-81.564	0.132	-0.044
-602.113	-19.021	-0.133	0.084
-601.098	-200.000	-0.043	-0.264
-600.084	-87.835	-0.206	0.063
-599.069	800.000	-0.018	-0.069
-598.055	-98.625	-0.045	0.012
-597.040	-76.888	0.200	-0.071
-596.025	-169.409	0.123	-0.005
-595.011	-120.706	-0.144	0.025
-593.996	-200.000	-0.054	-0.433
-592.982	96.821	-0.159	0.185
-591.967	-99.582	-0.200	-0.051
-590.952	21.110	0.238	0.196
-589.938	-200.000	0.032	-0.275
-588.923	-138.608	-0.183	-0.020
-587.909	-183.101	0.255	-0.005
-586.894	191.439	-0.110	-0.168
-585.879	20.794	-0.198	0.163
-584.865	83.345	-0.162	-0.179
-583.850	-77.883	0.426	-0.149
-582.836	800.000	-0.073	-0.209
-581.821	-45.873	-0.080	-0.040
-580.806	95.076	0.150	0.174
-579.792	590.549	-0.051	-0.128
-578.777	-200.000	-0.002	-0.035
-577.763	62.204	-0.248	-0.251
-576.748	-108.213	0.331	0.073
-575.733	-93.097	-0.250	0.071
-574.719	-200.000	0.044	0.260
-573.704	-200.000	0.016	0.245
-572.690	-200.000	-0.022	-0.251
-571.675	-200.000	-0.019	0.173
-570.661	800.000	-0.085	0.289
-569.646	118.585	-0.120	0.150
-568.631	-200.000	0.039	0.281
-567.617	-53.437	0.198	-0.092
-566.602	672.860	-0.039	-0.102
-565.588	-78.182	0.048	0.017
-564.573	67.879	-0.065	0.067
-563.558	358.070	-0.079	-0.160
-562.544	-17.185	-0.067	0.043
-561.529	-106.627	-0.127	0.029
-560.515	-120.168	-0.179	0.031
-559.500	-80.939	-0.369	0.124
-558.485	-31.259	-0.078	0.044
-557.471	-200.000	-0.008	-0.040
-556.456	-24.385	-0.035	0.021
-555.442	-43.398	0.168	0.086
-554.427	-128.277	-0.389	-0.056
-553.412	-200.000	0.008	0.158
-552.398	-200.000	0.031	-0.188
-551.383	50.744	-0.228	-0.220
-550.369	-28.045	0.357	0.210
-549.354	800.000	-0.085	-0.281
-548.339	146.838	0.160	-0.218
-547.325	193.900	0.147	-0.226
-546.310	120.481	-0.165	-0.208
-545.296	-200.000	-0.029	0.176
-544.281	39.410	0.209	-0.190
-543.266	-105.666	0.120	0.028
-542.252	24.383	-0.127	0.106
-541.237	238.282	-0.192	-0.323
-540.223	-35.713	-0.139	0.076
-539.208	24.157	-0.120	0.100
-538.193	-200.000	0.013	0.063
-537.179	138.579	0.098	0.130
-536.164	800.000	0.069	-0.203
-535.150	-5.825	-0.089	0.062
-534.135	568.996	0.005	0.013
-533.121	-174.910	-0.057	0.002
-532.106	157.694	0.060	-0.085
-531.091	-150.461	0.124	-0.010
-530.077	800.000	0.029	0.107
-529.062	116.965	0.136	-0.170
-528.048	-4.143	0.247	0.173
-527.033	51.501	0.209	-0.201
-526.018	186.675	0.251	0.379
-525.004	-132.121	0.105	-0.014
-523.989	261.673	-0.116	0.203
-522.975	57.897	0.104	-0.103
-521.960	-24.515	-0.300	-0.181
-520.945	-126.741	0.242	-0.036
-519.931	13.581	-0.087	0.069
-518.916	47.354	0.124	-0.117
-517.902	-112.039	-0.236	0.048
-516.887	111.866	0.061	-0.074
-515.872	-147.838	-0.260	-0.022
-514.858	217.267	0.195	-0.315
-513.843	50.022	0.195	-0.187
-512.829	-95.933	-0.189	-0.051
-511.814	800.000	-0.084	-0.303
-510.799	-200.000	-0.022	-0.111
-509.785	-200.000	0.022	-0.149
-508.770	800.000	-0.046	0.141
-507.756	-86.140	0.268	0.084
-506.741	-200.000	-0.008	0.403
-505.726	-39.047	-0.318	-0.170
-504.712	800.000	0.067	0.250
-503.697	-19.024	0.144	-0.091
-502.683	-200.000	0.032	-0.227
-501.668	-86.124	0.161	-0.050
-500.653	-188.517	-0.224	-0.003
-499.639	-43.647	0.236	-0.120
-498.624	-6.341	0.167	-0.115
-497.610	-200.000	-0.020	0.139
-496.595	-21.971	-0.317	-0.195
-495.581	-72.644	-0.177	0.066
-494.566	-2.169	0.118	0.084
-493.551	-200.000	-0.009	-0.375
-492.537	-200.000	-0.014	-0.089
-491.522	-117.251	0.162	0.030
-490.508	45.997	-0.231	0.217
-489.493	18.735	0.253	-0.205
-488.478	81.622	0.047	-0.052
-487.464	48.207	0.159	0.150
-486.449	-200.000	0.008	0.220
-485.435	-106.720	-0.114	0.026
-484.420	-53.112	-0.187	-0.087
-483.405	-133.489	-0.322	-0.041
-482.391	228.077	0.154	-0.253
-481.376	-200.000	0.032	-0.150
-480.362	-91.040	0.177	0.051
-479.347	3.876	0.250	-0.184
-478.332	-52.932	-0.278	0.130
-477.318	-86.003	0.240	0.075
-476.303	580.911	-0.110	0.272
-475.289	199.663	-0.183	0.284
-474.274	368.675	-0.181	0.370
-473.259	83.870	-0.159	-0.176
-472.245	100.367	-0.261	-0.307
-471.230	-75.330	0.109	-0.039
-470.216	-118.501	0.099	-0.018
-469.201	-48.309	0.134	0.066
-468.186	-77.833	-0.033	-0.012
-467.172	342.634	0.037	0.073
-466.157	-143.767	-0.448	0.043
-465.143	800.000	0.088	0.299
-464.128	168.083	0.170	-0.245
-463.113	25.487	0.155	-0.130
-462.099	-143.377	-0.156	0.015
-461.084	3.863	0.129	0.095
-460.070	541.008	0.138	-0.332
-459.055	-69.330	-0.142	0.055
-458.040	-50.214	-0.100	-0.048
-457.026	-86.109	-0.286	-0.089
-456.011	800.000	-0.072	0.303
-454.997	235.227	-0.181	0.303
-453.982	-113.144	0.286	0.057
-452.968	263.151	-0.180	0.316
-451.953	-85.378	-0.230	-0.072
-450.938	144.567	-0.086	0.116
-449.924	35.368	-0.036	-0.032
-448.909	-200.000	0.001	0.068
-447.895	-98.391	0.047	0.012
-446.880	31.479	0.240	-0.208
-445.865	-26.572	0.298	-0.176
-444.851	-200.000	0.005	-0.072
-443.836	-110.461	-0.385	0.081
-442.822	-115.060	0.058	0.011
-441.807	-200.000	0.002	-0.056
-440.792	-165.246	-0.351	-0.016
-439.778	-58.160	-0.036	-0.016
-438.763	-47.414	0.173	-0.085
-437.749	-71.818	0.141	0.053
-436.734	800.000	0.057	-0.176
-435.719	-34.592	-0.222	0.123
-434.705	176.063	0.128	0.188
-433.690	66.707	0.061	0.062
-432.676	199.631	-0.151	-0.234
-431.661	-200.000	-0.001	-0.146
-430.646	417.338	0.169	-0.365
-429.632	173.623	-0.143	0.209
-428.617	83.585	-0.129	-0.142
-427.603	188.067	0.093	0.140
-426.588	21.765	-0.367	-0.302
-425.573	-7.590	0.349	0.238
-424.559	-20.008	-0.288	0.179
-423.544	66.191	0.274	-0.281
-422.530	115.556	0.134	-0.166
-421.515	-102.831	0.198	-0.047
-420.500	96.714	-0.101	-0.117
-419.486	379.250	-0.053	0.110
-418.471	257.669	-0.086	0.149
-417.457	-147.052	-0.024	-0.002
-416.442	-200.000	-0.021	-0.256
-415.428	-1.408	-0.260	-0.185
-414.413	-170.275	0.453	-0.016
-413.398	-65.932	0.156	0.063
-412.384	-34.343	-0.075	-0.042
-411.369	-5.319	0.317	0.220
-410.355	103.677	0.164	-0.194
-409.340	241.330	0.131	0.221
-408.325	16.233	-0.158	0.126
-407.311	-76.312	-0.326	0.116
-406.296	51.433	0.132	0.126
-405.282	800.000	0.160	-0.528
-404.267	209.538	0.104	-0.165
-403.252	65.069	-0.096	0.098
-402.238	800.000	0.071	0.224
-401.223	-200.000	0.044	-0.364
-400.209	800.000	0.063	0.238
-399.194	-100.980	-0.254	0.063
-398.179	-116.536	-0.149	0.028
-397.165	74.934	0.253	0.269
-396.150	121.211	-0.142	0.179
-395.136	291.294	0.152	0.278
-394.121	-128.132	0.023	-0.003
-393.106	-66.113	0.326	-0.131
-392.092	-36.659	-0.374	0.203
-391.077	29.661	0.246	-0.211
-390.063	-145.685	-0.027	-0.002
-389.048	577.972	-0.112	0.277
-388.033	800.000	-0.092	-0.270
-387.019	800.000	-0.027	-0.079
-386.004	-200.000	0.010	0.131
-384.990	-159.157	-0.269	0.015
-383.975	800.000	0.133	0.384
-382.960	324.525	-0.043	-0.083
-381.946	800.000	-0.076	-0.228
-380.931	189.774	0.130	-0.197
-379.917	-124.518	-0.113	-0.018
-378.902	-9.339	0.117	0.079
-377.888	-120.858	-0.172	0.029
-376.873	-119.576	0.239	-0.042
-375.858	-200.000	0.028	-0.214
-374.844	800.000	0.069	-0.201
-373.829	800.000	-0.031	0.088
-372.815	-125.105	0.193	0.030
-371.800	-200.000	0.018	-0.118
-370.785	800.000	0.033	0.126
-369.771	-34.629	-0.182	-0.101
-368.756	-26.479	-0.145	0.086
-367.742	435.696	-0.045	0.098
-366.727	90.476	0.214	-0.241
-365.712	-116.731	-0.075	-0.014
-364.698	-34.338	-0.277	0.153
-363.683	-16.733	-0.261	-0.166
-362.669	-14.462	-0.075	0.048
-361.654	170.711	0.127	0.184
-360.639	-200.000	0.025	0.211
-359.625	-103.388	0.211	0.050
-358.610	48.884	-0.199	0.188
-357.596	760.010	-0.139	-0.380
-356.581	-82.240	-0.243	-0.080
-355.566	-200.000	-0.029	0.137
-354.552	-92.294	0.220	0.063
-353.537	187.516	-0.083	-0.125
-352.523	74.274	0.076	-0.080
-351.508	-200.000	-0.001	-0.097
-350.493	94.086	-0.208	-0.238
-349.479	51.495	0.132	-0.127
-348.464	343.908	-0.169	-0.333
-347.450	800.000	0.069	0.245
-346.435	32.306	0.294	0.255
-345.420	800.000	-0.105	-0.301
-344.406	-41.266	-0.057	-0.030
-343.391	800.000	0.102	0.333
-342.377	-124.451	0.139	0.022
-341.362	254.625	0.168	-0.290
-340.348	-200.000	0.099	0.545
-339.333	399.927	0.058	0.122
-338.318	149.208	-0.205	-0.279
-337.304	-114.640	0.495	-0.095
-336.289	-200.000	-0.006	-0.053
-335.275	-200.000	0.002	0.214
-334.260	800.000	-0.034	0.146
-333.245	-152.220	-0.233	0.017
-332.231	-51.335	0.067	-0.032
-331.216	800.000	-0.008	-0.022
-330.202	-63.317	-0.103	-0.043
-329.187	-200.000	0.015	0.086
-328.172	-25.931	0.167	-0.099
-327.158	-59.123	0.276	-0.120
-326.143	241.402	-0.113	0.190
-325.129	36.295	0.334	0.297
-324.114	-200.000	-0.003	0.067
-323.099	86.916	-0.286	-0.318
-322.085	-93.042	0.391	0.110
-321.070	-136.653	-0.346	0.040
-320.056	84.679	-0.059	0.066
-319.041	-200.000	0.013	-0.143
-318.026	-170.173	-0.183	0.007
-317.012	800.000	0.070	-0.293
-315.997	141.742	0.105	-0.141
-314.983	800.000	0.025	-0.083
-313.968	108.892	0.109	0.131
-312.953	800.000	0.025	0.100
-311.939	217.992	-0.176	0.283
-310.924	131.042	-0.114	0.147
-309.910	59.969	-0.094	0.094
-308.895	-77.493	-0.041	0.014
-307.880	-118.689	-0.069	-0.012
-306.866	153.085	-0.060	0.082
-305.851	-145.724	-0.238	-0.021
-304.837	-141.520	0.186	0.019
-303.822	79.111	0.173	-0.186
-302.807	421.308	0.089	0.191
-301.793	15.548	0.376	0.297
-300.778	387.050	-0.128	0.266
-299.764	-122.674	-0.055	0.009
-298.749	245.939	-0.100	0.170
-297.735	134.455	0.092	-0.120
-296.720	457.207	0.037	-0.081
-295.705	-96.886	0.239	0.063
-294.691	-200.000	-0.002	0.160
-293.676	-49.755	-0.156	0.075
-292.662	-47.628	0.055	-0.027
-291.647	570.633	-0.024	0.059
-290.632	800.000	-0.070	-0.217
-289.618	64.301	-0.176	0.178
-288.603	-200.000	-0.058	-0.275
-287.589	0.934	-0.128	0.092
-286.574	-200.000	0.003	0.183
-285.559	-200.000	-0.012	-0.343
-284.545	-200.000	-0.001	-0.283
-283.530	310.767	-0.052	0.098
-282.516	-92.736	0.258	-0.073
-281.501	-46.757	0.198	0.097
-280.486	-154.373	0.144	0.010
-279.472	-91.039	0.177	0.051
-278.457	-14.747	0.214	0.138
-277.443	332.560	0.081	0.157
-276.428	-200.000	-0.027	0.127
-275.413	154.989	-0.177	0.245
-274.399	136.891	0.143	0.188
-273.384	-28.968	-0.205	0.118
-272.370	-132.455	0.225	-0.029
-271.355	19.672	0.162	0.131
-270.340	-118.718	0.188	-0.033
-269.326	11.971	0.124	0.095
-268.311	9.526	-0.292	-0.222
-267.297	-124.641	-0.050	-0.008
-266.282	-200.000	-0.055	0.350
-265.267	-186.407	0.030	0.000
-264.253	-101.616	0.213	0.052
-263.238	287.510	-0.108	0.195
-262.224	108.178	-0.320	-0.383
-261.209	-17.867	-0.172	-0.108
-260.195	-29.316	-0.380	-0.218
-259.180	467.691	-0.143	0.321
-258.165	-91.222	0.308	-0.089
-257.151	-200.000	-0.013	0.114
-256.136	94.787	0.138	-0.158
-255.122	-126.684	0.310	0.046
-254.107	466.637	0.029	-0.065
-253.092	-47.022	0.076	-0.037
-252.078	800.000	0.055	0.221
-251.063	-200.000	-0.055	-0.387
-250.049	800.000	-0.023	0.092
-249.034	800.000	-0.047	0.157
-248.019	573.826	0.066	-0.161
-247.005	96.356	0.032	-0.036
-245.990	119.677	-0.134	0.166
-244.976	-9.477	0.239	0.160
-243.961	-53.962	-0.277	0.126
-242.946	-34.180	-0.054	-0.030
-241.932	-37.557	0.073	-0.039
-240.917	152.516	0.062	-0.084
-239.903	513.824	0.060	-0.139
-238.888	440.827	0.156	-0.341
-237.873	291.945	-0.126	0.231
-236.859	-114.924	-0.251	0.048
-235.844	-51.721	-0.355	-0.166
-234.830	380.902	-0.103	-0.212
-233.815	-1.886	-0.240	-0.169
-232.800	-56.825	0.170	-0.075
-231.786	800.000	0.052	0.221
-230.771	-82.674	-0.214	0.070
-229.757	-200.000	0.048	-0.290
-228.742	-200.000	-0.016	-0.108
-227.727	-86.897	0.201	0.061
-226.713	-133.912	0.188	-0.023
-225.698	80.254	0.192	-0.207
-224.684	52.080	-0.223	-0.213
-223.669	-76.296	-0.103	-0.036
-222.655	179.747	0.128	0.187
-221.640	279.070	0.173	0.309
-220.625	-55.153	-0.056	0.025
-219.611	582.381	-0.038	0.093
-218.596	-35.472	0.339	-0.184
-217.582	132.732	0.252	0.325
-216.567	97.664	-0.234	-0.269
-215.552	-67.085	0.269	0.106
-214.538	135.951	0.049	-0.064
-213.523	-200.000	0.001	-0.070
-212.509	-38.060	-0.194	0.103
-211.494	383.431	0.029	-0.061
-210.479	-152.925	0.235	0.017
-209.465	134.164	-0.119	0.155
-208.450	121.699	0.096	-0.120
-207.436	800.000	-0.066	-0.229
-206.421	-110.299	-0.243	0.051
-205.406	800.000	0.045	0.145
-204.392	143.046	-0.140	-0.187
-203.377	150.619	-0.023	0.031
-202.363	800.000	-0.098	0.315
-201.348	330.038	0.041	0.078
-200.333	-83.323	0.238	-0.076
-199.319	-200.000	-0.011	-0.182
-198.304	101.469	0.137	-0.160
-197.290	-89.617	0.291	0.085
-196.275	-114.904	0.482	0.092
-195.260	445.640	0.126	-0.277
-194.246	296.184	0.117	-0.215
-193.231	-54.989	-0.092	0.041
-192.217	-1.512	-0.060	-0.042
-191.202	138.830	0.170	-0.223
-190.187	-7.934	0.237	-0.160
-189.173	800.000	-0.044	0.156
-188.158	-86.424	0.392	-0.120
-187.144	-3.442	0.169	-0.117
-186.129	-200.000	0.037	0.480
-185.114	509.614	-0.121	0.282
-184.100	-28.357	-0.060	-0.035
-183.085	110.897	0.005	0.006
-182.071	-151.222	-0.232	-0.017
-181.056	-119.477	-0.140	0.024
-180.042	24.719	0.241	-0.200
-179.027	84.080	0.111	-0.121
-178.012	-106.587	-0.203	-0.045
-176.998	-65.131	0.229	0.093
-175.983	800.000	-0.035	0.126
-174.969	397.216	-0.056	-0.117
-173.954	-81.793	-0.081	-0.026
-172.939	38.985	0.195	0.174
-171.925	57.888	0.245	-0.240
-170.910	243.004	-0.065	-0.108
-169.896	54.565	-0.258	-0.249
-168.881	139.164	0.124	0.163
-167.866	-200.000	0.001	-0.093
-166.852	358.108	0.104	0.208
-165.837	-128.990	0.291	-0.041
-164.823	-16.896	-0.327	0.207
-163.808	484.217	0.073	0.167
-162.793	622.296	-0.094	-0.236
-161.779	-70.610	0.252	-0.095
-160.764	-117.107	-0.171	-0.031
-159.750	390.669	0.080	-0.166
-158.735	175.271	0.059	-0.086
-157.720	2.890	-0.034	0.024
-156.706	-4.142	0.078	-0.054
-155.691	-200.000	0.001	-0.011
-154.677	-200.000	-0.013	0.388
-153.662	-200.000	-0.064	0.366
-152.647	324.616	-0.070	0.133
-151.633	-57.274	-0.271	0.119
-150.618	-59.656	0.142	0.061
-149.604	104.959	0.106	0.125
-148.589	-200.000	-0.022	0.303
-147.574	-200.000	0.034	0.409
-146.560	-104.987	0.246	0.056
-145.545	101.875	-0.114	0.133
-144.531	-200.000	-0.009	0.357
-143.516	155.899	-0.221	0.304
-142.502	-98.130	0.167	-0.043
-141.487	800.000	-0.018	-0.062
-140.472	167.463	0.220	0.312
-139.458	247.461	0.027	0.045
-138.443	-200.000	0.015	0.290
-137.429	274.064	0.060	-0.106
-136.414	-200.000	-0.020	-0.289
-135.399	247.881	-0.031	-0.052
-134.385	-3.483	0.203	-0.141
-133.370	-97.525	-0.329	-0.085
-132.356	800.000	0.034	-0.140
-131.341	86.278	-0.111	-0.122
-130.326	-200.000	0.013	0.137
-129.312	-200.000	0.062	0.368
-128.297	229.080	0.144	0.234
-127.283	-197.412	0.238	-0.001
-126.268	211.219	-0.126	-0.198
-125.253	-43.915	0.246	-0.123
-124.239	553.647	-0.006	-0.015
-123.224	-98.164	-0.319	0.082
-122.210	-106.126	-0.101	0.023
-121.195	-116.977	0.207	0.038
-120.180	800.000	0.091	0.308
-119.166	-132.529	0.185	-0.024
-118.151	-200.000	0.012	-0.283
-117.137	-43.191	0.217	0.110
-116.122	46.469	0.200	0.186
-115.107	-59.573	0.144	0.062
-114.093	-200.000	0.003	-0.041
-113.078	190.158	-0.193	-0.289
-112.064	-26.948	0.254	-0.148
-111.049	-200.000	0.040	-0.247
-110.034	-153.072	-0.052	0.004
-109.020	800.000	0.124	0.367
-108.005	-200.000	0.022	0.233
-106.991	70.441	0.251	-0.259
-105.976	-200.000	-0.021	-0.498
-104.962	-116.809	-0.240	-0.044
-103.947	43.623	0.327	-0.298
-102.932	-122.225	0.163	-0.027
-101.918	-200.000	-0.018	-0.225
-100.903	-105.550	-0.189	0.043
-99.889	-175.184	-0.255	0.007
-98.874	-50.770	-0.123	-0.058
-97.859	-118.927	-0.115	-0.020
-96.845	-35.371	-0.084	-0.046
-95.830	-200.000	0.010	0.216
-94.816	271.981	-0.186	0.327
-93.801	800.000	0.075	-0.276
-92.786	-11.191	-0.055	0.036
-91.772	1.890	0.205	-0.148
-90.757	14.159	0.072	-0.056
-89.743	-173.055	-0.094	-0.003
-88.728	46.462	-0.252	-0.233
-87.713	-94.140	-0.361	-0.099
-86.699	800.000	-0.052	-0.219
-85.684	477.927	-0.227	0.511
-84.670	55.415	0.210	-0.202
-83.655	-72.963	0.179	-0.065
-82.640	-101.022	-0.107	-0.026
-81.626	336.793	-0.080	0.155
-80.611	-110.766	0.205	0.042
-79.597	-32.263	0.258	-0.143
-78.582	20.069	0.129	0.103
-77.567	-152.842	-0.018	0.001
-76.553	440.336	0.073	0.158
-75.538	9.912	0.166	-0.126
-74.524	53.221	0.199	-0.190
-73.509	404.600	-0.041	-0.085
-72.494	157.612	-0.050	-0.069
-71.480	-159.291	0.394	-0.022
-70.465	5.445	-0.143	-0.105
-69.451	-179.014	-0.275	-0.006
-68.436	-200.000	-0.023	0.148
-67.422	36.975	0.117	-0.103
-66.407	-126.375	0.172	0.025
-65.392	56.105	0.168	0.162
-64.378	-113.866	-0.218	0.042
-63.363	-59.746	-0.014	-0.006
-62.349	-60.414	-0.151	0.064
-61.334	3.917	-0.794	-0.578
-60.319	-200.000	0.100	0.855
-59.305	-200.000	0.063	-0.735
-58.290	105.832	0.799	0.941
-57.276	800.000	0.530	1.701
-56.261	-200.000	87.598	494.659
-55.246	527.408	1389.462	3260.082
-54.232	182.231	2609.869	3827.679
-53.217	110.939	2361.223	2828.758
-52.203	44.044	2102.038	1917.576
-51.188	39.383	2012.652	1793.621
-50.173	37.876	1993.192	1762.599
-49.159	50.568	2039.523	1919.916
-48.144	53.778	2059.760	1968.289
-47.130	40.284	2019.186	1807.392
-46.115	37.753	2007.654	1773.982
-45.100	37.740	2004.225	1770.766
-44.086	37.671	2002.086	1768.181
-43.071	37.626	1999.417	1765.342
-42.057	37.582	1997.424	1763.120
-41.042	37.604	1995.503	1761.549
-40.027	37.659	1993.654	1760.346
-39.013	37.712	1991.305	1758.679
-37.998	37.672	1989.760	1756.881
-36.984	37.653	1987.960	1755.051
-35.969	37.691	1986.034	1753.622
-34.954	37.717	1984.773	1752.674
-33.940	37.686	1983.186	1750.924
-32.925	37.705	1981.204	1749.281
-31.911	37.778	1979.716	1748.549
-30.896	37.691	1978.396	1746.532
-29.881	37.803	1976.375	1745.688
-28.867	37.727	1974.731	1743.481
-27.852	37.697	1973.278	1741.861
-26.838	37.828	1970.474	1740.492
-25.823	37.855	1968.987	1739.345
-24.809	37.756	1967.089	1736.722
-23.794	37.663	1965.974	1734.839
-22.779	37.732	1963.818	1733.484
-21.765	37.681	1962.144	1731.482
-20.750	37.676	1960.241	1729.684
-19.736	37.681	1959.098	1728.656
-18.721	37.765	1956.622	1727.143
-17.706	37.664	1955.614	1725.296
-16.692	37.621	1954.318	1723.704
-15.677	37.740	1952.166	1722.787
-14.663	37.708	1951.304	1721.678
-13.648	37.753	1949.557	1720.460
-12.633	37.730	1948.326	1719.106
-11.619	37.737	1946.999	1717.931
-10.604	37.676	1945.538	1716.033
-9.590	37.707	1944.294	1715.137
-8.575	37.644	1943.138	1713.499
-7.560	37.688	1941.456	1712.329
-6.546	37.625	1940.406	1710.786
-5.531	37.686	1938.725	1709.771
-4.517	37.646	1938.057	1708.765
-3.502	37.617	1936.810	1707.342
-2.487	37.614	1934.773	1705.452
-1.473	37.723	1933.816	1705.495
-0.458	37.726	1929.768	1701.887
0.556	38.508	1909.915	1673.473
1.571	33.804	1889.055	1615.154
2.586	29.163	1910.361	1593.192
3.600	27.726	1946.706	1610.686
4.615	26.627	1940.819	1595.988
5.629	20.448	1837.363	1459.055
6.644	10.309	1714.580	1281.571
7.659	5.505	1674.847	1214.544
8.673	5.127	1671.853	1209.340
9.688	4.995	1670.950	1207.555
10.702	5.040	1668.889	1206.309
11.717	5.078	1666.217	1204.565
12.731	5.507	1665.620	1207.339
13.746	11.752	1681.077	1266.930
14.761	19.777	1697.454	1341.678
15.775	21.488	1698.300	1355.499
16.790	20.173	1694.475	1342.149
17.804	19.064	1691.320	1330.958
18.819	18.079	1687.940	1320.577
19.834	17.412	1685.083	1313.081
20.848	17.171	1683.743	1310.058
21.863	16.901	1682.123	1306.608
22.877	16.647	1680.763	1303.473
23.892	16.395	1680.131	1300.929
24.907	16.336	1678.747	1299.292
25.921	16.361	1677.497	1298.400
26.936	16.397	1676.083	1297.463
27.950	16.335	1675.491	1296.420
28.965	16.500	1674.691	1296.948
29.980	16.358	1674.201	1295.368
30.994	16.557	1672.880	1295.751
32.009	16.607	1672.288	1295.563
33.023	16.675	1671.697	1295.510
34.038	16.770	1670.100	1294.885
35.053	16.732	1668.634	1293.345
36.067	16.624	1667.434	1291.474
37.082	16.551	1666.523	1290.097
38.096	16.604	1664.940	1289.162
39.111	16.552	1664.613	1288.399
40.126	16.568	1664.025	1287.953
41.140	16.599	1663.213	1287.449
42.155	16.505	1661.724	1285.465
43.169	16.325	1659.639	1282.368
44.184	16.326	1658.510	1281.393
45.199	16.226	1657.936	1280.082
46.213	16.191	1656.396	1278.508
47.228	16.321	1654.767	1278.127
48.242	16.310	1654.128	1277.437
49.257	16.494	1653.014	1277.852
50.271	16.485	1651.764	1276.704
51.286	16.531	1650.161	1275.698
52.301	16.553	1648.775	1274.683
53.315	16.469	1647.708	1273.114
54.330	16.393	1646.470	1271.469
55.344	16.303	1644.777	1269.371
56.359	16.256	1643.260	1267.736
57.374	16.252	1642.286	1266.841
58.388	16.331	1640.730	1266.120
59.403	16.265	1639.558	1264.613
60.417	16.216	1638.217	1263.098
61.432	16.140	1637.216	1261.649
62.447	16.201	1635.933	1261.007
63.461	16.144	1634.578	1259.420
64.476	16.131	1633.320	1258.246
65.490	16.100	1632.473	1257.249
66.505	16.090	1631.143	1256.037
67.520	16.137	1630.419	1255.718
68.534	16.108	1629.565	1254.736
69.549	16.187	1628.221	1254.174
70.563	16.098	1627.272	1252.676
71.578	16.236	1625.545	1252.260
72.593	16.128	1624.532	1250.567
73.607	16.003	1624.173	1249.249
74.622	16.025	1622.380	1247.928
75.636	16.017	1621.922	1247.404
76.651	16.024	1621.054	1246.679
77.666	16.106	1619.649	1246.091
78.680	15.995	1619.015	1244.676
79.695	16.057	1618.369	1244.523
80.709	16.077	1617.488	1243.887
81.724	16.124	1616.992	1243.738
82.739	16.193	1616.210	1243.534
83.753	16.263	1615.281	1243.231
84.768	16.304	1614.308	1242.671
85.782	16.362	1613.938	1242.707
86.797	16.411	1613.033	1242.254
87.812	16.517	1611.411	1241.677
88.826	16.474	1610.611	1240.630
89.841	16.418	1608.848	1238.754
90.855	16.427	1608.099	1238.135
91.870	16.372	1607.776	1237.377
92.884	16.509	1605.872	1236.802
93.899	16.493	1604.819	1235.768
94.914	16.548	1603.785	1235.258
95.928	16.615	1602.665	1234.776
96.943	16.635	1601.516	1233.930
97.957	16.553	1600.169	1232.186
98.972	16.485	1599.001	1230.684
99.987	16.551	1597.129	1229.612
101.001	16.547	1595.087	1227.899
102.016	16.638	1593.588	1227.295
103.030	16.487	1592.732	1225.438
104.045	16.537	1591.425	1224.683
105.060	16.464	1590.195	1223.100
106.074	16.461	1588.417	1221.603
107.089	16.412	1587.084	1220.114
108.103	16.223	1585.465	1217.403
109.118	16.154	1583.719	1215.457
110.133	16.096	1582.522	1214.014
111.147	16.150	1581.299	1213.355
112.162	16.164	1579.818	1212.215
113.176	16.149	1578.561	1211.034
114.191	16.270	1577.069	1210.647
115.206	16.229	1575.781	1209.257
116.220	16.283	1574.735	1208.733
117.235	16.182	1573.682	1207.098
118.249	16.342	1572.125	1206.942
119.264	16.265	1570.769	1205.245
120.279	16.290	1569.207	1204.116
121.293	16.257	1568.088	1202.912
122.308	16.226	1566.244	1201.172
123.322	16.109	1564.970	1199.255
124.337	16.007	1564.003	1197.683
125.352	16.071	1562.316	1196.739
126.366	16.055	1561.362	1195.796
127.381	16.077	1560.268	1195.004
128.395	16.089	1558.928	1193.958
129.410	16.133	1557.533	1193.092
130.424	16.014	1556.653	1191.473
131.439	16.054	1555.610	1190.851
132.454	16.150	1553.844	1190.075
133.468	16.256	1552.432	1189.631
134.483	16.249	1550.982	1188.365
135.497	16.323	1549.926	1187.977
136.512	16.357	1548.317	1186.872
137.527	16.358	1547.222	1185.939
138.541	16.400	1545.895	1185.109
139.556	16.378	1544.417	1183.715
140.570	16.491	1543.365	1183.600
141.585	16.419	1542.407	1182.257
142.600	16.509	1541.147	1181.815
143.614	16.599	1539.709	1181.236
144.629	16.636	1538.845	1180.724
145.643	16.686	1537.271	1179.761
146.658	16.625	1536.556	1178.684
147.673	16.670	1534.571	1177.370
148.687	16.499	1533.352	1175.141
149.702	16.497	1531.703	1173.764
150.716	16.517	1529.569	1172.157
151.731	16.490	1528.386	1170.962
152.746	16.451	1527.149	1169.642
153.760	16.347	1526.091	1168.005
154.775	16.482	1524.421	1167.559
155.789	16.494	1523.488	1166.826
156.804	16.474	1522.502	1165.828
157.819	16.586	1521.439	1165.684
158.833	16.537	1520.455	1164.485
159.848	16.705	1518.539	1164.070
160.862	16.799	1517.512	1163.827
161.877	16.745	1516.837	1162.838
162.892	16.729	1515.066	1161.265
163.906	16.499	1514.090	1158.843
164.921	16.442	1512.605	1157.209
165.935	16.469	1511.592	1156.519
166.950	16.507	1510.210	1155.615
167.964	16.556	1509.429	1155.251
168.979	16.584	1508.155	1154.365
169.994	16.579	1507.292	1153.570
171.008	16.497	1506.318	1152.162
172.023	16.589	1505.499	1152.058
173.037	16.635	1504.057	1151.168
174.052	16.699	1503.037	1150.724
175.067	16.777	1502.004	1150.359
176.081	16.710	1500.655	1148.766
177.096	16.640	1499.246	1147.114
178.110	16.518	1497.736	1145.030
179.125	16.570	1496.821	1144.585
180.140	16.660	1495.124	1143.794
181.154	16.608	1494.801	1143.093
182.169	16.607	1493.688	1142.133
183.183	16.749	1492.277	1141.911
184.198	16.812	1491.243	1141.444
185.213	16.812	1490.124	1140.484
186.227	16.795	1489.264	1139.610
187.242	16.870	1488.266	1139.251
188.256	16.845	1487.503	1138.397
189.271	16.873	1486.288	1137.556
190.286	16.959	1485.348	1137.315
191.300	16.962	1483.981	1136.187
192.315	16.739	1482.495	1133.452
193.329	16.637	1480.723	1131.320
194.344	16.511	1479.992	1129.820
195.359	16.561	1479.225	1129.469
196.373	16.635	1478.511	1129.313
197.388	16.802	1477.596	1129.627
198.402	16.831	1476.522	1128.901
199.417	16.988	1475.162	1128.803
200.432	16.975	1474.969	1128.473
201.446	17.094	1473.975	1128.400
202.461	17.094	1472.759	1127.372
203.475	17.216	1471.422	1127.057
204.490	17.139	1470.507	1125.749
205.504	17.149	1469.462	1124.912
206.519	17.030	1467.930	1122.856
207.534	17.027	1466.891	1121.938
208.548	16.986	1465.506	1120.512
209.563	17.016	1464.447	1119.797
210.577	16.965	1464.231	1119.200
211.592	17.069	1462.526	1118.480
212.607	17.141	1462.163	1118.580
213.621	17.247	1461.540	1118.706
214.636	17.248	1460.793	1118.037
215.650	17.172	1459.663	1116.572
216.665	17.237	1458.760	1116.214
217.680	17.220	1457.900	1115.344
218.694	17.323	1456.865	1115.130
219.709	17.416	1456.026	1115.000
220.723	17.443	1455.010	1114.300
221.738	17.292	1454.714	1112.982
222.753	17.303	1453.705	1112.183
223.767	17.398	1452.801	1112.017
224.782	17.294	1451.780	1110.456
225.796	17.458	1450.608	1110.531
226.811	17.460	1450.545	1110.399
227.826	17.542	1449.130	1109.756
228.840	17.413	1448.241	1108.133
229.855	17.369	1447.051	1106.838
230.869	17.371	1446.303	1106.183
231.884	17.376	1445.147	1105.231
232.899	17.385	1444.116	1104.405
233.913	17.300	1442.678	1102.659
234.928	17.242	1441.723	1101.451
235.942	17.311	1440.379	1100.772
236.957	17.237	1439.272	1099.351
237.972	17.184	1438.057	1097.982
238.986	17.181	1437.164	1097.188
240.001	17.210	1436.091	1096.460
241.015	17.242	1435.451	1096.079
242.030	17.279	1433.914	1095.048
243.045	17.293	1433.076	1094.399
244.059	17.450	1432.088	1094.555
245.074	17.457	1431.552	1094.096
246.088	17.467	1430.474	1093.240
247.103	17.526	1429.838	1093.032
248.117	17.608	1429.255	1093.021
249.132	17.596	1428.530	1092.288
250.147	17.695	1427.968	1092.401
251.161	17.742	1427.118	1091.956
252.176	17.980	1426.576	1092.965
253.190	17.975	1425.859	1092.287
254.205	17.991	1425.077	1091.690
255.220	18.060	1424.108	1091.297
256.234	18.103	1423.295	1090.849
257.249	18.179	1422.331	1090.497
258.263	18.080	1421.561	1089.181
259.278	17.990	1420.395	1087.615
260.293	18.107	1419.425	1087.525
261.307	18.053	1418.940	1086.714
262.322	18.163	1418.313	1086.838
263.336	18.130	1417.631	1086.009
264.351	18.132	1416.713	1085.220
265.366	18.067	1415.741	1083.966
266.380	18.233	1414.303	1083.825
267.395	18.222	1413.528	1083.060
268.409	18.212	1412.884	1082.410
269.424	18.064	1412.229	1080.879
270.439	18.122	1410.800	1080.054
271.453	18.161	1409.454	1079.171
272.468	18.051	1408.417	1077.594
273.482	18.049	1408.109	1077.247
274.497	18.034	1406.818	1076.070
275.512	18.097	1406.056	1075.789
276.526	18.110	1405.189	1075.111
277.541	18.164	1404.101	1074.520
278.555	18.153	1403.765	1074.103
279.570	18.146	1402.141	1072.721
280.585	18.150	1401.826	1072.407
281.599	18.211	1401.613	1072.531
282.614	18.298	1400.424	1072.072
283.628	18.337	1399.175	1071.267
284.643	18.161	1398.087	1069.236
285.657	18.249	1396.625	1068.575
286.672	18.278	1395.886	1068.095
287.687	18.285	1394.797	1067.210
288.701	18.269	1393.933	1066.357
289.716	18.228	1393.198	1065.449
290.730	18.274	1392.514	1065.117
291.745	18.264	1391.322	1064.046
292.760	18.363	1390.294	1063.781
293.774	18.390	1389.290	1063.088
294.789	18.384	1388.208	1062.125
295.803	18.353	1388.237	1061.861
296.818	18.483	1386.815	1061.489
297.833	18.485	1385.511	1060.405
298.847	18.350	1384.674	1058.835
299.862	18.355	1383.770	1058.084
300.876	18.396	1383.073	1057.708
301.891	18.447	1382.290	1057.334
302.906	18.493	1381.466	1056.893
303.920	18.460	1380.932	1056.188
304.935	18.669	1379.793	1056.510
305.949	18.557	1378.815	1054.976
306.964	18.683	1378.320	1055.281
307.979	18.804	1377.646	1055.414
308.993	18.667	1376.945	1053.941
310.008	18.721	1375.402	1053.000
311.022	18.693	1374.240	1051.843
312.037	18.771	1373.414	1051.600
313.052	18.843	1371.947	1050.823
314.066	18.695	1371.426	1049.426
315.081	18.727	1370.278	1048.652
316.095	18.600	1369.353	1047.075
317.110	18.436	1368.443	1045.282
318.125	18.617	1367.116	1045.282
319.139	18.516	1366.176	1043.856
320.154	18.514	1365.387	1043.150
321.168	18.584	1364.071	1042.474
322.183	18.576	1363.198	1041.667
323.197	18.570	1362.531	1041.028
324.212	18.725	1361.503	1041.094
325.227	18.633	1361.220	1040.226
326.241	18.724	1359.664	1039.492
327.256	18.746	1358.960	1039.001
328.270	18.772	1357.774	1038.157
329.285	18.745	1357.308	1037.545
330.300	18.692	1356.278	1036.349
331.314	18.707	1355.462	1035.718
332.329	18.707	1354.553	1034.939
333.343	18.696	1353.590	1034.042
334.358	18.736	1352.637	1033.465
335.373	18.793	1351.927	1033.175
336.387	18.894	1351.302	1033.210
337.402	18.860	1350.597	1032.374
338.416	18.848	1350.189	1031.899
339.431	18.950	1349.416	1031.827
340.446	19.026	1348.633	1031.597
341.460	19.038	1347.728	1030.884
342.475	19.055	1346.503	1029.959
343.489	19.206	1345.463	1029.975
344.504	19.263	1344.517	1029.502
345.519	19.173	1343.966	1028.451
346.533	19.233	1343.374	1028.261
347.548	19.248	1342.132	1027.313
348.562	19.359	1341.258	1027.213
349.577	19.274	1340.610	1026.118
350.592	19.297	1339.838	1025.573
351.606	19.266	1338.614	1024.363
352.621	19.166	1337.420	1022.763
353.635	19.085	1336.239	1021.289
354.650	19.075	1335.459	1020.542
355.665	19.116	1334.650	1020.078
356.679	19.162	1333.629	1019.478
357.694	19.142	1332.473	1018.390
358.708	19.106	1331.889	1017.637
359.723	19.212	1330.716	1017.276
360.738	19.258	1329.527	1016.551
361.752	19.332	1328.026	1015.746
362.767	19.316	1327.393	1015.080
363.781	19.291	1326.970	1014.520
364.796	19.254	1325.953	1013.434
365.810	19.283	1324.951	1012.752
366.825	19.369	1324.528	1012.845
367.840	19.514	1323.518	1012.831
368.854	19.508	1323.267	1012.513
369.869	19.562	1322.724	1012.326
370.883	19.623	1322.443	1012.382
371.898	19.642	1321.240	1011.479
372.913	19.596	1320.058	1010.216
373.927	19.481	1319.684	1009.168
374.942	19.522	1318.341	1008.290
375.956	19.681	1317.743	1008.674
376.971	19.681	1316.823	1007.882
377.986	19.639	1316.299	1007.145
379.000	19.622	1315.689	1006.492
380.015	19.623	1314.899	1005.802
381.029	19.732	1313.903	1005.583
382.044	19.827	1313.234	1005.535
383.059	19.644	1313.148	1004.318
384.073	19.738	1312.009	1003.907
385.088	19.794	1311.738	1003.932
386.102	19.829	1311.142	1003.589
387.117	19.889	1309.994	1002.968
388.132	19.893	1309.054	1002.183
389.146	19.724	1308.152	1000.431
390.161	19.741	1307.296	999.784
391.175	19.784	1306.281	999.167
392.190	19.784	1305.028	998.122
393.205	19.728	1304.870	997.590
394.219	19.877	1303.467	997.286
395.234	19.973	1302.123	996.722
396.248	19.851	1301.365	995.352
397.263	19.831	1300.154	994.222
398.278	19.781	1298.604	992.662
399.292	19.883	1297.347	992.198
400.307	19.726	1296.381	990.471
401.321	19.674	1295.646	989.527
402.336	19.687	1294.321	988.502
403.350	19.735	1293.583	988.122
404.365	19.643	1292.442	986.637
405.380	19.648	1291.785	986.080
406.394	19.692	1290.784	985.481
407.409	19.774	1290.138	985.367
408.423	19.950	1289.666	985.918
409.438	19.990	1289.138	985.655
410.453	20.015	1288.283	985.057
411.467	20.158	1287.410	985.119
412.482	20.219	1286.817	984.920
413.496	20.187	1286.605	984.490
414.511	20.122	1285.769	983.393
415.526	20.192	1285.036	983.146
416.540	20.328	1284.146	983.149
417.555	20.278	1283.295	982.126
418.569	20.342	1282.801	982.021
419.584	20.404	1282.152	981.788
420.599	20.267	1281.807	980.666
421.613	139.171	1428.980	1780.282
422.628	134.189	1450.393	1780.401
