DTS Sentinel unit serial number:	SN413079Multiplexer serial number:	ORYXHardware model number:	OX4-SRSoftware version number:	ORYX F/W v4.00 Oryx Data Collector v3.7.2.0data status	okinstallation	princeton_trtdifferential loss correction	single-endedforward channel	channel 4reverse channel	N/Adate	2019/09/11time	13:31:11forward acquisition time	60.00reverse acquisition time	0.00gamma	496.2192k internal	0.2283k external	0.2283temperature offset calibration	1.0003default loss term (dB/km)	0.3790temperature slope calibration	1.0000multiplexer offset coefficient	1.0000multiplexer slope coefficient	1.0000fibre end	0.00T internal ref (°C)	41.97T ext. ref 1 (°C)	0.81T ext. ref 2 (°C)	37.58length (m)	temperature (°C)	Stokes	anti-Stokes-747.200	761.239	-0.164	-0.457
-746.185	28.751	-0.170	0.148
-745.171	-89.418	0.233	0.070
-744.156	-200.000	0.017	0.439
-743.142	-148.027	0.275	0.023
-742.127	-176.786	-0.198	0.005
-741.112	-8.379	-0.241	0.167
-740.098	-100.814	-0.333	0.084
-739.083	379.619	-0.090	-0.189
-738.069	208.367	0.050	0.081
-737.054	-59.550	0.080	0.035
-736.039	53.110	-0.123	-0.121
-735.025	91.414	0.138	-0.159
-734.010	-118.499	0.239	0.043
-732.996	-21.277	0.152	-0.096
-731.981	85.790	-0.223	0.252
-730.966	263.478	-0.144	0.258
-729.952	-39.363	-0.049	-0.026
-728.937	516.879	-0.072	-0.173
-727.923	-31.199	0.255	-0.148
-726.908	-57.784	0.208	-0.094
-725.894	-200.000	-0.025	0.135
-724.879	106.035	-0.034	0.042
-723.864	-71.653	0.130	-0.050
-722.850	-182.609	-0.107	0.002
-721.835	-5.307	0.159	-0.112
-720.821	-18.266	0.044	-0.028
-719.806	-95.874	0.231	0.063
-718.791	-68.447	-0.236	0.094
-717.777	-50.169	0.165	0.080
-716.762	-26.626	0.153	-0.092
-715.748	-15.966	-0.224	-0.146
-714.733	-75.634	-0.292	-0.106
-713.718	21.715	0.068	-0.057
-712.704	-51.068	0.114	0.055
-711.689	286.006	0.099	-0.183
-710.675	-200.000	-0.007	-0.061
-709.660	-29.588	0.171	0.100
-708.645	53.620	0.137	0.135
-707.631	-14.148	0.114	-0.075
-706.616	32.939	-0.229	-0.203
-705.602	-137.460	0.220	0.025
-704.587	-200.000	0.022	0.440
-703.572	-117.142	-0.029	-0.006
-702.558	216.273	0.099	-0.161
-701.543	-200.000	-0.039	0.210
-700.529	208.651	-0.076	0.122
-699.514	631.428	0.070	-0.183
-698.499	-200.000	0.011	-0.388
-697.485	-76.957	0.242	0.087
-696.470	74.452	0.281	-0.303
-695.456	-200.000	0.002	0.066
-694.441	369.926	0.118	-0.244
-693.426	-112.124	-0.132	0.027
-692.412	362.243	0.114	-0.234
-691.397	307.922	-0.081	-0.154
-690.383	-70.075	0.066	-0.026
-689.368	-200.000	0.030	0.150
-688.354	800.000	0.067	-0.222
-687.339	45.015	0.044	0.041
-686.324	-29.049	-0.055	0.032
-685.310	520.304	-0.061	0.146
-684.295	-26.212	-0.250	0.151
-683.281	35.179	-0.187	0.168
-682.266	12.965	0.099	0.078
-681.251	-42.571	-0.230	-0.120
-680.237	-200.000	-0.003	-0.062
-679.222	56.492	-0.075	-0.074
-678.208	-146.935	-0.095	-0.008
-677.193	72.300	-0.261	-0.279
-676.178	52.682	-0.121	0.118
-675.164	-200.000	0.010	-0.160
-674.149	-118.942	0.257	0.046
-673.135	-172.091	0.438	0.015
-672.120	-122.205	0.299	0.050
-671.105	-200.000	-0.050	0.265
-670.091	3.451	0.106	-0.079
-669.076	-112.797	-0.103	0.021
-668.062	-5.860	-0.129	0.091
-667.047	-200.000	0.062	-0.332
-666.032	-136.968	0.267	-0.031
-665.018	-200.000	-0.005	-0.212
-664.003	56.690	-0.248	-0.247
-662.989	664.755	0.102	-0.270
-661.974	446.491	0.098	-0.221
-660.959	-31.743	-0.122	0.070
-659.945	-41.275	0.327	0.173
-658.930	-86.805	0.308	-0.096
-657.916	-9.150	0.090	0.062
-656.901	-200.000	0.057	0.388
-655.886	-200.000	-0.021	0.318
-654.872	202.877	0.085	-0.134
-653.857	70.263	0.226	-0.239
-652.843	154.610	0.134	0.188
-651.828	308.186	0.097	0.186
-650.814	145.737	-0.048	0.066
-649.799	800.000	-0.062	-0.215
-648.784	-132.564	0.105	0.014
-647.770	-200.000	-0.015	-0.069
-646.755	-82.071	-0.275	-0.092
-645.741	7.435	-0.117	0.090
-644.726	-21.067	-0.067	0.042
-643.711	-133.593	0.158	-0.020
-642.697	184.679	0.128	-0.194
-641.682	-23.685	-0.066	-0.041
-640.668	310.223	-0.104	-0.200
-639.653	-65.207	-0.066	0.027
-638.638	89.527	0.175	0.199
-637.624	-111.830	0.240	0.050
-636.609	-200.000	0.022	0.124
-635.595	-74.984	-0.219	0.080
-634.580	1.839	-0.138	-0.102
-633.565	-200.000	-0.022	-0.146
-632.551	-36.626	0.088	0.048
-631.536	-62.440	-0.098	-0.042
-630.522	-5.005	0.093	-0.065
-629.507	-122.755	0.248	0.041
-628.492	-16.802	0.122	0.079
-627.478	227.146	-0.017	-0.029
-626.463	100.185	-0.226	0.268
-625.449	800.000	0.076	0.273
-624.434	-20.838	0.162	0.102
-623.419	62.931	0.024	-0.025
-622.405	165.566	-0.196	-0.284
-621.390	-168.506	-0.245	-0.010
-620.376	109.081	-0.224	-0.274
-619.361	31.233	0.082	-0.072
-618.346	-200.000	-0.015	-0.361
-617.332	48.514	-0.031	0.030
-616.317	-82.316	0.135	-0.045
-615.303	243.476	-0.106	0.182
-614.288	-153.416	-0.248	0.018
-613.273	-61.898	0.236	0.101
-612.259	-180.167	0.317	-0.007
-611.244	-36.617	0.121	-0.067
-610.230	-34.723	-0.369	-0.206
-609.215	90.451	-0.091	-0.104
-608.201	-200.000	0.002	-0.203
-607.186	800.000	-0.065	-0.232
-606.171	-195.329	0.095	0.001
-605.157	-200.000	-0.058	-0.360
-604.142	800.000	0.046	0.205
-603.128	-17.372	0.233	0.150
-602.113	-200.000	-0.018	-0.296
-601.098	-135.903	0.113	-0.014
-600.084	35.746	-0.183	0.164
-599.069	9.075	-0.142	-0.110
-598.055	205.405	0.127	0.201
-597.040	207.331	0.106	0.169
-596.025	-43.122	-0.166	-0.086
-595.011	15.483	-0.325	0.261
-593.996	-43.079	0.139	0.072
-592.982	-80.699	0.193	0.066
-591.967	-74.520	-0.310	-0.114
-590.952	38.314	-0.205	-0.187
-589.938	-200.000	0.048	-0.348
-588.923	-64.298	-0.618	-0.257
-587.909	-129.831	0.194	-0.027
-586.894	135.373	-0.259	-0.344
-585.879	-200.000	-0.013	0.072
-584.865	-59.659	-0.088	-0.038
-583.850	72.377	0.239	0.255
-582.836	45.560	-0.302	0.284
-581.821	190.894	-0.279	-0.428
-580.806	-57.197	0.328	-0.148
-579.792	264.273	0.212	-0.377
-578.777	-200.000	0.005	0.230
-577.763	-158.466	0.131	-0.008
-576.748	-125.208	-0.115	-0.018
-575.733	-200.000	-0.092	0.411
-574.719	285.288	-0.142	0.262
-573.704	690.513	0.048	0.129
-572.690	-82.755	0.384	-0.127
-571.675	-122.442	-0.150	-0.025
-570.661	-50.691	0.189	-0.091
-569.646	-200.000	-0.047	0.371
-568.631	-200.000	0.023	0.133
-567.617	-151.116	-0.128	-0.010
-566.602	-20.723	-0.157	-0.098
-565.588	45.891	-0.208	0.197
-564.573	317.870	-0.050	-0.097
-563.558	-200.000	0.006	0.090
-562.544	-17.356	0.243	-0.156
-561.529	66.912	-0.103	0.107
-560.515	-62.481	-0.119	-0.051
-559.500	800.000	-0.058	-0.171
-558.485	-168.595	-0.384	-0.015
-557.471	55.540	-0.264	0.261
-556.456	557.909	0.096	0.237
-555.442	-31.454	-0.226	0.129
-554.427	-88.704	0.105	0.032
-553.412	800.000	0.043	-0.190
-552.398	-200.000	0.040	-0.217
-551.383	46.007	0.133	0.126
-550.369	427.798	-0.084	0.186
-549.354	-186.024	0.285	0.004
-548.339	800.000	0.046	0.146
-547.325	-15.936	0.210	0.136
-546.310	81.601	0.277	0.306
-545.296	-153.055	-0.275	0.020
-544.281	-13.189	0.042	0.028
-543.266	44.162	0.190	-0.178
-542.252	9.711	-0.171	-0.132
-541.237	-200.000	0.020	-0.142
-540.223	-3.189	0.134	-0.095
-539.208	-200.000	0.033	-0.201
-538.193	-200.000	-0.080	0.381
-537.179	178.207	-0.027	0.040
-536.164	40.038	-0.093	0.085
-535.150	800.000	0.023	-0.085
-534.135	-106.227	0.135	0.031
-533.121	370.064	0.047	-0.098
-532.106	-200.000	0.027	-0.185
-531.091	20.321	-0.112	-0.092
-530.077	-88.038	-0.214	-0.066
-529.062	337.080	-0.172	-0.341
-528.048	69.126	-0.072	0.076
-527.033	-200.000	0.070	0.349
-526.018	-81.158	-0.220	0.074
-525.004	47.361	0.170	0.162
-523.989	76.412	0.041	-0.044
-522.975	27.319	0.060	0.051
-521.960	141.363	-0.195	-0.263
-520.945	239.679	0.106	-0.181
-519.931	-153.103	-0.275	-0.020
-518.916	112.916	0.169	-0.208
-517.902	-200.000	-0.041	0.288
-516.887	-200.000	-0.013	-0.175
-515.872	130.681	0.171	0.223
-514.858	798.129	0.060	0.169
-513.843	-67.192	-0.336	-0.135
-512.829	-102.816	-0.155	-0.038
-511.814	-101.327	-0.082	0.020
-510.799	-121.473	0.337	0.057
-509.785	92.470	0.187	-0.215
-508.770	114.815	0.126	0.157
-507.756	-200.000	0.067	0.302
-506.741	298.385	-0.069	0.130
-505.726	-29.522	0.154	-0.090
-504.712	195.900	0.046	0.071
-503.697	149.098	0.184	0.253
-502.683	164.340	0.145	0.208
-501.668	-65.969	-0.179	0.073
-500.653	190.983	-0.185	0.283
-499.639	-200.000	-0.052	-0.512
-498.624	473.681	-0.189	-0.434
-497.610	494.123	0.029	-0.068
-496.595	-136.447	-0.213	-0.025
-495.581	159.087	0.140	-0.199
-494.566	213.403	-0.131	0.210
-493.551	299.408	0.083	0.156
-492.537	12.319	-0.152	0.119
-491.522	800.000	0.041	0.171
-490.508	26.909	-0.124	0.106
-489.493	-50.396	0.287	0.138
-488.478	800.000	0.099	-0.352
-487.464	126.981	-0.321	-0.414
-486.449	205.190	-0.119	0.187
-485.435	-200.000	-0.006	-0.098
-484.420	800.000	0.034	0.151
-483.405	-200.000	0.094	-0.427
-482.391	800.000	0.076	-0.228
-481.376	-200.000	0.015	0.121
-480.362	589.361	-0.104	-0.261
-479.347	-200.000	-0.007	-0.167
-478.332	-82.529	-0.161	0.053
-477.318	-81.362	0.295	-0.099
-476.303	-200.000	0.014	-0.286
-475.289	-113.869	-0.503	-0.099
-474.274	-200.000	0.024	0.348
-473.259	-200.000	0.017	-0.346
-472.245	-118.391	-0.232	0.042
-471.230	66.943	-0.088	-0.091
-470.216	111.208	-0.091	-0.111
-469.201	800.000	0.102	0.447
-468.186	800.000	-0.067	0.204
-467.172	-23.253	-0.060	-0.037
-466.157	-72.702	-0.521	0.195
-465.143	61.943	-0.093	-0.094
-464.128	-54.015	0.245	0.113
-463.113	-104.646	0.515	0.121
-462.099	473.356	0.090	0.207
-461.084	-0.155	0.197	-0.142
-460.070	-31.510	0.090	-0.051
-459.055	800.000	0.059	0.181
-458.040	21.307	-0.200	0.165
-457.026	-81.989	-0.347	-0.115
-456.011	-119.968	-0.284	0.049
-454.997	133.631	-0.110	-0.145
-453.982	119.194	-0.202	-0.254
-452.968	-200.000	0.025	0.189
-451.953	-21.243	-0.227	-0.141
-450.938	-167.417	0.216	-0.009
-449.924	-200.000	0.008	-0.094
-448.909	-51.213	0.387	0.184
-447.895	229.525	-0.139	0.231
-446.880	-200.000	-0.020	0.135
-445.865	348.049	0.105	0.210
-444.851	188.362	-0.104	0.157
-443.836	-42.914	0.221	0.114
-442.822	-169.384	-0.185	0.007
-441.807	-200.000	-0.003	-0.245
-440.792	800.000	0.123	-0.441
-439.778	-13.285	-0.106	-0.070
-438.763	-163.701	-0.138	0.007
-437.749	800.000	0.062	0.232
-436.734	309.559	0.180	-0.343
-435.719	256.480	0.070	0.122
-434.705	495.661	0.063	0.147
-433.690	-200.000	-0.030	0.187
-432.676	369.515	-0.131	-0.269
-431.661	126.652	0.227	-0.292
-430.646	-15.208	-0.111	0.072
-429.632	300.799	-0.222	0.416
-428.617	-200.000	0.020	-0.377
-427.603	-38.604	0.285	-0.153
-426.588	-136.294	0.291	-0.034
-425.573	-147.638	0.108	-0.009
-424.559	-200.000	0.002	0.125
-423.544	-200.000	0.031	-0.199
-422.530	56.836	0.065	-0.064
-421.515	-200.000	-0.013	0.148
-420.500	-200.000	0.011	0.091
-419.486	-200.000	0.005	0.023
-418.471	-37.947	0.132	-0.071
-417.457	-200.000	0.008	-0.202
-416.442	-54.335	0.152	0.070
-415.428	-200.000	-0.047	0.239
-414.413	-58.531	-0.138	0.061
-413.398	69.511	-0.168	-0.175
-412.384	-54.576	-0.268	0.123
-411.369	-18.075	0.107	0.068
-410.355	281.358	-0.131	0.238
-409.340	-65.871	0.054	-0.022
-408.325	-200.000	0.014	0.244
-407.311	-40.139	0.129	-0.068
-406.296	-188.618	0.219	0.003
-405.282	365.618	0.190	0.388
-404.267	300.566	0.044	0.083
-403.252	-200.000	-0.046	0.242
-402.238	-91.529	0.189	0.055
-401.223	152.200	-0.128	-0.178
-400.209	22.513	-0.405	0.335
-399.194	46.762	-0.338	-0.318
-398.179	-200.000	0.023	-0.159
-397.165	-94.999	-0.061	-0.017
-396.150	800.000	-0.005	0.014
-395.136	-146.271	-0.320	0.028
-394.121	-9.233	-0.285	0.193
-393.106	113.865	-0.116	-0.143
-392.092	132.153	-0.262	0.342
-391.077	-58.039	-0.112	0.049
-390.063	256.969	-0.211	0.368
-389.048	-200.000	-0.024	0.237
-388.033	800.000	-0.081	0.360
-387.019	88.937	-0.164	0.185
-386.004	-76.827	0.231	0.082
-384.990	391.152	0.138	-0.291
-383.975	-83.447	-0.253	0.082
-382.960	-200.000	0.008	0.243
-381.946	-200.000	-0.009	-0.065
-380.931	-117.344	0.150	-0.028
-379.917	-66.510	0.284	-0.114
-378.902	-81.225	-0.155	-0.052
-377.888	-113.311	-0.090	0.018
-376.873	185.619	0.126	0.189
-375.858	-200.000	0.005	0.123
-374.844	800.000	-0.049	-0.187
-373.829	-200.000	-0.198	-0.000
-372.815	-76.842	-0.132	0.047
-371.800	800.000	0.014	0.051
-370.785	35.257	-0.161	0.143
-369.771	-10.396	0.271	-0.182
-368.756	-21.962	0.071	-0.044
-367.742	-200.000	-0.060	-0.300
-366.727	686.222	-0.056	-0.148
-365.712	-96.310	0.215	0.058
-364.698	177.966	-0.142	0.209
-363.683	-200.000	-0.047	0.351
-362.669	-106.660	0.325	-0.073
-361.654	-115.942	0.303	0.057
-360.639	-49.963	0.220	-0.106
-359.625	-200.000	0.059	0.424
-358.610	127.555	-0.198	0.254
-357.596	-200.000	-0.044	0.406
-356.581	-49.331	0.265	0.128
-355.566	292.568	0.080	-0.147
-354.552	67.366	-0.132	0.136
-353.537	-200.000	-0.011	-0.123
-352.523	-200.000	0.043	-0.248
-351.508	-160.700	-0.324	0.017
-350.493	-39.915	0.114	0.060
-349.479	213.384	0.082	0.131
-348.464	68.537	0.209	-0.217
-347.450	239.494	-0.150	0.253
-346.435	151.592	-0.038	0.052
-345.420	478.761	-0.039	0.089
-344.406	38.707	0.123	0.111
-343.391	-32.935	0.211	0.118
-342.377	130.960	0.079	-0.103
-341.362	565.590	0.137	-0.335
-340.348	-39.106	0.154	-0.082
-339.333	-103.233	0.216	0.052
-338.318	4.769	-0.119	0.089
-337.304	111.558	0.111	-0.136
-336.289	-200.000	-0.051	0.283
-335.275	106.262	0.111	0.133
-334.260	212.878	0.105	0.167
-333.245	-200.000	-0.023	0.170
-332.231	-161.646	-0.141	-0.007
-331.216	-200.000	0.070	0.446
-330.202	800.000	0.081	-0.294
-329.187	88.124	-0.161	0.180
-328.172	-200.000	0.030	-0.193
-327.158	-3.431	-0.029	-0.020
-326.143	80.166	0.159	-0.173
-325.129	631.582	0.077	0.198
-324.114	-22.286	0.309	0.190
-323.099	126.879	0.131	-0.168
-322.085	-112.917	0.090	-0.018
-321.070	-65.994	-0.286	-0.115
-320.056	248.102	0.125	0.213
-319.041	6.564	-0.264	-0.198
-318.026	12.147	0.193	-0.150
-317.012	-142.459	0.201	-0.020
-315.997	-200.000	-0.012	0.183
-314.983	-10.646	0.107	-0.072
-313.968	-96.618	-0.186	0.049
-312.953	800.000	-0.064	0.207
-311.939	140.911	-0.077	-0.103
-310.924	800.000	-0.061	-0.270
-309.910	14.564	0.130	0.103
-308.895	294.972	-0.046	-0.085
-307.880	190.943	-0.118	-0.180
-306.866	800.000	0.077	0.274
-305.851	131.358	0.118	-0.153
-304.837	-200.000	0.018	0.134
-303.822	-200.000	0.008	-0.093
-302.807	-163.970	0.241	-0.011
-301.793	-86.279	-0.083	-0.026
-300.778	28.662	0.101	-0.086
-299.764	-21.444	-0.277	-0.171
-298.749	-200.000	0.182	0.000
-297.735	-33.747	0.211	0.117
-296.720	37.974	-0.091	0.082
-295.705	108.813	-0.131	0.158
-294.691	-200.000	-0.002	0.143
-293.676	32.116	-0.022	-0.020
-292.662	579.784	0.180	-0.444
-291.647	594.236	-0.173	-0.432
-290.632	306.812	-0.174	-0.328
-289.618	7.769	0.205	-0.155
-288.603	-141.924	0.192	-0.019
-287.589	66.683	0.180	0.184
-286.574	-200.000	-0.020	0.127
-285.559	-64.029	-0.406	-0.167
-284.545	800.000	-0.087	-0.359
-283.530	-141.471	0.074	0.008
-282.516	156.197	-0.106	0.147
-281.501	10.068	0.218	0.167
-280.486	-200.000	0.003	-0.439
-279.472	-117.029	0.046	-0.008
-278.457	-61.612	-0.040	-0.017
-277.443	-65.848	0.439	-0.177
-276.428	5.448	-0.106	0.079
-275.413	-200.000	0.017	0.191
-274.399	376.801	-0.137	-0.283
-273.384	-114.631	0.159	-0.031
-272.370	-34.916	0.317	0.175
-271.355	-200.000	-0.018	-0.137
-270.340	-37.966	-0.156	-0.084
-269.326	-200.000	-0.006	-0.075
-268.311	553.985	-0.158	-0.384
-267.297	-155.315	0.064	-0.004
-266.282	85.533	0.100	-0.111
-265.267	-200.000	0.082	0.413
-264.253	377.240	-0.105	0.216
-263.238	79.313	-0.116	-0.125
-262.224	-77.275	-0.105	-0.037
-261.209	800.000	-0.089	0.284
-260.195	-200.000	-0.007	0.136
-259.180	440.621	0.205	-0.452
-258.165	-28.816	0.129	-0.075
-257.151	5.498	0.237	-0.177
-256.136	-200.000	-0.043	0.225
-255.122	-111.185	-0.098	-0.020
-254.107	-34.441	0.094	0.052
-253.092	434.643	0.135	0.295
-252.078	105.156	0.135	-0.161
-251.063	-123.250	-0.303	-0.049
-250.049	-100.872	-0.211	-0.052
-249.034	-10.710	-0.119	-0.080
-248.019	-24.266	-0.204	0.123
-247.005	-110.638	-0.112	-0.023
-245.990	11.187	0.337	0.260
-244.976	-200.000	-0.038	0.250
-243.961	216.821	-0.099	-0.159
-242.946	-129.777	0.330	0.046
-241.932	105.603	-0.092	-0.110
-240.917	-130.256	0.109	0.015
-239.903	-32.790	0.107	0.060
-238.888	-86.808	-0.243	-0.075
-237.873	800.000	-0.053	0.205
-236.859	-200.000	0.005	-0.332
-235.844	107.342	-0.084	-0.101
-234.830	80.713	-0.013	-0.014
-233.815	27.391	-0.091	0.077
-232.800	96.856	0.095	0.109
-231.786	8.082	-0.157	0.118
-230.771	-97.916	-0.103	0.027
-229.757	-200.000	0.060	0.298
-228.742	-200.000	0.042	0.241
-227.727	345.499	-0.133	-0.263
-226.713	-19.939	0.218	0.136
-225.698	-139.922	-0.499	0.053
-224.684	28.465	0.089	0.076
-223.669	-138.097	-0.370	-0.041
-222.655	240.510	0.090	0.152
-221.640	127.353	0.156	0.199
-220.625	-70.491	-0.265	-0.101
-219.611	265.258	-0.203	-0.356
-218.596	78.170	-0.284	-0.305
-217.582	-27.664	0.167	0.097
-216.567	800.000	-0.038	0.126
-215.552	287.414	0.098	0.178
-214.538	237.427	0.111	0.185
-213.523	119.808	0.172	-0.214
-212.509	-82.713	0.321	-0.105
-211.494	-63.823	0.137	0.056
-210.479	-142.844	-0.186	0.018
-209.465	-121.450	0.147	-0.025
-208.450	-17.837	-0.118	-0.074
-207.436	800.000	-0.042	-0.169
-206.421	-16.291	-0.099	0.063
-205.406	-200.000	-0.009	0.080
-204.392	-64.586	-0.110	0.045
-203.377	-62.309	-0.153	-0.064
-202.363	-200.000	0.027	-0.146
-201.348	-200.000	0.008	-0.119
-200.333	800.000	0.038	-0.140
-199.319	-135.501	0.049	-0.006
-198.304	29.479	-0.115	-0.099
-197.290	-11.531	0.127	0.084
-196.275	218.761	0.186	0.299
-195.260	304.676	0.142	-0.266
-194.246	800.000	-0.086	-0.320
-193.231	-62.648	0.220	-0.092
-192.217	-200.000	0.035	-0.167
-191.202	-200.000	-0.001	0.016
-190.187	6.246	0.321	-0.240
-189.173	-26.789	-0.302	-0.177
-188.158	-200.000	0.023	0.110
-187.144	-108.785	-0.217	-0.047
-186.129	800.000	-0.066	0.196
-185.114	-127.115	0.209	0.031
-184.100	-84.245	-0.158	-0.050
-183.085	-120.156	0.387	-0.067
-182.071	-157.056	-0.171	0.011
-181.056	146.563	-0.058	-0.078
-180.042	-64.852	-0.174	-0.071
-179.027	540.246	0.056	-0.134
-178.012	-148.712	0.087	0.007
-176.998	38.701	0.012	-0.010
-175.983	-113.737	0.306	0.060
-174.969	-94.012	0.321	-0.089
-173.954	26.831	0.124	0.105
-172.939	-27.786	-0.167	-0.097
-171.925	-200.000	0.011	-0.140
-170.910	5.358	-0.337	-0.250
-169.896	151.581	0.244	0.334
-168.881	322.891	0.139	0.265
-167.866	35.851	-0.182	-0.160
-166.852	-61.106	0.271	0.115
-165.837	-189.940	0.172	-0.002
-164.823	443.454	0.078	0.172
-163.808	-200.000	-0.021	0.149
-162.793	320.882	-0.069	-0.131
-161.779	147.474	0.080	-0.109
-160.764	184.766	0.026	-0.038
-159.750	-173.688	0.179	-0.005
-158.735	46.658	0.136	0.127
-157.720	800.000	-0.068	0.231
-156.706	6.406	0.068	-0.050
-155.691	-68.788	0.084	-0.033
-154.677	27.839	0.062	-0.052
-153.662	383.396	-0.098	-0.202
-152.647	100.120	0.217	-0.253
-151.633	-87.867	0.364	-0.110
-150.618	800.000	0.100	-0.376
-149.604	69.137	-0.217	0.224
-148.589	94.782	-0.182	-0.208
-147.574	-74.823	-0.116	-0.042
-146.560	563.629	0.070	-0.169
-145.545	1.082	-0.098	-0.070
-144.531	-148.111	0.160	-0.013
-143.516	28.535	-0.128	0.109
-142.502	217.260	0.126	-0.202
-141.487	800.000	0.044	0.133
-140.472	-77.173	-0.225	-0.079
-139.458	512.343	0.087	0.205
-138.443	-28.273	0.482	-0.279
-137.429	-200.000	0.019	0.110
-136.414	-200.000	0.013	-0.072
-135.399	800.000	-0.105	0.326
-134.385	27.140	-0.067	-0.056
-133.370	800.000	-0.079	0.296
-132.356	-23.547	-0.175	0.106
-131.341	-149.833	0.237	0.019
-130.326	481.861	0.168	-0.383
-129.312	21.027	0.271	-0.221
-128.297	-200.000	0.042	0.239
-127.283	393.860	-0.061	-0.128
-126.268	-52.183	-0.214	0.100
-125.253	-200.000	0.041	-0.195
-124.239	-150.521	-0.105	0.008
-123.224	-56.282	-0.049	-0.022
-122.210	-48.009	0.106	-0.052
-121.195	800.000	-0.086	-0.282
-120.180	-90.184	0.138	-0.040
-119.166	-106.507	-0.269	-0.060
-118.151	20.045	-0.139	-0.113
-117.137	-83.408	0.345	0.111
-116.122	-200.000	-0.029	0.200
-115.107	-130.390	0.268	-0.036
-114.093	39.810	0.022	0.020
-113.078	2.854	-0.086	-0.062
-112.064	800.000	-0.073	-0.309
-111.049	22.264	0.305	-0.250
-110.034	-200.000	0.005	0.125
-109.020	-58.310	0.154	0.067
-108.005	-200.000	0.016	0.116
-106.991	-200.000	-0.027	0.134
-105.976	-2.276	-0.169	0.119
-104.962	-200.000	0.086	0.401
-103.947	183.139	0.133	-0.196
-102.932	-35.490	-0.412	0.224
-101.918	637.782	-0.051	-0.130
-100.903	67.664	0.379	0.388
-99.889	-200.000	0.022	-0.124
-98.874	36.525	-0.075	0.067
-97.859	-39.251	0.194	0.102
-96.845	-192.822	0.132	-0.001
-95.830	-200.000	-0.051	0.256
-94.816	642.555	-0.092	0.235
-93.801	491.703	0.109	-0.251
-92.786	-13.544	-0.310	0.201
-91.772	-200.000	0.015	-0.173
-90.757	-168.643	-0.262	-0.010
-89.743	231.415	-0.067	-0.111
-88.728	23.088	0.074	0.060
-87.713	-110.579	0.266	0.055
-86.699	226.708	0.085	0.138
-85.684	-55.489	-0.133	0.060
-84.670	288.645	-0.141	0.255
-83.655	392.833	0.119	0.247
-82.640	-35.244	-0.054	0.030
-81.626	800.000	-0.020	0.072
-80.611	-13.942	0.161	0.104
-79.597	176.449	0.078	-0.114
-78.582	97.667	-0.121	0.139
-77.567	38.764	0.152	-0.136
-76.553	-200.000	-0.014	0.074
-75.538	-17.156	0.252	0.159
-74.524	-200.000	-0.277	0.001
-73.509	46.669	0.288	-0.268
-72.494	305.473	-0.080	-0.149
-71.480	514.715	-0.122	0.284
-70.465	800.000	-0.042	0.149
-69.451	214.857	-0.161	-0.256
-68.436	46.126	-0.224	0.208
-67.422	-64.340	-0.191	0.078
-66.407	-200.000	-0.006	0.270
-65.392	84.564	0.238	0.261
-64.378	-15.079	0.334	0.214
-63.363	472.798	0.024	-0.053
-62.349	-200.000	-0.025	0.173
-61.334	330.514	-0.471	-0.907
-60.319	397.035	0.150	0.313
-59.305	-200.000	-0.158	-0.855
-58.290	59.353	0.617	0.608
-57.276	228.231	1.062	1.730
-56.261	-200.000	75.700	535.025
-55.246	554.018	1308.457	3147.481
-54.232	143.152	2556.814	3402.150
-53.217	110.064	2385.646	2863.828
-52.203	49.193	2125.261	1997.741
-51.188	44.010	2033.077	1863.536
-50.173	42.137	2014.807	1829.636
-49.159	54.400	2052.801	1977.201
-48.144	59.343	2073.143	2042.187
-47.130	44.700	2037.678	1873.808
-46.115	42.002	2025.934	1838.205
-45.100	41.898	2023.185	1834.689
-44.086	41.933	2020.885	1832.848
-43.071	41.829	2018.747	1829.885
-42.057	41.805	2016.183	1827.262
-41.042	41.903	2014.098	1826.199
-40.027	41.853	2012.457	1824.182
-39.013	41.930	2010.091	1822.668
-37.998	41.904	2008.442	1820.860
-36.984	41.812	2006.667	1818.344
-35.969	41.832	2004.717	1816.691
-34.954	42.027	2002.796	1816.645
-33.940	41.928	2001.790	1814.758
-32.925	42.019	1999.874	1813.777
-31.911	42.004	1998.204	1812.053
-30.896	41.994	1996.306	1810.174
-29.881	41.991	1994.909	1808.808
-28.867	42.033	1993.537	1807.865
-27.852	42.070	1991.379	1806.172
-26.838	41.982	1989.602	1803.696
-25.823	41.992	1987.846	1802.128
-24.809	41.995	1986.088	1800.484
-23.794	42.056	1984.113	1799.170
-22.779	42.017	1982.476	1797.269
-21.765	42.040	1980.257	1795.388
-20.750	41.978	1979.170	1793.777
-19.736	41.983	1978.085	1792.763
-18.721	41.962	1976.489	1791.066
-17.706	41.955	1974.977	1789.554
-16.692	42.001	1972.385	1787.549
-15.677	41.928	1971.176	1785.730
-14.663	41.985	1969.260	1784.434
-13.648	41.993	1968.346	1783.609
-12.633	41.979	1967.075	1782.260
-11.619	41.953	1965.696	1780.702
-10.604	41.953	1964.139	1779.227
-9.590	41.934	1963.098	1778.045
-8.575	41.962	1961.608	1776.870
-7.560	41.946	1960.536	1775.689
-6.546	42.012	1958.646	1774.489
-5.531	42.045	1957.484	1773.662
-4.517	41.957	1956.771	1772.163
-3.502	42.004	1955.251	1771.137
-2.487	41.965	1954.152	1769.725
-1.473	41.992	1953.126	1768.965
-0.458	42.100	1948.831	1765.951
0.556	40.971	1930.020	1741.192
1.571	37.139	1909.706	1689.429
2.586	32.962	1931.523	1671.698
3.600	31.553	1969.208	1691.434
4.615	30.584	1966.205	1679.960
5.629	22.782	1857.855	1520.322
6.644	8.804	1723.590	1297.831
7.659	1.529	1677.118	1205.216
8.673	0.978	1673.037	1197.822
9.688	0.837	1671.602	1195.577
10.702	0.798	1670.018	1194.025
11.717	0.647	1667.700	1191.075
12.731	1.067	1666.464	1193.393
13.746	8.960	1686.672	1270.478
14.761	20.163	1711.797	1378.886
15.775	24.295	1718.103	1416.749
16.790	24.435	1717.586	1417.308
17.804	24.493	1717.058	1417.211
18.819	24.572	1716.089	1416.909
19.834	24.594	1715.249	1416.264
20.848	24.789	1714.942	1417.435
21.863	24.793	1713.975	1416.537
22.877	24.790	1712.873	1415.482
23.892	24.750	1711.835	1414.178
24.907	24.827	1710.907	1413.897
25.921	24.846	1710.123	1413.272
26.936	24.820	1708.426	1411.542
27.950	24.738	1708.111	1410.510
28.965	24.739	1707.760	1410.104
29.980	24.839	1706.316	1409.571
30.994	24.787	1705.154	1408.081
32.009	24.832	1703.673	1407.089
33.023	24.744	1702.622	1405.406
34.038	24.793	1701.993	1405.148
35.053	24.823	1700.843	1404.307
36.067	24.818	1699.713	1403.205
37.082	24.770	1699.149	1402.247
38.096	24.803	1697.421	1400.949
39.111	24.795	1696.862	1400.304
40.126	24.866	1696.275	1400.254
41.140	24.768	1695.528	1398.748
42.155	24.815	1694.100	1397.809
43.169	24.847	1693.018	1397.046
44.184	24.819	1692.364	1396.165
45.199	24.802	1690.979	1394.761
46.213	24.851	1689.838	1394.079
47.228	24.767	1688.799	1392.443
48.242	24.816	1687.395	1391.545
49.257	24.813	1686.379	1390.558
50.271	24.817	1685.120	1389.429
51.286	24.901	1683.941	1388.991
52.301	24.767	1683.252	1387.258
53.315	24.792	1681.322	1385.734
54.330	24.815	1680.019	1384.717
55.344	24.758	1678.957	1383.281
56.359	24.871	1677.492	1382.826
57.374	24.797	1676.235	1381.091
58.388	24.855	1674.823	1380.260
59.403	24.835	1673.774	1379.115
60.417	24.804	1673.171	1378.259
61.432	24.780	1671.866	1376.873
62.447	24.853	1670.823	1376.453
63.461	24.827	1669.940	1375.407
64.476	24.897	1668.540	1374.672
65.490	24.867	1668.152	1373.995
66.505	24.827	1666.696	1372.370
67.520	24.875	1665.843	1371.913
68.534	24.874	1664.707	1370.852
69.549	24.882	1663.092	1369.461
70.563	24.858	1662.443	1368.619
71.578	24.882	1661.265	1367.713
72.593	24.847	1660.796	1366.942
73.607	24.854	1659.796	1366.052
74.622	24.862	1658.175	1364.651
75.636	24.884	1657.725	1364.331
76.651	24.793	1657.067	1362.973
77.666	24.899	1655.812	1362.629
78.680	24.902	1654.540	1361.488
79.695	24.799	1654.254	1360.345
80.709	24.923	1652.862	1360.026
81.724	24.899	1652.128	1359.118
82.739	24.893	1651.132	1358.132
83.753	24.972	1650.371	1357.983
84.768	24.837	1649.114	1355.809
85.782	24.868	1648.207	1355.179
86.797	24.851	1647.721	1354.527
87.812	24.853	1646.773	1353.647
88.826	24.888	1645.357	1352.623
89.841	24.901	1645.090	1352.385
90.855	24.854	1644.060	1351.066
91.870	24.913	1642.684	1350.254
92.884	24.941	1641.432	1349.317
93.899	24.949	1640.676	1348.640
94.914	24.922	1639.484	1347.336
95.928	24.881	1638.342	1345.968
96.943	24.868	1636.950	1344.614
97.957	24.936	1635.705	1343.975
98.972	24.897	1634.610	1342.666
99.987	24.966	1632.956	1341.710
101.001	24.952	1630.912	1339.803
102.016	24.881	1630.422	1338.750
103.030	24.835	1629.076	1337.187
104.045	24.810	1627.762	1335.802
105.060	24.889	1626.678	1335.384
106.074	24.886	1625.540	1334.311
107.089	24.951	1623.700	1333.161
108.103	24.929	1622.918	1332.243
109.118	24.943	1622.105	1331.558
110.133	24.992	1620.529	1330.510
111.147	25.011	1619.528	1329.711
112.162	24.909	1618.815	1328.250
113.176	25.003	1617.330	1327.617
114.191	24.971	1616.190	1326.325
115.206	24.952	1615.136	1325.197
116.220	25.079	1613.400	1324.597
117.235	24.929	1612.899	1322.958
118.249	24.869	1612.191	1321.823
119.264	24.987	1610.541	1321.224
120.279	24.944	1609.158	1319.656
121.293	24.956	1607.873	1318.568
122.308	24.955	1606.894	1317.641
123.322	24.934	1605.431	1316.172
124.337	24.872	1604.460	1314.805
125.352	25.026	1602.779	1314.441
126.366	24.978	1602.127	1313.440
127.381	25.081	1600.958	1313.115
128.395	25.082	1600.033	1312.250
129.410	25.050	1598.938	1311.004
130.424	25.057	1598.031	1310.195
131.439	25.028	1597.101	1309.102
132.454	25.041	1595.773	1307.992
133.468	25.133	1594.315	1307.354
134.483	25.012	1593.352	1305.566
135.497	25.047	1591.793	1304.432
136.512	24.941	1591.339	1303.174
137.527	24.952	1590.069	1302.097
138.541	25.050	1588.606	1301.492
139.556	25.051	1587.703	1300.645
140.570	25.006	1586.324	1299.074
141.585	25.049	1584.792	1298.018
142.600	25.041	1583.925	1297.133
143.614	24.997	1583.311	1296.198
144.629	25.042	1581.879	1295.235
145.643	25.138	1580.063	1294.327
146.658	25.001	1579.288	1292.593
147.673	24.929	1577.606	1290.577
148.687	25.007	1576.502	1290.126
149.702	24.997	1575.532	1289.142
150.716	24.969	1574.400	1287.902
151.731	24.879	1573.481	1286.392
152.746	24.980	1571.984	1285.780
153.760	25.091	1570.741	1285.441
154.775	25.075	1569.607	1284.288
155.789	24.994	1568.563	1282.735
156.804	25.016	1567.482	1281.896
157.819	25.105	1566.386	1281.526
158.833	25.009	1565.798	1280.241
159.848	25.012	1564.664	1279.224
160.862	25.152	1563.627	1279.263
161.877	25.140	1562.570	1278.199
162.892	25.136	1561.467	1277.153
163.906	25.065	1560.658	1275.875
164.921	25.117	1560.057	1275.641
165.935	25.170	1559.055	1275.084
166.950	25.195	1557.797	1274.120
167.964	25.144	1556.659	1272.718
168.979	25.146	1555.733	1271.858
169.994	25.165	1555.316	1271.545
171.008	25.146	1554.572	1270.691
172.023	25.228	1553.056	1269.913
173.037	25.120	1552.725	1268.766
174.052	25.169	1551.108	1267.684
175.067	25.114	1550.237	1266.471
176.081	25.145	1549.782	1266.205
177.096	25.170	1548.388	1265.130
178.110	25.195	1547.091	1264.135
179.125	25.097	1546.559	1262.895
180.140	25.188	1544.869	1262.044
181.154	25.143	1544.761	1261.526
182.169	25.266	1543.408	1261.176
183.183	25.249	1542.347	1260.078
184.198	25.164	1541.690	1258.833
185.213	25.152	1540.932	1258.021
186.227	25.213	1539.825	1257.432
187.242	25.212	1539.110	1256.732
188.256	25.374	1537.961	1256.813
189.271	25.304	1537.223	1255.612
190.286	25.388	1535.895	1255.001
191.300	25.310	1535.541	1254.054
192.315	25.259	1534.801	1252.983
193.329	25.201	1533.927	1251.755
194.344	25.246	1532.894	1251.119
195.359	25.245	1532.662	1250.812
196.373	25.293	1531.312	1249.928
197.388	25.261	1530.351	1248.815
198.402	25.209	1529.585	1247.713
199.417	25.098	1528.742	1246.149
200.432	25.130	1527.388	1245.154
201.446	25.271	1526.962	1245.675
202.461	25.269	1526.010	1244.779
203.475	25.199	1525.113	1243.445
204.490	25.263	1523.688	1242.620
205.504	25.328	1522.947	1242.353
206.519	25.326	1522.625	1241.969
207.534	25.308	1521.834	1241.088
208.548	25.331	1521.061	1240.507
209.563	25.310	1520.074	1239.446
210.577	25.329	1519.259	1238.802
211.592	25.270	1518.377	1237.572
212.607	25.331	1517.872	1237.469
213.621	25.360	1517.197	1237.008
214.636	25.463	1515.792	1236.464
215.650	25.379	1515.225	1235.314
216.665	25.414	1514.318	1234.702
217.680	25.419	1513.951	1234.329
218.694	25.384	1513.134	1233.316
219.709	25.386	1512.303	1232.543
220.723	25.382	1511.002	1231.348
221.738	25.369	1510.118	1230.426
222.753	25.409	1509.445	1230.046
223.767	25.374	1508.679	1229.071
224.782	25.360	1507.699	1228.070
225.796	25.368	1507.012	1227.452
226.811	25.367	1506.411	1226.847
227.826	25.437	1505.838	1226.751
228.840	25.468	1504.804	1226.013
229.855	25.434	1504.061	1225.067
230.869	25.462	1503.060	1224.331
231.884	25.372	1502.062	1222.798
232.899	25.473	1501.079	1222.580
233.913	25.471	1500.069	1221.635
234.928	25.444	1499.052	1220.513
235.942	25.513	1497.773	1219.835
236.957	25.586	1496.723	1219.366
237.972	25.546	1495.629	1218.095
238.986	25.511	1494.844	1217.114
240.001	25.517	1493.884	1216.261
241.015	25.524	1493.156	1215.610
242.030	25.582	1491.786	1214.779
243.045	25.688	1490.914	1214.679
244.059	25.673	1490.388	1214.042
245.074	25.621	1489.492	1212.849
246.088	25.679	1488.453	1212.287
247.103	25.643	1487.821	1211.421
248.117	25.649	1487.300	1210.933
249.132	25.687	1486.010	1210.034
250.147	25.649	1485.262	1209.063
251.161	25.688	1485.098	1209.084
252.176	25.727	1484.530	1208.773
253.190	25.846	1483.448	1208.583
254.205	25.824	1482.148	1207.270
255.220	25.737	1482.153	1206.584
256.234	25.781	1480.764	1205.645
257.249	25.705	1480.870	1205.114
258.263	25.754	1479.815	1204.474
259.278	25.783	1478.574	1203.549
260.293	25.744	1477.861	1202.605
261.307	25.769	1477.161	1202.099
262.322	25.765	1476.511	1201.432
263.336	25.814	1475.819	1201.093
264.351	25.730	1474.857	1199.640
265.366	25.911	1473.401	1199.557
266.380	25.839	1472.678	1198.383
267.395	25.802	1471.950	1197.437
268.409	25.910	1470.995	1197.274
269.424	25.854	1470.450	1196.352
270.439	25.760	1469.395	1194.765
271.453	25.865	1468.754	1194.831
272.468	25.853	1467.729	1193.813
273.482	25.854	1467.337	1193.398
274.497	25.756	1466.786	1192.194
275.512	25.848	1465.339	1191.523
276.526	25.920	1464.716	1191.382
277.541	25.923	1463.518	1190.324
278.555	25.875	1462.889	1189.392
279.570	25.863	1462.177	1188.628
280.585	26.019	1461.396	1188.917
281.599	25.875	1460.641	1187.250
282.614	25.965	1459.958	1187.177
283.628	25.936	1458.588	1185.768
284.643	25.969	1457.607	1185.085
285.657	26.023	1456.564	1184.486
286.672	25.927	1456.005	1183.295
287.687	25.853	1455.369	1182.192
288.701	25.895	1454.502	1181.658
289.716	26.026	1453.640	1181.710
290.730	26.006	1452.784	1180.780
291.745	25.958	1452.191	1179.875
292.760	25.905	1451.388	1178.777
293.774	26.016	1450.364	1178.563
294.789	26.055	1449.378	1177.913
295.803	26.045	1448.478	1177.014
296.818	26.116	1447.582	1176.639
297.833	26.036	1446.903	1175.466
298.847	26.066	1446.516	1175.242
299.862	26.181	1445.131	1174.759
300.876	26.160	1444.534	1174.036
301.891	26.101	1444.028	1173.136
302.906	26.132	1442.856	1172.281
303.920	26.150	1442.190	1171.754
304.935	26.144	1441.971	1171.430
305.949	26.170	1440.705	1170.473
306.964	26.199	1439.915	1169.913
307.979	26.119	1439.553	1168.999
308.993	26.183	1438.896	1168.774
310.008	26.161	1437.766	1167.609
311.022	26.182	1436.854	1166.902
312.037	26.257	1435.237	1165.968
313.052	26.163	1434.941	1165.021
314.066	26.286	1433.560	1164.586
315.081	26.212	1432.846	1163.428
316.095	26.172	1431.965	1162.353
317.110	26.231	1430.781	1161.668
318.125	26.282	1430.294	1161.497
319.139	26.289	1429.626	1160.896
320.154	26.264	1428.775	1159.945
321.168	26.308	1427.675	1159.228
322.183	26.308	1426.521	1158.188
323.197	26.311	1425.846	1157.558
324.212	26.382	1424.922	1157.161
325.227	26.283	1424.274	1155.901
326.241	26.303	1423.946	1155.656
327.256	26.364	1422.830	1155.041
328.270	26.380	1422.108	1154.451
329.285	26.478	1421.243	1154.275
330.300	26.427	1420.418	1153.175
331.314	26.461	1419.472	1152.525
332.329	26.407	1419.168	1151.829
333.343	26.403	1418.274	1150.976
334.358	26.445	1417.298	1150.350
335.373	26.455	1416.645	1149.785
336.387	26.512	1415.720	1149.291
337.402	26.600	1414.622	1148.860
338.416	26.532	1414.419	1148.158
339.431	26.546	1413.787	1147.633
340.446	26.539	1413.511	1147.261
341.460	26.557	1412.666	1146.593
342.475	26.466	1411.690	1145.121
343.489	26.645	1410.610	1145.274
344.504	26.579	1409.757	1144.068
345.519	26.553	1408.826	1143.044
346.533	26.615	1407.593	1142.335
347.548	26.548	1407.203	1141.496
348.562	26.598	1406.513	1141.150
349.577	26.615	1405.825	1140.597
350.592	26.636	1404.673	1139.692
351.606	26.579	1404.411	1139.019
352.621	26.525	1403.075	1137.494
353.635	26.591	1401.936	1136.885
354.650	26.552	1401.600	1136.272
355.665	26.610	1400.433	1135.586
356.679	26.708	1399.106	1135.025
357.694	26.744	1397.961	1134.222
358.708	26.781	1397.080	1133.637
359.723	26.727	1396.013	1132.334
360.738	26.781	1394.872	1131.641
361.752	26.679	1394.164	1130.335
362.767	26.640	1393.322	1129.305
363.781	26.689	1392.298	1128.684
364.796	26.699	1391.708	1128.165
365.810	26.805	1390.847	1128.025
366.825	26.765	1390.071	1127.048
367.840	26.898	1388.827	1126.768
368.854	26.913	1388.368	1126.388
369.869	26.965	1387.773	1126.127
370.883	26.897	1387.563	1125.440
371.898	26.889	1386.455	1124.391
372.913	26.892	1385.756	1123.741
373.927	26.897	1385.208	1123.226
374.942	26.893	1384.465	1122.501
375.956	26.976	1383.633	1122.240
376.971	26.923	1383.154	1121.428
377.986	26.866	1382.323	1120.300
379.000	26.945	1381.400	1119.943
380.015	26.884	1380.719	1118.915
381.029	26.937	1380.123	1118.659
382.044	26.929	1379.534	1118.035
383.059	26.946	1378.744	1117.401
384.073	26.967	1378.089	1116.900
385.088	27.106	1377.117	1116.868
386.102	26.999	1376.946	1115.973
387.117	27.072	1376.190	1115.708
388.132	27.062	1375.666	1115.124
389.146	27.056	1374.753	1114.244
390.161	27.170	1373.778	1114.056
391.175	27.101	1373.232	1113.095
392.190	27.080	1372.783	1112.501
393.205	27.145	1371.865	1112.058
394.219	27.103	1370.687	1110.751
395.234	27.119	1369.787	1110.015
396.248	27.110	1368.987	1109.216
397.263	27.173	1367.697	1108.458
398.278	27.167	1366.700	1107.516
399.292	27.268	1365.726	1107.244
400.307	27.295	1365.138	1106.833
401.321	27.244	1364.263	1105.712
402.336	27.119	1363.242	1104.028
403.350	27.177	1362.222	1103.459
404.365	27.156	1361.086	1102.311
405.380	27.228	1360.464	1102.149
406.394	27.183	1360.065	1101.453
407.409	27.239	1358.775	1100.652
408.423	27.289	1357.948	1100.185
409.438	27.344	1357.293	1099.892
410.453	27.488	1356.974	1100.403
411.467	27.362	1356.482	1099.149
412.482	27.305	1355.957	1098.281
413.496	27.338	1355.257	1097.818
414.511	27.358	1354.315	1097.074
415.526	27.416	1353.484	1096.652
416.540	27.325	1352.689	1095.366
417.555	27.510	1351.772	1095.638
418.569	27.437	1351.434	1094.831
419.584	27.316	1351.527	1094.082
420.599	27.403	1350.341	1093.544
421.613	76.814	1324.480	1354.056
422.628	77.567	1320.706	1354.198
