DTS Sentinel unit serial number:	SN413079Multiplexer serial number:	ORYXHardware model number:	OX4-SRSoftware version number:	ORYX F/W v4.00 Oryx Data Collector v3.7.2.0data status	okinstallation	princeton_trtdifferential loss correction	single-endedforward channel	channel 4reverse channel	N/Adate	2019/09/19time	02:21:34forward acquisition time	60.00reverse acquisition time	0.00gamma	496.2192k internal	0.2340k external	0.2340temperature offset calibration	1.0027default loss term (dB/km)	0.3790temperature slope calibration	1.0000multiplexer offset coefficient	1.0000multiplexer slope coefficient	1.0000fibre end	0.00T internal ref (°C)	21.06T ext. ref 1 (°C)	0.67T ext. ref 2 (°C)	14.69length (m)	temperature (°C)	Stokes	anti-Stokes-747.200	64.048	0.281	-0.283
-746.185	316.882	0.074	0.140
-745.171	466.423	0.100	0.226
-744.156	663.011	-0.051	0.131
-743.142	86.485	-0.040	0.044
-742.127	-200.000	-0.013	0.318
-741.112	-200.000	-0.008	0.277
-740.098	84.806	-0.267	0.293
-739.083	-200.000	0.026	0.197
-738.069	-50.812	-0.388	-0.183
-737.054	-43.148	-0.167	-0.085
-736.039	110.556	-0.177	0.213
-735.025	42.196	-0.120	0.109
-734.010	1.386	0.065	-0.047
-732.996	-200.000	-0.158	-0.000
-731.981	304.264	0.105	0.195
-730.966	140.159	0.104	-0.137
-729.952	-69.166	0.260	0.100
-728.937	-9.241	-0.078	0.052
-727.923	723.261	-0.111	-0.296
-726.908	62.752	-0.043	-0.043
-725.894	-126.365	0.191	-0.029
-724.879	-154.216	-0.105	0.007
-723.864	-44.397	-0.260	-0.131
-722.850	186.074	0.101	-0.150
-721.835	-122.808	-0.290	0.047
-720.821	-123.199	0.292	0.047
-719.806	-79.301	-0.187	0.063
-718.791	-131.784	-0.392	0.051
-717.777	235.450	-0.110	-0.182
-716.762	-150.878	-0.342	-0.026
-715.748	-51.203	-0.292	0.137
-714.733	444.399	-0.156	0.343
-713.718	-200.000	-0.011	-0.125
-712.704	-66.344	0.147	0.059
-711.689	-33.422	0.072	-0.040
-710.675	258.502	-0.054	-0.093
-709.660	33.882	-0.071	-0.062
-708.645	-22.820	-0.125	0.075
-707.631	25.837	0.156	-0.130
-706.616	-8.118	0.118	-0.080
-705.602	-138.159	-0.099	0.011
-704.587	-135.287	0.091	0.011
-703.572	215.712	0.135	-0.214
-702.558	-200.000	0.009	0.206
-701.543	451.464	-0.117	-0.258
-700.529	-113.188	0.129	-0.026
-699.514	-111.557	0.096	-0.020
-698.499	-110.178	0.114	-0.024
-697.485	41.093	-0.302	0.273
-696.470	-82.961	0.222	-0.072
-695.456	533.520	0.087	-0.207
-694.441	-69.887	-0.265	-0.101
-693.426	-200.000	-0.030	-0.165
-692.412	-200.000	-0.006	-0.039
-691.397	-200.000	-0.034	-0.245
-690.383	-90.624	0.124	0.036
-689.368	-50.210	-0.299	0.141
-688.354	-70.907	0.349	0.132
-687.339	189.325	0.115	0.173
-686.324	-41.256	0.138	-0.071
-685.310	-200.000	-0.025	-0.186
-684.295	31.419	0.035	-0.030
-683.281	-178.106	-0.244	-0.006
-682.266	196.600	-0.175	-0.267
-681.251	23.768	0.445	0.366
-680.237	-200.000	0.002	-0.024
-679.222	-82.094	0.155	-0.051
-678.208	-110.640	-0.384	0.079
-677.193	-30.805	-0.053	0.030
-676.178	75.245	0.289	-0.305
-675.164	116.697	-0.057	0.070
-674.149	-88.012	-0.279	-0.084
-673.135	56.746	-0.214	-0.209
-672.120	434.286	0.056	0.121
-671.105	-171.527	0.438	0.015
-670.091	30.360	0.266	-0.227
-669.076	-99.834	-0.309	0.077
-668.062	7.175	0.247	-0.184
-667.047	-66.488	-0.266	-0.106
-666.032	5.092	0.112	0.083
-665.018	-200.000	-0.005	0.167
-664.003	-18.247	0.265	0.166
-662.989	-52.608	-0.136	0.063
-661.974	800.000	0.034	-0.147
-660.959	197.724	0.094	0.144
-659.945	445.658	-0.033	0.073
-658.930	-200.000	-0.033	-0.376
-657.916	-9.085	0.186	0.124
-656.901	9.327	0.195	-0.148
-655.886	-68.786	-0.606	-0.234
-654.872	-64.753	0.215	-0.087
-653.857	-200.000	0.029	-0.298
-652.843	-200.000	-0.036	-0.255
-651.828	-165.788	-0.324	0.014
-650.814	7.754	0.239	-0.179
-649.799	-117.009	-0.226	-0.041
-648.784	-31.570	-0.270	-0.151
-647.770	265.852	-0.055	0.096
-646.755	-151.441	0.345	-0.026
-645.741	515.165	0.084	-0.196
-644.726	-44.703	0.092	0.046
-643.711	338.770	0.025	0.048
-642.697	-200.000	0.006	0.095
-641.682	-65.766	-0.339	-0.136
-640.668	-107.224	0.209	0.046
-639.653	-200.000	0.019	-0.085
-638.638	-200.000	-0.008	-0.106
-637.624	643.249	-0.058	-0.148
-636.609	-200.000	0.056	0.265
-635.595	-185.942	0.021	-0.000
-634.580	200.916	-0.114	0.175
-633.565	-19.882	-0.192	-0.119
-632.551	40.611	-0.269	-0.242
-631.536	69.526	-0.210	-0.215
-630.522	683.717	-0.078	0.204
-629.507	3.064	-0.463	0.336
-628.492	221.061	0.239	-0.383
-627.478	-6.697	-0.267	0.181
-626.463	-200.000	0.201	0.001
-625.449	-133.279	0.082	0.010
-624.434	-185.919	0.250	-0.004
-623.419	84.943	-0.178	0.194
-622.405	185.695	0.083	0.123
-621.390	-115.872	0.246	0.046
-620.376	59.457	0.132	0.130
-619.361	-6.693	-0.177	-0.120
-618.346	17.797	0.176	0.139
-617.332	-172.314	-0.200	0.006
-616.317	-15.999	0.199	0.126
-615.303	-200.000	0.001	-0.115
-614.288	-200.000	0.007	-0.108
-613.273	-100.299	-0.239	-0.059
-612.259	-127.863	0.166	-0.024
-611.244	-121.156	0.161	0.027
-610.230	-38.718	-0.314	-0.165
-609.215	79.425	-0.093	-0.099
-608.201	93.900	0.037	0.041
-607.186	-14.592	0.138	-0.088
-606.171	-115.039	-0.186	-0.035
-605.157	-200.000	0.000	0.008
-604.142	318.306	-0.028	0.054
-603.128	-12.541	0.194	-0.126
-602.113	256.757	0.100	0.171
-601.098	134.796	0.198	0.256
-600.084	41.004	0.055	-0.049
-599.069	-4.934	-0.108	0.074
-598.055	800.000	-0.082	-0.327
-597.040	53.221	0.338	-0.323
-596.025	-59.652	-0.106	0.046
-595.011	-200.000	0.005	-0.194
-593.996	-126.709	-0.201	-0.030
-592.982	547.017	0.103	0.246
-591.967	110.715	-0.041	0.049
-590.952	356.714	0.154	-0.305
-589.938	322.324	-0.101	-0.192
-588.923	-200.000	0.020	-0.284
-587.909	-200.000	0.015	-0.188
-586.894	627.195	0.037	-0.093
-585.879	-123.390	-0.137	0.022
-584.865	-33.390	-0.125	0.069
-583.850	4.254	-0.172	-0.126
-582.836	-141.938	-0.520	0.052
-581.821	-135.657	-0.110	-0.013
-580.806	-83.466	0.178	-0.057
-579.792	-79.845	0.149	0.050
-578.777	-200.000	0.010	0.061
-577.763	-200.000	-0.061	0.269
-576.748	14.633	-0.091	0.071
-575.733	-200.000	-0.026	-0.167
-574.719	-200.000	0.008	0.069
-573.704	-200.000	-0.003	0.101
-572.690	-200.000	-0.015	-0.179
-571.675	-130.200	0.342	-0.046
-570.661	190.530	-0.089	-0.134
-569.646	-129.800	0.182	-0.025
-568.631	-200.000	0.024	-0.120
-567.617	399.569	0.120	-0.251
-566.602	175.094	0.175	-0.253
-565.588	-62.724	0.309	-0.127
-564.573	-200.000	0.006	-0.219
-563.558	-132.814	-0.053	0.007
-562.544	-77.590	0.220	-0.076
-561.529	82.218	0.295	-0.318
-560.515	324.457	-0.173	-0.328
-559.500	144.339	0.012	-0.016
-558.485	-132.449	0.281	0.036
-557.471	176.343	0.090	-0.130
-556.456	181.348	0.081	-0.119
-555.442	-200.000	-0.011	0.179
-554.427	40.565	0.169	0.151
-553.412	43.748	-0.314	0.286
-552.398	35.266	-0.140	0.122
-551.383	800.000	-0.179	-0.501
-550.369	-200.000	0.041	-0.357
-549.354	-10.520	0.244	0.161
-548.339	572.849	0.079	-0.192
-547.325	48.114	-0.111	0.103
-546.310	8.585	0.143	-0.107
-545.296	399.242	-0.115	-0.240
-544.281	114.871	-0.207	-0.251
-543.266	273.841	-0.036	0.063
-542.252	800.000	-0.059	0.177
-541.237	175.741	0.153	-0.220
-540.223	352.414	-0.047	0.092
-539.208	800.000	-0.045	-0.146
-538.193	-57.636	0.115	-0.050
-537.179	-93.814	0.085	-0.023
-536.164	-152.871	-0.152	-0.011
-535.150	-11.235	-0.133	0.087
-534.135	3.230	-0.135	0.098
-533.121	90.766	0.072	-0.080
-532.106	-200.000	-0.015	0.296
-531.091	-24.189	0.529	0.314
-530.077	-78.361	-0.227	0.077
-529.062	744.677	-0.116	-0.309
-528.048	800.000	-0.116	0.340
-527.033	-111.656	-0.156	0.031
-526.018	-184.209	0.244	-0.004
-525.004	189.165	0.125	-0.186
-523.989	-200.000	0.003	-0.241
-522.975	-119.406	-0.073	0.013
-521.960	43.170	-0.455	0.413
-520.945	26.666	0.085	-0.070
-519.931	-154.786	0.200	0.013
-518.916	375.144	-0.182	-0.369
-517.902	222.415	0.157	-0.251
-516.887	-200.000	0.072	-0.478
-515.872	-143.907	0.103	0.010
-514.858	-126.051	0.310	0.046
-513.843	109.450	0.133	0.158
-512.829	800.000	-0.041	-0.137
-511.814	-108.786	0.141	0.030
-510.799	-112.381	-0.150	0.030
-509.785	169.578	0.107	0.152
-508.770	-200.000	0.020	0.134
-507.756	-125.143	0.250	-0.038
-506.741	59.705	0.088	0.086
-505.726	-76.690	0.275	-0.096
-504.712	349.340	0.021	-0.042
-503.697	-101.621	-0.480	-0.116
-502.683	390.893	0.107	-0.221
-501.668	290.168	-0.054	-0.098
-500.653	-89.958	0.268	-0.078
-499.639	-70.899	0.310	0.116
-498.624	-81.832	-0.203	0.066
-497.610	800.000	-0.041	-0.131
-496.595	-108.223	-0.514	0.110
-495.581	41.298	-0.181	0.162
-494.566	-132.295	-0.150	-0.019
-493.551	12.272	-0.103	-0.079
-492.537	79.089	0.141	0.150
-491.522	-99.285	0.251	0.063
-490.508	-23.306	0.052	-0.031
-489.493	-163.814	-0.198	-0.009
-488.478	-148.795	-0.241	-0.019
-487.464	-200.000	-0.011	-0.070
-486.449	318.912	-0.183	0.344
-485.435	-17.174	0.150	-0.094
-484.420	103.446	-0.126	-0.147
-483.405	-90.850	0.159	0.046
-482.391	-166.563	-0.172	0.007
-481.376	-39.883	0.075	0.039
-480.362	800.000	0.104	-0.305
-479.347	-200.000	-0.012	-0.098
-478.332	-105.420	-0.171	0.039
-477.318	-173.256	-0.235	0.007
-476.303	-200.000	-0.016	-0.150
-475.289	-167.854	0.114	-0.004
-474.274	88.336	0.215	-0.236
-473.259	190.371	-0.093	-0.139
-472.245	-123.132	-0.194	-0.031
-471.230	-46.494	-0.245	0.119
-470.216	664.239	0.141	0.361
-469.201	-99.538	0.394	0.098
-468.186	-200.000	0.061	-0.354
-467.172	-200.000	-0.007	-0.246
-466.157	-174.231	0.324	0.009
-465.143	800.000	0.065	0.190
-464.128	-200.000	-0.052	0.372
-463.113	147.115	0.130	0.174
-462.099	-200.000	0.018	-0.207
-461.084	-200.000	-0.047	0.467
-460.070	32.290	-0.246	0.211
-459.055	-111.280	0.151	0.031
-458.040	-28.809	-0.099	-0.056
-457.026	800.000	0.128	0.406
-456.011	120.475	-0.246	0.303
-454.997	800.000	0.070	-0.202
-453.982	-200.000	-0.010	0.086
-452.968	50.033	-0.141	-0.132
-451.953	449.673	0.067	0.147
-450.938	-200.000	-0.008	-0.116
-449.924	-154.981	-0.318	0.021
-448.909	-71.699	-0.143	0.053
-447.895	-200.000	0.025	-0.152
-446.880	34.406	-0.144	0.125
-445.865	61.661	0.030	0.030
-444.851	-114.364	-0.150	0.029
-443.836	169.209	-0.046	0.066
-442.822	170.163	-0.181	0.257
-441.807	-27.445	0.063	0.036
-440.792	-200.000	0.028	0.205
-439.778	171.958	0.146	0.208
-438.763	208.345	-0.124	-0.192
-437.749	33.988	-0.268	0.232
-436.734	-200.000	0.035	0.337
-435.719	473.930	0.121	0.269
-434.705	383.772	0.169	-0.345
-433.690	46.306	-0.211	-0.193
-432.676	-200.000	0.007	-0.135
-431.661	637.565	0.067	0.169
-430.646	211.364	-0.157	0.244
-429.632	-54.590	0.114	-0.051
-428.617	-159.997	0.014	0.001
-427.603	118.530	-0.241	-0.295
-426.588	-200.000	0.047	0.248
-425.573	120.703	-0.144	-0.178
-424.559	-34.064	0.144	0.078
-423.544	-200.000	0.008	-0.054
-422.530	-49.166	-0.070	-0.033
-421.515	-80.841	-0.128	0.042
-420.500	63.813	-0.155	-0.154
-419.486	227.703	-0.161	0.259
-418.471	98.390	-0.158	0.181
-417.457	-200.000	0.122	-0.000
-416.442	114.885	0.123	-0.148
-415.428	44.582	-0.150	-0.137
-414.413	-97.918	0.132	-0.034
-413.398	-15.231	0.087	-0.055
-412.384	-3.583	-0.255	0.175
-411.369	800.000	-0.013	0.043
-410.355	-158.725	-0.243	-0.014
-409.340	800.000	-0.083	0.229
-408.325	-55.868	-0.077	0.034
-407.311	800.000	-0.152	-0.433
-406.296	800.000	-0.063	0.184
-405.282	-137.511	0.467	-0.052
-404.267	-120.852	-0.114	0.019
-403.252	-200.000	0.076	-0.441
-402.238	-64.980	0.154	0.062
-401.223	-119.437	-0.259	-0.044
-400.209	-5.466	-0.073	-0.050
-399.194	72.869	0.154	0.159
-398.179	-48.662	0.215	0.102
-397.165	-84.762	0.202	0.063
-396.150	-129.260	-0.380	-0.052
-395.136	161.747	0.138	0.191
-394.121	108.569	0.198	0.233
-393.106	800.000	0.068	0.214
-392.092	800.000	-0.121	0.378
-391.077	-65.627	0.221	0.088
-390.063	-85.644	-0.250	-0.077
-389.048	23.875	0.252	-0.206
-388.033	-77.267	-0.271	-0.093
-387.019	-200.000	-0.009	0.104
-386.004	469.864	-0.148	0.328
-384.990	-141.014	-0.372	-0.038
-383.975	-90.154	-0.369	0.106
-382.960	-22.315	0.073	0.044
-381.946	3.593	0.286	0.206
-380.931	-39.010	-0.072	-0.037
-379.917	-46.011	0.155	-0.076
-378.902	355.114	0.089	0.176
-377.888	-131.671	-0.180	-0.023
-376.873	-40.636	-0.253	0.130
-375.858	-200.000	-0.041	0.229
-374.844	-200.000	-0.002	0.349
-373.829	-46.555	0.463	0.224
-372.815	490.200	-0.089	0.200
-371.800	800.000	-0.043	0.119
-370.785	-130.871	0.280	0.037
-369.771	105.586	-0.213	-0.249
-368.756	-30.061	0.398	-0.224
-367.742	-200.000	-0.065	-0.374
-366.727	-200.000	0.036	-0.158
-365.712	-200.000	0.037	0.221
-364.698	-200.000	0.000	-0.044
-363.683	301.861	0.097	0.176
-362.669	-128.712	-0.074	0.010
-361.654	-200.000	0.038	-0.404
-360.639	-139.861	0.312	0.033
-359.625	542.576	-0.069	0.162
-358.610	96.436	0.146	-0.165
-357.596	-94.592	-0.249	-0.067
-356.581	-200.000	0.005	0.492
-355.566	-2.146	-0.224	-0.155
-354.552	297.870	0.209	-0.379
-353.537	230.454	0.271	-0.438
-352.523	7.761	0.193	-0.143
-351.508	-22.585	-0.268	-0.160
-350.493	544.418	-0.194	0.457
-349.479	-29.905	-0.162	0.091
-348.464	-6.964	0.156	0.105
-347.450	0.498	-0.233	-0.164
-346.435	444.418	0.066	-0.144
-345.420	-73.866	-0.183	-0.066
-344.406	-105.400	0.237	0.053
-343.391	251.487	0.217	-0.365
-342.377	-153.578	-0.202	0.014
-341.362	-200.000	-0.022	-0.147
-340.348	-65.817	0.354	0.140
-339.333	150.636	0.075	0.100
-338.318	-43.996	0.013	0.007
-337.304	800.000	-0.045	0.190
-336.289	-44.566	0.416	0.205
-335.275	-166.171	-0.149	-0.006
-334.260	-155.467	0.223	0.014
-333.245	-186.245	0.113	0.002
-332.231	247.589	0.033	0.055
-331.216	395.750	0.075	0.155
-330.202	-115.037	0.096	0.018
-329.187	-78.732	0.211	-0.071
-328.172	31.987	-0.428	-0.363
-327.158	86.207	0.121	0.131
-326.143	-117.625	-0.340	0.060
-325.129	-54.812	0.138	0.061
-324.114	85.480	0.077	-0.083
-323.099	-127.651	0.202	-0.029
-322.085	25.028	0.149	-0.122
-321.070	560.348	-0.143	-0.342
-320.056	177.441	-0.237	0.340
-319.041	14.375	-0.229	-0.176
-318.026	-200.000	-0.056	-0.417
-317.012	191.480	0.212	0.315
-315.997	-122.192	-0.228	-0.037
-314.983	-4.222	-0.075	-0.051
-313.968	-20.602	-0.330	-0.200
-312.953	86.410	-0.098	-0.107
-311.939	60.920	-0.076	0.074
-310.924	184.032	0.228	0.332
-309.910	-41.752	-0.108	-0.055
-308.895	139.352	0.083	0.107
-307.880	-108.740	0.359	0.076
-306.866	147.953	0.140	0.186
-305.851	-200.000	-0.030	-0.242
-304.837	-200.000	-0.014	0.182
-303.822	-200.000	0.008	0.332
-302.807	33.641	0.157	0.134
-301.793	268.946	-0.143	0.247
-300.778	165.205	-0.032	-0.045
-299.764	-28.336	0.318	-0.181
-298.749	-200.000	-0.026	-0.204
-297.735	107.636	-0.253	-0.296
-296.720	-143.137	0.307	0.029
-295.705	485.289	0.011	0.024
-294.691	-53.595	-0.162	-0.073
-293.676	800.000	0.105	0.433
-292.662	21.299	-0.164	-0.131
-291.647	-200.000	0.030	-0.222
-290.632	172.520	0.171	-0.242
-289.618	-119.710	0.083	0.014
-288.603	-180.465	0.014	0.000
-287.589	407.228	-0.246	0.511
-286.574	-131.117	0.247	0.032
-285.559	-89.793	-0.296	0.085
-284.545	800.000	0.060	0.181
-283.530	-87.649	0.130	-0.039
-282.516	363.624	0.123	-0.244
-281.501	800.000	-0.043	0.136
-280.486	59.494	0.261	-0.253
-279.472	43.528	-0.093	0.083
-278.457	-200.000	0.010	-0.070
-277.443	-30.884	-0.222	-0.123
-276.428	273.113	0.065	-0.113
-275.413	254.163	-0.166	0.279
-274.399	-30.175	0.104	-0.058
-273.384	198.148	-0.107	0.161
-272.370	-200.000	0.281	-0.000
-271.355	224.908	0.059	0.094
-270.340	223.436	-0.113	0.179
-269.326	-13.668	-0.151	0.096
-268.311	-57.466	-0.328	-0.142
-267.297	-200.000	0.000	0.062
-266.282	-200.000	0.023	-0.123
-265.267	-179.471	0.185	-0.004
-264.253	719.983	-0.082	-0.215
-263.238	47.822	-0.283	-0.260
-262.224	16.846	0.196	0.153
-261.209	-110.529	0.252	-0.051
-260.195	-84.132	0.187	0.058
-259.180	-24.722	0.203	0.119
-258.165	-200.000	0.014	0.366
-257.151	800.000	0.039	0.107
-256.136	-136.611	-0.080	-0.009
-255.122	-131.924	-0.222	-0.028
-254.107	-126.896	0.358	0.052
-253.092	382.459	0.118	-0.239
-252.078	-133.832	0.092	-0.011
-251.063	34.084	0.068	0.058
-250.049	-51.713	-0.154	-0.070
-249.034	-121.488	0.206	0.034
-248.019	572.116	0.128	-0.306
-247.005	800.000	0.109	0.432
-245.990	-125.308	0.268	0.040
-244.976	800.000	-0.067	0.196
-243.961	-200.000	-0.007	-0.106
-242.946	84.747	0.103	-0.111
-241.932	-107.082	0.191	-0.041
-240.917	275.283	-0.164	0.285
-239.903	485.808	0.032	0.072
-238.888	-64.463	-0.215	0.086
-237.873	-200.000	-0.008	0.072
-236.859	-200.000	0.028	0.126
-235.844	14.183	0.110	0.084
-234.830	800.000	-0.044	-0.127
-233.815	-70.157	0.258	-0.096
-232.800	-200.000	0.005	-0.303
-231.786	-145.932	0.146	0.013
-230.771	125.044	-0.081	-0.101
-229.757	223.409	-0.208	-0.330
-228.742	350.819	0.059	0.115
-227.727	140.671	-0.087	-0.113
-226.713	87.065	0.163	0.177
-225.698	-200.000	-0.011	0.197
-224.684	123.693	0.097	0.119
-223.669	800.000	-0.100	0.420
-222.655	14.731	-0.242	0.186
-221.640	800.000	0.057	-0.179
-220.625	-200.000	0.015	-0.324
-219.611	-36.141	0.171	0.091
-218.596	42.194	0.183	0.163
-217.582	37.030	0.277	-0.241
-216.567	-200.000	0.025	-0.193
-215.552	-172.962	0.147	-0.004
-214.538	220.873	0.162	0.256
-213.523	-132.078	-0.172	-0.022
-212.509	92.877	-0.243	0.269
-211.494	-11.114	0.027	0.017
-210.479	-200.000	0.026	-0.172
-209.465	283.362	0.085	-0.151
-208.450	-143.236	-0.196	-0.019
-207.436	-98.319	-0.099	-0.025
-206.421	-200.000	0.005	0.054
-205.406	-200.000	-0.027	0.199
-204.392	81.030	-0.131	0.139
-203.377	-200.000	-0.034	0.198
-202.363	36.791	0.168	-0.145
-201.348	-21.124	-0.218	0.131
-200.333	142.221	-0.099	0.129
-199.319	-135.708	0.209	-0.024
-198.304	478.573	0.106	0.236
-197.290	-118.658	-0.118	0.020
-196.275	-200.000	-0.031	-0.326
-195.260	60.211	0.068	-0.066
-194.246	19.303	-0.187	-0.147
-193.231	279.909	-0.182	0.320
-192.217	-35.714	-0.116	-0.062
-191.202	142.156	-0.115	-0.149
-190.187	173.481	-0.073	-0.104
-189.173	-125.171	0.249	-0.037
-188.158	636.476	-0.123	-0.307
-187.144	-77.059	0.120	-0.041
-186.129	38.871	-0.144	-0.126
-185.114	9.073	-0.432	-0.320
-184.100	30.665	0.119	-0.100
-183.085	-53.886	-0.400	-0.179
-182.071	35.978	-0.179	-0.155
-181.056	200.420	-0.130	0.196
-180.042	592.811	-0.024	-0.059
-179.027	-135.608	0.207	0.024
-178.012	-97.381	-0.012	-0.003
-176.998	-200.000	-0.014	0.064
-175.983	568.762	-0.074	0.177
-174.969	65.489	-0.208	0.207
-173.954	-200.000	-0.006	0.192
-172.939	800.000	0.066	0.225
-171.925	800.000	-0.073	-0.205
-170.910	143.296	0.187	0.244
-169.896	-200.000	0.022	-0.166
-168.881	-114.660	-0.039	-0.007
-167.866	-88.263	0.226	0.066
-166.852	78.074	-0.164	-0.172
-165.837	-65.814	0.052	-0.020
-164.823	-193.520	0.211	-0.002
-163.808	-41.682	-0.059	-0.030
-162.793	800.000	0.057	0.159
-161.779	339.675	-0.129	0.247
-160.764	-160.927	0.356	0.018
-159.750	-29.732	-0.094	-0.052
-158.735	77.558	-0.222	-0.231
-157.720	800.000	0.055	0.229
-156.706	-200.000	-0.028	-0.158
-155.691	281.074	0.057	0.101
-154.677	-200.000	-0.038	0.269
-153.662	-79.109	-0.296	-0.099
-152.647	377.015	0.096	0.191
-151.633	233.762	0.197	-0.318
-150.618	-136.413	-0.490	0.056
-149.604	800.000	0.025	0.101
-148.589	800.000	0.088	0.260
-147.574	-65.437	0.515	-0.203
-146.560	58.568	-0.090	-0.087
-145.545	602.322	-0.228	0.555
-144.531	-187.986	0.493	-0.006
-143.516	-174.485	-0.280	0.008
-142.502	98.747	0.238	-0.268
-141.487	-53.199	-0.277	-0.124
-140.472	-95.729	0.172	-0.045
-139.458	1.117	-0.264	0.185
-138.443	243.767	-0.167	0.274
-137.429	357.820	-0.082	-0.161
-136.414	-166.308	0.392	-0.016
-135.399	800.000	0.051	0.141
-134.385	-65.849	0.154	0.060
-133.370	-200.000	0.010	0.071
-132.356	-5.844	0.238	-0.160
-131.341	72.720	-0.087	0.089
-130.326	-95.017	0.174	-0.046
-129.312	-15.512	0.333	0.208
-128.297	279.469	-0.140	0.245
-127.283	-62.117	0.138	-0.056
-126.268	427.628	0.080	0.169
-125.253	-200.000	0.059	0.334
-124.239	-165.283	0.179	0.008
-123.224	74.486	-0.215	0.221
-122.210	330.321	-0.097	0.183
-121.195	-148.803	-0.204	0.016
-120.180	258.991	0.071	0.120
-119.166	-200.000	-0.003	-0.049
-118.151	170.658	-0.076	0.107
-117.137	-57.351	-0.078	0.033
-116.122	-80.248	-0.010	-0.003
-115.107	-200.000	-0.011	-0.073
-114.093	98.153	0.250	-0.282
-113.078	-121.273	0.199	0.032
-112.064	-200.000	-0.001	-0.070
-111.049	-200.000	-0.038	-0.378
-110.034	550.360	0.053	0.125
-109.020	-97.601	-0.127	0.032
-108.005	-126.443	0.304	-0.044
-106.991	-103.234	-0.282	0.065
-105.976	800.000	-0.111	0.369
-104.962	-200.000	-0.014	-0.230
-103.947	-54.031	-0.024	0.011
-102.932	-90.718	-0.081	0.023
-101.918	-200.000	-0.001	0.097
-100.903	502.774	0.077	-0.174
-99.889	9.695	-0.093	-0.069
-98.874	-30.313	0.061	0.034
-97.859	-129.239	0.288	0.039
-96.845	-200.000	0.001	0.063
-95.830	-1.621	0.058	-0.040
-94.816	-14.870	0.327	0.205
-93.801	-200.000	0.057	-0.371
-92.786	-91.995	-0.087	-0.024
-91.772	22.790	-0.059	-0.047
-90.757	-10.053	0.065	-0.042
-89.743	-20.606	0.430	0.258
-88.728	-200.000	0.054	0.429
-87.713	-200.000	-0.021	0.204
-86.699	24.084	-0.169	0.137
-85.684	97.161	0.062	-0.069
-84.670	-92.741	-0.168	0.046
-83.655	-200.000	0.033	-0.176
-82.640	800.000	-0.061	-0.203
-81.626	-100.291	0.054	0.013
-80.611	-49.741	-0.169	0.079
-79.597	-200.000	-0.010	-0.479
-78.582	-200.000	-0.030	0.271
-77.567	-43.132	0.037	-0.018
-76.553	-11.501	-0.146	0.094
-75.538	37.233	-0.285	-0.247
-74.524	117.323	0.207	0.249
-73.509	232.831	-0.163	-0.261
-72.494	800.000	0.118	-0.387
-71.480	366.021	-0.051	-0.101
-70.465	-142.342	-0.152	-0.015
-69.451	-200.000	-0.020	0.107
-68.436	190.633	0.118	-0.173
-67.422	-200.000	0.025	-0.379
-66.407	-77.594	-0.137	-0.046
-65.392	354.499	0.100	-0.194
-64.378	-200.000	-0.016	-0.135
-63.363	-119.327	0.294	-0.050
-62.349	9.252	0.088	-0.065
-61.334	92.176	-1.108	-1.218
-60.319	101.720	0.818	0.932
-59.305	653.293	-0.481	-1.204
-58.290	324.926	0.770	1.437
-57.276	712.604	0.638	1.650
-56.261	-200.000	135.027	684.188
-55.246	337.379	1676.801	3181.281
-54.232	132.209	2814.590	3538.828
-53.217	80.062	2349.371	2465.406
-52.203	27.384	2086.801	1711.812
-51.188	22.793	2003.910	1602.189
-50.173	21.803	1989.616	1581.768
-49.159	40.389	2067.044	1815.589
-48.144	38.002	2076.836	1802.097
-47.130	23.248	2028.926	1626.106
-46.115	21.128	2018.257	1598.099
-45.100	21.007	2015.017	1594.364
-44.086	20.982	2013.256	1592.682
-43.071	20.970	2010.281	1590.156
-42.057	20.928	2007.751	1587.710
-41.042	20.843	2006.440	1585.837
-40.027	20.980	2003.980	1585.071
-39.013	21.001	2002.024	1583.652
-37.998	21.042	2000.738	1582.948
-36.984	20.970	1998.751	1580.663
-35.969	20.949	1997.275	1579.236
-34.954	20.941	1995.675	1577.840
-33.940	21.102	1993.741	1577.702
-32.925	21.122	1991.775	1576.269
-31.911	21.097	1990.665	1575.096
-30.896	21.093	1989.125	1573.778
-29.881	21.053	1987.568	1572.126
-28.867	21.004	1986.228	1570.564
-27.852	21.073	1984.153	1569.479
-26.838	21.204	1981.723	1568.677
-25.823	21.069	1980.716	1566.604
-24.809	21.179	1978.800	1566.010
-23.794	21.101	1976.946	1563.784
-22.779	21.081	1975.125	1562.096
-21.765	21.088	1973.687	1560.961
-20.750	21.039	1972.413	1559.461
-19.736	21.075	1970.649	1558.318
-18.721	21.136	1968.819	1557.358
-17.706	21.100	1967.480	1555.916
-16.692	21.024	1966.033	1554.033
-15.677	20.957	1964.371	1552.061
-14.663	21.047	1962.690	1551.473
-13.648	21.087	1961.694	1550.973
-12.633	21.092	1960.239	1549.808
-11.619	21.121	1959.066	1549.080
-10.604	21.042	1957.982	1547.459
-9.590	21.056	1956.010	1545.965
-8.575	21.116	1954.628	1545.341
-7.560	21.070	1953.607	1544.062
-6.546	21.097	1952.693	1543.523
-5.531	21.111	1950.597	1541.929
-4.517	21.050	1950.213	1541.024
-3.502	21.075	1948.775	1540.046
-2.487	21.087	1947.181	1538.826
-1.473	21.130	1946.684	1538.756
-0.458	21.137	1941.109	1534.347
0.556	19.845	1920.301	1504.909
1.571	15.401	1901.487	1451.673
2.586	11.544	1924.147	1435.015
3.600	10.683	1958.543	1452.842
4.615	10.814	1951.735	1448.828
5.629	8.695	1851.740	1356.541
6.644	3.601	1741.768	1235.180
7.659	0.891	1710.718	1191.729
8.673	0.699	1707.735	1188.038
9.688	0.696	1706.915	1187.339
10.702	0.650	1704.646	1185.296
11.717	0.615	1700.814	1182.255
12.731	0.860	1699.713	1183.296
13.746	4.921	1707.711	1220.618
14.761	11.750	1721.486	1284.124
15.775	16.275	1730.005	1325.990
16.790	17.169	1730.419	1333.204
17.804	16.250	1727.731	1323.814
18.819	15.248	1724.772	1313.582
19.834	14.814	1721.628	1307.672
20.848	14.402	1720.404	1303.408
21.863	14.355	1718.242	1301.288
22.877	13.961	1717.077	1297.212
23.892	13.786	1715.800	1294.772
24.907	13.680	1714.605	1292.930
25.921	13.581	1713.666	1291.329
26.936	13.628	1712.317	1290.566
27.950	13.710	1711.270	1290.303
28.965	13.639	1711.381	1289.719
29.980	13.749	1710.150	1289.531
30.994	13.805	1709.522	1289.376
32.009	13.773	1708.255	1288.059
33.023	13.876	1707.202	1287.955
34.038	13.829	1706.617	1287.037
35.053	13.853	1705.536	1286.291
36.067	13.834	1704.180	1285.006
37.082	13.844	1702.974	1284.058
38.096	13.842	1701.815	1283.059
39.111	13.835	1701.585	1282.720
40.126	13.786	1700.457	1281.374
41.140	13.856	1699.329	1280.949
42.155	13.836	1697.728	1279.477
43.169	13.649	1696.900	1277.297
44.184	13.725	1695.329	1276.586
45.199	13.682	1693.812	1275.000
46.213	13.610	1693.377	1274.012
47.228	13.619	1692.423	1273.250
48.242	13.682	1690.485	1272.159
49.257	13.761	1689.194	1271.682
50.271	13.794	1687.873	1270.830
51.286	13.740	1686.607	1269.347
52.301	13.758	1685.279	1268.374
53.315	13.759	1684.216	1267.468
54.330	13.709	1682.500	1265.682
55.344	13.702	1680.876	1264.296
56.359	13.658	1679.095	1262.512
57.374	13.794	1678.272	1262.814
58.388	13.768	1676.739	1261.356
59.403	13.621	1675.863	1259.468
60.417	13.683	1674.258	1258.616
61.432	13.579	1673.252	1256.960
62.447	13.665	1671.451	1256.148
63.461	13.623	1670.284	1254.844
64.476	13.623	1669.267	1253.968
65.490	13.603	1668.317	1252.991
66.505	13.603	1667.382	1252.179
67.520	13.589	1665.890	1250.842
68.534	13.556	1665.118	1249.902
69.549	13.674	1663.252	1249.282
70.563	13.626	1662.337	1248.125
71.578	13.632	1660.995	1247.053
72.593	13.600	1660.060	1245.994
73.607	13.567	1658.636	1244.571
74.622	13.531	1657.934	1243.666
75.636	13.548	1657.080	1243.036
76.651	13.508	1656.359	1242.089
77.666	13.520	1655.133	1241.146
78.680	13.468	1654.174	1239.932
79.695	13.488	1653.192	1239.232
80.709	13.600	1652.335	1239.318
81.724	13.611	1651.407	1238.599
82.739	13.607	1650.300	1237.626
83.753	13.708	1649.523	1237.688
84.768	13.651	1648.176	1236.145
85.782	13.745	1647.394	1236.151
86.797	13.794	1646.202	1235.508
87.812	13.714	1645.776	1234.483
88.826	13.755	1644.317	1233.586
89.841	13.694	1642.901	1231.959
90.855	13.772	1641.846	1231.636
91.870	13.750	1640.914	1230.671
92.884	13.770	1639.658	1229.764
93.899	13.822	1638.772	1229.374
94.914	13.744	1637.947	1228.072
95.928	13.846	1636.449	1227.598
96.943	13.917	1634.638	1226.656
97.957	13.870	1633.200	1225.115
98.972	13.815	1632.171	1223.829
99.987	13.749	1630.947	1222.319
101.001	13.777	1628.968	1220.937
102.016	13.799	1627.528	1219.910
103.030	13.696	1626.819	1218.512
104.045	13.770	1625.225	1217.758
105.060	13.807	1623.504	1216.629
106.074	13.830	1622.086	1215.624
107.089	13.780	1620.626	1214.060
108.103	13.712	1619.393	1212.531
109.118	13.697	1617.800	1211.119
110.133	13.733	1615.932	1209.876
111.147	13.774	1614.611	1209.079
112.162	13.734	1613.634	1207.949
113.176	13.650	1612.299	1206.237
114.191	13.643	1611.023	1205.118
115.206	13.814	1609.184	1204.881
116.220	13.816	1608.066	1203.949
117.235	13.738	1606.762	1202.305
118.249	13.788	1604.993	1201.237
119.264	13.782	1603.782	1200.180
120.279	13.697	1602.904	1198.803
121.293	13.663	1601.342	1197.284
122.308	13.710	1599.918	1196.450
123.322	13.672	1597.979	1194.618
124.337	13.653	1596.953	1193.614
125.352	13.656	1595.596	1192.510
126.366	13.685	1594.272	1191.625
127.381	13.642	1593.334	1190.511
128.395	13.591	1592.395	1189.339
129.410	13.657	1590.694	1188.432
130.424	13.660	1588.970	1187.067
131.439	13.636	1588.149	1186.170
132.454	13.729	1586.491	1185.495
133.468	13.767	1584.838	1184.425
134.483	13.693	1583.272	1182.622
135.497	13.769	1581.948	1182.072
136.512	13.790	1580.497	1181.030
137.527	13.778	1578.886	1179.637
138.541	13.747	1578.358	1178.917
139.556	13.772	1576.318	1177.468
140.570	13.742	1574.989	1176.161
141.585	13.823	1573.345	1175.400
142.600	13.892	1572.331	1175.026
143.614	13.944	1570.972	1174.277
144.629	13.921	1570.303	1173.512
145.643	14.013	1568.538	1172.736
146.658	13.981	1567.057	1171.298
147.673	13.858	1565.915	1169.473
148.687	13.871	1564.623	1168.495
149.702	13.879	1562.699	1167.014
150.716	13.924	1560.823	1165.827
151.731	13.865	1559.951	1164.656
152.746	13.904	1558.836	1163.996
153.760	14.032	1557.033	1163.442
154.775	13.999	1555.793	1162.185
155.789	13.908	1554.882	1160.766
156.804	13.963	1553.890	1160.303
157.819	14.005	1552.267	1159.284
158.833	14.068	1550.648	1158.407
159.848	14.064	1550.134	1157.898
160.862	14.217	1548.078	1157.319
161.877	14.195	1546.804	1156.112
162.892	14.056	1546.438	1154.771
163.906	14.082	1544.643	1153.512
164.921	14.005	1543.493	1152.018
165.935	14.047	1542.342	1151.347
166.950	14.051	1541.436	1150.593
167.964	14.161	1540.512	1150.567
168.979	14.109	1539.176	1149.104
169.994	14.128	1537.940	1148.215
171.008	14.119	1536.998	1147.342
172.023	14.143	1535.819	1146.529
173.037	14.102	1534.846	1145.421
174.052	14.174	1533.362	1144.704
175.067	14.211	1532.632	1144.311
176.081	14.204	1530.995	1142.944
177.096	14.102	1529.875	1141.304
178.110	14.166	1528.720	1140.784
179.125	14.101	1527.362	1139.219
180.140	14.272	1526.126	1139.367
181.154	14.258	1525.122	1138.425
182.169	14.143	1524.324	1136.939
183.183	14.205	1523.006	1136.277
184.198	14.329	1521.721	1136.070
185.213	14.368	1520.652	1135.436
186.227	14.433	1519.304	1134.773
187.242	14.405	1518.719	1134.043
188.256	14.434	1517.146	1132.964
189.271	14.440	1516.533	1132.449
190.286	14.451	1515.476	1131.633
191.300	14.414	1514.156	1130.295
192.315	14.384	1512.908	1129.062
193.329	14.266	1511.347	1127.000
194.344	14.358	1510.296	1126.738
195.359	14.305	1509.690	1125.826
196.373	14.353	1508.567	1125.215
197.388	14.440	1506.920	1124.471
198.402	14.441	1506.381	1123.976
199.417	14.411	1505.324	1122.887
200.432	14.425	1504.182	1122.033
201.446	14.643	1502.683	1122.277
202.461	14.571	1501.657	1120.932
203.475	14.491	1500.825	1119.674
204.490	14.599	1499.826	1119.549
205.504	14.738	1498.047	1119.054
206.519	14.567	1497.333	1117.279
207.534	14.557	1495.970	1116.092
208.548	14.638	1494.949	1115.774
209.563	14.667	1493.666	1114.915
210.577	14.591	1492.869	1113.711
211.592	14.664	1491.905	1113.385
212.607	14.601	1491.401	1112.490
213.621	14.705	1490.419	1112.346
214.636	14.708	1489.663	1111.705
215.650	14.710	1488.275	1110.587
216.665	14.779	1487.402	1110.292
217.680	14.767	1486.836	1109.691
218.694	14.788	1485.859	1109.009
219.709	14.804	1484.601	1108.077
220.723	14.814	1483.971	1107.570
221.738	14.781	1483.201	1106.679
222.753	14.849	1482.267	1106.337
223.767	14.799	1481.568	1105.389
224.782	14.862	1480.118	1104.624
225.796	14.890	1478.902	1103.803
226.811	14.939	1478.312	1103.587
227.826	14.909	1477.405	1102.613
228.840	14.913	1477.074	1102.298
229.855	14.897	1475.852	1101.180
230.869	14.808	1475.114	1099.950
231.884	14.858	1473.591	1099.042
232.899	14.972	1472.123	1098.601
233.913	14.822	1471.402	1096.979
234.928	14.839	1470.034	1095.978
235.942	14.963	1468.419	1095.486
236.957	14.995	1467.355	1094.807
237.972	14.913	1466.279	1093.373
238.986	14.971	1465.030	1092.720
240.001	14.965	1464.159	1091.938
241.015	14.952	1463.475	1091.241
242.030	15.010	1461.714	1090.214
243.045	14.989	1461.028	1089.466
244.059	15.020	1460.547	1089.210
245.074	15.071	1459.450	1088.630
246.088	15.106	1458.863	1088.325
247.103	15.091	1457.966	1087.461
248.117	15.165	1456.985	1087.111
249.132	15.163	1456.138	1086.372
250.147	15.149	1455.517	1085.725
251.161	15.258	1454.733	1085.750
252.176	15.346	1453.787	1085.515
253.190	15.268	1453.289	1084.544
254.205	15.413	1451.985	1084.409
255.220	15.409	1451.219	1083.718
256.234	15.378	1451.008	1083.261
257.249	15.369	1450.334	1082.604
258.263	15.395	1448.764	1081.506
259.278	15.368	1447.914	1080.602
260.293	15.447	1447.272	1080.535
261.307	15.490	1446.239	1079.946
262.322	15.442	1445.434	1078.938
263.336	15.493	1444.934	1078.798
264.351	15.586	1443.303	1078.082
265.366	15.615	1442.050	1077.236
266.380	15.576	1441.638	1076.586
267.395	15.591	1440.490	1075.726
268.409	15.721	1439.238	1075.527
269.424	15.529	1438.991	1074.020
270.439	15.631	1437.680	1073.600
271.453	15.516	1436.846	1072.146
272.468	15.643	1436.025	1072.248
273.482	15.582	1435.431	1071.322
274.497	15.673	1434.285	1070.952
275.512	15.689	1433.326	1070.245
276.526	15.685	1432.657	1069.625
277.541	15.703	1431.526	1068.797
278.555	15.716	1430.694	1068.168
279.570	15.708	1429.406	1067.061
280.585	15.770	1428.558	1066.724
281.599	15.773	1427.856	1066.128
282.614	15.752	1427.294	1065.475
283.628	15.865	1425.928	1065.078
284.643	15.878	1424.529	1064.022
285.657	15.732	1423.577	1062.298
286.672	15.924	1422.225	1062.405
287.687	15.927	1421.638	1061.893
288.701	15.879	1420.729	1060.812
289.716	15.871	1420.074	1060.181
290.730	15.823	1419.389	1059.275
291.745	15.868	1417.931	1058.373
292.760	15.838	1417.528	1057.793
293.774	15.979	1415.753	1057.260
294.789	15.978	1414.901	1056.520
295.803	15.991	1414.407	1056.142
296.818	15.969	1413.620	1055.321
297.833	16.047	1412.039	1054.538
298.847	16.034	1411.053	1053.629
299.862	15.949	1410.409	1052.520
300.876	16.139	1408.950	1052.525
301.891	16.018	1408.204	1051.122
302.906	16.082	1407.406	1050.828
303.920	16.112	1407.499	1050.995
304.935	16.168	1406.287	1050.345
305.949	16.183	1405.566	1049.804
306.964	16.132	1405.094	1049.046
307.979	16.208	1403.898	1048.531
308.993	16.317	1402.399	1047.992
310.008	16.061	1402.083	1046.076
311.022	16.195	1400.707	1045.791
312.037	16.277	1399.493	1045.295
313.052	16.241	1398.740	1044.417
314.066	16.233	1397.747	1043.537
315.081	16.287	1396.413	1042.783
316.095	16.220	1395.434	1041.543
317.110	16.278	1394.537	1041.140
318.125	16.169	1393.873	1039.881
319.139	16.272	1392.807	1039.628
320.154	16.303	1392.009	1039.129
321.168	16.220	1390.897	1037.696
322.183	16.292	1389.808	1037.234
323.197	16.289	1388.450	1036.114
324.212	16.319	1387.856	1035.764
325.227	16.329	1387.013	1035.102
326.241	16.362	1385.976	1034.441
327.256	16.437	1385.240	1034.258
328.270	16.291	1384.739	1032.900
329.285	16.326	1383.680	1032.233
330.300	16.485	1382.656	1032.349
331.314	16.417	1381.776	1031.185
332.329	16.393	1380.985	1030.353
333.343	16.386	1380.217	1029.648
334.358	16.408	1379.060	1028.830
335.373	16.468	1378.472	1028.665
336.387	16.487	1377.890	1028.255
337.402	16.479	1376.949	1027.414
338.416	16.517	1376.187	1026.987
339.431	16.535	1375.641	1026.595
340.446	16.617	1375.013	1026.532
341.460	16.672	1373.718	1025.810
342.475	16.682	1372.471	1024.846
343.489	16.656	1372.015	1024.259
344.504	16.667	1370.728	1023.272
345.519	16.738	1370.012	1023.075
346.533	16.673	1369.152	1021.951
347.548	16.790	1367.999	1021.705
348.562	16.848	1367.576	1021.652
349.577	16.922	1366.303	1021.052
350.592	16.872	1365.514	1020.074
351.606	16.825	1364.520	1018.959
352.621	16.802	1363.755	1018.161
353.635	16.825	1362.421	1017.214
354.650	16.674	1362.015	1015.913
355.665	16.793	1361.035	1015.803
356.679	16.747	1359.897	1014.587
357.694	16.713	1358.914	1013.561
358.708	16.875	1357.888	1013.678
359.723	16.908	1356.230	1012.548
360.738	16.942	1355.283	1011.950
361.752	16.857	1354.453	1010.738
362.767	16.850	1353.494	1009.890
363.781	16.891	1352.729	1009.472
364.796	16.996	1352.038	1009.496
365.810	16.969	1351.171	1008.600
366.825	17.011	1350.252	1008.073
367.840	17.049	1349.405	1007.573
368.854	17.030	1348.697	1006.842
369.869	17.129	1348.076	1006.881
370.883	17.148	1347.407	1006.402
371.898	17.129	1347.082	1005.959
372.913	17.128	1346.105	1005.132
373.927	17.218	1344.889	1004.667
374.942	17.127	1344.365	1003.648
375.956	17.221	1343.300	1003.320
376.971	17.133	1342.488	1002.106
377.986	17.282	1341.898	1002.458
379.000	17.206	1341.318	1001.488
380.015	17.320	1339.836	1000.963
381.029	17.347	1339.158	1000.529
382.044	17.340	1338.822	1000.144
383.059	17.386	1337.810	999.569
384.073	17.320	1337.287	998.703
385.088	17.249	1336.900	997.909
386.102	17.443	1335.887	998.202
387.117	17.368	1335.443	997.346
388.132	17.462	1334.427	997.049
389.146	17.401	1333.653	996.026
390.161	17.407	1332.809	995.343
391.175	17.412	1332.118	994.767
392.190	17.328	1331.132	993.452
393.205	17.321	1330.420	992.793
394.219	17.428	1329.214	992.425
395.234	17.572	1327.565	991.948
396.248	17.632	1326.476	991.393
397.263	17.550	1325.441	990.058
398.278	17.499	1323.888	988.515
399.292	17.556	1322.860	987.990
400.307	17.551	1321.690	986.997
401.321	17.545	1321.103	986.440
402.336	17.486	1319.974	985.166
403.350	17.424	1318.792	983.836
404.365	17.477	1317.720	983.261
405.380	17.550	1316.939	983.008
406.394	17.594	1316.311	982.710
407.409	17.606	1315.546	982.120
408.423	17.679	1315.106	982.123
409.438	17.709	1314.039	981.410
410.453	17.697	1313.459	980.826
411.467	17.728	1312.424	980.142
412.482	17.734	1312.001	979.776
413.496	17.905	1311.548	980.334
414.511	17.880	1310.940	979.645
415.526	17.743	1309.800	977.924
416.540	17.803	1309.066	977.632
417.555	17.965	1308.125	977.767
418.569	17.975	1307.876	977.555
419.584	17.905	1307.358	976.680
420.599	17.900	1306.757	976.119
421.613	102.057	1363.292	1492.567
422.628	100.414	1371.436	1492.646
