DTS Sentinel unit serial number:	SN413079Multiplexer serial number:	ORYXHardware model number:	OX4-SRSoftware version number:	ORYX F/W v4.00 Oryx Data Collector v3.7.2.0data status	okinstallation	princeton_trtdifferential loss correction	single-endedforward channel	channel 4reverse channel	N/Adate	2019/09/17time	18:49:35forward acquisition time	60.00reverse acquisition time	0.00gamma	496.2192k internal	0.2286k external	0.2286temperature offset calibration	0.9985default loss term (dB/km)	0.3790temperature slope calibration	1.0000multiplexer offset coefficient	1.0000multiplexer slope coefficient	1.0000fibre end	0.00T internal ref (°C)	41.86T ext. ref 1 (°C)	0.32T ext. ref 2 (°C)	31.46length (m)	temperature (°C)	Stokes	anti-Stokes-747.200	-200.000	-0.013	0.151
-746.185	-54.495	0.399	-0.185
-745.171	71.552	-0.152	-0.162
-744.156	-200.000	-0.021	-0.133
-743.142	-15.201	0.261	-0.171
-742.127	-50.684	-0.359	0.173
-741.112	-21.634	-0.157	0.098
-740.098	-135.213	-0.116	0.014
-739.083	61.355	-0.113	0.115
-738.069	9.062	-0.040	-0.031
-737.054	-127.153	-0.318	-0.048
-736.039	210.610	-0.119	0.192
-735.025	72.463	-0.056	-0.060
-734.010	209.731	0.121	-0.194
-732.996	23.702	-0.246	-0.208
-731.981	-8.002	-0.301	-0.208
-730.966	76.844	0.132	0.144
-729.952	85.169	-0.114	-0.128
-728.937	-74.946	-0.147	0.054
-727.923	-21.367	0.262	0.164
-726.908	-114.526	0.188	-0.037
-725.894	-3.249	0.192	0.137
-724.879	691.267	-0.071	-0.191
-723.864	-200.000	0.013	0.074
-722.850	-59.853	-0.135	-0.059
-721.835	800.000	-0.083	0.312
-720.821	413.432	0.049	0.107
-719.806	-200.000	-0.060	0.508
-718.791	245.583	-0.106	0.183
-717.777	-11.474	0.254	-0.171
-716.762	104.438	-0.098	-0.118
-715.748	-41.056	0.110	-0.058
-714.733	-106.037	-0.387	0.089
-713.718	105.833	-0.160	0.194
-712.704	-119.533	-0.378	-0.067
-711.689	-43.122	-0.198	0.103
-710.675	-103.270	0.241	0.058
-709.660	-200.000	-0.040	0.229
-708.645	-62.545	0.182	0.077
-707.631	-104.455	0.260	-0.062
-706.616	-21.046	0.384	0.241
-705.602	-67.650	-0.258	0.104
-704.587	-66.999	0.418	0.169
-703.572	-84.492	0.180	-0.058
-702.558	365.627	-0.144	-0.298
-701.543	-116.830	0.181	-0.034
-700.529	-120.553	0.153	-0.027
-699.514	-28.725	0.116	-0.068
-698.499	119.564	0.049	0.062
-697.485	41.867	-0.442	0.410
-696.470	-187.077	-0.307	-0.004
-695.456	-200.000	0.022	-0.393
-694.441	113.583	0.176	0.219
-693.426	387.499	0.107	-0.227
-692.412	-77.457	-0.222	0.079
-691.397	-200.000	-0.001	0.171
-690.383	60.285	-0.106	-0.107
-689.368	-13.991	0.039	0.026
-688.354	-200.000	-0.024	0.171
-687.339	-200.000	-0.033	0.155
-686.324	23.149	-0.212	0.178
-685.310	800.000	-0.092	-0.340
-684.295	800.000	0.107	0.324
-683.281	-45.019	0.287	-0.146
-682.266	41.790	-0.183	-0.169
-681.251	435.528	-0.107	0.238
-680.237	800.000	0.044	0.135
-679.222	-67.876	0.205	-0.082
-678.208	-200.000	-0.041	-0.247
-677.193	-200.000	0.083	-0.380
-676.178	-71.642	0.296	-0.113
-675.164	-90.653	-0.261	-0.077
-674.149	352.149	-0.173	0.350
-673.135	81.349	0.088	-0.098
-672.120	-56.965	-0.244	0.110
-671.105	743.230	-0.040	0.109
-670.091	142.377	0.173	0.234
-669.076	-99.086	0.292	-0.076
-668.062	-106.436	0.189	-0.043
-667.047	-147.667	-0.289	-0.025
-666.032	-200.000	-0.040	0.189
-665.018	395.928	-0.176	0.376
-664.003	-42.923	-0.074	-0.039
-662.989	800.000	0.116	-0.370
-661.974	-53.575	0.076	0.036
-660.959	-118.798	0.206	-0.037
-659.945	-113.455	0.182	-0.037
-658.930	-68.898	-0.401	0.158
-657.916	686.843	0.015	-0.039
-656.901	800.000	0.038	-0.163
-655.886	-1.254	0.135	0.097
-654.872	779.635	-0.056	0.157
-653.857	-106.198	0.155	0.036
-652.843	-105.273	0.139	-0.032
-651.828	-200.000	-0.014	0.323
-650.814	-61.226	0.301	0.130
-649.799	-200.000	-0.012	0.463
-648.784	298.200	0.064	0.121
-647.770	-130.435	-0.191	-0.026
-646.755	-63.738	-0.118	0.050
-645.741	-6.230	-0.174	-0.121
-644.726	-139.085	0.209	-0.023
-643.711	-200.000	0.001	0.290
-642.697	-5.775	-0.137	0.096
-641.682	12.780	0.101	-0.080
-640.668	227.490	-0.332	-0.552
-639.653	31.103	-0.071	-0.062
-638.638	311.294	0.190	0.364
-637.624	-144.787	0.155	-0.015
-636.609	-200.000	-0.004	-0.016
-635.595	800.000	0.058	0.250
-634.580	-59.496	-0.430	-0.189
-633.565	-123.834	-0.301	-0.049
-632.551	-51.280	-0.111	0.053
-631.536	-0.066	0.090	-0.065
-630.522	800.000	-0.038	-0.134
-629.507	221.554	-0.057	0.093
-628.492	147.513	-0.155	0.213
-627.478	-41.426	0.328	-0.173
-626.463	-200.000	0.095	-0.490
-625.449	237.892	-0.121	-0.206
-624.434	-120.674	-0.384	-0.066
-623.419	240.479	0.106	-0.181
-622.405	-141.508	0.123	0.013
-621.390	276.388	-0.085	0.154
-620.376	-88.074	-0.086	-0.026
-619.361	93.040	-0.138	0.159
-618.346	255.286	0.090	0.157
-617.332	55.464	-0.199	-0.197
-616.317	171.132	-0.068	-0.099
-615.303	493.262	0.171	0.401
-614.288	-200.000	0.007	-0.072
-613.273	47.652	0.159	0.152
-612.259	-67.208	-0.206	0.083
-611.244	-108.051	0.026	-0.006
-610.230	531.483	0.169	-0.409
-609.215	-32.287	-0.164	-0.093
-608.201	-200.000	-0.009	0.292
-607.186	-200.000	0.007	-0.307
-606.171	-200.000	-0.034	-0.155
-605.157	495.887	0.062	0.145
-604.142	-5.371	0.380	-0.266
-603.128	293.490	0.092	0.171
-602.113	800.000	0.111	0.313
-601.098	-174.207	0.111	-0.003
-600.084	-24.918	0.218	0.132
-599.069	-200.000	-0.037	-0.174
-598.055	83.763	0.358	0.399
-597.040	161.709	0.194	-0.277
-596.025	-200.000	-0.003	0.240
-595.011	135.628	0.058	0.077
-593.996	48.543	-0.238	-0.228
-592.982	109.166	0.059	-0.072
-591.967	55.901	-0.029	0.029
-590.952	221.640	0.132	-0.216
-589.938	-52.598	0.311	-0.146
-588.923	320.495	-0.042	0.082
-587.909	-200.000	0.014	0.463
-586.894	-73.799	0.268	0.099
-585.879	-39.836	0.110	-0.059
-584.865	-165.397	-0.358	0.016
-583.850	-54.781	-0.183	0.084
-582.836	-111.234	-0.149	0.031
-581.821	800.000	-0.012	-0.033
-580.806	247.830	0.234	0.403
-579.792	-115.023	0.070	-0.014
-578.777	37.052	-0.180	-0.162
-577.763	-200.000	0.019	-0.148
-576.748	-200.000	-0.031	-0.221
-575.733	-144.403	-0.093	0.009
-574.719	-200.000	0.097	-0.456
-573.704	-55.669	0.104	0.047
-572.690	-44.593	0.176	-0.090
-571.675	-200.000	-0.006	0.112
-570.661	-132.873	0.117	-0.015
-569.646	505.791	-0.092	-0.217
-568.631	-128.258	0.330	0.048
-567.617	-88.170	-0.345	0.105
-566.602	-200.000	-0.027	-0.151
-565.588	51.475	-0.172	0.167
-564.573	-21.732	-0.259	-0.160
-563.558	-53.122	0.256	-0.120
-562.544	-188.485	-0.375	-0.005
-561.529	-59.758	0.195	0.085
-560.515	178.070	0.083	0.124
-559.500	-165.471	-0.242	-0.011
-558.485	26.585	0.166	-0.141
-557.471	78.681	-0.259	0.282
-556.456	-200.000	-0.042	-0.443
-555.442	2.034	-0.131	-0.096
-554.427	-85.381	-0.224	0.071
-553.412	-24.139	-0.110	-0.067
-552.398	392.796	-0.063	-0.134
-551.383	-89.215	0.243	0.073
-550.369	-125.835	0.108	0.017
-549.354	-131.310	0.147	-0.020
-548.339	150.420	0.130	0.179
-547.325	-58.876	0.185	-0.082
-546.310	-164.804	-0.350	-0.016
-545.296	68.994	0.107	0.111
-544.281	-120.268	-0.066	-0.011
-543.266	-200.000	0.023	-0.105
-542.252	-200.000	0.041	0.247
-541.237	-5.896	-0.075	-0.052
-540.223	800.000	-0.073	-0.297
-539.208	61.773	-0.119	0.120
-538.193	121.935	-0.240	-0.304
-537.179	-195.010	-0.295	-0.002
-536.164	800.000	0.069	0.251
-535.150	-67.194	0.181	0.073
-534.135	569.411	0.009	-0.023
-533.121	-104.873	0.148	-0.035
-532.106	72.641	0.110	0.117
-531.091	-77.161	0.379	-0.134
-530.077	-115.669	-0.206	0.039
-529.062	-200.000	-0.045	0.382
-528.048	205.234	0.103	0.162
-527.033	-136.344	-0.099	0.012
-526.018	396.889	0.127	0.271
-525.004	-71.008	-0.053	-0.020
-523.989	-200.000	0.013	0.105
-522.975	-200.000	0.014	-0.108
-521.960	-200.000	0.000	0.013
-520.945	-1.811	-0.077	0.055
-519.931	773.298	0.073	0.202
-518.916	-89.579	0.165	-0.049
-517.902	800.000	-0.201	0.577
-516.887	75.895	0.205	0.220
-515.872	-200.000	-0.030	-0.217
-514.858	376.366	-0.030	0.062
-513.843	800.000	-0.079	0.230
-512.829	365.460	-0.025	-0.052
-511.814	800.000	0.029	0.085
-510.799	72.588	0.150	0.159
-509.785	100.653	0.060	-0.071
-508.770	-21.649	-0.265	-0.164
-507.756	-179.653	0.107	0.002
-506.741	121.380	0.086	0.109
-505.726	-156.392	-0.093	0.006
-504.712	800.000	-0.109	0.342
-503.697	63.440	-0.198	-0.201
-502.683	-103.726	0.574	0.137
-501.668	-146.230	-0.289	0.026
-500.653	612.682	-0.081	-0.205
-499.639	301.200	-0.203	0.382
-498.624	25.193	-0.138	0.116
-497.610	34.262	0.298	0.264
-496.595	-200.000	-0.029	-0.152
-495.581	98.136	0.288	0.337
-494.566	-107.705	0.129	-0.029
-493.551	-21.664	-0.332	0.206
-492.537	-200.000	0.013	-0.108
-491.522	-6.053	-0.195	0.136
-490.508	-33.294	-0.306	0.172
-489.493	329.144	0.098	-0.191
-488.478	-200.000	0.001	-0.047
-487.464	-132.136	-0.390	-0.051
-486.449	-61.932	0.104	0.044
-485.435	31.811	0.155	0.136
-484.420	-49.303	-0.126	0.061
-483.405	-90.803	0.245	-0.072
-482.391	-200.000	0.019	-0.085
-481.376	-81.795	-0.225	-0.075
-480.362	135.233	-0.153	0.202
-479.347	-167.756	-0.062	0.003
-478.332	-80.862	-0.315	-0.106
-477.318	-38.109	0.319	0.172
-476.303	40.661	-0.123	-0.112
-475.289	-88.115	-0.286	-0.087
-474.274	800.000	-0.112	0.400
-473.259	-28.797	-0.171	0.100
-472.245	-18.372	-0.099	0.063
-471.230	-144.129	0.337	-0.032
-470.216	10.348	-0.301	0.233
-469.201	-48.015	-0.167	-0.082
-468.186	-99.741	-0.287	0.073
-467.172	-200.000	-0.008	0.167
-466.157	265.340	-0.077	0.136
-465.143	147.929	-0.162	-0.222
-464.128	-65.109	-0.222	-0.091
-463.113	-103.362	0.298	-0.071
-462.099	-10.298	0.331	-0.223
-461.084	78.171	0.106	-0.114
-460.070	44.853	0.179	-0.167
-459.055	-30.502	0.221	-0.127
-458.040	-0.180	-0.133	-0.096
-457.026	-41.070	-0.075	-0.039
-456.011	-23.522	0.368	-0.224
-454.997	402.419	-0.055	-0.118
-453.982	-175.933	-0.371	-0.010
-452.968	800.000	0.062	-0.214
-451.953	-200.000	-0.006	0.067
-450.938	133.124	0.077	-0.101
-449.924	-17.886	-0.103	-0.066
-448.909	-128.912	0.232	-0.033
-447.895	33.546	-0.085	0.075
-446.880	211.121	-0.145	0.232
-445.865	-22.319	-0.494	0.304
-444.851	-127.975	-0.128	-0.019
-443.836	595.473	0.077	0.194
-442.822	8.175	-0.148	-0.113
-441.807	-60.227	-0.315	-0.136
-440.792	-169.959	0.249	0.009
-439.778	-117.067	0.174	-0.032
-438.763	406.000	0.158	-0.339
-437.749	800.000	-0.057	-0.198
-436.734	269.665	0.091	-0.161
-435.719	329.572	-0.020	-0.039
-434.705	132.733	-0.040	-0.052
-433.690	101.493	0.311	0.368
-432.676	-141.365	0.254	0.026
-431.661	800.000	-0.037	-0.132
-430.646	-200.000	-0.025	0.192
-429.632	-4.951	-0.412	-0.288
-428.617	-74.394	0.159	-0.058
-427.603	18.986	-0.224	0.182
-426.588	653.651	-0.128	0.334
-425.573	-157.594	0.261	0.016
-424.559	800.000	0.054	0.199
-423.544	-200.000	-0.001	0.373
-422.530	-46.548	-0.343	0.170
-421.515	-86.639	-0.125	-0.039
-420.500	-200.000	-0.060	0.000
-419.486	800.000	-0.113	-0.348
-418.471	31.058	0.110	0.095
-417.457	-50.001	0.111	0.053
-416.442	588.154	0.088	-0.220
-415.428	-200.000	-0.045	-0.214
-414.413	203.401	-0.100	-0.156
-413.398	102.927	-0.191	-0.227
-412.384	22.771	-0.230	-0.191
-411.369	800.000	-0.038	-0.148
-410.355	-200.000	-0.013	0.304
-409.340	315.434	0.152	-0.290
-408.325	143.007	0.078	-0.105
-407.311	-200.000	0.055	0.256
-406.296	56.849	0.175	0.173
-405.282	-80.029	0.178	0.061
-404.267	90.791	0.036	-0.041
-403.252	-44.357	-0.057	-0.029
-402.238	399.055	-0.141	-0.299
-401.223	509.198	0.147	0.345
-400.209	-47.090	-0.221	0.109
-399.194	800.000	-0.081	0.292
-398.179	-60.152	-0.225	-0.097
-397.165	-116.122	-0.101	0.019
-396.150	71.512	0.162	0.170
-395.136	19.725	-0.119	-0.097
-394.121	206.591	0.151	-0.237
-393.106	109.575	0.166	-0.201
-392.092	-200.000	-0.015	0.212
-391.077	216.091	0.027	0.043
-390.063	-10.592	0.116	0.077
-389.048	800.000	0.058	0.173
-388.033	-200.000	-0.001	-0.030
-387.019	-127.197	-0.037	0.005
-386.004	-200.000	-0.019	-0.178
-384.990	-169.708	-0.286	0.010
-383.975	800.000	-0.089	0.249
-382.960	-4.331	0.149	-0.104
-381.946	-76.250	-0.152	-0.054
-380.931	145.681	-0.226	0.306
-379.917	77.638	0.130	0.140
-378.902	-43.949	-0.280	-0.143
-377.888	-1.135	-0.162	0.116
-376.873	233.468	0.125	-0.208
-375.858	185.278	0.117	-0.175
-374.844	32.175	0.063	0.055
-373.829	-6.111	0.090	0.062
-372.815	-111.364	-0.259	0.053
-371.800	78.835	-0.069	-0.075
-370.785	-200.000	-0.214	0.001
-369.771	140.729	-0.133	-0.178
-368.756	-200.000	-0.031	-0.261
-367.742	-200.000	-0.006	-0.050
-366.727	96.930	0.202	0.234
-365.712	155.752	0.088	-0.123
-364.698	66.458	-0.183	-0.188
-363.683	-200.000	-0.028	0.145
-362.669	-200.000	-0.075	0.370
-361.654	-49.400	0.161	-0.078
-360.639	800.000	0.036	0.137
-359.625	162.461	0.023	-0.033
-358.610	318.376	0.178	-0.341
-357.596	67.709	-0.119	-0.123
-356.581	-25.209	-0.121	-0.072
-355.566	-167.388	-0.014	0.001
-354.552	800.000	-0.056	0.246
-353.537	363.510	-0.039	0.079
-352.523	415.075	-0.052	0.111
-351.508	273.165	-0.073	-0.130
-350.493	800.000	-0.055	-0.170
-349.479	800.000	-0.018	0.069
-348.464	54.630	-0.058	0.056
-347.450	342.901	0.185	0.365
-346.435	-200.000	0.014	-0.166
-345.420	-72.386	0.062	0.023
-344.406	800.000	0.031	-0.113
-343.391	-18.510	-0.187	-0.118
-342.377	-200.000	0.332	-0.001
-341.362	107.001	0.093	-0.111
-340.348	-43.023	-0.184	0.094
-339.333	23.937	0.183	0.152
-338.318	-17.123	0.132	-0.084
-337.304	800.000	-0.135	-0.384
-336.289	62.865	0.101	0.102
-335.275	-200.000	-0.008	0.284
-334.260	-101.972	-0.428	-0.104
-333.245	644.098	-0.094	-0.242
-332.231	-50.702	0.224	0.106
-331.216	-200.000	0.004	-0.206
-330.202	-102.180	-0.328	-0.080
-329.187	-11.885	-0.109	0.072
-328.172	155.776	-0.061	-0.085
-327.158	-200.000	0.010	-0.292
-326.143	-200.000	-0.021	0.139
-325.129	-93.946	0.254	-0.070
-324.114	-139.307	0.088	-0.010
-323.099	7.617	0.094	0.071
-322.085	52.513	0.154	-0.149
-321.070	-98.615	-0.195	0.050
-320.056	-17.884	0.017	-0.010
-319.041	-200.000	-0.029	-0.228
-318.026	409.812	-0.042	0.090
-317.012	587.685	0.133	-0.331
-315.997	-140.223	0.221	-0.023
-314.983	-65.113	-0.125	0.051
-313.968	63.227	0.227	0.229
-312.953	83.836	0.188	0.207
-311.939	-30.860	0.119	-0.068
-310.924	-200.000	0.001	-0.196
-309.910	118.101	-0.135	0.168
-308.895	-200.000	0.033	0.191
-307.880	-25.310	-0.162	-0.097
-306.866	-95.889	0.409	0.110
-305.851	-49.999	0.131	0.063
-304.837	145.002	-0.191	0.258
-303.822	800.000	0.130	-0.364
-302.807	-188.657	0.285	0.004
-301.793	35.008	-0.285	-0.252
-300.778	-46.586	-0.182	-0.090
-299.764	306.297	-0.050	0.094
-298.749	-131.093	-0.441	-0.059
-297.735	-46.334	0.357	0.177
-296.720	44.780	-0.145	0.135
-295.705	12.739	0.138	-0.107
-294.691	-200.000	0.026	0.152
-293.676	381.591	-0.119	-0.246
-292.662	-73.188	-0.284	-0.105
-291.647	307.274	-0.099	0.185
-290.632	800.000	0.026	0.083
-289.618	-40.467	-0.042	-0.022
-288.603	206.506	0.187	0.294
-287.589	376.665	-0.186	0.382
-286.574	114.784	0.119	0.146
-285.559	800.000	0.100	-0.368
-284.545	265.055	-0.114	-0.200
-283.530	86.148	-0.174	0.193
-282.516	-131.542	0.152	-0.020
-281.501	34.597	-0.161	-0.142
-280.486	800.000	0.095	-0.286
-279.472	289.663	0.101	0.185
-278.457	-200.000	-0.043	-0.194
-277.443	70.232	0.147	-0.153
-276.428	-200.000	-0.013	-0.394
-275.413	-105.845	-0.257	0.058
-274.399	-13.958	0.130	-0.084
-273.384	265.885	0.179	-0.314
-272.370	-200.000	-0.002	0.037
-271.355	-200.000	0.016	0.278
-270.340	-65.477	-0.165	-0.067
-269.326	-200.000	0.025	0.255
-268.311	-200.000	-0.015	0.361
-267.297	-131.472	0.350	0.047
-266.282	-67.615	0.141	-0.056
-265.267	-70.035	0.240	-0.092
-264.253	281.059	-0.058	0.105
-263.238	-200.000	0.012	0.291
-262.224	-200.000	-0.005	-0.039
-261.209	-200.000	-0.020	-0.245
-260.195	9.994	0.158	0.121
-259.180	-125.805	0.185	-0.028
-258.165	2.237	0.196	0.143
-257.151	-200.000	-0.001	0.258
-256.136	-31.680	-0.039	-0.022
-255.122	619.998	0.034	0.086
-254.107	617.913	-0.111	-0.281
-253.092	-77.857	0.258	0.090
-252.078	-54.923	-0.092	0.042
-251.063	470.406	-0.126	-0.285
-250.049	-99.141	-0.444	0.113
-249.034	-170.091	0.388	-0.014
-248.019	-200.000	0.017	-0.127
-247.005	-200.000	0.041	-0.332
-245.990	-120.500	-0.115	0.020
-244.976	-99.546	-0.030	0.008
-243.961	-59.285	0.289	-0.125
-242.946	-200.000	-0.009	0.051
-241.932	-118.765	-0.240	-0.042
-240.917	147.870	0.049	-0.067
-239.903	79.933	-0.178	-0.192
-238.888	21.077	0.053	-0.043
-237.873	41.275	0.139	-0.127
-236.859	-11.621	0.339	-0.224
-235.844	800.000	0.072	-0.294
-234.830	559.648	-0.051	-0.124
-233.815	82.993	0.022	-0.024
-232.800	-3.496	0.098	0.069
-231.786	219.167	-0.169	0.272
-230.771	-200.000	-0.025	-0.317
-229.757	800.000	-0.027	0.114
-228.742	-148.414	0.109	0.009
-227.727	-33.785	0.259	-0.143
-226.713	-200.000	0.002	0.246
-225.698	-149.838	-0.232	-0.018
-224.684	-200.000	-0.023	-0.246
-223.669	140.169	0.041	-0.054
-222.655	98.577	-0.122	0.141
-221.640	-12.423	0.275	0.181
-220.625	-7.585	0.171	0.117
-219.611	800.000	0.069	0.205
-218.596	408.286	-0.056	-0.118
-217.582	800.000	0.079	-0.246
-216.567	-163.918	-0.312	-0.015
-215.552	800.000	-0.026	0.082
-214.538	-200.000	-0.091	-0.402
-213.523	339.777	-0.209	0.410
-212.509	159.142	0.013	-0.018
-211.494	-51.367	0.201	0.094
-210.479	-200.000	0.001	-0.220
-209.465	-8.138	0.257	-0.174
-208.450	-108.876	-0.078	0.017
-207.436	-200.000	-0.029	0.152
-206.421	-10.097	0.425	-0.284
-205.406	74.005	0.071	-0.075
-204.392	-157.995	0.322	-0.019
-203.377	-200.000	0.029	-0.161
-202.363	-147.408	-0.454	-0.039
-201.348	130.139	0.050	0.064
-200.333	-101.629	0.346	0.084
-199.319	45.291	0.232	-0.215
-198.304	-176.835	-0.440	-0.011
-197.290	-50.077	-0.128	-0.061
-196.275	-200.000	-0.001	0.294
-195.260	272.485	-0.164	0.291
-194.246	67.113	-0.157	-0.161
-193.231	-92.608	-0.077	0.022
-192.217	-7.568	0.117	0.080
-191.202	131.155	0.095	0.123
-190.187	-177.881	0.299	0.007
-189.173	307.755	-0.125	-0.234
-188.158	-88.304	0.169	-0.051
-187.144	-108.652	0.068	-0.015
-186.129	439.602	0.028	-0.060
-185.114	-200.000	-0.032	0.291
-184.100	-200.000	0.019	0.091
-183.085	-160.640	-0.292	-0.016
-182.071	-171.829	0.278	-0.009
-181.056	-71.815	0.081	-0.030
-180.042	-44.390	0.164	0.082
-179.027	-200.000	0.007	0.244
-178.012	-7.207	0.110	0.075
-176.998	171.394	-0.139	-0.201
-175.983	218.532	-0.263	-0.422
-174.969	-200.000	-0.023	0.199
-173.954	-123.495	0.408	-0.065
-172.939	-200.000	-0.007	-0.055
-171.925	29.224	0.076	0.065
-170.910	800.000	-0.013	0.049
-169.896	85.614	-0.208	0.230
-168.881	376.669	0.080	-0.163
-167.866	-200.000	0.023	-0.217
-166.852	-87.897	0.239	0.072
-165.837	-149.459	0.208	0.017
-164.823	54.212	0.219	0.211
-163.808	-200.000	0.011	-0.108
-162.793	166.921	0.089	-0.126
-161.779	73.334	-0.045	0.047
-160.764	50.408	-0.286	0.271
-159.750	-69.295	0.063	0.024
-158.735	-74.656	0.182	0.066
-157.720	58.880	0.083	0.081
-156.706	-41.315	-0.134	-0.069
-155.691	800.000	-0.085	0.235
-154.677	176.162	0.244	-0.356
-153.662	269.925	0.064	0.112
-152.647	-75.794	0.056	-0.020
-151.633	85.707	0.128	-0.141
-150.618	800.000	0.068	0.224
-149.604	504.763	0.157	-0.364
-148.589	-200.000	-0.070	-0.356
-147.574	-62.433	0.432	-0.180
-146.560	156.846	-0.077	-0.107
-145.545	233.877	0.084	0.138
-144.531	-21.317	0.142	0.087
-143.516	-140.373	0.430	0.045
-142.502	800.000	0.086	-0.337
-141.487	101.846	0.201	-0.235
-140.472	85.128	0.200	0.220
-139.458	191.996	0.115	-0.174
-138.443	331.687	-0.044	0.085
-137.429	189.712	0.128	-0.192
-136.414	800.000	-0.085	0.241
-135.399	-56.363	0.087	-0.039
-134.385	-200.000	0.013	-0.116
-133.370	-7.975	-0.408	0.276
-132.356	-200.000	-0.002	0.121
-131.341	800.000	-0.061	0.233
-130.326	800.000	-0.103	-0.304
-129.312	-3.032	0.224	-0.156
-128.297	-96.328	-0.128	-0.034
-127.283	61.481	0.034	-0.034
-126.268	-92.645	0.118	-0.033
-125.253	60.978	-0.146	-0.145
-124.239	514.898	0.146	0.341
-123.224	23.380	-0.219	-0.180
-122.210	-33.070	0.038	0.021
-121.195	-21.237	-0.257	0.157
-120.180	623.696	-0.052	0.132
-119.166	784.847	0.135	-0.369
-118.151	135.377	-0.135	0.175
-117.137	-57.197	-0.265	0.117
-116.122	-103.721	-0.185	0.043
-115.107	-200.000	-0.028	-0.156
-114.093	-200.000	0.013	-0.117
-113.078	-43.968	0.037	-0.019
-112.064	190.241	0.059	0.089
-111.049	-64.304	0.563	-0.229
-110.034	-200.000	0.008	-0.335
-109.020	-59.124	0.016	0.007
-108.005	-33.142	0.170	-0.094
-106.991	-144.998	-0.030	0.003
-105.976	29.524	-0.075	-0.064
-104.962	-173.942	0.128	0.004
-103.947	-200.000	-0.028	-0.171
-102.932	90.038	0.188	0.211
-101.918	-200.000	0.006	0.041
-100.903	-158.460	0.291	0.017
-99.889	-26.999	0.129	0.075
-98.874	-200.000	-0.009	0.071
-97.859	-175.238	-0.397	0.011
-96.845	-25.988	0.143	0.084
-95.830	372.906	-0.112	-0.229
-94.816	-70.997	-0.308	-0.116
-93.801	241.414	0.164	-0.273
-92.786	-200.000	0.008	0.323
-91.772	-22.331	-0.288	0.175
-90.757	800.000	0.051	0.163
-89.743	248.679	0.101	0.171
-88.728	-113.749	-0.087	0.017
-87.713	227.436	0.063	-0.103
-86.699	183.257	-0.052	0.076
-85.684	-63.301	0.142	-0.058
-84.670	-13.274	-0.411	0.267
-83.655	-136.130	0.329	-0.039
-82.640	227.162	-0.128	0.209
-81.626	-200.000	0.002	-0.184
-80.611	-132.486	0.478	0.061
-79.597	238.591	0.125	-0.207
-78.582	-28.802	0.174	0.100
-77.567	274.476	-0.183	0.324
-76.553	-163.522	-0.211	-0.010
-75.538	-148.941	0.313	-0.025
-74.524	-77.473	-0.216	-0.075
-73.509	274.816	-0.105	0.185
-72.494	-25.237	-0.008	0.005
-71.480	-149.897	-0.163	-0.013
-70.465	-200.000	-0.010	-0.188
-69.451	800.000	-0.065	0.204
-68.436	-65.676	0.279	-0.112
-67.422	800.000	-0.061	-0.247
-66.407	-39.309	0.160	-0.084
-65.392	-200.000	-0.014	-0.074
-64.378	-200.000	0.032	-0.175
-63.363	123.604	0.046	0.058
-62.349	-123.786	0.108	0.017
-61.334	19.877	-0.771	-0.620
-60.319	23.059	0.344	0.282
-59.305	-200.000	-0.019	-0.470
-58.290	277.661	0.438	0.779
-57.276	369.854	0.704	1.424
-56.261	-200.000	76.609	539.763
-55.246	553.764	1295.498	3111.128
-54.232	148.719	2526.409	3409.942
-53.217	109.928	2373.310	2843.495
-52.203	48.993	2119.032	1987.043
-51.188	43.804	2027.065	1853.395
-50.173	42.052	2007.919	1819.913
-49.159	54.628	2046.310	1970.108
-48.144	59.318	2065.911	2031.828
-47.130	44.660	2031.041	1864.579
-46.115	41.897	2018.901	1828.156
-45.100	41.819	2016.303	1825.016
-44.086	41.771	2013.719	1822.172
-43.071	41.755	2011.310	1819.774
-42.057	41.661	2009.592	1817.294
-41.042	41.746	2007.467	1816.071
-40.027	41.707	2005.795	1814.131
-39.013	41.771	2003.481	1812.543
-37.998	41.778	2001.770	1810.991
-36.984	41.732	2000.076	1808.967
-35.969	41.808	1998.069	1807.766
-34.954	41.733	1996.549	1805.641
-33.940	41.914	1994.403	1805.261
-32.925	41.877	1993.037	1803.626
-31.911	41.865	1991.453	1802.009
-30.896	41.866	1989.308	1800.004
-29.881	41.913	1987.808	1798.997
-28.867	41.948	1986.295	1797.876
-27.852	41.979	1984.126	1796.120
-26.838	41.948	1982.379	1794.186
-25.823	41.887	1980.731	1792.080
-24.809	41.880	1978.704	1790.112
-23.794	41.851	1977.185	1788.410
-22.779	41.938	1975.264	1787.370
-21.765	41.920	1973.616	1785.655
-20.750	41.863	1971.927	1783.547
-19.736	41.901	1970.534	1782.553
-18.721	41.880	1968.688	1780.628
-17.706	41.863	1967.298	1779.149
-16.692	41.867	1965.656	1777.625
-15.677	41.796	1964.240	1775.643
-14.663	41.867	1962.435	1774.574
-13.648	41.874	1961.465	1773.691
-12.633	41.833	1960.340	1772.236
-11.619	41.834	1959.159	1771.105
-10.604	41.886	1957.251	1769.770
-9.590	41.872	1956.001	1768.446
-8.575	41.959	1954.310	1767.618
-7.560	41.857	1953.193	1765.636
-6.546	41.849	1951.728	1764.173
-5.531	41.871	1950.377	1763.074
-4.517	41.896	1949.037	1762.013
-3.502	41.871	1947.855	1760.657
-2.487	41.862	1946.907	1759.644
-1.473	41.852	1945.721	1758.423
-0.458	41.778	1941.284	1753.685
0.556	39.133	1918.229	1715.045
1.571	32.350	1890.838	1631.813
2.586	25.807	1906.204	1587.477
3.600	23.357	1939.967	1593.447
4.615	21.733	1935.054	1574.686
5.629	16.517	1834.491	1448.173
6.644	6.945	1710.214	1273.182
7.659	1.088	1666.670	1194.589
8.673	0.404	1662.799	1186.329
9.688	0.321	1661.773	1184.845
10.702	0.349	1660.092	1183.756
11.717	0.227	1657.507	1180.852
12.731	0.751	1657.287	1184.703
13.746	6.791	1669.566	1240.944
14.761	14.840	1686.404	1317.002
15.775	17.603	1689.334	1340.954
16.790	17.141	1687.307	1335.590
17.804	16.151	1683.997	1325.083
18.819	15.154	1680.867	1314.680
19.834	14.452	1678.192	1306.967
20.848	14.163	1676.450	1303.232
21.863	13.885	1675.097	1299.892
22.877	13.735	1672.943	1296.932
23.892	13.455	1671.895	1293.812
24.907	13.329	1670.813	1291.881
25.921	13.311	1669.963	1290.964
26.936	13.313	1668.898	1290.049
27.950	13.355	1667.943	1289.520
28.965	13.375	1667.476	1289.201
29.980	13.427	1666.764	1288.945
30.994	13.549	1665.712	1288.967
32.009	13.628	1664.502	1288.527
33.023	13.609	1663.919	1287.814
34.038	13.622	1662.908	1287.021
35.053	13.623	1661.677	1285.958
36.067	13.567	1660.458	1284.470
37.082	13.479	1660.046	1283.350
38.096	13.471	1658.825	1282.234
39.111	13.501	1658.289	1281.941
40.126	13.610	1657.102	1281.749
41.140	13.518	1656.014	1280.085
42.155	13.446	1654.369	1278.148
43.169	13.397	1653.394	1276.902
44.184	13.372	1652.225	1275.690
45.199	13.291	1651.408	1274.322
46.213	13.339	1650.127	1273.592
47.228	13.226	1649.228	1271.917
48.242	13.406	1647.246	1271.657
49.257	13.516	1645.891	1271.346
50.271	13.478	1644.707	1270.025
51.286	13.507	1643.578	1269.265
52.301	13.447	1642.286	1267.694
53.315	13.388	1640.827	1266.006
54.330	13.474	1639.379	1265.430
55.344	13.415	1637.670	1263.550
56.359	13.393	1636.681	1262.506
57.374	13.380	1635.537	1261.414
58.388	13.359	1634.323	1260.209
59.403	13.307	1633.300	1258.911
60.417	13.341	1631.475	1257.649
61.432	13.355	1630.287	1256.728
62.447	13.368	1629.083	1255.792
63.461	13.295	1627.942	1254.247
64.476	13.339	1626.497	1253.354
65.490	13.206	1625.541	1251.498
66.505	13.306	1624.567	1251.393
67.520	13.312	1623.475	1250.486
68.534	13.357	1622.302	1249.818
69.549	13.312	1621.336	1248.618
70.563	13.348	1619.848	1247.633
71.578	13.311	1618.988	1246.586
72.593	13.231	1617.672	1244.859
73.607	13.206	1616.669	1243.787
74.622	13.226	1615.384	1242.837
75.636	13.220	1614.263	1241.818
76.651	13.264	1613.474	1241.439
77.666	13.240	1612.199	1240.166
78.680	13.160	1611.711	1239.081
79.695	13.205	1610.928	1238.707
80.709	13.251	1609.689	1237.988
81.724	13.305	1608.953	1237.714
82.739	13.241	1608.547	1236.816
83.753	13.281	1607.350	1236.088
84.768	13.331	1605.992	1235.303
85.782	13.478	1605.079	1235.590
86.797	13.453	1604.900	1235.159
87.812	13.512	1603.244	1234.209
88.826	13.381	1602.533	1232.577
89.841	13.346	1601.225	1231.205
90.855	13.465	1599.982	1231.026
91.870	13.412	1598.766	1229.589
92.884	13.450	1597.877	1229.077
93.899	13.422	1597.293	1228.313
94.914	13.503	1595.843	1227.683
95.928	13.471	1594.261	1226.127
96.943	13.544	1593.214	1225.752
97.957	13.521	1591.671	1224.283
98.972	13.525	1589.873	1222.824
99.987	13.386	1589.239	1221.202
101.001	13.459	1587.246	1220.100
102.016	13.422	1585.699	1218.531
103.030	13.413	1584.386	1217.348
104.045	13.422	1582.981	1216.229
105.060	13.419	1581.695	1215.113
106.074	13.373	1580.363	1213.640
107.089	13.432	1578.522	1212.550
108.103	13.385	1576.848	1210.818
109.118	13.245	1576.009	1209.039
110.133	13.273	1574.732	1208.159
111.147	13.364	1572.655	1207.119
112.162	13.262	1572.084	1205.832
113.176	13.375	1570.388	1205.247
114.191	13.447	1568.527	1204.235
115.206	13.335	1568.084	1202.977
116.220	13.400	1566.465	1202.097
117.235	13.376	1565.031	1200.719
118.249	13.374	1563.968	1199.780
119.264	13.369	1562.129	1198.227
120.279	13.383	1560.665	1197.102
121.293	13.382	1559.619	1196.189
122.308	13.380	1558.071	1194.878
123.322	13.336	1556.972	1193.614
124.337	13.334	1555.422	1192.306
125.352	13.328	1553.976	1191.044
126.366	13.362	1552.658	1190.175
127.381	13.289	1551.808	1188.895
128.395	13.365	1550.592	1188.405
129.410	13.357	1549.578	1187.466
130.424	13.334	1547.678	1185.735
131.439	13.401	1547.138	1185.696
132.454	13.305	1545.959	1184.002
133.468	13.489	1544.252	1183.905
134.483	13.498	1542.769	1182.731
135.497	13.483	1541.232	1181.337
136.512	13.518	1540.206	1180.700
137.527	13.487	1539.089	1179.514
138.541	13.524	1537.554	1178.497
139.556	13.628	1535.661	1177.684
140.570	13.493	1534.574	1175.786
141.585	13.587	1533.007	1175.151
142.600	13.563	1532.015	1174.116
143.614	13.666	1530.857	1173.856
144.629	13.727	1529.747	1173.329
145.643	13.790	1528.173	1172.465
146.658	13.719	1526.917	1170.895
147.673	13.662	1525.484	1169.291
148.687	13.711	1523.527	1168.033
149.702	13.617	1522.436	1166.432
150.716	13.571	1521.117	1164.992
151.731	13.583	1519.249	1163.546
152.746	13.568	1518.249	1162.568
153.760	13.527	1516.565	1160.888
154.775	13.561	1515.854	1160.479
155.789	13.663	1513.830	1159.544
156.804	13.591	1512.895	1158.222
157.819	13.754	1511.285	1158.024
158.833	13.702	1510.426	1156.903
159.848	13.667	1509.366	1155.741
160.862	13.639	1508.024	1154.418
161.877	13.821	1506.670	1154.547
162.892	13.794	1505.300	1153.205
163.906	13.801	1504.067	1152.206
164.921	13.653	1503.193	1150.412
165.935	13.587	1501.962	1148.906
166.950	13.641	1501.019	1148.456
167.964	13.714	1499.742	1147.883
168.979	13.797	1498.713	1147.567
169.994	13.810	1497.991	1147.008
171.008	13.767	1496.990	1145.839
172.023	13.843	1495.633	1145.226
173.037	13.760	1494.349	1143.569
174.052	13.865	1492.840	1143.032
175.067	13.817	1492.386	1142.259
176.081	13.774	1491.129	1140.896
177.096	13.845	1489.743	1140.220
178.110	13.825	1488.198	1138.806
179.125	13.774	1487.376	1137.726
180.140	13.831	1486.029	1136.981
181.154	13.882	1485.386	1136.738
182.169	13.857	1484.035	1135.436
183.183	13.893	1482.526	1134.427
184.198	13.903	1481.561	1133.653
185.213	13.960	1480.893	1133.430
186.227	13.982	1479.629	1132.517
187.242	14.004	1478.258	1131.517
188.256	13.976	1477.628	1130.740
189.271	14.046	1476.766	1130.456
190.286	14.106	1475.402	1129.719
191.300	14.103	1474.043	1128.562
192.315	13.972	1472.803	1126.621
193.329	13.807	1472.001	1124.790
194.344	13.877	1470.494	1124.013
195.359	13.962	1469.397	1123.648
196.373	13.965	1468.312	1122.744
197.388	14.032	1467.371	1122.376
198.402	14.114	1466.202	1121.937
199.417	14.109	1465.403	1121.190
200.432	14.214	1464.149	1120.841
201.446	14.133	1463.781	1119.913
202.461	14.203	1462.566	1119.357
203.475	14.287	1460.941	1118.578
204.490	14.202	1460.149	1117.299
205.504	14.235	1459.178	1116.679
206.519	14.240	1457.732	1115.512
207.534	14.201	1456.734	1114.384
208.548	14.181	1455.429	1113.154
209.563	14.164	1454.623	1112.325
210.577	14.216	1453.278	1111.550
211.592	14.246	1452.632	1111.158
212.607	14.265	1451.914	1110.631
213.621	14.273	1451.387	1110.183
214.636	14.374	1449.880	1109.610
215.650	14.268	1449.700	1108.667
216.665	14.330	1448.576	1108.119
217.680	14.321	1447.727	1107.310
218.694	14.425	1446.892	1107.267
219.709	14.429	1445.877	1106.419
220.723	14.507	1444.985	1106.154
221.738	14.532	1443.693	1105.236
222.753	14.482	1442.878	1104.183
223.767	14.429	1442.498	1103.443
224.782	14.378	1441.729	1102.423
225.796	14.525	1439.935	1101.921
226.811	14.529	1439.733	1101.694
227.826	14.616	1438.591	1101.301
228.840	14.583	1437.647	1100.264
229.855	14.518	1436.701	1099.008
230.869	14.583	1435.678	1098.559
231.884	14.559	1434.907	1097.713
232.899	14.508	1434.175	1096.724
233.913	14.540	1432.256	1095.367
234.928	14.559	1431.109	1094.520
235.942	14.564	1430.183	1093.746
236.957	14.505	1429.265	1092.562
237.972	14.539	1427.795	1091.562
238.986	14.553	1426.713	1090.733
240.001	14.498	1426.168	1089.855
241.015	14.539	1425.104	1089.218
242.030	14.484	1424.125	1088.010
243.045	14.617	1423.112	1088.007
244.059	14.753	1421.941	1087.901
245.074	14.754	1421.175	1087.226
246.088	14.709	1420.394	1086.239
247.103	14.797	1419.376	1085.936
248.117	14.791	1418.289	1084.975
249.132	14.824	1418.012	1084.881
250.147	14.771	1417.414	1083.978
251.161	14.909	1416.372	1083.983
252.176	14.990	1415.968	1084.101
253.190	14.958	1415.360	1083.334
254.205	14.983	1414.366	1082.640
255.220	15.060	1413.278	1082.209
256.234	15.084	1412.437	1081.623
257.249	15.031	1411.871	1080.749
258.263	15.191	1411.086	1081.087
259.278	15.122	1409.708	1079.493
260.293	15.126	1408.982	1078.869
261.307	15.161	1408.445	1078.583
262.322	15.082	1407.452	1077.220
263.336	15.216	1406.896	1077.563
264.351	15.177	1405.824	1076.397
265.366	15.194	1404.902	1075.703
266.380	15.284	1403.767	1075.317
267.395	15.326	1402.640	1074.628
268.409	15.284	1401.894	1073.688
269.424	15.273	1401.080	1072.901
270.439	15.238	1400.081	1071.819
271.453	15.246	1398.898	1070.868
272.468	15.279	1397.996	1070.293
273.482	15.237	1397.420	1069.492
274.497	15.259	1396.624	1068.926
275.512	15.265	1395.660	1068.136
276.526	15.271	1394.875	1067.475
277.541	15.218	1393.953	1066.341
278.555	15.373	1392.571	1066.171
279.570	15.351	1391.978	1065.484
280.585	15.390	1390.932	1064.835
281.599	15.391	1390.430	1064.362
282.614	15.432	1389.282	1063.650
283.628	15.447	1388.163	1062.798
284.643	15.431	1387.382	1062.001
285.657	15.472	1386.203	1061.265
286.672	15.403	1385.482	1060.186
287.687	15.480	1384.369	1059.722
288.701	15.469	1383.191	1058.661
289.716	15.519	1382.256	1058.163
290.730	15.471	1381.537	1057.221
291.745	15.555	1380.599	1056.934
292.760	15.496	1380.023	1056.034
293.774	15.523	1378.598	1055.018
294.789	15.570	1377.692	1054.525
295.803	15.476	1377.628	1053.794
296.818	15.596	1376.766	1053.790
297.833	15.612	1375.273	1052.657
298.847	15.537	1374.360	1051.392
299.862	15.600	1373.399	1050.961
300.876	15.623	1372.333	1050.196
301.891	15.631	1371.309	1049.367
302.906	15.684	1370.348	1048.869
303.920	15.766	1369.668	1048.768
304.935	15.734	1369.212	1048.127
305.949	15.771	1368.375	1047.624
306.964	15.743	1367.556	1046.728
307.979	15.877	1366.878	1046.954
308.993	15.849	1365.736	1045.813
310.008	15.814	1364.839	1044.815
311.022	15.795	1364.160	1044.085
312.037	15.935	1362.665	1043.715
313.052	15.895	1361.945	1042.827
314.066	15.969	1360.503	1042.085
315.081	15.923	1359.919	1041.260
316.095	15.734	1359.247	1039.485
317.110	15.906	1357.836	1039.378
318.125	15.834	1357.270	1038.408
319.139	15.850	1356.198	1037.596
320.154	15.875	1355.156	1036.859
321.168	15.917	1353.997	1036.142
322.183	15.802	1353.565	1035.012
323.197	15.838	1352.696	1034.478
324.212	15.934	1351.477	1034.039
325.227	15.960	1350.617	1033.453
326.241	16.070	1349.648	1033.291
327.256	16.093	1348.663	1032.591
328.270	15.928	1348.308	1031.217
329.285	15.978	1347.464	1030.785
330.300	16.014	1346.339	1030.054
331.314	15.900	1345.878	1028.909
332.329	16.081	1344.493	1028.868
333.343	15.871	1344.129	1027.214
334.358	16.107	1342.553	1027.360
335.373	16.109	1342.332	1027.113
336.387	16.156	1341.357	1026.562
337.402	16.076	1340.697	1025.476
338.416	16.176	1339.643	1025.186
339.431	16.187	1339.184	1024.812
340.446	16.229	1338.207	1024.230
341.460	16.178	1337.636	1023.391
342.475	16.163	1336.746	1022.531
343.489	16.335	1335.539	1022.556
344.504	16.373	1334.492	1021.893
345.519	16.283	1333.840	1020.763
346.533	16.379	1332.877	1020.514
347.548	16.476	1331.854	1020.227
348.562	16.434	1330.998	1019.228
349.577	16.448	1330.107	1018.538
350.592	16.485	1329.433	1018.156
351.606	16.401	1328.857	1017.121
352.621	16.352	1327.828	1015.946
353.635	16.352	1326.535	1014.864
354.650	16.339	1325.797	1014.136
355.665	16.353	1324.736	1013.318
356.679	16.420	1323.509	1012.690
357.694	16.472	1322.303	1011.987
358.708	16.355	1321.609	1010.668
359.723	16.483	1320.843	1010.760
360.738	16.527	1319.609	1009.988
361.752	16.526	1318.333	1008.915
362.767	16.550	1317.442	1008.289
363.781	16.564	1316.661	1007.685
364.796	16.568	1315.971	1007.092
365.810	16.598	1315.332	1006.689
366.825	16.613	1314.467	1006.030
367.840	16.579	1313.899	1005.306
368.854	16.652	1313.124	1005.054
369.869	16.761	1312.490	1005.125
370.883	16.690	1312.109	1004.323
371.898	16.803	1310.830	1003.930
372.913	16.706	1310.081	1002.690
373.927	16.731	1309.504	1002.306
374.942	16.770	1308.591	1001.753
375.956	16.796	1307.672	1001.111
376.971	16.875	1306.959	1000.946
377.986	16.845	1306.118	1000.035
379.000	16.811	1305.389	999.190
380.015	16.873	1304.619	998.874
381.029	16.855	1303.869	998.107
382.044	16.902	1303.173	997.765
383.059	17.075	1302.342	998.053
384.073	16.985	1301.924	997.120
385.088	17.001	1301.221	996.582
386.102	16.916	1300.789	995.665
387.117	16.954	1300.068	995.247
388.132	17.007	1299.007	994.658
389.146	16.948	1298.371	993.742
390.161	17.022	1297.307	993.269
391.175	17.013	1296.435	992.461
392.190	16.982	1295.726	991.653
393.205	17.002	1295.080	991.185
394.219	17.103	1294.055	990.901
395.234	17.043	1292.587	989.343
396.248	17.077	1291.108	988.322
397.263	17.043	1290.174	987.321
398.278	17.136	1288.705	986.646
399.292	17.118	1287.641	985.641
400.307	17.188	1286.366	984.983
401.321	17.181	1285.552	984.234
402.336	17.069	1285.197	983.225
403.350	17.090	1283.813	982.204
404.365	17.118	1283.083	981.718
405.380	17.173	1282.058	981.163
406.394	17.083	1281.599	980.209
407.409	17.214	1280.446	979.995
408.423	17.165	1279.481	978.887
409.438	17.256	1279.127	979.055
410.453	17.312	1278.277	978.637
411.467	17.276	1278.082	978.193
412.482	17.304	1277.558	977.872
413.496	17.336	1276.962	977.508
414.511	17.482	1275.594	977.216
415.526	17.477	1274.638	976.365
416.540	17.457	1273.721	975.466
417.555	17.524	1273.176	975.345
418.569	17.544	1273.184	975.380
419.584	17.538	1272.580	974.792
420.599	17.542	1271.731	974.078
421.613	78.683	1321.706	1361.843
422.628	77.361	1328.994	1361.967
