DTS Sentinel unit serial number:	SN413079Multiplexer serial number:	ORYXHardware model number:	OX4-SRSoftware version number:	ORYX F/W v4.00 Oryx Data Collector v3.7.2.0data status	okinstallation	princeton_trtdifferential loss correction	single-endedforward channel	channel 4reverse channel	N/Adate	2019/09/12time	18:41:18forward acquisition time	15.00reverse acquisition time	0.00gamma	496.2192k internal	0.2307k external	0.2307temperature offset calibration	1.0137default loss term (dB/km)	0.3790temperature slope calibration	1.0000multiplexer offset coefficient	1.0000multiplexer slope coefficient	1.0000fibre end	0.00T internal ref (°C)	33.06T ext. ref 1 (°C)	2.97T ext. ref 2 (°C)	27.63length (m)	temperature (°C)	Stokes	anti-Stokes-747.200	208.058	0.126	0.199
-746.185	-200.000	0.128	0.751
-745.171	-122.745	-0.520	-0.085
-744.156	-200.000	-0.001	-0.224
-743.142	-30.097	-0.460	0.266
-742.127	800.000	-0.133	0.386
-741.112	260.545	-0.211	-0.371
-740.098	-200.000	-0.037	0.396
-739.083	-114.378	0.384	0.075
-738.069	-31.139	-0.381	0.218
-737.054	742.433	0.229	0.626
-736.039	69.575	-0.513	0.537
-735.025	-153.033	0.513	-0.037
-734.010	324.432	0.333	-0.646
-732.996	24.610	-0.632	0.531
-731.981	-200.000	-0.056	0.302
-730.966	428.760	-0.127	0.279
-729.952	293.500	-0.389	0.721
-728.937	135.031	-0.355	0.468
-727.923	-6.031	0.433	-0.301
-726.908	295.307	0.184	0.343
-725.894	-5.876	0.499	0.347
-724.879	30.561	-0.500	-0.434
-723.864	-51.699	-0.971	-0.460
-722.850	-159.041	0.292	-0.017
-721.835	42.973	-0.048	-0.045
-720.821	235.374	0.334	-0.561
-719.806	148.321	0.357	-0.490
-718.791	-119.206	0.437	0.078
-717.777	-200.000	0.028	0.569
-716.762	-0.202	0.654	0.473
-715.748	151.037	-0.447	0.617
-714.733	39.774	0.438	0.399
-713.718	-200.000	-0.083	0.376
-712.704	39.854	-0.554	-0.505
-711.689	-200.000	0.090	0.576
-710.675	-200.000	0.070	-0.443
-709.660	110.705	0.239	0.292
-708.645	45.982	0.273	0.256
-707.631	117.169	-0.213	0.265
-706.616	-65.210	-0.628	0.257
-705.602	-186.256	-0.759	0.011
-704.587	-13.149	0.196	-0.130
-703.572	-200.000	0.017	-0.412
-702.558	-146.142	0.743	-0.066
-701.543	-134.866	-0.854	0.105
-700.529	-200.000	-0.006	0.162
-699.514	-23.614	-0.889	0.542
-698.499	93.823	0.382	0.439
-697.485	-3.894	-0.295	0.207
-696.470	108.279	-0.379	-0.459
-695.456	413.062	-0.431	-0.929
-694.441	194.220	-0.305	0.469
-693.426	204.498	0.385	0.605
-692.412	-22.858	-0.187	-0.115
-691.397	254.230	0.366	0.636
-690.383	-143.710	-0.644	0.062
-689.368	-200.000	-0.114	1.201
-688.354	800.000	-0.090	-0.325
-687.339	800.000	0.172	-0.679
-686.324	-200.000	0.073	-0.588
-685.310	-200.000	0.008	0.047
-684.295	-95.189	0.763	0.209
-683.281	-200.000	-0.042	0.662
-682.266	2.078	-0.156	-0.114
-681.251	-1.503	-0.262	0.188
-680.237	-113.435	0.943	0.188
-679.222	-30.683	-0.402	-0.231
-678.208	47.350	0.132	-0.125
-677.193	-200.000	-0.018	0.283
-676.178	-121.607	0.525	-0.088
-675.164	-109.419	0.324	-0.070
-674.149	800.000	0.063	-0.191
-673.135	-200.000	-0.041	0.184
-672.120	-87.725	0.428	0.131
-671.105	-200.000	0.017	0.443
-670.091	107.162	0.081	-0.097
-669.076	69.530	0.585	0.610
-668.062	-34.496	-0.901	0.501
-667.047	-200.000	-0.122	0.643
-666.032	-200.000	0.067	0.642
-665.018	40.593	-0.231	-0.211
-664.003	502.264	0.282	0.660
-662.989	38.347	0.362	-0.327
-661.974	-26.682	-0.477	-0.283
-660.959	-200.000	0.022	0.115
-659.945	355.393	-0.170	0.343
-658.930	-71.475	0.335	0.127
-657.916	389.436	0.149	-0.313
-656.901	-37.648	-0.602	-0.325
-655.886	-200.000	0.017	-0.392
-654.872	-122.633	0.599	0.098
-653.857	-15.138	0.543	-0.353
-652.843	-46.129	0.491	-0.245
-651.828	321.898	0.128	0.247
-650.814	18.798	-0.477	0.387
-649.799	306.346	-0.108	-0.204
-648.784	-159.124	-0.952	-0.054
-647.770	-129.913	0.530	-0.074
-646.755	116.650	0.446	-0.554
-645.741	-200.000	-0.006	0.707
-644.726	-56.981	-0.453	-0.202
-643.711	218.018	-0.134	0.217
-642.697	77.523	0.441	-0.476
-641.682	-200.000	0.084	-0.408
-640.668	81.665	0.103	-0.112
-639.653	733.597	0.125	-0.338
-638.638	-88.453	-0.673	0.203
-637.624	-86.276	-0.322	0.100
-636.609	-32.760	-0.178	0.100
-635.595	188.430	-0.501	-0.759
-634.580	800.000	-0.335	-1.218
-633.565	443.990	-0.307	0.681
-632.551	31.077	0.267	-0.232
-631.536	-15.040	0.084	-0.055
-630.522	126.982	0.189	0.243
-629.507	-120.327	-0.977	0.169
-628.492	-73.849	-0.325	-0.120
-627.478	56.025	-0.689	0.676
-626.463	-200.000	0.000	-0.027
-625.449	-17.752	0.429	0.272
-624.434	50.133	-0.520	-0.497
-623.419	-200.000	0.083	0.682
-622.405	-157.252	0.871	0.053
-621.390	206.990	-0.199	-0.313
-620.376	180.324	-0.609	-0.903
-619.361	-148.332	-0.593	-0.049
-618.346	226.013	-0.308	-0.506
-617.332	-200.000	-0.089	-0.590
-616.317	-128.623	-0.470	0.067
-615.303	-103.752	-1.022	-0.242
-614.288	-200.000	-0.073	-0.744
-613.273	61.433	0.208	-0.209
-612.259	23.906	-0.138	-0.115
-611.244	-200.000	-0.011	-0.266
-610.230	206.278	-0.152	-0.239
-609.215	-43.025	0.582	-0.298
-608.201	-200.000	-0.131	-0.787
-607.186	800.000	-0.227	-0.775
-606.171	800.000	-0.168	0.682
-605.157	-74.594	1.268	0.462
-604.142	-122.698	-0.761	-0.125
-603.128	-69.931	0.190	0.073
-602.113	800.000	-0.158	-0.518
-601.098	-87.339	-0.413	-0.127
-600.084	800.000	0.119	0.406
-599.069	26.254	-0.235	0.198
-598.055	161.008	-0.266	-0.376
-597.040	362.106	0.189	-0.383
-596.025	25.485	0.673	0.566
-595.011	-200.000	-0.029	-0.435
-593.996	263.193	-0.066	0.116
-592.982	-200.000	-0.091	0.404
-591.967	242.681	0.388	-0.656
-590.952	24.054	0.170	-0.142
-589.938	-200.000	-0.144	0.979
-588.923	-144.587	0.723	-0.068
-587.909	-102.792	0.364	0.088
-586.894	-130.956	-0.671	0.091
-585.879	-141.091	-0.347	0.036
-584.865	-154.251	-0.705	0.048
-583.850	-87.965	1.036	-0.315
-582.836	800.000	-0.131	-0.425
-581.821	229.019	0.134	-0.222
-580.806	-99.810	-0.597	-0.151
-579.792	-142.060	0.573	-0.058
-578.777	89.934	0.444	-0.501
-577.763	-56.707	-0.857	0.383
-576.748	-125.630	0.735	-0.113
-575.733	798.669	-0.238	-0.664
-574.719	163.334	0.281	-0.398
-573.704	193.614	-0.068	-0.104
-572.690	-200.000	-0.150	0.798
-571.675	-129.047	-0.774	0.109
-570.661	-200.000	-0.179	-0.963
-569.646	-6.154	-0.221	0.152
-568.631	-200.000	0.078	0.803
-567.617	-86.132	0.436	-0.136
-566.602	5.474	0.231	0.172
-565.588	-5.351	0.350	0.243
-564.573	-134.383	0.926	0.115
-563.558	303.860	0.100	-0.187
-562.544	-0.286	-0.450	-0.323
-561.529	-78.841	-0.465	-0.160
-560.515	-75.379	0.289	-0.104
-559.500	406.662	0.426	-0.909
-558.485	-200.000	-0.064	-1.025
-557.471	101.878	-0.792	-0.933
-556.456	-126.734	-0.991	0.148
-555.442	46.758	0.847	0.795
-554.427	-97.100	0.488	0.129
-553.412	-124.420	-0.633	-0.100
-552.398	-200.000	0.051	-0.320
-551.383	-116.952	-0.558	-0.103
-550.369	457.513	-0.225	0.505
-549.354	800.000	0.246	0.808
-548.339	-200.000	-0.046	0.386
-547.325	-143.376	0.120	0.012
-546.310	-51.115	-0.360	-0.170
-545.296	207.327	-0.172	0.271
-544.281	-96.316	-0.491	-0.131
-543.266	774.962	0.129	0.355
-542.252	-90.458	0.512	-0.150
-541.237	-148.837	0.751	0.061
-540.223	271.896	0.529	-0.940
-539.208	-26.005	-0.215	-0.128
-538.193	263.442	0.329	0.576
-537.179	800.000	0.095	-0.287
-536.164	800.000	-0.135	-0.399
-535.150	-200.000	0.032	0.346
-534.135	-19.804	-0.562	-0.350
-533.121	-57.901	-0.568	-0.250
-532.106	65.892	0.763	-0.780
-531.091	-200.000	0.070	-0.863
-530.077	73.541	-0.189	0.200
-529.062	800.000	0.296	0.995
-528.048	800.000	-0.064	-0.271
-527.033	-59.896	-0.584	0.252
-526.018	-30.476	0.992	-0.567
-525.004	-98.756	0.107	0.027
-523.989	800.000	0.205	0.780
-522.975	800.000	-0.090	-0.282
-521.960	40.695	0.808	0.734
-520.945	-200.000	-0.079	0.548
-519.931	-103.168	0.631	-0.150
-518.916	149.597	0.178	-0.244
-517.902	257.677	0.281	-0.487
-516.887	72.904	0.042	-0.044
-515.872	-136.535	-0.748	0.087
-514.858	800.000	0.246	-0.785
-513.843	-34.287	0.152	0.084
-512.829	28.434	0.401	0.341
-511.814	245.307	-0.199	0.338
-510.799	112.837	-0.649	0.792
-509.785	-79.367	-0.257	-0.088
-508.770	39.241	0.698	-0.630
-507.756	800.000	-0.248	-0.856
-506.741	1.155	0.661	0.478
-505.726	-141.929	0.359	-0.036
-504.712	-38.842	0.298	-0.158
-503.697	-161.684	-0.416	0.021
-502.683	-132.050	-0.233	0.031
-501.668	-107.088	0.093	0.021
-500.653	-170.602	0.742	-0.026
-499.639	-200.000	0.002	0.165
-498.624	-200.000	-0.022	0.271
-497.610	404.437	-0.094	-0.199
-496.595	141.346	-0.274	-0.365
-495.581	60.815	-0.208	-0.208
-494.566	-200.000	0.038	-0.373
-493.551	67.738	0.257	0.265
-492.537	800.000	-0.145	0.568
-491.522	-200.000	-0.053	0.372
-490.508	47.510	0.443	-0.416
-489.493	-103.095	-0.256	-0.061
-488.478	-200.000	-0.002	-0.749
-487.464	-200.000	-0.846	0.001
-486.449	-129.213	0.703	-0.099
-485.435	116.092	-0.360	-0.444
-484.420	-131.370	0.167	0.022
-483.405	67.194	-0.572	0.587
-482.391	177.611	0.410	0.602
-481.376	-200.000	0.019	0.202
-480.362	-2.403	-0.571	-0.403
-479.347	-126.769	-0.313	-0.047
-478.332	-34.573	0.347	-0.191
-477.318	-109.634	-0.856	-0.181
-476.303	428.812	0.242	-0.526
-475.289	-32.502	0.545	-0.306
-474.274	-82.348	-0.374	0.122
-473.259	-115.773	0.709	0.134
-472.245	-82.113	-0.370	-0.121
-471.230	31.409	-0.579	0.500
-470.216	-87.937	-0.648	0.196
-469.201	487.182	0.198	0.455
-468.186	410.437	0.458	0.977
-467.172	800.000	-0.363	-1.092
-466.157	254.754	-0.265	0.457
-465.143	201.924	0.514	0.796
-464.128	193.743	-0.069	-0.106
-463.113	111.458	-0.166	-0.201
-462.099	87.848	0.254	-0.283
-461.084	502.711	0.439	-1.020
-460.070	-39.667	-1.516	-0.798
-459.055	174.100	-0.176	0.255
-458.040	331.499	-0.215	0.416
-457.026	-29.532	0.153	0.088
-456.011	205.749	-0.496	0.776
-454.997	61.626	-0.152	0.152
-453.982	800.000	0.196	0.707
-452.968	-200.000	-0.086	0.494
-451.953	549.185	-0.397	-0.956
-450.938	-80.871	-0.947	-0.316
-449.924	45.491	-0.469	-0.436
-448.909	647.683	-0.039	0.101
-447.895	-107.194	0.650	0.144
-446.880	142.127	0.454	-0.605
-445.865	-63.789	-0.323	-0.133
-444.851	432.363	0.238	0.519
-443.836	-101.907	-0.560	0.136
-442.822	-131.694	-0.153	-0.020
-441.807	-69.164	-0.510	0.197
-440.792	-83.955	-0.402	-0.129
-439.778	800.000	-0.293	0.957
-438.763	-145.024	0.457	-0.042
-437.749	-77.258	0.161	0.056
-436.734	276.204	0.263	0.469
-435.719	488.467	0.147	-0.338
-434.705	-200.000	0.012	0.112
-433.690	-60.947	0.400	0.170
-432.676	-200.000	0.166	1.150
-431.661	-88.277	0.117	-0.035
-430.646	134.640	-0.239	0.311
-429.632	23.617	0.676	0.559
-428.617	210.398	-0.172	0.272
-427.603	85.251	-0.365	0.403
-426.588	-29.181	-0.402	0.232
-425.573	-187.393	0.926	0.013
-424.559	65.178	-0.340	-0.345
-423.544	-200.000	0.091	-0.421
-422.530	-86.010	0.453	0.141
-421.515	-200.000	0.015	0.593
-420.500	202.222	0.435	-0.674
-419.486	-119.243	-0.969	-0.170
-418.471	85.449	0.372	-0.410
-417.457	736.195	-0.342	-0.921
-416.442	671.071	-0.277	-0.721
-415.428	-200.000	0.087	-0.626
-414.413	40.018	-0.402	-0.363
-413.398	-104.559	-0.403	0.093
-412.384	-109.723	-0.628	-0.133
-411.369	-200.000	-0.097	0.717
-410.355	72.756	-0.373	-0.390
-409.340	-200.000	-0.249	-1.113
-408.325	-39.648	-0.985	0.517
-407.311	-71.718	-0.196	-0.073
-406.296	310.387	-0.018	0.034
-405.282	-200.000	-0.131	0.748
-404.267	72.052	-0.256	-0.267
-403.252	-200.000	-0.220	1.003
-402.238	-156.370	0.386	-0.024
-401.223	800.000	0.182	0.682
-400.209	225.134	-0.505	0.821
-399.194	-2.563	0.493	0.346
-398.179	-95.202	0.486	-0.131
-397.165	-117.892	0.409	-0.074
-396.150	-200.000	0.128	0.605
-395.136	29.894	1.020	0.872
-394.121	-120.483	-0.041	-0.007
-393.106	20.017	0.200	0.162
-392.092	-167.743	0.510	-0.020
-391.077	-200.000	0.005	1.151
-390.063	800.000	0.065	-0.268
-389.048	-91.924	0.863	-0.245
-388.033	-141.635	0.316	0.032
-387.019	-18.774	0.258	0.161
-386.004	355.377	0.065	0.130
-384.990	-113.511	0.742	0.146
-383.975	-56.880	-0.221	0.098
-382.960	-15.741	0.586	0.375
-381.946	-120.729	0.584	-0.099
-380.931	-200.000	0.028	-0.583
-379.917	-6.892	0.248	-0.169
-378.902	-96.650	-1.083	0.286
-377.888	7.859	0.315	0.237
-376.873	-125.447	-0.716	0.109
-375.858	-175.915	-0.937	-0.025
-374.844	-200.000	-0.308	1.585
-373.829	800.000	0.332	0.960
-372.815	-92.802	0.628	0.176
-371.800	13.855	-0.376	0.293
-370.785	-116.842	0.911	0.167
-369.771	102.181	-0.417	0.489
-368.756	-200.000	-0.090	-0.436
-367.742	-156.251	0.302	-0.019
-366.727	46.691	-0.358	-0.333
-365.712	-90.594	0.941	0.273
-364.698	69.235	-0.375	0.386
-363.683	800.000	-0.012	-0.045
-362.669	-37.150	-0.383	0.205
-361.654	-46.447	-0.371	0.183
-360.639	-114.341	0.394	0.076
-359.625	71.566	-0.593	-0.617
-358.610	-25.978	-0.496	-0.293
-357.596	-197.945	0.338	0.002
-356.581	-200.000	0.172	-0.791
-355.566	-200.000	-0.128	-0.620
-354.552	-200.000	-0.152	-0.990
-353.537	-3.422	-0.413	-0.288
-352.523	36.780	-0.599	-0.530
-351.508	-123.270	-0.752	-0.120
-350.493	-46.179	-0.449	0.222
-349.479	132.136	-0.460	-0.594
-348.464	-133.117	0.422	-0.054
-347.450	-2.701	-0.233	0.163
-346.435	0.362	0.448	-0.320
-345.420	-4.790	0.327	-0.226
-344.406	127.735	-0.449	-0.571
-343.391	-200.000	0.007	0.681
-342.377	-9.417	0.392	0.262
-341.362	97.986	-0.278	-0.320
-340.348	-97.314	0.781	0.204
-339.333	-0.733	0.665	0.472
-338.318	-45.195	-0.183	0.091
-337.304	229.365	0.194	0.317
-336.289	-200.000	0.044	0.342
-335.275	76.888	-0.066	-0.070
-334.260	235.936	-0.265	0.438
-333.245	-200.000	-0.188	1.280
-332.231	210.284	0.280	-0.439
-331.216	28.349	0.186	-0.157
-330.202	119.692	0.476	-0.590
-329.187	78.253	0.888	0.949
-328.172	0.008	0.556	0.396
-327.158	-102.400	0.357	0.086
-326.143	-72.727	0.147	-0.054
-325.129	198.086	-0.359	-0.549
-324.114	-180.582	0.075	0.002
-323.099	492.767	0.325	-0.744
-322.085	428.056	0.066	0.143
-321.070	107.238	-0.215	0.256
-320.056	-172.369	-0.914	0.029
-319.041	-138.316	0.354	0.039
-318.026	186.236	-0.412	0.613
-317.012	-46.616	-0.404	-0.198
-315.997	-200.000	0.132	0.858
-314.983	303.304	-0.249	0.461
-313.968	13.499	0.992	0.770
-312.953	-4.952	0.782	0.539
-311.939	-200.000	-0.004	-0.120
-310.924	-168.323	0.149	-0.006
-309.910	-62.181	-0.719	-0.300
-308.895	-162.945	0.962	-0.047
-307.880	-187.589	0.384	-0.005
-306.866	123.599	0.180	0.226
-305.851	-143.737	0.123	-0.012
-304.837	-129.721	0.055	0.008
-303.822	91.473	-0.350	-0.393
-302.807	171.369	0.194	-0.278
-301.793	117.593	0.401	0.493
-300.778	-200.000	-0.042	0.665
-299.764	-110.892	-0.656	0.135
-298.749	374.974	-0.437	-0.889
-297.735	-197.056	0.258	0.002
-296.720	-200.000	-0.024	0.672
-295.705	-146.303	-0.804	0.070
-294.691	-38.918	-0.082	0.043
-293.676	-75.187	-0.259	0.093
-292.662	-200.000	0.036	0.588
-291.647	190.858	0.182	-0.274
-290.632	163.092	-0.425	-0.596
-289.618	800.000	0.153	0.571
-288.603	-23.272	-0.466	-0.280
-287.589	-39.695	0.449	0.234
-286.574	-178.565	0.100	-0.002
-285.559	800.000	-0.235	-0.770
-284.545	37.089	0.263	0.232
-283.530	-200.000	-0.080	0.876
-282.516	85.511	0.129	0.141
-281.501	-124.683	-0.506	-0.078
-280.486	86.135	-0.286	0.314
-279.472	204.754	-0.475	-0.736
-278.457	-14.213	0.854	0.550
-277.443	-200.000	-0.025	-0.995
-276.428	-200.000	-0.066	0.365
-275.413	546.580	0.161	0.384
-274.399	-128.029	0.715	0.102
-273.384	418.089	-0.071	0.150
-272.370	-78.193	-0.868	-0.298
-271.355	231.942	-0.630	-1.032
-270.340	-200.000	-0.064	-0.390
-269.326	164.022	-0.237	0.333
-268.311	163.719	0.497	0.698
-267.297	-200.000	0.109	1.107
-266.282	-127.721	-0.391	-0.056
-265.267	501.457	0.104	-0.240
-264.253	800.000	0.232	0.678
-263.238	800.000	0.161	0.531
-262.224	253.267	-0.159	-0.270
-261.209	-178.330	0.688	-0.016
-260.195	-189.217	-0.765	-0.009
-259.180	-116.720	-0.752	-0.138
-258.165	-200.000	0.016	0.532
-257.151	-99.749	-0.338	0.085
-256.136	-8.448	0.277	0.186
-255.122	-66.324	0.536	0.213
-254.107	-200.000	-0.021	0.095
-253.092	126.102	-0.431	-0.543
-252.078	800.000	0.043	0.159
-251.063	-175.922	1.013	-0.027
-250.049	-67.026	0.423	-0.167
-249.034	163.747	0.290	-0.407
-248.019	-80.668	-0.374	0.124
-247.005	-51.356	-0.988	0.461
-245.990	-22.058	-0.433	0.262
-244.976	9.613	-0.403	-0.305
-243.961	-141.828	0.841	0.084
-242.946	5.412	0.326	0.240
-241.932	-97.131	0.610	-0.159
-240.917	44.723	0.561	-0.514
-239.903	352.288	0.046	0.090
-238.888	-89.346	0.233	0.068
-237.873	-31.682	1.039	0.581
-236.859	39.551	-0.627	-0.560
-235.844	283.191	0.114	-0.204
-234.830	-200.000	0.044	-0.256
-233.815	-200.000	-0.067	0.718
-232.800	-200.000	-0.140	0.841
-231.786	-83.230	-0.287	0.092
-230.771	-200.000	-0.051	0.462
-229.757	-200.000	-0.085	0.604
-228.742	-130.788	0.522	0.070
-227.727	800.000	-0.293	-0.930
-226.713	-125.375	0.265	-0.040
-225.698	50.888	-0.323	0.305
-224.684	800.000	0.177	-0.654
-223.669	-19.143	0.325	-0.201
-222.655	114.702	0.259	-0.314
-221.640	170.344	-0.194	0.277
-220.625	-44.958	0.617	0.306
-219.611	-24.110	0.636	0.379
-218.596	66.440	0.391	-0.396
-217.582	800.000	-0.264	0.862
-216.567	260.484	-0.177	-0.305
-215.552	-19.436	-0.222	0.137
-214.538	201.006	0.219	0.336
-213.523	510.045	-0.190	-0.440
-212.509	-83.780	0.635	0.202
-211.494	-47.570	-0.412	-0.199
-210.479	-71.692	-0.434	0.161
-209.465	-200.000	0.100	-0.679
-208.450	430.815	-0.099	0.214
-207.436	-200.000	0.942	0.003
-206.421	-80.325	0.527	0.175
-205.406	-200.000	-0.101	-0.899
-204.392	-200.000	0.793	-0.003
-203.377	407.884	0.234	-0.494
-202.363	266.936	0.331	-0.576
-201.348	-170.342	-0.362	0.013
-200.333	-123.804	-0.576	-0.091
-199.319	-109.985	-0.985	0.205
-198.304	-200.000	0.075	0.333
-197.290	359.627	0.120	0.240
-196.275	800.000	-0.277	0.919
-195.260	-51.773	0.497	0.230
-194.246	77.442	0.505	0.535
-193.231	170.267	-0.080	-0.114
-192.217	17.061	-0.387	0.305
-191.202	-72.569	0.473	0.174
-190.187	800.000	-0.135	0.467
-189.173	118.018	-0.246	0.302
-188.158	76.791	0.097	-0.102
-187.144	800.000	-0.287	-1.083
-186.129	507.837	0.273	-0.630
-185.114	309.906	0.202	-0.376
-184.100	45.801	-0.452	-0.415
-183.085	2.139	-0.085	0.061
-182.071	-111.570	-0.470	-0.095
-181.056	800.000	0.183	-0.617
-180.042	312.759	0.144	-0.269
-179.027	-29.843	-0.241	0.137
-178.012	40.331	-0.315	-0.282
-176.998	412.884	0.280	0.593
-175.983	-46.204	-0.125	-0.061
-174.969	405.400	0.641	-1.344
-173.954	-65.272	0.872	-0.349
-172.939	-143.643	-0.223	0.021
-171.925	-132.349	-0.166	-0.021
-170.910	291.607	0.258	-0.468
-169.896	-19.198	0.153	0.094
-168.881	-125.055	-0.791	-0.121
-167.866	-108.653	-0.398	0.085
-166.852	-167.191	-0.295	0.012
-165.837	23.881	-0.351	-0.288
-164.823	-46.604	-0.435	0.212
-163.808	-27.394	0.595	-0.344
-162.793	-58.864	0.655	-0.282
-161.779	-147.170	-0.272	-0.023
-160.764	-56.204	0.469	0.208
-159.750	-37.654	0.439	0.233
-158.735	42.207	-0.960	0.867
-157.720	223.089	0.515	0.826
-156.706	-43.814	0.730	-0.365
-155.691	-178.574	-0.415	0.010
-154.677	83.128	0.831	-0.898
-153.662	-58.917	-0.233	-0.100
-152.647	800.000	0.119	-0.332
-151.633	-54.277	0.530	-0.239
-150.618	334.991	0.210	0.404
-149.604	-88.572	-0.428	0.127
-148.589	355.806	0.287	0.567
-147.574	376.854	0.115	-0.233
-146.560	800.000	0.069	-0.299
-145.545	800.000	0.239	0.861
-144.531	699.141	-0.299	-0.781
-143.516	-200.000	-0.067	0.441
-142.502	-200.000	0.042	-0.347
-141.487	-120.030	-0.097	0.016
-140.472	-58.819	0.866	0.372
-139.458	147.657	0.450	0.602
-138.443	-83.479	1.223	0.389
-137.429	-124.042	0.722	0.113
-136.414	224.614	-0.352	-0.565
-135.399	-53.566	-0.317	-0.144
-134.385	410.310	-0.384	0.808
-133.370	800.000	0.096	0.323
-132.356	-200.000	0.108	0.666
-131.341	-200.000	0.047	-0.322
-130.326	515.115	-0.156	-0.362
-129.312	-200.000	0.031	0.144
-128.297	-150.967	-0.224	-0.017
-127.283	305.239	-0.118	-0.217
-126.268	800.000	-0.026	-0.074
-125.253	89.443	0.468	0.518
-124.239	-68.493	0.461	-0.178
-123.224	98.884	-0.250	0.286
-122.210	-10.388	0.794	-0.522
-121.195	-81.553	-0.150	0.049
-120.180	-200.000	0.037	0.433
-119.166	-76.306	0.542	0.190
-118.151	-75.837	0.718	-0.253
-117.137	-51.556	0.768	0.356
-116.122	73.501	-0.594	-0.617
-115.107	-147.859	0.602	0.050
-114.093	-4.220	-0.797	-0.547
-113.078	-30.418	0.482	-0.271
-112.064	800.000	0.106	0.453
-111.049	-57.553	0.488	0.212
-110.034	-200.000	0.062	-0.321
-109.020	-109.845	-0.720	0.150
-108.005	-149.626	0.169	-0.013
-106.991	-182.264	0.749	0.014
-105.976	269.689	0.115	-0.201
-104.962	-200.000	-0.103	0.479
-103.947	295.485	0.258	-0.468
-102.932	65.838	0.378	0.380
-101.918	800.000	-0.136	0.375
-100.903	275.368	-0.173	-0.303
-99.889	15.214	0.286	0.222
-98.874	-62.320	-0.467	-0.193
-97.859	96.002	-0.451	-0.510
-96.845	358.968	0.168	-0.333
-95.830	169.547	0.261	-0.370
-94.816	19.259	-0.611	0.486
-93.801	56.065	0.488	-0.470
-92.786	188.873	-0.493	-0.732
-91.772	-13.786	-0.299	-0.192
-90.757	207.517	-0.202	-0.313
-89.743	315.340	0.076	-0.143
-88.728	-87.321	0.879	0.264
-87.713	-200.000	-0.050	0.257
-86.699	-42.798	0.118	0.060
-85.684	-23.355	0.277	0.165
-84.670	239.198	0.513	-0.846
-83.655	-38.757	0.792	0.414
-82.640	-5.696	0.748	0.508
-81.626	-36.340	0.784	-0.419
-80.611	129.272	-0.175	-0.222
-79.597	167.673	-0.297	0.419
-78.582	-200.000	-0.039	0.222
-77.567	-200.000	-0.100	0.575
-76.553	-127.163	0.680	0.099
-75.538	-70.663	0.325	0.122
-74.524	230.961	0.206	-0.335
-73.509	554.074	-0.183	0.436
-72.494	65.106	0.369	0.369
-71.480	65.675	0.357	0.358
-70.465	-200.000	-0.040	1.103
-69.451	-57.677	0.569	0.247
-68.436	-200.000	-0.046	0.216
-67.422	29.724	0.132	-0.111
-66.407	800.000	0.081	-0.336
-65.392	-106.311	0.611	-0.135
-64.378	234.080	0.168	0.273
-63.363	-87.599	-0.650	-0.194
-62.349	82.037	0.150	0.161
-61.334	0.615	-0.387	-0.274
-60.319	27.518	0.702	0.585
-59.305	391.131	-0.612	-1.258
-58.290	-13.840	1.889	1.209
-57.276	596.160	0.675	1.654
-56.261	-200.000	94.463	570.021
-55.246	635.412	1364.138	3426.572
-54.232	197.861	2538.351	3838.773
-53.217	108.107	2285.381	2696.935
-52.203	39.647	2047.507	1817.219
-51.188	34.873	1962.418	1699.331
-50.173	33.259	1944.943	1669.897
-49.159	49.071	1995.726	1855.157
-48.144	49.405	2015.008	1875.996
-47.130	35.448	1975.499	1715.530
-46.115	32.896	1966.927	1685.262
-45.100	33.123	1962.236	1683.201
-44.086	32.991	1960.141	1680.163
-43.071	32.749	1958.353	1676.412
-42.057	32.716	1955.587	1673.682
-41.042	32.782	1954.325	1673.124
-40.027	32.883	1952.349	1672.259
-39.013	32.957	1950.060	1670.891
-37.998	33.062	1947.736	1669.759
-36.984	33.121	1945.568	1668.353
-35.969	33.062	1944.590	1666.935
-34.954	33.161	1941.484	1665.071
-33.940	33.095	1941.178	1664.169
-32.925	33.086	1940.014	1663.021
-31.911	33.296	1937.927	1663.016
-30.896	32.992	1937.101	1659.567
-29.881	33.054	1935.453	1658.629
-28.867	33.225	1932.435	1657.477
-27.852	33.067	1932.027	1655.683
-26.838	33.054	1929.941	1653.711
-25.823	33.171	1927.406	1652.493
-24.809	33.055	1926.443	1650.589
-23.794	33.102	1925.050	1649.743
-22.779	33.120	1923.013	1648.091
-21.765	33.099	1921.277	1646.357
-20.750	32.999	1919.642	1644.018
-19.736	33.194	1917.681	1643.963
-18.721	32.961	1915.851	1640.311
-17.706	33.173	1913.772	1640.300
-16.692	32.891	1914.300	1638.244
-15.677	32.937	1912.967	1637.439
-14.663	33.153	1909.952	1636.663
-13.648	33.142	1908.835	1635.545
-12.633	33.057	1907.535	1633.627
-11.619	32.944	1906.916	1632.058
-10.604	33.112	1905.712	1632.418
-9.590	32.963	1904.333	1629.887
-8.575	32.902	1902.456	1627.688
-7.560	33.034	1901.170	1627.662
-6.546	33.093	1899.646	1626.795
-5.531	33.018	1899.336	1625.819
-4.517	32.979	1897.666	1623.993
-3.502	32.936	1897.481	1623.400
-2.487	33.113	1894.954	1622.689
-1.473	33.196	1893.693	1622.258
-0.458	32.911	1889.819	1616.439
0.556	34.063	1870.028	1589.855
1.571	29.922	1849.654	1538.075
2.586	25.599	1871.367	1519.554
3.600	24.470	1905.241	1537.211
4.615	23.945	1898.519	1527.142
5.629	18.395	1799.797	1402.299
6.644	8.568	1681.935	1234.820
7.659	3.558	1644.108	1169.061
8.673	2.949	1640.342	1161.671
9.688	3.075	1638.732	1161.385
10.702	3.057	1639.009	1161.338
11.717	2.800	1634.555	1156.145
12.731	3.464	1633.594	1160.362
13.746	9.832	1649.667	1219.945
14.761	19.750	1670.067	1310.462
15.775	24.494	1677.833	1352.471
16.790	25.024	1679.356	1357.600
17.804	25.242	1679.098	1358.918
18.819	25.362	1677.651	1358.537
19.834	25.297	1676.937	1357.346
20.848	25.576	1676.763	1359.195
21.863	25.696	1675.599	1359.037
22.877	25.615	1675.173	1357.959
23.892	25.692	1673.768	1357.282
24.907	25.887	1671.975	1357.177
25.921	25.649	1671.510	1354.887
26.936	25.753	1670.692	1354.890
27.950	25.783	1670.061	1354.477
28.965	25.877	1669.186	1354.359
29.980	25.993	1669.126	1355.061
30.994	25.840	1667.740	1352.668
32.009	25.638	1666.858	1350.319
33.023	25.867	1665.278	1350.635
34.038	25.915	1663.153	1349.153
35.053	26.026	1662.607	1349.418
36.067	25.767	1661.649	1346.586
37.082	25.786	1661.697	1346.644
38.096	25.914	1659.835	1345.976
39.111	25.786	1660.389	1345.345
40.126	25.939	1659.070	1345.301
41.140	25.634	1659.115	1342.945
42.155	25.921	1656.951	1343.211
43.169	25.756	1656.481	1341.485
44.184	25.589	1656.391	1340.050
45.199	25.749	1653.691	1338.933
46.213	25.788	1653.087	1338.619
47.228	25.625	1653.105	1337.298
48.242	25.708	1651.568	1336.555
49.257	25.812	1649.392	1335.444
50.271	25.827	1648.323	1334.572
51.286	25.724	1648.299	1333.677
52.301	25.813	1646.330	1332.618
53.315	25.837	1643.918	1330.731
54.330	25.701	1643.465	1329.241
55.344	25.851	1642.136	1329.156
56.359	25.960	1640.751	1328.720
57.374	25.662	1641.328	1326.869
58.388	26.032	1638.160	1326.918
59.403	25.833	1638.466	1325.581
60.417	25.975	1636.601	1325.002
61.432	25.690	1635.851	1322.178
62.447	25.835	1634.826	1322.304
63.461	25.877	1634.270	1322.045
64.476	25.990	1632.810	1321.571
65.490	25.922	1631.584	1319.966
66.505	25.945	1630.374	1319.036
67.520	25.975	1628.746	1317.821
68.534	25.954	1627.280	1316.366
69.549	25.841	1628.042	1316.039
70.563	25.770	1627.080	1314.627
71.578	25.751	1625.612	1313.190
72.593	25.880	1623.833	1312.574
73.607	25.952	1623.449	1312.674
74.622	25.861	1622.406	1311.048
75.636	25.848	1620.894	1309.614
76.651	25.986	1621.160	1310.719
77.666	25.904	1621.086	1309.949
78.680	25.933	1619.355	1308.647
79.695	25.971	1618.534	1308.142
80.709	25.709	1617.255	1305.092
81.724	25.881	1617.691	1306.578
82.739	25.919	1616.279	1305.598
83.753	25.994	1614.164	1304.316
84.768	26.085	1613.849	1304.599
85.782	25.794	1613.528	1302.125
86.797	25.934	1612.169	1301.919
87.812	26.080	1610.317	1301.361
88.826	25.834	1610.539	1299.651
89.841	25.930	1609.078	1299.051
90.855	26.042	1609.028	1299.703
91.870	25.880	1607.604	1297.275
92.884	26.092	1606.036	1297.415
93.899	25.963	1605.956	1296.310
94.914	26.017	1603.982	1294.989
95.928	25.895	1602.942	1293.158
96.943	26.027	1601.001	1292.425
97.957	26.068	1600.080	1291.859
98.972	25.926	1598.867	1289.755
99.987	25.790	1598.593	1288.446
101.001	25.929	1596.227	1287.412
102.016	25.849	1594.780	1285.564
103.030	26.048	1593.360	1285.724
104.045	26.093	1592.811	1285.487
105.060	26.171	1591.664	1285.004
106.074	25.978	1589.831	1282.035
107.089	26.074	1588.828	1281.793
108.103	26.122	1588.015	1281.370
109.118	26.057	1586.976	1279.955
110.133	25.871	1586.323	1277.993
111.147	26.129	1584.193	1277.997
112.162	26.099	1582.855	1276.590
113.176	26.012	1582.486	1275.565
114.191	25.931	1581.107	1273.765
115.206	26.007	1579.818	1273.150
116.220	26.094	1577.703	1271.946
117.235	26.281	1575.990	1271.771
118.249	26.056	1575.986	1270.074
119.264	25.951	1575.055	1268.470
120.279	25.998	1572.876	1266.936
121.293	26.021	1572.720	1266.859
122.308	25.969	1571.763	1265.612
123.322	25.950	1570.189	1264.098
124.337	26.044	1568.571	1263.343
125.352	26.267	1567.476	1263.911
126.366	26.089	1566.866	1262.059
127.381	26.015	1565.950	1260.692
128.395	26.106	1564.413	1259.977
129.410	25.870	1563.678	1257.630
130.424	26.119	1562.125	1258.007
131.439	26.168	1561.410	1257.659
132.454	26.066	1560.586	1256.176
133.468	26.178	1559.108	1255.648
134.483	26.356	1556.347	1254.552
135.497	26.178	1555.972	1252.904
136.512	25.906	1554.464	1249.692
137.527	26.254	1553.811	1251.466
138.541	26.092	1553.015	1249.595
139.556	26.074	1551.880	1248.449
140.570	26.136	1550.066	1247.306
141.585	26.301	1548.535	1247.102
142.600	26.108	1547.525	1244.845
143.614	26.049	1546.692	1243.662
144.629	26.211	1545.854	1243.994
145.643	26.121	1545.585	1243.045
146.658	26.004	1543.626	1240.553
147.673	26.225	1541.263	1240.065
148.687	26.299	1541.059	1240.301
149.702	26.496	1538.034	1239.101
150.716	26.314	1538.269	1237.933
151.731	26.217	1536.709	1235.905
152.746	26.239	1536.644	1235.897
153.760	26.090	1534.964	1233.415
154.775	26.099	1534.019	1232.610
155.789	26.077	1533.778	1232.157
156.804	26.144	1531.462	1230.646
157.819	26.107	1530.729	1229.694
158.833	26.018	1529.822	1228.254
159.848	26.313	1527.531	1228.306
160.862	26.018	1527.625	1226.269
161.877	26.099	1526.548	1225.846
162.892	26.328	1525.831	1226.721
163.906	26.156	1525.039	1224.808
164.921	26.079	1524.248	1223.539
165.935	26.375	1521.532	1223.256
166.950	26.500	1521.231	1223.748
167.964	26.385	1520.214	1222.046
168.979	26.118	1521.134	1220.870
169.994	26.228	1518.494	1219.389
171.008	26.275	1517.964	1219.169
172.023	26.167	1517.364	1217.852
173.037	26.433	1515.486	1218.031
174.052	26.350	1514.883	1216.879
175.067	26.287	1513.445	1215.193
176.081	26.081	1514.083	1214.210
177.096	26.157	1512.507	1213.350
178.110	26.185	1511.242	1212.416
179.125	26.216	1510.511	1211.928
180.140	26.257	1509.185	1211.032
181.154	26.330	1507.278	1209.883
182.169	26.231	1507.687	1209.443
183.183	26.294	1506.273	1208.624
184.198	26.295	1505.313	1207.755
185.213	26.392	1504.074	1207.300
186.227	26.277	1503.353	1205.850
187.242	26.400	1503.168	1206.413
188.256	26.351	1501.965	1205.017
189.271	26.275	1501.302	1203.872
190.286	26.500	1499.205	1203.581
191.300	26.330	1499.242	1202.372
192.315	26.409	1497.830	1201.659
193.329	26.168	1497.777	1199.907
194.344	26.520	1496.678	1201.257
195.359	26.520	1495.186	1199.949
196.373	26.267	1496.393	1199.136
197.388	26.335	1494.377	1197.865
198.402	26.207	1493.722	1196.387
199.417	26.324	1491.938	1195.624
200.432	26.286	1490.905	1194.443
201.446	26.163	1491.735	1194.186
202.461	26.435	1489.792	1194.320
203.475	26.424	1489.639	1194.019
204.490	26.228	1488.748	1191.906
205.504	26.274	1487.210	1190.876
206.519	26.409	1485.486	1190.279
207.534	26.597	1484.662	1190.747
208.548	26.638	1483.409	1189.905
209.563	26.467	1483.234	1188.536
210.577	26.467	1482.752	1188.046
211.592	26.380	1481.225	1186.146
212.607	26.463	1480.111	1185.693
213.621	26.400	1481.150	1186.008
214.636	26.476	1480.227	1185.663
215.650	26.477	1479.486	1184.971
216.665	26.588	1477.675	1184.140
217.680	26.665	1477.005	1184.000
218.694	26.400	1477.638	1182.675
219.709	26.411	1476.444	1181.686
220.723	26.682	1474.026	1181.410
221.738	26.540	1473.680	1180.104
222.753	26.317	1472.580	1177.668
223.767	26.428	1472.973	1178.601
224.782	26.469	1471.798	1177.818
225.796	26.454	1471.053	1177.020
226.811	26.646	1469.985	1177.314
227.826	26.577	1469.447	1176.328
228.840	26.563	1469.235	1175.966
229.855	26.321	1467.801	1173.142
230.869	26.387	1467.608	1173.314
231.884	26.248	1467.556	1172.266
232.899	26.496	1465.410	1172.056
233.913	26.513	1463.883	1170.839
234.928	26.746	1462.765	1171.349
235.942	26.671	1461.934	1170.093
236.957	26.621	1460.783	1168.743
237.972	26.643	1459.946	1168.115
238.986	26.625	1458.149	1166.455
240.001	26.706	1456.823	1165.815
241.015	26.563	1456.841	1164.807
242.030	26.783	1455.166	1164.775
243.045	26.868	1454.355	1164.569
244.059	26.668	1453.880	1162.806
245.074	26.674	1453.345	1162.309
246.088	26.711	1452.597	1161.848
247.103	26.760	1452.187	1161.733
248.117	26.854	1451.929	1162.022
249.132	27.025	1449.336	1160.941
250.147	26.967	1449.520	1160.611
251.161	26.746	1448.347	1158.161
252.176	26.815	1447.866	1158.112
253.190	26.878	1446.411	1157.251
254.205	26.775	1446.560	1156.611
255.220	26.724	1445.391	1155.249
256.234	26.953	1443.855	1155.377
257.249	26.747	1444.081	1154.138
258.263	26.773	1443.270	1153.554
259.278	26.906	1442.549	1153.726
260.293	26.655	1441.727	1151.370
261.307	26.813	1441.844	1152.365
262.322	26.747	1440.142	1150.481
263.336	26.823	1439.847	1150.627
264.351	26.848	1438.236	1149.397
265.366	26.884	1436.645	1148.255
266.380	26.884	1436.673	1148.176
267.395	26.792	1435.555	1146.594
268.409	27.044	1434.251	1147.045
269.424	26.861	1434.204	1145.751
270.439	26.608	1433.391	1143.405
271.453	26.736	1432.125	1143.102
272.468	26.613	1431.792	1141.958
273.482	26.666	1431.474	1141.938
274.497	26.849	1429.702	1141.574
275.512	26.695	1429.582	1140.407
276.526	26.929	1428.262	1140.724
277.541	26.789	1426.737	1138.528
278.555	26.752	1426.106	1137.688
279.570	26.742	1425.932	1137.390
280.585	26.950	1424.754	1137.651
281.599	27.081	1423.634	1137.474
282.614	26.810	1423.276	1135.395
283.628	26.675	1422.708	1133.993
284.643	26.756	1421.135	1133.149
285.657	26.657	1420.662	1132.051
286.672	26.937	1419.992	1133.164
287.687	26.695	1418.659	1130.492
288.701	26.868	1418.355	1131.229
289.716	26.697	1417.439	1129.328
290.730	26.804	1415.549	1128.394
291.745	26.704	1416.309	1128.277
292.760	26.959	1414.261	1128.129
293.774	27.044	1413.007	1127.559
294.789	26.709	1413.131	1125.478
295.803	26.911	1412.261	1125.938
296.818	27.001	1410.351	1124.870
297.833	27.080	1409.987	1124.970
298.847	26.977	1409.223	1123.626
299.862	26.735	1408.915	1121.782
300.876	26.867	1407.200	1121.135
301.891	26.853	1407.235	1120.976
302.906	26.696	1406.819	1119.576
303.920	26.749	1406.481	1119.536
304.935	27.155	1404.551	1120.401
305.949	26.899	1403.738	1118.076
306.964	26.689	1403.370	1116.392
307.979	26.849	1402.659	1116.714
308.993	26.981	1401.868	1116.794
310.008	27.006	1401.215	1116.333
311.022	27.132	1399.433	1115.585
312.037	26.997	1398.809	1114.161
313.052	26.802	1398.299	1112.461
314.066	26.732	1397.959	1111.663
315.081	27.096	1395.445	1111.793
316.095	26.819	1395.573	1110.098
317.110	27.046	1393.639	1109.848
318.125	26.606	1394.346	1107.626
319.139	26.728	1392.767	1107.016
320.154	26.819	1391.304	1106.315
321.168	27.009	1390.773	1106.953
322.183	27.155	1389.677	1106.869
323.197	27.055	1388.392	1105.142
324.212	27.102	1387.577	1104.682
325.227	26.952	1387.222	1103.385
326.241	26.933	1385.971	1102.182
327.256	26.939	1385.398	1101.666
328.270	27.080	1384.994	1102.097
329.285	27.079	1383.374	1100.710
330.300	27.004	1383.242	1100.053
331.314	26.990	1383.051	1099.715
332.329	26.939	1381.524	1098.094
333.343	27.052	1380.757	1098.072
334.358	26.996	1380.525	1097.450
335.373	27.126	1379.038	1096.958
336.387	27.068	1378.766	1096.295
337.402	27.091	1377.592	1095.402
338.416	27.214	1377.694	1096.128
339.431	26.863	1377.646	1093.879
340.446	27.085	1376.921	1094.541
341.460	27.053	1375.478	1093.106
342.475	26.862	1375.014	1091.490
343.489	27.323	1372.702	1092.327
344.504	27.220	1372.836	1091.719
345.519	27.035	1372.117	1089.942
346.533	27.064	1370.115	1088.424
347.548	26.905	1370.595	1087.759
348.562	27.155	1368.727	1087.679
349.577	27.057	1367.830	1086.280
350.592	26.974	1368.466	1086.194
351.606	26.942	1367.725	1085.317
352.621	27.082	1364.907	1083.819
353.635	26.954	1365.746	1083.630
354.650	27.064	1363.735	1082.593
355.665	27.081	1363.347	1082.288
356.679	27.097	1361.828	1081.081
357.694	27.339	1360.459	1081.340
358.708	27.160	1360.036	1079.841
359.723	27.204	1358.758	1078.992
360.738	26.889	1358.776	1077.045
361.752	26.904	1357.263	1075.837
362.767	27.040	1356.335	1075.812
363.781	27.093	1355.367	1075.265
364.796	26.970	1354.416	1073.685
365.810	27.024	1354.250	1073.778
366.825	27.062	1353.180	1073.058
367.840	27.122	1351.992	1072.376
368.854	27.306	1351.102	1072.664
369.869	27.292	1351.774	1073.018
370.883	27.070	1350.672	1070.738
371.898	26.812	1349.898	1068.512
372.913	27.118	1349.468	1069.881
373.927	26.981	1347.090	1067.095
374.942	27.326	1347.176	1069.092
375.956	27.215	1346.647	1067.930
376.971	27.335	1344.905	1067.154
377.986	27.033	1344.624	1065.065
379.000	26.989	1344.615	1064.705
380.015	27.344	1342.678	1065.158
381.029	27.185	1342.797	1064.229
382.044	27.197	1342.685	1064.113
383.059	27.153	1341.429	1062.769
384.073	27.089	1340.406	1061.492
385.088	26.912	1339.893	1059.953
386.102	27.104	1339.528	1060.694
387.117	27.301	1337.581	1060.209
388.132	27.341	1337.445	1060.240
389.146	27.073	1337.296	1058.467
390.161	27.081	1335.997	1057.387
391.175	27.128	1335.104	1056.860
392.190	26.895	1335.271	1055.547
393.205	26.950	1333.983	1054.752
394.219	26.977	1333.980	1054.818
395.234	26.939	1332.786	1053.555
396.248	27.156	1331.267	1053.520
397.263	26.968	1330.298	1051.573
398.278	27.234	1328.988	1051.983
399.292	26.897	1328.229	1049.341
400.307	27.261	1326.956	1050.346
401.321	27.155	1326.313	1049.131
402.336	27.227	1324.653	1048.139
403.350	27.040	1324.346	1046.729
404.365	27.111	1322.759	1045.787
405.380	27.170	1322.207	1045.598
406.394	27.153	1322.259	1045.448
407.409	27.173	1320.807	1044.323
408.423	27.096	1320.227	1043.328
409.438	26.937	1319.876	1042.048
410.453	27.073	1318.725	1041.828
411.467	27.020	1318.411	1041.181
412.482	26.800	1318.768	1040.110
413.496	27.292	1316.407	1040.975
414.511	27.210	1314.963	1039.271
415.526	27.358	1314.635	1039.762
416.540	27.072	1314.542	1037.968
417.555	26.887	1313.488	1035.982
418.569	27.057	1313.330	1036.738
419.584	27.174	1313.078	1037.116
420.599	27.212	1312.131	1036.493
421.613	142.318	1436.118	1792.753
422.628	138.065	1454.175	1792.854
