DTS Sentinel unit serial number:	SN413079Multiplexer serial number:	ORYXHardware model number:	OX4-SRSoftware version number:	ORYX F/W v4.00 Oryx Data Collector v3.7.2.0data status	okinstallation	princeton_trtdifferential loss correction	single-endedforward channel	channel 4reverse channel	N/Adate	2019/09/18time	01:13:35forward acquisition time	60.00reverse acquisition time	0.00gamma	496.2192k internal	0.2334k external	0.2334temperature offset calibration	0.9997default loss term (dB/km)	0.3790temperature slope calibration	1.0000multiplexer offset coefficient	1.0000multiplexer slope coefficient	1.0000fibre end	0.00T internal ref (°C)	23.19T ext. ref 1 (°C)	0.17T ext. ref 2 (°C)	16.90length (m)	temperature (°C)	Stokes	anti-Stokes-747.200	-61.454	-0.217	0.092
-746.185	-200.000	0.130	0.703
-745.171	-110.394	0.307	0.064
-744.156	607.305	0.043	-0.109
-743.142	-117.542	-0.225	-0.041
-742.127	800.000	0.069	0.267
-741.112	234.225	-0.121	0.201
-740.098	634.495	0.127	0.323
-739.083	800.000	0.129	0.370
-738.069	-200.000	0.024	0.155
-737.054	-200.000	0.002	0.162
-736.039	25.102	-0.143	0.119
-735.025	-59.005	0.220	0.096
-734.010	289.751	-0.189	-0.344
-732.996	-56.434	-0.151	-0.067
-731.981	-30.353	-0.176	0.100
-730.966	-116.597	0.206	0.038
-729.952	800.000	-0.113	-0.434
-728.937	800.000	-0.082	-0.292
-727.923	-200.000	-0.020	0.086
-726.908	-167.069	-0.087	-0.004
-725.894	72.228	0.103	-0.108
-724.879	112.931	-0.222	0.271
-723.864	-14.604	0.161	0.104
-722.850	-84.955	-0.081	0.026
-721.835	800.000	0.012	-0.047
-720.821	-12.505	-0.182	-0.119
-719.806	800.000	0.153	-0.468
-718.791	306.043	0.191	-0.357
-717.777	-31.531	-0.088	0.050
-716.762	-15.892	-0.077	-0.049
-715.748	163.427	-0.020	-0.029
-714.733	-200.000	-0.005	-0.259
-713.718	-74.403	-0.334	-0.121
-712.704	-112.932	-0.140	0.028
-711.689	179.012	-0.158	0.233
-710.675	248.493	0.106	-0.180
-709.660	-200.000	-0.026	-0.293
-708.645	-117.843	-0.429	-0.077
-707.631	-200.000	0.002	-0.161
-706.616	-45.940	-0.171	0.084
-705.602	67.669	-0.127	-0.130
-704.587	399.314	0.080	-0.169
-703.572	800.000	0.037	0.150
-702.558	-140.879	-0.215	0.022
-701.543	800.000	0.060	0.201
-700.529	92.907	-0.116	0.132
-699.514	-200.000	-0.004	-0.128
-698.499	-200.000	0.016	0.154
-697.485	-200.000	-0.053	0.359
-696.470	-6.241	-0.207	-0.142
-695.456	-83.384	-0.252	0.081
-694.441	207.481	-0.107	-0.167
-693.426	4.176	0.079	0.058
-692.412	-9.633	-0.142	0.095
-691.397	228.464	0.097	-0.159
-690.383	-31.224	-0.110	0.062
-689.368	-120.660	-0.231	0.039
-688.354	-79.469	-0.207	0.070
-687.339	-181.192	-0.054	-0.001
-686.324	-24.833	0.140	-0.084
-685.310	800.000	0.078	0.245
-684.295	-160.789	-0.617	-0.033
-683.281	-188.618	0.044	0.001
-682.266	83.208	-0.163	-0.178
-681.251	-161.372	-0.055	-0.003
-680.237	800.000	0.100	-0.290
-679.222	599.203	0.095	0.237
-678.208	-200.000	-0.005	0.119
-677.193	-26.861	-0.207	0.121
-676.178	27.417	-0.271	-0.228
-675.164	115.231	0.224	-0.274
-674.149	-92.033	-0.302	0.086
-673.135	-30.720	0.214	-0.122
-672.120	248.019	-0.106	-0.180
-671.105	-200.000	0.023	-0.277
-670.091	360.806	-0.030	0.060
-669.076	-200.000	0.005	0.386
-668.062	28.694	-0.272	0.231
-667.047	-112.102	0.252	-0.051
-666.032	-57.649	-0.359	0.158
-665.018	-200.000	0.023	-0.144
-664.003	-200.000	-0.051	0.599
-662.989	-123.230	0.212	-0.034
-661.974	636.528	0.081	-0.205
-660.959	-133.793	0.215	0.027
-659.945	-74.212	0.154	0.056
-658.930	61.131	0.143	-0.142
-657.916	-30.053	0.140	-0.080
-656.901	5.809	-0.059	0.044
-655.886	291.658	0.071	-0.129
-654.872	-52.265	-0.350	-0.162
-653.857	0.539	-0.325	-0.233
-652.843	-200.000	0.017	-0.202
-651.828	161.975	0.089	-0.124
-650.814	217.304	0.085	-0.136
-649.799	630.552	-0.080	-0.203
-648.784	-61.976	0.206	-0.086
-647.770	662.228	0.044	-0.114
-646.755	-60.130	-0.191	0.082
-645.741	382.135	-0.177	0.364
-644.726	-152.131	-0.211	-0.015
-643.711	-101.622	-0.097	0.024
-642.697	97.731	-0.243	0.280
-641.682	-200.000	0.013	0.534
-640.668	143.582	0.301	-0.402
-639.653	-101.477	0.050	0.012
-638.638	-63.064	0.227	-0.094
-637.624	-58.732	-0.228	-0.099
-636.609	-200.000	0.016	0.215
-635.595	1.984	-0.318	0.230
-634.580	133.933	-0.125	0.162
-633.565	-125.232	0.239	-0.037
-632.551	192.031	-0.096	-0.145
-631.536	-8.881	-0.397	0.266
-630.522	-188.035	0.153	-0.002
-629.507	298.358	-0.114	-0.209
-628.492	311.646	0.070	0.131
-627.478	800.000	0.018	0.069
-626.463	-200.000	0.035	-0.201
-625.449	-114.500	0.211	0.041
-624.434	280.106	-0.143	-0.256
-623.419	3.602	-0.224	-0.163
-622.405	-200.000	0.005	0.195
-621.390	-200.000	-0.054	0.279
-620.376	-85.232	-0.256	-0.080
-619.361	12.779	0.188	-0.146
-618.346	351.934	0.114	-0.226
-617.332	-102.691	0.270	-0.064
-616.317	-200.000	0.025	-0.246
-615.303	-57.741	0.380	-0.166
-614.288	139.900	0.034	-0.044
-613.273	-46.096	0.189	-0.093
-612.259	232.749	-0.134	-0.220
-611.244	9.672	0.108	0.082
-610.230	-136.353	0.580	0.068
-609.215	74.342	0.306	0.322
-608.201	-108.876	-0.237	-0.051
-607.186	102.175	0.208	0.243
-606.171	-200.000	0.027	-0.159
-605.157	-127.408	-0.121	0.018
-604.142	66.625	-0.372	0.378
-603.128	-118.297	0.258	0.046
-602.113	12.071	0.060	0.046
-601.098	-198.354	-0.130	0.001
-600.084	-114.752	0.507	0.097
-599.069	1.768	-0.177	0.127
-598.055	607.493	-0.077	-0.191
-597.040	356.730	0.133	0.264
-596.025	230.595	0.040	0.066
-595.011	38.803	-0.157	0.140
-593.996	569.531	0.083	0.201
-592.982	-3.995	-0.227	-0.158
-591.967	213.209	0.070	-0.110
-590.952	-106.363	0.326	-0.073
-589.938	800.000	-0.072	-0.224
-588.923	-114.488	-0.458	0.088
-587.909	154.328	-0.232	0.318
-586.894	-43.416	-0.105	0.053
-585.879	-10.422	-0.283	-0.188
-584.865	536.076	0.097	-0.229
-583.850	442.133	0.240	-0.525
-582.836	-156.924	0.160	0.010
-581.821	-85.553	0.138	0.043
-580.806	-32.075	0.445	-0.249
-579.792	457.084	-0.112	-0.247
-578.777	362.720	0.043	-0.086
-577.763	680.522	-0.129	-0.334
-576.748	646.221	-0.085	0.217
-575.733	289.175	-0.022	0.039
-574.719	-111.816	-0.168	0.034
-573.704	-2.871	0.092	0.064
-572.690	-68.793	0.280	-0.108
-571.675	584.921	-0.051	0.125
-570.661	-56.663	0.064	-0.028
-569.646	-12.223	-0.026	0.017
-568.631	165.206	0.079	0.112
-567.617	-24.827	0.041	0.024
-566.602	75.180	-0.342	0.360
-565.588	14.133	0.221	0.172
-564.573	-60.206	-0.169	0.072
-563.558	33.048	-0.201	0.174
-562.544	-200.000	0.011	-0.480
-561.529	-148.302	0.067	-0.006
-560.515	-200.000	-0.002	0.167
-559.500	511.625	-0.126	0.293
-558.485	-112.115	0.137	-0.028
-557.471	800.000	0.040	-0.111
-556.456	261.037	-0.127	0.220
-555.442	70.016	-0.058	-0.060
-554.427	-96.842	0.202	0.053
-553.412	800.000	-0.111	-0.428
-552.398	-99.352	0.074	-0.019
-551.383	7.992	-0.077	-0.058
-550.369	-155.217	0.207	0.013
-549.354	-200.000	0.054	0.430
-548.339	462.239	-0.089	0.198
-547.325	-121.504	-0.177	-0.029
-546.310	38.485	0.169	0.151
-545.296	-12.569	-0.154	0.100
-544.281	317.779	0.113	-0.214
-543.266	472.468	-0.070	-0.158
-542.252	-90.240	0.402	-0.117
-541.237	-200.000	-0.051	-0.357
-540.223	70.393	-0.280	0.288
-539.208	-38.717	-0.312	-0.164
-538.193	-200.000	-0.009	-0.191
-537.179	-49.394	-0.258	-0.123
-536.164	800.000	0.042	-0.124
-535.150	-66.644	0.298	-0.118
-534.135	-200.000	0.009	-0.218
-533.121	-87.153	-0.106	-0.032
-532.106	-101.482	-0.087	-0.021
-531.091	-175.080	0.421	0.012
-530.077	52.438	-0.260	-0.247
-529.062	156.386	0.215	-0.295
-528.048	-25.406	0.402	-0.237
-527.033	-97.450	0.175	0.045
-526.018	-143.987	0.120	-0.011
-525.004	-68.524	0.166	0.064
-523.989	169.521	0.052	0.074
-522.975	27.775	-0.166	-0.140
-521.960	800.000	0.204	-0.658
-520.945	127.255	-0.210	-0.266
-519.931	-200.000	0.042	0.234
-518.916	-200.000	0.005	0.111
-517.902	73.767	0.108	0.113
-516.887	-200.000	0.000	-0.083
-515.872	-98.057	0.116	0.030
-514.858	-43.857	0.246	-0.123
-513.843	-80.635	-0.031	0.010
-512.829	46.638	-0.274	-0.254
-511.814	27.659	0.216	-0.181
-510.799	-110.471	-0.376	-0.078
-509.785	-200.000	-0.019	-0.398
-508.770	-200.000	-0.022	0.154
-507.756	800.000	-0.105	-0.401
-506.741	-200.000	-0.041	-0.323
-505.726	-119.608	0.253	0.044
-504.712	-67.602	-0.088	0.034
-503.697	800.000	-0.038	-0.148
-502.683	166.714	-0.186	-0.263
-501.668	526.445	0.195	-0.457
-500.653	251.648	-0.088	-0.149
-499.639	-2.108	-0.079	-0.056
-498.624	800.000	-0.085	0.304
-497.610	704.936	0.061	-0.161
-496.595	-200.000	-0.011	0.213
-495.581	554.311	-0.123	-0.295
-494.566	-200.000	-0.029	-0.210
-493.551	-200.000	-0.090	0.423
-492.537	16.941	-0.173	0.136
-491.522	-147.388	0.146	-0.012
-490.508	301.868	0.062	0.114
-489.493	7.621	0.175	0.130
-488.478	41.041	-0.142	-0.128
-487.464	19.400	0.080	-0.064
-486.449	-121.189	-0.193	0.032
-485.435	-200.000	0.030	0.166
-484.420	26.418	0.149	-0.124
-483.405	249.351	0.078	-0.131
-482.391	-146.046	0.075	0.007
-481.376	-48.551	0.078	0.037
-480.362	-200.000	-0.079	0.365
-479.347	-137.595	0.234	-0.026
-478.332	-60.287	0.295	-0.125
-477.318	748.211	0.144	0.385
-476.303	-72.765	-0.075	-0.028
-475.289	800.000	-0.158	0.436
-474.274	-199.380	-0.350	-0.002
-473.259	-64.563	0.054	0.022
-472.245	-200.000	-0.004	0.161
-471.230	-29.476	0.382	0.217
-470.216	71.235	0.217	-0.224
-469.201	-137.463	-0.311	0.035
-468.186	5.751	0.060	-0.044
-467.172	368.554	0.036	0.072
-466.157	-97.265	-0.179	0.046
-465.143	-150.322	0.315	0.024
-464.128	214.850	0.117	0.184
-463.113	117.448	0.066	0.081
-462.099	344.284	0.065	0.127
-461.084	-192.891	0.149	0.001
-460.070	-200.000	-0.063	-0.539
-459.055	-200.000	-0.009	-0.147
-458.040	-105.912	-0.266	0.060
-457.026	-114.823	-0.258	-0.049
-456.011	508.355	0.104	0.239
-454.997	9.608	0.198	0.149
-453.982	621.905	0.157	0.392
-452.968	-200.000	-0.008	-0.110
-451.953	189.372	-0.038	0.057
-450.938	-200.000	0.027	-0.259
-449.924	800.000	0.064	-0.217
-448.909	-82.476	-0.497	-0.160
-447.895	-64.858	0.221	0.089
-446.880	-163.674	-0.288	-0.013
-445.865	301.338	0.057	-0.105
-444.851	-59.732	-0.160	0.068
-443.836	-84.960	-0.088	0.027
-442.822	84.545	-0.282	0.307
-441.807	-200.000	0.013	-0.253
-440.792	-200.000	-0.083	-0.523
-439.778	-24.630	-0.406	-0.240
-438.763	-3.393	0.167	0.115
-437.749	-200.000	-0.049	0.236
-436.734	-61.266	0.086	-0.036
-435.719	-67.947	0.180	-0.070
-434.705	-106.039	-0.331	0.074
-433.690	-200.000	-0.010	0.307
-432.676	-90.729	0.476	0.136
-431.661	239.874	-0.047	-0.078
-430.646	-157.765	-0.100	-0.006
-429.632	-120.763	0.405	-0.068
-428.617	-200.000	-0.010	0.291
-427.603	453.907	-0.080	0.175
-426.588	9.520	-0.115	0.086
-425.573	-24.480	0.247	-0.146
-424.559	-101.066	-0.118	-0.029
-423.544	-200.000	-0.026	0.226
-422.530	-39.138	0.246	0.129
-421.515	800.000	0.096	0.313
-420.500	-63.271	-0.115	-0.047
-419.486	-86.494	0.357	0.109
-418.471	4.271	0.186	-0.135
-417.457	800.000	0.025	0.082
-416.442	-90.895	-0.335	-0.096
-415.428	800.000	0.046	0.127
-414.413	-68.720	-0.200	0.077
-413.398	800.000	0.046	0.196
-412.384	-140.651	-0.174	-0.018
-411.369	704.640	-0.132	0.347
-410.355	-200.000	0.012	0.462
-409.340	-21.246	0.343	-0.208
-408.325	-200.000	-0.028	0.454
-407.311	-101.213	-0.274	-0.066
-406.296	19.788	-0.107	-0.086
-405.282	-118.540	0.472	-0.083
-404.267	-3.060	-0.226	0.157
-403.252	70.838	0.073	0.075
-402.238	40.896	-0.281	-0.252
-401.223	329.749	0.197	-0.376
-400.209	312.363	-0.152	0.283
-399.194	309.957	-0.077	0.144
-398.179	-80.082	-0.123	0.041
-397.165	172.300	-0.051	0.072
-396.150	-200.000	-0.003	0.042
-395.136	-200.000	-0.017	-0.163
-394.121	-58.794	0.388	-0.166
-393.106	-7.647	-0.303	-0.203
-392.092	-200.000	0.016	0.182
-391.077	169.799	0.123	0.174
-390.063	-200.000	-0.010	0.156
-389.048	130.367	0.073	0.092
-388.033	266.121	0.163	-0.281
-387.019	-200.000	0.018	0.230
-386.004	-200.000	0.021	0.247
-384.990	-200.000	0.000	0.006
-383.975	-95.963	0.297	0.078
-382.960	-72.545	-0.155	0.057
-381.946	38.876	-0.190	0.168
-380.931	-160.032	0.410	-0.022
-379.917	-157.713	0.206	0.012
-378.902	22.877	0.010	-0.008
-377.888	-200.000	0.014	0.181
-376.873	-174.189	-0.171	-0.005
-375.858	800.000	-0.039	0.122
-374.844	63.490	0.051	-0.050
-373.829	-200.000	0.079	0.375
-372.815	-70.677	-0.009	-0.003
-371.800	-103.525	-0.428	-0.100
-370.785	151.048	0.115	-0.155
-369.771	-200.000	-0.020	-0.476
-368.756	-41.505	-0.083	0.042
-367.742	40.853	-0.236	-0.211
-366.727	24.734	0.116	-0.095
-365.712	46.671	0.086	0.079
-364.698	445.972	-0.121	-0.263
-363.683	0.429	0.031	-0.022
-362.669	338.203	0.065	0.125
-361.654	-52.112	-0.213	-0.098
-360.639	-168.520	-0.460	-0.017
-359.625	104.572	0.138	-0.161
-358.610	110.909	-0.087	-0.104
-357.596	29.118	-0.217	-0.182
-356.581	189.066	0.228	-0.337
-355.566	-200.000	-0.081	0.000
-354.552	71.865	0.070	-0.072
-353.537	501.947	0.146	-0.334
-352.523	-34.818	0.127	0.069
-351.508	201.485	-0.140	0.213
-350.493	-141.670	0.020	0.002
-349.479	-88.630	-0.127	-0.037
-348.464	-200.000	0.008	0.176
-347.450	507.400	-0.057	-0.131
-346.435	-46.248	0.122	-0.059
-345.420	145.886	-0.135	0.179
-344.406	-200.000	-0.022	-0.393
-343.391	-200.000	-0.012	-0.154
-342.377	191.347	-0.095	-0.141
-341.362	800.000	0.081	-0.246
-340.348	241.450	0.088	-0.146
-339.333	248.217	-0.206	-0.345
-338.318	800.000	0.136	-0.414
-337.304	-61.223	-0.106	0.044
-336.289	124.658	0.131	-0.163
-335.275	-200.000	0.015	-0.140
-334.260	-31.086	-0.073	-0.041
-333.245	-150.458	0.082	0.006
-332.231	409.751	0.081	0.169
-331.216	141.637	0.140	-0.184
-330.202	-82.344	-0.104	-0.034
-329.187	521.407	-0.169	-0.392
-328.172	-200.000	-0.049	0.405
-327.158	15.235	-0.164	0.127
-326.143	800.000	-0.039	0.136
-325.129	-134.961	-0.176	-0.021
-324.114	-200.000	0.002	0.066
-323.099	3.380	-0.235	-0.169
-322.085	-33.530	0.047	-0.026
-321.070	155.382	-0.248	-0.338
-320.056	-25.231	-0.419	-0.245
-319.041	160.189	0.164	-0.226
-318.026	-149.904	0.158	-0.012
-317.012	50.877	0.158	-0.148
-315.997	6.127	0.168	0.123
-314.983	36.076	0.189	-0.165
-313.968	-120.711	-0.085	-0.014
-312.953	800.000	0.076	-0.320
-311.939	88.030	-0.200	-0.219
-310.924	-168.032	-0.235	0.009
-309.910	-143.591	-0.065	-0.006
-308.895	22.259	-0.169	-0.137
-307.880	-72.926	0.319	-0.116
-306.866	-200.000	0.018	-0.167
-305.851	-26.471	-0.123	-0.071
-304.837	800.000	-0.036	-0.133
-303.822	-145.388	-0.318	-0.028
-302.807	-200.000	-0.002	0.379
-301.793	98.725	-0.117	-0.134
-300.778	-38.511	-0.089	0.047
-299.764	-126.555	0.213	-0.031
-298.749	-101.326	0.152	-0.037
-297.735	-116.960	0.105	-0.019
-296.720	-200.000	0.033	-0.185
-295.705	421.035	0.178	-0.376
-294.691	-137.142	-0.205	0.023
-293.676	-115.570	0.142	-0.026
-292.662	800.000	0.047	-0.128
-291.647	429.754	0.089	0.191
-290.632	236.766	0.068	0.111
-289.618	-124.713	0.087	-0.013
-288.603	270.282	0.005	0.009
-287.589	-176.130	0.133	-0.003
-286.574	-116.213	-0.019	0.004
-285.559	-94.050	0.106	-0.029
-284.545	-200.000	-0.020	0.129
-283.530	-200.000	-0.009	-0.058
-282.516	194.652	0.066	-0.098
-281.501	213.856	-0.172	0.269
-280.486	-139.282	0.276	0.029
-279.472	-169.523	-0.100	-0.004
-278.457	167.480	0.189	0.265
-277.443	800.000	0.019	-0.062
-276.428	-200.000	0.007	-0.037
-275.413	-200.000	-0.063	-0.353
-274.399	14.315	0.182	-0.140
-273.384	-154.226	-0.186	0.012
-272.370	-13.264	0.200	0.128
-271.355	47.012	-0.140	0.129
-270.340	-131.168	0.131	-0.017
-269.326	178.922	-0.115	0.166
-268.311	125.413	-0.185	-0.230
-267.297	-36.978	0.264	-0.139
-266.282	70.364	-0.066	-0.067
-265.267	38.324	-0.105	0.092
-264.253	-103.581	0.177	0.041
-263.238	-65.302	-0.268	-0.106
-262.224	-103.742	-0.271	0.063
-261.209	-200.000	0.000	-0.005
-260.195	-3.384	0.139	-0.095
-259.180	80.059	-0.162	0.172
-258.165	-200.000	-0.053	0.351
-257.151	323.357	0.089	0.168
-256.136	-27.673	-0.061	-0.035
-255.122	-4.761	-0.087	0.059
-254.107	658.748	-0.092	0.234
-253.092	-44.919	0.219	0.108
-252.078	228.446	-0.061	0.098
-251.063	180.651	-0.081	-0.117
-250.049	-34.956	-0.109	0.059
-249.034	180.745	0.179	-0.259
-248.019	-130.493	-0.229	-0.031
-247.005	-200.000	0.038	0.168
-245.990	251.613	0.158	0.266
-244.976	-200.000	0.024	0.318
-243.961	81.845	-0.140	-0.150
-242.946	653.585	0.091	0.231
-241.932	332.375	-0.164	0.312
-240.917	-100.481	-0.316	0.077
-239.903	499.990	0.069	0.158
-238.888	-0.156	0.198	0.139
-237.873	-200.000	-0.057	-0.337
-236.859	-200.000	0.075	-0.395
-235.844	800.000	0.001	-0.005
-234.830	-153.506	0.155	-0.011
-233.815	-200.000	0.014	0.078
-232.800	605.013	-0.045	-0.112
-231.786	-59.858	-0.167	-0.071
-230.771	101.710	-0.240	-0.275
-229.757	-200.000	-0.015	0.234
-228.742	-200.000	0.052	0.398
-227.727	-78.139	-0.044	0.015
-226.713	29.947	0.156	0.131
-225.698	-200.000	0.010	0.101
-224.684	-200.000	0.040	0.216
-223.669	-63.359	-0.057	-0.023
-222.655	157.467	0.261	0.356
-221.640	58.135	-0.246	-0.237
-220.625	-36.157	-0.084	-0.045
-219.611	60.903	0.235	-0.230
-218.596	38.708	0.058	0.051
-217.582	-200.000	-0.007	0.153
-216.567	218.948	-0.216	0.340
-215.552	-19.434	0.131	0.080
-214.538	-200.000	-0.038	0.345
-213.523	341.496	0.161	0.310
-212.509	145.821	-0.107	0.141
-211.494	414.209	0.144	0.301
-210.479	-200.000	0.355	0.001
-209.465	313.375	-0.035	-0.065
-208.450	-154.948	-0.130	0.008
-207.436	463.830	-0.061	-0.135
-206.421	18.603	-0.185	0.146
-205.406	206.084	-0.174	-0.266
-204.392	-76.545	-0.252	0.087
-203.377	177.690	-0.132	-0.189
-202.363	32.285	-0.118	-0.101
-201.348	57.814	-0.081	-0.078
-200.333	602.663	-0.163	0.400
-199.319	-66.446	0.255	-0.100
-198.304	104.769	-0.200	-0.232
-197.290	183.046	-0.098	0.143
-196.275	119.065	-0.140	0.170
-195.260	-2.772	-0.139	0.096
-194.246	-69.340	0.322	-0.121
-193.231	-7.150	0.128	0.086
-192.217	24.628	-0.191	0.155
-191.202	-41.376	-0.030	-0.015
-190.187	-200.000	-0.010	0.094
-189.173	150.629	0.222	0.296
-188.158	-75.765	0.069	-0.024
-187.144	174.083	-0.225	-0.320
-186.129	93.519	0.120	-0.134
-185.114	-97.695	0.157	-0.040
-184.100	-200.000	0.014	0.314
-183.085	-200.000	-0.009	-0.170
-182.071	394.627	-0.122	0.249
-181.056	90.962	0.036	-0.040
-180.042	-59.165	0.068	0.029
-179.027	-200.000	0.032	-0.158
-178.012	-30.435	-0.125	-0.070
-176.998	148.490	-0.166	0.221
-175.983	-32.239	-0.105	0.058
-174.969	-62.278	0.170	-0.070
-173.954	-31.675	-0.356	0.197
-172.939	172.985	-0.177	0.251
-171.925	-200.000	0.095	0.526
-170.910	-200.000	-0.071	0.453
-169.896	-70.472	0.190	-0.071
-168.881	-16.831	0.188	0.117
-167.866	-95.908	-0.028	0.007
-166.852	53.109	0.318	-0.299
-165.837	79.273	0.267	-0.281
-164.823	800.000	-0.030	0.129
-163.808	-8.217	0.190	0.126
-162.793	312.272	-0.148	0.273
-161.779	-144.261	0.252	0.023
-160.764	-200.000	-0.007	0.135
-159.750	48.671	-0.096	0.088
-158.735	45.626	-0.236	0.214
-157.720	-125.685	0.183	-0.027
-156.706	-112.019	0.224	-0.044
-155.691	800.000	0.055	0.207
-154.677	-200.000	-0.051	-0.284
-153.662	-43.001	0.212	0.105
-152.647	61.228	0.078	-0.076
-151.633	-156.616	-0.194	0.012
-150.618	-64.693	0.296	0.118
-149.604	-117.110	0.414	-0.074
-148.589	72.203	-0.064	0.066
-147.574	-68.987	0.353	0.134
-146.560	-171.313	0.270	0.009
-145.545	6.668	-0.089	0.065
-144.531	32.562	0.143	0.121
-143.516	-50.675	0.114	-0.053
-142.502	-117.715	0.044	-0.008
-141.487	-65.078	-0.054	0.021
-140.472	-96.644	-0.119	-0.031
-139.458	564.520	-0.224	0.534
-138.443	170.862	0.203	0.286
-137.429	-200.000	0.038	-0.239
-136.414	-18.781	0.112	0.068
-135.399	-105.126	0.166	0.037
-134.385	117.868	-0.189	-0.229
-133.370	800.000	-0.091	-0.348
-132.356	-37.932	-0.343	-0.179
-131.341	-94.205	-0.028	0.008
-130.326	69.496	-0.097	0.098
-129.312	165.384	-0.136	0.189
-128.297	-20.024	-0.069	0.042
-127.283	-47.696	0.237	0.113
-126.268	-200.000	-0.005	0.136
-125.253	757.977	0.192	-0.510
-124.239	56.957	-0.109	-0.104
-123.224	-148.488	0.454	0.036
-122.210	34.376	-0.037	-0.032
-121.195	115.504	0.232	0.278
-120.180	800.000	0.104	0.404
-119.166	-118.623	0.300	0.052
-118.151	62.891	-0.396	-0.389
-117.137	-83.744	0.233	0.073
-116.122	55.402	-0.059	0.056
-115.107	800.000	0.087	0.306
-114.093	-200.000	0.017	0.161
-113.078	-200.000	-0.073	0.533
-112.064	-200.000	-0.023	0.153
-111.049	-62.456	0.373	-0.152
-110.034	-54.540	-0.164	-0.073
-109.020	160.448	-0.139	-0.191
-108.005	800.000	-0.084	0.288
-106.991	-60.917	0.158	0.065
-105.976	-147.787	-0.177	0.015
-104.962	-89.421	0.324	-0.093
-103.947	474.734	0.093	0.205
-102.932	-72.701	0.171	-0.062
-101.918	39.795	-0.142	0.125
-100.903	-200.000	0.019	0.239
-99.889	-37.711	0.268	-0.140
-98.874	-64.669	-0.225	0.089
-97.859	800.000	-0.075	-0.238
-96.845	93.054	0.062	0.069
-95.830	20.626	0.060	-0.048
-94.816	-68.360	-0.269	-0.102
-93.801	-200.000	-0.018	-0.183
-92.786	-51.149	-0.250	0.115
-91.772	341.942	-0.050	-0.097
-90.757	-130.863	-0.174	0.023
-89.743	-8.683	-0.115	0.075
-88.728	-134.429	-0.230	-0.028
-87.713	-200.000	0.011	0.095
-86.699	-200.000	0.052	-0.266
-85.684	-138.445	0.354	-0.038
-84.670	220.850	-0.061	-0.095
-83.655	137.976	0.041	-0.052
-82.640	800.000	-0.056	0.174
-81.626	11.184	0.239	-0.179
-80.611	800.000	0.066	0.185
-79.597	-200.000	0.006	-0.336
-78.582	338.273	0.082	0.156
-77.567	592.949	0.141	0.342
-76.553	144.030	0.087	0.114
-75.538	-99.267	-0.140	-0.035
-74.524	155.568	0.157	0.211
-73.509	-67.841	0.088	0.034
-72.494	-160.774	-0.473	-0.025
-71.480	-82.926	0.299	0.094
-70.465	-20.629	0.136	0.081
-69.451	800.000	-0.020	-0.058
-68.436	-57.295	0.361	-0.156
-67.422	-96.483	0.283	-0.073
-66.407	188.725	-0.192	0.282
-65.392	79.552	-0.170	-0.179
-64.378	309.509	-0.015	0.028
-63.363	-200.000	-0.030	-0.312
-62.349	-21.827	0.126	0.075
-61.334	67.239	-1.069	-1.066
-60.319	45.973	0.731	0.662
-59.305	203.794	-0.724	-1.097
-58.290	464.157	0.759	1.660
-57.276	400.229	0.716	1.469
-56.261	-200.000	126.148	675.257
-55.246	421.591	1579.812	3315.574
-54.232	139.955	2740.520	3534.205
-53.217	87.103	2326.737	2515.687
-52.203	29.631	2071.597	1724.439
-51.188	25.008	1986.704	1612.220
-50.173	23.818	1970.580	1588.445
-49.159	42.564	2043.562	1819.016
-48.144	40.448	2055.778	1810.511
-47.130	25.375	2008.738	1633.176
-46.115	23.314	1997.083	1604.987
-45.100	23.228	1993.692	1601.416
-44.086	23.171	1991.253	1598.874
-43.071	23.044	1989.327	1596.119
-42.057	22.976	1987.764	1594.192
-41.042	23.048	1985.600	1593.040
-40.027	23.129	1983.538	1592.053
-39.013	23.128	1981.694	1590.500
-37.998	23.073	1980.202	1588.742
-36.984	23.081	1979.104	1587.877
-35.969	23.046	1976.700	1585.565
-34.954	23.038	1975.303	1584.316
-33.940	23.114	1973.671	1583.618
-32.925	23.182	1971.851	1582.704
-31.911	23.209	1970.078	1581.463
-30.896	23.239	1968.405	1580.323
-29.881	23.256	1967.170	1579.422
-28.867	23.221	1965.694	1577.865
-27.852	23.238	1963.821	1576.451
-26.838	23.265	1961.783	1574.991
-25.823	23.241	1960.147	1573.397
-24.809	23.274	1958.127	1572.010
-23.794	23.187	1956.470	1569.841
-22.779	23.221	1954.789	1568.737
-21.765	23.195	1954.061	1567.861
-20.750	23.318	1951.728	1567.013
-19.736	23.281	1950.265	1565.449
-18.721	23.266	1948.693	1563.987
-17.706	23.223	1947.380	1562.499
-16.692	23.218	1945.353	1560.761
-15.677	23.190	1943.913	1559.295
-14.663	23.182	1942.400	1557.952
-13.648	23.141	1941.722	1556.987
-12.633	23.177	1940.189	1556.015
-11.619	23.234	1938.647	1555.219
-10.604	23.225	1937.210	1553.917
-9.590	23.145	1936.160	1552.319
-8.575	23.226	1934.248	1551.435
-7.560	23.189	1933.089	1550.112
-6.546	23.119	1932.115	1548.662
-5.531	23.253	1930.342	1548.347
-4.517	23.232	1929.538	1547.463
-3.502	23.205	1928.584	1546.401
-2.487	23.144	1927.655	1545.061
-1.473	23.165	1926.047	1543.891
-0.458	23.204	1920.859	1540.008
0.556	21.484	1900.189	1511.407
1.571	17.210	1881.580	1459.830
2.586	13.288	1904.552	1443.346
3.600	12.473	1939.204	1462.235
4.615	12.452	1932.225	1456.654
5.629	9.661	1832.617	1357.957
6.644	3.775	1720.489	1228.095
7.659	0.579	1688.313	1180.067
8.673	0.277	1685.730	1175.803
9.688	0.131	1684.524	1173.717
10.702	0.207	1683.571	1173.547
11.717	0.075	1679.148	1169.328
12.731	0.496	1678.314	1171.917
13.746	5.173	1687.526	1214.698
14.761	12.324	1702.312	1281.194
15.775	16.230	1709.210	1316.808
16.790	16.751	1708.885	1320.508
17.804	15.879	1705.937	1311.322
18.819	14.955	1702.376	1301.283
19.834	14.294	1700.191	1294.359
20.848	14.024	1699.093	1291.316
21.863	13.793	1697.629	1288.293
22.877	13.563	1695.845	1285.037
23.892	13.372	1694.351	1282.315
24.907	13.285	1692.728	1280.300
25.921	13.243	1691.913	1279.242
26.936	13.226	1691.107	1278.394
27.950	13.306	1689.701	1277.831
28.965	13.265	1690.170	1277.754
29.980	13.395	1688.965	1277.739
30.994	13.416	1687.825	1276.923
32.009	13.420	1686.445	1275.796
33.023	13.458	1686.300	1275.866
34.038	13.505	1685.256	1275.325
35.053	13.497	1684.334	1274.455
36.067	13.474	1682.491	1272.770
37.082	13.384	1681.890	1271.510
38.096	13.468	1680.479	1270.976
39.111	13.522	1679.854	1270.808
40.126	13.527	1678.963	1270.056
41.140	13.471	1678.192	1268.931
42.155	13.379	1677.164	1267.339
43.169	13.346	1675.456	1265.682
44.184	13.240	1675.005	1264.420
45.199	13.284	1673.370	1263.414
46.213	13.215	1672.581	1262.175
47.228	13.335	1670.944	1261.742
48.242	13.274	1669.925	1260.396
49.257	13.307	1669.036	1259.864
50.271	13.373	1667.771	1259.302
51.286	13.339	1666.362	1257.869
52.301	13.394	1665.043	1257.184
53.315	13.391	1663.518	1255.894
54.330	13.313	1661.980	1254.035
55.344	13.313	1660.549	1252.838
56.359	13.255	1659.522	1251.517
57.374	13.259	1658.268	1250.489
58.388	13.301	1657.235	1249.921
59.403	13.290	1655.525	1248.433
60.417	13.343	1653.704	1247.350
61.432	13.260	1653.184	1246.221
62.447	13.263	1651.689	1245.008
63.461	13.153	1650.633	1243.276
64.476	13.172	1649.655	1242.567
65.490	13.149	1648.194	1241.188
66.505	13.233	1647.303	1241.036
67.520	13.269	1646.113	1240.303
68.534	13.206	1644.869	1238.783
69.549	13.358	1643.347	1238.662
70.563	13.205	1642.714	1236.935
71.578	13.247	1641.387	1236.137
72.593	13.248	1640.264	1235.186
73.607	13.217	1639.151	1234.007
74.622	13.160	1638.074	1232.669
75.636	13.180	1637.292	1232.118
76.651	13.124	1636.215	1230.778
77.666	13.214	1635.233	1230.604
78.680	13.092	1634.880	1229.318
79.695	13.129	1633.704	1228.604
80.709	13.206	1632.530	1228.180
81.724	13.240	1631.800	1227.774
82.739	13.234	1630.956	1226.992
83.753	13.318	1629.341	1226.291
84.768	13.271	1629.010	1225.581
85.782	13.355	1628.303	1225.561
86.797	13.386	1627.401	1225.006
87.812	13.469	1626.295	1224.677
88.826	13.386	1624.924	1222.922
89.841	13.268	1623.934	1221.197
90.855	13.368	1623.130	1221.227
91.870	13.355	1622.116	1220.259
92.884	13.373	1620.736	1219.246
93.899	13.423	1619.387	1218.488
94.914	13.455	1618.105	1217.652
95.928	13.458	1617.088	1216.805
96.943	13.573	1615.936	1216.672
97.957	13.438	1614.457	1214.463
98.972	13.461	1612.626	1213.142
99.987	13.352	1611.506	1211.394
101.001	13.387	1610.113	1210.502
102.016	13.419	1608.362	1209.307
103.030	13.375	1607.205	1208.013
104.045	13.414	1606.294	1207.501
105.060	13.399	1604.459	1205.907
106.074	13.381	1603.398	1204.876
107.089	13.439	1601.215	1203.548
108.103	13.298	1599.947	1201.464
109.118	13.316	1598.426	1200.349
110.133	13.279	1597.202	1199.050
111.147	13.327	1596.028	1198.414
112.162	13.249	1594.718	1196.760
113.176	13.358	1592.989	1196.140
114.191	13.358	1591.834	1195.172
115.206	13.345	1590.843	1194.226
116.220	13.357	1589.897	1193.494
117.235	13.394	1588.069	1192.283
118.249	13.420	1586.626	1191.287
119.264	13.247	1585.412	1189.020
120.279	13.213	1584.567	1188.041
121.293	13.282	1582.477	1186.866
122.308	13.252	1581.496	1185.804
123.322	13.311	1579.605	1184.705
124.337	13.269	1578.340	1183.353
125.352	13.312	1577.051	1182.587
126.366	13.263	1575.980	1181.333
127.381	13.291	1575.299	1180.915
128.395	13.254	1573.902	1179.499
129.410	13.261	1572.263	1178.217
130.424	13.282	1571.298	1177.543
131.439	13.261	1569.637	1176.042
132.454	13.296	1568.323	1175.201
133.468	13.264	1566.963	1173.851
134.483	13.408	1565.498	1173.675
135.497	13.429	1563.967	1172.572
136.512	13.347	1563.003	1171.160
137.527	13.322	1561.425	1169.697
138.541	13.389	1559.777	1168.834
139.556	13.411	1558.590	1167.999
140.570	13.329	1557.397	1166.423
141.585	13.475	1555.589	1165.990
142.600	13.397	1554.829	1164.770
143.614	13.521	1553.400	1164.466
144.629	13.594	1552.260	1164.024
145.643	13.599	1550.750	1162.826
146.658	13.512	1549.623	1161.266
147.673	13.595	1547.244	1159.959
148.687	13.581	1546.084	1158.891
149.702	13.531	1544.494	1157.248
150.716	13.424	1543.299	1155.503
151.731	13.471	1541.847	1154.640
152.746	13.567	1540.339	1154.076
153.760	13.565	1539.145	1153.071
154.775	13.501	1537.907	1151.593
155.789	13.658	1536.796	1151.751
156.804	13.602	1535.454	1150.256
157.819	13.603	1534.373	1149.348
158.833	13.707	1533.121	1149.028
159.848	13.787	1531.502	1148.268
160.862	13.827	1530.228	1147.488
161.877	13.784	1529.419	1146.485
162.892	13.721	1528.190	1145.024
163.906	13.725	1526.621	1143.774
164.921	13.706	1525.516	1142.716
165.935	13.690	1524.365	1141.643
166.950	13.678	1523.330	1140.685
167.964	13.580	1522.625	1139.383
168.979	13.741	1521.366	1139.443
169.994	13.762	1519.886	1138.384
171.008	13.743	1518.772	1137.311
172.023	13.761	1517.929	1136.705
173.037	13.783	1516.596	1135.755
174.052	13.796	1515.665	1135.050
175.067	13.782	1514.893	1134.275
176.081	13.781	1513.779	1133.334
177.096	13.800	1512.044	1132.064
178.110	13.755	1510.546	1130.536
179.125	13.789	1509.936	1130.208
180.140	13.897	1508.103	1129.473
181.154	13.817	1508.062	1128.801
182.169	13.873	1506.702	1128.064
183.183	13.861	1505.311	1126.835
184.198	13.909	1504.107	1126.163
185.213	14.062	1502.822	1126.137
186.227	14.010	1502.111	1125.156
187.242	13.966	1501.019	1123.935
188.256	14.010	1499.981	1123.357
189.271	14.019	1499.092	1122.656
190.286	14.007	1497.875	1121.564
191.300	14.057	1496.602	1120.848
192.315	13.946	1495.719	1119.340
193.329	13.904	1494.457	1118.010
194.344	13.819	1493.238	1116.428
195.359	13.847	1492.626	1116.064
196.373	13.907	1491.180	1115.282
197.388	13.928	1490.332	1114.695
198.402	14.064	1489.164	1114.634
199.417	14.015	1488.027	1113.356
200.432	14.077	1487.020	1112.917
201.446	14.114	1486.009	1112.310
202.461	14.204	1484.782	1111.897
203.475	14.215	1484.006	1111.290
204.490	14.198	1483.177	1110.454
205.504	14.252	1481.505	1109.469
206.519	14.201	1480.407	1108.208
207.534	14.260	1479.146	1107.555
208.548	14.219	1477.947	1106.289
209.563	14.258	1477.266	1105.942
210.577	14.167	1476.329	1104.537
211.592	14.252	1475.036	1104.033
212.607	14.283	1474.586	1103.804
213.621	14.207	1474.124	1102.859
214.636	14.323	1472.929	1102.633
215.650	14.470	1471.282	1102.276
216.665	14.446	1470.705	1101.591
217.680	14.358	1469.987	1100.375
218.694	14.429	1468.717	1099.791
219.709	14.447	1468.049	1099.310
220.723	14.447	1467.254	1098.624
221.738	14.425	1466.350	1097.699
222.753	14.421	1465.206	1096.721
223.767	14.476	1464.240	1096.263
224.782	14.458	1462.912	1095.052
225.796	14.541	1462.292	1095.035
226.811	14.518	1461.542	1094.227
227.826	14.552	1460.934	1093.899
228.840	14.562	1460.344	1093.426
229.855	14.505	1459.024	1091.969
230.869	14.419	1458.389	1090.836
231.884	14.479	1457.071	1090.146
232.899	14.611	1455.539	1089.765
233.913	14.538	1454.364	1088.309
234.928	14.398	1453.648	1086.764
235.942	14.457	1452.782	1086.406
236.957	14.366	1451.448	1084.719
237.972	14.484	1450.026	1084.327
238.986	14.436	1449.197	1083.303
240.001	14.496	1448.186	1082.839
241.015	14.468	1446.843	1081.560
242.030	14.537	1445.807	1081.136
243.045	14.595	1444.788	1080.653
244.059	14.619	1443.982	1080.109
245.074	14.604	1443.325	1079.423
246.088	14.599	1442.701	1078.834
247.103	14.681	1441.907	1078.675
248.117	14.735	1440.935	1078.199
249.132	14.874	1439.811	1078.157
250.147	14.789	1439.386	1077.198
251.161	14.856	1438.516	1076.880
252.176	15.009	1437.742	1077.194
253.190	14.963	1437.280	1076.456
254.205	15.024	1436.152	1075.907
255.220	14.912	1435.488	1074.591
256.234	15.038	1434.396	1074.488
257.249	15.030	1433.515	1073.686
258.263	15.098	1433.057	1073.683
259.278	15.031	1431.726	1072.158
260.293	15.097	1430.928	1071.887
261.307	15.151	1429.999	1071.445
262.322	15.245	1429.061	1071.249
263.336	15.247	1428.449	1070.710
264.351	15.135	1427.968	1069.539
265.366	15.270	1426.748	1069.392
266.380	15.245	1425.571	1068.253
267.395	15.141	1424.741	1066.874
268.409	15.267	1423.531	1066.674
269.424	15.276	1422.725	1066.034
270.439	15.203	1421.964	1064.910
271.453	15.271	1420.433	1064.095
272.468	15.271	1419.596	1063.376
273.482	15.207	1419.416	1062.744
274.497	15.155	1418.625	1061.723
275.512	15.203	1417.413	1061.026
276.526	15.233	1416.754	1060.632
277.541	15.310	1414.849	1059.597
278.555	15.275	1414.620	1059.109
279.570	15.249	1413.820	1058.255
280.585	15.269	1412.794	1057.520
281.599	15.453	1411.597	1057.691
282.614	15.416	1410.818	1056.779
283.628	15.409	1409.737	1055.832
284.643	15.405	1408.820	1055.029
285.657	15.413	1407.684	1054.131
286.672	15.357	1406.982	1053.159
287.687	15.436	1405.668	1052.579
288.701	15.444	1404.991	1052.031
289.716	15.402	1404.614	1051.392
290.730	15.436	1403.317	1050.541
291.745	15.519	1401.956	1049.951
292.760	15.503	1401.660	1049.531
293.774	15.557	1399.979	1048.518
294.789	15.630	1399.054	1048.187
295.803	15.532	1398.634	1047.173
296.818	15.642	1397.178	1046.673
297.833	15.673	1396.503	1046.271
298.847	15.610	1395.640	1045.135
299.862	15.648	1394.078	1044.109
300.876	15.688	1393.441	1043.789
301.891	15.682	1392.419	1042.896
302.906	15.738	1391.733	1042.637
303.920	15.711	1391.477	1042.185
304.935	15.729	1390.338	1041.348
305.949	15.756	1389.690	1040.939
306.964	15.781	1388.836	1040.363
307.979	15.818	1387.777	1039.708
308.993	15.853	1387.007	1039.251
310.008	15.759	1385.811	1037.684
311.022	15.867	1384.760	1037.471
312.037	15.841	1383.567	1036.329
313.052	15.926	1382.742	1036.137
314.066	16.009	1381.828	1035.872
315.081	15.831	1380.891	1033.985
316.095	15.881	1379.731	1033.335
317.110	15.724	1379.014	1031.739
318.125	15.810	1377.997	1031.417
319.139	15.807	1376.804	1030.414
320.154	15.852	1375.671	1029.746
321.168	15.894	1374.902	1029.341
322.183	15.841	1374.157	1028.365
323.197	15.860	1373.038	1027.557
324.212	15.870	1372.389	1027.036
325.227	15.920	1371.369	1026.488
326.241	15.901	1370.614	1025.718
327.256	16.021	1369.587	1025.592
328.270	15.968	1369.075	1024.792
329.285	15.955	1368.131	1023.916
330.300	15.956	1367.112	1023.068
331.314	16.024	1366.088	1022.625
332.329	16.036	1364.799	1021.640
333.343	15.945	1364.532	1020.801
334.358	16.090	1363.496	1020.811
335.373	16.106	1362.841	1020.332
336.387	16.128	1361.660	1019.488
337.402	16.145	1361.054	1019.048
338.416	16.154	1360.461	1018.569
339.431	16.189	1360.242	1018.526
340.446	16.149	1359.543	1017.669
341.460	16.234	1357.976	1016.918
342.475	16.274	1357.383	1016.623
343.489	16.234	1356.479	1015.616
344.504	16.336	1355.594	1015.478
345.519	16.267	1354.728	1014.326
346.533	16.347	1353.561	1013.842
347.548	16.381	1352.889	1013.450
348.562	16.448	1351.774	1012.933
349.577	16.471	1351.310	1012.630
350.592	16.435	1350.426	1011.663
351.606	16.382	1349.635	1010.661
352.621	16.445	1348.128	1009.819
353.635	16.329	1347.307	1008.423
354.650	16.338	1346.390	1007.704
355.665	16.321	1345.433	1006.797
356.679	16.390	1344.096	1006.119
357.694	16.300	1343.014	1004.683
358.708	16.328	1342.167	1004.125
359.723	16.472	1341.130	1004.117
360.738	16.559	1340.492	1004.067
361.752	16.507	1338.892	1002.472
362.767	16.526	1338.152	1001.942
363.781	16.530	1336.964	1000.989
364.796	16.649	1336.008	1000.884
365.810	16.538	1335.717	999.927
366.825	16.573	1335.257	999.697
367.840	16.635	1334.446	999.370
368.854	16.695	1333.538	998.954
369.869	16.771	1332.708	998.690
370.883	16.714	1332.342	997.996
371.898	16.751	1331.310	997.349
372.913	16.659	1330.668	996.237
373.927	16.689	1329.564	995.504
374.942	16.711	1328.967	995.095
375.956	16.792	1328.209	994.915
376.971	16.834	1327.307	994.397
377.986	16.869	1326.575	993.965
379.000	16.814	1325.681	992.890
380.015	16.808	1325.076	992.310
381.029	16.850	1324.445	991.995
382.044	16.943	1323.763	991.940
383.059	16.899	1323.068	991.077
384.073	17.051	1321.968	991.053
385.088	17.073	1321.354	990.630
386.102	16.937	1321.299	989.707
387.117	16.979	1320.279	989.104
388.132	16.977	1319.393	988.342
389.146	17.054	1318.137	987.758
390.161	16.997	1317.594	986.936
391.175	16.975	1316.813	986.132
392.190	16.996	1316.337	985.815
393.205	16.928	1315.338	984.581
394.219	16.960	1314.284	983.890
395.234	17.101	1312.696	983.433
396.248	17.042	1311.596	982.181
397.263	17.184	1310.108	981.802
398.278	17.103	1309.152	980.531
399.292	17.004	1307.862	978.906
400.307	17.028	1306.790	978.155
401.321	17.073	1305.729	977.532
402.336	16.979	1304.871	976.260
403.350	17.106	1303.680	976.016
404.365	17.128	1302.862	975.442
405.380	16.980	1302.339	974.114
406.394	17.142	1301.440	974.288
407.409	17.156	1300.688	973.719
408.423	17.228	1300.103	973.603
409.438	17.327	1298.828	973.130
410.453	17.331	1298.465	972.796
411.467	17.389	1297.707	972.474
412.482	17.284	1297.659	971.753
413.496	17.344	1296.693	971.284
414.511	17.397	1295.565	970.654
415.526	17.388	1294.675	969.852
416.540	17.532	1293.997	970.077
417.555	17.552	1293.502	969.738
418.569	17.435	1293.304	968.836
419.584	17.546	1292.537	968.805
420.599	17.530	1291.550	967.890
421.613	99.977	1360.729	1486.845
422.628	97.971	1370.754	1486.942
