DTS Sentinel unit serial number:	SN413079Multiplexer serial number:	ORYXHardware model number:	OX4-SRSoftware version number:	ORYX F/W v4.00 Oryx Data Collector v3.7.2.0data status	okinstallation	princeton_trtdifferential loss correction	single-endedforward channel	channel 4reverse channel	N/Adate	2019/09/13time	05:01:34forward acquisition time	60.00reverse acquisition time	0.00gamma	496.2192k internal	0.2323k external	0.2323temperature offset calibration	1.0187default loss term (dB/km)	0.3790temperature slope calibration	1.0000multiplexer offset coefficient	1.0000multiplexer slope coefficient	1.0000fibre end	0.00T internal ref (°C)	26.50T ext. ref 1 (°C)	4.05T ext. ref 2 (°C)	20.95length (m)	temperature (°C)	Stokes	anti-Stokes-747.200	-96.954	-0.080	0.021
-746.185	116.513	-0.046	-0.057
-745.171	-200.000	0.001	0.162
-744.156	252.310	-0.126	0.216
-743.142	-19.915	0.326	-0.204
-742.127	-200.000	-0.040	-0.264
-741.112	-200.000	-0.058	0.274
-740.098	51.524	-0.148	-0.142
-739.083	285.472	0.060	-0.110
-738.069	-121.754	-0.177	0.029
-737.054	46.498	0.115	-0.107
-736.039	-6.848	-0.357	0.245
-735.025	800.000	-0.094	-0.293
-734.010	623.681	-0.069	-0.176
-732.996	750.635	-0.096	0.262
-731.981	407.605	0.055	-0.117
-730.966	63.022	-0.144	-0.146
-729.952	-49.448	-0.116	0.056
-728.937	40.122	-0.053	0.048
-727.923	-41.043	-0.480	0.250
-726.908	-107.228	0.158	0.035
-725.894	-108.778	-0.078	-0.017
-724.879	-42.727	0.186	-0.096
-723.864	-145.097	-0.082	0.008
-722.850	800.000	0.097	-0.302
-721.835	-171.406	0.137	-0.005
-720.821	-200.000	-0.030	0.286
-719.806	-13.751	-0.260	-0.170
-718.791	800.000	0.063	-0.263
-717.777	-53.865	0.207	-0.095
-716.762	800.000	0.082	0.246
-715.748	307.446	-0.035	0.067
-714.733	-200.000	0.026	-0.188
-713.718	597.851	0.076	0.191
-712.704	124.607	0.092	-0.117
-711.689	89.630	0.352	0.397
-710.675	-26.478	-0.227	0.134
-709.660	-19.433	0.143	-0.089
-708.645	-4.451	-0.160	0.112
-707.631	-200.000	-0.044	-0.313
-706.616	-3.689	-0.263	-0.184
-705.602	-59.908	0.126	0.054
-704.587	-197.878	0.116	0.001
-703.572	-200.000	-0.022	-0.172
-702.558	172.553	0.049	0.071
-701.543	106.155	0.167	-0.199
-700.529	228.471	0.168	-0.275
-699.514	-77.215	0.127	-0.045
-698.499	2.426	0.109	-0.079
-697.485	-200.000	0.000	0.287
-696.470	-40.989	0.262	-0.137
-695.456	-19.002	-0.203	-0.127
-694.441	2.146	0.214	0.156
-693.426	178.628	0.086	-0.127
-692.412	221.206	0.066	0.106
-691.397	374.119	-0.131	-0.268
-690.383	80.859	0.187	-0.204
-689.368	-200.000	-0.002	0.139
-688.354	-200.000	0.027	-0.303
-687.339	-23.372	-0.140	-0.085
-686.324	-200.000	0.010	-0.350
-685.310	-200.000	-0.045	0.290
-684.295	-200.000	0.017	-0.097
-683.281	81.972	0.227	-0.248
-682.266	795.501	0.190	-0.528
-681.251	29.360	0.385	-0.329
-680.237	-200.000	0.026	0.345
-679.222	800.000	-0.091	-0.278
-678.208	230.820	0.050	0.082
-677.193	14.053	-0.150	-0.118
-676.178	599.583	0.078	0.194
-675.164	35.378	-0.264	0.233
-674.149	-200.000	-0.004	-0.036
-673.135	-189.447	0.113	0.001
-672.120	-109.418	0.074	0.016
-671.105	23.612	0.169	-0.140
-670.091	-22.221	-0.180	-0.110
-669.076	-29.601	0.285	-0.164
-668.062	-100.164	0.262	0.066
-667.047	-47.750	-0.233	0.114
-666.032	-164.743	-0.355	0.016
-665.018	-51.791	-0.122	-0.057
-664.003	-127.888	0.229	0.033
-662.989	-96.206	-0.336	-0.090
-661.974	180.040	-0.128	-0.188
-660.959	-121.293	0.119	-0.020
-659.945	-37.825	0.264	-0.141
-658.930	-120.421	-0.268	-0.046
-657.916	125.026	0.198	-0.252
-656.901	12.134	-0.084	-0.065
-655.886	31.516	0.304	-0.263
-654.872	498.803	-0.107	-0.249
-653.857	724.792	0.047	0.126
-652.843	-93.921	0.110	-0.031
-651.828	791.313	-0.035	-0.097
-650.814	-12.805	-0.052	0.034
-649.799	800.000	-0.010	-0.030
-648.784	3.902	-0.145	-0.107
-647.770	-106.318	-0.122	-0.027
-646.755	75.173	-0.146	-0.155
-645.741	-200.000	0.006	0.072
-644.726	-65.483	0.147	0.059
-643.711	800.000	-0.072	0.225
-642.697	137.082	-0.067	-0.088
-641.682	800.000	0.020	0.075
-640.668	-119.214	0.087	0.015
-639.653	-200.000	-0.015	0.135
-638.638	800.000	-0.061	-0.199
-637.624	435.711	0.015	-0.033
-636.609	54.930	-0.262	-0.255
-635.595	-145.816	-0.139	0.012
-634.580	238.398	-0.130	0.217
-633.565	-200.000	-0.083	0.390
-632.551	-171.399	0.075	-0.003
-631.536	-28.718	-0.091	-0.053
-630.522	-121.880	0.207	0.034
-629.507	-84.587	-0.144	0.046
-628.492	800.000	0.004	0.015
-627.478	-17.264	0.299	-0.189
-626.463	312.884	-0.037	0.070
-625.449	-140.560	-0.365	0.038
-624.434	275.274	0.155	-0.276
-623.419	800.000	-0.060	0.214
-622.405	-167.562	-0.156	-0.006
-621.390	21.539	0.089	-0.072
-620.376	67.953	-0.162	-0.167
-619.361	45.620	-0.030	-0.028
-618.346	-97.616	-0.304	0.079
-617.332	-105.795	0.059	0.013
-616.317	-200.000	-0.028	-0.431
-615.303	109.716	0.142	0.171
-614.288	-47.448	0.101	-0.049
-613.273	429.973	-0.039	0.084
-612.259	-93.431	-0.160	0.045
-611.244	-124.676	0.383	-0.060
-610.230	-200.000	0.030	-0.515
-609.215	-40.863	-0.171	-0.089
-608.201	-134.388	-0.119	0.015
-607.186	-26.775	0.101	-0.059
-606.171	49.367	-0.227	0.214
-605.157	276.089	-0.057	0.102
-604.142	-200.000	0.050	-0.496
-603.128	13.593	0.198	0.155
-602.113	19.569	0.224	0.181
-601.098	-59.120	0.141	-0.061
-600.084	-101.934	-0.181	0.044
-599.069	-38.753	0.307	0.163
-598.055	800.000	0.041	0.133
-597.040	222.001	0.218	-0.351
-596.025	126.105	-0.157	-0.200
-595.011	-132.953	-0.201	-0.026
-593.996	252.719	-0.052	-0.089
-592.982	-200.000	-0.050	-0.284
-591.967	-118.638	-0.204	0.036
-590.952	241.021	-0.136	-0.228
-589.938	-200.000	0.006	0.282
-588.923	26.581	-0.291	-0.244
-587.909	-30.903	-0.121	-0.069
-586.894	-123.716	-0.189	0.030
-585.879	-89.923	0.146	0.043
-584.865	800.000	-0.150	-0.474
-583.850	22.693	-0.108	0.089
-582.836	643.932	-0.084	-0.215
-581.821	-65.621	0.178	-0.071
-580.806	51.433	-0.108	0.103
-579.792	17.302	0.056	-0.044
-578.777	-123.675	0.292	0.047
-577.763	82.693	0.300	0.327
-576.748	-200.000	-0.021	0.123
-575.733	244.268	0.154	-0.259
-574.719	-57.247	0.084	-0.037
-573.704	213.721	0.163	0.258
-572.690	-200.000	0.021	-0.157
-571.675	-68.111	-0.043	-0.017
-570.661	-34.897	-0.173	-0.094
-569.646	57.304	0.041	0.040
-568.631	42.733	0.195	-0.178
-567.617	481.794	0.102	-0.232
-566.602	458.919	0.076	-0.170
-565.588	375.056	0.097	-0.198
-564.573	526.374	0.033	-0.078
-563.558	-200.000	0.030	0.141
-562.544	-106.548	-0.242	-0.054
-561.529	-200.000	0.040	0.181
-560.515	249.584	0.151	0.257
-559.500	64.292	-0.213	-0.215
-558.485	6.367	0.130	0.096
-557.471	354.868	0.122	-0.243
-556.456	800.000	0.084	-0.243
-555.442	-69.913	-0.540	-0.206
-554.427	-177.928	0.268	-0.006
-553.412	-115.109	-0.152	0.029
-552.398	194.687	-0.055	-0.083
-551.383	58.697	0.209	0.206
-550.369	57.342	0.245	0.239
-549.354	-200.000	0.039	0.229
-548.339	-200.000	0.087	-0.000
-547.325	504.406	-0.032	-0.074
-546.310	800.000	-0.054	0.195
-545.296	-66.304	-0.148	-0.059
-544.281	800.000	-0.027	-0.112
-543.266	174.261	0.118	0.171
-542.252	-200.000	0.011	-0.189
-541.237	-116.503	-0.085	0.016
-540.223	-200.000	-0.005	0.073
-539.208	49.071	-0.230	0.216
-538.193	28.170	-0.087	0.073
-537.179	-165.213	-0.157	0.007
-536.164	-112.686	-0.164	0.033
-535.150	494.271	0.052	-0.119
-534.135	375.235	0.207	0.423
-533.121	4.256	0.139	0.102
-532.106	-200.000	0.011	-0.105
-531.091	-158.956	0.240	-0.014
-530.077	89.339	0.240	0.268
-529.062	-95.377	-0.285	0.077
-528.048	-139.724	-0.286	0.030
-527.033	53.947	0.121	-0.117
-526.018	-200.000	0.040	-0.226
-525.004	347.396	-0.119	-0.235
-523.989	-96.664	0.165	-0.043
-522.975	-11.165	-0.125	0.082
-521.960	-105.323	0.431	0.098
-520.945	309.153	-0.025	0.046
-519.931	243.786	0.236	0.396
-518.916	95.761	0.287	0.328
-517.902	-34.470	-0.094	-0.052
-516.887	-200.000	-0.007	-0.242
-515.872	-51.686	-0.058	-0.027
-514.858	21.053	-0.246	-0.200
-513.843	-29.321	-0.315	-0.181
-512.829	-58.293	-0.231	-0.101
-511.814	6.398	0.246	-0.183
-510.799	-158.929	-0.302	0.017
-509.785	-200.000	-0.004	0.092
-508.770	-156.098	-0.155	0.010
-507.756	-200.000	-0.002	-0.063
-506.741	-109.339	0.261	-0.055
-505.726	503.890	0.119	0.275
-504.712	647.825	0.126	0.323
-503.697	-181.834	-0.191	0.004
-502.683	98.630	-0.319	0.369
-501.668	-79.565	0.254	-0.086
-500.653	246.948	0.021	0.036
-499.639	800.000	-0.043	0.155
-498.624	800.000	0.118	0.367
-497.610	-40.204	0.076	-0.040
-496.595	113.620	-0.140	0.170
-495.581	12.517	0.284	0.219
-494.566	-88.997	-0.108	-0.032
-493.551	100.569	-0.321	0.373
-492.537	385.307	-0.082	-0.169
-491.522	-200.000	-0.004	-0.040
-490.508	-70.142	-0.299	-0.114
-489.493	800.000	-0.100	0.386
-488.478	-60.110	0.169	-0.072
-487.464	424.114	-0.043	-0.093
-486.449	-167.540	-0.242	-0.010
-485.435	-136.761	-0.269	0.031
-484.420	-67.704	0.339	-0.133
-483.405	101.531	-0.205	-0.239
-482.391	-97.415	0.158	0.041
-481.376	800.000	-0.116	-0.324
-480.362	120.967	-0.128	0.159
-479.347	183.086	-0.197	-0.290
-478.332	794.153	-0.078	-0.216
-477.318	-91.277	0.157	0.045
-476.303	-97.836	0.056	-0.014
-475.289	261.092	-0.193	0.334
-474.274	10.943	0.090	0.069
-473.259	-78.771	-0.224	0.076
-472.245	-67.188	-0.164	0.064
-471.230	800.000	0.042	0.139
-470.216	-149.986	-0.282	0.022
-469.201	75.064	-0.171	0.180
-468.186	74.616	0.083	-0.087
-467.172	91.974	0.278	0.312
-466.157	-53.301	0.056	0.026
-465.143	-200.000	-0.067	0.302
-464.128	800.000	-0.008	-0.027
-463.113	-86.198	0.082	0.025
-462.099	-125.698	-0.318	0.048
-461.084	-200.000	0.023	-0.168
-460.070	-200.000	0.027	0.176
-459.055	790.907	-0.094	-0.259
-458.040	403.306	0.096	-0.202
-457.026	800.000	-0.100	-0.295
-456.011	-200.000	0.079	0.438
-454.997	-200.000	0.016	-0.255
-453.982	800.000	-0.045	0.178
-452.968	73.863	-0.317	-0.332
-451.953	-90.035	-0.251	0.073
-450.938	-138.294	0.219	-0.024
-449.924	-200.000	-0.004	0.192
-448.909	320.033	0.132	0.251
-447.895	25.687	0.035	0.029
-446.880	-200.000	0.006	0.175
-445.865	195.526	0.025	0.037
-444.851	-200.000	0.012	-0.425
-443.836	131.303	0.100	-0.129
-442.822	-63.862	-0.211	0.086
-441.807	800.000	0.213	-0.636
-440.792	-157.764	-0.436	-0.026
-439.778	800.000	-0.049	0.177
-438.763	-117.116	0.398	0.072
-437.749	-48.337	0.062	0.030
-436.734	-200.000	0.035	-0.163
-435.719	403.683	0.063	-0.132
-434.705	68.732	-0.132	-0.136
-433.690	738.547	-0.053	-0.141
-432.676	65.172	0.089	-0.090
-431.661	64.660	-0.137	0.137
-430.646	-144.533	0.108	-0.010
-429.632	-44.695	-0.272	-0.135
-428.617	35.717	0.175	-0.154
-427.603	-60.295	-0.447	-0.190
-426.588	800.000	0.051	0.209
-425.573	22.209	0.051	0.041
-424.559	800.000	-0.014	0.051
-423.544	0.513	0.209	-0.149
-422.530	276.724	0.165	-0.293
-421.515	-70.007	-0.240	-0.091
-420.500	-200.000	-0.015	-0.086
-419.486	-92.193	-0.724	0.204
-418.471	-16.944	0.275	-0.173
-417.457	800.000	-0.034	0.131
-416.442	-89.648	0.170	0.050
-415.428	-5.535	-0.095	0.065
-414.413	-2.728	-0.226	-0.158
-413.398	256.983	-0.092	-0.158
-412.384	309.436	0.033	0.062
-411.369	-8.176	0.088	0.059
-410.355	-200.000	0.020	-0.175
-409.340	-40.325	-0.269	0.139
-408.325	-10.943	-0.333	0.219
-407.311	-2.756	-0.278	-0.194
-406.296	-52.306	0.359	0.166
-405.282	133.615	0.017	-0.021
-404.267	-48.759	0.283	-0.135
-403.252	-33.774	0.011	0.006
-402.238	13.719	0.140	-0.108
-401.223	-200.000	0.051	-0.250
-400.209	-97.488	0.197	0.051
-399.194	91.875	0.068	0.076
-398.179	-173.131	-0.440	0.013
-397.165	-16.088	0.217	-0.138
-396.150	625.332	-0.095	0.240
-395.136	-51.934	0.248	0.115
-394.121	-200.000	-0.098	-0.494
-393.106	262.729	-0.138	0.239
-392.092	-200.000	0.012	-0.124
-391.077	155.767	0.045	0.062
-390.063	113.015	0.102	0.123
-389.048	-107.163	-0.167	0.037
-388.033	-200.000	0.020	-0.148
-387.019	5.469	-0.050	0.037
-386.004	-200.000	-0.005	0.340
-384.990	51.564	0.135	-0.128
-383.975	-93.836	0.310	-0.085
-382.960	3.615	-0.322	-0.234
-381.946	85.286	0.140	0.153
-380.931	-174.132	0.316	0.009
-379.917	-200.000	0.059	-0.268
-378.902	-44.098	-0.225	0.113
-377.888	278.031	-0.052	-0.093
-376.873	293.489	0.035	0.064
-375.858	-64.226	0.163	0.066
-374.844	800.000	-0.059	0.166
-373.829	-147.035	0.319	-0.027
-372.815	129.181	0.179	0.228
-371.800	13.680	0.185	-0.143
-370.785	-19.044	0.428	-0.265
-369.771	91.117	0.221	-0.247
-368.756	-200.000	-0.034	-0.393
-367.742	-80.654	0.337	0.112
-366.727	-122.956	0.203	0.032
-365.712	78.768	0.033	0.036
-364.698	24.966	-0.202	-0.167
-363.683	283.848	0.093	0.167
-362.669	-65.224	0.373	-0.149
-361.654	-172.742	-0.406	-0.013
-360.639	-109.834	-0.150	-0.031
-359.625	95.591	-0.150	-0.170
-358.610	-104.293	-0.155	0.036
-357.596	38.336	-0.178	-0.157
-356.581	800.000	0.089	-0.258
-355.566	-82.932	0.113	-0.036
-354.552	-43.269	-0.215	0.108
-353.537	-41.438	-0.227	0.116
-352.523	800.000	0.015	0.058
-351.508	800.000	-0.045	0.127
-350.493	-200.000	-0.015	-0.086
-349.479	-200.000	0.008	-0.093
-348.464	-75.281	-0.066	0.023
-347.450	-173.362	0.082	0.002
-346.435	-107.364	0.250	-0.055
-345.420	-200.000	-0.040	0.374
-344.406	-120.377	0.255	-0.043
-343.391	-59.365	-0.053	0.022
-342.377	129.634	0.167	-0.212
-341.362	-92.638	0.083	0.023
-340.348	-162.148	0.226	-0.011
-339.333	98.803	-0.220	-0.252
-338.318	-87.140	0.092	-0.028
-337.304	-82.558	0.253	-0.082
-336.289	800.000	-0.089	0.254
-335.275	221.195	-0.104	-0.165
-334.260	70.238	-0.060	0.061
-333.245	-200.000	-0.023	-0.117
-332.231	41.986	0.162	-0.146
-331.216	-100.657	-0.106	-0.026
-330.202	-86.916	0.201	0.061
-329.187	34.287	-0.258	0.224
-328.172	87.262	-0.031	0.034
-327.158	-111.723	-0.361	0.073
-326.143	-124.336	0.017	0.003
-325.129	800.000	0.049	0.207
-324.114	1.887	0.095	0.068
-323.099	800.000	0.093	0.304
-322.085	-22.058	0.235	0.142
-321.070	132.830	-0.123	-0.157
-320.056	103.490	0.099	0.115
-319.041	-63.795	0.031	-0.012
-318.026	-200.000	-0.022	0.156
-317.012	186.964	0.243	0.359
-315.997	108.186	-0.076	0.090
-314.983	-200.000	-0.092	-0.482
-313.968	570.159	-0.143	0.346
-312.953	595.367	0.088	0.216
-311.939	-0.550	0.067	-0.047
-310.924	-94.763	-0.145	-0.039
-309.910	659.075	-0.070	0.178
-308.895	-20.261	-0.229	0.140
-307.880	-119.441	-0.273	-0.047
-306.866	1.192	0.409	0.292
-305.851	-113.767	-0.103	-0.020
-304.837	-29.819	0.338	-0.192
-303.822	-128.170	0.202	0.029
-302.807	-200.000	0.013	-0.174
-301.793	-172.019	0.286	-0.009
-300.778	200.943	-0.190	0.290
-299.764	31.586	0.081	-0.069
-298.749	55.729	-0.099	-0.095
-297.735	47.395	-0.142	0.132
-296.720	800.000	0.021	0.058
-295.705	19.774	-0.143	0.115
-294.691	-200.000	-0.006	-0.243
-293.676	87.913	-0.186	-0.205
-292.662	-89.546	-0.221	0.064
-291.647	75.711	0.231	-0.242
-290.632	15.170	-0.109	0.085
-289.618	-153.985	-0.186	0.013
-288.603	-138.853	-0.555	0.060
-287.589	-15.639	0.121	0.076
-286.574	-183.073	0.073	0.001
-285.559	-200.000	-0.011	0.069
-284.545	800.000	0.073	0.233
-283.530	-147.202	-0.217	0.018
-282.516	130.568	-0.101	-0.128
-281.501	559.673	-0.030	-0.071
-280.486	-45.012	-0.261	0.129
-279.472	-134.050	0.408	-0.050
-278.457	800.000	0.089	0.294
-277.443	-35.660	0.413	-0.222
-276.428	-70.907	-0.226	-0.084
-275.413	11.851	-0.101	0.077
-274.399	335.904	0.122	0.234
-273.384	10.111	-0.187	0.141
-272.370	-86.940	-0.073	0.022
-271.355	423.449	-0.032	0.069
-270.340	-3.149	-0.431	-0.298
-269.326	264.713	0.179	-0.308
-268.311	-200.000	0.051	-0.231
-267.297	-40.419	0.184	-0.095
-266.282	718.622	0.032	0.084
-265.267	-177.178	0.408	0.010
-264.253	-99.205	-0.292	0.073
-263.238	84.630	0.274	0.298
-262.224	-27.612	-0.238	0.137
-261.209	-40.774	-0.195	-0.100
-260.195	44.013	0.086	0.079
-259.180	-200.000	0.009	0.213
-258.165	-168.961	0.335	0.012
-257.151	-121.800	-0.112	-0.018
-256.136	119.308	-0.076	0.093
-255.122	-200.000	0.015	-0.186
-254.107	572.286	-0.045	-0.109
-253.092	-51.532	0.284	-0.131
-252.078	-200.000	-0.002	-0.122
-251.063	-43.065	-0.027	-0.014
-250.049	-47.571	0.202	-0.097
-249.034	-200.000	0.007	-0.309
-248.019	-17.881	0.122	-0.076
-247.005	-65.188	0.290	0.116
-245.990	-147.935	-0.268	-0.022
-244.976	39.111	0.179	-0.158
-243.961	128.185	0.036	0.045
-242.946	-108.591	-0.153	0.032
-241.932	7.070	0.079	-0.058
-240.917	335.680	0.064	0.123
-239.903	76.633	0.114	0.120
-238.888	53.406	-0.162	0.154
-237.873	-139.723	0.319	-0.034
-236.859	282.223	-0.019	0.033
-235.844	-52.130	0.354	0.163
-234.830	163.655	0.327	-0.455
-233.815	800.000	0.127	-0.388
-232.800	200.866	-0.066	0.100
-231.786	20.683	-0.212	-0.170
-230.771	800.000	0.023	0.099
-229.757	800.000	0.082	0.247
-228.742	328.944	-0.065	0.123
-227.727	17.946	0.104	0.082
-226.713	-139.565	0.149	-0.016
-225.698	493.073	0.079	0.180
-224.684	28.205	0.052	-0.043
-223.669	-108.559	0.050	0.011
-222.655	-42.911	-0.204	0.102
-221.640	-101.413	0.226	0.055
-220.625	-200.000	0.001	-0.223
-219.611	800.000	0.043	-0.174
-218.596	-108.790	0.116	0.025
-217.582	758.455	-0.017	-0.046
-216.567	90.299	-0.230	0.255
-215.552	-36.931	-0.325	0.173
-214.538	87.871	0.152	0.167
-213.523	-200.000	0.035	-0.246
-212.509	152.098	-0.114	0.153
-211.494	506.101	0.079	-0.182
-210.479	-48.996	0.500	0.237
-209.465	-200.000	-0.000	-0.034
-208.450	-200.000	0.006	0.161
-207.436	149.635	-0.105	0.141
-206.421	-83.646	-0.257	0.081
-205.406	800.000	0.049	0.200
-204.392	-99.947	0.317	-0.078
-203.377	-88.556	-0.082	-0.024
-202.363	-34.993	-0.064	-0.034
-201.348	-200.000	0.045	0.316
-200.333	-87.396	0.417	0.125
-199.319	-49.527	-0.169	0.080
-198.304	393.727	-0.080	0.165
-197.290	125.116	0.113	0.141
-196.275	41.829	-0.209	-0.187
-195.260	-200.000	0.019	-0.142
-194.246	-24.912	0.147	-0.086
-193.231	550.824	-0.128	0.303
-192.217	122.324	0.100	0.123
-191.202	-200.000	-0.022	0.342
-190.187	-37.426	0.221	-0.117
-189.173	63.799	-0.283	-0.281
-188.158	90.400	-0.042	-0.046
-187.144	-162.233	-0.133	-0.007
-186.129	-25.831	-0.333	-0.194
-185.114	686.332	-0.127	-0.329
-184.100	800.000	-0.059	0.215
-183.085	800.000	-0.018	-0.070
-182.071	-110.429	-0.069	-0.014
-181.056	-14.812	-0.165	0.104
-180.042	-25.558	0.182	0.106
-179.027	18.487	-0.101	0.080
-178.012	-200.000	0.023	0.146
-176.998	391.083	-0.050	0.103
-175.983	78.743	0.250	0.264
-174.969	-73.586	0.218	0.079
-173.954	519.309	0.071	0.163
-172.939	55.175	0.202	-0.193
-171.925	7.512	0.074	-0.055
-170.910	800.000	0.060	-0.231
-169.896	431.155	0.151	-0.323
-168.881	108.508	0.233	0.275
-167.866	60.850	0.148	-0.145
-166.852	-179.674	0.210	-0.004
-165.837	4.129	-0.389	0.281
-164.823	136.806	-0.124	-0.160
-163.808	13.669	0.118	0.091
-162.793	70.939	-0.196	0.200
-161.779	-200.000	-0.005	0.283
-160.764	71.478	-0.086	-0.088
-159.750	-34.102	0.287	0.156
-158.735	239.834	-0.182	0.299
-157.720	477.833	-0.093	-0.208
-156.706	-1.134	0.227	-0.158
-155.691	-65.359	0.220	-0.087
-154.677	277.817	-0.231	-0.406
-153.662	-66.103	0.112	-0.044
-152.647	-86.489	0.082	-0.025
-151.633	-200.000	-0.457	-0.000
-150.618	365.736	0.053	-0.106
-149.604	800.000	0.088	-0.254
-148.589	28.533	0.367	0.306
-147.574	800.000	-0.022	-0.083
-146.560	46.966	-0.133	0.122
-145.545	-200.000	0.280	0.000
-144.531	158.217	0.162	0.222
-143.516	2.584	-0.152	0.109
-142.502	70.126	-0.149	-0.152
-141.487	782.089	-0.051	-0.137
-140.472	-200.000	0.001	-0.326
-139.458	-200.000	0.015	-0.078
-138.443	80.087	0.285	0.302
-137.429	800.000	-0.097	-0.303
-136.414	800.000	0.025	0.072
-135.399	159.450	0.248	-0.341
-134.385	-118.548	-0.276	-0.048
-133.370	-73.465	-0.151	0.054
-132.356	-95.389	-0.188	0.050
-131.341	262.022	-0.098	-0.168
-130.326	-200.000	0.058	-0.314
-129.312	216.902	-0.186	0.292
-128.297	32.701	0.079	-0.068
-127.283	-200.000	-0.011	-0.073
-126.268	-158.026	0.107	0.006
-125.253	-200.000	0.036	-0.404
-124.239	19.891	0.173	0.137
-123.224	414.757	0.066	0.139
-122.210	800.000	-0.043	-0.139
-121.195	-200.000	0.005	-0.103
-120.180	-194.250	0.430	-0.003
-119.166	225.862	-0.088	0.141
-118.151	-200.000	0.006	-0.144
-117.137	39.698	-0.042	-0.038
-116.122	133.801	-0.173	-0.221
-115.107	800.000	-0.137	-0.380
-114.093	69.340	0.251	0.255
-113.078	195.674	0.124	0.186
-112.064	-200.000	0.014	0.414
-111.049	22.713	0.193	-0.156
-110.034	427.924	0.160	-0.340
-109.020	-37.724	0.031	-0.016
-108.005	178.211	0.098	-0.140
-106.991	17.767	0.162	-0.127
-105.976	-3.688	0.140	-0.096
-104.962	190.314	-0.157	-0.232
-103.947	-200.000	0.043	-0.188
-102.932	-0.075	-0.178	-0.125
-101.918	283.081	0.150	0.266
-100.903	-112.387	-0.238	-0.047
-99.889	-148.136	0.467	0.038
-98.874	-200.000	0.021	-0.227
-97.859	-99.485	0.150	-0.037
-96.845	300.017	-0.028	0.050
-95.830	-174.866	0.312	-0.009
-94.816	800.000	0.112	-0.443
-93.801	81.862	0.168	-0.179
-92.786	-36.144	0.142	-0.075
-91.772	312.856	0.165	0.306
-90.757	-137.212	0.288	0.032
-89.743	-200.000	-0.085	0.397
-88.728	800.000	-0.104	-0.326
-87.713	394.286	-0.047	0.097
-86.699	699.524	0.031	-0.080
-85.684	223.109	-0.017	0.027
-84.670	-135.828	-0.235	-0.027
-83.655	-111.738	0.213	-0.042
-82.640	355.207	0.058	0.113
-81.626	800.000	-0.117	0.391
-80.611	800.000	0.006	0.023
-79.597	67.677	0.014	0.014
-78.582	-113.602	0.103	0.020
-77.567	-200.000	0.028	-0.260
-76.553	176.277	0.043	-0.061
-75.538	-123.997	-0.405	-0.063
-74.524	141.182	0.116	-0.151
-73.509	49.287	0.092	0.085
-72.494	161.753	0.089	-0.123
-71.480	-125.641	-0.092	0.014
-70.465	-61.451	0.115	0.047
-69.451	800.000	-0.047	0.154
-68.436	263.088	0.085	0.145
-67.422	-50.088	0.369	-0.172
-66.407	-60.094	0.303	0.127
-65.392	22.762	0.136	-0.109
-64.378	35.036	-0.282	0.243
-63.363	-200.000	0.021	0.343
-62.349	30.110	-0.135	0.113
-61.334	143.811	-0.896	-1.175
-60.319	142.487	0.538	0.702
-59.305	800.000	-0.409	-1.210
-58.290	455.863	0.476	1.039
-57.276	544.224	0.755	1.773
-56.261	-200.000	116.757	654.771
-55.246	501.283	1543.306	3502.625
-54.232	171.947	2721.855	3844.926
-53.217	96.526	2325.321	2616.423
-52.203	32.963	2069.090	1761.729
-51.188	28.319	1984.359	1647.846
-50.173	26.983	1967.081	1621.510
-49.159	44.147	2028.485	1828.492
-48.144	42.901	2043.115	1830.293
-47.130	28.797	2000.699	1665.492
-46.115	26.561	1990.906	1637.072
-45.100	26.518	1987.874	1634.129
-44.086	26.419	1985.860	1631.512
-43.071	26.444	1983.372	1629.630
-42.057	26.352	1980.833	1626.649
-41.042	26.342	1979.551	1625.442
-40.027	26.388	1977.674	1624.251
-39.013	26.435	1975.468	1622.798
-37.998	26.351	1974.005	1620.780
-36.984	26.481	1971.906	1620.151
-35.969	26.403	1969.576	1617.482
-34.954	26.454	1968.423	1616.926
-33.940	26.422	1967.206	1615.571
-32.925	26.464	1965.709	1614.656
-31.911	26.502	1963.641	1613.232
-30.896	26.430	1962.175	1611.323
-29.881	26.612	1959.677	1610.826
-28.867	26.546	1958.701	1609.377
-27.852	26.537	1957.272	1608.056
-26.838	26.586	1955.118	1606.653
-25.823	26.506	1953.419	1604.489
-24.809	26.566	1951.390	1603.286
-23.794	26.530	1949.794	1601.595
-22.779	26.526	1947.716	1599.787
-21.765	26.539	1946.310	1598.684
-20.750	26.581	1944.612	1597.597
-19.736	26.564	1942.990	1596.051
-18.721	26.493	1942.104	1594.640
-17.706	26.500	1940.230	1593.093
-16.692	26.455	1938.114	1590.901
-15.677	26.480	1936.643	1589.847
-14.663	26.461	1935.485	1588.667
-13.648	26.550	1933.497	1587.751
-12.633	26.523	1932.811	1586.890
-11.619	26.521	1931.588	1585.803
-10.604	26.499	1929.667	1583.973
-9.590	26.517	1928.789	1583.345
-8.575	26.530	1927.593	1582.416
-7.560	26.539	1926.062	1581.173
-6.546	26.574	1924.727	1580.324
-5.531	26.566	1923.872	1579.489
-4.517	26.571	1922.767	1578.563
-3.502	26.546	1921.565	1577.289
-2.487	26.452	1920.348	1575.412
-1.473	26.557	1919.254	1575.366
-0.458	26.573	1914.064	1571.186
0.556	28.196	1894.551	1542.600
1.571	23.812	1875.735	1490.462
2.586	19.756	1898.688	1474.066
3.600	18.599	1933.535	1490.936
4.615	18.405	1926.599	1483.777
5.629	14.626	1828.129	1376.699
6.644	7.762	1715.447	1238.433
7.659	4.199	1682.067	1186.986
8.673	3.958	1679.188	1183.008
9.688	4.050	1677.860	1182.666
10.702	4.118	1676.768	1182.310
11.717	4.054	1673.271	1179.255
12.731	4.495	1672.238	1181.778
13.746	9.412	1684.611	1228.022
14.761	17.571	1701.678	1303.017
15.775	22.129	1709.997	1344.221
16.790	22.670	1709.950	1348.208
17.804	21.876	1706.793	1339.532
18.819	21.015	1703.715	1330.439
19.834	20.380	1701.775	1323.958
20.848	20.250	1700.283	1321.696
21.863	20.321	1699.144	1321.233
22.877	20.050	1698.806	1318.786
23.892	19.942	1697.406	1316.763
24.907	19.879	1695.938	1315.031
25.921	19.812	1694.690	1313.438
26.936	19.831	1693.411	1312.474
27.950	19.803	1692.702	1311.593
28.965	19.829	1692.325	1311.387
29.980	19.865	1691.737	1311.086
30.994	20.057	1690.160	1311.199
32.009	20.262	1689.592	1312.196
33.023	20.202	1689.564	1311.606
34.038	20.278	1688.598	1311.314
35.053	20.217	1686.950	1309.453
36.067	20.133	1685.563	1307.631
37.082	20.002	1684.309	1305.557
38.096	20.034	1683.447	1305.009
39.111	20.223	1682.321	1305.449
40.126	20.169	1682.256	1304.873
41.140	20.075	1681.515	1303.477
42.155	19.791	1679.878	1299.959
43.169	19.604	1677.626	1296.696
44.184	19.491	1676.156	1294.596
45.199	19.433	1675.751	1293.736
46.213	19.414	1674.657	1292.631
47.228	19.631	1673.279	1293.084
48.242	19.811	1672.362	1293.605
49.257	19.939	1671.658	1293.902
50.271	19.928	1670.344	1292.687
51.286	19.843	1669.234	1291.083
52.301	19.936	1668.000	1290.708
53.315	19.938	1666.263	1289.262
54.330	19.800	1665.094	1287.214
55.344	19.678	1663.214	1284.739
56.359	19.492	1662.238	1282.491
57.374	19.592	1660.947	1282.121
58.388	19.605	1659.695	1281.141
59.403	19.511	1657.771	1278.847
60.417	19.487	1656.407	1277.504
61.432	19.354	1655.983	1276.080
62.447	19.355	1654.613	1274.922
63.461	19.290	1653.110	1273.167
64.476	19.208	1652.151	1271.708
65.490	19.128	1651.338	1270.382
66.505	19.217	1649.582	1269.575
67.520	19.179	1648.787	1268.568
68.534	19.177	1647.832	1267.706
69.549	19.269	1646.418	1267.184
70.563	19.168	1645.766	1265.830
71.578	19.182	1643.860	1264.356
72.593	19.055	1643.032	1262.671
73.607	18.993	1641.934	1261.264
74.622	18.970	1640.753	1260.072
75.636	18.904	1639.661	1258.640
76.651	18.997	1639.738	1259.274
77.666	19.024	1638.614	1258.494
78.680	19.012	1638.051	1257.859
79.695	19.101	1636.996	1257.588
80.709	19.143	1636.624	1257.501
81.724	19.298	1635.706	1257.814
82.739	19.456	1635.583	1258.762
83.753	19.557	1634.174	1258.302
84.768	19.679	1633.722	1258.734
85.782	19.909	1632.804	1259.590
86.797	19.996	1632.637	1259.976
87.812	20.166	1631.489	1260.218
88.826	20.079	1629.835	1258.195
89.841	19.909	1629.183	1256.349
90.855	20.026	1627.845	1256.054
91.870	20.054	1627.217	1255.660
92.884	20.132	1626.643	1255.675
93.899	20.194	1625.564	1255.176
94.914	20.235	1624.514	1254.555
95.928	20.269	1623.307	1253.752
96.943	20.311	1621.863	1252.828
97.957	20.183	1619.886	1250.268
98.972	20.205	1618.816	1249.494
99.987	20.037	1617.659	1247.276
101.001	19.991	1616.211	1245.718
102.016	20.038	1614.726	1244.807
103.030	20.055	1613.328	1243.738
104.045	20.012	1612.382	1242.592
105.060	20.036	1610.834	1241.461
106.074	19.993	1609.256	1239.829
107.089	19.768	1606.827	1236.235
108.103	19.418	1604.827	1232.092
109.118	19.180	1603.507	1229.269
110.133	19.192	1601.987	1228.082
111.147	19.210	1600.153	1226.693
112.162	19.141	1599.420	1225.532
113.176	19.268	1597.908	1225.171
114.191	19.354	1596.569	1224.643
115.206	19.358	1595.409	1223.677
116.220	19.426	1594.212	1223.127
117.235	19.424	1592.476	1221.674
118.249	19.428	1591.638	1220.952
119.264	19.355	1590.050	1219.111
120.279	19.221	1589.051	1217.288
121.293	19.166	1587.443	1215.560
122.308	19.052	1586.232	1213.721
123.322	19.039	1584.092	1211.889
124.337	18.949	1583.148	1210.422
125.352	18.883	1581.553	1208.630
126.366	18.865	1580.603	1207.672
127.381	18.920	1579.134	1206.831
128.395	18.876	1578.123	1205.640
129.410	18.840	1576.659	1204.163
130.424	18.838	1575.517	1203.176
131.439	18.938	1574.788	1203.212
132.454	19.105	1573.182	1203.040
133.468	19.307	1571.704	1203.220
134.483	19.294	1570.410	1202.026
135.497	19.355	1569.270	1201.472
136.512	19.414	1568.090	1200.875
137.527	19.426	1566.561	1199.684
138.541	19.530	1564.765	1198.920
139.556	19.448	1564.496	1198.043
140.570	19.468	1562.777	1196.756
141.585	19.606	1561.521	1196.649
142.600	19.740	1560.787	1196.903
143.614	19.903	1559.262	1196.757
144.629	19.948	1558.356	1196.270
145.643	19.972	1557.454	1195.635
146.658	20.147	1556.367	1195.904
147.673	19.959	1554.554	1193.107
148.687	19.743	1553.319	1190.569
149.702	19.722	1551.330	1188.795
150.716	19.512	1549.675	1185.979
151.731	19.437	1548.314	1184.312
152.746	19.433	1546.588	1182.861
153.760	19.418	1545.237	1181.624
154.775	19.460	1544.400	1181.164
155.789	19.551	1543.562	1181.043
156.804	19.717	1541.687	1180.635
157.819	19.756	1541.017	1180.288
158.833	19.803	1540.054	1179.763
159.848	19.806	1539.524	1179.277
160.862	20.047	1537.899	1179.570
161.877	20.210	1536.926	1179.825
162.892	19.901	1535.692	1176.671
163.906	19.632	1533.456	1173.030
164.921	19.431	1532.180	1170.585
165.935	19.401	1531.418	1169.695
166.950	19.448	1530.495	1169.207
167.964	19.537	1529.815	1169.183
168.979	19.649	1528.666	1168.963
169.994	19.658	1527.225	1167.818
171.008	19.514	1526.160	1165.928
172.023	19.555	1525.303	1165.444
173.037	19.709	1524.316	1165.631
174.052	19.921	1523.103	1166.022
175.067	19.938	1522.563	1165.623
176.081	19.721	1521.246	1163.049
177.096	19.454	1519.853	1160.090
178.110	19.403	1517.916	1158.164
179.125	19.436	1516.782	1157.417
180.140	19.526	1515.698	1157.096
181.154	19.602	1514.745	1156.769
182.169	19.706	1514.621	1157.269
183.183	19.938	1513.292	1157.702
184.198	19.878	1512.876	1156.883
185.213	19.954	1512.221	1156.790
186.227	20.011	1510.718	1155.916
187.242	20.072	1509.477	1155.269
188.256	20.087	1508.954	1154.867
189.271	20.123	1508.174	1154.412
190.286	20.244	1507.383	1154.510
191.300	20.187	1506.096	1153.041
192.315	19.754	1504.589	1148.908
193.329	19.509	1502.442	1145.543
194.344	19.491	1501.057	1144.263
195.359	19.570	1500.539	1144.292
196.373	19.585	1500.123	1143.976
197.388	19.675	1499.049	1143.646
198.402	19.745	1498.376	1143.493
199.417	19.933	1496.858	1143.476
200.432	20.225	1496.784	1145.249
201.446	20.405	1495.736	1145.537
202.461	20.440	1495.385	1145.394
203.475	20.550	1494.373	1145.242
204.490	20.558	1493.646	1144.638
205.504	20.332	1492.223	1141.956
206.519	20.059	1490.671	1138.877
207.534	19.996	1489.138	1137.186
208.548	20.011	1487.487	1135.928
209.563	19.926	1486.817	1134.761
210.577	19.982	1486.084	1134.462
211.592	19.916	1485.501	1133.488
212.607	19.997	1485.075	1133.588
213.621	20.241	1484.448	1134.608
214.636	20.337	1483.492	1134.403
215.650	20.198	1482.343	1132.521
216.665	20.180	1481.243	1131.457
217.680	20.268	1480.769	1131.574
218.694	20.500	1480.119	1132.489
219.709	20.639	1479.184	1132.577
220.723	20.528	1478.285	1131.067
221.738	20.483	1477.256	1129.888
222.753	20.497	1476.174	1129.050
223.767	20.377	1475.842	1127.917
224.782	20.380	1474.133	1126.529
225.796	20.368	1473.568	1125.921
226.811	20.549	1473.200	1126.712
227.826	20.694	1472.169	1126.766
228.840	20.533	1471.518	1125.126
229.855	20.325	1470.474	1122.881
230.869	20.296	1468.882	1121.378
231.884	20.396	1467.487	1120.861
232.899	20.290	1466.511	1119.331
233.913	20.114	1465.563	1117.371
234.928	20.109	1463.675	1115.805
235.942	20.016	1462.544	1114.245
236.957	19.863	1461.598	1112.444
237.972	19.907	1460.403	1111.714
238.986	19.975	1459.470	1111.344
240.001	20.049	1458.314	1110.842
241.015	20.062	1456.983	1109.809
242.030	20.053	1456.024	1108.924
243.045	20.064	1455.381	1108.409
244.059	20.285	1454.607	1109.135
245.074	20.358	1453.734	1108.836
246.088	20.381	1452.960	1108.291
247.103	20.328	1452.560	1107.554
248.117	20.576	1451.660	1108.348
249.132	20.649	1450.941	1108.165
250.147	20.772	1450.980	1108.881
251.161	20.972	1451.194	1110.220
252.176	21.265	1450.226	1111.247
253.190	21.372	1449.372	1111.174
254.205	21.277	1448.647	1109.915
255.220	21.414	1448.111	1110.278
256.234	21.469	1447.473	1110.037
257.249	21.468	1446.865	1109.471
258.263	21.534	1444.946	1108.314
259.278	21.396	1444.211	1106.782
260.293	21.281	1443.489	1105.403
261.307	21.314	1442.843	1105.016
262.322	21.435	1442.181	1105.180
263.336	21.500	1441.679	1105.107
264.351	21.581	1440.175	1104.364
265.366	21.639	1438.996	1103.728
266.380	21.541	1438.551	1102.673
267.395	21.615	1437.515	1102.246
268.409	21.521	1436.168	1100.526
269.424	21.315	1435.800	1098.854
270.439	21.311	1434.304	1097.582
271.453	21.328	1432.686	1096.354
272.468	21.291	1432.319	1095.748
273.482	21.098	1431.506	1093.816
274.497	21.107	1429.879	1092.535
275.512	21.088	1429.200	1091.799
276.526	21.102	1428.139	1090.978
277.541	21.092	1427.394	1090.249
278.555	21.111	1426.826	1089.841
279.570	21.192	1425.487	1089.224
280.585	21.317	1425.092	1089.607
281.599	21.487	1425.049	1090.536
282.614	21.590	1423.618	1089.988
283.628	21.463	1422.016	1087.877
284.643	21.252	1420.908	1085.620
285.657	21.136	1420.083	1084.173
286.672	21.246	1418.904	1083.859
287.687	21.153	1418.303	1082.727
288.701	21.129	1417.308	1081.722
289.716	21.262	1416.239	1081.633
290.730	21.153	1416.090	1080.751
291.745	21.234	1414.151	1079.677
292.760	21.165	1413.889	1078.957
293.774	21.277	1412.686	1078.634
294.789	21.286	1411.396	1077.610
295.803	21.415	1411.601	1078.465
296.818	21.622	1410.399	1078.729
297.833	21.537	1409.097	1077.112
298.847	21.288	1407.987	1074.635
299.862	21.197	1407.033	1073.256
300.876	21.343	1406.073	1073.321
301.891	21.336	1405.228	1072.540
302.906	21.364	1404.592	1072.135
303.920	21.619	1404.090	1073.219
304.935	21.667	1403.778	1073.176
305.949	21.780	1403.101	1073.259
306.964	21.807	1402.269	1072.690
307.979	21.995	1401.013	1072.783
308.993	21.821	1400.203	1071.008
310.008	21.635	1399.309	1069.091
311.022	21.763	1397.983	1068.768
312.037	21.779	1397.537	1068.429
313.052	21.887	1396.300	1068.047
314.066	21.819	1395.026	1066.562
315.081	21.567	1393.389	1063.687
316.095	21.364	1392.833	1061.931
317.110	21.277	1391.167	1060.039
318.125	21.256	1390.296	1059.157
319.139	21.310	1389.391	1058.700
320.154	21.371	1388.313	1058.155
321.168	21.337	1387.174	1056.988
322.183	21.256	1386.412	1055.822
323.197	21.379	1385.087	1055.465
324.212	21.336	1384.813	1054.901
325.227	21.463	1383.842	1054.832
326.241	21.518	1383.271	1054.638
327.256	21.517	1382.375	1053.855
328.270	21.519	1381.652	1053.225
329.285	21.373	1380.765	1051.573
330.300	21.417	1379.350	1050.670
331.314	21.360	1378.928	1049.914
332.329	21.357	1377.738	1048.898
333.343	21.423	1376.581	1048.316
334.358	21.404	1376.414	1047.984
335.373	21.622	1375.348	1048.388
336.387	21.735	1375.333	1048.957
337.402	21.754	1374.425	1048.283
338.416	21.775	1373.630	1047.710
339.431	21.890	1373.038	1047.852
340.446	21.888	1372.933	1047.668
341.460	22.046	1371.540	1047.457
342.475	22.184	1370.773	1047.601
343.489	22.233	1370.556	1047.633
344.504	22.379	1369.090	1047.287
345.519	22.450	1368.488	1047.159
346.533	22.397	1367.633	1046.099
347.548	22.498	1366.771	1045.946
348.562	22.408	1365.975	1044.706
349.577	22.579	1365.287	1045.104
350.592	22.327	1364.027	1042.553
351.606	22.065	1362.775	1039.954
352.621	21.868	1361.579	1037.783
353.635	21.747	1360.626	1036.251
354.650	21.758	1359.392	1035.284
355.665	21.716	1358.215	1034.045
356.679	21.670	1357.444	1033.098
357.694	21.941	1356.359	1033.780
358.708	21.952	1355.730	1033.268
359.723	22.050	1354.399	1032.742
360.738	22.214	1353.331	1032.798
361.752	22.140	1352.928	1031.964
362.767	22.092	1351.492	1030.498
363.781	22.153	1350.476	1029.989
364.796	22.142	1350.037	1029.501
365.810	22.216	1349.455	1029.398
366.825	22.384	1349.113	1030.029
367.840	22.586	1348.111	1030.351
368.854	22.687	1347.862	1030.665
369.869	22.717	1347.426	1030.414
370.883	22.804	1346.522	1030.140
371.898	22.720	1345.668	1028.902
372.913	22.528	1344.822	1027.048
373.927	22.545	1343.458	1026.012
374.942	22.617	1342.717	1025.774
375.956	22.588	1342.495	1025.346
376.971	22.732	1341.341	1025.209
377.986	22.602	1340.640	1023.828
379.000	22.658	1339.453	1023.154
380.015	22.813	1339.090	1023.691
381.029	22.894	1338.574	1023.674
382.044	22.903	1337.978	1023.180
383.059	22.922	1337.603	1022.912
384.073	22.869	1336.362	1021.565
385.088	22.856	1335.615	1020.828
386.102	22.856	1335.392	1020.570
387.117	22.824	1334.750	1019.803
388.132	22.780	1333.326	1018.367
389.146	22.483	1332.181	1015.695
390.161	22.501	1331.003	1014.808
391.175	22.444	1330.403	1013.931
392.190	22.477	1329.481	1013.328
393.205	22.574	1328.701	1013.203
394.219	22.701	1328.287	1013.528
395.234	22.897	1326.675	1013.334
396.248	22.712	1325.527	1011.307
397.263	22.533	1324.010	1009.033
398.278	22.644	1322.949	1008.774
399.292	22.549	1321.646	1007.145
400.307	22.338	1320.540	1005.011
401.321	22.292	1318.870	1003.389
402.336	22.257	1317.859	1002.329
403.350	22.253	1317.063	1001.614
404.365	22.142	1316.591	1000.534
405.380	22.351	1315.443	1000.759
406.394	22.348	1315.055	1000.360
407.409	22.588	1313.971	1000.809
408.423	22.603	1313.925	1000.770
409.438	22.720	1313.510	1001.029
410.453	22.916	1312.742	1001.468
411.467	23.008	1312.207	1001.492
412.482	22.958	1311.701	1000.737
413.496	23.151	1311.031	1001.228
414.511	23.160	1309.975	1000.385
415.526	23.304	1309.567	1000.799
416.540	23.371	1309.008	1000.660
417.555	23.485	1308.418	1000.766
418.569	23.444	1307.700	999.892
419.584	23.368	1307.378	999.130
420.599	23.173	1306.410	997.207
421.613	147.747	1436.074	1799.256
422.628	143.194	1454.907	1799.346
