DTS Sentinel unit serial number:	SN413079Multiplexer serial number:	ORYXHardware model number:	OX4-SRSoftware version number:	ORYX F/W v4.00 Oryx Data Collector v3.7.2.0data status	okinstallation	princeton_trtdifferential loss correction	single-endedforward channel	channel 4reverse channel	N/Adate	2019/09/12time	07:51:11forward acquisition time	60.00reverse acquisition time	0.00gamma	496.2192k internal	0.2304k external	0.2304temperature offset calibration	1.0065default loss term (dB/km)	0.3790temperature slope calibration	1.0000multiplexer offset coefficient	1.0000multiplexer slope coefficient	1.0000fibre end	0.00T internal ref (°C)	32.89T ext. ref 1 (°C)	1.63T ext. ref 2 (°C)	29.04length (m)	temperature (°C)	Stokes	anti-Stokes-747.200	-200.000	0.020	-0.226
-746.185	800.000	0.063	0.183
-745.171	800.000	-0.126	-0.437
-744.156	114.876	-0.078	0.096
-743.142	-32.252	0.279	-0.159
-742.127	59.572	-0.194	0.195
-741.112	-95.974	-0.048	-0.013
-740.098	-149.976	-0.266	-0.021
-739.083	-160.411	-0.138	0.008
-738.069	-200.000	-0.013	0.297
-737.054	266.174	-0.156	-0.277
-736.039	-200.000	-0.030	-0.253
-735.025	-25.469	-0.140	0.084
-734.010	242.627	-0.052	0.089
-732.996	-166.460	-0.250	0.011
-731.981	349.105	-0.072	-0.145
-730.966	-200.000	0.012	0.306
-729.952	-144.290	0.288	0.027
-728.937	212.329	-0.276	0.443
-727.923	-89.974	-0.178	0.053
-726.908	-142.640	-0.226	-0.022
-725.894	-125.687	-0.200	-0.031
-724.879	-95.965	-0.251	0.068
-723.864	6.428	-0.146	-0.110
-722.850	-45.232	0.214	-0.108
-721.835	-58.001	-0.159	0.071
-720.821	600.286	0.133	0.336
-719.806	-200.000	-0.012	-0.272
-718.791	218.891	0.218	-0.355
-717.777	800.000	0.026	-0.083
-716.762	800.000	0.063	0.191
-715.748	343.436	0.207	0.412
-714.733	148.382	0.160	-0.220
-713.718	-200.000	-0.076	-0.510
-712.704	356.269	-0.047	-0.096
-711.689	84.706	-0.069	-0.077
-710.675	800.000	-0.024	-0.095
-709.660	433.703	-0.151	-0.334
-708.645	800.000	-0.103	-0.354
-707.631	23.350	0.199	0.166
-706.616	594.868	-0.064	0.161
-705.602	246.986	-0.077	-0.132
-704.587	374.139	0.225	0.465
-703.572	-121.466	-0.232	-0.039
-702.558	800.000	-0.112	-0.337
-701.543	-18.720	-0.056	0.035
-700.529	-164.201	-0.290	0.014
-699.514	-200.000	-0.008	0.306
-698.499	-200.000	0.012	-0.053
-697.485	-40.920	0.042	-0.022
-696.470	327.982	0.081	-0.158
-695.456	704.710	-0.121	-0.324
-694.441	195.014	-0.092	0.142
-693.426	135.325	-0.139	-0.183
-692.412	-16.993	0.175	0.112
-691.397	-49.807	0.333	-0.161
-690.383	418.244	0.064	-0.139
-689.368	-132.209	-0.128	-0.017
-688.354	83.872	-0.252	-0.280
-687.339	800.000	-0.029	0.111
-686.324	-200.000	-0.090	0.000
-685.310	-161.803	-0.525	0.027
-684.295	-75.572	-0.232	0.084
-683.281	511.051	0.064	-0.151
-682.266	79.458	0.130	0.142
-681.251	-121.364	-0.371	0.063
-680.237	-17.732	0.232	0.148
-679.222	3.896	-0.389	0.289
-678.208	-57.782	0.167	-0.074
-677.193	-142.101	-0.234	-0.024
-676.178	-192.365	0.315	-0.003
-675.164	-200.000	-0.015	-0.420
-674.149	800.000	-0.069	0.225
-673.135	-142.031	-0.295	0.030
-672.120	-38.225	0.335	-0.180
-671.105	-76.887	-0.242	0.086
-670.091	-116.725	-0.172	-0.032
-669.076	-15.617	-0.203	0.131
-668.062	-90.413	0.058	0.017
-667.047	78.659	0.259	-0.281
-666.032	251.731	-0.117	0.202
-665.018	800.000	-0.058	0.213
-664.003	-102.698	-0.195	-0.047
-662.989	-200.000	0.017	0.229
-661.974	234.656	0.120	-0.201
-660.959	419.811	0.131	-0.284
-659.945	-116.066	-0.146	-0.028
-658.930	270.008	0.161	-0.287
-657.916	-4.208	0.099	-0.069
-656.901	-111.396	0.276	-0.057
-655.886	-200.000	0.000	-0.084
-654.872	800.000	-0.116	-0.349
-653.857	-14.413	0.362	0.236
-652.843	-28.480	-0.155	-0.091
-651.828	-160.082	-0.128	0.007
-650.814	116.097	0.222	-0.276
-649.799	-147.511	-0.084	-0.007
-648.784	137.709	0.106	0.141
-647.770	744.435	-0.205	-0.560
-646.755	-200.000	0.002	-0.067
-645.741	-92.714	-0.146	-0.041
-644.726	800.000	-0.061	0.206
-643.711	157.556	-0.166	-0.233
-642.697	800.000	-0.020	0.059
-641.682	79.680	-0.100	0.108
-640.668	779.231	-0.163	-0.452
-639.653	-174.854	0.175	0.005
-638.638	612.641	0.064	0.161
-637.624	-42.454	-0.383	0.198
-636.609	336.597	0.137	0.270
-635.595	-77.344	-0.269	0.095
-634.580	-92.236	0.287	-0.082
-633.565	-15.326	0.148	0.096
-632.551	1.749	-0.156	-0.114
-631.536	800.000	-0.127	-0.389
-630.522	-200.000	0.013	0.198
-629.507	520.877	0.042	0.101
-628.492	-192.278	-0.244	0.002
-627.478	-170.149	-0.433	0.016
-626.463	-127.000	0.490	-0.073
-625.449	-200.000	-0.006	-0.119
-624.434	-176.276	0.214	-0.006
-623.419	85.053	-0.076	0.084
-622.405	-109.396	0.072	-0.015
-621.390	111.246	-0.086	0.105
-620.376	494.651	0.061	0.142
-619.361	-22.424	0.077	0.047
-618.346	-200.000	0.030	-0.166
-617.332	-200.000	-0.036	-0.336
-616.317	-57.822	0.204	-0.090
-615.303	800.000	-0.005	0.017
-614.288	-139.600	0.358	0.039
-613.273	109.405	0.026	0.031
-612.259	-67.991	-0.318	-0.126
-611.244	-200.000	0.000	-0.093
-610.230	-200.000	0.001	-0.258
-609.215	-124.159	-0.154	-0.025
-608.201	68.528	0.082	-0.086
-607.186	-12.617	-0.479	-0.316
-606.171	418.718	0.166	0.359
-605.157	-77.184	0.091	-0.032
-604.142	-157.190	-0.078	-0.005
-603.128	-150.088	0.303	0.024
-602.113	-30.982	0.130	0.074
-601.098	617.523	-0.149	0.380
-600.084	204.907	-0.155	-0.244
-599.069	-200.000	-0.017	0.176
-598.055	-34.063	-0.183	-0.102
-597.040	-80.517	0.060	0.020
-596.025	480.770	0.119	-0.273
-595.011	529.343	-0.057	-0.137
-593.996	-113.374	0.291	-0.058
-592.982	-40.111	-0.247	0.130
-591.967	-197.508	0.138	0.001
-590.952	14.160	0.207	0.164
-589.938	-35.337	0.070	-0.039
-588.923	148.948	0.125	-0.171
-587.909	-129.105	-0.097	-0.014
-586.894	-63.598	-0.065	0.027
-585.879	-120.740	-0.038	0.007
-584.865	-148.863	-0.135	-0.011
-583.850	114.717	-0.117	0.145
-582.836	-161.843	0.125	-0.006
-581.821	78.432	-0.340	0.367
-580.806	-55.120	0.371	-0.169
-579.792	-200.000	-0.011	-0.123
-578.777	800.000	0.064	-0.200
-577.763	-200.000	-0.049	0.340
-576.748	69.458	-0.142	0.148
-575.733	-115.713	-0.212	0.040
-574.719	-200.000	-0.186	-0.001
-573.704	-96.137	0.308	-0.083
-572.690	-200.000	-0.014	0.207
-571.675	-193.759	0.188	0.002
-570.661	800.000	0.058	-0.209
-569.646	-151.301	-0.258	-0.019
-568.631	-95.110	0.250	0.068
-567.617	-200.000	-0.011	-0.325
-566.602	800.000	-0.065	-0.254
-565.588	800.000	-0.070	0.269
-564.573	-200.000	-0.035	0.175
-563.558	-71.054	0.510	0.194
-562.544	-200.000	0.031	0.203
-561.529	800.000	0.063	-0.183
-560.515	-200.000	-0.003	-0.066
-559.500	-160.645	0.097	-0.005
-558.485	167.994	-0.050	-0.072
-557.471	291.320	0.026	-0.048
-556.456	264.363	0.112	-0.197
-555.442	481.387	0.160	-0.367
-554.427	-145.656	0.231	0.021
-553.412	-200.000	-0.032	0.194
-552.398	522.520	0.055	-0.130
-551.383	-200.000	-0.007	0.198
-550.369	94.393	-0.122	-0.140
-549.354	-112.289	0.250	0.051
-548.339	-10.512	-0.325	-0.218
-547.325	-113.465	-0.066	-0.013
-546.310	-200.000	0.002	-0.045
-545.296	-33.806	0.102	0.057
-544.281	101.197	0.032	0.037
-543.266	463.230	0.088	-0.198
-542.252	-200.000	0.043	-0.202
-541.237	51.728	0.105	-0.101
-540.223	6.954	0.172	-0.130
-539.208	800.000	0.064	-0.191
-538.193	-102.248	-0.116	-0.028
-537.179	-200.000	-0.006	-0.080
-536.164	-180.697	0.199	0.004
-535.150	-31.322	0.178	-0.101
-534.135	-35.715	0.287	-0.157
-533.121	586.503	0.100	0.248
-532.106	116.944	-0.068	-0.084
-531.091	-82.582	0.110	0.036
-530.077	-106.895	-0.103	0.023
-529.062	800.000	0.076	0.305
-528.048	-83.441	-0.085	0.028
-527.033	-200.000	0.048	-0.332
-526.018	35.238	0.121	-0.107
-525.004	800.000	-0.051	-0.214
-523.989	427.846	0.084	-0.182
-522.975	800.000	-0.019	0.065
-521.960	-76.722	0.529	0.187
-520.945	-200.000	0.045	0.208
-519.931	-41.412	-0.193	0.100
-518.916	-111.760	-0.209	0.043
-517.902	-200.000	0.015	-0.299
-516.887	35.330	-0.071	0.062
-515.872	248.869	0.043	-0.073
-514.858	-90.232	-0.325	0.095
-513.843	-93.917	-0.253	-0.070
-512.829	-200.000	-0.013	-0.212
-511.814	-173.270	0.088	-0.003
-510.799	-2.944	0.180	-0.127
-509.785	800.000	0.055	0.225
-508.770	-179.414	0.326	0.007
-507.756	-200.000	-0.003	-0.212
-506.741	800.000	-0.007	-0.025
-505.726	-100.747	-0.179	-0.045
-504.712	-130.611	-0.273	-0.037
-503.697	-200.000	0.021	-0.129
-502.683	643.658	0.158	0.406
-501.668	-73.941	-0.379	0.139
-500.653	-18.619	-0.219	-0.138
-499.639	157.355	0.157	-0.219
-498.624	-82.000	-0.196	0.065
-497.610	-200.000	0.010	0.083
-496.595	49.631	-0.131	-0.124
-495.581	235.943	-0.087	0.145
-494.566	-123.454	0.173	-0.028
-493.551	32.354	0.250	-0.218
-492.537	-200.000	0.004	0.112
-491.522	233.241	0.053	0.088
-490.508	-200.000	-0.013	0.092
-489.493	-126.160	-0.143	-0.022
-488.478	70.389	0.143	-0.149
-487.464	-59.770	-0.215	-0.093
-486.449	-8.642	0.192	0.130
-485.435	-29.111	-0.179	-0.103
-484.420	-114.358	-0.076	0.015
-483.405	-40.200	0.315	0.165
-482.391	-200.000	-0.032	0.185
-481.376	602.213	-0.087	0.217
-480.362	-89.536	-0.235	-0.069
-479.347	268.247	0.173	0.306
-478.332	142.473	-0.082	-0.110
-477.318	800.000	-0.124	0.396
-476.303	-68.889	-0.101	0.039
-475.289	-200.000	0.053	-0.335
-474.274	-53.237	0.222	-0.102
-473.259	-200.000	-0.007	0.142
-472.245	33.615	0.137	0.120
-471.230	69.635	-0.255	-0.264
-470.216	-37.994	0.222	0.119
-469.201	73.819	0.126	0.133
-468.186	172.456	0.052	-0.076
-467.172	-200.000	-0.008	-0.069
-466.157	-47.818	0.144	-0.070
-465.143	510.020	-0.110	-0.258
-464.128	-50.792	-0.090	0.043
-463.113	106.692	-0.223	0.266
-462.099	147.285	0.157	0.212
-461.084	-167.428	0.293	0.012
-460.070	251.107	-0.175	-0.300
-459.055	-142.936	0.165	-0.016
-458.040	19.810	-0.164	-0.133
-457.026	5.301	0.293	-0.217
-456.011	465.044	-0.109	0.245
-454.997	291.372	-0.135	-0.247
-453.982	102.253	-0.126	0.148
-452.968	98.557	-0.099	0.115
-451.953	370.074	-0.099	-0.202
-450.938	-51.480	-0.118	-0.056
-449.924	-200.000	-0.014	0.081
-448.909	353.009	-0.130	-0.259
-447.895	324.117	0.020	0.038
-446.880	19.511	-0.256	-0.207
-445.865	-128.918	0.176	-0.025
-444.851	-200.000	-0.028	0.157
-443.836	800.000	-0.023	-0.064
-442.822	535.183	-0.103	-0.245
-441.807	-17.241	0.075	0.047
-440.792	-67.950	0.146	-0.057
-439.778	96.286	0.097	0.111
-438.763	-4.927	0.143	0.099
-437.749	-126.807	0.166	0.025
-436.734	65.431	0.247	-0.252
-435.719	-200.000	-0.053	-0.304
-434.705	71.440	-0.111	-0.116
-433.690	800.000	-0.049	-0.178
-432.676	-200.000	0.015	-0.223
-431.661	-200.000	0.003	0.037
-430.646	4.351	-0.413	-0.305
-429.632	-200.000	0.021	0.095
-428.617	-63.377	-0.121	-0.050
-427.603	37.467	0.076	-0.068
-426.588	-64.713	-0.228	-0.093
-425.573	-104.425	0.094	-0.022
-424.559	26.894	-0.086	-0.072
-423.544	-154.550	0.206	-0.014
-422.530	-88.478	-0.099	0.030
-421.515	-57.719	-0.233	0.103
-420.500	18.519	0.320	0.257
-419.486	-200.000	0.012	0.123
-418.471	-200.000	-0.038	0.187
-417.457	-103.594	-0.274	0.065
-416.442	414.541	-0.111	0.238
-415.428	-26.802	0.321	0.188
-414.413	800.000	-0.079	-0.269
-413.398	27.210	0.120	-0.102
-412.384	-156.684	0.188	0.012
-411.369	800.000	0.035	0.113
-410.355	-98.547	-0.097	0.025
-409.340	411.402	-0.010	0.022
-408.325	237.094	-0.179	-0.299
-407.311	619.030	0.007	0.018
-406.296	-200.000	0.015	0.071
-405.282	87.976	-0.101	0.112
-404.267	-200.000	-0.024	0.132
-403.252	-123.193	-0.256	0.041
-402.238	-38.005	0.387	0.206
-401.223	-145.050	-0.224	0.020
-400.209	-200.000	-0.005	0.154
-399.194	-200.000	0.022	0.162
-398.179	11.254	0.198	-0.152
-397.165	-44.540	-0.128	-0.064
-396.150	200.998	0.155	0.239
-395.136	-200.000	-0.006	0.146
-394.121	245.482	0.208	0.352
-393.106	-7.768	0.101	0.069
-392.092	679.023	-0.012	0.031
-391.077	296.220	0.061	0.112
-390.063	576.378	-0.067	0.164
-389.048	-200.000	0.017	0.271
-388.033	-200.000	0.057	0.375
-387.019	529.555	0.025	-0.059
-386.004	-200.000	-0.020	-0.133
-384.990	1.243	-0.198	-0.143
-383.975	-200.000	0.019	0.259
-382.960	53.073	-0.257	-0.247
-381.946	564.828	0.105	-0.256
-380.931	82.596	-0.335	-0.365
-379.917	-200.000	-0.018	-0.167
-378.902	-142.904	0.133	-0.013
-377.888	-172.094	-0.260	0.008
-376.873	110.324	-0.104	-0.125
-375.858	-57.233	0.187	-0.082
-374.844	-85.187	-0.071	0.022
-373.829	-69.463	0.245	-0.094
-372.815	-118.262	-0.217	-0.039
-371.800	72.363	-0.098	-0.102
-370.785	-21.761	-0.334	0.204
-369.771	-151.968	0.342	0.025
-368.756	800.000	0.012	0.039
-367.742	139.830	-0.072	-0.095
-366.727	-125.597	-0.155	-0.024
-365.712	86.490	0.070	-0.078
-364.698	800.000	0.035	-0.136
-363.683	-33.738	-0.077	0.043
-362.669	-200.000	-0.003	0.032
-361.654	-105.545	0.171	0.039
-360.639	74.165	0.243	0.256
-359.625	2.436	-0.104	-0.075
-358.610	800.000	-0.050	-0.214
-357.596	126.778	-0.204	0.259
-356.581	88.615	-0.103	-0.115
-355.566	-200.000	0.001	-0.029
-354.552	-99.578	0.201	0.051
-353.537	-200.000	0.048	0.321
-352.523	74.988	0.111	0.117
-351.508	800.000	-0.107	0.368
-350.493	-176.051	0.040	-0.001
-349.479	67.216	-0.209	0.213
-348.464	79.057	-0.083	0.089
-347.450	-25.797	0.186	0.110
-346.435	350.428	0.029	0.058
-345.420	800.000	0.035	0.124
-344.406	-37.069	-0.065	0.035
-343.391	-167.254	-0.508	0.021
-342.377	-42.954	-0.104	0.053
-341.362	195.050	-0.217	0.330
-340.348	81.011	-0.050	0.054
-339.333	50.201	0.080	-0.076
-338.318	-4.954	0.323	-0.223
-337.304	-62.324	0.147	0.061
-336.289	5.455	0.131	-0.097
-335.275	-88.541	0.240	0.072
-334.260	-200.000	-0.002	-0.080
-333.245	800.000	0.039	-0.146
-332.231	800.000	0.107	-0.310
-331.216	-139.149	0.190	-0.021
-330.202	30.295	-0.349	-0.298
-329.187	99.974	0.250	0.290
-328.172	36.182	-0.099	-0.087
-327.158	78.467	-0.185	0.198
-326.143	-69.601	0.083	0.032
-325.129	-56.758	-0.271	0.120
-324.114	-200.000	-0.062	0.288
-323.099	-192.674	-0.172	0.002
-322.085	269.156	-0.076	-0.134
-321.070	-138.025	0.100	-0.011
-320.056	459.833	-0.047	0.104
-319.041	64.737	-0.104	-0.105
-318.026	-142.899	0.178	0.017
-317.012	-130.631	0.426	-0.057
-315.997	-120.736	-0.205	-0.035
-314.983	-6.168	-0.266	0.182
-313.968	-136.486	0.218	0.025
-312.953	-44.866	-0.217	0.108
-311.939	-99.353	-0.200	-0.050
-310.924	800.000	0.018	-0.072
-309.910	-133.420	-0.196	-0.025
-308.895	70.257	0.168	0.174
-307.880	370.863	0.088	-0.179
-306.866	800.000	-0.028	0.107
-305.851	800.000	0.023	0.071
-304.837	-36.177	0.146	0.079
-303.822	40.631	-0.158	-0.143
-302.807	91.959	0.218	0.245
-301.793	-72.914	-0.175	0.064
-300.778	-63.731	0.180	0.074
-299.764	-16.176	0.093	0.059
-298.749	104.830	-0.217	-0.256
-297.735	105.307	-0.125	0.148
-296.720	-200.000	0.428	-0.002
-295.705	800.000	0.013	-0.048
-294.691	192.394	-0.040	0.060
-293.676	-22.495	0.172	-0.104
-292.662	-200.000	0.046	0.305
-291.647	402.715	-0.097	0.205
-290.632	-86.012	-0.172	-0.053
-289.618	-30.883	-0.162	0.091
-288.603	501.016	-0.033	-0.076
-287.589	-185.669	0.097	0.001
-286.574	-82.662	0.110	0.036
-285.559	-80.062	-0.166	-0.056
-284.545	84.792	0.153	0.168
-283.530	25.012	-0.129	0.107
-282.516	166.607	0.226	-0.321
-281.501	55.495	-0.231	0.223
-280.486	-200.000	-0.052	0.370
-279.472	-104.865	0.281	-0.064
-278.457	800.000	0.157	-0.679
-277.443	-122.993	0.147	0.024
-276.428	-200.000	-0.029	-0.225
-275.413	-77.168	0.333	0.116
-274.399	800.000	-0.015	0.060
-273.384	-200.000	0.027	-0.311
-272.370	-200.000	0.019	-0.138
-271.355	-200.000	-0.034	0.223
-270.340	515.355	0.004	0.010
-269.326	-126.706	-0.103	0.015
-268.311	-200.000	0.020	-0.261
-267.297	47.660	0.138	-0.128
-266.282	-76.546	0.294	-0.103
-265.267	437.718	-0.055	-0.120
-264.253	127.072	-0.045	-0.057
-263.238	-48.951	0.169	-0.081
-262.224	493.405	0.114	0.261
-261.209	-76.654	-0.330	0.116
-260.195	120.822	0.168	-0.209
-259.180	140.886	0.239	0.316
-258.165	155.525	0.148	0.204
-257.151	-200.000	-0.001	-0.061
-256.136	-145.876	-0.088	0.008
-255.122	304.438	-0.127	-0.235
-254.107	800.000	0.046	-0.131
-253.092	210.980	-0.054	0.085
-252.078	800.000	-0.059	0.211
-251.063	-200.000	0.001	-0.031
-250.049	-200.000	0.005	0.052
-249.034	-111.378	-0.103	0.021
-248.019	-85.065	-0.022	-0.007
-247.005	-57.046	0.107	0.047
-245.990	800.000	-0.037	-0.138
-244.976	100.820	-0.269	0.312
-243.961	-200.000	-0.002	-0.059
-242.946	-200.000	-0.075	-0.423
-241.932	-49.648	-0.037	-0.018
-240.917	94.396	-0.057	-0.065
-239.903	11.040	-0.168	0.128
-238.888	-131.039	0.199	-0.026
-237.873	320.122	0.103	0.194
-236.859	89.009	-0.167	0.186
-235.844	253.081	0.130	0.221
-234.830	1.651	-0.135	-0.097
-233.815	-107.775	-0.361	-0.079
-232.800	-200.000	0.013	-0.160
-231.786	-41.053	0.301	0.155
-230.771	236.457	0.049	0.081
-229.757	-138.202	-0.228	0.025
-228.742	-112.056	0.176	0.035
-227.727	-4.243	-0.174	0.120
-226.713	800.000	-0.020	0.066
-225.698	-200.000	-0.025	-0.239
-224.684	-157.301	-0.143	-0.009
-223.669	158.360	0.066	0.091
-222.655	96.119	0.092	0.105
-221.640	-200.000	0.003	0.246
-220.625	27.690	0.146	0.123
-219.611	-175.741	0.259	0.007
-218.596	-167.501	-0.202	-0.008
-217.582	-200.000	0.010	-0.074
-216.567	-97.554	-0.273	-0.071
-215.552	-49.902	0.429	0.203
-214.538	-127.537	-0.061	0.009
-213.523	53.484	-0.146	-0.140
-212.509	-200.000	0.032	-0.290
-211.494	5.149	0.153	-0.112
-210.479	175.116	-0.170	0.246
-209.465	-57.068	0.281	-0.124
-208.450	147.262	-0.161	-0.216
-207.436	-144.676	0.180	-0.017
-206.421	542.502	0.154	-0.367
-205.406	-73.628	-0.223	0.081
-204.392	251.708	0.173	0.293
-203.377	638.553	0.086	0.217
-202.363	-61.509	-0.208	0.087
-201.348	-8.196	0.117	0.079
-200.333	274.987	0.099	-0.174
-199.319	-92.548	-0.241	-0.067
-198.304	-165.684	-0.240	0.010
-197.290	662.118	0.074	0.191
-196.275	-92.490	0.179	-0.050
-195.260	-152.873	-0.567	0.040
-194.246	-12.703	-0.258	-0.168
-193.231	-9.826	0.135	0.090
-192.217	-152.422	0.099	0.007
-191.202	-118.782	-0.259	-0.045
-190.187	-3.894	-0.185	-0.128
-189.173	234.678	0.034	0.056
-188.158	-140.839	0.178	0.018
-187.144	-61.385	0.414	-0.173
-186.129	38.814	-0.092	-0.082
-185.114	800.000	0.042	-0.161
-184.100	179.489	0.128	0.186
-183.085	-78.731	-0.207	0.070
-182.071	-140.224	0.128	-0.013
-181.056	-67.662	-0.496	0.193
-180.042	553.174	-0.088	0.210
-179.027	-41.627	0.153	0.078
-178.012	-82.161	-0.345	-0.112
-176.998	-200.000	0.019	-0.144
-175.983	-68.915	-0.206	0.079
-174.969	29.702	-0.251	-0.213
-173.954	764.413	0.139	0.376
-172.939	-32.286	0.239	0.133
-171.925	-75.733	0.306	-0.108
-170.910	117.635	-0.066	0.080
-169.896	-14.058	-0.128	-0.083
-168.881	232.918	-0.130	0.212
-167.866	-114.335	0.126	-0.024
-166.852	6.339	0.197	0.146
-165.837	-11.599	0.191	-0.125
-164.823	-89.327	-0.098	-0.029
-163.808	-11.037	0.115	-0.076
-162.793	-41.347	-0.270	-0.138
-161.779	-87.370	-0.205	0.062
-160.764	-57.821	0.368	-0.160
-159.750	-101.611	0.372	-0.090
-158.735	800.000	-0.047	-0.163
-157.720	-114.462	-0.106	-0.020
-156.706	-200.000	0.064	0.295
-155.691	-66.412	-0.058	-0.023
-154.677	-48.954	0.034	0.016
-153.662	353.661	0.064	0.126
-152.647	-200.000	0.015	-0.105
-151.633	621.462	-0.097	0.244
-150.618	8.399	-0.121	-0.091
-149.604	106.280	0.181	-0.214
-148.589	-57.962	0.101	-0.044
-147.574	370.680	-0.133	0.268
-146.560	174.951	-0.119	0.171
-145.545	-82.767	0.196	-0.063
-144.531	-200.000	-0.024	-0.140
-143.516	800.000	-0.161	-0.493
-142.502	-92.757	0.363	0.101
-141.487	263.922	0.113	0.196
-140.472	-200.000	-0.027	0.318
-139.458	-86.993	0.413	-0.125
-138.443	800.000	-0.032	0.135
-137.429	-200.000	-0.004	-0.220
-136.414	-13.981	-0.140	0.090
-135.399	-113.150	0.259	-0.051
-134.385	-108.123	-0.290	-0.062
-133.370	800.000	-0.018	0.068
-132.356	800.000	0.103	0.346
-131.341	269.800	-0.020	-0.035
-130.326	466.445	-0.074	-0.165
-129.312	461.500	-0.045	-0.101
-128.297	160.743	-0.190	-0.263
-127.283	-69.776	-0.014	0.005
-126.268	-200.000	-0.004	-0.067
-125.253	66.285	0.195	-0.196
-124.239	271.190	0.104	0.182
-123.224	387.575	-0.076	0.156
-122.210	-167.464	-0.133	0.005
-121.195	-131.111	0.239	-0.032
-120.180	-39.609	-0.134	0.070
-119.166	800.000	0.103	-0.366
-118.151	381.209	0.072	-0.147
-117.137	-200.000	-0.008	0.184
-116.122	133.107	-0.087	-0.111
-115.107	498.288	-0.105	-0.241
-114.093	-20.145	-0.185	0.113
-113.078	116.452	-0.157	-0.191
-112.064	72.680	0.094	-0.098
-111.049	137.438	0.199	0.258
-110.034	-128.465	0.279	0.039
-109.020	800.000	-0.062	0.180
-108.005	-64.952	0.153	-0.061
-106.991	403.908	-0.089	-0.185
-105.976	710.203	0.107	0.282
-104.962	-44.254	0.217	0.108
-103.947	800.000	0.061	0.251
-102.932	-23.516	-0.319	-0.190
-101.918	-200.000	-0.019	-0.184
-100.903	-125.956	0.336	-0.050
-99.889	101.053	0.205	-0.237
-98.874	-50.237	0.147	0.069
-97.859	232.079	-0.233	0.380
-96.845	-81.566	-0.155	-0.050
-95.830	-200.000	0.068	0.340
-94.816	800.000	-0.065	-0.282
-93.801	-200.000	0.007	0.100
-92.786	-200.000	-0.021	-0.155
-91.772	-30.670	-0.123	-0.069
-90.757	-60.903	0.245	-0.103
-89.743	-124.793	0.225	0.035
-88.728	221.201	-0.059	-0.094
-87.713	86.279	0.358	-0.391
-86.699	327.290	-0.055	0.105
-85.684	-200.000	0.009	-0.190
-84.670	-126.777	-0.096	-0.014
-83.655	800.000	-0.101	-0.297
-82.640	191.402	0.084	-0.125
-81.626	82.765	-0.115	0.124
-80.611	-200.000	0.001	0.277
-79.597	-72.520	-0.071	-0.026
-78.582	-200.000	-0.002	-0.346
-77.567	137.212	0.157	-0.204
-76.553	-84.412	-0.290	0.091
-75.538	-200.000	-0.028	-0.123
-74.524	-200.000	-0.003	-0.075
-73.509	505.950	0.089	-0.206
-72.494	-113.645	-0.522	-0.101
-71.480	200.092	0.207	0.315
-70.465	-200.000	-0.010	0.102
-69.451	110.413	0.192	0.228
-68.436	-1.152	-0.318	0.223
-67.422	-85.442	-0.191	-0.059
-66.407	-43.239	0.101	-0.051
-65.392	368.569	-0.047	0.095
-64.378	-157.540	-0.185	-0.011
-63.363	62.736	0.059	0.058
-62.349	-21.724	0.144	-0.087
-61.334	-27.681	-1.080	-0.622
-60.319	50.726	0.535	0.502
-59.305	681.354	-0.342	-0.883
-58.290	248.050	0.423	0.709
-57.276	548.582	0.516	1.226
-56.261	-200.000	98.040	598.313
-55.246	533.374	1410.389	3311.114
-54.232	149.966	2605.605	3502.677
-53.217	102.218	2322.729	2689.578
-52.203	39.417	2074.526	1841.768
-51.188	34.677	1988.516	1722.712
-50.173	33.055	1970.233	1692.286
-49.159	48.372	2020.121	1874.328
-48.144	49.672	2038.363	1902.973
-47.130	35.212	1999.372	1736.689
-46.115	32.880	1989.007	1706.561
-45.100	32.798	1985.601	1702.834
-44.086	32.666	1983.376	1699.662
-43.071	32.709	1980.735	1697.725
-42.057	32.701	1978.732	1695.864
-41.042	32.696	1976.910	1694.194
-40.027	32.683	1975.110	1692.467
-39.013	32.683	1973.385	1690.922
-37.998	32.763	1971.035	1689.561
-36.984	32.839	1968.811	1688.267
-35.969	32.914	1967.387	1687.645
-34.954	32.892	1965.880	1686.090
-33.940	32.907	1963.935	1684.493
-32.925	32.983	1962.308	1683.707
-31.911	32.939	1961.227	1682.318
-30.896	32.875	1959.345	1680.071
-29.881	32.876	1958.410	1679.210
-28.867	32.903	1956.919	1678.102
-27.852	32.937	1954.711	1676.443
-26.838	32.975	1952.400	1674.731
-25.823	32.915	1950.890	1672.836
-24.809	32.929	1949.138	1671.394
-23.794	32.875	1947.554	1669.496
-22.779	32.831	1945.890	1667.607
-21.765	32.934	1943.243	1666.187
-20.750	32.951	1942.233	1665.402
-19.736	32.854	1941.096	1663.511
-18.721	32.942	1939.113	1662.517
-17.706	32.990	1937.650	1661.619
-16.692	32.882	1935.635	1658.871
-15.677	32.935	1933.904	1657.795
-14.663	32.892	1932.793	1656.397
-13.648	32.883	1931.616	1655.246
-12.633	32.950	1929.929	1654.322
-11.619	32.918	1929.374	1653.497
-10.604	32.870	1927.779	1651.644
-9.590	32.905	1926.230	1650.554
-8.575	32.967	1924.893	1649.891
-7.560	32.845	1923.406	1647.481
-6.546	32.844	1922.140	1646.322
-5.531	32.928	1921.151	1646.146
-4.517	32.902	1920.282	1645.108
-3.502	32.905	1918.246	1643.328
-2.487	32.982	1917.193	1643.024
-1.473	32.891	1916.439	1641.528
-0.458	33.071	1911.522	1638.808
0.556	32.822	1892.482	1612.295
1.571	28.939	1874.236	1563.670
2.586	25.289	1896.375	1550.533
3.600	24.279	1932.554	1571.078
4.615	23.639	1926.936	1560.750
5.629	17.478	1822.864	1424.915
6.644	7.110	1700.448	1247.749
7.659	2.168	1662.561	1181.684
8.673	1.714	1659.540	1175.929
9.688	1.675	1658.220	1174.582
10.702	1.688	1656.392	1173.286
11.717	1.463	1653.588	1169.468
12.731	1.845	1652.247	1171.347
13.746	8.601	1668.976	1235.423
14.761	19.400	1693.380	1337.566
15.775	25.143	1704.192	1390.666
16.790	26.336	1705.497	1400.861
17.804	26.584	1704.448	1401.794
18.819	26.480	1704.270	1400.719
19.834	26.649	1703.182	1401.008
20.848	26.857	1703.185	1402.493
21.863	26.896	1702.272	1401.922
22.877	27.006	1700.652	1401.309
23.892	26.906	1700.301	1400.125
24.907	26.939	1699.092	1399.260
25.921	26.981	1698.014	1398.571
26.936	26.982	1696.954	1397.585
27.950	26.956	1695.997	1396.473
28.965	26.974	1694.961	1395.632
29.980	26.889	1694.862	1394.778
30.994	26.932	1693.320	1393.712
32.009	26.901	1692.642	1392.796
33.023	26.898	1691.817	1391.966
34.038	26.924	1690.561	1391.009
35.053	26.952	1689.292	1390.056
36.067	26.914	1688.364	1388.883
37.082	26.964	1687.310	1388.274
38.096	26.964	1686.254	1387.284
39.111	26.848	1686.148	1386.186
40.126	26.926	1685.208	1385.890
41.140	26.922	1684.344	1385.020
42.155	26.924	1683.268	1384.031
43.169	26.956	1681.761	1382.910
44.184	26.842	1681.873	1382.015
45.199	26.905	1680.025	1380.855
46.213	26.995	1678.763	1380.380
47.228	26.957	1677.780	1379.160
48.242	26.901	1676.259	1377.364
49.257	26.898	1675.420	1376.528
50.271	26.881	1674.739	1375.721
51.286	26.872	1673.120	1374.200
52.301	26.951	1672.278	1373.981
53.315	26.906	1670.220	1371.827
54.330	26.865	1669.051	1370.440
55.344	26.890	1667.725	1369.420
56.359	26.932	1666.350	1368.486
57.374	26.908	1665.500	1367.486
58.388	26.994	1664.265	1366.996
59.403	26.986	1663.237	1365.972
60.417	26.951	1662.296	1364.813
61.432	26.967	1661.216	1363.926
62.447	26.967	1659.875	1362.704
63.461	26.958	1659.569	1362.266
64.476	27.010	1658.121	1361.349
65.490	27.021	1656.521	1359.992
66.505	26.963	1655.795	1358.845
67.520	26.920	1655.079	1357.816
68.534	26.989	1654.055	1357.366
69.549	27.003	1653.045	1356.523
70.563	26.926	1652.283	1355.204
71.578	26.953	1650.586	1353.894
72.593	27.039	1649.882	1353.838
73.607	26.960	1649.426	1352.755
74.622	26.982	1647.762	1351.438
75.636	26.908	1647.382	1350.451
76.651	26.880	1647.114	1349.905
77.666	26.926	1645.389	1348.717
78.680	26.968	1644.708	1348.349
79.695	26.942	1644.123	1347.559
80.709	27.014	1643.104	1347.140
81.724	26.894	1642.345	1345.506
82.739	26.877	1641.754	1344.777
83.753	26.921	1640.237	1343.739
84.768	26.988	1639.165	1343.239
85.782	26.964	1638.709	1342.571
86.797	26.936	1637.876	1341.557
87.812	27.008	1636.397	1340.764
88.826	27.009	1635.640	1340.028
89.841	27.012	1634.862	1339.296
90.855	26.955	1633.716	1337.817
91.870	26.963	1632.683	1336.911
92.884	26.979	1631.841	1336.222
93.899	26.968	1630.986	1335.325
94.914	27.020	1629.286	1334.196
95.928	27.026	1628.385	1333.386
96.943	27.060	1627.100	1332.465
97.957	27.016	1626.155	1331.248
98.972	26.975	1624.828	1329.747
99.987	27.060	1623.246	1328.952
101.001	27.000	1621.874	1327.277
102.016	27.048	1620.113	1326.070
103.030	26.986	1619.367	1324.889
104.045	26.962	1618.517	1323.897
105.060	27.015	1616.719	1322.701
106.074	26.967	1615.776	1321.459
107.089	27.000	1614.659	1320.671
108.103	26.976	1613.854	1319.717
109.118	27.077	1612.032	1318.847
110.133	26.979	1611.053	1317.219
111.147	27.066	1609.284	1316.287
112.162	27.044	1608.893	1315.691
113.176	27.103	1607.325	1314.717
114.191	26.960	1606.836	1313.165
115.206	27.022	1605.753	1312.611
116.220	27.029	1604.705	1311.690
117.235	27.044	1603.126	1310.397
118.249	26.954	1602.232	1308.901
119.264	26.951	1601.285	1307.985
120.279	26.937	1600.281	1306.947
121.293	26.983	1598.883	1306.021
122.308	27.139	1597.091	1305.567
123.322	27.207	1596.078	1305.106
124.337	27.118	1595.052	1303.521
125.352	27.158	1594.305	1303.080
126.366	27.095	1593.452	1301.817
127.381	27.081	1592.679	1300.965
128.395	27.184	1591.576	1300.692
129.410	27.074	1590.615	1298.998
130.424	27.054	1589.189	1297.577
131.439	27.079	1587.982	1296.659
132.454	27.166	1586.583	1296.019
133.468	27.170	1585.301	1294.888
134.483	27.119	1584.196	1293.507
135.497	27.081	1583.122	1292.246
136.512	27.163	1581.915	1291.728
137.527	27.194	1580.658	1290.804
138.541	27.177	1579.578	1289.692
139.556	27.218	1578.308	1288.830
140.570	27.113	1577.656	1287.438
141.585	27.127	1576.313	1286.328
142.600	27.129	1575.256	1285.368
143.614	27.060	1574.283	1283.972
144.629	27.095	1573.231	1283.249
145.643	27.149	1571.299	1281.935
146.658	27.030	1570.496	1280.328
147.673	27.036	1568.950	1278.998
148.687	27.066	1568.159	1278.456
149.702	27.070	1567.032	1277.452
150.716	27.090	1566.050	1276.673
151.731	27.086	1564.912	1275.608
152.746	27.052	1563.996	1274.510
153.760	27.108	1562.388	1273.477
154.775	27.156	1561.750	1273.183
155.789	27.165	1560.761	1272.330
156.804	27.226	1559.097	1271.284
157.819	27.196	1558.405	1270.400
158.833	27.105	1557.728	1269.099
159.848	27.211	1556.724	1268.910
160.862	27.225	1555.782	1268.127
161.877	27.223	1554.348	1266.831
162.892	27.226	1553.825	1266.313
163.906	27.223	1552.964	1265.474
164.921	27.258	1551.769	1264.634
165.935	27.269	1550.843	1263.845
166.950	27.241	1549.690	1262.600
167.964	27.206	1548.946	1261.640
168.979	27.180	1548.290	1260.815
169.994	27.263	1547.282	1260.452
171.008	27.291	1546.121	1259.591
172.023	27.337	1545.217	1259.060
173.037	27.281	1544.049	1257.612
174.052	27.322	1543.005	1256.936
175.067	27.204	1542.755	1255.804
176.081	27.410	1541.244	1255.881
177.096	27.261	1540.122	1253.831
178.110	27.169	1539.560	1252.632
179.125	27.285	1537.942	1252.000
180.140	27.270	1537.469	1251.403
181.154	27.279	1536.899	1250.891
182.169	27.313	1535.884	1250.188
183.183	27.258	1534.785	1248.800
184.198	27.280	1533.916	1248.132
185.213	27.361	1533.062	1247.883
186.227	27.308	1532.450	1246.912
187.242	27.343	1531.555	1246.313
188.256	27.353	1530.724	1245.597
189.271	27.360	1529.961	1244.914
190.286	27.339	1528.891	1243.787
191.300	27.324	1528.210	1243.026
192.315	27.291	1527.490	1242.101
193.329	27.244	1526.394	1240.780
194.344	27.426	1524.865	1240.666
195.359	27.386	1524.603	1240.074
196.373	27.400	1523.814	1239.416
197.388	27.337	1522.894	1238.129
198.402	27.301	1522.158	1237.177
199.417	27.331	1520.892	1236.241
200.432	27.265	1520.305	1235.206
201.446	27.369	1519.545	1235.185
202.461	27.414	1518.627	1234.633
203.475	27.348	1517.809	1233.417
204.490	27.391	1517.128	1233.041
205.504	27.338	1515.791	1231.489
206.519	27.322	1515.371	1230.928
207.534	27.466	1514.345	1230.964
208.548	27.400	1513.410	1229.644
209.563	27.418	1512.672	1229.060
210.577	27.380	1511.930	1228.092
211.592	27.501	1510.652	1227.762
212.607	27.424	1509.756	1226.402
213.621	27.454	1509.661	1226.419
214.636	27.476	1508.851	1225.805
215.650	27.405	1507.994	1224.522
216.665	27.492	1507.261	1224.400
217.680	27.391	1506.738	1223.192
218.694	27.523	1505.597	1223.044
219.709	27.363	1505.005	1221.380
220.723	27.506	1503.617	1221.106
221.738	27.507	1503.122	1220.599
222.753	27.481	1502.527	1219.837
223.767	27.424	1501.188	1218.254
224.782	27.414	1500.525	1217.548
225.796	27.445	1499.905	1217.142
226.811	27.580	1498.790	1217.033
227.826	27.608	1497.962	1216.440
228.840	27.624	1497.255	1215.861
229.855	27.613	1496.631	1215.177
230.869	27.614	1495.495	1214.153
231.884	27.541	1494.922	1213.090
232.899	27.610	1493.852	1212.575
233.913	27.579	1492.349	1211.043
234.928	27.512	1491.693	1209.957
235.942	27.631	1490.603	1209.758
236.957	27.679	1489.718	1209.252
237.972	27.631	1488.537	1207.869
238.986	27.579	1487.799	1206.816
240.001	27.584	1486.839	1205.964
241.015	27.559	1485.932	1204.959
242.030	27.632	1485.312	1204.829
243.045	27.767	1483.720	1204.324
244.059	27.820	1482.897	1203.894
245.074	27.709	1482.469	1202.709
246.088	27.658	1481.892	1201.799
247.103	27.676	1481.095	1201.164
248.117	27.790	1480.385	1201.236
249.132	27.671	1479.804	1199.876
250.147	27.765	1478.824	1199.595
251.161	27.764	1478.264	1199.025
252.176	27.899	1477.335	1199.050
253.190	27.842	1476.638	1198.006
254.205	27.787	1475.760	1196.829
255.220	27.787	1474.804	1195.944
256.234	27.827	1474.379	1195.756
257.249	27.883	1473.114	1194.993
258.263	27.847	1472.459	1194.122
259.278	27.949	1471.586	1193.970
260.293	27.962	1470.543	1193.104
261.307	27.973	1469.676	1192.370
262.322	27.863	1469.441	1191.351
263.336	27.928	1468.673	1191.048
264.351	27.924	1467.632	1190.071
265.366	27.902	1466.705	1189.076
266.380	27.836	1466.016	1187.981
267.395	27.891	1464.714	1187.178
268.409	27.929	1464.082	1186.808
269.424	27.844	1463.616	1185.772
270.439	27.892	1462.225	1184.852
271.453	27.824	1461.822	1183.979
272.468	27.948	1460.779	1183.831
273.482	27.959	1460.258	1183.379
274.497	27.836	1459.600	1181.942
275.512	27.864	1458.991	1181.530
276.526	27.998	1457.989	1181.476
277.541	28.049	1456.759	1180.705
278.555	28.031	1456.455	1180.240
279.570	28.096	1455.161	1179.507
280.585	27.985	1454.756	1178.359
281.599	27.957	1453.865	1177.347
282.614	28.027	1452.793	1176.825
283.628	27.961	1451.901	1175.575
284.643	27.908	1451.079	1174.463
285.657	27.995	1450.284	1174.278
286.672	28.027	1449.488	1173.736
287.687	27.942	1448.627	1172.386
288.701	27.897	1447.537	1171.116
289.716	28.039	1446.831	1171.348
290.730	28.139	1446.155	1171.339
291.745	28.077	1445.079	1169.969
292.760	28.061	1444.525	1169.310
293.774	28.188	1443.330	1169.052
294.789	28.132	1442.606	1168.005
295.803	28.127	1442.113	1167.470
296.818	28.175	1440.937	1166.719
297.833	28.053	1439.998	1165.081
298.847	28.072	1439.377	1164.598
299.862	28.232	1438.664	1164.932
300.876	28.258	1437.566	1164.110
301.891	28.285	1436.622	1163.411
302.906	28.269	1436.144	1162.824
303.920	28.267	1435.820	1162.443
304.935	28.360	1435.054	1162.308
305.949	28.299	1434.246	1161.166
306.964	28.224	1433.205	1159.743
307.979	28.298	1432.766	1159.759
308.993	28.397	1431.418	1159.190
310.008	28.441	1430.458	1158.589
311.022	28.329	1429.548	1157.037
312.037	28.218	1429.155	1155.919
313.052	28.343	1427.935	1155.619
314.066	28.342	1427.266	1154.967
315.081	28.349	1426.436	1154.240
316.095	28.380	1425.417	1153.505
317.110	28.336	1424.638	1152.494
318.125	28.359	1423.861	1151.908
319.139	28.317	1423.097	1150.925
320.154	28.386	1422.071	1150.428
321.168	28.396	1421.219	1149.702
322.183	28.420	1420.131	1148.870
323.197	28.401	1419.293	1147.968
324.212	28.322	1419.180	1147.283
325.227	28.386	1417.573	1146.285
326.241	28.427	1417.161	1146.103
327.256	28.427	1416.664	1145.598
328.270	28.411	1416.080	1144.928
329.285	28.563	1414.767	1144.712
330.300	28.507	1413.739	1143.429
331.314	28.509	1413.227	1142.927
332.329	28.480	1412.468	1142.030
333.343	28.546	1411.665	1141.692
334.358	28.526	1410.886	1140.838
335.373	28.586	1410.326	1140.655
336.387	28.536	1409.859	1139.869
337.402	28.537	1409.150	1139.197
338.416	28.642	1408.108	1138.905
339.431	28.681	1408.053	1139.005
340.446	28.672	1407.367	1138.293
341.460	28.568	1406.303	1136.689
342.475	28.700	1405.368	1136.648
343.489	28.698	1404.507	1135.837
344.504	28.698	1403.422	1134.859
345.519	28.720	1402.485	1134.139
346.533	28.700	1401.506	1133.120
347.548	28.875	1400.095	1132.962
348.562	28.845	1399.637	1132.304
349.577	28.677	1399.307	1130.902
350.592	28.703	1398.800	1130.551
351.606	28.668	1398.019	1129.608
352.621	28.642	1396.779	1128.345
353.635	28.636	1395.809	1127.424
354.650	28.744	1395.251	1127.539
355.665	28.737	1394.048	1126.420
356.679	28.742	1393.267	1125.725
357.694	28.724	1392.302	1124.730
358.708	28.931	1390.800	1124.686
359.723	28.837	1389.906	1123.292
360.738	28.889	1388.885	1122.682
361.752	28.786	1387.957	1121.207
362.767	28.805	1386.816	1120.298
363.781	28.845	1386.026	1119.808
364.796	28.873	1385.692	1119.605
365.810	28.850	1385.058	1118.853
366.825	28.950	1383.858	1118.394
367.840	28.905	1383.401	1117.654
368.854	28.919	1382.750	1117.111
369.869	28.871	1382.678	1116.668
370.883	28.906	1381.765	1116.043
371.898	28.956	1380.766	1115.441
372.913	29.047	1380.048	1115.312
373.927	29.133	1378.884	1114.794
374.942	29.040	1378.350	1113.699
375.956	29.011	1377.684	1112.889
376.971	29.068	1377.003	1112.583
377.986	28.992	1376.398	1111.540
379.000	28.975	1375.267	1110.423
380.015	29.052	1374.474	1110.151
381.029	29.018	1374.138	1109.576
382.044	29.084	1373.114	1109.048
383.059	29.133	1372.360	1108.633
384.073	29.082	1372.101	1108.023
385.088	29.116	1371.660	1107.771
386.102	29.089	1371.006	1106.985
387.117	29.224	1370.034	1106.908
388.132	29.228	1369.597	1106.481
389.146	29.154	1368.975	1105.441
390.161	29.145	1368.000	1104.500
391.175	29.153	1367.526	1104.066
392.190	29.150	1366.758	1103.329
393.205	29.247	1365.859	1103.086
394.219	29.250	1364.897	1102.235
395.234	29.138	1363.751	1100.542
396.248	29.222	1362.738	1100.129
397.263	29.299	1361.941	1099.845
398.278	29.158	1360.882	1098.050
399.292	29.322	1359.791	1098.053
400.307	29.291	1358.878	1097.030
401.321	29.315	1358.151	1096.489
402.336	29.274	1357.340	1095.497
403.350	29.300	1355.939	1094.424
404.365	29.344	1355.366	1094.122
405.380	29.324	1354.733	1093.397
406.394	29.397	1353.799	1092.977
407.409	29.252	1353.352	1091.665
408.423	29.304	1353.011	1091.600
409.438	29.357	1352.067	1091.054
410.453	29.403	1351.357	1090.656
411.467	29.428	1351.110	1090.510
412.482	29.468	1350.107	1089.838
413.496	29.518	1349.434	1089.498
414.511	29.467	1348.528	1088.364
415.526	29.397	1348.036	1087.459
416.540	29.448	1347.494	1087.231
417.555	29.520	1346.596	1086.832
418.569	29.618	1345.471	1086.400
419.584	29.518	1345.736	1085.932
420.599	29.610	1344.822	1085.642
421.613	93.745	1353.212	1454.706
422.628	93.551	1354.389	1454.800
