DTS Sentinel unit serial number:	SN413079Multiplexer serial number:	ORYXHardware model number:	OX4-SRSoftware version number:	ORYX F/W v4.00 Oryx Data Collector v3.7.2.0data status	okinstallation	princeton_trtdifferential loss correction	single-endedforward channel	channel 4reverse channel	N/Adate	2019/09/19time	12:13:34forward acquisition time	60.00reverse acquisition time	0.00gamma	496.2192k internal	0.2324k external	0.2324temperature offset calibration	1.0015default loss term (dB/km)	0.3790temperature slope calibration	1.0000multiplexer offset coefficient	1.0000multiplexer slope coefficient	1.0000fibre end	0.00T internal ref (°C)	26.42T ext. ref 1 (°C)	0.86T ext. ref 2 (°C)	23.19length (m)	temperature (°C)	Stokes	anti-Stokes-747.200	-200.000	0.047	0.244
-746.185	-177.333	-0.612	0.015
-745.171	-32.801	0.180	-0.101
-744.156	262.390	-0.109	0.190
-743.142	-24.734	0.331	0.199
-742.127	296.836	0.154	0.285
-741.112	-200.000	-0.087	0.524
-740.098	594.955	-0.128	0.321
-739.083	-200.000	0.050	0.221
-738.069	-34.044	0.266	0.147
-737.054	230.047	0.126	0.208
-736.039	-35.055	-0.070	-0.039
-735.025	-186.627	0.325	-0.005
-734.010	-200.000	0.003	0.017
-732.996	-200.000	-0.000	-0.011
-731.981	-142.690	0.167	0.016
-730.966	-200.000	0.023	-0.312
-729.952	-200.000	-0.016	-0.175
-728.937	-154.115	-0.192	0.013
-727.923	598.717	0.114	-0.285
-726.908	-136.019	-0.291	0.034
-725.894	-200.000	-0.013	0.156
-724.879	15.712	-0.216	0.171
-723.864	-48.396	0.338	-0.164
-722.850	-200.000	0.006	0.039
-721.835	-49.935	-0.460	-0.220
-720.821	800.000	-0.048	0.188
-719.806	49.361	-0.236	0.224
-718.791	-66.738	-0.448	-0.179
-717.777	76.385	0.116	-0.124
-716.762	-7.145	-0.302	0.206
-715.748	702.462	-0.063	-0.166
-714.733	-33.273	0.162	-0.090
-713.718	448.684	0.089	0.198
-712.704	141.704	0.103	-0.137
-711.689	-63.553	-0.079	0.033
-710.675	-16.018	-0.139	0.089
-709.660	182.578	0.159	-0.236
-708.645	320.740	0.063	0.120
-707.631	-9.249	-0.032	0.021
-706.616	-41.174	-0.050	0.026
-705.602	-72.260	-0.190	-0.071
-704.587	-37.286	0.226	0.122
-703.572	53.999	-0.194	0.188
-702.558	-200.000	-0.007	0.256
-701.543	-158.877	0.413	0.024
-700.529	-53.462	-0.250	-0.115
-699.514	-200.000	-0.025	-0.487
-698.499	-200.000	0.018	-0.104
-697.485	-112.167	0.257	-0.052
-696.470	-108.032	0.107	0.023
-695.456	-43.568	-0.120	-0.061
-694.441	-200.000	0.061	-0.411
-693.426	453.186	-0.111	-0.248
-692.412	-190.874	0.122	0.001
-691.397	-155.041	0.155	0.010
-690.383	222.952	-0.104	0.169
-689.368	-200.000	0.019	0.283
-688.354	-68.133	-0.151	-0.059
-687.339	-104.346	0.214	0.050
-686.324	-35.051	0.209	0.115
-685.310	17.432	-0.095	-0.076
-684.295	-65.781	-0.466	-0.188
-683.281	112.486	-0.038	0.047
-682.266	-200.000	-0.012	-0.147
-681.251	-200.000	0.010	0.221
-680.237	-200.000	-0.024	-0.180
-679.222	-81.526	-0.368	-0.122
-678.208	-200.000	0.023	-0.386
-677.193	-200.000	0.029	-0.286
-676.178	-133.823	0.307	0.039
-675.164	-108.345	0.370	-0.080
-674.149	-200.000	-0.026	0.198
-673.135	298.899	0.080	-0.149
-672.120	-43.266	0.285	0.145
-671.105	-17.293	-0.192	0.122
-670.091	-133.467	0.126	0.016
-669.076	-64.068	0.238	-0.098
-668.062	-37.914	-0.237	0.127
-667.047	-105.552	-0.303	-0.069
-666.032	-118.664	0.275	-0.049
-665.018	-8.698	-0.144	-0.097
-664.003	-169.342	0.079	0.003
-662.989	-200.000	0.005	-0.268
-661.974	165.776	-0.247	-0.352
-660.959	60.477	-0.099	-0.099
-659.945	-145.874	0.276	-0.025
-658.930	449.990	-0.054	0.121
-657.916	182.567	-0.147	0.218
-656.901	790.379	-0.074	0.205
-655.886	278.782	-0.143	-0.257
-654.872	-154.095	0.194	-0.013
-653.857	-200.000	0.017	0.176
-652.843	293.815	-0.049	-0.090
-651.828	-52.022	-0.137	0.064
-650.814	79.213	0.190	-0.205
-649.799	62.628	0.278	-0.280
-648.784	49.076	-0.071	-0.067
-647.770	800.000	0.053	0.185
-646.755	623.242	-0.079	-0.199
-645.741	333.305	0.061	-0.119
-644.726	-200.000	0.047	0.210
-643.711	168.514	-0.075	0.107
-642.697	-200.000	0.000	-0.389
-641.682	-156.608	-0.186	-0.012
-640.668	-119.099	-0.270	-0.047
-639.653	136.208	-0.191	-0.250
-638.638	-45.344	0.227	0.113
-637.624	-109.012	-0.292	-0.063
-636.609	800.000	-0.025	-0.077
-635.595	90.188	-0.222	-0.249
-634.580	-166.606	-0.167	-0.007
-633.565	270.749	0.228	-0.404
-632.551	84.600	-0.232	-0.255
-631.536	-121.113	-0.076	0.013
-630.522	-129.130	-0.334	0.047
-629.507	-200.000	0.011	0.122
-628.492	82.983	0.211	0.231
-627.478	54.984	-0.299	-0.290
-626.463	105.008	0.059	0.070
-625.449	-57.964	0.207	-0.091
-624.434	-90.711	-0.089	0.026
-623.419	-118.182	0.235	0.042
-622.405	170.989	0.086	-0.124
-621.390	382.288	-0.103	0.213
-620.376	397.387	-0.069	-0.146
-619.361	74.816	-0.097	-0.102
-618.346	-200.000	0.034	-0.323
-617.332	-104.028	-0.377	0.088
-616.317	-200.000	0.012	-0.461
-615.303	-34.173	0.202	-0.112
-614.288	160.780	0.173	-0.243
-613.273	133.005	-0.060	-0.078
-612.259	59.888	0.168	-0.167
-611.244	693.323	-0.079	-0.209
-610.230	-200.000	0.011	0.207
-609.215	608.349	0.067	0.168
-608.201	105.747	-0.160	-0.190
-607.186	-109.372	0.274	-0.058
-606.171	-200.000	0.017	0.144
-605.157	646.660	-0.005	0.013
-604.142	800.000	-0.131	0.463
-603.128	345.124	0.113	0.222
-602.113	800.000	0.055	-0.238
-601.098	-7.825	-0.314	0.213
-600.084	1.792	0.168	-0.122
-599.069	218.409	0.139	0.223
-598.055	653.673	-0.127	-0.327
-597.040	-85.869	-0.155	0.048
-596.025	-14.494	0.040	0.026
-595.011	800.000	0.074	0.251
-593.996	800.000	0.061	-0.239
-592.982	-157.729	-0.178	0.011
-591.967	-30.616	-0.321	0.183
-590.952	-112.282	0.138	0.028
-589.938	306.938	-0.171	-0.320
-588.923	-200.000	0.008	0.373
-587.909	-64.993	0.272	0.110
-586.894	607.864	-0.010	0.024
-585.879	-81.641	-0.080	-0.026
-584.865	177.864	-0.115	-0.169
-583.850	-124.561	0.214	-0.033
-582.836	33.402	-0.074	0.064
-581.821	-200.000	0.009	0.056
-580.806	800.000	-0.073	0.218
-579.792	-149.603	-0.245	-0.019
-578.777	800.000	-0.135	-0.395
-577.763	15.229	0.079	-0.062
-576.748	-53.359	-0.058	0.026
-575.733	180.290	0.106	0.156
-574.719	-200.000	-0.018	-0.497
-573.704	-75.663	-0.413	-0.147
-572.690	202.913	0.126	0.195
-571.675	-138.309	0.253	-0.028
-570.661	256.494	-0.071	0.123
-569.646	-46.860	-0.219	0.107
-568.631	123.664	-0.047	-0.060
-567.617	24.380	-0.321	-0.266
-566.602	-7.128	-0.129	-0.088
-565.588	72.687	-0.220	-0.231
-564.573	800.000	-0.030	0.090
-563.558	323.168	0.063	-0.120
-562.544	216.104	0.167	0.265
-561.529	-93.359	-0.376	-0.105
-560.515	6.576	0.202	0.151
-559.500	583.370	-0.019	0.047
-558.485	-200.000	-0.019	-0.324
-557.471	355.554	0.019	-0.038
-556.456	109.497	0.141	0.169
-555.442	-47.100	0.277	0.135
-554.427	726.198	0.031	0.083
-553.412	34.417	-0.143	0.125
-552.398	27.558	0.159	0.134
-551.383	-200.000	-0.004	0.216
-550.369	19.589	-0.293	-0.236
-549.354	-200.000	0.000	-0.025
-548.339	1.215	-0.129	0.093
-547.325	52.013	-0.219	0.209
-546.310	-200.000	0.070	-0.330
-545.296	-22.309	0.106	0.064
-544.281	-28.793	-0.054	0.031
-543.266	-94.496	0.178	0.049
-542.252	-168.416	-0.115	0.004
-541.237	24.074	0.226	0.187
-540.223	90.471	-0.222	0.248
-539.208	7.439	-0.130	0.097
-538.193	507.676	0.034	0.078
-537.179	-200.000	0.007	-0.084
-536.164	-80.512	0.280	-0.093
-535.150	42.399	0.090	0.082
-534.135	301.493	-0.048	-0.088
-533.121	-200.000	0.049	0.373
-532.106	-64.765	-0.162	-0.066
-531.091	800.000	-0.012	0.048
-530.077	800.000	-0.015	-0.057
-529.062	-136.059	0.284	-0.033
-528.048	-191.999	0.020	-0.000
-527.033	-45.360	-0.225	-0.112
-526.018	390.944	-0.215	0.446
-525.004	72.903	-0.109	0.114
-523.989	-140.936	0.479	-0.049
-522.975	-161.289	-0.277	-0.014
-521.960	250.127	-0.149	-0.254
-520.945	-83.179	-0.305	-0.098
-519.931	-200.000	0.055	-0.318
-518.916	78.459	-0.083	-0.088
-517.902	-200.000	-0.002	-0.116
-516.887	8.914	-0.304	-0.229
-515.872	124.687	0.105	0.133
-514.858	-200.000	0.001	0.054
-513.843	490.203	-0.074	0.170
-512.829	-133.565	0.343	-0.043
-511.814	-108.930	0.184	0.039
-510.799	407.531	-0.112	0.238
-509.785	-200.000	-0.019	-0.217
-508.770	-24.420	0.105	-0.062
-507.756	800.000	0.038	0.146
-506.741	188.317	0.048	-0.071
-505.726	-200.000	0.033	0.149
-504.712	-100.845	0.121	-0.030
-503.697	-53.955	-0.404	0.184
-502.683	175.976	0.025	-0.036
-501.668	-27.446	-0.086	-0.050
-500.653	-200.000	-0.009	0.121
-499.639	-200.000	0.061	0.311
-498.624	-83.439	0.054	-0.017
-497.610	-38.428	-0.275	0.146
-496.595	41.582	0.212	0.192
-495.581	-55.018	0.291	0.131
-494.566	224.033	0.080	0.129
-493.551	800.000	-0.064	-0.271
-492.537	-84.731	-0.119	-0.038
-491.522	-126.807	0.259	-0.038
-490.508	225.613	0.324	0.525
-489.493	-107.557	0.218	-0.048
-488.478	-144.382	-0.418	-0.039
-487.464	-62.940	0.128	0.053
-486.449	-200.000	-0.001	-0.117
-485.435	-200.000	-0.003	0.232
-484.420	105.411	0.223	-0.263
-483.405	-17.089	-0.065	-0.041
-482.391	800.000	-0.063	0.254
-481.376	-50.276	-0.380	0.180
-480.362	-128.644	0.066	0.009
-479.347	-35.819	-0.119	0.064
-478.332	-198.613	0.156	0.001
-477.318	800.000	0.046	-0.169
-476.303	-181.108	-0.066	0.001
-475.289	169.711	0.149	0.213
-474.274	-108.336	0.366	0.079
-473.259	-200.000	0.022	-0.115
-472.245	-200.000	-0.049	-0.291
-471.230	800.000	-0.080	-0.288
-470.216	-114.143	0.206	-0.040
-469.201	61.196	-0.158	-0.156
-468.186	113.280	0.178	-0.216
-467.172	287.359	-0.091	-0.164
-466.157	395.897	0.094	0.195
-465.143	-200.000	0.004	-0.148
-464.128	-78.900	-0.211	-0.072
-463.113	-200.000	0.040	-0.190
-462.099	-0.906	-0.182	0.129
-461.084	-200.000	-0.049	-0.261
-460.070	-7.171	-0.158	0.107
-459.055	191.149	-0.105	-0.158
-458.040	-80.529	-0.069	0.023
-457.026	338.877	-0.059	-0.115
-456.011	-76.181	-0.288	-0.101
-454.997	-76.272	0.174	-0.061
-453.982	799.479	0.122	-0.337
-452.968	20.536	-0.194	0.157
-451.953	800.000	0.141	0.499
-450.938	-200.000	-0.040	0.192
-449.924	-60.588	-0.123	-0.052
-448.909	185.998	0.115	0.171
-447.895	493.826	0.055	0.127
-446.880	-200.000	-0.053	0.237
-445.865	-132.649	-0.165	0.021
-444.851	34.014	-0.185	0.161
-443.836	-200.000	-0.021	-0.240
-442.822	53.338	-0.092	0.088
-441.807	52.670	-0.221	0.210
-440.792	-13.660	0.181	0.117
-439.778	-27.571	-0.035	-0.020
-438.763	-134.501	0.109	-0.013
-437.749	45.582	-0.268	-0.247
-436.734	800.000	0.061	-0.190
-435.719	-200.000	-0.041	0.417
-434.705	-200.000	0.023	-0.222
-433.690	-162.873	0.064	-0.003
-432.676	51.970	0.022	0.021
-431.661	483.040	0.146	-0.330
-430.646	-191.834	0.080	-0.001
-429.632	-65.640	-0.274	0.110
-428.617	15.429	0.097	0.076
-427.603	-57.226	0.101	0.044
-426.588	373.893	0.081	-0.165
-425.573	201.823	-0.067	0.102
-424.559	133.578	-0.205	0.264
-423.544	-128.923	-0.186	0.026
-422.530	-200.000	-0.008	0.084
-421.515	-200.000	0.094	0.518
-420.500	206.757	0.128	0.199
-419.486	-166.608	-0.221	0.009
-418.471	249.093	0.065	-0.109
-417.457	28.142	-0.230	-0.194
-416.442	800.000	-0.015	0.061
-415.428	36.473	0.289	-0.254
-414.413	82.862	0.112	-0.121
-413.398	-116.155	-0.183	0.034
-412.384	-82.347	0.322	-0.104
-411.369	-200.000	-0.001	0.177
-410.355	26.756	-0.130	-0.108
-409.340	-107.971	-0.229	0.050
-408.325	6.426	-0.041	-0.031
-407.311	443.169	0.085	0.185
-406.296	-30.277	0.067	-0.038
-405.282	-10.492	-0.341	0.225
-404.267	-109.262	-0.302	0.064
-403.252	68.746	0.155	0.159
-402.238	106.657	0.243	-0.287
-401.223	-161.993	0.342	0.017
-400.209	-62.505	0.369	0.153
-399.194	137.216	-0.046	-0.060
-398.179	-200.000	0.041	0.205
-397.165	-53.251	0.131	-0.060
-396.150	61.613	0.107	0.106
-395.136	2.659	0.275	0.198
-394.121	127.378	-0.209	0.264
-393.106	326.537	0.035	-0.066
-392.092	-200.000	0.053	0.311
-391.077	65.084	-0.087	-0.087
-390.063	-99.170	-0.256	-0.065
-389.048	481.273	0.126	0.284
-388.033	118.906	-0.143	-0.175
-387.019	-6.857	-0.207	-0.140
-386.004	-200.000	-0.075	0.408
-384.990	-13.480	0.163	-0.105
-383.975	-124.081	-0.142	0.022
-382.960	-200.000	-0.015	0.231
-381.946	380.464	-0.071	-0.145
-380.931	6.041	0.090	-0.067
-379.917	-16.524	0.278	0.175
-378.902	800.000	-0.087	0.316
-377.888	-64.105	-0.185	-0.075
-376.873	-103.758	0.276	-0.064
-375.858	-130.013	-0.267	0.036
-374.844	-99.487	0.133	0.033
-373.829	-200.000	-0.012	-0.186
-372.815	153.780	-0.076	0.104
-371.800	-12.250	-0.076	0.049
-370.785	134.018	-0.135	-0.174
-369.771	-41.092	0.073	-0.037
-368.756	36.692	0.080	-0.070
-367.742	-160.908	-0.424	0.022
-366.727	-69.378	0.328	0.125
-365.712	-200.000	0.053	0.241
-364.698	-122.210	0.196	0.032
-363.683	800.000	-0.058	0.228
-362.669	-43.765	-0.099	0.050
-361.654	-200.000	0.017	0.126
-360.639	-174.115	-0.271	-0.008
-359.625	54.081	-0.218	0.208
-358.610	-16.857	0.265	-0.167
-357.596	-95.932	-0.209	0.055
-356.581	166.720	-0.057	-0.081
-355.566	566.652	0.116	-0.280
-354.552	-47.946	0.239	-0.115
-353.537	-76.527	-0.135	0.047
-352.523	-136.669	-0.231	-0.027
-351.508	-46.522	0.312	0.152
-350.493	626.509	0.112	0.282
-349.479	-86.604	0.336	-0.102
-348.464	79.204	-0.270	-0.287
-347.450	800.000	0.097	0.296
-346.435	192.161	-0.220	-0.329
-345.420	-112.060	0.134	0.027
-344.406	-49.253	-0.266	0.126
-343.391	-42.444	0.363	0.184
-342.377	-101.729	-0.267	0.064
-341.362	195.386	-0.144	-0.218
-340.348	-104.948	0.185	0.042
-339.333	800.000	-0.064	-0.193
-338.318	-145.342	-0.137	-0.012
-337.304	-112.961	0.136	0.027
-336.289	74.326	0.320	0.334
-335.275	448.792	-0.102	-0.224
-334.260	722.257	0.089	0.235
-333.245	38.902	0.177	0.157
-332.231	-139.893	-0.059	-0.006
-331.216	-31.006	-0.238	0.133
-330.202	-161.872	-0.047	-0.002
-329.187	-91.935	0.187	-0.053
-328.172	800.000	-0.100	-0.339
-327.158	35.515	-0.085	-0.074
-326.143	-32.033	-0.283	-0.157
-325.129	-139.061	0.160	0.017
-324.114	-1.533	0.223	0.156
-323.099	800.000	-0.045	-0.193
-322.085	-15.513	0.252	-0.160
-321.070	800.000	-0.059	0.226
-320.056	-113.711	-0.176	0.034
-319.041	-82.930	0.108	-0.034
-318.026	-76.837	-0.123	-0.043
-317.012	-2.730	-0.163	-0.113
-315.997	89.819	0.198	-0.219
-314.983	187.426	-0.055	0.081
-313.968	189.012	-0.030	-0.045
-312.953	-127.827	-0.236	0.034
-311.939	-200.000	0.027	-0.240
-310.924	-30.280	0.049	0.028
-309.910	503.140	-0.093	-0.215
-308.895	-200.000	-0.022	0.100
-307.880	37.245	-0.327	0.287
-306.866	-200.000	0.045	0.415
-305.851	-123.194	-0.115	-0.018
-304.837	-200.000	-0.027	-0.162
-303.822	78.758	0.120	0.127
-302.807	2.399	0.136	-0.098
-301.793	356.944	-0.076	0.149
-300.778	-46.879	0.197	0.096
-299.764	251.776	0.109	-0.183
-298.749	174.166	-0.164	-0.235
-297.735	-121.197	0.329	-0.055
-296.720	-26.775	0.129	-0.075
-295.705	-117.038	0.112	0.020
-294.691	186.852	0.108	0.159
-293.676	-200.000	-0.043	0.366
-292.662	-200.000	0.012	-0.119
-291.647	-85.056	-0.166	0.051
-290.632	-61.410	-0.178	0.074
-289.618	6.995	0.218	0.161
-288.603	-133.412	-0.367	-0.046
-287.589	437.082	-0.061	0.131
-286.574	-0.995	0.122	0.086
-285.559	800.000	0.047	-0.190
-284.545	18.582	-0.070	-0.055
-283.530	0.412	0.261	-0.185
-282.516	-2.174	0.242	-0.168
-281.501	-200.000	0.010	0.198
-280.486	98.198	0.151	0.173
-279.472	-200.000	-0.026	0.317
-278.457	159.257	-0.189	0.260
-277.443	119.710	0.067	-0.083
-276.428	-63.944	0.205	-0.083
-275.413	755.694	0.070	0.187
-274.399	800.000	-0.059	-0.235
-273.384	-115.191	-0.137	0.026
-272.370	72.540	0.130	0.135
-271.355	-200.000	-0.113	-0.000
-270.340	29.923	-0.069	0.058
-269.326	-34.466	0.030	0.016
-268.311	97.243	-0.038	-0.044
-267.297	163.305	0.080	-0.111
-266.282	-56.615	-0.067	-0.029
-265.267	57.662	0.153	-0.148
-264.253	-70.926	-0.365	-0.136
-263.238	-143.043	-0.279	-0.027
-262.224	33.496	-0.163	0.140
-261.209	-37.496	-0.129	-0.068
-260.195	108.058	0.207	0.244
-259.180	353.072	-0.031	0.060
-258.165	-47.528	0.353	-0.170
-257.151	-200.000	-0.001	0.148
-256.136	-27.334	0.179	-0.103
-255.122	-200.000	-0.008	-0.231
-254.107	800.000	-0.052	-0.198
-253.092	800.000	0.044	-0.159
-252.078	-19.336	0.113	-0.069
-251.063	284.094	-0.120	-0.215
-250.049	-200.000	0.004	-0.232
-249.034	147.548	0.076	-0.101
-248.019	-200.000	0.053	-0.344
-247.005	-32.342	0.322	0.178
-245.990	205.540	-0.037	-0.057
-244.976	45.728	-0.102	0.094
-243.961	0.287	-0.065	-0.046
-242.946	66.133	0.210	-0.211
-241.932	46.157	-0.118	0.108
-240.917	8.475	-0.205	-0.152
-239.903	-200.000	0.012	0.223
-238.888	-58.180	-0.267	-0.115
-237.873	680.922	-0.071	0.183
-236.859	800.000	-0.091	0.282
-235.844	188.940	0.130	0.192
-234.830	-185.631	-0.346	0.005
-233.815	46.625	-0.186	0.171
-232.800	-114.918	0.217	-0.041
-231.786	-200.000	0.020	-0.118
-230.771	-200.000	0.031	-0.453
-229.757	-148.794	0.347	0.028
-228.742	-200.000	-0.056	-0.298
-227.727	49.844	0.231	-0.216
-226.713	800.000	0.041	-0.141
-225.698	179.034	0.117	-0.169
-224.684	81.468	-0.240	-0.256
-223.669	-77.629	0.112	0.039
-222.655	-88.745	0.332	0.098
-221.640	-97.121	0.167	0.043
-220.625	-86.382	0.309	0.094
-219.611	190.919	0.260	-0.387
-218.596	242.139	-0.104	0.172
-217.582	-200.000	0.007	-0.250
-216.567	-27.844	0.248	-0.142
-215.552	-10.654	-0.143	-0.093
-214.538	800.000	0.041	-0.171
-213.523	-31.272	0.021	-0.012
-212.509	105.983	-0.064	0.075
-211.494	-200.000	0.016	-0.227
-210.479	-38.074	0.353	-0.185
-209.465	-200.000	-0.036	0.163
-208.450	800.000	-0.018	0.061
-207.436	-158.791	0.208	-0.012
-206.421	0.988	-0.136	0.096
-205.406	-37.297	0.365	-0.193
-204.392	800.000	0.112	0.346
-203.377	-149.834	0.236	-0.018
-202.363	-108.805	0.176	-0.037
-201.348	-121.293	0.107	-0.018
-200.333	-190.106	-0.271	-0.003
-199.319	236.067	0.055	-0.089
-198.304	414.768	0.139	-0.293
-197.290	-200.000	-0.010	-0.047
-196.275	-43.533	-0.202	-0.101
-195.260	800.000	0.034	0.099
-194.246	-42.548	0.364	0.183
-193.231	800.000	0.113	0.462
-192.217	-35.258	0.082	0.044
-191.202	-188.487	0.165	0.002
-190.187	281.690	0.078	-0.138
-189.173	184.465	-0.065	0.095
-188.158	-172.744	0.072	0.002
-187.144	278.967	0.110	-0.193
-186.129	-200.000	0.039	0.229
-185.114	60.194	-0.245	-0.239
-184.100	312.306	0.074	-0.137
-183.085	-117.937	-0.034	-0.006
-182.071	138.004	0.056	0.072
-181.056	-200.000	-0.007	0.089
-180.042	-200.000	0.042	0.267
-179.027	281.724	0.056	-0.099
-178.012	-90.752	0.231	0.066
-176.998	262.386	-0.117	-0.200
-175.983	100.824	0.311	0.357
-174.969	98.157	-0.023	0.026
-173.954	25.932	0.084	0.069
-172.939	248.145	0.117	0.195
-171.925	212.951	-0.150	0.233
-170.910	451.683	-0.096	-0.210
-169.896	-20.279	-0.235	0.143
-168.881	112.894	-0.187	0.223
-167.866	-200.000	-0.001	-0.077
-166.852	-200.000	0.026	-0.267
-165.837	48.127	0.145	-0.134
-164.823	-200.000	-0.001	0.378
-163.808	90.570	0.166	-0.184
-162.793	-115.857	-0.259	-0.048
-161.779	-56.104	0.507	-0.223
-160.764	800.000	-0.037	-0.161
-159.750	-96.652	-0.201	-0.052
-158.735	-20.172	0.170	0.103
-157.720	-67.759	-0.204	0.079
-156.706	-127.572	-0.387	0.055
-155.691	-159.694	0.062	0.003
-154.677	800.000	-0.032	-0.091
-153.662	-34.967	0.180	-0.097
-152.647	-88.950	-0.222	-0.065
-151.633	-200.000	-0.078	0.552
-150.618	-67.618	0.140	-0.054
-149.604	-18.424	0.243	-0.149
-148.589	-18.814	0.109	0.067
-147.574	800.000	0.024	-0.091
-146.560	-99.535	0.231	-0.057
-145.545	5.557	0.071	0.052
-144.531	-151.923	0.106	0.008
-143.516	46.467	0.159	-0.145
-142.502	-121.817	0.245	0.040
-141.487	800.000	-0.034	0.097
-140.472	-8.470	0.251	-0.166
-139.458	-100.355	0.221	0.054
-138.443	320.471	0.070	-0.131
-137.429	-88.392	0.303	-0.089
-136.414	-200.000	0.026	-0.188
-135.399	-87.120	0.273	0.082
-134.385	282.136	-0.102	0.180
-133.370	-200.000	0.013	-0.286
-132.356	312.790	-0.089	-0.165
-131.341	180.285	0.081	0.117
-130.326	111.281	0.307	0.364
-129.312	1.145	-0.263	-0.186
-128.297	-200.000	-0.021	-0.290
-127.283	800.000	0.075	-0.216
-126.268	-111.016	-0.378	-0.077
-125.253	-56.715	-0.250	-0.109
-124.239	62.490	0.046	-0.046
-123.224	-200.000	0.044	-0.248
-122.210	208.066	-0.130	0.200
-121.195	-200.000	0.013	-0.463
-120.180	455.411	0.118	0.257
-119.166	-130.119	-0.216	0.029
-118.151	366.003	0.053	-0.105
-117.137	-200.000	-0.377	0.002
-116.122	34.809	-0.226	0.195
-115.107	167.158	-0.153	-0.214
-114.093	800.000	-0.116	0.466
-113.078	17.501	-0.159	-0.124
-112.064	69.452	0.262	0.266
-111.049	45.113	0.231	-0.210
-110.034	800.000	-0.130	-0.458
-109.020	-93.587	0.437	0.119
-108.005	-64.267	-0.190	0.076
-106.991	97.467	-0.142	-0.161
-105.976	-154.156	-0.281	-0.019
-104.962	-114.344	0.199	-0.038
-103.947	-154.576	-0.232	0.015
-102.932	-10.444	0.224	-0.146
-101.918	321.905	-0.059	-0.110
-100.903	391.453	-0.150	0.306
-99.889	800.000	-0.023	-0.073
-98.874	70.841	0.088	0.090
-97.859	-69.046	0.294	0.111
-96.845	113.240	0.148	-0.177
-95.830	-200.000	0.006	0.362
-94.816	38.715	0.267	-0.235
-93.801	-200.000	-0.038	0.385
-92.786	800.000	-0.094	-0.335
-91.772	104.329	0.088	-0.102
-90.757	333.643	0.075	-0.142
-89.743	748.762	-0.073	0.195
-88.728	-200.000	0.030	0.439
-87.713	-81.055	0.578	0.188
-86.699	35.281	-0.221	0.191
-85.684	-102.166	0.373	-0.088
-84.670	800.000	0.105	-0.393
-83.655	-144.002	0.198	0.018
-82.640	376.484	-0.184	-0.369
-81.626	-100.853	0.374	0.091
-80.611	-200.000	-0.001	-0.005
-79.597	-34.604	-0.129	-0.070
-78.582	59.437	0.109	0.105
-77.567	-75.842	0.403	-0.141
-76.553	323.542	0.180	-0.338
-75.538	29.643	-0.167	-0.140
-74.524	75.525	0.115	-0.120
-73.509	28.419	0.258	0.214
-72.494	438.220	0.167	0.358
-71.480	800.000	-0.078	0.325
-70.465	-200.000	-0.029	0.347
-69.451	-87.388	0.084	-0.025
-68.436	311.065	-0.126	-0.232
-67.422	73.647	0.077	0.079
-66.407	-96.615	0.261	0.068
-65.392	-171.777	-0.314	-0.010
-64.378	45.738	0.265	-0.241
-63.363	-200.000	-0.081	-0.503
-62.349	-17.623	0.264	0.163
-61.334	34.131	-1.123	-0.962
-60.319	54.292	0.629	0.596
-59.305	362.263	-0.598	-1.180
-58.290	221.360	0.796	1.256
-57.276	800.000	0.498	1.503
-56.261	-200.000	113.713	614.345
-55.246	426.965	1527.216	3236.824
-54.232	139.301	2730.577	3529.967
-53.217	90.357	2364.681	2599.685
-52.203	32.959	2108.258	1794.278
-51.188	28.129	2021.603	1676.322
-50.173	26.712	2004.628	1649.300
-49.159	43.804	2062.837	1855.533
-48.144	42.869	2079.004	1861.358
-47.130	28.652	2038.176	1694.628
-46.115	26.445	2027.549	1665.432
-45.100	26.398	2024.009	1662.023
-44.086	26.359	2021.752	1659.744
-43.071	26.344	2018.809	1657.125
-42.057	26.177	2017.343	1654.328
-41.042	26.244	2015.326	1653.224
-40.027	26.282	2013.626	1652.108
-39.013	26.383	2011.046	1650.854
-37.998	26.351	2009.960	1649.599
-36.984	26.376	2007.621	1647.843
-35.969	26.301	2005.895	1645.682
-34.954	26.394	2003.599	1644.573
-33.940	26.393	2002.557	1643.645
-32.925	26.374	2001.443	1642.494
-31.911	26.391	1999.649	1641.114
-30.896	26.448	1997.532	1639.823
-29.881	26.420	1996.219	1638.430
-28.867	26.515	1994.907	1638.149
-27.852	26.421	1993.231	1635.851
-26.838	26.584	1990.656	1635.148
-25.823	26.462	1988.798	1632.461
-24.809	26.404	1987.209	1630.561
-23.794	26.364	1985.438	1628.685
-22.779	26.451	1983.344	1627.685
-21.765	26.476	1981.805	1626.581
-20.750	26.475	1980.248	1625.237
-19.736	26.504	1978.650	1624.122
-18.721	26.487	1977.332	1622.816
-17.706	26.491	1975.347	1621.165
-16.692	26.454	1973.660	1619.382
-15.677	26.482	1972.347	1618.487
-14.663	26.432	1970.998	1616.874
-13.648	26.439	1969.225	1615.420
-12.633	26.355	1968.485	1613.994
-11.619	26.382	1966.917	1612.890
-10.604	26.473	1964.863	1611.945
-9.590	26.445	1964.038	1610.954
-8.575	26.377	1963.261	1609.649
-7.560	26.410	1961.448	1608.395
-6.546	26.402	1960.277	1607.299
-5.531	26.457	1958.964	1606.650
-4.517	26.465	1957.808	1605.708
-3.502	26.478	1956.735	1604.880
-2.487	26.437	1955.223	1603.211
-1.473	26.466	1954.145	1602.519
-0.458	26.555	1949.270	1599.242
0.556	25.529	1930.554	1574.981
1.571	21.844	1913.037	1528.498
2.586	17.971	1936.623	1512.967
3.600	16.974	1971.717	1531.253
4.615	16.424	1965.773	1521.549
5.629	12.759	1863.063	1410.598
6.644	5.296	1744.902	1260.969
7.659	1.241	1710.122	1203.611
8.673	0.937	1706.818	1198.772
9.688	0.860	1706.089	1197.544
10.702	0.874	1704.122	1196.169
11.717	0.748	1700.437	1192.482
12.731	1.124	1699.595	1194.744
13.746	6.367	1711.285	1244.379
14.761	13.474	1725.139	1310.791
15.775	16.731	1730.242	1340.372
16.790	17.195	1729.602	1343.427
17.804	16.387	1726.846	1334.787
18.819	15.443	1723.280	1324.470
19.834	14.847	1721.114	1317.985
20.848	14.527	1719.354	1314.000
21.863	14.234	1718.039	1310.577
22.877	14.009	1716.154	1307.251
23.892	13.791	1714.916	1304.481
24.907	13.625	1713.763	1302.184
25.921	13.593	1712.562	1300.903
26.936	13.660	1711.004	1300.132
27.950	13.677	1710.680	1299.901
28.965	13.740	1710.024	1299.781
29.980	13.736	1709.295	1299.084
30.994	13.792	1708.401	1298.723
32.009	13.737	1707.766	1297.697
33.023	13.802	1706.869	1297.408
34.038	13.915	1705.460	1297.108
35.053	13.866	1704.880	1296.166
36.067	13.834	1703.252	1294.567
37.082	13.785	1702.162	1293.242
38.096	13.812	1701.386	1292.748
39.111	13.800	1700.611	1291.946
40.126	13.879	1699.201	1291.376
41.140	13.817	1698.805	1290.484
42.155	13.775	1697.222	1288.841
43.169	13.760	1695.717	1287.464
44.184	13.653	1694.846	1285.859
45.199	13.671	1693.828	1285.110
46.213	13.613	1692.399	1283.469
47.228	13.659	1691.903	1283.333
48.242	13.715	1689.977	1282.193
49.257	13.720	1688.799	1281.226
50.271	13.642	1687.957	1279.871
51.286	13.616	1686.590	1278.517
52.301	13.675	1684.937	1277.604
53.315	13.689	1683.238	1276.309
54.330	13.654	1682.020	1275.004
55.344	13.660	1680.516	1273.801
56.359	13.627	1679.031	1272.307
57.374	13.613	1677.742	1271.108
58.388	13.611	1676.958	1270.391
59.403	13.633	1675.067	1269.016
60.417	13.677	1673.675	1268.181
61.432	13.550	1673.173	1266.721
62.447	13.560	1671.711	1265.578
63.461	13.595	1670.222	1264.603
64.476	13.545	1669.322	1263.434
65.490	13.592	1667.758	1262.491
66.505	13.568	1666.510	1261.257
67.520	13.538	1665.909	1260.458
68.534	13.546	1665.031	1259.742
69.549	13.617	1663.459	1258.980
70.563	13.542	1662.331	1257.447
71.578	13.605	1660.827	1256.674
72.593	13.570	1659.647	1255.409
73.607	13.544	1658.953	1254.571
74.622	13.515	1657.583	1253.209
75.636	13.594	1656.447	1252.833
76.651	13.570	1655.921	1252.145
77.666	13.557	1655.055	1251.282
78.680	13.467	1654.475	1250.055
79.695	13.525	1652.624	1248.985
80.709	13.591	1651.936	1248.849
81.724	13.501	1651.020	1247.367
82.739	13.565	1650.411	1247.282
83.753	13.634	1649.013	1246.631
84.768	13.710	1647.515	1245.960
85.782	13.682	1647.393	1245.547
86.797	13.749	1646.200	1245.037
87.812	13.680	1644.962	1243.476
88.826	13.622	1644.477	1242.561
89.841	13.640	1642.896	1241.391
90.855	13.613	1641.908	1240.334
91.870	13.731	1640.650	1240.155
92.884	13.668	1639.606	1238.787
93.899	13.698	1638.403	1237.992
94.914	13.710	1637.503	1237.292
95.928	13.774	1636.220	1236.688
96.943	13.802	1634.550	1235.528
97.957	13.816	1633.062	1234.396
98.972	13.773	1631.479	1232.774
99.987	13.749	1629.994	1231.364
101.001	13.755	1628.569	1230.219
102.016	13.775	1627.350	1229.342
103.030	13.788	1625.784	1228.146
104.045	13.742	1624.588	1226.793
105.060	13.815	1622.828	1225.892
106.074	13.684	1621.662	1223.935
107.089	13.767	1619.637	1222.915
108.103	13.710	1618.725	1221.699
109.118	13.610	1617.136	1219.650
110.133	13.633	1615.872	1218.761
111.147	13.623	1614.322	1217.409
112.162	13.573	1613.440	1216.270
113.176	13.684	1611.647	1215.624
114.191	13.599	1610.793	1214.254
115.206	13.678	1609.104	1213.447
116.220	13.678	1607.595	1212.203
117.235	13.685	1606.066	1210.996
118.249	13.748	1604.540	1210.197
119.264	13.713	1603.524	1209.065
120.279	13.679	1602.485	1207.932
121.293	13.658	1600.045	1205.828
122.308	13.648	1599.064	1204.910
123.322	13.679	1597.397	1203.772
124.337	13.709	1596.253	1203.022
125.352	13.694	1594.802	1201.715
126.366	13.720	1593.299	1200.663
127.381	13.578	1593.067	1199.352
128.395	13.671	1590.800	1198.216
129.410	13.625	1589.582	1196.861
130.424	13.666	1588.165	1195.980
131.439	13.607	1587.425	1194.891
132.454	13.736	1586.015	1194.655
133.468	13.700	1584.378	1193.059
134.483	13.804	1582.495	1192.278
135.497	13.783	1581.068	1190.947
136.512	13.775	1580.002	1189.986
137.527	13.775	1578.554	1188.790
138.541	13.739	1577.520	1187.649
139.556	13.708	1575.819	1186.037
140.570	13.791	1574.345	1185.418
141.585	13.896	1573.012	1185.056
142.600	13.827	1572.252	1183.888
143.614	13.907	1570.247	1182.844
144.629	13.974	1569.360	1182.552
145.643	13.903	1568.377	1181.199
146.658	13.978	1566.462	1180.183
147.673	13.904	1565.005	1178.455
148.687	13.908	1563.680	1177.387
149.702	13.912	1562.188	1176.182
150.716	13.809	1560.997	1174.453
151.731	13.947	1559.249	1174.014
152.746	13.882	1558.113	1172.592
153.760	13.984	1556.385	1171.910
154.775	13.917	1555.557	1170.708
155.789	13.891	1553.850	1169.139
156.804	13.965	1552.550	1168.577
157.819	13.975	1551.611	1167.835
158.833	13.921	1550.616	1166.603
159.848	14.063	1549.309	1166.512
160.862	14.068	1548.004	1165.467
161.877	14.082	1546.172	1164.082
162.892	14.131	1545.590	1163.884
163.906	13.982	1544.590	1161.986
164.921	14.004	1542.870	1160.739
165.935	13.930	1542.158	1159.585
166.950	13.930	1541.462	1158.959
167.964	14.087	1539.427	1158.418
168.979	14.038	1539.037	1157.685
169.994	14.020	1537.747	1156.487
171.008	14.055	1536.668	1155.816
172.023	14.102	1535.100	1154.864
173.037	14.124	1534.255	1154.273
174.052	14.053	1533.359	1153.009
175.067	14.192	1531.652	1152.583
176.081	14.162	1530.416	1151.346
177.096	14.132	1529.420	1150.284
178.110	14.037	1528.637	1148.941
179.125	14.136	1527.415	1148.601
180.140	14.052	1526.143	1146.964
181.154	14.103	1525.025	1146.374
182.169	14.236	1523.523	1146.060
183.183	14.231	1522.273	1144.983
184.198	14.258	1521.257	1144.306
185.213	14.216	1520.278	1143.178
186.227	14.354	1518.860	1142.957
187.242	14.238	1518.604	1141.867
188.256	14.282	1517.261	1141.058
189.271	14.368	1515.941	1140.553
190.286	14.371	1514.907	1139.695
191.300	14.409	1513.320	1138.658
192.315	14.318	1512.264	1137.140
193.329	14.213	1510.774	1135.206
194.344	14.222	1510.201	1134.738
195.359	14.156	1509.301	1133.513
196.373	14.334	1508.051	1133.680
197.388	14.301	1507.123	1132.660
198.402	14.415	1505.653	1132.230
199.417	14.435	1504.332	1131.274
200.432	14.453	1503.642	1130.774
201.446	14.442	1502.482	1129.725
202.461	14.558	1501.121	1129.392
203.475	14.565	1499.962	1128.464
204.490	14.634	1498.741	1127.916
205.504	14.607	1497.935	1127.025
206.519	14.578	1496.646	1125.759
207.534	14.548	1495.754	1124.789
208.548	14.461	1494.859	1123.427
209.563	14.597	1493.447	1123.181
210.577	14.467	1492.536	1121.523
211.592	14.502	1492.055	1121.295
212.607	14.509	1491.169	1120.583
213.621	14.565	1490.441	1120.314
214.636	14.686	1488.926	1119.883
215.650	14.672	1488.062	1119.040
216.665	14.704	1487.084	1118.422
217.680	14.755	1486.062	1117.894
218.694	14.739	1485.785	1117.478
219.709	14.723	1485.142	1116.787
220.723	14.784	1483.675	1115.999
221.738	14.823	1482.603	1115.352
222.753	14.718	1482.240	1114.281
223.767	14.787	1480.856	1113.601
224.782	14.813	1479.744	1112.835
225.796	14.925	1478.703	1112.705
226.811	14.791	1478.122	1111.273
227.826	14.863	1477.340	1111.068
228.840	14.943	1475.986	1110.482
229.855	14.911	1475.358	1109.698
230.869	14.819	1474.482	1108.329
231.884	14.851	1473.482	1107.697
232.899	14.902	1472.112	1106.903
233.913	14.923	1470.531	1105.755
234.928	14.903	1469.620	1104.841
235.942	14.887	1468.675	1103.930
236.957	14.876	1466.881	1102.410
237.972	14.902	1466.530	1102.216
238.986	14.856	1465.058	1100.711
240.001	14.871	1463.835	1099.792
241.015	14.859	1462.933	1098.940
242.030	14.908	1461.853	1098.357
243.045	14.965	1460.907	1097.917
244.059	14.997	1459.814	1097.214
245.074	15.007	1459.309	1096.803
246.088	14.990	1458.244	1095.791
247.103	15.093	1457.220	1095.600
248.117	15.012	1456.651	1094.547
249.132	15.083	1455.622	1094.139
250.147	15.293	1454.687	1094.707
251.161	15.169	1454.414	1093.595
252.176	15.293	1453.648	1093.736
253.190	15.314	1452.709	1093.068
254.205	15.232	1452.049	1091.943
255.220	15.316	1450.732	1091.398
256.234	15.377	1450.436	1091.479
257.249	15.409	1449.214	1090.673
258.263	15.411	1448.546	1090.086
259.278	15.370	1447.396	1088.857
260.293	15.288	1446.617	1087.642
261.307	15.322	1446.133	1087.405
262.322	15.409	1445.249	1087.206
263.336	15.519	1444.291	1087.097
264.351	15.534	1443.134	1086.229
265.366	15.497	1442.168	1085.169
266.380	15.497	1441.194	1084.337
267.395	15.562	1440.350	1084.026
268.409	15.608	1439.297	1083.436
269.424	15.533	1438.386	1082.169
270.439	15.573	1436.992	1081.285
271.453	15.529	1436.460	1080.506
272.468	15.539	1435.460	1079.720
273.482	15.563	1434.695	1079.202
274.497	15.556	1433.766	1078.362
275.512	15.717	1432.556	1078.395
276.526	15.555	1432.236	1077.014
277.541	15.556	1431.129	1076.093
278.555	15.686	1429.997	1075.981
279.570	15.593	1429.470	1074.896
280.585	15.634	1428.382	1074.245
281.599	15.708	1427.584	1074.019
282.614	15.753	1426.655	1073.515
283.628	15.734	1424.819	1071.917
284.643	15.701	1424.017	1071.007
285.657	15.699	1423.105	1070.212
286.672	15.749	1422.131	1069.706
287.687	15.795	1421.200	1069.200
288.701	15.807	1420.412	1068.590
289.716	15.771	1419.458	1067.549
290.730	15.845	1418.368	1067.105
291.745	15.802	1417.459	1066.058
292.760	15.826	1416.444	1065.351
293.774	15.908	1415.519	1065.081
294.789	15.839	1414.479	1063.763
295.803	15.980	1413.772	1064.028
296.818	15.871	1412.888	1062.585
297.833	15.973	1411.984	1062.451
298.847	15.959	1411.093	1061.598
299.862	16.006	1409.393	1060.521
300.876	15.897	1409.041	1059.476
301.891	15.967	1408.039	1059.073
302.906	15.998	1407.231	1058.564
303.920	15.971	1406.377	1057.660
304.935	15.927	1405.921	1056.948
305.949	16.110	1404.316	1056.794
306.964	16.166	1403.523	1056.454
307.979	16.125	1402.760	1055.532
308.993	16.152	1402.126	1055.128
310.008	16.153	1401.533	1054.593
311.022	16.155	1399.935	1053.308
312.037	16.260	1398.793	1053.012
313.052	16.287	1397.849	1052.376
314.066	16.160	1397.227	1051.027
315.081	16.180	1396.132	1050.231
316.095	16.216	1394.849	1049.400
317.110	16.218	1393.641	1048.410
318.125	16.170	1393.048	1047.572
319.139	16.207	1392.111	1047.007
320.154	16.314	1390.819	1046.605
321.168	16.193	1390.134	1045.245
322.183	16.150	1389.411	1044.347
323.197	16.160	1388.221	1043.417
324.212	16.291	1387.371	1043.498
325.227	16.262	1386.539	1042.599
326.241	16.323	1385.410	1042.037
327.256	16.348	1384.207	1041.192
328.270	16.338	1383.528	1040.525
329.285	16.334	1383.092	1040.082
330.300	16.320	1381.636	1038.812
331.314	16.312	1381.067	1038.240
332.329	16.335	1379.975	1037.468
333.343	16.342	1378.730	1036.485
334.358	16.342	1378.339	1036.100
335.373	16.483	1377.229	1036.038
336.387	16.500	1376.286	1035.340
337.402	16.426	1375.700	1034.355
338.416	16.418	1375.142	1033.797
339.431	16.499	1374.682	1033.856
340.446	16.512	1373.773	1033.156
341.460	16.396	1372.929	1031.722
342.475	16.550	1371.518	1031.508
343.489	16.618	1370.713	1031.230
344.504	16.656	1369.875	1030.736
345.519	16.627	1368.769	1029.641
346.533	16.770	1367.832	1029.711
347.548	16.696	1367.004	1028.547
348.562	16.694	1366.260	1027.884
349.577	16.791	1365.364	1027.709
350.592	16.836	1364.720	1027.407
351.606	16.729	1364.017	1026.139
352.621	16.686	1362.818	1024.886
353.635	16.699	1361.706	1024.037
354.650	16.719	1360.643	1023.267
355.665	16.660	1359.769	1022.160
356.679	16.768	1358.589	1021.839
357.694	16.792	1357.370	1020.972
358.708	16.797	1356.610	1020.344
359.723	16.857	1355.290	1019.620
360.738	16.833	1354.188	1018.553
361.752	16.804	1353.752	1017.961
362.767	16.870	1352.244	1017.137
363.781	16.897	1351.337	1016.527
364.796	16.975	1350.350	1016.157
365.810	16.920	1350.092	1015.545
366.825	16.967	1349.096	1014.992
367.840	16.992	1348.798	1014.827
368.854	16.948	1348.210	1014.030
369.869	17.047	1347.179	1013.755
370.883	16.929	1346.651	1012.564
371.898	17.113	1345.644	1012.812
372.913	17.002	1345.090	1011.647
373.927	17.023	1343.750	1010.673
374.942	17.134	1342.542	1010.336
375.956	17.094	1342.489	1009.967
376.971	17.140	1341.225	1009.199
377.986	17.203	1340.449	1008.904
379.000	17.106	1339.581	1007.587
380.015	17.161	1338.913	1007.317
381.029	17.177	1338.335	1006.891
382.044	17.243	1337.557	1006.605
383.059	17.264	1336.788	1006.066
384.073	17.266	1336.234	1005.569
385.088	17.352	1335.545	1005.470
386.102	17.340	1334.412	1004.458
387.117	17.328	1334.017	1003.999
388.132	17.380	1332.808	1003.307
389.146	17.341	1332.281	1002.594
390.161	17.328	1331.812	1002.075
391.175	17.290	1330.723	1000.942
392.190	17.258	1329.992	1000.115
393.205	17.342	1329.289	999.993
394.219	17.468	1327.775	999.509
395.234	17.454	1326.702	998.527
396.248	17.433	1325.344	997.292
397.263	17.367	1324.214	995.968
398.278	17.337	1322.575	994.474
399.292	17.407	1321.851	994.250
400.307	17.459	1320.880	993.733
401.321	17.471	1319.647	992.791
402.336	17.478	1318.290	991.724
403.350	17.431	1317.696	990.915
404.365	17.392	1316.936	990.026
405.380	17.404	1316.011	989.316
406.394	17.451	1315.317	988.975
407.409	17.543	1314.280	988.643
408.423	17.630	1313.389	988.390
409.438	17.653	1312.601	987.843
410.453	17.627	1312.185	987.291
411.467	17.662	1311.314	986.755
412.482	17.729	1310.891	986.735
413.496	17.665	1310.005	985.612
414.511	17.748	1309.443	985.580
415.526	17.771	1308.790	985.135
416.540	17.810	1307.826	984.547
417.555	17.816	1307.049	983.911
418.569	17.793	1306.502	983.281
419.584	17.837	1305.801	982.918
420.599	17.912	1305.171	982.789
421.613	98.505	1360.264	1482.291
422.628	96.922	1368.246	1482.368
