DTS Sentinel unit serial number:	SN413079Multiplexer serial number:	ORYXHardware model number:	OX4-SRSoftware version number:	ORYX F/W v4.00 Oryx Data Collector v3.7.2.0data status	okinstallation	princeton_trtdifferential loss correction	single-endedforward channel	channel 4reverse channel	N/Adate	2019/09/18time	19:45:35forward acquisition time	60.00reverse acquisition time	0.00gamma	496.2192k internal	0.2317k external	0.2317temperature offset calibration	1.0035default loss term (dB/km)	0.3790temperature slope calibration	1.0000multiplexer offset coefficient	1.0000multiplexer slope coefficient	1.0000fibre end	0.00T internal ref (°C)	31.53T ext. ref 1 (°C)	1.08T ext. ref 2 (°C)	22.11length (m)	temperature (°C)	Stokes	anti-Stokes-747.200	-200.000	0.008	0.141
-746.185	-200.000	-0.011	-0.228
-745.171	800.000	-0.105	-0.349
-744.156	191.811	0.148	0.225
-743.142	6.669	0.199	-0.150
-742.127	-29.216	-0.092	0.053
-741.112	-141.507	0.113	0.012
-740.098	479.270	-0.113	0.260
-739.083	-143.003	-0.114	-0.011
-738.069	800.000	0.035	-0.107
-737.054	753.808	-0.090	-0.245
-736.039	-132.272	0.193	0.025
-735.025	800.000	0.113	0.498
-734.010	-94.949	-0.412	-0.113
-732.996	199.756	-0.250	-0.389
-731.981	800.000	-0.078	-0.221
-730.966	-200.000	0.023	0.277
-729.952	-65.769	-0.390	-0.158
-728.937	800.000	-0.063	-0.191
-727.923	-63.788	-0.231	0.096
-726.908	-129.651	-0.233	0.032
-725.894	-129.759	-0.297	0.041
-724.879	270.950	0.094	-0.167
-723.864	800.000	0.025	0.111
-722.850	159.106	0.283	-0.398
-721.835	551.738	-0.095	-0.230
-720.821	-48.090	0.429	0.210
-719.806	278.350	0.073	-0.132
-718.791	282.633	-0.037	0.067
-717.777	407.791	0.209	0.446
-716.762	35.895	-0.268	0.239
-715.748	195.399	0.082	-0.127
-714.733	391.572	0.060	-0.126
-713.718	66.890	-0.149	-0.154
-712.704	-77.315	0.100	-0.035
-711.689	-200.000	0.083	-0.410
-710.675	-30.821	0.203	-0.116
-709.660	-192.481	-0.321	0.003
-708.645	800.000	-0.094	-0.335
-707.631	800.000	0.082	0.285
-706.616	117.702	-0.149	-0.186
-705.602	426.244	0.123	0.269
-704.587	-188.497	-0.139	0.002
-703.572	-51.258	0.298	-0.141
-702.558	120.022	-0.191	-0.239
-701.543	-113.196	0.199	0.040
-700.529	199.032	0.210	-0.326
-699.514	733.796	0.078	0.210
-698.499	-141.022	-0.260	-0.027
-697.485	720.144	0.026	0.071
-696.470	-141.813	-0.227	0.023
-695.456	-81.918	-0.220	0.073
-694.441	-76.128	0.276	-0.099
-693.426	-200.000	-0.019	0.103
-692.412	-200.000	0.023	-0.230
-691.397	18.688	0.265	-0.214
-690.383	-33.559	0.175	-0.098
-689.368	-48.342	0.360	-0.175
-688.354	173.219	-0.108	-0.158
-687.339	-155.667	-0.214	0.014
-686.324	-105.674	-0.188	0.043
-685.310	-2.186	0.034	-0.024
-684.295	269.270	0.151	0.267
-683.281	-200.000	0.041	0.203
-682.266	148.371	-0.056	-0.076
-681.251	800.000	-0.013	-0.041
-680.237	-200.000	-0.017	-0.121
-679.222	-55.962	-0.119	0.054
-678.208	59.976	0.119	0.119
-677.193	-55.065	0.181	-0.082
-676.178	-136.835	-0.257	-0.030
-675.164	800.000	-0.050	-0.150
-674.149	-90.952	-0.140	0.041
-673.135	800.000	0.033	-0.129
-672.120	-83.877	-0.359	0.116
-671.105	-92.954	0.270	0.076
-670.091	-200.000	0.049	-0.304
-669.076	14.845	-0.280	0.221
-668.062	-56.481	-0.216	-0.097
-667.047	21.250	-0.125	-0.103
-666.032	-151.958	0.115	-0.008
-665.018	-200.000	-0.039	-0.179
-664.003	800.000	0.118	-0.407
-662.989	149.716	-0.131	0.179
-661.974	-33.480	0.320	0.178
-660.959	-77.987	-0.089	-0.031
-659.945	-77.040	-0.179	0.063
-658.930	630.196	-0.049	0.126
-657.916	85.289	-0.070	-0.078
-656.901	55.810	-0.178	0.174
-655.886	800.000	0.084	-0.362
-654.872	574.048	-0.017	0.042
-653.857	-78.715	0.190	-0.066
-652.843	-16.727	0.245	0.157
-651.828	543.589	0.200	0.482
-650.814	-171.434	0.254	-0.009
-649.799	-133.288	0.147	-0.019
-648.784	800.000	-0.038	0.153
-647.770	-154.048	-0.117	0.008
-646.755	-200.000	0.038	-0.367
-645.741	17.873	0.184	-0.148
-644.726	-60.708	0.393	0.168
-643.711	-200.000	0.008	-0.293
-642.697	800.000	0.064	-0.204
-641.682	-162.888	0.146	-0.007
-640.668	201.732	0.065	0.102
-639.653	-200.000	0.008	-0.050
-638.638	25.109	0.182	0.152
-637.624	800.000	-0.058	-0.186
-636.609	112.127	0.193	0.235
-635.595	4.071	0.149	0.110
-634.580	461.396	-0.213	-0.480
-633.565	57.473	-0.157	-0.155
-632.551	28.699	-0.187	-0.160
-631.536	-11.560	-0.211	-0.140
-630.522	-159.338	-0.172	-0.010
-629.507	293.427	0.144	0.265
-628.492	142.244	-0.174	-0.233
-627.478	-23.366	-0.229	0.139
-626.463	-144.689	0.207	-0.019
-625.449	678.460	-0.132	-0.347
-624.434	39.545	0.158	0.143
-623.419	-49.908	-0.283	-0.135
-622.405	800.000	0.083	0.243
-621.390	204.919	0.078	-0.122
-620.376	219.832	-0.042	-0.068
-619.361	-200.000	-0.037	-0.400
-618.346	336.179	0.167	-0.327
-617.332	-92.157	-0.156	-0.044
-616.317	-64.333	-0.316	0.130
-615.303	413.411	-0.134	-0.287
-614.288	-67.084	0.421	0.167
-613.273	-71.329	0.329	0.124
-612.259	-107.595	0.199	-0.044
-611.244	-200.000	-0.017	0.205
-610.230	-200.000	0.038	-0.309
-609.215	45.031	0.057	0.053
-608.201	-29.388	-0.108	0.062
-607.186	800.000	-0.090	0.299
-606.171	-200.000	0.002	0.145
-605.157	800.000	0.069	0.266
-604.142	-11.588	0.277	-0.183
-603.128	-3.537	0.184	0.129
-602.113	-145.294	-0.210	-0.019
-601.098	299.301	0.181	-0.336
-600.084	-200.000	0.029	0.348
-599.069	575.120	-0.026	0.064
-598.055	-200.000	0.098	0.459
-597.040	-159.294	0.040	-0.002
-596.025	55.732	0.066	-0.064
-595.011	147.036	-0.243	0.328
-593.996	-103.183	-0.166	0.040
-592.982	509.135	-0.040	0.093
-591.967	800.000	0.042	0.151
-590.952	38.066	-0.219	0.196
-589.938	-94.277	-0.123	-0.034
-588.923	-54.865	0.246	-0.112
-587.909	-19.617	-0.224	0.140
-586.894	201.955	-0.048	-0.075
-585.879	-182.754	-0.282	-0.005
-584.865	38.880	-0.125	-0.112
-583.850	-16.280	0.123	0.079
-582.836	5.291	0.097	-0.072
-581.821	-121.417	0.148	-0.025
-580.806	49.579	-0.252	0.239
-579.792	-13.803	0.142	-0.092
-578.777	800.000	0.123	-0.374
-577.763	43.320	0.186	0.171
-576.748	-200.000	-0.024	0.502
-575.733	-110.987	0.035	0.007
-574.719	-34.972	-0.275	0.151
-573.704	-169.486	0.180	-0.007
-572.690	-186.676	0.302	0.004
-571.675	-91.294	0.031	-0.009
-570.661	105.102	0.080	0.095
-569.646	-84.788	0.246	0.078
-568.631	-38.445	-0.119	-0.063
-567.617	-147.974	-0.313	0.026
-566.602	-200.000	-0.002	0.181
-565.588	-46.159	-0.273	-0.135
-564.573	234.274	0.080	0.133
-563.558	21.979	0.111	0.091
-562.544	451.902	0.065	0.143
-561.529	-189.949	0.125	-0.001
-560.515	-21.504	-0.023	0.014
-559.500	91.794	-0.075	-0.085
-558.485	800.000	0.036	-0.131
-557.471	800.000	0.093	0.322
-556.456	800.000	0.199	-0.604
-555.442	-130.754	-0.148	-0.020
-554.427	-105.387	0.338	-0.077
-553.412	-200.000	0.075	0.397
-552.398	-79.291	-0.285	-0.097
-551.383	800.000	0.036	-0.129
-550.369	73.063	-0.232	0.244
-549.354	315.825	0.067	-0.128
-548.339	-200.000	0.061	-0.295
-547.325	-59.125	-0.191	0.083
-546.310	-80.503	0.054	0.018
-545.296	271.981	-0.024	0.042
-544.281	-5.502	-0.429	-0.296
-543.266	-6.784	0.040	0.028
-542.252	-68.792	-0.107	-0.042
-541.237	-72.509	-0.092	-0.034
-540.223	-51.672	-0.158	0.074
-539.208	-134.849	-0.282	-0.034
-538.193	34.938	-0.138	0.121
-537.179	-87.981	-0.392	-0.118
-536.164	-83.006	-0.158	-0.051
-535.150	-136.922	-0.146	0.017
-534.135	120.319	-0.233	-0.290
-533.121	-200.000	0.022	0.141
-532.106	42.437	-0.129	0.118
-531.091	328.998	-0.046	-0.088
-530.077	-200.000	0.016	-0.127
-529.062	45.349	-0.133	-0.123
-528.048	171.353	-0.223	-0.321
-527.033	-161.314	0.064	-0.003
-526.018	110.785	-0.077	0.093
-525.004	100.774	0.134	-0.156
-523.989	-22.742	0.202	-0.123
-522.975	-162.572	0.413	-0.020
-521.960	-25.699	-0.115	0.068
-520.945	-97.624	-0.239	0.062
-519.931	45.224	-0.218	0.201
-518.916	-2.410	-0.193	-0.136
-517.902	760.026	-0.158	0.430
-516.887	-200.000	-0.056	0.363
-515.872	61.038	0.297	0.295
-514.858	-3.571	-0.318	0.222
-513.843	-28.098	0.182	-0.105
-512.829	-75.546	0.204	-0.073
-511.814	-19.979	-0.244	0.151
-510.799	12.992	-0.217	0.169
-509.785	263.075	-0.141	0.246
-508.770	-82.170	-0.298	-0.098
-507.756	6.392	-0.236	0.176
-506.741	200.546	0.193	-0.297
-505.726	-25.288	-0.293	0.174
-504.712	800.000	0.080	-0.259
-503.697	-37.382	0.200	0.107
-502.683	-188.335	-0.112	-0.001
-501.668	-47.458	-0.209	-0.102
-500.653	-28.786	-0.298	0.172
-499.639	-58.497	-0.204	0.089
-498.624	800.000	0.030	0.125
-497.610	-200.000	0.033	0.392
-496.595	-54.327	0.213	0.097
-495.581	-129.942	0.263	0.036
-494.566	800.000	0.062	-0.172
-493.551	161.093	0.076	-0.106
-492.537	49.985	0.299	0.283
-491.522	182.407	-0.136	0.201
-490.508	-200.000	-0.011	-0.202
-489.493	-128.289	-0.248	0.035
-488.478	69.874	0.163	0.168
-487.464	77.206	0.127	0.135
-486.449	-143.201	0.187	-0.018
-485.435	-27.279	0.008	-0.004
-484.420	182.119	-0.028	0.041
-483.405	800.000	-0.077	0.241
-482.391	-188.918	0.117	-0.001
-481.376	-132.616	0.151	0.019
-480.362	122.270	-0.222	0.278
-479.347	72.915	-0.132	0.138
-478.332	477.682	0.114	0.259
-477.318	-200.000	0.036	0.238
-476.303	-200.000	0.006	0.071
-475.289	-37.301	0.144	0.077
-474.274	12.866	0.078	0.061
-473.259	-132.929	0.429	0.055
-472.245	-25.797	0.280	-0.166
-471.230	-44.023	0.379	0.191
-470.216	274.346	0.060	0.107
-469.201	-106.472	0.283	0.063
-468.186	800.000	0.056	-0.228
-467.172	49.258	0.067	-0.064
-466.157	-200.000	0.017	-0.183
-465.143	-27.804	-0.171	0.100
-464.128	-111.955	-0.434	-0.088
-463.113	409.962	-0.062	0.132
-462.099	-41.174	-0.232	0.120
-461.084	126.931	-0.198	-0.252
-460.070	-18.023	0.137	-0.086
-459.055	172.483	-0.105	-0.151
-458.040	-175.869	-0.108	0.003
-457.026	-68.483	-0.279	-0.108
-456.011	263.570	0.033	-0.058
-454.997	333.502	0.056	-0.109
-453.982	-52.087	0.175	-0.082
-452.968	-19.618	0.149	0.092
-451.953	-75.817	-0.274	0.097
-450.938	800.000	0.034	0.125
-449.924	371.470	0.080	-0.162
-448.909	-60.946	-0.528	0.224
-447.895	165.097	-0.147	0.208
-446.880	236.596	-0.245	0.406
-445.865	800.000	0.077	-0.254
-444.851	33.456	0.067	0.058
-443.836	-47.610	0.128	0.062
-442.822	514.502	-0.038	0.089
-441.807	181.981	-0.092	0.136
-440.792	-115.638	-0.276	-0.052
-439.778	160.348	-0.143	0.200
-438.763	800.000	0.138	0.382
-437.749	-200.000	-0.007	0.177
-436.734	-68.636	0.319	0.123
-435.719	235.747	0.040	0.065
-434.705	-200.000	0.047	-0.236
-433.690	-89.200	0.124	-0.037
-432.676	-81.429	0.077	0.025
-431.661	-200.000	0.031	0.284
-430.646	-86.745	0.112	-0.034
-429.632	-59.919	0.351	-0.150
-428.617	15.923	-0.139	0.109
-427.603	-188.200	-0.380	-0.005
-426.588	-29.809	0.165	-0.094
-425.573	39.536	-0.100	-0.090
-424.559	-145.426	0.432	0.039
-423.544	-200.000	0.041	0.201
-422.530	-193.489	0.220	0.002
-421.515	342.955	0.040	-0.078
-420.500	-127.560	-0.175	0.025
-419.486	-196.544	-0.186	0.001
-418.471	261.853	0.020	0.035
-417.457	-130.878	0.152	-0.020
-416.442	78.004	-0.138	0.147
-415.428	7.284	-0.051	0.038
-414.413	279.295	-0.071	-0.127
-413.398	-12.232	0.162	-0.106
-412.384	-43.698	0.233	-0.118
-411.369	-82.693	0.458	0.148
-410.355	-20.009	-0.253	-0.156
-409.340	-42.726	-0.093	0.047
-408.325	38.716	0.132	-0.118
-407.311	-114.020	-0.256	-0.050
-406.296	272.051	0.106	0.187
-405.282	-16.301	-0.376	-0.238
-404.267	342.632	0.031	-0.060
-403.252	394.143	-0.076	0.157
-402.238	187.071	-0.045	-0.067
-401.223	50.436	0.195	0.184
-400.209	-129.515	-0.317	-0.044
-399.194	-111.529	-0.486	-0.099
-398.179	-200.000	0.024	-0.111
-397.165	-60.496	-0.194	0.082
-396.150	800.000	-0.051	0.148
-395.136	0.884	-0.132	0.094
-394.121	221.107	0.131	-0.210
-393.106	-107.406	0.228	-0.050
-392.092	-88.225	-0.286	-0.086
-391.077	-200.000	0.013	0.076
-390.063	120.534	-0.197	0.244
-389.048	455.458	0.055	-0.121
-388.033	-59.287	0.113	0.049
-387.019	-200.000	0.086	0.395
-386.004	50.004	0.101	-0.095
-384.990	24.508	0.261	0.215
-383.975	-68.339	0.334	0.129
-382.960	-181.378	0.056	0.001
-381.946	-121.728	-0.222	0.037
-380.931	-200.000	0.009	0.183
-379.917	-28.130	-0.217	0.125
-378.902	-200.000	-0.009	-0.066
-377.888	30.715	0.154	-0.132
-376.873	-71.067	0.144	0.054
-375.858	420.278	0.022	-0.048
-374.844	10.484	-0.326	0.248
-373.829	-97.812	0.091	0.023
-372.815	529.648	0.086	0.203
-371.800	175.319	0.143	0.207
-370.785	-137.220	0.138	0.016
-369.771	504.555	0.131	-0.302
-368.756	-200.000	0.005	-0.117
-367.742	-63.751	-0.154	0.063
-366.727	49.573	-0.130	-0.122
-365.712	171.068	0.095	-0.135
-364.698	-200.000	-0.053	-0.408
-363.683	-69.520	0.087	0.033
-362.669	-200.000	0.010	0.138
-361.654	-89.171	0.107	-0.032
-360.639	-177.873	0.308	-0.007
-359.625	-8.021	-0.204	0.137
-358.610	-22.632	0.026	-0.016
-357.596	-67.732	-0.277	-0.108
-356.581	-110.656	-0.232	-0.048
-355.566	800.000	-0.118	-0.352
-354.552	-200.000	-0.014	-0.099
-353.537	-4.883	0.167	-0.115
-352.523	17.057	0.186	-0.147
-351.508	116.932	-0.104	-0.127
-350.493	-200.000	0.011	0.084
-349.479	-200.000	0.038	-0.338
-348.464	-54.028	0.084	-0.038
-347.450	-162.790	0.018	0.001
-346.435	-141.361	-0.354	0.036
-345.420	-200.000	-0.025	0.294
-344.406	-120.467	-0.517	0.088
-343.391	-76.168	-0.353	-0.124
-342.377	44.458	-0.164	0.150
-341.362	-23.846	-0.153	-0.092
-340.348	-200.000	-0.011	0.054
-339.333	-53.942	-0.160	-0.072
-338.318	-52.399	-0.041	-0.019
-337.304	-57.883	-0.229	0.100
-336.289	-126.327	-0.176	0.026
-335.275	-84.943	-0.358	-0.112
-334.260	375.234	-0.189	0.383
-333.245	800.000	-0.093	0.262
-332.231	332.725	-0.060	-0.116
-331.216	-35.137	0.099	0.054
-330.202	-200.000	-0.003	0.073
-329.187	-200.000	-0.017	-0.092
-328.172	696.659	0.048	0.124
-327.158	32.512	0.073	0.063
-326.143	-60.291	0.359	-0.152
-325.129	800.000	0.035	-0.098
-324.114	227.117	0.154	0.249
-323.099	800.000	-0.097	0.405
-322.085	115.064	0.206	-0.250
-321.070	800.000	0.135	-0.377
-320.056	-200.000	0.015	-0.198
-319.041	800.000	-0.040	0.138
-318.026	-51.991	0.373	-0.173
-317.012	-34.511	-0.151	0.082
-315.997	-61.913	-0.169	-0.070
-314.983	238.510	0.078	0.130
-313.968	-200.000	-0.073	-0.472
-312.953	800.000	0.072	-0.236
-311.939	-27.173	0.062	0.036
-310.924	-113.242	0.251	-0.049
-309.910	-42.968	0.241	-0.122
-308.895	-43.598	-0.244	-0.123
-307.880	-200.000	0.053	-0.355
-306.866	-5.321	-0.037	-0.025
-305.851	-183.960	0.137	0.002
-304.837	210.726	0.195	0.305
-303.822	37.400	0.083	0.073
-302.807	-31.932	-0.138	0.077
-301.793	-170.652	-0.464	-0.016
-300.778	218.616	-0.106	-0.169
-299.764	-117.966	0.231	0.041
-298.749	-48.702	0.074	0.035
-297.735	630.432	0.097	0.245
-296.720	-38.968	-0.274	-0.144
-295.705	-19.169	0.254	0.157
-294.691	310.293	0.117	0.218
-293.676	-90.811	-0.203	-0.058
-292.662	800.000	-0.027	0.101
-291.647	-6.041	-0.378	0.257
-290.632	-9.634	0.322	-0.214
-289.618	-98.975	-0.231	-0.058
-288.603	-19.351	0.088	0.054
-287.589	164.090	0.202	-0.283
-286.574	800.000	-0.059	-0.200
-285.559	-33.053	-0.021	0.011
-284.545	-200.000	0.037	-0.307
-283.530	-54.699	0.064	-0.029
-282.516	-200.000	0.075	0.335
-281.501	-59.301	0.156	-0.067
-280.486	-200.000	0.039	-0.186
-279.472	-101.916	-0.270	-0.065
-278.457	-54.113	0.064	-0.029
-277.443	-74.837	-0.209	-0.075
-276.428	-200.000	-0.006	-0.215
-275.413	93.401	0.160	-0.181
-274.399	-141.111	0.200	0.020
-273.384	-84.654	0.348	0.109
-272.370	432.219	0.149	-0.321
-271.355	54.632	-0.125	0.120
-270.340	-200.000	0.025	-0.390
-269.326	69.514	-0.418	-0.428
-268.311	-143.889	0.404	0.038
-267.297	-100.666	-0.273	-0.067
-266.282	32.774	-0.170	-0.146
-265.267	-200.000	-0.076	0.000
-264.253	-112.444	0.182	-0.036
-263.238	-200.000	0.033	-0.169
-262.224	800.000	0.051	-0.185
-261.209	101.367	0.097	0.113
-260.195	-3.066	-0.307	0.213
-259.180	-161.439	0.320	-0.016
-258.165	800.000	0.045	-0.155
-257.151	-98.020	-0.382	-0.098
-256.136	40.719	0.171	-0.153
-255.122	-25.998	-0.246	-0.144
-254.107	124.894	0.232	0.291
-253.092	-200.000	0.004	-0.077
-252.078	157.467	0.187	0.258
-251.063	196.674	0.236	0.357
-250.049	800.000	-0.044	0.183
-249.034	-28.726	-0.085	0.048
-248.019	92.438	0.112	0.125
-247.005	-200.000	-0.083	-0.453
-245.990	800.000	-0.079	0.253
-244.976	92.836	-0.177	-0.199
-243.961	584.154	0.165	-0.402
-242.946	-91.643	0.361	0.102
-241.932	-15.444	-0.172	-0.109
-240.917	-48.297	-0.099	-0.047
-239.903	-68.410	0.283	-0.109
-238.888	217.109	-0.131	-0.207
-237.873	190.363	0.056	-0.083
-236.859	-124.687	0.203	-0.031
-235.844	-50.202	-0.200	-0.094
-234.830	431.751	0.025	0.054
-233.815	109.258	0.119	0.141
-232.800	-151.448	-0.142	0.010
-231.786	58.244	0.194	-0.188
-230.771	-13.031	-0.160	0.103
-229.757	-200.000	0.026	-0.130
-228.742	800.000	-0.039	0.108
-227.727	-122.501	0.124	0.020
-226.713	87.552	0.181	-0.199
-225.698	800.000	0.035	-0.102
-224.684	340.716	-0.152	0.295
-223.669	800.000	-0.055	-0.195
-222.655	-192.599	0.266	0.002
-221.640	-200.000	-0.003	0.169
-220.625	-200.000	0.006	0.174
-219.611	-10.557	-0.111	-0.073
-218.596	-107.085	0.283	0.062
-217.582	115.399	0.195	-0.236
-216.567	-77.000	-0.022	0.008
-215.552	42.564	-0.101	-0.091
-214.538	-200.000	0.012	0.382
-213.523	416.366	0.036	0.077
-212.509	205.961	0.049	-0.075
-211.494	544.923	0.041	0.098
-210.479	-200.000	-0.040	-0.292
-209.465	52.561	0.349	0.330
-208.450	-59.186	0.283	0.121
-207.436	-52.358	-0.110	0.050
-206.421	800.000	0.047	-0.142
-205.406	-157.883	0.179	0.011
-204.392	-104.013	-0.263	-0.061
-203.377	800.000	-0.063	0.241
-202.363	358.694	-0.065	-0.129
-201.348	46.391	-0.353	0.325
-200.333	-154.604	0.190	0.013
-199.319	-200.000	0.002	-0.387
-198.304	-49.389	-0.032	0.015
-197.290	74.862	0.155	-0.162
-196.275	-200.000	-0.018	-0.134
-195.260	69.963	-0.176	0.180
-194.246	-48.119	-0.127	-0.061
-193.231	-170.649	0.125	0.004
-192.217	261.783	0.144	-0.247
-191.202	51.449	0.255	0.240
-190.187	-200.000	0.009	0.236
-189.173	-200.000	-0.001	-0.139
-188.158	160.639	-0.069	0.095
-187.144	-43.429	-0.185	0.092
-186.129	-200.000	-0.001	0.069
-185.114	-200.000	0.019	-0.203
-184.100	69.103	0.050	-0.051
-183.085	-136.617	0.313	0.036
-182.071	463.088	-0.106	-0.235
-181.056	-21.733	-0.072	0.044
-180.042	224.835	0.190	-0.305
-179.027	473.621	0.208	-0.464
-178.012	181.048	-0.177	-0.257
-176.998	-80.392	0.151	-0.050
-175.983	587.209	0.110	-0.268
-174.969	283.701	-0.066	-0.117
-173.954	-200.000	0.033	0.251
-172.939	-143.540	0.207	0.020
-171.925	-163.524	0.043	0.002
-170.910	-139.609	0.114	0.012
-169.896	-200.000	-0.044	-0.204
-168.881	-200.000	0.040	0.189
-167.866	-200.000	0.108	0.000
-166.852	-108.069	0.120	-0.026
-165.837	153.276	-0.140	-0.190
-164.823	-200.000	-0.066	0.303
-163.808	118.236	0.133	0.162
-162.793	800.000	-0.084	0.246
-161.779	-3.271	0.076	0.053
-160.764	381.692	0.223	-0.454
-159.750	602.111	0.067	0.164
-158.735	-1.833	-0.042	-0.029
-157.720	-89.570	-0.185	-0.054
-156.706	800.000	-0.065	-0.245
-155.691	-23.836	0.326	0.193
-154.677	-27.180	-0.204	0.118
-153.662	410.359	-0.057	0.119
-152.647	-15.618	0.125	-0.079
-151.633	266.556	0.149	-0.258
-150.618	-32.075	0.075	-0.041
-149.604	-200.000	-0.035	0.161
-148.589	-200.000	-0.037	-0.224
-147.574	427.172	0.126	-0.269
-146.560	9.697	-0.527	0.395
-145.545	-69.323	-0.192	0.073
-144.531	754.101	0.081	0.218
-143.516	-7.438	0.429	-0.287
-142.502	-130.533	0.043	0.006
-141.487	-93.411	0.370	0.101
-140.472	-65.405	-0.201	0.080
-139.458	-113.116	0.462	0.090
-138.443	143.141	-0.027	-0.035
-137.429	-91.098	0.337	-0.096
-136.414	-171.217	0.099	-0.003
-135.399	194.311	-0.133	-0.199
-134.385	800.000	0.041	0.171
-133.370	234.372	-0.051	0.083
-132.356	90.989	0.207	-0.229
-131.341	204.022	-0.068	-0.104
-130.326	-164.681	0.150	-0.007
-129.312	800.000	-0.055	0.163
-128.297	17.676	-0.412	-0.324
-127.283	-61.749	0.228	0.094
-126.268	-7.168	0.095	0.064
-125.253	-135.304	0.184	-0.022
-124.239	-144.332	0.148	0.014
-123.224	-59.625	0.208	-0.088
-122.210	169.741	-0.139	-0.196
-121.195	9.994	0.203	0.153
-120.180	2.155	-0.202	0.144
-119.166	-200.000	0.033	0.212
-118.151	410.317	0.095	0.199
-117.137	-50.696	-0.114	0.053
-116.122	128.465	0.127	-0.160
-115.107	-200.000	-0.004	-0.093
-114.093	-200.000	-0.022	-0.157
-113.078	432.787	0.090	0.193
-112.064	394.165	-0.130	0.267
-111.049	98.371	-0.151	0.172
-110.034	-200.000	-0.020	0.200
-109.020	32.311	-0.029	0.025
-108.005	-200.000	-0.041	0.300
-106.991	39.537	-0.308	0.272
-105.976	111.154	-0.017	-0.020
-104.962	-69.515	0.052	0.020
-103.947	-31.602	-0.068	0.038
-102.932	-200.000	0.026	0.151
-101.918	-82.005	-0.050	-0.016
-100.903	-120.779	-0.146	-0.024
-99.889	-110.086	0.340	-0.070
-98.874	52.902	-0.147	-0.138
-97.859	-159.621	-0.304	0.017
-96.845	-200.000	-0.037	-0.213
-95.830	-150.408	-0.213	-0.016
-94.816	50.523	-0.300	-0.280
-93.801	-171.271	0.053	0.002
-92.786	45.063	0.147	0.134
-91.772	-100.401	0.428	0.105
-90.757	-50.226	0.254	-0.119
-89.743	104.729	0.122	-0.142
-88.728	-43.580	-0.309	0.154
-87.713	1.275	-0.246	0.174
-86.699	-200.000	-0.022	0.348
-85.684	800.000	0.109	-0.345
-84.670	296.162	-0.169	-0.306
-83.655	-200.000	0.010	0.141
-82.640	278.216	-0.093	-0.164
-81.626	640.508	-0.053	0.134
-80.611	703.057	-0.086	-0.224
-79.597	758.599	0.081	0.216
-78.582	-88.562	-0.103	-0.030
-77.567	-84.310	-0.138	-0.043
-76.553	-13.272	-0.081	0.052
-75.538	110.125	-0.159	-0.188
-74.524	52.081	0.170	0.160
-73.509	-166.309	0.307	0.013
-72.494	510.654	0.064	0.148
-71.480	-85.137	-0.243	-0.075
-70.465	-200.000	0.397	-0.001
-69.451	-49.951	-0.236	0.111
-68.436	-62.005	0.285	0.118
-67.422	-200.000	0.035	0.266
-66.407	60.756	-0.119	0.117
-65.392	-91.292	0.390	0.110
-64.378	800.000	0.065	0.252
-63.363	-115.620	0.155	0.029
-62.349	483.599	0.050	-0.112
-61.334	89.776	-0.926	-1.020
-60.319	15.200	0.471	0.364
-59.305	800.000	-0.281	-1.153
-58.290	118.475	0.836	1.017
-57.276	800.000	0.643	1.790
-56.261	-200.000	105.360	606.249
-55.246	474.317	1463.821	3254.563
-54.232	147.005	2652.585	3516.026
-53.217	101.065	2318.164	2657.927
-52.203	38.232	2071.022	1817.019
-51.188	33.435	1986.704	1700.051
-50.173	31.808	1969.759	1670.990
-49.159	47.656	2023.559	1860.246
-48.144	48.688	2041.343	1885.844
-47.130	33.876	2000.631	1715.676
-46.115	31.553	1989.934	1685.543
-45.100	31.426	1987.650	1682.395
-44.086	31.402	1984.861	1679.754
-43.071	31.439	1982.683	1678.178
-42.057	31.382	1980.575	1675.811
-41.042	31.423	1978.352	1674.233
-40.027	31.440	1976.336	1672.610
-39.013	31.455	1974.537	1671.159
-37.998	31.496	1973.117	1670.254
-36.984	31.498	1971.447	1668.796
-35.969	31.463	1969.474	1666.743
-34.954	31.504	1967.875	1665.688
-33.940	31.563	1966.103	1664.654
-32.925	31.508	1964.768	1662.967
-31.911	31.581	1962.482	1661.608
-30.896	31.588	1961.031	1660.382
-29.881	31.566	1959.681	1658.972
-28.867	31.554	1958.113	1657.477
-27.852	31.561	1956.544	1656.141
-26.838	31.580	1954.867	1654.830
-25.823	31.549	1952.792	1652.730
-24.809	31.615	1950.570	1651.365
-23.794	31.538	1949.643	1649.837
-22.779	31.523	1947.392	1647.738
-21.765	31.562	1945.963	1646.803
-20.750	31.638	1944.201	1645.913
-19.736	31.502	1942.811	1643.480
-18.721	31.591	1940.830	1642.516
-17.706	31.534	1939.599	1640.913
-16.692	31.532	1937.689	1639.212
-15.677	31.572	1935.883	1637.970
-14.663	31.549	1934.576	1636.602
-13.648	31.548	1933.353	1635.492
-12.633	31.536	1932.053	1634.223
-11.619	31.520	1930.637	1632.821
-10.604	31.551	1929.305	1631.895
-9.590	31.486	1927.823	1630.010
-8.575	31.583	1926.222	1629.441
-7.560	31.465	1925.091	1627.389
-6.546	31.546	1923.559	1626.738
-5.531	31.444	1922.657	1625.018
-4.517	31.534	1921.378	1624.657
-3.502	31.471	1920.085	1622.953
-2.487	31.514	1918.882	1622.246
-1.473	31.477	1918.129	1621.224
-0.458	31.551	1913.004	1617.470
0.556	29.689	1891.580	1580.304
1.571	23.964	1867.708	1511.729
2.586	18.512	1886.106	1479.567
3.600	16.937	1919.735	1491.967
4.615	16.629	1914.179	1484.819
5.629	13.305	1817.429	1381.911
6.644	5.982	1701.747	1236.353
7.659	1.585	1664.886	1175.540
8.673	1.128	1662.060	1169.913
9.688	1.146	1660.629	1168.939
10.702	1.046	1659.290	1167.125
11.717	0.980	1655.901	1164.134
12.731	1.447	1654.846	1166.871
13.746	6.766	1666.623	1216.125
14.761	14.215	1680.862	1284.075
15.775	17.549	1685.870	1313.550
16.790	17.640	1684.527	1313.086
17.804	16.780	1681.274	1303.817
18.819	15.782	1678.278	1293.705
19.834	15.155	1675.946	1286.979
20.848	14.925	1674.257	1283.806
21.863	14.697	1672.544	1280.628
22.877	14.405	1671.201	1277.248
23.892	14.166	1669.693	1274.155
24.907	14.068	1667.855	1271.890
25.921	14.039	1667.397	1271.205
26.936	13.993	1666.775	1270.269
27.950	14.004	1665.746	1269.451
28.965	14.121	1665.138	1269.775
29.980	14.068	1665.149	1269.261
30.994	14.232	1663.371	1269.048
32.009	14.181	1662.514	1267.892
33.023	14.220	1661.856	1267.576
34.038	14.255	1660.981	1267.061
35.053	14.244	1659.535	1265.762
36.067	14.165	1658.780	1264.472
37.082	14.184	1657.531	1263.557
38.096	14.196	1656.310	1262.599
39.111	14.185	1655.886	1262.086
40.126	14.236	1655.152	1261.801
41.140	14.082	1654.747	1260.210
42.155	14.108	1653.123	1259.058
43.169	14.055	1651.571	1257.363
44.184	14.061	1650.034	1256.129
45.199	13.973	1649.118	1254.661
46.213	14.015	1648.244	1254.201
47.228	13.954	1647.485	1253.048
48.242	14.033	1645.730	1252.198
49.257	14.173	1644.172	1251.959
50.271	14.057	1643.438	1250.414
51.286	14.139	1642.092	1249.895
52.301	14.121	1640.373	1248.344
53.315	14.089	1639.150	1247.058
54.330	14.146	1637.867	1246.404
55.344	13.989	1636.362	1243.972
56.359	14.021	1634.891	1242.984
57.374	14.019	1633.218	1241.586
58.388	14.115	1632.154	1241.380
59.403	14.103	1631.214	1240.468
60.417	14.065	1629.722	1238.938
61.432	13.956	1628.381	1237.003
62.447	13.987	1627.685	1236.594
63.461	13.960	1626.407	1235.310
64.476	13.937	1625.174	1234.098
65.490	13.971	1623.889	1233.260
66.505	13.957	1622.588	1232.063
67.520	13.871	1621.676	1230.625
68.534	13.964	1620.894	1230.605
69.549	14.032	1619.533	1229.972
70.563	14.101	1617.590	1228.896
71.578	13.984	1617.308	1227.708
72.593	13.992	1616.001	1226.665
73.607	13.955	1615.004	1225.526
74.622	13.912	1613.920	1224.280
75.636	13.908	1612.763	1223.264
76.651	13.892	1612.040	1222.492
77.666	13.904	1611.376	1221.962
78.680	13.949	1610.048	1221.183
79.695	13.886	1609.104	1219.893
80.709	13.986	1608.099	1219.762
81.724	13.931	1607.360	1218.688
82.739	13.942	1606.525	1218.029
83.753	14.079	1605.417	1218.084
84.768	14.056	1604.227	1216.903
85.782	14.125	1603.256	1216.564
86.797	14.065	1603.093	1215.897
87.812	14.204	1601.827	1215.840
88.826	14.110	1600.357	1213.932
89.841	14.063	1599.300	1212.677
90.855	14.104	1597.512	1211.513
91.870	14.121	1597.293	1211.369
92.884	14.092	1596.220	1210.232
93.899	14.180	1595.248	1210.032
94.914	14.170	1593.758	1208.723
95.928	14.079	1593.165	1207.503
96.943	14.160	1591.731	1206.897
97.957	14.238	1590.103	1206.124
98.972	14.187	1588.539	1204.456
99.987	14.118	1586.700	1202.460
101.001	14.200	1584.968	1201.633
102.016	14.189	1583.444	1200.290
103.030	14.072	1582.784	1198.844
104.045	14.143	1581.092	1197.967
105.060	14.154	1579.904	1197.040
106.074	14.055	1578.864	1195.431
107.089	14.072	1576.776	1193.866
108.103	14.068	1575.478	1192.752
109.118	14.034	1574.323	1191.526
110.133	14.014	1572.491	1189.895
111.147	14.043	1571.568	1189.295
112.162	14.011	1570.355	1188.043
113.176	14.007	1568.181	1186.262
114.191	14.036	1567.353	1185.740
115.206	14.069	1566.002	1184.852
116.220	14.097	1564.777	1184.019
117.235	14.050	1563.706	1182.768
118.249	14.025	1562.075	1181.252
119.264	14.007	1561.382	1180.494
120.279	14.115	1559.530	1179.759
121.293	14.075	1558.146	1178.325
122.308	14.101	1556.662	1177.283
123.322	14.073	1555.215	1175.883
124.337	14.080	1553.657	1174.654
125.352	14.058	1552.551	1173.558
126.366	14.175	1551.076	1173.163
127.381	14.045	1550.222	1171.496
128.395	14.028	1549.694	1170.874
129.410	14.052	1548.073	1169.717
130.424	14.014	1546.812	1168.388
131.439	14.089	1545.145	1167.553
132.454	14.091	1544.014	1166.613
133.468	14.081	1542.603	1165.373
134.483	14.068	1540.913	1163.902
135.497	14.170	1539.386	1163.358
136.512	14.125	1538.191	1162.036
137.527	14.122	1536.968	1160.987
138.541	14.212	1535.326	1160.273
139.556	14.210	1534.132	1159.256
140.570	14.158	1533.407	1158.241
141.585	14.270	1531.354	1157.370
142.600	14.260	1530.203	1156.326
143.614	14.197	1529.315	1155.117
144.629	14.440	1527.485	1155.314
145.643	14.389	1526.329	1153.986
146.658	14.418	1525.024	1153.098
147.673	14.289	1523.689	1151.096
148.687	14.322	1522.292	1150.169
149.702	14.216	1521.045	1148.388
150.716	14.325	1518.712	1147.275
151.731	14.292	1517.535	1146.060
152.746	14.193	1516.810	1144.729
153.760	14.244	1514.995	1143.607
154.775	14.276	1514.174	1143.106
155.789	14.271	1512.677	1141.845
156.804	14.333	1511.536	1141.308
157.819	14.463	1509.628	1140.650
158.833	14.418	1508.732	1139.569
159.848	14.532	1507.620	1139.408
160.862	14.439	1506.657	1137.941
161.877	14.442	1505.127	1136.707
162.892	14.472	1504.368	1136.235
163.906	14.456	1503.003	1135.000
164.921	14.443	1501.608	1133.757
165.935	14.401	1500.747	1132.718
166.950	14.358	1500.345	1132.019
167.964	14.412	1498.728	1131.069
168.979	14.444	1497.514	1130.269
169.994	14.496	1496.669	1129.882
171.008	14.404	1495.929	1128.604
172.023	14.490	1494.125	1127.724
173.037	14.488	1494.069	1127.571
174.052	14.596	1492.486	1127.006
175.067	14.578	1491.071	1125.713
176.081	14.562	1490.021	1124.716
177.096	14.527	1488.476	1123.212
178.110	14.482	1487.253	1121.884
179.125	14.498	1486.569	1121.377
180.140	14.525	1484.723	1120.066
181.154	14.604	1483.824	1119.824
182.169	14.569	1482.924	1118.809
183.183	14.593	1481.405	1117.722
184.198	14.603	1480.753	1117.198
185.213	14.631	1479.826	1116.589
186.227	14.695	1478.329	1115.789
187.242	14.650	1477.600	1114.839
188.256	14.697	1476.555	1114.267
189.271	14.784	1474.986	1113.562
190.286	14.770	1474.391	1112.922
191.300	14.682	1473.113	1111.274
192.315	14.551	1472.050	1109.505
193.329	14.487	1471.102	1108.264
194.344	14.598	1469.364	1107.592
195.359	14.685	1468.537	1107.450
196.373	14.640	1467.992	1106.645
197.388	14.762	1466.749	1106.417
198.402	14.765	1465.627	1105.492
199.417	14.808	1464.542	1104.855
200.432	14.850	1463.287	1104.094
201.446	14.813	1462.715	1103.318
202.461	14.932	1461.480	1103.073
203.475	14.887	1460.357	1101.831
204.490	14.918	1459.393	1101.212
205.504	14.943	1458.476	1100.586
206.519	14.879	1456.945	1098.915
207.534	14.946	1455.787	1098.383
208.548	14.983	1454.506	1097.564
209.563	14.937	1453.488	1096.395
210.577	14.907	1452.538	1095.387
211.592	14.919	1451.758	1094.780
212.607	14.997	1451.005	1094.622
213.621	15.049	1450.638	1094.592
214.636	15.169	1449.121	1094.132
215.650	15.057	1448.530	1092.860
216.665	14.999	1447.699	1091.755
217.680	14.991	1446.976	1091.063
218.694	15.146	1445.701	1091.015
219.709	15.203	1444.849	1090.644
220.723	15.170	1444.083	1089.758
221.738	15.143	1443.156	1088.786
222.753	15.035	1442.506	1087.495
223.767	15.171	1441.104	1087.226
224.782	15.141	1440.017	1086.111
225.796	15.128	1439.297	1085.389
226.811	15.233	1438.744	1085.559
227.826	15.221	1437.739	1084.627
228.840	15.187	1436.892	1083.674
229.855	15.221	1436.086	1083.187
230.869	15.220	1435.217	1082.432
231.884	15.227	1434.073	1081.514
232.899	15.321	1432.549	1080.877
233.913	15.295	1431.625	1079.917
234.928	15.192	1430.758	1078.501
235.942	15.222	1429.381	1077.564
236.957	15.240	1428.090	1076.611
237.972	15.262	1427.048	1075.872
238.986	15.208	1425.906	1074.569
240.001	15.238	1425.171	1074.114
241.015	15.292	1424.031	1073.503
242.030	15.282	1422.754	1072.380
243.045	15.363	1421.844	1072.116
244.059	15.355	1420.806	1071.191
245.074	15.330	1420.611	1070.788
246.088	15.317	1419.721	1069.941
247.103	15.439	1418.724	1069.872
248.117	15.445	1418.201	1069.422
249.132	15.554	1416.929	1069.063
250.147	15.596	1416.227	1068.704
251.161	15.586	1415.870	1068.279
252.176	15.656	1414.787	1067.808
253.190	15.638	1414.098	1067.082
254.205	15.732	1413.176	1066.889
255.220	15.759	1412.463	1066.427
256.234	15.729	1411.593	1065.482
257.249	15.730	1410.749	1064.759
258.263	15.799	1409.940	1064.489
259.278	15.820	1408.817	1063.679
260.293	15.822	1408.225	1063.155
261.307	15.763	1407.457	1062.109
262.322	15.792	1406.422	1061.417
263.336	15.895	1405.705	1061.427
264.351	15.805	1404.981	1060.221
265.366	15.853	1404.230	1059.861
266.380	16.011	1403.002	1059.836
267.395	15.946	1401.539	1058.230
268.409	15.969	1400.763	1057.697
269.424	15.911	1400.230	1056.833
270.439	15.881	1399.022	1055.641
271.453	15.948	1397.999	1055.197
272.468	16.004	1397.097	1054.771
273.482	15.937	1395.981	1053.419
274.497	15.943	1395.773	1053.204
275.512	15.968	1394.725	1052.478
276.526	15.981	1393.683	1051.675
277.541	15.985	1392.787	1050.931
278.555	16.010	1391.743	1050.209
279.570	16.042	1391.073	1049.812
280.585	15.959	1390.519	1048.781
281.599	16.031	1389.658	1048.486
282.614	16.179	1388.469	1048.418
283.628	16.073	1387.286	1046.771
284.643	16.134	1386.342	1046.345
285.657	16.082	1385.601	1045.370
286.672	16.171	1383.962	1044.595
287.687	16.157	1383.585	1044.132
288.701	16.091	1382.848	1043.073
289.716	16.169	1381.707	1042.604
290.730	16.179	1380.834	1041.914
291.745	16.281	1379.746	1041.629
292.760	16.225	1379.064	1040.678
293.774	16.175	1377.767	1039.301
294.789	16.301	1376.388	1038.943
295.803	16.344	1376.515	1039.213
296.818	16.421	1375.185	1038.589
297.833	16.261	1374.337	1036.875
298.847	16.334	1373.687	1036.737
299.862	16.338	1372.310	1035.635
300.876	16.352	1371.423	1034.957
301.891	16.343	1370.508	1034.120
302.906	16.439	1369.581	1033.914
303.920	16.448	1368.672	1033.193
304.935	16.359	1368.071	1032.105
305.949	16.450	1367.559	1032.182
306.964	16.535	1366.492	1031.807
307.979	16.600	1365.457	1031.330
308.993	16.500	1364.967	1030.256
310.008	16.501	1363.850	1029.330
311.022	16.565	1362.958	1028.955
312.037	16.638	1361.784	1028.422
313.052	16.658	1360.715	1027.641
314.066	16.570	1360.081	1026.541
315.081	16.520	1358.599	1025.029
316.095	16.555	1357.617	1024.405
317.110	16.648	1356.583	1024.101
318.125	16.555	1355.848	1022.895
319.139	16.699	1354.732	1022.832
320.154	16.724	1353.651	1022.077
321.168	16.574	1353.097	1020.661
322.183	16.636	1352.195	1020.262
323.197	16.620	1351.286	1019.390
324.212	16.634	1350.175	1018.549
325.227	16.725	1349.564	1018.543
326.241	16.672	1348.681	1017.468
327.256	16.707	1347.935	1017.026
328.270	16.708	1347.072	1016.287
329.285	16.733	1346.207	1015.695
330.300	16.735	1345.213	1014.869
331.314	16.751	1344.029	1013.980
332.329	16.744	1343.166	1013.198
333.343	16.687	1342.514	1012.275
334.358	16.812	1341.392	1012.091
335.373	16.776	1341.333	1011.741
336.387	16.794	1340.179	1010.885
337.402	16.858	1339.066	1010.342
338.416	16.846	1338.487	1009.741
339.431	16.845	1338.544	1009.691
340.446	16.873	1337.464	1008.955
341.460	16.909	1336.346	1008.231
342.475	16.971	1335.239	1007.678
343.489	17.013	1334.585	1007.344
344.504	17.162	1333.071	1006.995
345.519	17.035	1332.536	1005.749
346.533	17.032	1331.689	1005.003
347.548	17.117	1330.997	1004.896
348.562	17.101	1329.928	1003.904
349.577	17.163	1329.276	1003.691
350.592	17.037	1328.920	1002.591
351.606	17.161	1327.616	1002.248
352.621	17.106	1326.595	1001.062
353.635	17.100	1325.460	1000.087
354.650	17.004	1324.998	999.081
355.665	17.061	1323.853	998.463
356.679	17.096	1323.049	997.974
357.694	17.062	1322.001	996.895
358.708	17.116	1320.485	995.985
359.723	17.197	1319.118	995.335
360.738	17.139	1318.680	994.578
361.752	17.130	1317.793	993.772
362.767	17.346	1316.172	993.721
363.781	17.214	1315.871	992.635
364.796	17.302	1314.525	992.044
365.810	17.245	1313.896	991.150
366.825	17.323	1313.376	991.128
367.840	17.401	1312.626	990.927
368.854	17.330	1312.117	990.044
369.869	17.395	1311.376	989.771
370.883	17.486	1310.701	989.707
371.898	17.399	1310.115	988.669
372.913	17.513	1308.827	988.271
373.927	17.437	1307.959	987.091
374.942	17.486	1307.240	986.742
375.956	17.458	1306.755	986.125
376.971	17.495	1305.861	985.580
377.986	17.569	1305.120	985.360
379.000	17.432	1304.263	983.833
380.015	17.474	1303.622	983.507
381.029	17.474	1303.008	982.955
382.044	17.639	1301.684	982.821
383.059	17.639	1301.346	982.477
384.073	17.696	1300.802	982.311
385.088	17.621	1300.047	981.220
386.102	17.583	1299.572	980.559
387.117	17.657	1298.739	980.265
388.132	17.756	1297.707	979.972
389.146	17.719	1296.756	978.955
390.161	17.764	1295.753	978.368
391.175	17.791	1294.725	977.660
392.190	17.705	1294.309	976.765
393.205	17.784	1293.697	976.672
394.219	17.817	1292.711	976.031
395.234	17.821	1291.173	974.805
396.248	17.770	1290.366	973.815
397.263	17.791	1288.884	972.732
398.278	17.774	1287.378	971.411
399.292	17.822	1286.461	970.908
400.307	17.883	1285.187	970.208
401.321	17.820	1284.534	969.272
402.336	17.779	1283.846	968.432
403.350	17.788	1282.616	967.473
404.365	17.783	1281.931	966.838
405.380	17.853	1280.833	966.325
406.394	17.909	1280.240	966.105
407.409	17.988	1279.153	965.650
408.423	17.834	1278.802	964.427
409.438	17.933	1277.983	964.283
410.453	18.024	1277.299	964.195
411.467	18.081	1276.626	963.924
412.482	18.093	1275.977	963.414
413.496	18.090	1275.237	962.754
414.511	18.067	1275.006	962.365
415.526	18.079	1274.011	961.599
416.540	18.265	1273.111	961.881
417.555	18.256	1272.071	960.957
418.569	18.272	1271.615	960.615
419.584	18.177	1271.423	959.853
420.599	18.196	1270.796	959.405
421.613	97.310	1351.714	1468.037
422.628	94.974	1363.465	1468.134
