DTS Sentinel unit serial number:	SN413079Multiplexer serial number:	ORYXHardware model number:	OX4-SRSoftware version number:	ORYX F/W v4.00 Oryx Data Collector v3.7.2.0data status	okinstallation	princeton_trtdifferential loss correction	single-endedforward channel	channel 4reverse channel	N/Adate	2019/09/16time	07:09:34forward acquisition time	60.00reverse acquisition time	0.00gamma	496.2192k internal	0.2320k external	0.2320temperature offset calibration	0.9983default loss term (dB/km)	0.3790temperature slope calibration	1.0000multiplexer offset coefficient	1.0000multiplexer slope coefficient	1.0000fibre end	0.00T internal ref (°C)	27.37T ext. ref 1 (°C)	11.53T ext. ref 2 (°C)	21.94length (m)	temperature (°C)	Stokes	anti-Stokes-747.200	105.522	-0.182	-0.218
-746.185	192.527	-0.141	-0.215
-745.171	-3.673	-0.294	-0.206
-744.156	45.812	0.126	0.118
-743.142	800.000	-0.119	-0.343
-742.127	153.460	-0.319	0.442
-741.112	-200.000	-0.027	0.161
-740.098	160.141	0.214	0.302
-739.083	-153.091	-0.233	-0.017
-738.069	631.710	-0.027	0.069
-737.054	-108.289	-0.141	0.031
-736.039	800.000	-0.066	0.258
-735.025	-200.000	0.030	0.161
-734.010	800.000	0.132	0.443
-732.996	-49.536	0.303	-0.146
-731.981	70.922	0.090	0.095
-730.966	800.000	-0.049	0.202
-729.952	120.547	-0.095	-0.120
-728.937	-200.000	-0.005	-0.345
-727.923	-200.000	0.007	-0.060
-726.908	219.010	0.096	0.156
-725.894	-200.000	-0.025	-0.140
-724.879	104.171	-0.141	-0.168
-723.864	-64.972	0.070	0.029
-722.850	-60.463	-0.313	0.134
-721.835	800.000	0.102	0.307
-720.821	15.833	0.076	-0.061
-719.806	211.248	-0.113	-0.179
-718.791	238.572	-0.010	0.017
-717.777	800.000	-0.074	0.287
-716.762	-200.000	0.000	-0.031
-715.748	-200.000	0.026	0.118
-714.733	-200.000	-0.060	-0.284
-713.718	190.522	0.089	-0.136
-712.704	87.664	-0.103	0.115
-711.689	150.005	-0.086	-0.117
-710.675	-135.050	-0.171	-0.021
-709.660	23.344	-0.207	0.172
-708.645	12.951	-0.182	-0.142
-707.631	91.187	-0.155	-0.176
-706.616	-200.000	-0.016	-0.070
-705.602	9.893	-0.419	0.321
-704.587	-21.111	-0.182	0.113
-703.572	33.559	0.006	-0.005
-702.558	138.762	0.161	-0.213
-701.543	-92.463	-0.177	0.050
-700.529	-72.490	-0.325	0.121
-699.514	60.559	-0.213	0.213
-698.499	-65.986	0.229	0.092
-697.485	-13.559	0.263	0.172
-696.470	-160.734	0.375	0.020
-695.456	-176.885	-0.417	0.011
-694.441	48.956	-0.088	-0.083
-693.426	-69.145	-0.230	0.089
-692.412	320.701	-0.144	-0.275
-691.397	-41.079	0.310	0.161
-690.383	-82.135	-0.279	-0.092
-689.368	-92.177	0.270	0.077
-688.354	-200.000	-0.036	0.201
-687.339	-104.064	-0.184	-0.043
-686.324	-50.174	-0.305	-0.146
-685.310	-69.650	0.143	-0.055
-684.295	-200.000	-0.029	-0.208
-683.281	-200.000	-0.011	-0.135
-682.266	-200.000	-0.053	-0.266
-681.251	-194.981	0.014	0.000
-680.237	57.566	-0.120	0.119
-679.222	59.155	-0.055	-0.054
-678.208	800.000	-0.066	-0.202
-677.193	800.000	-0.072	0.253
-676.178	800.000	0.121	0.386
-675.164	800.000	-0.043	0.141
-674.149	5.793	0.351	0.262
-673.135	260.887	0.095	-0.165
-672.120	-143.871	-0.103	0.010
-671.105	-60.604	-0.296	0.127
-670.091	800.000	0.020	0.062
-669.076	560.474	-0.012	0.029
-668.062	-200.000	-0.017	0.205
-667.047	-200.000	0.007	0.068
-666.032	-119.621	-0.086	0.015
-665.018	-200.000	-0.046	0.319
-664.003	-15.991	-0.148	-0.095
-662.989	-44.909	0.282	-0.141
-661.974	-200.000	0.006	0.073
-660.959	800.000	0.014	-0.060
-659.945	230.861	-0.113	-0.187
-658.930	-101.541	0.411	-0.101
-657.916	638.500	-0.196	-0.503
-656.901	14.441	0.202	0.159
-655.886	-200.000	0.008	-0.065
-654.872	-13.252	-0.168	-0.110
-653.857	-45.546	-0.257	-0.128
-652.843	133.129	-0.154	0.200
-651.828	54.574	0.195	0.189
-650.814	-67.876	0.156	-0.062
-649.799	-106.071	0.248	-0.056
-648.784	-200.000	-0.043	0.225
-647.770	-200.000	-0.012	0.368
-646.755	-200.000	-0.013	0.326
-645.741	-101.582	-0.155	-0.038
-644.726	800.000	0.112	-0.378
-643.711	428.136	0.042	0.090
-642.697	229.291	0.123	0.203
-641.682	203.253	-0.169	0.264
-640.668	51.928	0.021	-0.020
-639.653	-81.954	0.247	0.081
-638.638	313.170	0.014	-0.026
-637.624	23.988	-0.156	-0.130
-636.609	-60.285	0.084	0.036
-635.595	-200.000	0.009	0.386
-634.580	7.505	-0.280	0.211
-633.565	-1.653	0.126	-0.089
-632.551	371.180	-0.064	-0.132
-631.536	42.887	-0.125	0.115
-630.522	470.288	-0.114	-0.257
-629.507	-38.387	-0.304	-0.162
-628.492	219.104	-0.105	0.169
-627.478	800.000	-0.016	-0.055
-626.463	513.157	-0.017	0.041
-625.449	-17.453	-0.289	-0.183
-624.434	317.532	-0.087	-0.166
-623.419	132.095	-0.086	0.111
-622.405	-24.405	-0.291	-0.175
-621.390	393.304	0.092	-0.193
-620.376	-200.000	-0.018	-0.125
-619.361	800.000	-0.078	-0.223
-618.346	-24.627	0.171	0.102
-617.332	136.733	-0.047	-0.061
-616.317	-26.231	0.067	0.040
-615.303	93.122	-0.043	-0.049
-614.288	70.968	0.086	0.090
-613.273	-96.873	-0.308	-0.081
-612.259	135.146	0.124	0.162
-611.244	113.435	0.148	0.181
-610.230	394.787	-0.056	-0.117
-609.215	-159.010	0.166	-0.009
-608.201	-126.387	0.397	-0.059
-607.186	-93.599	-0.206	-0.057
-606.171	474.842	-0.066	-0.150
-605.157	154.578	0.118	0.163
-604.142	-70.498	0.175	0.067
-603.128	442.681	-0.115	-0.252
-602.113	-200.000	0.006	-0.226
-601.098	-79.136	0.263	-0.090
-600.084	-54.113	0.316	-0.145
-599.069	-112.629	-0.080	0.016
-598.055	-40.636	0.161	0.084
-597.040	7.933	0.101	-0.076
-596.025	-200.000	-0.055	0.375
-595.011	-61.022	-0.359	-0.153
-593.996	480.651	0.135	0.308
-592.982	32.302	-0.197	-0.171
-591.967	-82.834	0.174	-0.057
-590.952	209.665	0.069	-0.109
-589.938	-91.529	0.164	0.047
-588.923	-106.696	-0.144	-0.032
-587.909	135.237	0.036	-0.047
-586.894	28.784	-0.220	-0.188
-585.879	11.261	-0.068	0.052
-584.865	-114.396	-0.202	0.039
-583.850	-200.000	0.012	-0.167
-582.836	74.264	-0.120	-0.127
-581.821	-200.000	-0.006	-0.056
-580.806	-66.558	0.060	0.024
-579.792	800.000	-0.030	-0.092
-578.777	-100.022	-0.355	0.089
-577.763	-56.362	0.259	0.115
-576.748	800.000	0.119	0.435
-575.733	-170.577	0.418	-0.015
-574.719	698.356	-0.044	-0.117
-573.704	-93.090	-0.116	0.032
-572.690	-35.568	-0.178	-0.097
-571.675	191.666	-0.216	-0.327
-570.661	800.000	-0.060	-0.211
-569.646	-102.228	-0.227	-0.055
-568.631	800.000	-0.090	-0.302
-567.617	150.911	-0.174	0.238
-566.602	278.338	0.163	0.292
-565.588	16.890	0.248	-0.197
-564.573	-200.000	0.002	-0.251
-563.558	-200.000	-0.053	0.270
-562.544	-77.200	0.209	-0.073
-561.529	-143.869	0.269	0.025
-560.515	-161.566	-0.031	-0.002
-559.500	274.661	-0.088	0.156
-558.485	437.847	-0.064	-0.141
-557.471	-200.000	-0.012	0.159
-556.456	541.807	-0.139	-0.332
-555.442	-153.240	-0.026	-0.002
-554.427	103.755	0.184	-0.217
-553.412	200.245	-0.090	0.139
-552.398	-50.105	0.345	-0.164
-551.383	-143.262	-0.268	-0.026
-550.369	80.714	-0.265	0.287
-549.354	-46.071	0.169	0.084
-548.339	730.505	0.035	0.095
-547.325	-68.951	-0.374	0.145
-546.310	268.988	0.096	-0.169
-545.296	151.888	-0.078	0.106
-544.281	-200.000	-0.040	0.201
-543.266	-200.000	0.003	0.262
-542.252	-160.104	0.186	0.010
-541.237	671.644	0.028	0.072
-540.223	-95.605	0.034	0.009
-539.208	-125.939	0.088	-0.013
-538.193	-22.076	-0.314	-0.191
-537.179	800.000	0.084	-0.365
-536.164	454.996	0.164	-0.364
-535.150	-56.435	-0.573	-0.255
-534.135	-187.052	0.416	-0.006
-533.121	-200.000	0.019	-0.199
-532.106	-143.480	0.162	-0.016
-531.091	800.000	-0.053	-0.217
-530.077	-6.840	0.123	0.084
-529.062	-145.341	-0.131	-0.012
-528.048	-10.384	0.140	0.093
-527.033	-200.000	-0.056	-0.329
-526.018	156.390	-0.061	-0.085
-525.004	22.416	0.086	-0.071
-523.989	-7.692	-0.128	0.087
-522.975	-200.000	-0.005	0.102
-521.960	-48.969	0.122	0.058
-520.945	-163.670	-0.122	0.006
-519.931	-30.061	-0.265	0.151
-518.916	-200.000	-0.030	0.173
-517.902	-157.707	0.111	-0.007
-516.887	-79.581	-0.338	-0.114
-515.872	-200.000	-0.046	-0.301
-514.858	-200.000	0.017	0.249
-513.843	-40.598	-0.118	0.062
-512.829	23.551	0.228	0.188
-511.814	-63.980	0.195	-0.080
-510.799	77.453	-0.218	-0.232
-509.785	267.148	-0.139	0.243
-508.770	308.460	0.021	0.039
-507.756	163.650	-0.097	0.136
-506.741	54.893	-0.173	0.167
-505.726	496.904	0.106	0.245
-504.712	103.011	-0.165	-0.194
-503.697	-36.352	0.082	-0.044
-502.683	-31.002	0.271	-0.153
-501.668	-142.067	-0.270	0.027
-500.653	20.554	0.058	-0.047
-499.639	205.757	0.069	-0.107
-498.624	-45.355	-0.295	-0.147
-497.610	-24.840	0.200	-0.119
-496.595	466.494	-0.165	-0.371
-495.581	-135.313	-0.183	0.022
-494.566	800.000	-0.107	0.401
-493.551	-91.919	-0.317	0.090
-492.537	34.661	-0.077	-0.067
-491.522	800.000	-0.080	0.281
-490.508	-153.328	0.313	-0.022
-489.493	-200.000	0.049	-0.269
-488.478	-30.000	0.102	0.058
-487.464	31.202	0.133	0.115
-486.449	800.000	-0.028	-0.123
-485.435	-200.000	0.014	0.147
-484.420	-174.594	-0.321	0.009
-483.405	53.183	-0.070	0.067
-482.391	800.000	-0.055	0.182
-481.376	-175.619	0.437	-0.012
-480.362	-74.369	-0.344	-0.124
-479.347	-105.202	-0.074	0.017
-478.332	92.453	-0.088	-0.099
-477.318	800.000	0.031	0.109
-476.303	-182.477	0.288	0.005
-475.289	-121.082	-0.307	0.051
-474.274	270.710	0.160	0.282
-473.259	-170.249	0.161	0.006
-472.245	136.208	0.186	0.243
-471.230	22.693	-0.194	-0.159
-470.216	153.889	0.154	-0.211
-469.201	-97.893	-0.169	-0.044
-468.186	-200.000	0.002	0.042
-467.172	-64.618	0.149	-0.061
-466.157	70.799	0.213	-0.221
-465.143	84.539	-0.056	-0.061
-464.128	58.258	-0.009	0.009
-463.113	173.354	0.054	0.077
-462.099	-40.170	-0.226	-0.118
-461.084	373.111	0.047	-0.095
-460.070	800.000	-0.095	-0.370
-459.055	-83.015	0.152	-0.049
-458.040	-8.078	-0.097	0.066
-457.026	48.697	-0.047	0.044
-456.011	114.633	0.131	0.160
-454.997	259.791	-0.073	0.126
-453.982	-93.521	0.300	-0.083
-452.968	-86.525	-0.172	-0.053
-451.953	-124.659	-0.079	-0.012
-450.938	17.542	0.274	-0.218
-449.924	-91.119	0.093	-0.027
-448.909	800.000	-0.039	0.153
-447.895	408.036	0.013	-0.028
-446.880	633.481	-0.087	0.219
-445.865	-195.316	0.383	-0.003
-444.851	14.751	0.145	-0.113
-443.836	-200.000	-0.007	0.071
-442.822	-200.000	0.020	-0.113
-441.807	88.131	-0.084	-0.093
-440.792	29.057	0.124	0.105
-439.778	364.711	0.140	0.282
-438.763	-200.000	0.014	-0.282
-437.749	-163.480	-0.344	-0.016
-436.734	3.047	-0.221	-0.161
-435.719	800.000	-0.053	-0.153
-434.705	702.098	0.016	0.041
-433.690	-18.224	0.163	0.102
-432.676	-64.712	0.223	-0.090
-431.661	-41.099	0.105	0.054
-430.646	253.485	-0.114	-0.195
-429.632	-200.000	-0.011	-0.229
-428.617	-15.020	-0.126	0.081
-427.603	-2.595	-0.302	0.211
-426.588	-81.266	-0.195	-0.064
-425.573	-22.586	-0.276	-0.167
-424.559	87.767	0.280	0.310
-423.544	277.257	-0.131	0.232
-422.530	-67.636	0.046	-0.018
-421.515	100.079	-0.141	0.163
-420.500	780.265	-0.116	-0.317
-419.486	534.200	-0.162	-0.383
-418.471	-45.533	0.209	0.103
-417.457	55.151	-0.081	0.078
-416.442	246.003	-0.138	0.232
-415.428	127.193	0.211	0.267
-414.413	-200.000	0.016	0.102
-413.398	-200.000	0.010	0.051
-412.384	800.000	-0.047	0.169
-411.369	800.000	0.142	-0.406
-410.355	-4.822	0.283	-0.195
-409.340	71.245	-0.208	-0.215
-408.325	-19.615	0.436	-0.269
-407.311	-10.144	0.194	-0.129
-406.296	-183.790	0.137	-0.002
-405.282	112.545	0.099	-0.120
-404.267	-200.000	0.064	-0.316
-403.252	130.497	0.038	0.049
-402.238	-117.973	-0.222	-0.040
-401.223	-39.455	-0.231	0.121
-400.209	-68.944	-0.249	0.096
-399.194	24.987	-0.265	0.219
-398.179	-68.195	0.166	0.065
-397.165	-3.066	0.232	0.161
-396.150	-38.537	0.162	0.085
-395.136	-58.774	0.221	-0.096
-394.121	275.772	-0.140	0.248
-393.106	160.936	-0.075	0.105
-392.092	-200.000	0.056	0.405
-391.077	-41.200	-0.299	0.154
-390.063	-200.000	-0.019	-0.154
-389.048	-30.707	-0.280	0.158
-388.033	-200.000	0.006	-0.358
-387.019	800.000	-0.037	-0.152
-386.004	114.657	-0.122	-0.149
-384.990	62.010	0.267	-0.265
-383.975	-138.225	-0.081	0.009
-382.960	620.835	0.145	0.364
-381.946	89.110	-0.087	-0.097
-380.931	718.754	0.084	0.222
-379.917	-200.000	-0.059	-0.303
-378.902	-71.901	0.094	-0.035
-377.888	-40.826	-0.336	-0.173
-376.873	-128.099	-0.142	0.020
-375.858	-9.766	0.057	0.038
-374.844	-200.000	-0.009	0.224
-373.829	18.793	0.195	0.156
-372.815	-200.000	-0.031	-0.236
-371.800	-61.857	-0.182	0.076
-370.785	-93.901	0.118	0.032
-369.771	-200.000	-0.056	0.314
-368.756	-15.948	0.176	0.112
-367.742	-14.182	-0.211	0.136
-366.727	-38.332	0.224	0.118
-365.712	-66.798	0.339	-0.134
-364.698	-200.000	0.015	0.229
-363.683	-200.000	-0.006	-0.101
-362.669	48.515	-0.123	0.115
-361.654	-200.000	0.019	0.101
-360.639	726.933	0.096	-0.254
-359.625	-129.343	-0.227	-0.031
-358.610	173.219	-0.241	0.346
-357.596	-200.000	0.028	-0.211
-356.581	-146.401	-0.038	-0.003
-355.566	-95.228	0.157	-0.042
-354.552	-173.919	-0.102	-0.003
-353.537	-165.570	0.109	-0.005
-352.523	410.218	0.054	0.115
-351.508	800.000	0.133	0.403
-350.493	-36.421	0.221	0.119
-349.479	-133.922	0.070	-0.009
-348.464	168.132	0.167	0.237
-347.450	271.237	0.121	-0.212
-346.435	800.000	-0.074	0.254
-345.420	445.787	0.156	-0.341
-344.406	-90.583	-0.069	0.020
-343.391	25.217	0.237	0.196
-342.377	-200.000	-0.040	0.208
-341.362	-118.007	-0.354	-0.063
-340.348	800.000	-0.083	-0.269
-339.333	152.019	-0.107	0.145
-338.318	-200.000	0.053	0.363
-337.304	-200.000	0.006	0.298
-336.289	-140.072	0.152	-0.016
-335.275	-73.297	0.098	-0.036
-334.260	800.000	-0.050	-0.178
-333.245	-171.790	0.188	0.006
-332.231	-33.226	0.096	-0.053
-331.216	-163.573	0.272	0.013
-330.202	-45.012	0.243	0.120
-329.187	638.699	-0.092	-0.233
-328.172	-143.516	-0.411	-0.039
-327.158	524.625	-0.143	-0.334
-326.143	46.344	0.116	-0.107
-325.129	35.956	0.082	0.072
-324.114	437.225	-0.060	0.130
-323.099	-200.000	-0.043	0.251
-322.085	-64.379	-0.185	0.075
-321.070	159.546	-0.120	0.167
-320.056	253.715	0.088	0.149
-319.041	179.288	-0.111	-0.162
-318.026	-200.000	-0.004	-0.166
-317.012	-37.959	-0.007	-0.004
-315.997	-97.559	-0.204	0.053
-314.983	314.348	0.198	-0.371
-313.968	-68.661	-0.183	-0.070
-312.953	-4.145	0.140	0.097
-311.939	-200.000	0.015	0.163
-310.924	18.013	0.278	-0.220
-309.910	206.937	-0.252	0.391
-308.895	-35.329	-0.258	0.140
-307.880	549.542	0.058	-0.138
-306.866	-45.256	-0.143	0.071
-305.851	-65.916	0.060	0.024
-304.837	-151.374	-0.053	-0.004
-303.822	-36.397	0.126	0.068
-302.807	146.437	0.276	0.369
-301.793	-200.000	0.043	0.196
-300.778	-200.000	0.048	0.316
-299.764	-200.000	-0.010	-0.091
-298.749	595.985	-0.173	0.424
-297.735	587.286	-0.137	-0.335
-296.720	800.000	0.059	-0.186
-295.705	-76.036	0.154	-0.054
-294.691	-112.585	0.142	-0.028
-293.676	-89.813	-0.134	0.039
-292.662	-200.000	-0.092	-0.401
-291.647	217.621	0.133	-0.211
-290.632	-200.000	0.061	0.340
-289.618	86.433	-0.087	0.095
-288.603	-200.000	0.039	0.276
-287.589	-43.752	-0.107	0.053
-286.574	-21.737	0.235	0.142
-285.559	452.765	0.061	-0.134
-284.545	-1.014	-0.087	0.061
-283.530	132.856	0.244	-0.312
-282.516	-106.526	0.227	0.050
-281.501	30.596	-0.175	-0.149
-280.486	-200.000	0.028	0.313
-279.472	-49.790	-0.182	-0.086
-278.457	-131.871	-0.223	0.029
-277.443	-144.665	0.095	0.009
-276.428	114.186	0.032	-0.038
-275.413	58.034	0.045	0.043
-274.399	-20.003	0.381	0.233
-273.384	-200.000	0.042	0.250
-272.370	178.241	-0.055	-0.080
-271.355	-119.311	0.171	-0.030
-270.340	258.534	0.107	-0.183
-269.326	434.476	0.052	-0.112
-268.311	800.000	-0.093	0.360
-267.297	-132.162	0.445	0.057
-266.282	800.000	0.092	-0.268
-265.267	-147.175	0.198	-0.017
-264.253	440.598	-0.040	-0.087
-263.238	-58.607	0.044	-0.019
-262.224	171.199	-0.148	0.211
-261.209	-120.560	0.285	0.048
-260.195	800.000	0.005	0.014
-259.180	800.000	0.054	0.166
-258.165	-66.125	0.086	0.034
-257.151	28.178	-0.175	-0.146
-256.136	133.736	-0.177	0.227
-255.122	28.556	0.109	0.092
-254.107	654.743	0.064	0.163
-253.092	493.563	0.082	-0.188
-252.078	-18.058	-0.311	0.193
-251.063	380.799	-0.082	-0.167
-250.049	184.841	0.101	0.148
-249.034	-20.376	-0.013	-0.008
-248.019	-200.000	-0.027	-0.237
-247.005	-4.901	0.305	0.208
-245.990	800.000	0.052	-0.196
-244.976	800.000	0.054	0.165
-243.961	800.000	-0.095	0.349
-242.946	-200.000	-0.065	0.307
-241.932	23.461	0.063	0.052
-240.917	800.000	-0.048	-0.171
-239.903	800.000	-0.084	0.331
-238.888	800.000	0.065	-0.280
-237.873	640.559	-0.116	-0.294
-236.859	58.349	-0.100	-0.097
-235.844	-200.000	-0.008	-0.182
-234.830	-44.869	-0.080	-0.039
-233.815	252.898	-0.082	0.139
-232.800	-92.584	0.146	0.041
-231.786	761.897	0.049	-0.133
-230.771	139.595	0.189	0.246
-229.757	-143.288	-0.039	0.004
-228.742	66.887	0.108	0.109
-227.727	69.041	0.082	0.083
-226.713	-5.243	-0.268	-0.183
-225.698	102.117	-0.160	0.185
-224.684	-200.000	0.001	0.114
-223.669	41.379	0.242	-0.217
-222.655	-38.539	0.217	0.114
-221.640	336.599	0.108	-0.208
-220.625	-8.982	-0.270	0.179
-219.611	-200.000	-0.031	-0.182
-218.596	800.000	0.022	0.092
-217.582	-200.000	0.016	-0.207
-216.567	-31.539	0.248	-0.138
-215.552	-3.463	0.347	-0.239
-214.538	-117.354	0.234	0.042
-213.523	-102.550	-0.423	0.100
-212.509	-200.000	-0.050	-0.327
-211.494	115.309	0.021	0.025
-210.479	463.115	-0.083	0.183
-209.465	-32.126	-0.354	-0.196
-208.450	-78.236	0.185	-0.063
-207.436	-118.244	-0.107	-0.019
-206.421	438.976	0.030	0.065
-205.406	-147.666	0.261	-0.022
-204.392	-109.798	-0.362	-0.075
-203.377	-200.000	0.021	-0.135
-202.363	-88.029	0.073	-0.022
-201.348	27.117	-0.138	0.115
-200.333	37.223	0.231	0.203
-199.319	-27.351	0.272	-0.157
-198.304	-200.000	-0.034	-0.298
-197.290	205.496	-0.111	0.171
-196.275	-52.207	-0.178	-0.082
-195.260	-200.000	0.011	0.100
-194.246	209.959	-0.148	-0.229
-193.231	-182.002	0.216	0.004
-192.217	-200.000	0.015	-0.458
-191.202	-126.608	0.235	-0.034
-190.187	0.942	-0.333	-0.236
-189.173	-133.052	-0.435	-0.055
-188.158	-200.000	0.035	0.383
-187.144	-154.084	-0.254	0.017
-186.129	54.799	-0.236	0.226
-185.114	5.965	0.207	0.152
-184.100	-120.683	0.128	0.021
-183.085	800.000	-0.148	0.413
-182.071	197.005	-0.180	-0.271
-181.056	-200.000	0.034	-0.237
-180.042	767.416	-0.017	-0.047
-179.027	-56.126	-0.229	0.101
-178.012	214.882	0.259	-0.405
-176.998	226.840	0.040	-0.065
-175.983	115.805	-0.167	0.202
-174.969	-97.010	-0.227	0.059
-173.954	466.022	0.054	0.119
-172.939	167.960	-0.115	0.162
-171.925	-172.132	0.206	-0.007
-170.910	-146.467	0.130	-0.011
-169.896	69.651	-0.252	0.256
-168.881	9.354	0.027	-0.020
-167.866	524.431	0.115	-0.268
-166.852	407.907	-0.041	-0.085
-165.837	-103.644	-0.343	-0.080
-164.823	-200.000	0.014	-0.228
-163.808	355.717	0.123	-0.242
-162.793	58.463	-0.116	0.113
-161.779	105.457	0.126	0.147
-160.764	-141.552	0.326	0.033
-159.750	45.131	-0.414	-0.377
-158.735	-10.515	0.288	0.189
-157.720	-200.000	0.315	-0.001
-156.706	53.988	0.112	0.107
-155.691	-8.025	-0.124	-0.082
-154.677	203.670	0.026	0.039
-153.662	507.799	0.079	-0.181
-152.647	-60.792	0.211	-0.088
-151.633	-200.000	-0.001	0.011
-150.618	-192.792	0.110	-0.001
-149.604	800.000	-0.049	0.138
-148.589	-200.000	-0.036	0.312
-147.574	-200.000	0.034	0.220
-146.560	-200.000	-0.001	-0.013
-145.545	41.077	0.128	-0.114
-144.531	-10.927	0.287	0.187
-143.516	-41.437	-0.277	0.141
-142.502	-176.014	-0.149	0.004
-141.487	85.196	-0.090	0.098
-140.472	-112.277	0.096	-0.019
-139.458	133.742	0.010	-0.013
-138.443	-177.955	0.225	-0.005
-137.429	-200.000	0.004	0.175
-136.414	80.957	0.161	0.172
-135.399	-13.287	-0.453	0.290
-134.385	-200.000	-0.066	0.357
-133.370	147.194	-0.101	0.134
-132.356	794.073	-0.063	-0.172
-131.341	423.285	-0.035	-0.074
-130.326	-38.239	-0.143	0.075
-129.312	400.145	0.118	0.244
-128.297	-147.953	0.345	0.028
-127.283	-48.740	-0.016	0.007
-126.268	-200.000	-0.006	-0.294
-125.253	26.543	-0.181	0.150
-124.239	77.263	0.140	-0.147
-123.224	-200.000	0.004	-0.196
-122.210	16.381	0.196	-0.152
-121.195	-192.022	-0.042	0.000
-120.180	230.742	-0.064	0.103
-119.166	-200.000	-0.021	0.158
-118.151	71.785	0.147	-0.151
-117.137	-121.595	0.362	-0.059
-116.122	46.172	-0.142	-0.129
-115.107	285.304	0.127	0.226
-114.093	-200.000	0.006	-0.250
-113.078	-200.000	0.039	-0.221
-112.064	-40.945	-0.180	-0.092
-111.049	-158.956	0.118	0.007
-110.034	-200.000	0.012	0.140
-109.020	731.530	0.138	0.363
-108.005	-200.000	-0.045	0.197
-106.991	-94.135	-0.236	0.064
-105.976	-200.000	0.008	0.215
-104.962	-54.552	-0.204	-0.091
-103.947	-42.615	0.227	0.114
-102.932	-20.013	-0.188	0.115
-101.918	-200.000	0.013	0.110
-100.903	-200.000	-0.024	0.210
-99.889	-124.415	0.434	0.067
-98.874	-200.000	-0.005	0.159
-97.859	-200.000	-0.066	0.470
-96.845	-30.781	-0.153	0.085
-95.830	119.476	-0.206	0.251
-94.816	132.474	-0.166	0.211
-93.801	-98.332	0.307	-0.077
-92.786	184.166	0.089	0.130
-91.772	-200.000	0.045	0.231
-90.757	415.415	0.016	0.033
-89.743	18.435	0.281	-0.221
-88.728	46.251	-0.279	0.255
-87.713	-200.000	0.049	0.228
-86.699	-200.000	0.001	0.144
-85.684	-121.471	0.140	-0.023
-84.670	-56.606	0.163	-0.071
-83.655	-21.704	0.105	-0.063
-82.640	-49.200	0.075	0.036
-81.626	116.927	-0.097	-0.117
-80.611	-74.725	-0.089	0.031
-79.597	-6.770	0.098	-0.065
-78.582	55.141	-0.036	-0.034
-77.567	-28.791	-0.318	0.180
-76.553	-56.289	0.088	-0.038
-75.538	108.775	-0.226	0.266
-74.524	386.419	0.129	0.262
-73.509	-142.916	0.145	0.014
-72.494	340.154	-0.065	0.124
-71.480	-87.127	0.356	-0.107
-70.465	451.379	0.167	-0.364
-69.451	97.043	0.354	0.400
-68.436	333.111	-0.094	0.179
-67.422	-23.533	-0.259	0.153
-66.407	-98.125	0.188	0.048
-65.392	-18.378	0.342	0.210
-64.378	401.424	0.032	0.066
-63.363	-200.000	0.024	0.298
-62.349	-85.294	-0.207	0.064
-61.334	11.695	-1.095	-0.827
-60.319	159.003	0.486	0.665
-59.305	262.894	-0.539	-0.921
-58.290	256.185	0.612	1.033
-57.276	536.174	0.800	1.869
-56.261	-200.000	113.935	642.277
-55.246	457.981	1511.981	3307.976
-54.232	143.180	2690.853	3523.817
-53.217	93.527	2331.320	2597.851
-52.203	33.848	2077.493	1779.443
-51.188	29.122	1991.472	1663.132
-50.173	27.793	1974.335	1636.843
-49.159	46.088	2031.854	1851.393
-48.144	45.022	2047.968	1856.310
-47.130	29.697	2007.150	1681.187
-46.115	27.412	1997.171	1652.053
-45.100	27.288	1994.557	1648.701
-44.086	27.314	1991.810	1646.601
-43.071	27.205	1989.684	1643.792
-42.057	27.238	1987.254	1642.019
-41.042	27.201	1985.821	1640.439
-40.027	27.263	1983.746	1639.214
-39.013	27.274	1981.594	1637.468
-37.998	27.227	1980.634	1636.191
-36.984	27.271	1978.633	1634.865
-35.969	27.224	1976.433	1632.565
-34.954	27.277	1974.447	1631.332
-33.940	27.310	1973.149	1630.490
-32.925	27.308	1971.639	1629.160
-31.911	27.383	1969.646	1628.117
-30.896	27.419	1967.405	1626.527
-29.881	27.431	1966.180	1625.557
-28.867	27.428	1964.724	1624.263
-27.852	27.347	1963.538	1622.489
-26.838	27.419	1961.832	1621.659
-25.823	27.532	1959.132	1620.367
-24.809	27.399	1957.922	1618.121
-23.794	27.430	1955.796	1616.577
-22.779	27.394	1954.323	1614.977
-21.765	27.458	1952.177	1613.705
-20.750	27.439	1950.725	1612.275
-19.736	27.450	1949.053	1610.927
-18.721	27.437	1947.666	1609.600
-17.706	27.407	1946.202	1608.058
-16.692	27.467	1943.826	1606.564
-15.677	27.365	1943.269	1605.136
-14.663	27.427	1941.547	1604.199
-13.648	27.366	1940.551	1602.770
-12.633	27.387	1938.728	1601.392
-11.619	27.378	1937.614	1600.331
-10.604	27.395	1935.981	1599.068
-9.590	27.369	1934.911	1597.892
-8.575	27.431	1933.664	1597.343
-7.560	27.382	1932.075	1595.536
-6.546	27.392	1930.897	1594.582
-5.531	27.371	1929.840	1593.464
-4.517	27.346	1929.139	1592.605
-3.502	27.363	1927.856	1591.626
-2.487	27.349	1926.392	1590.238
-1.473	27.413	1925.042	1589.614
-0.458	27.520	1920.120	1586.426
0.556	25.587	1900.169	1558.221
1.571	21.456	1881.815	1507.516
2.586	17.752	1903.986	1492.774
3.600	16.880	1939.191	1512.470
4.615	16.867	1933.452	1507.745
5.629	15.657	1841.664	1425.784
6.644	13.229	1738.300	1326.181
7.659	11.691	1708.092	1290.885
8.673	11.555	1705.063	1287.410
9.688	11.544	1704.157	1286.523
10.702	11.532	1702.678	1285.199
11.717	11.479	1698.843	1281.773
12.731	11.698	1696.943	1281.947
13.746	13.354	1700.661	1297.639
14.761	16.158	1705.494	1323.239
15.775	17.689	1706.945	1336.258
16.790	17.415	1706.105	1333.339
17.804	16.333	1702.702	1322.094
18.819	15.302	1699.046	1311.082
19.834	14.622	1696.301	1303.539
20.848	14.371	1694.165	1299.820
21.863	14.023	1693.168	1296.226
22.877	13.834	1691.441	1293.316
23.892	13.607	1689.855	1290.225
24.907	13.444	1689.018	1288.200
25.921	13.449	1688.365	1287.631
26.936	13.497	1686.798	1286.690
27.950	13.470	1685.967	1285.735
28.965	13.499	1685.519	1285.508
29.980	13.542	1684.394	1284.866
30.994	13.646	1684.047	1285.291
32.009	13.775	1682.182	1284.760
33.023	13.719	1681.073	1283.366
34.038	13.764	1680.621	1283.255
35.053	13.778	1679.148	1282.122
36.067	13.662	1677.958	1280.206
37.082	13.624	1676.814	1278.926
38.096	13.626	1675.926	1278.154
39.111	13.604	1675.308	1277.396
40.126	13.723	1674.354	1277.471
41.140	13.645	1673.348	1275.993
42.155	13.625	1671.564	1274.364
43.169	13.505	1670.397	1272.442
44.184	13.385	1669.507	1270.732
45.199	13.340	1668.286	1269.342
46.213	13.422	1667.121	1268.974
47.228	13.381	1665.520	1267.325
48.242	13.489	1663.982	1266.870
49.257	13.514	1663.476	1266.562
50.271	13.615	1661.720	1265.885
51.286	13.496	1661.022	1264.331
52.301	13.526	1659.302	1263.138
53.315	13.583	1657.967	1262.450
54.330	13.577	1656.529	1261.193
55.344	13.534	1654.688	1259.357
56.359	13.499	1653.337	1257.949
57.374	13.493	1652.297	1257.002
58.388	13.511	1650.780	1255.874
59.403	13.390	1649.713	1254.030
60.417	13.398	1648.211	1252.839
61.432	13.398	1647.504	1252.196
62.447	13.375	1646.066	1250.813
63.461	13.343	1644.639	1249.376
64.476	13.359	1643.338	1248.404
65.490	13.321	1642.868	1247.644
66.505	13.313	1641.233	1246.236
67.520	13.333	1640.292	1245.562
68.534	13.349	1639.437	1244.917
69.549	13.446	1638.479	1244.815
70.563	13.394	1637.422	1243.512
71.578	13.322	1636.670	1242.285
72.593	13.309	1635.229	1240.983
73.607	13.280	1634.287	1239.941
74.622	13.253	1633.275	1238.866
75.636	13.217	1632.261	1237.715
76.651	13.268	1631.175	1237.165
77.666	13.275	1630.328	1236.462
78.680	13.298	1629.428	1235.846
79.695	13.327	1628.379	1235.153
80.709	13.355	1627.713	1234.747
81.724	13.363	1626.845	1234.043
82.739	13.397	1625.903	1233.468
83.753	13.435	1625.375	1233.244
84.768	13.458	1624.149	1232.374
85.782	13.474	1623.478	1231.877
86.797	13.663	1621.965	1232.028
87.812	13.627	1621.491	1231.286
88.826	13.500	1620.492	1229.481
89.841	13.453	1619.378	1228.174
90.855	13.474	1618.505	1227.559
91.870	13.553	1617.212	1227.057
92.884	13.498	1616.379	1225.909
93.899	13.624	1615.261	1225.883
94.914	13.575	1613.732	1224.257
95.928	13.679	1612.611	1224.061
96.943	13.712	1611.009	1222.983
97.957	13.611	1609.546	1221.019
98.972	13.618	1608.171	1219.916
99.987	13.543	1607.050	1218.411
101.001	13.635	1604.828	1217.296
102.016	13.612	1603.191	1215.776
103.030	13.543	1602.108	1214.337
104.045	13.660	1600.670	1213.998
105.060	13.724	1598.847	1212.978
106.074	13.605	1597.982	1211.346
107.089	13.534	1596.471	1209.573
108.103	13.458	1594.876	1207.701
109.118	13.326	1593.547	1205.630
110.133	13.451	1591.844	1205.144
111.147	13.412	1590.371	1203.639
112.162	13.313	1589.325	1202.018
113.176	13.389	1587.717	1201.252
114.191	13.404	1586.810	1200.563
115.206	13.493	1585.071	1199.789
116.220	13.439	1583.868	1198.377
117.235	13.408	1582.135	1196.740
118.249	13.515	1581.365	1196.822
119.264	13.417	1580.087	1195.042
120.279	13.453	1578.640	1194.100
121.293	13.441	1576.955	1192.634
122.308	13.460	1575.305	1191.422
123.322	13.414	1573.551	1189.656
124.337	13.366	1572.511	1188.421
125.352	13.416	1570.973	1187.514
126.366	13.333	1569.964	1186.046
127.381	13.422	1569.178	1185.985
128.395	13.426	1567.428	1184.588
129.410	13.431	1565.880	1183.350
130.424	13.388	1564.616	1181.981
131.439	13.442	1563.397	1181.341
132.454	13.399	1562.373	1180.156
133.468	13.424	1560.913	1179.130
134.483	13.466	1559.380	1178.163
135.497	13.483	1558.070	1177.194
136.512	13.520	1556.537	1176.191
137.527	13.503	1555.301	1175.034
138.541	13.461	1554.014	1173.659
139.556	13.521	1552.546	1172.869
140.570	13.498	1551.031	1171.462
141.585	13.643	1549.507	1171.232
142.600	13.728	1548.454	1170.936
143.614	13.731	1547.147	1169.863
144.629	13.677	1546.186	1168.653
145.643	13.708	1545.308	1168.105
146.658	13.813	1543.310	1167.226
147.673	13.802	1541.595	1165.752
148.687	13.654	1540.302	1163.631
149.702	13.731	1538.402	1162.635
150.716	13.729	1536.743	1161.259
151.731	13.581	1536.152	1159.673
152.746	13.712	1534.089	1158.929
153.760	13.591	1533.094	1157.233
154.775	13.618	1531.892	1156.409
155.789	13.769	1530.486	1156.296
156.804	13.742	1529.736	1155.446
157.819	13.742	1528.149	1154.141
158.833	13.839	1526.660	1153.588
159.848	13.754	1525.932	1152.348
160.862	13.872	1524.471	1151.959
161.877	13.888	1522.601	1150.557
162.892	13.907	1521.923	1150.071
163.906	13.703	1521.015	1147.876
164.921	13.713	1519.476	1146.677
165.935	13.636	1518.983	1145.677
166.950	13.711	1517.617	1145.064
167.964	13.701	1516.522	1144.065
168.979	13.750	1515.376	1143.435
169.994	13.849	1514.213	1143.139
171.008	13.752	1513.021	1141.471
172.023	13.836	1511.856	1141.068
173.037	13.893	1510.956	1140.677
174.052	13.886	1509.521	1139.445
175.067	13.948	1508.349	1138.887
176.081	13.886	1507.557	1137.764
177.096	13.792	1506.396	1136.140
178.110	13.873	1505.020	1135.557
179.125	13.833	1503.692	1134.181
180.140	13.936	1502.960	1134.236
181.154	13.913	1501.602	1132.954
182.169	13.940	1500.427	1132.151
183.183	13.956	1499.387	1131.372
184.198	13.933	1498.907	1130.752
185.213	14.084	1497.093	1130.312
186.227	14.042	1495.901	1129.028
187.242	14.080	1494.880	1128.412
188.256	14.136	1493.852	1127.919
189.271	14.089	1492.620	1126.570
190.286	14.068	1491.808	1125.716
191.300	14.072	1491.390	1125.329
192.315	13.912	1489.559	1122.764
193.329	13.875	1488.290	1121.457
194.344	13.840	1487.040	1120.178
195.359	13.963	1485.631	1119.847
196.373	13.970	1485.359	1119.596
197.388	13.975	1484.229	1118.675
198.402	14.083	1483.003	1118.378
199.417	14.128	1482.294	1118.045
200.432	14.152	1481.135	1117.234
201.446	14.262	1480.332	1117.273
202.461	14.350	1478.624	1116.472
203.475	14.359	1477.890	1115.878
204.490	14.345	1476.547	1114.670
205.504	14.345	1475.449	1113.748
206.519	14.284	1474.459	1112.494
207.534	14.316	1472.926	1111.452
208.548	14.332	1472.168	1110.887
209.563	14.220	1471.318	1109.403
210.577	14.276	1469.707	1108.460
211.592	14.262	1469.345	1107.999
212.607	14.340	1468.403	1107.710
213.621	14.342	1467.788	1107.158
214.636	14.462	1466.922	1107.201
215.650	14.331	1465.790	1105.380
216.665	14.446	1464.485	1105.063
217.680	14.464	1464.019	1104.735
218.694	14.525	1463.110	1104.353
219.709	14.507	1462.189	1103.443
220.723	14.499	1461.351	1102.655
221.738	14.481	1460.481	1101.781
222.753	14.494	1459.458	1101.000
223.767	14.528	1458.482	1100.395
224.782	14.535	1457.589	1099.667
225.796	14.597	1456.384	1099.072
226.811	14.588	1455.786	1098.460
227.826	14.572	1455.074	1097.719
228.840	14.644	1453.995	1097.282
229.855	14.610	1452.948	1096.173
230.869	14.670	1451.866	1095.653
231.884	14.592	1451.301	1094.622
232.899	14.588	1449.778	1093.345
233.913	14.598	1448.755	1092.545
234.928	14.539	1447.718	1091.279
235.942	14.496	1446.595	1090.053
236.957	14.407	1445.375	1088.461
237.972	14.543	1444.026	1088.234
238.986	14.561	1442.873	1087.386
240.001	14.574	1442.577	1087.150
241.015	14.508	1441.317	1085.677
242.030	14.703	1439.433	1085.431
243.045	14.574	1439.155	1084.284
244.059	14.616	1438.361	1083.862
245.074	14.756	1437.224	1083.819
246.088	14.796	1436.454	1083.398
247.103	14.728	1436.191	1082.666
248.117	14.835	1435.043	1082.398
249.132	14.846	1434.252	1081.780
250.147	14.869	1433.587	1081.330
251.161	14.949	1432.836	1081.184
252.176	15.101	1432.239	1081.617
253.190	15.039	1431.737	1080.741
254.205	15.067	1430.869	1080.173
255.220	15.139	1429.540	1079.542
256.234	15.199	1428.973	1079.403
257.249	15.118	1428.091	1078.117
258.263	15.236	1426.969	1077.937
259.278	15.170	1426.108	1076.764
260.293	15.208	1425.116	1076.168
261.307	15.215	1424.216	1075.436
262.322	15.200	1423.725	1074.872
263.336	15.319	1422.709	1074.774
264.351	15.343	1422.025	1074.317
265.366	15.346	1420.730	1073.259
266.380	15.382	1419.827	1072.713
267.395	15.288	1418.965	1071.369
268.409	15.330	1418.340	1071.067
269.424	15.295	1417.176	1069.875
270.439	15.237	1415.940	1068.472
271.453	15.318	1414.773	1068.012
272.468	15.328	1414.057	1067.446
273.482	15.330	1413.327	1066.814
274.497	15.337	1412.365	1066.037
275.512	15.172	1411.721	1064.407
276.526	15.263	1410.946	1064.304
277.541	15.286	1409.910	1063.573
278.555	15.402	1408.627	1063.247
279.570	15.385	1408.265	1062.773
280.585	15.393	1407.370	1062.057
281.599	15.501	1406.363	1061.884
282.614	15.616	1405.271	1061.694
283.628	15.545	1404.192	1060.335
284.643	15.465	1402.992	1058.831
285.657	15.416	1402.110	1057.765
286.672	15.484	1401.187	1057.400
287.687	15.512	1399.950	1056.547
288.701	15.524	1399.157	1055.935
289.716	15.447	1398.431	1054.810
290.730	15.629	1397.744	1055.340
291.745	15.459	1397.135	1053.720
292.760	15.561	1395.743	1053.217
293.774	15.533	1394.615	1052.093
294.789	15.571	1393.659	1051.516
295.803	15.633	1393.410	1051.624
296.818	15.590	1392.135	1050.302
297.833	15.569	1391.211	1049.382
298.847	15.614	1389.907	1048.586
299.862	15.664	1388.894	1048.040
300.876	15.589	1388.252	1046.999
301.891	15.662	1387.027	1046.433
302.906	15.734	1386.360	1046.283
303.920	15.791	1385.749	1046.087
304.935	15.761	1385.104	1045.319
305.949	15.817	1384.199	1044.890
306.964	15.821	1383.576	1044.353
307.979	15.927	1382.283	1043.942
308.993	15.920	1381.477	1043.196
310.008	15.976	1380.258	1042.530
311.022	15.865	1379.623	1041.276
312.037	15.955	1378.700	1041.041
313.052	15.896	1377.662	1039.801
314.066	16.009	1376.394	1039.448
315.081	16.023	1375.012	1038.403
316.095	15.909	1374.236	1037.023
317.110	15.877	1373.376	1036.086
318.125	15.885	1372.418	1035.315
319.139	15.914	1371.221	1034.503
320.154	15.953	1370.261	1033.922
321.168	15.892	1369.522	1032.901
322.183	15.894	1368.550	1032.091
323.197	15.913	1367.241	1031.126
324.212	15.966	1366.890	1031.094
325.227	16.016	1365.821	1030.504
326.241	16.042	1365.087	1030.018
327.256	15.978	1364.533	1029.117
328.270	15.960	1363.762	1028.333
329.285	15.933	1362.883	1027.417
330.300	16.034	1361.614	1026.985
331.314	15.972	1361.087	1026.117
332.329	16.030	1359.781	1025.395
333.343	16.019	1358.819	1024.512
334.358	16.089	1358.013	1024.240
335.373	16.124	1357.264	1023.799
336.387	16.172	1356.104	1023.121
337.402	16.145	1355.737	1022.590
338.416	16.200	1355.010	1022.287
339.431	16.122	1354.625	1021.430
340.446	16.224	1353.703	1021.264
341.460	16.345	1352.467	1020.972
342.475	16.323	1351.788	1020.234
343.489	16.438	1350.962	1020.216
344.504	16.391	1349.853	1019.005
345.519	16.436	1349.387	1018.833
346.533	16.514	1347.808	1018.023
347.548	16.520	1347.160	1017.480
348.562	16.405	1346.653	1016.315
349.577	16.431	1345.883	1015.798
350.592	16.419	1345.098	1015.046
351.606	16.336	1344.334	1013.882
352.621	16.406	1343.002	1013.209
353.635	16.318	1342.042	1011.864
354.650	16.463	1340.894	1011.778
355.665	16.404	1339.993	1010.659
356.679	16.385	1339.305	1009.936
357.694	16.382	1338.174	1008.971
358.708	16.549	1336.790	1008.840
359.723	16.515	1335.955	1007.915
360.738	16.512	1334.690	1006.856
361.752	16.518	1334.076	1006.340
362.767	16.473	1333.054	1005.208
363.781	16.606	1331.632	1004.837
364.796	16.481	1331.115	1003.618
365.810	16.612	1330.301	1003.695
366.825	16.659	1329.727	1003.448
367.840	16.686	1329.066	1003.022
368.854	16.717	1328.497	1002.690
369.869	16.830	1327.689	1002.656
370.883	16.782	1327.081	1001.823
371.898	16.760	1326.476	1001.150
372.913	16.795	1325.051	1000.192
373.927	16.666	1324.949	999.267
374.942	16.751	1323.555	998.626
375.956	16.839	1322.805	998.494
376.971	16.909	1321.730	998.002
377.986	16.815	1321.432	997.136
379.000	16.839	1320.504	996.488
380.015	16.860	1319.875	996.050
381.029	16.845	1318.922	995.154
382.044	16.946	1318.365	995.238
383.059	16.980	1317.558	994.741
384.073	17.072	1316.753	994.585
385.088	16.937	1316.447	993.473
386.102	16.917	1315.987	992.924
387.117	17.059	1314.977	992.903
388.132	16.966	1314.281	991.743
389.146	16.983	1313.169	990.916
390.161	16.955	1312.200	989.935
391.175	16.979	1311.396	989.383
392.190	16.988	1310.995	989.042
393.205	17.090	1309.572	988.480
394.219	17.089	1308.881	987.865
395.234	17.132	1307.805	987.212
396.248	17.075	1306.325	985.676
397.263	17.121	1305.222	985.024
398.278	17.193	1303.441	984.013
399.292	17.101	1302.639	982.789
400.307	17.070	1301.669	981.786
401.321	17.076	1300.681	980.990
402.336	17.064	1299.687	980.086
403.350	16.988	1298.797	978.886
404.365	17.148	1297.617	978.833
405.380	17.157	1296.876	978.240
406.394	17.165	1295.666	977.287
407.409	17.218	1295.101	977.079
408.423	17.173	1294.579	976.341
409.438	17.156	1294.310	975.955
410.453	17.346	1293.015	975.983
411.467	17.358	1292.605	975.657
412.482	17.442	1291.947	975.554
413.496	17.445	1291.187	974.912
414.511	17.463	1290.562	974.457
415.526	17.466	1289.876	973.868
416.540	17.538	1288.858	973.425
417.555	17.479	1288.243	972.537
418.569	17.526	1287.807	972.389
419.584	17.517	1287.812	972.253
420.599	17.502	1286.886	971.387
421.613	96.840	1356.065	1475.997
422.628	94.864	1366.092	1476.114
