DTS Sentinel unit serial number:	SN413079Multiplexer serial number:	ORYXHardware model number:	OX4-SRSoftware version number:	ORYX F/W v4.00 Oryx Data Collector v3.7.2.0data status	okinstallation	princeton_trtdifferential loss correction	single-endedforward channel	channel 4reverse channel	N/Adate	2019/09/12time	19:00:19forward acquisition time	15.00reverse acquisition time	0.00gamma	496.2192k internal	0.2307k external	0.2307temperature offset calibration	1.0141default loss term (dB/km)	0.3790temperature slope calibration	1.0000multiplexer offset coefficient	1.0000multiplexer slope coefficient	1.0000fibre end	0.00T internal ref (°C)	32.75T ext. ref 1 (°C)	3.02T ext. ref 2 (°C)	27.27length (m)	temperature (°C)	Stokes	anti-Stokes-747.200	105.208	-0.351	0.422
-746.185	-31.539	0.264	-0.151
-745.171	-144.310	0.212	0.020
-744.156	-200.000	0.159	0.728
-743.142	169.989	-0.207	-0.300
-742.127	357.801	-0.248	0.503
-741.112	-96.068	0.493	0.133
-740.098	44.224	0.659	0.615
-739.083	68.572	-0.206	0.215
-738.069	-64.159	0.263	-0.109
-737.054	9.920	-0.693	0.535
-736.039	-46.689	-0.532	-0.265
-735.025	800.000	-0.081	-0.322
-734.010	11.000	-0.153	-0.119
-732.996	-164.175	-1.172	-0.055
-731.981	-200.000	0.026	0.140
-730.966	135.176	-0.289	0.382
-729.952	-68.518	0.310	-0.122
-728.937	94.145	0.256	0.295
-727.923	292.558	-0.490	-0.907
-726.908	800.000	-0.031	-0.123
-725.894	348.954	0.118	0.236
-724.879	-89.361	-0.329	-0.098
-723.864	-110.094	0.772	-0.164
-722.850	282.905	-0.153	0.280
-721.835	-98.381	-0.857	-0.223
-720.821	800.000	0.040	0.119
-719.806	-200.000	0.090	-0.408
-718.791	800.000	-0.030	0.107
-717.777	800.000	-0.095	-0.390
-716.762	-45.694	-0.185	-0.093
-715.748	220.901	-0.241	-0.392
-714.733	-128.004	0.743	-0.108
-713.718	-166.387	-0.063	-0.003
-712.704	-80.560	-0.821	-0.278
-711.689	269.175	0.468	-0.833
-710.675	-14.095	0.582	-0.382
-709.660	-72.689	-0.908	-0.340
-708.645	800.000	-0.101	0.321
-707.631	-200.000	-0.173	-0.788
-706.616	175.878	0.205	0.301
-705.602	800.000	0.227	-0.689
-704.587	26.634	-0.304	-0.259
-703.572	90.463	-0.179	-0.203
-702.558	-200.000	0.057	0.277
-701.543	-16.592	-0.870	0.559
-700.529	704.766	0.341	0.913
-699.514	-200.000	0.071	1.090
-698.499	800.000	-0.225	0.936
-697.485	91.519	0.253	-0.289
-696.470	300.251	0.211	0.396
-695.456	-89.697	-0.343	0.102
-694.441	-46.560	-0.079	0.039
-693.426	-57.910	0.862	-0.382
-692.412	278.423	-0.313	-0.567
-691.397	764.913	0.187	0.516
-690.383	-135.636	0.812	0.098
-689.368	-69.023	-1.075	0.420
-688.354	-197.515	-0.769	-0.005
-687.339	-140.946	0.609	0.063
-686.324	800.000	-0.255	-1.003
-685.310	342.844	0.241	-0.479
-684.295	-11.743	0.370	0.246
-683.281	637.589	0.170	0.437
-682.266	49.751	-0.923	0.882
-681.251	-200.000	0.115	0.854
-680.237	-17.832	-0.625	0.398
-679.222	511.744	0.407	-0.960
-678.208	-200.000	0.035	-0.682
-677.193	-131.789	-0.942	0.125
-676.178	158.449	-0.365	-0.514
-675.164	201.059	-0.345	-0.539
-674.149	-74.109	-0.958	-0.352
-673.135	148.238	-0.229	0.313
-672.120	800.000	0.253	0.831
-671.105	-58.029	0.521	0.231
-670.091	-152.676	-0.603	0.044
-669.076	185.618	0.509	0.767
-668.062	53.335	0.420	0.409
-667.047	-200.000	-0.097	0.665
-666.032	81.821	0.506	0.555
-665.018	111.984	-0.441	0.539
-664.003	800.000	-0.166	-0.478
-662.989	800.000	-0.114	-0.330
-661.974	-132.692	0.569	0.074
-660.959	-68.475	0.342	-0.134
-659.945	18.551	0.159	0.129
-658.930	-41.407	-1.139	-0.594
-657.916	800.000	-0.046	0.185
-656.901	-0.167	-0.115	-0.083
-655.886	-200.000	-0.009	-0.349
-654.872	84.375	0.232	-0.257
-653.857	165.023	0.113	-0.162
-652.843	202.151	0.238	-0.372
-651.828	-95.650	-0.682	-0.185
-650.814	-68.587	-0.881	-0.346
-649.799	0.370	0.642	-0.464
-648.784	-163.961	0.079	-0.004
-647.770	800.000	-0.019	-0.059
-646.755	21.319	-0.354	0.291
-645.741	-1.159	0.477	0.341
-644.726	434.690	0.450	0.990
-643.711	185.504	-0.566	0.852
-642.697	323.590	0.209	-0.404
-641.682	4.879	0.293	-0.218
-640.668	-15.458	-0.225	-0.145
-639.653	54.409	-0.438	-0.427
-638.638	-160.644	0.135	0.007
-637.624	93.617	-0.602	0.691
-636.609	-106.020	-0.333	0.076
-635.595	-23.290	0.269	-0.164
-634.580	231.428	0.393	-0.653
-633.565	-5.494	-0.167	-0.116
-632.551	-13.495	-0.416	-0.273
-631.536	17.958	-0.426	-0.344
-630.522	245.615	-0.443	-0.755
-629.507	-200.000	0.107	-0.477
-628.492	-200.000	-0.111	0.921
-627.478	-65.841	0.345	0.140
-626.463	800.000	0.041	-0.173
-625.449	-200.000	0.007	0.393
-624.434	84.975	0.317	0.351
-623.419	-52.729	-0.598	-0.279
-622.405	800.000	-0.099	-0.369
-621.390	26.105	-0.135	-0.114
-620.376	-179.993	0.791	-0.017
-619.361	-200.000	-0.008	-0.488
-618.346	638.114	0.173	-0.446
-617.332	-56.070	0.489	-0.220
-616.317	-108.687	-0.780	0.169
-615.303	-107.746	0.453	-0.100
-614.288	72.050	0.181	-0.191
-613.273	-200.000	0.140	0.806
-612.259	-200.000	0.052	0.461
-611.244	-200.000	0.013	-0.612
-610.230	800.000	0.088	0.279
-609.215	-123.151	-0.615	-0.100
-608.201	800.000	-0.048	0.138
-607.186	-200.000	-0.031	-0.201
-606.171	-142.018	0.176	-0.018
-605.157	800.000	0.099	-0.299
-604.142	-73.520	0.045	-0.016
-603.128	-71.055	0.167	-0.064
-602.113	-78.828	-0.182	0.063
-601.098	-117.557	-0.413	0.075
-600.084	-200.000	-0.009	0.264
-599.069	5.228	0.863	0.643
-598.055	-191.038	0.279	-0.003
-597.040	341.207	-0.216	-0.426
-596.025	794.076	-0.369	-1.028
-595.011	-66.256	-0.899	-0.362
-593.996	98.638	0.067	0.078
-592.982	-44.387	-0.685	-0.347
-591.967	45.639	0.872	-0.814
-590.952	-28.838	-0.530	-0.308
-589.938	157.472	-0.194	-0.271
-588.923	60.438	-0.465	-0.465
-587.909	-52.304	0.801	0.375
-586.894	-78.318	-0.113	0.039
-585.879	-69.636	0.695	-0.269
-584.865	146.560	-0.637	-0.865
-583.850	-159.510	-0.659	-0.037
-582.836	49.568	0.810	-0.771
-581.821	241.063	0.459	-0.774
-580.806	-154.625	-0.890	0.060
-579.792	141.530	0.385	0.515
-578.777	18.622	-0.700	-0.566
-577.763	-124.826	-0.650	0.101
-576.748	23.536	-0.960	0.798
-575.733	800.000	0.102	0.332
-574.719	800.000	0.083	0.271
-573.704	-55.945	0.049	0.022
-572.690	62.939	-0.749	0.757
-571.675	88.218	0.260	0.291
-570.661	-70.206	0.742	0.285
-569.646	214.961	-0.690	-1.104
-568.631	62.658	0.681	0.688
-567.617	-174.595	1.192	0.034
-566.602	800.000	-0.165	0.470
-565.588	3.910	0.580	-0.428
-564.573	-200.000	0.045	-0.205
-563.558	-111.161	-1.161	0.240
-562.544	378.518	-0.300	-0.620
-561.529	800.000	0.051	-0.189
-560.515	51.499	0.446	0.428
-559.500	-74.850	1.143	0.414
-558.485	-97.727	-0.305	0.080
-557.471	-200.000	-0.012	-0.215
-556.456	106.930	0.375	-0.450
-555.442	-90.519	0.679	-0.199
-554.427	-93.590	-0.293	-0.082
-553.412	1.906	0.264	0.192
-552.398	-94.280	0.778	-0.215
-551.383	635.233	0.156	0.398
-550.369	800.000	0.091	-0.325
-549.354	-119.777	-0.997	0.174
-548.339	800.000	0.099	0.319
-547.325	-97.314	-0.213	0.056
-546.310	-200.000	-0.055	0.393
-545.296	-80.335	0.358	0.121
-544.281	-200.000	0.057	0.554
-543.266	-200.000	-0.013	0.534
-542.252	188.167	0.283	-0.426
-541.237	124.700	0.165	0.210
-540.223	-33.495	-0.416	0.232
-539.208	-200.000	0.088	0.424
-538.193	-68.766	-0.355	0.138
-537.179	-200.000	0.724	0.003
-536.164	-200.000	0.029	0.575
-535.150	220.252	0.205	0.332
-534.135	800.000	-0.074	0.321
-533.121	141.083	0.415	0.554
-532.106	-63.739	-0.452	0.187
-531.091	-200.000	-0.119	0.701
-530.077	144.924	-0.122	-0.164
-529.062	-200.000	-0.162	0.758
-528.048	54.191	0.068	-0.066
-527.033	-200.000	-0.666	-0.002
-526.018	27.638	-0.264	-0.224
-525.004	10.051	0.417	-0.319
-523.989	-84.038	0.163	0.052
-522.975	800.000	0.132	-0.499
-521.960	285.870	-0.294	-0.535
-520.945	160.313	-0.229	0.322
-519.931	306.712	0.377	-0.708
-518.916	-127.983	0.166	0.024
-517.902	-97.896	0.794	0.207
-516.887	74.455	-0.330	-0.350
-515.872	800.000	0.144	-0.551
-514.858	172.794	-0.086	-0.124
-513.843	-77.396	-0.503	0.176
-512.829	-8.726	-0.567	0.384
-511.814	-181.652	-0.066	0.001
-510.799	431.542	-0.040	0.087
-509.785	-200.000	-0.083	-0.523
-508.770	-48.552	-0.675	-0.327
-507.756	67.224	0.089	-0.091
-506.741	-200.000	-0.101	0.787
-505.726	-200.000	-0.074	-0.527
-504.712	40.380	-0.052	0.047
-503.697	352.981	-0.415	-0.829
-502.683	72.290	-0.215	-0.226
-501.668	145.527	0.155	0.209
-500.653	3.126	0.486	-0.356
-499.639	41.728	0.367	-0.335
-498.624	800.000	-0.063	0.252
-497.610	-106.675	0.206	-0.046
-496.595	-166.592	-0.522	0.022
-495.581	18.780	-0.577	-0.465
-494.566	-159.708	0.163	0.009
-493.551	800.000	-0.087	0.291
-492.537	-119.894	0.569	-0.098
-491.522	-58.798	0.938	-0.409
-490.508	-131.482	0.323	-0.043
-489.493	-33.484	-0.538	-0.299
-488.478	242.300	-0.069	0.117
-487.464	-82.135	0.882	0.290
-486.449	800.000	0.052	-0.146
-485.435	575.895	0.045	0.110
-484.420	800.000	0.117	-0.380
-483.405	653.134	0.258	-0.665
-482.391	691.957	0.217	0.572
-481.376	-98.932	0.571	0.146
-480.362	-200.000	0.088	-0.553
-479.347	44.241	0.221	0.204
-478.332	-64.838	0.750	-0.305
-477.318	53.052	-0.443	-0.427
-476.303	431.720	0.159	-0.346
-475.289	-200.000	-0.070	0.662
-474.274	-135.920	0.578	-0.069
-473.259	289.303	0.244	0.446
-472.245	-61.372	-0.297	0.126
-471.230	-100.064	-0.298	-0.075
-470.216	-80.554	-0.662	0.222
-469.201	-12.202	0.634	0.417
-468.186	-11.323	-0.873	-0.578
-467.172	230.141	-0.255	0.420
-466.157	73.602	-0.198	-0.209
-465.143	712.380	-0.331	-0.881
-464.128	-102.196	0.282	-0.068
-463.113	176.615	-0.184	0.270
-462.099	641.562	-0.109	-0.280
-461.084	1.573	-0.818	0.592
-460.070	-91.063	0.812	0.235
-459.055	-31.891	-0.866	0.488
-458.040	-138.714	0.257	0.028
-457.026	-105.210	0.610	-0.140
-456.011	34.150	0.172	-0.151
-454.997	615.897	-0.049	-0.123
-453.982	131.011	0.628	-0.811
-452.968	97.974	0.354	0.409
-451.953	800.000	0.215	-0.850
-450.938	283.699	0.312	0.564
-449.924	90.197	-0.102	0.115
-448.909	-153.943	0.285	-0.020
-447.895	470.371	-0.385	-0.869
-446.880	-46.378	-0.350	0.173
-445.865	-128.595	0.549	-0.078
-444.851	292.741	0.272	-0.498
-443.836	11.077	0.444	0.341
-442.822	423.213	0.327	-0.706
-441.807	800.000	-0.150	-0.602
-440.792	25.107	-0.309	0.257
-439.778	52.055	-0.355	-0.340
-438.763	18.033	0.407	0.326
-437.749	85.457	0.335	-0.369
-436.734	90.657	0.137	-0.154
-435.719	20.326	0.337	0.273
-434.705	506.367	0.062	-0.145
-433.690	800.000	0.093	0.284
-432.676	639.473	-0.302	0.771
-431.661	94.140	1.049	1.196
-430.646	-23.009	-0.300	-0.182
-429.632	-33.909	0.035	-0.019
-428.617	800.000	-0.155	0.502
-427.603	346.624	-0.137	-0.270
-426.588	-180.608	0.385	0.008
-425.573	425.130	0.302	0.654
-424.559	138.659	0.048	0.064
-423.544	-83.473	-1.124	0.361
-422.530	-118.077	0.259	-0.046
-421.515	655.749	-0.034	-0.087
-420.500	-135.074	-0.650	-0.079
-419.486	800.000	-0.143	0.427
-418.471	85.899	0.767	0.848
-417.457	-200.000	0.023	-0.199
-416.442	-49.003	0.653	-0.314
-415.428	-97.261	0.238	-0.062
-414.413	184.755	0.465	-0.692
-413.398	-200.000	-0.019	-0.504
-412.384	81.644	-0.453	0.492
-411.369	-112.285	-0.862	0.173
-410.355	100.188	0.558	0.649
-409.340	9.048	-0.136	0.103
-408.325	-200.000	-0.047	0.381
-407.311	-118.076	0.474	-0.085
-406.296	-200.000	0.029	0.665
-405.282	-25.044	-0.453	0.269
-404.267	100.554	0.372	0.433
-403.252	800.000	0.213	0.707
-402.238	-190.137	-0.144	-0.002
-401.223	-1.160	-0.167	0.118
-400.209	800.000	0.181	-0.771
-399.194	115.056	0.542	-0.663
-398.179	-200.000	0.026	0.337
-397.165	184.262	-0.206	-0.306
-396.150	800.000	-0.180	-0.515
-395.136	-95.937	-0.280	0.075
-394.121	176.015	-0.428	-0.623
-393.106	164.577	-0.688	-0.973
-392.092	-147.665	1.043	-0.088
-391.077	81.937	0.151	-0.164
-390.063	-141.421	-0.253	-0.026
-389.048	23.790	-0.341	0.281
-388.033	62.248	-0.196	0.196
-387.019	261.553	-0.217	-0.377
-386.004	800.000	-0.100	0.396
-384.990	113.419	0.389	0.474
-383.975	199.682	0.179	-0.276
-382.960	800.000	-0.154	0.506
-381.946	-10.171	0.689	0.459
-380.931	800.000	-0.086	-0.311
-379.917	81.591	0.180	-0.195
-378.902	-200.000	-0.012	0.294
-377.888	-40.473	0.864	0.450
-376.873	-200.000	-0.029	0.491
-375.858	-32.667	-0.583	-0.325
-374.844	112.574	-0.320	0.388
-373.829	12.680	0.501	-0.388
-372.815	-71.603	-0.452	-0.169
-371.800	292.444	-0.182	-0.332
-370.785	44.556	0.227	0.209
-369.771	-16.387	-0.007	0.005
-368.756	-17.962	0.649	-0.408
-367.742	143.544	-0.238	0.317
-366.727	-67.834	-0.435	-0.170
-365.712	-74.896	-0.619	0.222
-364.698	-26.732	-0.891	0.522
-363.683	-16.465	-0.427	-0.271
-362.669	-16.694	0.150	0.095
-361.654	-95.228	0.861	-0.232
-360.639	5.250	0.117	-0.086
-359.625	-31.398	0.624	-0.352
-358.610	-135.399	-0.545	-0.065
-357.596	-98.653	-0.411	-0.105
-356.581	53.444	0.145	-0.139
-355.566	238.938	0.211	0.351
-354.552	-95.750	-0.698	-0.187
-353.537	800.000	-0.073	-0.229
-352.523	-61.004	-0.556	-0.235
-351.508	3.280	0.750	0.547
-350.493	199.146	-0.147	-0.226
-349.479	-132.156	-0.599	-0.078
-348.464	-124.707	0.629	-0.097
-347.450	179.757	-0.383	-0.562
-346.435	-46.695	0.050	0.025
-345.420	-200.000	0.138	-1.171
-344.406	204.413	0.591	-0.917
-343.391	794.714	-0.228	-0.628
-342.377	458.677	0.298	-0.663
-341.362	800.000	0.176	0.575
-340.348	14.543	-0.599	0.468
-339.333	167.690	0.114	0.162
-338.318	47.093	-0.498	0.464
-337.304	136.274	-0.463	-0.604
-336.289	6.674	-0.712	-0.530
-335.275	-15.183	0.971	0.622
-334.260	-125.754	0.784	0.119
-333.245	500.146	0.328	-0.758
-332.231	800.000	0.178	0.763
-331.216	518.925	0.075	0.176
-330.202	161.250	0.606	0.847
-329.187	-62.658	-0.343	-0.142
-328.172	-200.000	-0.171	-0.752
-327.158	-6.620	0.087	-0.059
-326.143	-158.981	-1.068	-0.061
-325.129	84.812	0.242	-0.266
-324.114	-78.007	0.870	0.300
-323.099	-58.158	-0.558	0.243
-322.085	-13.165	0.348	-0.226
-321.070	-82.709	0.429	0.139
-320.056	105.987	-0.345	-0.409
-319.041	800.000	0.053	-0.179
-318.026	-200.000	0.060	0.330
-317.012	624.472	0.205	0.516
-315.997	138.022	0.530	0.694
-314.983	226.645	0.206	-0.334
-313.968	-44.153	-0.836	0.420
-312.953	-200.000	-0.087	0.562
-311.939	87.639	-0.692	0.766
-310.924	263.247	-0.273	0.473
-309.910	236.237	-0.235	-0.388
-308.895	134.535	0.285	0.370
-307.880	185.902	0.204	-0.303
-306.866	800.000	-0.201	0.614
-305.851	-132.593	-0.278	-0.036
-304.837	-153.769	-0.139	-0.010
-303.822	-66.721	0.088	0.035
-302.807	-137.867	0.652	-0.073
-301.793	-20.597	0.117	-0.072
-300.778	800.000	-0.323	0.977
-299.764	287.828	-0.414	0.748
-298.749	12.433	-0.470	0.362
-297.735	479.972	0.384	-0.870
-296.720	-200.000	0.046	-0.338
-295.705	61.286	-0.625	0.621
-294.691	-112.487	-0.628	0.125
-293.676	-200.000	0.065	0.572
-292.662	800.000	-0.077	-0.252
-291.647	101.222	-0.690	0.803
-290.632	-200.000	0.004	0.194
-289.618	-148.928	-0.502	0.040
-288.603	-132.594	-0.193	-0.025
-287.589	800.000	-0.093	-0.394
-286.574	-65.722	1.114	-0.446
-285.559	-74.855	-0.591	0.212
-284.545	-70.040	-1.173	0.446
-283.530	-200.000	0.017	-0.096
-282.516	-88.076	-0.087	0.026
-281.501	81.730	-0.487	0.526
-280.486	800.000	-0.124	0.503
-279.472	-7.804	0.552	-0.372
-278.457	-128.988	0.327	0.046
-277.443	-18.775	-0.262	0.163
-276.428	-140.998	0.225	-0.023
-275.413	-25.557	-1.260	0.743
-274.399	-200.000	-0.016	-0.127
-273.384	800.000	-0.282	-0.923
-272.370	-114.221	0.122	0.024
-271.355	800.000	0.023	0.093
-270.340	-160.700	-0.519	-0.028
-269.326	800.000	0.280	1.052
-268.311	323.377	0.063	0.120
-267.297	-123.092	0.378	0.061
-266.282	295.436	-0.169	-0.309
-265.267	121.942	-0.382	0.476
-264.253	91.054	-0.268	0.300
-263.238	-200.000	0.100	-0.538
-262.224	-117.894	-0.317	-0.057
-261.209	-154.206	-0.846	-0.057
-260.195	-57.706	-0.412	0.180
-259.180	13.360	0.998	-0.772
-258.165	-51.367	0.607	0.283
-257.151	388.148	0.391	0.808
-256.136	42.696	-0.455	-0.413
-255.122	9.229	-0.417	-0.314
-254.107	-70.455	-0.559	-0.211
-253.092	84.351	-0.071	0.077
-252.078	-200.000	0.173	0.940
-251.063	-200.000	0.005	-0.260
-250.049	-42.208	0.127	-0.065
-249.034	-40.555	0.622	0.322
-248.019	281.208	0.587	1.047
-247.005	122.822	0.483	-0.603
-245.990	536.759	-0.055	0.131
-244.976	-43.686	0.261	0.131
-243.961	800.000	0.078	-0.327
-242.946	163.607	-0.512	0.719
-241.932	90.111	0.183	0.204
-240.917	265.294	-0.323	-0.561
-239.903	-142.358	-0.960	-0.094
-238.888	800.000	-0.197	-0.776
-237.873	647.292	-0.101	-0.256
-236.859	258.979	0.066	-0.114
-235.844	-77.850	0.478	0.165
-234.830	-200.000	-0.059	1.179
-233.815	401.706	0.171	0.359
-232.800	92.300	-0.169	-0.190
-231.786	18.474	0.608	-0.484
-230.771	-113.814	0.627	-0.122
-229.757	97.817	0.460	0.528
-228.742	6.970	-0.282	-0.209
-227.727	58.952	-0.232	-0.227
-226.713	151.463	0.146	0.198
-225.698	-200.000	0.011	0.526
-224.684	-139.890	0.616	0.065
-223.669	130.199	0.591	-0.754
-222.655	483.722	-0.276	0.625
-221.640	-189.287	-0.336	0.004
-220.625	161.807	0.119	-0.166
-219.611	-68.038	-0.795	-0.309
-218.596	-35.024	0.430	-0.233
-217.582	31.266	0.472	0.404
-216.567	-122.423	-0.259	-0.042
-215.552	-108.914	0.264	-0.056
-214.538	526.247	-0.232	0.545
-213.523	202.451	-0.152	0.234
-212.509	800.000	-0.245	-0.756
-211.494	25.898	0.509	-0.423
-210.479	681.493	0.103	-0.267
-209.465	-200.000	0.007	-0.748
-208.450	800.000	0.114	0.361
-207.436	243.120	-0.158	0.264
-206.421	240.005	0.564	-0.935
-205.406	-103.391	0.529	-0.124
-204.392	-103.252	-0.630	0.148
-203.377	-200.000	-0.070	0.315
-202.363	-122.509	-0.791	0.128
-201.348	117.407	-0.660	0.808
-200.333	-64.586	-0.882	-0.356
-199.319	-111.605	0.396	-0.080
-198.304	289.896	0.300	0.542
-197.290	800.000	0.224	0.828
-196.275	-200.000	0.074	0.416
-195.260	37.634	0.448	-0.396
-194.246	-200.000	-0.041	-0.552
-193.231	800.000	0.177	0.603
-192.217	288.184	-0.287	0.517
-191.202	-59.333	0.211	-0.090
-190.187	800.000	0.175	-0.679
-189.173	120.333	-0.222	-0.274
-188.158	-200.000	-0.051	0.334
-187.144	-2.626	-0.536	-0.373
-186.129	-125.578	0.588	-0.089
-185.114	536.282	0.122	0.288
-184.100	-39.835	1.218	0.633
-183.085	-200.000	-0.039	-0.398
-182.071	-200.000	0.009	-1.169
-181.056	0.851	-0.351	0.250
-180.042	800.000	-0.043	-0.161
-179.027	800.000	0.242	-0.687
-178.012	-200.000	-0.028	0.161
-176.998	37.807	0.223	-0.197
-175.983	-58.791	0.142	0.061
-174.969	-100.651	0.823	-0.202
-173.954	-92.580	-0.891	0.249
-172.939	-144.129	0.524	-0.049
-171.925	-184.947	0.399	-0.006
-170.910	-200.000	-0.127	0.565
-169.896	-200.000	0.009	-0.494
-168.881	-97.478	-1.056	-0.273
-167.866	800.000	0.147	-0.495
-166.852	-44.873	-0.912	0.452
-165.837	-200.000	-0.018	0.508
-164.823	83.446	0.405	-0.438
-163.808	-37.093	0.420	0.223
-162.793	622.217	-0.089	0.222
-161.779	-102.600	-0.519	0.123
-160.764	634.092	-0.153	0.385
-159.750	800.000	0.230	-0.788
-158.735	-200.000	-0.013	-0.720
-157.720	800.000	0.171	-0.480
-156.706	-89.807	-0.773	-0.225
-155.691	118.851	-0.283	0.347
-154.677	469.451	-0.168	-0.376
-153.662	800.000	0.408	1.125
-152.647	800.000	0.081	-0.338
-151.633	800.000	0.339	-1.196
-150.618	292.576	-0.128	0.231
-149.604	-131.831	0.619	0.080
-148.589	45.597	0.603	0.554
-147.574	83.961	0.559	-0.606
-146.560	800.000	-0.249	0.957
-145.545	125.171	0.269	0.337
-144.531	-8.528	0.932	0.622
-143.516	800.000	0.160	0.487
-142.502	592.202	0.202	0.495
-141.487	-143.044	0.346	0.033
-140.472	161.185	-0.670	-0.930
-139.458	92.213	0.273	-0.305
-138.443	-36.750	1.060	-0.566
-137.429	-35.198	0.539	0.292
-136.414	15.116	-0.330	-0.257
-135.399	67.661	-0.500	0.507
-134.385	-79.717	0.589	-0.197
-133.370	151.832	0.375	-0.508
-132.356	800.000	0.155	-0.576
-131.341	500.959	0.196	0.449
-130.326	-39.480	0.589	0.307
-129.312	109.509	-0.256	0.305
-128.297	439.302	-0.290	0.628
-127.283	25.064	0.267	0.220
-126.268	14.874	-0.244	0.190
-125.253	167.941	0.304	-0.430
-124.239	19.584	0.224	0.179
-123.224	236.418	0.174	-0.286
-122.210	-138.651	-1.496	-0.162
-121.195	-124.146	0.467	-0.073
-120.180	381.541	0.297	0.604
-119.166	-77.119	-0.266	0.092
-118.151	78.730	-0.438	-0.465
-117.137	-200.000	-0.060	0.360
-116.122	8.658	-0.512	-0.383
-115.107	-164.967	0.400	-0.018
-114.093	331.309	0.143	-0.273
-113.078	-165.477	0.366	0.016
-112.064	800.000	0.291	1.237
-111.049	-200.000	-0.010	-0.314
-110.034	1.054	0.439	-0.312
-109.020	34.776	0.149	0.129
-108.005	116.726	-0.309	0.377
-106.991	204.337	0.097	0.150
-105.976	-189.284	-0.432	-0.005
-104.962	263.935	-0.059	0.101
-103.947	-68.865	0.594	0.227
-102.932	800.000	-0.143	0.435
-101.918	-200.000	-0.110	-0.518
-100.903	-156.317	-0.262	0.016
-99.889	8.301	-0.481	-0.359
-98.874	-200.000	0.550	-0.001
-97.859	-55.032	-0.377	0.168
-96.845	-113.978	0.086	0.017
-95.830	-6.886	0.498	-0.335
-94.816	173.588	-0.168	-0.240
-93.801	-89.048	-0.288	0.085
-92.786	181.108	0.292	0.425
-91.772	-69.782	0.638	-0.242
-90.757	-200.000	0.040	0.624
-89.743	-200.000	-0.127	0.639
-88.728	-200.000	-0.002	0.606
-87.713	-29.785	0.260	0.147
-86.699	-160.253	0.690	-0.037
-85.684	-24.980	0.939	0.552
-84.670	800.000	-0.222	-0.794
-83.655	148.857	-0.424	-0.568
-82.640	-43.906	-0.424	-0.211
-81.626	206.237	0.254	-0.392
-80.611	-133.927	-0.251	-0.031
-79.597	-57.649	-0.330	-0.143
-78.582	48.985	0.439	0.408
-77.567	144.527	0.189	0.250
-76.553	-192.635	0.470	0.004
-75.538	-41.166	-0.596	-0.305
-74.524	116.533	-0.114	0.139
-73.509	-200.000	-0.044	-0.230
-72.494	-173.937	-1.334	-0.039
-71.480	12.132	0.458	0.349
-70.465	-45.049	-0.649	-0.320
-69.451	500.466	0.038	0.088
-68.436	800.000	-0.023	-0.071
-67.422	-75.341	-0.229	-0.081
-66.407	-64.930	-0.486	0.195
-65.392	9.821	-0.663	0.498
-64.378	221.928	-0.208	-0.332
-63.363	81.628	-0.425	0.455
-62.349	267.271	0.379	-0.657
-61.334	-23.485	-1.068	-0.635
-60.319	410.823	0.108	0.226
-59.305	800.000	-0.253	-0.813
-58.290	800.000	0.203	0.828
-57.276	84.902	1.535	1.665
-56.261	-200.000	95.271	581.906
-55.246	654.061	1357.940	3448.513
-54.232	199.506	2528.883	3838.317
-53.217	108.754	2281.793	2698.512
-52.203	39.223	2047.001	1812.773
-51.188	34.385	1962.214	1694.734
-50.173	32.744	1945.927	1666.120
-49.159	48.443	1995.925	1849.685
-48.144	49.179	2013.246	1872.249
-47.130	34.982	1976.113	1711.814
-46.115	32.819	1964.549	1682.458
-45.100	32.618	1962.688	1679.006
-44.086	32.580	1959.619	1675.977
-43.071	32.595	1956.443	1673.330
-42.057	32.469	1954.944	1670.864
-41.042	32.561	1952.468	1669.500
-40.027	32.506	1951.290	1667.938
-39.013	32.593	1949.205	1666.859
-37.998	32.600	1946.862	1664.847
-36.984	32.719	1944.776	1664.052
-35.969	32.614	1943.415	1661.897
-34.954	32.793	1940.366	1660.793
-33.940	32.660	1940.799	1659.930
-32.925	32.988	1939.080	1661.279
-31.911	32.888	1937.211	1658.733
-30.896	32.891	1934.662	1656.514
-29.881	32.783	1933.679	1654.656
-28.867	32.657	1933.349	1653.200
-27.852	32.753	1930.975	1651.947
-26.838	32.734	1928.667	1649.742
-25.823	32.818	1926.611	1648.655
-24.809	32.885	1925.288	1648.041
-23.794	32.662	1924.429	1645.296
-22.779	32.710	1922.164	1643.708
-21.765	32.838	1919.375	1642.374
-20.750	33.008	1916.869	1641.645
-19.736	32.837	1916.999	1640.198
-18.721	32.845	1915.642	1639.047
-17.706	32.622	1914.276	1635.875
-16.692	32.817	1912.150	1635.683
-15.677	32.629	1911.758	1633.657
-14.663	32.717	1909.167	1632.135
-13.648	32.899	1907.286	1632.040
-12.633	32.812	1905.992	1630.116
-11.619	32.647	1906.711	1629.236
-10.604	32.699	1904.640	1627.854
-9.590	32.729	1902.516	1626.236
-8.575	32.653	1901.282	1624.457
-7.560	32.557	1901.169	1623.466
-6.546	32.820	1898.815	1623.657
-5.531	32.873	1897.734	1623.123
-4.517	32.701	1897.140	1621.071
-3.502	32.547	1895.397	1618.195
-2.487	32.738	1893.933	1618.522
-1.473	32.757	1893.752	1618.471
-0.458	32.845	1889.109	1615.186
0.556	33.731	1869.509	1585.905
1.571	29.561	1849.745	1534.440
2.586	25.398	1870.760	1516.668
3.600	24.306	1906.293	1535.940
4.615	23.534	1900.230	1524.281
5.629	18.021	1800.141	1398.860
6.644	8.370	1681.359	1232.302
7.659	3.514	1644.379	1168.380
8.673	2.972	1641.845	1162.373
9.688	3.271	1640.326	1163.456
10.702	3.011	1638.559	1160.142
11.717	2.827	1635.453	1156.454
12.731	3.712	1634.039	1162.012
13.746	10.003	1650.059	1220.958
14.761	20.014	1670.754	1312.399
15.775	24.543	1678.071	1352.413
16.790	25.103	1679.266	1357.500
17.804	24.881	1678.815	1355.331
18.819	24.972	1676.926	1354.377
19.834	24.967	1675.795	1353.305
20.848	24.928	1676.092	1353.132
21.863	24.886	1674.665	1351.539
22.877	25.057	1675.075	1353.044
23.892	25.258	1673.106	1352.849
24.907	25.186	1672.889	1352.013
25.921	25.168	1671.879	1350.939
26.936	25.193	1669.828	1349.355
27.950	25.206	1669.652	1349.187
28.965	25.166	1668.722	1348.015
29.980	25.156	1667.955	1347.204
30.994	25.156	1667.106	1346.399
32.009	25.411	1664.750	1346.283
33.023	25.234	1664.483	1344.628
34.038	25.371	1664.439	1345.499
35.053	25.540	1662.302	1344.912
36.067	25.231	1662.044	1342.276
37.082	25.088	1662.158	1341.181
38.096	25.111	1660.125	1339.596
39.111	25.191	1658.746	1338.961
40.126	25.303	1658.555	1339.519
41.140	25.078	1657.447	1336.831
42.155	25.229	1655.820	1336.523
43.169	24.975	1655.778	1334.482
44.184	24.922	1653.918	1332.470
45.199	25.037	1653.493	1332.864
46.213	24.843	1652.251	1330.299
47.228	25.048	1651.220	1330.874
48.242	25.084	1649.516	1329.650
49.257	25.239	1648.849	1330.145
50.271	25.327	1647.449	1329.550
51.286	25.287	1646.444	1328.328
52.301	25.414	1644.966	1327.958
53.315	25.128	1644.296	1325.180
54.330	25.280	1643.263	1325.356
55.344	25.064	1641.210	1321.988
56.359	25.226	1640.042	1322.127
57.374	25.262	1639.822	1322.098
58.388	25.163	1638.994	1320.583
59.403	25.158	1636.558	1318.469
60.417	24.978	1636.409	1316.911
61.432	25.220	1634.488	1317.021
62.447	25.177	1633.465	1315.768
63.461	25.049	1633.220	1314.510
64.476	25.111	1632.113	1313.959
65.490	24.967	1630.487	1311.483
66.505	25.008	1630.695	1311.831
67.520	24.885	1629.255	1309.657
68.534	25.106	1628.147	1310.267
69.549	24.976	1626.782	1308.106
70.563	24.877	1626.420	1306.975
71.578	24.991	1625.094	1306.622
72.593	25.173	1623.609	1306.637
73.607	24.914	1623.006	1304.153
74.622	24.693	1623.031	1302.448
75.636	24.826	1620.747	1301.465
76.651	25.116	1619.229	1302.236
77.666	24.945	1618.246	1300.089
78.680	25.075	1617.910	1300.653
79.695	25.101	1616.334	1299.460
80.709	25.167	1616.358	1299.843
81.724	25.174	1615.926	1299.428
82.739	25.223	1614.887	1298.835
83.753	25.165	1616.002	1299.191
84.768	25.279	1614.144	1298.413
85.782	25.271	1613.599	1297.803
86.797	25.544	1611.696	1298.124
87.812	25.371	1612.153	1297.128
88.826	25.186	1611.327	1295.012
89.841	25.340	1609.630	1294.644
90.855	25.166	1608.720	1292.543
91.870	25.201	1607.921	1292.042
92.884	25.206	1606.935	1291.173
93.899	25.543	1605.249	1292.121
94.914	25.639	1604.026	1291.717
95.928	25.650	1602.578	1290.513
96.943	25.504	1601.988	1288.873
97.957	25.459	1601.215	1287.815
98.972	25.418	1600.011	1286.440
99.987	25.652	1598.077	1286.445
101.001	25.236	1596.984	1282.480
102.016	25.395	1595.379	1282.210
103.030	25.296	1595.061	1281.134
104.045	25.260	1593.794	1279.753
105.060	25.222	1593.242	1278.926
106.074	25.447	1590.694	1278.368
107.089	25.234	1589.984	1276.170
108.103	24.946	1588.168	1272.552
109.118	24.855	1588.173	1271.798
110.133	25.044	1584.529	1270.105
111.147	25.015	1584.514	1269.775
112.162	25.161	1583.368	1269.780
113.176	25.092	1581.554	1267.722
114.191	25.251	1581.514	1268.704
115.206	25.036	1580.568	1266.309
116.220	25.036	1579.695	1265.501
117.235	25.290	1576.526	1264.638
118.249	25.163	1576.479	1263.599
119.264	25.093	1575.423	1262.141
120.279	24.871	1573.649	1259.052
121.293	25.152	1572.370	1259.891
122.308	25.238	1571.437	1259.638
123.322	25.123	1569.836	1257.432
124.337	25.069	1569.036	1256.306
125.352	24.910	1568.016	1254.265
126.366	24.921	1566.735	1253.205
127.381	25.189	1565.362	1253.870
128.395	24.874	1565.574	1251.724
129.410	24.823	1564.891	1250.709
130.424	24.922	1562.084	1249.044
131.439	24.677	1562.142	1247.272
132.454	24.781	1559.985	1246.165
133.468	24.832	1558.632	1245.327
134.483	25.069	1558.086	1246.430
135.497	25.522	1555.891	1247.713
136.512	25.231	1556.291	1245.899
137.527	25.340	1553.458	1244.276
138.541	24.997	1553.821	1242.078
139.556	25.048	1552.192	1241.019
140.570	25.114	1551.380	1240.721
141.585	25.349	1550.393	1241.444
142.600	25.331	1548.924	1240.032
143.614	25.392	1548.716	1240.182
144.629	25.529	1547.559	1240.086
145.643	25.439	1546.860	1238.796
146.658	25.360	1545.137	1236.767
147.673	25.428	1543.898	1236.132
148.687	25.285	1543.718	1234.891
149.702	25.290	1541.666	1233.181
150.716	25.289	1540.975	1232.507
151.731	24.932	1538.867	1228.262
152.746	24.665	1536.087	1224.111
153.760	24.637	1535.901	1223.664
154.775	25.162	1535.592	1226.900
155.789	25.145	1535.376	1226.503
156.804	25.529	1533.258	1227.325
157.819	25.351	1531.904	1224.917
158.833	25.206	1531.949	1223.858
159.848	24.907	1529.160	1219.486
160.862	25.436	1528.935	1222.795
161.877	25.403	1528.177	1221.856
162.892	25.171	1526.815	1219.081
163.906	25.124	1526.551	1218.448
164.921	25.026	1524.773	1216.251
165.935	25.274	1523.533	1216.839
166.950	25.089	1521.631	1213.958
167.964	25.020	1521.675	1213.421
168.979	25.378	1520.830	1215.060
169.994	25.447	1519.815	1214.612
171.008	25.197	1519.773	1212.775
172.023	25.235	1517.543	1211.147
173.037	25.335	1516.656	1211.005
174.052	25.297	1516.010	1210.126
175.067	25.486	1515.230	1210.670
176.081	25.192	1515.359	1208.685
177.096	24.920	1513.738	1205.456
178.110	25.002	1512.160	1204.646
179.125	25.010	1511.547	1204.102
180.140	25.130	1510.108	1203.654
181.154	25.198	1509.139	1203.233
182.169	24.961	1509.075	1201.487
183.183	25.329	1507.139	1202.301
184.198	25.207	1506.834	1201.139
185.213	25.226	1505.025	1199.713
186.227	25.314	1505.175	1200.317
187.242	25.635	1503.985	1201.407
188.256	25.593	1502.167	1199.565
189.271	25.494	1502.892	1199.383
190.286	25.470	1501.099	1197.680
191.300	25.421	1501.491	1197.559
192.315	25.415	1499.032	1195.457
193.329	25.246	1497.383	1192.912
194.344	25.282	1497.017	1192.750
195.359	25.344	1496.397	1192.567
196.373	25.047	1494.761	1189.186
197.388	24.934	1494.445	1188.082
198.402	24.650	1492.549	1184.583
199.417	24.856	1491.285	1184.840
200.432	25.439	1490.875	1188.266
201.446	25.500	1491.638	1189.177
202.461	25.314	1491.439	1187.677
203.475	25.333	1489.420	1186.089
204.490	25.445	1488.107	1185.684
205.504	25.342	1486.591	1183.690
206.519	25.014	1486.104	1181.036
207.534	25.114	1484.639	1180.427
208.548	24.881	1483.352	1177.764
209.563	24.920	1482.737	1177.424
210.577	25.040	1481.779	1177.353
211.592	25.016	1481.196	1176.624
212.607	24.679	1480.729	1173.939
213.621	25.146	1480.023	1176.341
214.636	25.461	1479.824	1178.144
215.650	25.415	1477.971	1176.263
216.665	25.214	1476.994	1174.064
217.680	25.323	1476.993	1174.670
218.694	25.546	1476.291	1175.472
219.709	25.557	1474.802	1174.248
220.723	25.512	1473.569	1172.870
221.738	25.091	1473.546	1170.001
222.753	25.290	1471.843	1169.844
223.767	25.277	1471.628	1169.486
224.782	25.255	1470.378	1168.248
225.796	25.249	1469.537	1167.433
226.811	25.525	1469.885	1169.400
227.826	25.549	1468.517	1168.370
228.840	25.408	1467.284	1166.366
229.855	25.396	1467.183	1166.106
230.869	25.061	1466.045	1162.924
231.884	25.212	1465.679	1163.510
232.899	25.060	1464.698	1161.644
233.913	24.950	1462.673	1159.224
234.928	24.624	1462.095	1156.551
235.942	24.857	1460.011	1156.305
236.957	25.182	1459.318	1157.757
237.972	24.952	1458.382	1155.426
238.986	24.889	1456.376	1153.330
240.001	24.850	1456.161	1152.806
241.015	24.743	1455.907	1151.813
242.030	24.923	1455.005	1152.157
243.045	24.981	1453.793	1151.468
244.059	25.061	1452.939	1151.202
245.074	25.283	1451.288	1151.216
246.088	25.188	1452.056	1151.114
247.103	25.391	1450.465	1151.055
248.117	25.531	1449.084	1150.752
249.132	25.487	1449.793	1150.933
250.147	25.466	1449.289	1150.293
251.161	25.578	1449.501	1151.075
252.176	25.801	1448.341	1151.481
253.190	25.904	1447.926	1151.710
254.205	25.686	1447.228	1149.657
255.220	25.772	1445.812	1148.980
256.234	25.958	1445.318	1149.672
257.249	25.942	1444.719	1148.990
258.263	25.921	1443.779	1148.009
259.278	26.073	1441.399	1146.981
260.293	26.025	1441.151	1146.376
261.307	25.850	1440.497	1144.643
262.322	25.975	1439.737	1144.730
263.336	26.048	1439.502	1144.908
264.351	25.789	1439.657	1143.282
265.366	26.006	1437.019	1142.461
266.380	25.833	1437.189	1141.402
267.395	25.713	1436.591	1140.064
268.409	25.963	1435.264	1140.494
269.424	25.964	1432.590	1138.277
270.439	26.103	1432.208	1138.744
271.453	25.972	1432.177	1137.796
272.468	25.857	1431.057	1136.078
273.482	25.892	1430.468	1135.733
274.497	25.484	1429.664	1132.424
275.512	25.642	1428.348	1132.276
276.526	25.491	1427.846	1130.828
277.541	25.435	1427.420	1130.037
278.555	25.594	1425.778	1129.638
279.570	25.765	1424.965	1129.962
280.585	25.858	1423.821	1129.538
281.599	26.035	1423.656	1130.418
282.614	25.945	1422.344	1128.716
283.628	25.515	1422.739	1126.234
284.643	25.654	1420.431	1125.177
285.657	25.548	1419.842	1123.945
286.672	25.583	1419.595	1123.872
287.687	25.530	1418.331	1122.438
288.701	25.466	1417.273	1121.104
289.716	25.677	1416.861	1121.997
290.730	25.851	1415.020	1121.519
291.745	25.894	1414.497	1121.276
292.760	25.629	1414.119	1119.230
293.774	25.973	1412.244	1119.785
294.789	26.040	1411.375	1119.410
295.803	25.885	1412.500	1119.243
296.818	26.275	1410.374	1119.872
297.833	26.208	1409.116	1118.362
298.847	25.977	1408.519	1116.357
299.862	25.851	1407.997	1115.067
300.876	25.764	1407.952	1114.392
301.891	25.800	1406.406	1113.291
302.906	25.919	1404.986	1112.805
303.920	26.032	1405.008	1113.423
304.935	26.014	1404.403	1112.731
305.949	26.011	1403.679	1112.046
306.964	26.195	1402.275	1111.962
307.979	25.964	1402.884	1110.925
308.993	25.970	1401.120	1109.466
310.008	25.947	1400.175	1108.479
311.022	25.933	1399.901	1108.081
312.037	26.085	1398.289	1107.637
313.052	25.963	1397.434	1106.114
314.066	26.187	1396.664	1106.783
315.081	25.876	1395.935	1104.198
316.095	25.905	1393.896	1102.665
317.110	25.699	1392.547	1100.245
318.125	25.820	1391.984	1100.438
319.139	25.767	1392.389	1100.340
320.154	25.446	1390.810	1097.034
321.168	25.696	1388.736	1096.824
322.183	25.723	1388.056	1096.353
323.197	25.457	1388.079	1094.654
324.212	25.704	1386.188	1094.572
325.227	25.818	1385.895	1094.934
326.241	25.964	1385.080	1095.082
327.256	25.874	1384.870	1094.275
328.270	25.918	1384.383	1094.058
329.285	25.787	1383.231	1092.258
330.300	25.682	1382.159	1090.679
331.314	25.654	1381.379	1089.797
332.329	25.851	1380.356	1090.086
333.343	25.820	1379.362	1089.013
334.358	25.808	1377.849	1087.654
335.373	25.785	1378.137	1087.643
336.387	26.177	1377.943	1089.760
337.402	26.234	1376.259	1088.675
338.416	26.093	1376.443	1087.873
339.431	26.108	1376.117	1087.609
340.446	26.077	1376.311	1087.483
341.460	26.143	1375.241	1086.935
342.475	26.359	1374.048	1087.197
343.489	26.375	1372.464	1085.944
344.504	26.583	1371.720	1086.509
345.519	26.276	1371.574	1084.453
346.533	26.532	1370.443	1084.998
347.548	26.505	1368.624	1083.299
348.562	26.443	1368.227	1082.519
349.577	26.378	1368.244	1082.048
350.592	26.327	1367.326	1080.923
351.606	26.191	1366.228	1079.148
352.621	26.130	1364.529	1077.346
353.635	25.929	1363.103	1074.927
354.650	25.954	1362.531	1074.529
355.665	25.993	1361.325	1073.710
356.679	25.909	1360.973	1072.838
357.694	25.695	1360.410	1071.030
358.708	25.933	1359.414	1071.567
359.723	26.213	1357.214	1071.397
360.738	26.102	1356.767	1070.292
361.752	26.107	1356.424	1069.956
362.767	26.082	1354.780	1068.415
363.781	26.227	1353.841	1068.438
364.796	25.954	1354.145	1066.969
365.810	26.111	1352.570	1066.562
366.825	26.291	1352.260	1067.287
367.840	26.268	1352.130	1066.952
368.854	26.521	1351.324	1067.712
369.869	26.988	1349.826	1069.185
370.883	26.495	1350.191	1066.480
371.898	26.222	1349.812	1064.475
372.913	26.635	1347.747	1065.182
373.927	26.274	1347.269	1062.585
374.942	26.441	1345.516	1062.088
375.956	26.523	1346.103	1062.940
376.971	26.457	1345.443	1061.937
377.986	26.485	1343.966	1060.846
379.000	26.356	1343.170	1059.365
380.015	26.591	1342.812	1060.368
381.029	26.753	1342.013	1060.587
382.044	26.582	1341.789	1059.317
383.059	26.872	1340.971	1060.274
384.073	26.691	1339.481	1057.945
385.088	26.571	1339.766	1057.378
386.102	26.782	1338.034	1057.143
387.117	26.844	1337.358	1056.877
388.132	26.637	1337.376	1055.592
389.146	26.383	1334.882	1052.053
390.161	26.269	1334.860	1051.279
391.175	26.391	1334.347	1051.492
392.190	26.421	1333.003	1050.513
393.205	26.294	1332.545	1049.325
394.219	26.298	1332.931	1049.557
395.234	26.628	1331.515	1050.263
396.248	26.398	1329.925	1047.584
397.263	26.359	1328.424	1046.084
398.278	26.255	1327.017	1044.282
399.292	26.104	1326.208	1042.680
400.307	26.286	1325.728	1043.260
401.321	26.234	1324.778	1042.123
402.336	26.588	1323.740	1043.256
403.350	26.481	1322.426	1041.512
404.365	25.966	1321.896	1038.037
405.380	26.102	1320.589	1037.701
406.394	26.561	1320.082	1039.845
407.409	26.494	1319.801	1039.150
408.423	26.370	1318.729	1037.500
409.438	26.695	1318.921	1039.427
410.453	26.734	1318.737	1039.410
411.467	26.661	1317.064	1037.582
412.482	26.803	1316.450	1037.819
413.496	26.594	1315.711	1035.951
414.511	26.607	1315.608	1035.855
415.526	26.643	1314.738	1035.283
416.540	26.911	1313.375	1035.646
417.555	27.054	1312.685	1035.825
418.569	26.743	1314.102	1035.075
419.584	26.725	1312.268	1033.437
420.599	26.697	1312.453	1033.334
421.613	142.304	1436.218	1791.980
422.628	138.056	1454.192	1792.001
