DTS Sentinel unit serial number:	SN413079Multiplexer serial number:	ORYXHardware model number:	OX4-SRSoftware version number:	ORYX F/W v4.00 Oryx Data Collector v3.7.2.0data status	okinstallation	princeton_trtdifferential loss correction	single-endedforward channel	channel 4reverse channel	N/Adate	2019/09/16time	02:13:35forward acquisition time	60.00reverse acquisition time	0.00gamma	496.2192k internal	0.2321k external	0.2321temperature offset calibration	0.9970default loss term (dB/km)	0.3790temperature slope calibration	1.0000multiplexer offset coefficient	1.0000multiplexer slope coefficient	1.0000fibre end	0.00T internal ref (°C)	27.55T ext. ref 1 (°C)	10.18T ext. ref 2 (°C)	22.49length (m)	temperature (°C)	Stokes	anti-Stokes-747.200	158.189	0.095	0.133
-746.185	-200.000	0.020	0.148
-745.171	35.123	-0.206	0.182
-744.156	-200.000	-0.021	0.278
-743.142	55.186	0.077	0.075
-742.127	-40.786	-0.282	-0.147
-741.112	-200.000	0.005	0.314
-740.098	58.181	-0.126	0.125
-739.083	29.948	-0.133	-0.114
-738.069	209.619	-0.055	0.086
-737.054	-167.021	0.106	-0.004
-736.039	-159.978	-0.197	-0.011
-735.025	125.056	0.473	-0.603
-734.010	-96.350	-0.437	-0.117
-732.996	-91.612	-0.102	-0.029
-731.981	15.982	-0.169	-0.134
-730.966	800.000	-0.045	0.149
-729.952	-152.410	-0.288	-0.021
-728.937	200.607	-0.079	-0.122
-727.923	16.106	0.075	0.059
-726.908	-33.911	-0.255	0.142
-725.894	228.986	0.150	-0.247
-724.879	-73.454	0.175	-0.065
-723.864	234.376	-0.103	0.171
-722.850	346.982	-0.069	-0.138
-721.835	-78.555	-0.256	0.088
-720.821	-63.840	-0.262	0.108
-719.806	-131.888	0.187	0.025
-718.791	800.000	0.025	0.074
-717.777	-101.702	-0.327	-0.080
-716.762	-200.000	-0.038	0.312
-715.748	-55.011	0.068	-0.031
-714.733	-24.262	0.149	0.090
-713.718	50.979	0.220	-0.211
-712.704	565.119	-0.045	-0.109
-711.689	-155.839	-0.058	-0.004
-710.675	-82.858	-0.302	0.099
-709.660	-137.980	0.169	-0.019
-708.645	-17.456	0.192	0.122
-707.631	11.511	0.056	-0.043
-706.616	442.156	-0.144	-0.317
-705.602	162.942	-0.292	-0.414
-704.587	-200.000	0.051	-0.258
-703.572	-200.000	0.038	-0.220
-702.558	-200.000	0.023	-0.176
-701.543	-110.591	-0.122	0.025
-700.529	-200.000	-0.009	0.350
-699.514	-93.578	-0.193	-0.054
-698.499	438.960	0.112	-0.247
-697.485	800.000	-0.045	-0.178
-696.470	-200.000	0.046	-0.341
-695.456	332.502	-0.060	0.117
-694.441	-111.433	-0.180	-0.037
-693.426	-70.869	0.256	0.097
-692.412	-200.000	-0.063	-0.407
-691.397	30.273	0.193	0.166
-690.383	50.811	-0.229	0.219
-689.368	-200.000	0.016	-0.143
-688.354	-200.000	0.005	-0.318
-687.339	-59.037	-0.315	-0.137
-686.324	-130.056	0.249	0.034
-685.310	-81.698	-0.136	-0.045
-684.295	24.664	-0.032	0.027
-683.281	754.850	-0.145	-0.396
-682.266	194.248	0.157	0.239
-681.251	264.943	0.149	-0.263
-680.237	370.545	0.283	0.578
-679.222	-36.689	0.229	0.124
-678.208	-200.000	0.025	-0.355
-677.193	653.943	0.188	-0.486
-676.178	118.708	-0.180	-0.224
-675.164	39.062	-0.237	-0.213
-674.149	-126.844	0.200	0.030
-673.135	-115.684	-0.311	-0.059
-672.120	-25.233	-0.088	0.052
-671.105	-117.639	-0.130	0.024
-670.091	138.065	0.114	-0.151
-669.076	-7.703	-0.115	-0.078
-668.062	693.192	-0.012	-0.031
-667.047	302.061	-0.214	-0.399
-666.032	-34.520	-0.082	0.045
-665.018	-100.472	0.106	0.026
-664.003	271.085	-0.108	-0.192
-662.989	-163.751	-0.104	-0.005
-661.974	-200.000	-0.015	0.077
-660.959	-159.946	-0.333	0.018
-659.945	80.528	0.156	-0.169
-658.930	64.394	0.240	-0.244
-657.916	321.829	-0.142	0.272
-656.901	-95.081	-0.296	-0.080
-655.886	-143.063	-0.141	-0.014
-654.872	-98.465	0.145	-0.037
-653.857	280.286	-0.039	-0.070
-652.843	99.245	0.140	-0.163
-651.828	622.470	0.139	-0.352
-650.814	540.834	-0.128	-0.307
-649.799	-112.260	0.144	-0.029
-648.784	-200.000	0.015	-0.176
-647.770	162.978	0.260	0.367
-646.755	140.526	0.418	0.556
-645.741	-150.492	-0.266	-0.021
-644.726	-200.000	-0.038	0.300
-643.711	-13.885	-0.142	-0.092
-642.697	191.023	-0.113	-0.171
-641.682	59.638	0.084	0.084
-640.668	-73.252	-0.214	-0.079
-639.653	521.507	-0.056	-0.132
-638.638	-125.160	0.082	-0.013
-637.624	-148.844	0.350	-0.029
-636.609	39.437	-0.178	0.161
-635.595	484.350	-0.021	-0.048
-634.580	-159.016	-0.393	-0.022
-633.565	95.195	0.126	-0.145
-632.551	-200.000	-0.026	-0.184
-631.536	42.065	-0.111	0.102
-630.522	-200.000	-0.019	0.180
-629.507	-77.333	-0.166	0.058
-628.492	800.000	0.056	0.169
-627.478	-23.897	0.129	-0.077
-626.463	-200.000	-0.007	-0.107
-625.449	800.000	-0.146	-0.438
-624.434	209.093	-0.084	-0.132
-623.419	-3.733	0.146	-0.102
-622.405	709.932	-0.053	-0.142
-621.390	800.000	-0.065	0.245
-620.376	-200.000	-0.047	-0.226
-619.361	-87.229	-0.277	0.085
-618.346	-34.932	-0.325	-0.179
-617.332	-116.625	0.134	-0.025
-616.317	-114.478	-0.137	0.026
-615.303	399.621	0.082	-0.172
-614.288	74.508	0.205	0.217
-613.273	-200.000	-0.030	0.179
-612.259	317.954	0.070	0.134
-611.244	46.203	0.232	0.216
-610.230	-40.864	-0.401	-0.208
-609.215	-4.890	-0.101	0.070
-608.201	724.958	-0.090	0.240
-607.186	212.449	-0.117	-0.186
-606.171	129.513	-0.105	0.134
-605.157	168.326	-0.177	-0.254
-604.142	-113.993	-0.050	0.010
-603.128	-105.044	0.172	0.040
-602.113	800.000	0.081	-0.231
-601.098	115.874	0.227	0.279
-600.084	317.969	0.133	0.254
-599.069	-100.062	-0.145	0.036
-598.055	-51.936	-0.323	0.151
-597.040	-102.907	-0.152	0.036
-596.025	163.404	-0.100	0.141
-595.011	-44.383	0.177	0.089
-593.996	-200.000	-0.049	-0.329
-592.982	161.602	0.217	0.305
-591.967	-120.521	0.275	-0.047
-590.952	-143.332	-0.235	0.023
-589.938	463.526	-0.116	-0.261
-588.923	-139.904	0.440	-0.047
-587.909	24.512	0.179	-0.149
-586.894	-100.827	-0.068	0.017
-585.879	800.000	0.044	0.132
-584.865	-200.000	0.053	0.362
-583.850	191.070	0.109	0.164
-582.836	367.960	0.093	0.188
-581.821	-14.372	-0.123	0.080
-580.806	-200.000	0.011	-0.119
-579.792	48.307	0.173	-0.162
-578.777	800.000	-0.022	-0.064
-577.763	-200.000	-0.058	-0.345
-576.748	800.000	-0.117	-0.385
-575.733	-200.000	0.003	-0.020
-574.719	-158.043	-0.129	-0.008
-573.704	-91.095	-0.332	-0.096
-572.690	107.979	0.053	-0.064
-571.675	800.000	-0.018	0.064
-570.661	-86.101	0.093	-0.029
-569.646	785.193	-0.057	-0.157
-568.631	35.728	0.170	0.150
-567.617	-177.341	-0.373	-0.009
-566.602	-104.783	0.184	0.042
-565.588	251.792	-0.092	-0.158
-564.573	-200.000	0.032	-0.408
-563.558	800.000	-0.099	-0.283
-562.544	-200.000	0.029	-0.224
-561.529	558.684	-0.046	0.112
-560.515	411.516	0.033	-0.071
-559.500	487.046	-0.169	0.386
-558.485	-29.056	0.324	0.187
-557.471	-200.000	-0.031	0.351
-556.456	-41.610	0.230	0.119
-555.442	29.200	0.186	0.158
-554.427	295.888	-0.042	0.078
-553.412	-153.293	0.370	0.026
-552.398	-139.641	0.167	-0.018
-551.383	-38.765	-0.462	-0.245
-550.369	-200.000	-0.031	-0.159
-549.354	-200.000	0.021	0.094
-548.339	-200.000	0.022	0.137
-547.325	-200.000	0.060	0.345
-546.310	-125.955	-0.112	0.017
-545.296	222.260	0.099	-0.159
-544.281	123.595	-0.178	-0.224
-543.266	-135.327	0.417	0.050
-542.252	-163.539	-0.258	0.012
-541.237	-149.653	-0.166	-0.013
-540.223	-148.540	-0.345	0.028
-539.208	-132.653	-0.132	-0.017
-538.193	-12.259	-0.065	0.042
-537.179	-104.286	-0.552	-0.128
-536.164	-200.000	-0.002	0.213
-535.150	95.145	0.156	0.178
-534.135	74.131	-0.218	0.229
-533.121	291.501	0.095	-0.174
-532.106	198.646	0.161	0.247
-531.091	389.106	0.061	0.126
-530.077	-50.225	-0.261	-0.124
-529.062	-27.865	0.111	-0.065
-528.048	-9.186	0.224	-0.150
-527.033	126.560	0.147	-0.186
-526.018	12.297	-0.203	0.157
-525.004	-2.158	-0.102	-0.072
-523.989	-200.000	-0.006	-0.245
-522.975	222.465	-0.084	0.136
-521.960	74.345	-0.098	-0.103
-520.945	93.492	-0.114	0.129
-519.931	-106.097	-0.043	-0.010
-518.916	546.989	0.004	0.010
-517.902	-150.238	-0.214	0.017
-516.887	-188.258	-0.121	-0.002
-515.872	-78.312	-0.236	0.081
-514.858	83.623	0.084	-0.091
-513.843	-15.362	-0.233	0.149
-512.829	-83.638	0.388	0.124
-511.814	-200.000	-0.038	-0.390
-510.799	800.000	-0.070	-0.247
-509.785	-133.238	-0.159	-0.020
-508.770	-200.000	0.069	-0.368
-507.756	120.399	0.070	-0.087
-506.741	-51.711	0.029	0.013
-505.726	160.476	0.158	0.221
-504.712	370.659	-0.094	0.191
-503.697	6.180	0.314	0.233
-502.683	-200.000	0.044	0.420
-501.668	-200.000	-0.013	0.071
-500.653	-195.421	-0.213	0.002
-499.639	104.250	0.133	0.157
-498.624	-85.190	-0.133	-0.042
-497.610	34.337	-0.151	-0.132
-496.595	434.592	-0.147	-0.319
-495.581	292.326	-0.085	0.156
-494.566	-190.930	0.221	0.002
-493.551	-7.489	0.208	-0.141
-492.537	331.209	0.111	0.214
-491.522	-53.889	-0.165	0.075
-490.508	-0.442	-0.192	0.136
-489.493	71.784	0.051	-0.053
-488.478	-110.074	-0.379	-0.079
-487.464	-63.923	0.125	-0.051
-486.449	-108.992	-0.215	-0.046
-485.435	41.549	-0.210	0.190
-484.420	-59.614	-0.203	0.087
-483.405	-200.000	0.008	0.135
-482.391	231.511	0.059	-0.097
-481.376	-75.240	0.232	0.083
-480.362	10.419	-0.358	0.273
-479.347	47.987	0.148	0.138
-478.332	-200.000	0.042	-0.249
-477.318	125.748	0.116	0.147
-476.303	92.234	0.123	-0.138
-475.289	-200.000	-0.026	0.190
-474.274	197.298	0.036	0.054
-473.259	25.261	0.090	0.075
-472.245	34.670	-0.094	0.083
-471.230	22.258	0.270	0.221
-470.216	58.755	-0.216	-0.212
-469.201	-174.826	0.145	0.004
-468.186	75.268	0.129	0.136
-467.172	-44.912	-0.151	-0.075
-466.157	51.418	0.099	0.094
-465.143	146.002	-0.234	-0.314
-464.128	-101.274	0.278	0.068
-463.113	102.967	0.260	-0.304
-462.099	-116.591	0.038	-0.007
-461.084	295.566	0.158	0.289
-460.070	73.267	-0.323	-0.338
-459.055	303.590	-0.117	-0.217
-458.040	-200.000	0.007	0.130
-457.026	-156.215	-0.048	-0.003
-456.011	3.137	0.158	0.115
-454.997	-92.819	-0.106	-0.030
-453.982	62.124	0.133	-0.133
-452.968	318.782	-0.112	-0.213
-451.953	-131.606	0.433	0.057
-450.938	-200.000	-0.022	-0.151
-449.924	207.943	0.220	-0.344
-448.909	116.178	0.028	-0.035
-447.895	256.462	-0.060	0.103
-446.880	-200.000	-0.102	-0.448
-445.865	-128.557	-0.035	0.005
-444.851	103.143	0.245	0.286
-443.836	-200.000	0.025	0.138
-442.822	-200.000	-0.007	0.075
-441.807	-169.973	-0.176	-0.006
-440.792	-48.938	0.443	-0.212
-439.778	-200.000	0.021	-0.104
-438.763	121.374	0.160	0.199
-437.749	-49.952	0.055	-0.026
-436.734	-200.000	0.044	-0.370
-435.719	-71.727	-0.091	0.034
-434.705	-40.292	0.263	-0.137
-433.690	800.000	-0.037	-0.142
-432.676	-52.750	-0.106	-0.049
-431.661	187.648	-0.070	0.105
-430.646	317.548	0.081	-0.152
-429.632	49.668	-0.226	-0.212
-428.617	-138.127	-0.231	0.026
-427.603	-77.117	0.272	0.095
-426.588	-42.255	0.361	0.184
-425.573	365.900	-0.107	-0.215
-424.559	-44.518	0.164	-0.082
-423.544	23.944	0.100	-0.082
-422.530	214.894	0.034	-0.053
-421.515	-200.000	-0.018	-0.158
-420.500	22.491	0.176	0.144
-419.486	-64.722	-0.179	0.072
-418.471	-126.591	-0.130	0.019
-417.457	68.520	0.210	-0.215
-416.442	-39.505	0.024	-0.012
-415.428	35.407	-0.263	-0.230
-414.413	-124.839	0.012	-0.002
-413.398	-20.677	-0.098	-0.060
-412.384	-142.128	0.071	0.007
-411.369	119.561	-0.087	-0.107
-410.355	14.841	-0.217	0.169
-409.340	-106.658	-0.157	0.035
-408.325	-200.000	-0.038	0.176
-407.311	800.000	-0.060	-0.250
-406.296	-171.118	-0.375	-0.013
-405.282	88.585	-0.108	0.119
-404.267	-200.000	-0.043	-0.209
-403.252	-200.000	0.010	-0.296
-402.238	-102.312	-0.129	0.031
-401.223	-200.000	0.019	0.143
-400.209	-200.000	-0.004	-0.072
-399.194	165.602	0.084	0.118
-398.179	-200.000	-0.006	-0.035
-397.165	-16.316	0.178	-0.112
-396.150	63.176	0.197	-0.197
-395.136	128.040	0.134	-0.170
-394.121	-113.344	-0.194	0.038
-393.106	46.633	-0.130	0.120
-392.092	-130.377	0.246	0.033
-391.077	-200.000	-0.016	0.312
-390.063	-200.000	0.008	-0.144
-389.048	-200.000	0.007	0.064
-388.033	-200.000	-0.008	-0.162
-387.019	288.994	-0.167	-0.302
-386.004	-142.444	-0.240	0.024
-384.990	-9.561	0.315	0.209
-383.975	136.941	0.049	-0.064
-382.960	800.000	0.040	-0.128
-381.946	85.159	-0.272	0.297
-380.931	-86.584	-0.396	0.121
-379.917	-200.000	-0.025	-0.199
-378.902	-124.967	0.349	0.053
-377.888	-10.511	0.340	-0.224
-376.873	-18.693	0.286	-0.177
-375.858	11.148	0.042	0.032
-374.844	-200.000	0.001	-0.113
-373.829	595.448	-0.044	-0.109
-372.815	-200.000	0.000	0.041
-371.800	-37.260	-0.201	-0.107
-370.785	-200.000	-0.040	0.200
-369.771	800.000	0.025	-0.090
-368.756	21.164	0.090	-0.073
-367.742	-200.000	-0.054	-0.548
-366.727	-41.268	-0.371	0.191
-365.712	800.000	-0.067	0.230
-364.698	30.556	-0.051	-0.044
-363.683	-128.436	-0.219	0.031
-362.669	-62.445	0.070	-0.029
-361.654	-3.489	0.024	0.017
-360.639	747.939	0.180	-0.483
-359.625	800.000	-0.042	-0.152
-358.610	-200.000	-0.010	0.052
-357.596	14.674	0.109	0.085
-356.581	105.822	-0.154	0.182
-355.566	-58.285	-0.289	0.125
-354.552	242.021	-0.135	0.225
-353.537	116.342	-0.081	-0.099
-352.523	800.000	-0.048	0.192
-351.508	-169.131	-0.279	0.010
-350.493	44.512	-0.104	0.095
-349.479	-139.912	0.188	0.020
-348.464	-177.544	0.332	-0.008
-347.450	-48.405	-0.328	0.157
-346.435	57.490	0.218	-0.212
-345.420	-121.159	-0.365	-0.061
-344.406	-200.000	0.036	0.248
-343.391	-114.345	-0.126	-0.024
-342.377	186.265	0.045	-0.067
-341.362	-200.000	-0.036	-0.158
-340.348	54.635	0.459	-0.441
-339.333	-131.206	0.475	0.063
-338.318	43.103	-0.227	-0.206
-337.304	-152.809	-0.257	-0.018
-336.289	34.450	0.255	0.222
-335.275	800.000	0.047	0.203
-334.260	76.978	-0.172	-0.182
-333.245	800.000	-0.078	-0.227
-332.231	276.693	0.010	-0.018
-331.216	-200.000	0.054	0.415
-330.202	-118.601	-0.063	0.011
-329.187	264.440	-0.129	-0.223
-328.172	-200.000	-0.001	-0.256
-327.158	-200.000	-0.005	-0.122
-326.143	-16.364	-0.091	-0.057
-325.129	-129.467	0.035	0.005
-324.114	-14.034	-0.101	0.065
-323.099	-55.533	0.190	0.084
-322.085	-200.000	-0.024	-0.112
-321.070	-200.000	0.011	-0.266
-320.056	-4.334	0.046	-0.032
-319.041	-48.955	0.221	-0.105
-318.026	-68.561	-0.290	0.112
-317.012	104.414	0.075	-0.088
-315.997	-139.761	0.118	-0.013
-314.983	-59.710	-0.150	-0.064
-313.968	-94.668	-0.080	-0.022
-312.953	-200.000	-0.065	0.328
-311.939	152.331	-0.038	0.051
-310.924	19.709	0.094	-0.075
-309.910	-108.360	0.394	0.084
-308.895	-196.565	0.231	-0.002
-307.880	-139.786	0.178	0.019
-306.866	800.000	-0.136	0.396
-305.851	-120.513	-0.139	0.023
-304.837	-144.114	0.150	-0.014
-303.822	-83.052	0.428	0.137
-302.807	-53.605	-0.136	0.062
-301.793	13.023	0.276	0.212
-300.778	-200.000	0.047	0.250
-299.764	35.079	0.041	-0.036
-298.749	68.978	0.158	-0.161
-297.735	96.893	-0.146	-0.166
-296.720	276.873	-0.109	0.192
-295.705	722.293	0.109	0.288
-294.691	-27.795	-0.334	0.192
-293.676	-200.000	-0.022	0.160
-292.662	-148.193	-0.108	0.009
-291.647	535.258	-0.055	0.130
-290.632	546.469	0.170	-0.404
-289.618	-118.572	0.266	-0.047
-288.603	142.031	0.180	0.237
-287.589	800.000	-0.077	0.281
-286.574	-35.735	-0.116	-0.062
-285.559	125.792	-0.122	-0.153
-284.545	132.648	0.111	0.142
-283.530	-58.164	-0.143	-0.062
-282.516	-152.280	-0.084	-0.006
-281.501	-112.718	0.381	-0.075
-280.486	-41.076	0.402	0.206
-279.472	44.888	-0.112	0.102
-278.457	800.000	0.049	-0.197
-277.443	-127.409	0.205	0.030
-276.428	-200.000	0.064	0.324
-275.413	-200.000	0.024	-0.268
-274.399	-64.078	-0.145	0.059
-273.384	-121.700	0.121	-0.020
-272.370	133.927	0.071	0.091
-271.355	566.602	-0.108	0.259
-270.340	-200.000	0.024	0.207
-269.326	-200.000	-0.015	0.176
-268.311	800.000	-0.045	-0.183
-267.297	-32.711	0.221	0.122
-266.282	-83.806	-0.200	-0.063
-265.267	-40.395	0.159	-0.082
-264.253	376.002	0.047	0.095
-263.238	-200.000	-0.021	-0.103
-262.224	800.000	-0.037	-0.153
-261.209	-12.547	-0.173	-0.112
-260.195	162.349	0.091	-0.127
-259.180	-1.308	0.127	-0.089
-258.165	-122.720	0.469	-0.075
-257.151	-200.000	0.002	0.239
-256.136	800.000	-0.068	0.236
-255.122	-25.690	0.070	0.041
-254.107	-116.020	-0.255	0.047
-253.092	-100.110	0.359	-0.089
-252.078	163.743	-0.117	-0.164
-251.063	-200.000	-0.027	-0.289
-250.049	-200.000	-0.044	0.428
-249.034	269.983	-0.153	0.266
-248.019	-200.000	0.002	0.379
-247.005	165.358	0.264	-0.370
-245.990	-200.000	0.020	-0.526
-244.976	-200.000	-0.017	0.133
-243.961	-130.572	0.022	0.003
-242.946	-41.151	0.039	0.020
-241.932	363.126	0.159	-0.317
-240.917	800.000	-0.046	-0.186
-239.903	-200.000	0.003	-0.069
-238.888	262.198	-0.211	-0.363
-237.873	800.000	0.011	0.049
-236.859	376.611	0.059	0.119
-235.844	108.527	0.127	-0.150
-234.830	73.657	-0.132	0.137
-233.815	-165.457	-0.193	-0.008
-232.800	-105.960	-0.248	0.055
-231.786	448.927	-0.071	0.155
-230.771	-200.000	-0.004	-0.032
-229.757	-29.724	-0.213	0.120
-228.742	-27.241	-0.372	-0.215
-227.727	-200.000	0.056	0.327
-226.713	181.697	-0.160	0.234
-225.698	226.313	-0.038	-0.062
-224.684	1.850	0.168	0.120
-223.669	-89.039	-0.191	0.056
-222.655	-66.909	-0.445	0.174
-221.640	296.143	0.076	0.137
-220.625	-106.242	0.096	0.021
-219.611	26.788	0.203	-0.168
-218.596	-200.000	0.028	0.370
-217.582	79.921	0.125	0.133
-216.567	443.974	-0.104	-0.226
-215.552	-46.949	-0.252	0.122
-214.538	-200.000	-0.033	0.363
-213.523	-200.000	-0.033	0.217
-212.509	191.495	0.143	0.213
-211.494	199.098	-0.262	-0.398
-210.479	-144.304	0.390	0.036
-209.465	-200.000	-0.039	0.397
-208.450	353.125	0.107	-0.210
-207.436	-200.000	-0.001	-0.057
-206.421	-27.027	0.186	-0.107
-205.406	-200.000	-0.015	-0.160
-204.392	250.222	0.069	0.115
-203.377	584.778	0.118	-0.287
-202.363	565.775	0.050	-0.120
-201.348	-200.000	0.044	0.195
-200.333	800.000	0.102	0.368
-199.319	369.851	-0.097	0.194
-198.304	501.173	-0.080	0.182
-197.290	465.274	-0.027	0.059
-196.275	800.000	-0.049	-0.144
-195.260	-115.310	0.237	0.044
-194.246	-200.000	-0.005	-0.077
-193.231	-200.000	-0.033	-0.234
-192.217	95.780	0.070	0.080
-191.202	326.863	-0.079	0.149
-190.187	-200.000	0.050	0.401
-189.173	-200.000	0.018	-0.443
-188.158	-200.000	-0.001	0.130
-187.144	-64.057	0.419	0.169
-186.129	27.927	0.056	-0.047
-185.114	800.000	0.058	-0.177
-184.100	-200.000	-0.030	0.353
-183.085	-152.870	-0.117	-0.008
-182.071	464.980	-0.045	-0.099
-181.056	125.451	-0.217	-0.271
-180.042	134.588	0.116	0.148
-179.027	-152.086	-0.207	0.015
-178.012	331.792	-0.127	-0.242
-176.998	-200.000	0.067	0.400
-175.983	-62.278	-0.147	0.061
-174.969	194.292	0.194	0.290
-173.954	-94.916	0.192	-0.051
-172.939	-200.000	0.002	0.251
-171.925	283.397	-0.130	-0.230
-170.910	800.000	-0.121	-0.460
-169.896	-180.000	0.075	0.002
-168.881	-44.721	0.174	-0.086
-167.866	-200.000	0.018	-0.379
-166.852	-83.708	-0.299	-0.094
-165.837	481.252	0.144	0.323
-164.823	31.808	-0.207	0.176
-163.808	8.464	-0.033	-0.025
-162.793	-200.000	-0.026	-0.171
-161.779	-200.000	0.033	-0.211
-160.764	781.566	-0.140	-0.380
-159.750	-84.195	0.182	-0.057
-158.735	-16.325	0.274	0.172
-157.720	326.120	0.087	0.164
-156.706	-130.083	-0.158	0.021
-155.691	333.859	0.102	-0.195
-154.677	-109.637	0.086	-0.018
-153.662	-122.201	0.164	-0.026
-152.647	47.870	0.054	-0.050
-151.633	-2.605	0.262	0.181
-150.618	160.654	0.016	0.022
-149.604	337.041	-0.051	0.098
-148.589	-0.359	0.348	-0.244
-147.574	-90.807	0.315	0.090
-146.560	12.048	-0.285	0.216
-145.545	353.403	-0.132	0.259
-144.531	-123.048	0.135	0.021
-143.516	19.086	-0.122	-0.097
-142.502	7.711	0.317	-0.234
-141.487	-200.000	0.017	0.201
-140.472	800.000	-0.043	0.166
-139.458	-80.692	0.248	-0.081
-138.443	20.012	0.178	-0.142
-137.429	485.506	-0.107	-0.241
-136.414	-200.000	0.022	0.189
-135.399	114.380	-0.079	-0.095
-134.385	163.484	0.103	0.143
-133.370	-200.000	-0.027	0.209
-132.356	-113.347	-0.241	-0.047
-131.341	-89.038	0.330	-0.096
-130.326	-68.759	0.297	0.113
-129.312	-16.569	0.199	0.124
-128.297	28.948	0.224	0.187
-127.283	800.000	0.070	-0.283
-126.268	-144.990	0.121	-0.011
-125.253	142.210	-0.212	0.277
-124.239	198.596	-0.177	0.268
-123.224	-200.000	-0.197	-0.001
-122.210	-200.000	-0.017	-0.203
-121.195	-67.317	0.337	0.131
-120.180	86.605	0.047	-0.051
-119.166	-173.018	0.169	0.005
-118.151	-59.631	-0.354	-0.150
-117.137	-68.279	-0.065	0.025
-116.122	-200.000	-0.007	0.157
-115.107	-119.794	-0.227	-0.039
-114.093	-200.000	0.179	0.001
-113.078	89.217	-0.136	-0.149
-112.064	-73.529	0.203	-0.073
-111.049	-169.877	-0.320	-0.011
-110.034	-164.378	-0.169	-0.008
-109.020	-6.480	0.172	-0.115
-108.005	800.000	0.054	-0.183
-106.991	275.166	-0.127	-0.222
-105.976	800.000	-0.071	-0.300
-104.962	-146.742	-0.107	-0.009
-103.947	160.002	-0.149	-0.205
-102.932	539.956	0.090	-0.211
-101.918	-200.000	0.008	0.159
-100.903	536.653	-0.076	-0.177
-99.889	21.458	0.123	0.099
-98.874	13.199	-0.108	-0.082
-97.859	-30.814	0.127	-0.071
-96.845	-200.000	0.024	-0.261
-95.830	-42.622	-0.359	-0.180
-94.816	-129.128	-0.050	0.007
-93.801	41.693	0.231	-0.206
-92.786	63.159	-0.188	0.186
-91.772	80.357	0.278	0.295
-90.757	412.954	0.039	-0.082
-89.743	800.000	-0.064	-0.184
-88.728	-46.111	0.196	0.095
-87.713	114.460	0.076	-0.092
-86.699	-104.289	-0.352	-0.081
-85.684	-67.730	0.254	-0.098
-84.670	378.363	0.109	0.220
-83.655	702.527	0.076	0.197
-82.640	49.043	-0.178	0.165
-81.626	-106.437	-0.070	0.016
-80.611	146.834	0.197	0.261
-79.597	-200.000	0.025	-0.167
-78.582	766.346	0.132	-0.354
-77.567	111.672	-0.092	-0.109
-76.553	300.084	0.123	-0.223
-75.538	33.459	-0.075	0.064
-74.524	-87.432	0.085	0.025
-73.509	-55.785	0.096	0.042
-72.494	183.750	-0.037	0.054
-71.480	58.346	0.107	0.104
-70.465	-101.201	0.075	-0.018
-69.451	-21.493	0.152	-0.091
-68.436	800.000	-0.059	-0.198
-67.422	103.192	-0.060	0.069
-66.407	-200.000	0.050	0.311
-65.392	-200.000	0.038	-0.270
-64.378	732.700	0.043	-0.112
-63.363	11.316	0.192	0.145
-62.349	259.476	-0.020	0.034
-61.334	268.456	-0.699	-1.205
-60.319	44.084	0.487	0.439
-59.305	461.970	-0.443	-0.972
-58.290	212.089	0.625	0.969
-57.276	800.000	0.431	1.452
-56.261	-200.000	112.340	645.284
-55.246	474.492	1498.986	3327.794
-54.232	145.412	2674.717	3523.668
-53.217	95.228	2319.857	2600.288
-52.203	33.999	2068.794	1772.721
-51.188	29.271	1983.257	1656.970
-50.173	27.824	1966.481	1629.983
-49.159	46.408	2023.528	1845.970
-48.144	45.498	2039.736	1852.455
-47.130	29.923	1998.952	1675.727
-46.115	27.570	1988.848	1645.960
-45.100	27.467	1985.945	1642.567
-44.086	27.522	1983.694	1641.141
-43.071	27.442	1981.030	1638.152
-42.057	27.388	1979.428	1636.275
-41.042	27.437	1977.125	1634.741
-40.027	27.402	1975.633	1633.133
-39.013	27.378	1973.625	1631.189
-37.998	27.490	1971.609	1630.464
-36.984	27.566	1970.067	1629.803
-35.969	27.509	1968.390	1627.844
-34.954	27.466	1966.526	1625.850
-33.940	27.531	1964.861	1624.991
-32.925	27.543	1962.977	1623.475
-31.911	27.496	1962.028	1622.210
-30.896	27.530	1959.851	1620.649
-29.881	27.602	1958.335	1619.965
-28.867	27.611	1956.583	1618.532
-27.852	27.533	1955.378	1616.776
-26.838	27.595	1953.262	1615.515
-25.823	27.580	1951.690	1614.021
-24.809	27.578	1950.389	1612.859
-23.794	27.629	1947.870	1611.164
-22.779	27.622	1945.566	1609.130
-21.765	27.533	1944.801	1607.653
-20.750	27.541	1943.028	1606.194
-19.736	27.611	1940.932	1605.011
-18.721	27.577	1939.856	1603.759
-17.706	27.536	1938.048	1601.845
-16.692	27.562	1936.222	1600.501
-15.677	27.588	1935.025	1599.668
-14.663	27.560	1933.652	1598.224
-13.648	27.661	1932.162	1597.822
-12.633	27.520	1931.236	1595.758
-11.619	27.524	1929.627	1594.393
-10.604	27.574	1928.692	1594.001
-9.590	27.541	1926.959	1592.215
-8.575	27.551	1925.673	1591.178
-7.560	27.631	1924.472	1590.817
-6.546	27.515	1923.313	1588.786
-5.531	27.541	1921.987	1587.851
-4.517	27.571	1920.539	1586.851
-3.502	27.614	1919.714	1586.483
-2.487	27.616	1918.094	1585.102
-1.473	27.594	1917.304	1584.194
-0.458	27.677	1912.732	1581.072
0.556	25.566	1893.423	1554.036
1.571	21.679	1875.202	1505.605
2.586	18.131	1898.301	1493.085
3.600	17.270	1933.863	1513.263
4.615	17.274	1928.126	1508.678
5.629	15.569	1835.961	1422.014
6.644	12.341	1730.460	1314.388
7.659	10.407	1699.455	1275.511
8.673	10.158	1696.237	1271.029
9.688	10.262	1695.350	1271.065
10.702	10.165	1693.910	1269.111
11.717	10.126	1690.135	1265.867
12.731	10.254	1688.752	1265.722
13.746	12.798	1693.843	1289.356
14.761	16.120	1700.385	1320.273
15.775	17.596	1701.878	1332.866
16.790	17.216	1700.032	1328.338
17.804	16.124	1696.599	1317.016
18.819	15.138	1693.168	1306.542
19.834	14.482	1690.825	1299.511
20.848	14.017	1689.312	1294.609
21.863	13.847	1687.528	1291.805
22.877	13.598	1685.720	1288.369
23.892	13.374	1684.672	1285.714
24.907	13.280	1683.652	1284.092
25.921	13.236	1682.587	1282.825
26.936	13.192	1681.618	1281.632
27.950	13.337	1680.520	1281.806
28.965	13.363	1680.252	1281.690
29.980	13.332	1679.267	1280.584
30.994	13.437	1678.079	1280.380
32.009	13.486	1676.673	1279.574
33.023	13.622	1675.213	1279.391
34.038	13.583	1675.141	1278.924
35.053	13.512	1674.100	1277.469
36.067	13.442	1672.864	1275.870
37.082	13.501	1671.341	1275.054
38.096	13.387	1670.508	1273.430
39.111	13.426	1669.914	1273.161
40.126	13.508	1669.033	1273.004
41.140	13.472	1667.946	1271.786
42.155	13.386	1666.085	1269.595
43.169	13.255	1665.136	1267.761
44.184	13.228	1663.831	1266.447
45.199	13.313	1662.344	1265.852
46.213	13.186	1661.592	1264.198
47.228	13.263	1660.138	1263.568
48.242	13.331	1658.733	1262.907
49.257	13.324	1658.154	1262.296
50.271	13.406	1656.227	1261.348
51.286	13.335	1655.271	1259.962
52.301	13.338	1653.921	1258.851
53.315	13.436	1652.233	1258.200
54.330	13.362	1650.661	1256.324
55.344	13.314	1649.094	1254.661
56.359	13.297	1647.847	1253.470
57.374	13.274	1646.828	1252.407
58.388	13.307	1645.395	1251.462
59.403	13.291	1644.231	1250.346
60.417	13.222	1642.779	1248.603
61.432	13.247	1641.557	1247.753
62.447	13.213	1640.590	1246.650
63.461	13.099	1639.749	1245.042
64.476	13.142	1638.884	1244.604
65.490	13.104	1637.569	1243.205
66.505	13.147	1635.953	1242.194
67.520	13.132	1635.124	1241.337
68.534	13.051	1634.618	1240.242
69.549	13.167	1633.448	1240.112
70.563	13.168	1632.003	1238.911
71.578	13.192	1630.503	1237.841
72.593	13.103	1629.732	1236.484
73.607	13.079	1628.343	1235.138
74.622	13.038	1627.276	1233.917
75.636	13.122	1626.358	1233.736
76.651	12.989	1625.979	1232.349
77.666	13.020	1625.095	1231.802
78.680	13.032	1623.996	1230.947
79.695	13.089	1623.093	1230.578
80.709	13.081	1622.288	1229.799
81.724	13.108	1621.660	1229.416
82.739	13.219	1620.627	1229.347
83.753	13.214	1619.527	1228.366
84.768	13.398	1618.403	1228.775
85.782	13.417	1617.502	1228.123
86.797	13.427	1616.874	1227.608
87.812	13.421	1616.294	1227.021
88.826	13.388	1614.726	1225.475
89.841	13.338	1613.806	1224.295
90.855	13.345	1612.830	1223.504
91.870	13.403	1611.324	1222.679
92.884	13.354	1610.721	1221.754
93.899	13.338	1609.709	1220.757
94.914	13.487	1607.867	1220.354
95.928	13.476	1606.720	1219.292
96.943	13.559	1605.469	1218.844
97.957	13.415	1604.554	1216.986
98.972	13.473	1602.265	1215.565
99.987	13.477	1600.849	1214.411
101.001	13.419	1599.887	1213.151
102.016	13.445	1597.715	1211.584
103.030	13.399	1596.625	1210.316
104.045	13.420	1595.372	1209.409
105.060	13.445	1594.059	1208.491
106.074	13.445	1592.131	1206.923
107.089	13.254	1591.126	1204.664
108.103	13.157	1589.560	1202.669
109.118	13.207	1587.901	1201.670
110.133	13.108	1586.900	1200.084
111.147	13.245	1584.973	1199.519
112.162	13.215	1583.805	1198.304
113.176	13.190	1582.708	1197.189
114.191	13.286	1581.318	1196.727
115.206	13.259	1579.862	1195.327
116.220	13.333	1577.873	1194.249
117.235	13.322	1576.623	1193.119
118.249	13.279	1575.160	1191.594
119.264	13.263	1574.131	1190.596
120.279	13.171	1573.129	1189.074
121.293	13.222	1571.467	1188.078
122.308	13.270	1569.570	1186.882
123.322	13.175	1568.505	1185.290
124.337	13.149	1567.020	1183.875
125.352	13.168	1565.917	1183.076
126.366	13.114	1564.847	1181.778
127.381	13.196	1563.158	1180.982
128.395	13.065	1562.851	1179.708
129.410	13.143	1561.257	1178.954
130.424	13.267	1559.422	1178.350
131.439	13.197	1558.441	1177.009
132.454	13.284	1556.980	1176.421
133.468	13.233	1555.817	1175.074
134.483	13.318	1553.949	1174.161
135.497	13.367	1552.517	1173.322
136.512	13.289	1551.471	1171.877
137.527	13.277	1550.197	1170.727
138.541	13.276	1548.677	1169.469
139.556	13.334	1547.152	1168.623
140.570	13.381	1545.739	1167.783
141.585	13.348	1544.725	1166.683
142.600	13.400	1543.585	1166.084
143.614	13.540	1542.248	1165.956
144.629	13.494	1540.908	1164.518
145.643	13.615	1539.651	1164.310
146.658	13.595	1538.305	1163.055
147.673	13.616	1536.435	1161.679
148.687	13.586	1534.898	1160.210
149.702	13.576	1533.099	1158.677
150.716	13.459	1531.960	1156.893
151.731	13.458	1530.419	1155.621
152.746	13.411	1529.294	1154.339
153.760	13.531	1527.571	1153.772
154.775	13.455	1526.696	1152.482
155.789	13.527	1525.165	1151.726
156.804	13.549	1524.233	1151.071
157.819	13.522	1523.069	1149.902
158.833	13.540	1521.715	1148.906
159.848	13.631	1520.541	1148.545
160.862	13.666	1519.419	1147.842
161.877	13.716	1518.082	1147.079
162.892	13.615	1517.106	1145.537
163.906	13.646	1515.595	1144.510
164.921	13.516	1514.291	1142.529
165.935	13.596	1513.479	1142.363
166.950	13.570	1512.343	1141.228
167.964	13.554	1511.115	1140.092
168.979	13.620	1510.110	1139.688
169.994	13.655	1509.185	1139.125
171.008	13.642	1507.995	1138.039
172.023	13.596	1507.331	1137.122
173.037	13.639	1505.873	1136.216
174.052	13.767	1504.412	1135.890
175.067	13.800	1503.303	1135.174
176.081	13.595	1502.672	1133.196
177.096	13.669	1500.989	1132.335
178.110	13.551	1500.000	1130.685
179.125	13.646	1498.611	1130.180
180.140	13.716	1497.233	1129.521
181.154	13.690	1496.583	1128.752
182.169	13.700	1495.247	1127.712
183.183	13.716	1494.341	1127.038
184.198	13.837	1492.912	1126.684
185.213	13.864	1492.121	1126.168
186.227	13.849	1491.506	1125.502
187.242	13.911	1489.944	1124.649
188.256	13.970	1488.627	1123.953
189.271	13.893	1487.773	1122.684
190.286	13.881	1486.851	1121.812
191.300	13.878	1485.990	1121.038
192.315	13.704	1484.348	1118.532
193.329	13.671	1483.100	1117.267
194.344	13.748	1481.547	1116.519
195.359	13.682	1480.786	1115.402
196.373	13.771	1480.021	1115.323
197.388	13.812	1478.956	1114.700
198.402	13.891	1477.938	1114.365
199.417	13.909	1476.848	1113.563
200.432	13.962	1475.648	1112.912
201.446	13.999	1474.715	1112.364
202.461	14.083	1473.572	1111.961
203.475	14.154	1472.235	1111.328
204.490	14.099	1471.568	1110.359
205.504	14.136	1470.051	1109.366
206.519	14.055	1469.215	1108.093
207.534	14.084	1467.648	1107.009
208.548	14.068	1466.550	1105.977
209.563	14.033	1465.862	1105.124
210.577	14.088	1464.957	1104.712
211.592	14.132	1463.609	1103.888
212.607	14.165	1463.268	1103.750
213.621	14.309	1462.542	1104.061
214.636	14.203	1461.520	1102.490
215.650	14.184	1460.325	1101.364
216.665	14.108	1459.842	1100.403
217.680	14.247	1458.992	1100.581
218.694	14.350	1457.907	1100.345
219.709	14.333	1457.451	1099.793
220.723	14.339	1456.179	1098.774
221.738	14.373	1454.679	1097.771
222.753	14.320	1453.953	1096.778
223.767	14.316	1453.180	1096.072
224.782	14.320	1452.266	1095.312
225.796	14.377	1451.328	1094.879
226.811	14.422	1450.619	1094.547
227.826	14.426	1449.530	1093.654
228.840	14.431	1448.562	1092.859
229.855	14.410	1447.606	1091.905
230.869	14.370	1446.700	1090.861
231.884	14.456	1446.015	1090.809
232.899	14.352	1444.719	1089.055
233.913	14.470	1443.000	1088.433
234.928	14.380	1442.005	1086.998
235.942	14.257	1441.224	1085.516
236.957	14.262	1439.962	1084.498
237.972	14.372	1438.361	1083.916
238.986	14.408	1437.266	1083.225
240.001	14.445	1436.740	1082.974
241.015	14.423	1435.763	1082.002
242.030	14.397	1434.622	1080.875
243.045	14.475	1433.477	1080.421
244.059	14.417	1433.338	1079.849
245.074	14.631	1431.463	1079.723
246.088	14.477	1431.187	1078.425
247.103	14.617	1430.289	1078.558
248.117	14.699	1429.554	1078.435
249.132	14.578	1428.994	1077.139
250.147	14.804	1428.104	1077.831
251.161	14.787	1427.599	1077.240
252.176	14.871	1426.952	1077.199
253.190	14.913	1426.056	1076.700
254.205	14.923	1425.187	1076.011
255.220	14.915	1424.686	1075.490
256.234	15.003	1423.464	1075.033
257.249	15.024	1422.929	1074.672
258.263	14.955	1422.026	1073.453
259.278	14.962	1420.678	1072.382
260.293	14.953	1419.992	1071.710
261.307	15.064	1418.765	1071.399
262.322	14.919	1418.812	1070.413
263.336	15.009	1417.835	1070.160
264.351	15.188	1416.344	1070.084
265.366	15.243	1415.434	1069.648
266.380	15.222	1414.297	1068.561
267.395	15.115	1414.332	1067.814
268.409	15.148	1413.066	1066.974
269.424	15.073	1412.268	1065.795
270.439	15.132	1410.848	1065.010
271.453	15.049	1410.283	1063.956
272.468	15.066	1408.952	1062.968
273.482	15.171	1407.870	1062.725
274.497	15.146	1407.035	1061.842
275.512	15.091	1406.097	1060.689
276.526	15.079	1405.577	1060.130
277.541	15.125	1404.662	1059.638
278.555	15.201	1403.430	1059.094
279.570	15.134	1403.048	1058.286
280.585	15.235	1401.879	1057.953
281.599	15.169	1401.368	1057.054
282.614	15.284	1400.573	1057.087
283.628	15.239	1399.070	1055.573
284.643	15.304	1398.252	1055.272
285.657	15.248	1397.060	1053.931
286.672	15.264	1396.377	1053.422
287.687	15.279	1395.272	1052.586
288.701	15.327	1393.772	1051.667
289.716	15.394	1393.362	1051.683
290.730	15.413	1392.333	1050.931
291.745	15.420	1391.326	1050.120
292.760	15.456	1390.298	1049.481
293.774	15.431	1389.370	1048.528
294.789	15.355	1388.734	1047.481
295.803	15.490	1387.678	1047.437
296.818	15.518	1386.922	1046.945
297.833	15.467	1386.137	1045.943
298.847	15.415	1385.373	1044.947
299.862	15.406	1384.140	1043.869
300.876	15.438	1383.132	1043.216
301.891	15.564	1381.944	1043.013
302.906	15.510	1381.700	1042.400
303.920	15.553	1380.620	1041.757
304.935	15.569	1379.872	1041.201
305.949	15.698	1379.007	1041.256
306.964	15.656	1378.509	1040.531
307.979	15.663	1377.381	1039.626
308.993	15.625	1376.373	1038.540
310.008	15.748	1375.493	1038.543
311.022	15.708	1374.453	1037.422
312.037	15.765	1373.474	1036.938
313.052	15.767	1372.806	1036.358
314.066	15.770	1371.541	1035.331
315.081	15.673	1370.430	1033.799
316.095	15.710	1369.156	1032.975
317.110	15.665	1368.321	1031.980
318.125	15.599	1367.602	1030.944
319.139	15.588	1366.526	1029.969
320.154	15.578	1365.672	1029.176
321.168	15.584	1364.904	1028.540
322.183	15.798	1363.361	1028.597
323.197	15.616	1362.885	1027.035
324.212	15.667	1362.110	1026.673
325.227	15.780	1361.032	1026.455
326.241	15.757	1360.582	1025.888
327.256	15.794	1359.492	1025.198
328.270	15.845	1358.346	1024.553
329.285	15.764	1357.073	1023.010
330.300	15.799	1356.381	1022.612
331.314	15.774	1355.686	1021.844
332.329	15.755	1354.977	1021.104
333.343	15.851	1353.694	1020.630
334.358	15.867	1353.138	1020.216
335.373	15.862	1352.192	1019.386
336.387	15.916	1351.180	1018.859
337.402	15.971	1350.668	1018.714
338.416	15.966	1349.949	1018.053
339.431	16.050	1349.473	1018.110
340.446	16.098	1348.653	1017.688
341.460	16.076	1347.871	1016.878
342.475	16.218	1346.277	1016.443
343.489	16.202	1345.484	1015.655
344.504	16.268	1344.534	1015.244
345.519	16.253	1343.661	1014.408
346.533	16.203	1343.366	1013.795
347.548	16.346	1341.750	1013.342
348.562	16.364	1341.167	1012.922
349.577	16.428	1340.632	1012.809
350.592	16.351	1339.991	1011.773
351.606	16.201	1339.189	1010.181
352.621	16.311	1337.650	1009.590
353.635	16.158	1337.127	1008.193
354.650	16.221	1335.641	1007.359
355.665	16.258	1334.662	1006.749
356.679	16.242	1333.866	1005.967
357.694	16.191	1333.214	1005.079
358.708	16.231	1332.098	1004.388
359.723	16.337	1330.813	1003.965
360.738	16.248	1330.296	1002.953
361.752	16.404	1328.570	1002.492
362.767	16.453	1327.443	1001.840
363.781	16.362	1326.825	1000.745
364.796	16.433	1325.687	1000.218
365.810	16.400	1325.232	999.591
366.825	16.381	1325.003	999.219
367.840	16.500	1324.272	999.283
368.854	16.540	1323.290	998.688
369.869	16.618	1322.612	998.548
370.883	16.694	1321.954	998.415
371.898	16.682	1321.648	998.023
372.913	16.554	1320.675	996.443
373.927	16.537	1319.491	995.362
374.942	16.647	1318.508	995.181
375.956	16.689	1317.960	994.929
376.971	16.601	1317.466	993.951
377.986	16.528	1316.068	992.378
379.000	16.628	1315.475	992.432
380.015	16.700	1314.649	992.140
381.029	16.778	1313.855	991.908
382.044	16.872	1313.179	991.864
383.059	16.844	1312.687	991.236
384.073	16.758	1312.278	990.342
385.088	16.805	1311.390	989.857
386.102	16.730	1310.902	988.960
387.117	16.812	1310.106	988.755
388.132	16.932	1308.527	988.174
389.146	16.727	1307.952	986.459
390.161	16.731	1307.255	985.870
391.175	16.810	1306.287	985.513
392.190	16.912	1305.696	985.572
393.205	16.840	1304.736	984.338
394.219	16.869	1304.083	983.931
395.234	16.939	1302.630	983.149
396.248	16.997	1301.196	982.318
397.263	16.982	1299.843	981.120
398.278	16.889	1298.860	979.757
399.292	16.865	1297.629	978.602
400.307	16.846	1296.644	977.663
401.321	16.842	1295.360	976.585
402.336	16.882	1294.434	976.029
403.350	16.921	1293.590	975.533
404.365	16.813	1292.506	974.011
405.380	16.824	1291.586	973.291
406.394	16.901	1290.773	973.038
407.409	16.907	1290.350	972.665
408.423	16.988	1289.703	972.558
409.438	17.063	1288.851	972.259
410.453	17.073	1288.278	971.793
411.467	17.212	1287.410	971.852
412.482	17.169	1287.124	971.305
413.496	17.259	1286.045	970.918
414.511	17.270	1285.488	970.475
415.526	17.283	1284.640	969.823
416.540	17.360	1284.186	969.831
417.555	17.387	1283.424	969.322
418.569	17.396	1282.580	968.650
419.584	17.358	1282.249	968.099
420.599	17.340	1281.660	967.466
421.613	96.677	1355.389	1475.836
422.628	94.567	1366.062	1475.919
