DTS Sentinel unit serial number:	SN413079Multiplexer serial number:	ORYXHardware model number:	OX4-SRSoftware version number:	ORYX F/W v4.00 Oryx Data Collector v3.7.2.0data status	okinstallation	princeton_trtdifferential loss correction	single-endedforward channel	channel 1reverse channel	N/Adate	2019/09/12time	15:24:11forward acquisition time	60.00reverse acquisition time	0.00gamma	496.2192k internal	0.2292k external	0.2292temperature offset calibration	1.0066default loss term (dB/km)	0.3790temperature slope calibration	1.0000multiplexer offset coefficient	1.0000multiplexer slope coefficient	1.0000fibre end	0.00T internal ref (°C)	40.75T ext. ref 1 (°C)	2.41T ext. ref 2 (°C)	35.14length (m)	temperature (°C)	Stokes	anti-Stokes-747.200	67.585	0.148	-0.155
-746.185	13.582	0.321	0.255
-745.171	414.084	0.074	-0.162
-744.156	-200.000	0.015	-0.133
-743.142	-28.114	0.127	-0.075
-742.127	384.824	-0.100	0.210
-741.112	0.643	0.225	0.165
-740.098	-200.000	0.089	0.453
-739.083	743.343	0.056	0.154
-738.069	-200.000	0.003	0.231
-737.054	150.601	0.228	-0.317
-736.039	-67.977	-0.386	-0.154
-735.025	-7.890	0.195	0.135
-734.010	-200.000	0.019	0.173
-732.996	117.786	-0.278	-0.351
-731.981	-33.148	-0.376	-0.213
-730.966	447.898	0.151	0.341
-729.952	-32.737	-0.109	0.062
-728.937	372.499	-0.052	-0.109
-727.923	394.174	-0.072	-0.154
-726.908	-200.000	0.053	-0.253
-725.894	632.492	0.098	-0.255
-724.879	221.373	0.117	-0.192
-723.864	800.000	0.063	0.212
-722.850	89.245	-0.085	-0.096
-721.835	68.675	0.087	-0.091
-720.821	-21.172	-0.223	-0.140
-719.806	61.507	0.025	-0.026
-718.791	-177.153	-0.183	-0.005
-717.777	-200.000	-0.031	-0.261
-716.762	2.051	0.299	0.220
-715.748	74.246	-0.143	-0.153
-714.733	-200.000	-0.035	-0.182
-713.718	-175.336	0.071	0.002
-712.704	774.509	-0.079	-0.221
-711.689	561.107	0.062	-0.152
-710.675	384.196	0.157	0.330
-709.660	50.092	-0.067	-0.065
-708.645	302.278	-0.161	-0.304
-707.631	-132.910	-0.172	-0.022
-706.616	-200.000	0.072	0.397
-705.602	404.798	-0.040	0.086
-704.587	-200.000	-0.018	-0.212
-703.572	226.942	-0.081	0.135
-702.558	-200.000	0.003	0.247
-701.543	-200.000	-0.066	-0.328
-700.529	-53.457	0.185	0.086
-699.514	-200.000	0.016	-0.123
-698.499	-144.592	0.179	0.017
-697.485	800.000	0.065	-0.192
-696.470	-107.826	-0.034	-0.007
-695.456	-104.828	0.108	-0.025
-694.441	800.000	0.032	0.120
-693.426	-95.826	-0.317	0.086
-692.412	-37.599	-0.103	0.056
-691.397	-200.000	-0.043	-0.215
-690.383	-16.406	-0.075	0.048
-689.368	-120.714	0.313	-0.054
-688.354	308.223	-0.070	0.134
-687.339	138.546	-0.145	0.194
-686.324	310.880	0.058	0.110
-685.310	95.611	-0.111	-0.129
-684.295	113.972	-0.286	-0.356
-683.281	800.000	-0.093	-0.274
-682.266	19.808	0.098	-0.081
-681.251	205.632	0.159	-0.252
-680.237	-200.000	-0.047	-0.226
-679.222	-16.059	-0.286	0.185
-678.208	800.000	-0.012	-0.052
-677.193	28.723	-0.125	-0.108
-676.178	-22.260	-0.134	-0.083
-675.164	-57.623	0.241	-0.108
-674.149	119.137	-0.158	-0.200
-673.135	-195.856	0.296	-0.002
-672.120	207.590	0.004	-0.006
-671.105	-86.444	-0.037	-0.012
-670.091	-200.000	0.032	0.165
-669.076	201.792	-0.125	0.196
-668.062	-200.000	-0.023	-0.104
-667.047	-122.971	-0.321	0.053
-666.032	-98.523	-0.418	0.109
-665.018	93.068	0.149	-0.172
-664.003	98.738	-0.190	0.223
-662.989	64.813	0.049	0.051
-661.974	192.899	-0.093	-0.143
-660.959	157.181	0.155	0.219
-659.945	196.429	-0.097	0.150
-658.930	-48.302	0.162	0.079
-657.916	800.000	-0.034	0.096
-656.901	-89.393	0.181	-0.054
-655.886	468.407	0.092	-0.210
-654.872	-36.955	-0.378	0.207
-653.857	38.111	-0.116	0.106
-652.843	11.177	0.112	0.087
-651.828	548.273	-0.057	-0.138
-650.814	262.300	-0.125	-0.222
-649.799	10.091	-0.103	-0.079
-648.784	1.096	-0.270	-0.198
-647.770	-200.000	-0.006	0.416
-646.755	-23.914	-0.243	-0.148
-645.741	-200.000	0.064	-0.294
-644.726	-69.106	0.091	0.036
-643.711	-200.000	0.019	0.174
-642.697	-88.549	-0.226	0.069
-641.682	-200.000	-0.040	-0.319
-640.668	42.468	-0.126	-0.117
-639.653	-20.199	-0.466	-0.293
-638.638	-200.000	0.016	-0.229
-637.624	-18.499	-0.172	0.109
-636.609	93.816	0.087	-0.100
-635.595	173.349	0.069	-0.102
-634.580	91.119	-0.134	-0.154
-633.565	-200.000	-0.012	0.073
-632.551	229.901	0.088	0.146
-631.536	27.854	0.041	-0.035
-630.522	-117.973	-0.219	-0.040
-629.507	69.349	0.032	-0.033
-628.492	312.476	0.142	0.271
-627.478	44.261	0.271	-0.253
-626.463	-161.864	0.142	0.007
-625.449	-20.444	0.314	0.197
-624.434	-71.414	-0.127	0.049
-623.419	-46.480	-0.152	0.076
-622.405	-200.000	-0.009	0.050
-621.390	-148.099	0.302	-0.025
-620.376	800.000	0.131	0.441
-619.361	712.577	0.025	0.068
-618.346	-42.791	-0.236	0.122
-617.332	-200.000	-0.038	-0.170
-616.317	-50.356	-0.317	0.153
-615.303	-200.000	-0.013	-0.060
-614.288	-200.000	0.032	-0.343
-613.273	-200.000	-0.040	-0.435
-612.259	37.460	0.075	0.068
-611.244	324.872	0.112	0.217
-610.230	-200.000	-0.013	-0.181
-609.215	300.351	-0.083	-0.156
-608.201	-200.000	0.069	-0.359
-607.186	-19.872	-0.205	0.129
-606.171	-139.837	-0.060	-0.006
-605.157	-8.734	-0.035	-0.024
-604.142	-11.962	0.348	0.232
-603.128	575.753	-0.180	0.448
-602.113	284.915	-0.103	0.188
-601.098	218.868	0.084	-0.137
-600.084	320.347	0.132	-0.255
-599.069	200.654	-0.061	-0.095
-598.055	-200.000	-0.035	0.179
-597.040	118.094	0.056	0.070
-596.025	-178.326	0.458	0.011
-595.011	800.000	-0.111	-0.480
-593.996	78.553	0.157	-0.171
-592.982	800.000	-0.052	-0.153
-591.967	-57.557	0.109	0.048
-590.952	-142.612	0.299	-0.030
-589.938	800.000	-0.052	-0.169
-588.923	-118.309	-0.061	-0.011
-587.909	-200.000	-0.029	0.194
-586.894	310.437	-0.035	-0.066
-585.879	201.182	0.061	0.096
-584.865	-173.795	-0.165	0.005
-583.850	-56.257	-0.114	0.052
-582.836	-83.387	0.141	-0.046
-581.821	2.702	-0.155	-0.115
-580.806	74.397	0.053	-0.056
-579.792	-3.774	-0.356	-0.251
-578.777	-113.796	-0.183	0.036
-577.763	-106.339	-0.120	0.027
-576.748	-7.613	0.334	-0.230
-575.733	800.000	-0.064	-0.219
-574.719	121.128	0.182	-0.230
-573.704	46.347	-0.070	-0.066
-572.690	-114.508	-0.378	0.074
-571.675	-148.986	0.302	-0.025
-570.661	216.659	0.161	0.260
-569.646	56.140	-0.160	-0.158
-568.631	800.000	-0.019	0.075
-567.617	-85.295	-0.260	-0.083
-566.602	800.000	0.046	-0.140
-565.588	140.505	0.132	-0.177
-564.573	-200.000	0.008	-0.199
-563.558	-166.114	-0.290	0.013
-562.544	800.000	-0.031	-0.107
-561.529	-37.219	-0.180	0.098
-560.515	-45.549	-0.115	-0.058
-559.500	-82.562	0.222	-0.073
-558.485	-200.000	0.020	-0.349
-557.471	197.263	0.102	0.158
-556.456	317.591	0.070	-0.134
-555.442	35.921	-0.266	-0.238
-554.427	27.819	-0.326	0.279
-553.412	-200.000	0.011	-0.116
-552.398	-200.000	0.022	0.110
-551.383	-28.917	-0.257	0.150
-550.369	137.280	-0.035	-0.046
-549.354	-200.000	0.013	-0.249
-548.339	-147.229	-0.051	0.004
-547.325	73.255	-0.235	-0.250
-546.310	-176.710	-0.226	0.006
-545.296	-112.241	-0.142	0.029
-544.281	-200.000	-0.035	-0.253
-543.266	-200.000	-0.034	0.268
-542.252	-29.687	0.183	-0.106
-541.237	30.243	0.097	-0.084
-540.223	396.409	-0.130	-0.276
-539.208	-0.922	0.072	-0.052
-538.193	114.082	0.129	0.159
-537.179	247.492	0.034	-0.059
-536.164	649.952	0.031	-0.079
-535.150	-32.548	0.376	-0.213
-534.135	800.000	0.034	0.101
-533.121	14.062	0.157	-0.124
-532.106	-36.417	0.101	-0.055
-531.091	-12.690	-0.332	0.220
-530.077	103.511	0.182	-0.217
-529.062	379.854	0.089	0.186
-528.048	800.000	0.092	-0.356
-527.033	-36.066	0.209	0.115
-526.018	-200.000	0.014	-0.141
-525.004	-97.402	0.269	-0.071
-523.989	-200.000	-0.122	-0.637
-522.975	163.042	-0.045	-0.064
-521.960	-7.411	0.216	0.148
-520.945	-72.375	-0.350	0.131
-519.931	-3.377	-0.121	0.086
-518.916	800.000	-0.027	0.114
-517.902	800.000	-0.087	0.296
-516.887	800.000	0.047	-0.179
-515.872	-27.735	0.111	0.065
-514.858	-200.000	-0.016	-0.272
-513.843	34.531	-0.093	0.082
-512.829	-116.917	-0.252	-0.047
-511.814	444.533	0.074	-0.164
-510.799	-200.000	0.027	0.286
-509.785	-120.952	-0.211	-0.036
-508.770	10.049	-0.086	0.066
-507.756	261.396	-0.107	0.189
-506.741	368.240	-0.130	0.266
-505.726	800.000	-0.025	0.084
-504.712	207.436	-0.085	0.135
-503.697	-200.000	-0.083	-0.000
-502.683	-200.000	-0.029	0.144
-501.668	-200.000	-0.095	0.460
-500.653	-85.060	0.113	-0.036
-499.639	-111.048	-0.168	-0.035
-498.624	-200.000	0.015	0.164
-497.610	12.744	0.210	-0.164
-496.595	-97.566	0.190	-0.050
-495.581	-118.422	0.070	-0.013
-494.566	-66.086	-0.366	-0.148
-493.551	234.429	-0.067	0.113
-492.537	-200.000	0.033	0.157
-491.522	-200.000	0.017	-0.086
-490.508	-200.000	-0.018	-0.133
-489.493	-107.050	-0.105	0.024
-488.478	800.000	-0.026	-0.089
-487.464	-200.000	-0.020	0.105
-486.449	-7.364	0.440	-0.302
-485.435	-125.123	-0.387	-0.060
-484.420	-200.000	-0.005	-0.367
-483.405	-200.000	-0.016	0.245
-482.391	32.979	0.055	-0.048
-481.376	800.000	0.028	-0.095
-480.362	-164.500	0.072	0.003
-479.347	-154.804	-0.092	0.006
-478.332	13.652	-0.205	-0.161
-477.318	-200.000	0.056	0.366
-476.303	157.663	-0.060	-0.084
-475.289	-81.580	-0.255	-0.085
-474.274	-97.286	-0.294	-0.078
-473.259	173.041	0.013	-0.019
-472.245	800.000	0.028	0.102
-471.230	-122.702	0.346	-0.057
-470.216	-92.619	-0.041	-0.012
-469.201	241.657	0.097	-0.164
-468.186	-58.603	0.124	-0.054
-467.172	-76.263	-0.140	-0.050
-466.157	110.949	0.041	0.049
-465.143	17.712	-0.216	0.174
-464.128	-200.000	0.021	0.292
-463.113	-159.400	0.172	0.010
-462.099	19.446	-0.162	-0.132
-461.084	115.162	-0.189	0.234
-460.070	-29.945	0.084	-0.048
-459.055	-200.000	-0.032	0.248
-458.040	-200.000	-0.034	0.206
-457.026	-67.333	0.125	0.050
-456.011	-134.502	0.189	0.023
-454.997	-200.000	-0.004	0.094
-453.982	53.209	0.229	0.222
-452.968	238.526	0.011	-0.018
-451.953	-50.109	-0.335	0.160
-450.938	122.371	-0.141	-0.178
-449.924	243.961	0.082	0.139
-448.909	25.875	-0.054	-0.046
-447.895	78.424	-0.053	0.058
-446.880	-78.099	0.101	-0.035
-445.865	-109.795	-0.220	-0.047
-444.851	78.826	-0.253	0.274
-443.836	-200.000	-0.028	0.183
-442.822	-123.748	-0.365	-0.058
-441.807	133.257	0.300	0.392
-440.792	-200.000	0.000	0.180
-439.778	-200.000	0.024	0.148
-438.763	-151.032	0.377	-0.029
-437.749	800.000	0.062	0.179
-436.734	98.157	0.344	0.401
-435.719	23.571	-0.049	0.041
-434.705	800.000	-0.023	0.082
-433.690	199.708	-0.066	-0.102
-432.676	-93.366	0.250	-0.070
-431.661	121.875	-0.044	0.056
-430.646	317.150	0.209	0.399
-429.632	-200.000	-0.086	-0.457
-428.617	62.927	0.154	0.156
-427.603	-26.986	0.166	-0.098
-426.588	-166.238	0.373	0.016
-425.573	-200.000	-0.026	0.326
-424.559	-200.000	0.009	0.285
-423.544	-200.000	-0.005	0.358
-422.530	6.550	-0.340	0.256
-421.515	-78.246	-0.160	0.056
-420.500	-174.768	0.351	0.010
-419.486	800.000	-0.044	0.183
-418.471	275.139	0.214	-0.383
-417.457	23.157	0.210	-0.174
-416.442	70.874	-0.043	-0.045
-415.428	151.945	-0.154	-0.212
-414.413	-12.098	-0.083	-0.055
-413.398	-200.000	-0.031	-0.241
-412.384	59.090	0.169	0.169
-411.369	-8.826	-0.137	0.093
-410.355	-75.790	0.307	0.110
-409.340	123.329	-0.132	0.167
-408.325	-129.010	0.306	0.043
-407.311	-200.000	-0.014	-0.273
-406.296	-34.413	-0.050	0.028
-405.282	-134.423	0.514	-0.064
-404.267	-63.065	-0.378	0.158
-403.252	-100.590	-0.106	-0.026
-402.238	410.387	0.102	-0.219
-401.223	252.214	0.075	0.130
-400.209	-149.940	0.503	0.040
-399.194	668.059	-0.105	-0.275
-398.179	-23.858	0.153	-0.092
-397.165	-96.259	-0.100	-0.027
-396.150	-200.000	0.004	-0.081
-395.136	173.254	-0.078	-0.113
-394.121	164.060	-0.075	0.107
-393.106	39.655	-0.144	0.131
-392.092	-17.043	-0.159	0.101
-391.077	800.000	-0.042	-0.125
-390.063	58.793	-0.083	0.083
-389.048	32.348	0.257	-0.224
-388.033	-200.000	0.001	-0.442
-387.019	-67.445	0.257	0.102
-386.004	8.580	-0.349	0.265
-384.990	-55.271	0.277	0.126
-383.975	-200.000	0.032	0.193
-382.960	18.011	0.303	0.244
-381.946	-153.986	0.487	-0.033
-380.931	-200.000	-0.031	-0.342
-379.917	800.000	0.104	-0.372
-378.902	-154.879	-0.228	-0.015
-377.888	-191.838	-0.218	-0.002
-376.873	-200.000	-0.024	-0.244
-375.858	-37.097	0.138	-0.075
-374.844	-200.000	0.009	-0.084
-373.829	516.342	-0.068	0.161
-372.815	-200.000	0.029	0.239
-371.800	-99.099	-0.205	-0.052
-370.785	800.000	0.116	0.374
-369.771	179.814	-0.110	0.163
-368.756	105.344	-0.003	-0.004
-367.742	378.210	0.079	-0.162
-366.727	800.000	0.077	0.335
-365.712	800.000	-0.086	-0.267
-364.698	-184.346	0.130	0.002
-363.683	705.164	0.008	-0.021
-362.669	-200.000	0.009	0.168
-361.654	62.321	-0.325	-0.327
-360.639	-85.734	-0.292	-0.091
-359.625	138.888	0.218	0.289
-358.610	406.042	0.106	0.226
-357.596	-126.015	-0.185	-0.028
-356.581	8.426	0.234	-0.177
-355.566	-10.797	-0.277	0.185
-354.552	354.980	-0.144	0.289
-353.537	-60.641	0.254	-0.109
-352.523	-200.000	0.002	0.138
-351.508	271.601	-0.146	-0.260
-350.493	-100.830	-0.271	0.067
-349.479	575.483	-0.125	0.309
-348.464	-200.000	0.020	0.137
-347.450	152.943	-0.168	-0.231
-346.435	-114.614	0.082	0.016
-345.420	148.098	-0.137	0.186
-344.406	37.295	0.111	-0.099
-343.391	72.314	-0.147	-0.155
-342.377	-10.846	0.096	-0.064
-341.362	684.068	-0.083	0.218
-340.348	-200.000	-0.002	0.413
-339.333	712.616	0.054	-0.144
-338.318	-82.054	-0.100	-0.033
-337.304	-10.976	-0.291	-0.194
-336.289	-123.619	0.081	-0.013
-335.275	-140.669	0.098	-0.010
-334.260	800.000	0.059	-0.188
-333.245	-37.238	0.196	0.105
-332.231	-129.259	-0.115	-0.016
-331.216	-66.039	0.064	0.026
-330.202	-64.584	-0.091	-0.037
-329.187	-39.621	-0.197	-0.104
-328.172	0.386	0.110	-0.079
-327.158	34.963	-0.255	0.225
-326.143	-0.493	0.147	-0.105
-325.129	-9.387	-0.127	-0.085
-324.114	-195.652	0.356	-0.003
-323.099	-1.791	0.192	0.136
-322.085	-80.753	0.158	-0.053
-321.070	-102.227	0.282	-0.068
-320.056	800.000	-0.043	-0.133
-319.041	-200.000	-0.018	-0.205
-318.026	-200.000	-0.075	0.340
-317.012	196.939	-0.143	-0.219
-315.997	167.292	0.159	0.227
-314.983	-60.320	-0.254	-0.109
-313.968	-200.000	-0.068	-0.314
-312.953	112.535	-0.201	0.245
-311.939	-97.781	-0.181	0.047
-310.924	-138.286	0.138	-0.015
-309.910	-13.124	0.073	0.048
-308.895	-119.085	-0.288	0.051
-307.880	-200.000	-0.036	-0.295
-306.866	-36.287	0.085	-0.046
-305.851	34.532	-0.141	-0.124
-304.837	-169.335	0.263	0.010
-303.822	544.521	0.129	-0.310
-302.807	800.000	-0.031	-0.103
-301.793	561.533	-0.117	0.284
-300.778	2.421	-0.185	0.135
-299.764	-77.715	0.118	0.041
-298.749	-200.000	-0.022	-0.142
-297.735	-95.710	-0.252	-0.068
-296.720	-200.000	0.001	-0.019
-295.705	-200.000	-0.024	0.167
-294.691	-200.000	0.054	-0.314
-293.676	258.489	-0.086	-0.150
-292.662	-106.673	0.255	0.057
-291.647	-52.925	0.243	0.113
-290.632	-184.154	0.316	-0.005
-289.618	133.688	0.044	-0.058
-288.603	-136.198	0.115	-0.014
-287.589	5.060	-0.104	-0.077
-286.574	-17.304	0.054	0.035
-285.559	-97.172	0.078	-0.020
-284.545	205.307	0.107	-0.167
-283.530	-106.648	0.208	-0.047
-282.516	158.066	-0.189	-0.263
-281.501	800.000	-0.097	0.417
-280.486	75.628	-0.131	-0.139
-279.472	-148.617	0.068	0.006
-278.457	-163.676	-0.384	0.018
-277.443	-100.726	-0.088	-0.022
-276.428	29.722	-0.201	0.172
-275.413	-28.836	-0.289	-0.167
-274.399	34.776	0.142	-0.124
-273.384	-93.612	0.162	0.045
-272.370	-95.055	0.252	0.068
-271.355	-32.565	0.097	-0.055
-270.340	0.924	0.210	0.151
-269.326	11.209	0.170	0.130
-268.311	1.282	0.170	0.123
-267.297	-200.000	0.016	0.258
-266.282	800.000	0.071	-0.258
-265.267	16.376	0.132	0.105
-264.253	658.715	0.063	-0.163
-263.238	120.626	-0.178	-0.222
-262.224	45.832	0.300	0.278
-261.209	-40.613	-0.338	-0.176
-260.195	-55.994	0.246	0.110
-259.180	-138.936	0.364	0.040
-258.165	26.980	-0.254	0.214
-257.151	800.000	-0.042	0.145
-256.136	-200.000	-0.017	-0.117
-255.122	101.058	0.192	-0.224
-254.107	257.296	-0.268	-0.463
-253.092	53.804	-0.175	-0.169
-252.078	-200.000	0.043	-0.201
-251.063	66.387	-0.140	-0.143
-250.049	800.000	0.046	-0.186
-249.034	-200.000	-0.007	-0.053
-248.019	17.281	-0.058	0.046
-247.005	-155.893	-0.405	-0.026
-245.990	-120.101	-0.271	-0.047
-244.976	-155.427	0.456	0.030
-243.961	642.511	-0.017	0.043
-242.946	-30.515	-0.302	0.172
-241.932	96.085	-0.131	-0.150
-240.917	-200.000	0.066	0.324
-239.903	-200.000	-0.010	0.090
-238.888	218.766	0.097	0.155
-237.873	-160.499	0.112	-0.006
-236.859	-88.757	0.447	0.133
-235.844	79.364	0.028	0.030
-234.830	-200.000	-0.019	-0.096
-233.815	800.000	0.070	0.297
-232.800	446.745	-0.156	-0.345
-231.786	-196.518	0.098	0.001
-230.771	477.188	0.144	0.326
-229.757	800.000	0.069	-0.213
-228.742	-200.000	-0.017	-0.093
-227.727	-54.845	-0.141	-0.064
-226.713	-200.000	0.022	0.404
-225.698	70.011	-0.210	0.217
-224.684	-200.000	-0.010	-0.123
-223.669	4.195	0.290	0.213
-222.655	-87.764	-0.218	-0.066
-221.640	-105.737	-0.262	-0.059
-220.625	333.767	-0.191	-0.371
-219.611	800.000	-0.098	0.397
-218.596	-25.235	-0.168	-0.100
-217.582	-135.077	0.243	0.029
-216.567	-117.886	0.212	-0.038
-215.552	-132.843	-0.115	0.015
-214.538	193.316	-0.099	-0.150
-213.523	-180.576	-0.320	0.007
-212.509	80.723	-0.055	-0.060
-211.494	190.776	-0.235	0.354
-210.479	800.000	-0.091	-0.351
-209.465	800.000	-0.030	0.121
-208.450	-114.602	0.333	-0.064
-207.436	-200.000	-0.052	0.479
-206.421	277.790	0.060	0.108
-205.406	212.414	0.030	-0.048
-204.392	103.300	0.178	0.209
-203.377	-43.438	-0.153	-0.078
-202.363	321.295	0.097	0.185
-201.348	469.304	-0.029	0.065
-200.333	13.268	0.084	0.066
-199.319	-19.617	-0.072	-0.044
-198.304	24.097	-0.102	0.084
-197.290	-46.061	-0.035	-0.017
-196.275	-52.689	0.324	-0.150
-195.260	-200.000	-0.060	0.347
-194.246	299.095	-0.079	0.147
-193.231	-172.588	0.270	-0.009
-192.217	-80.204	-0.152	-0.051
-191.202	-126.559	0.282	-0.042
-190.187	0.157	0.215	-0.153
-189.173	23.051	0.100	0.082
-188.158	113.013	-0.086	0.104
-187.144	19.836	0.076	-0.061
-186.129	-113.579	0.267	-0.052
-185.114	-200.000	0.016	-0.340
-184.100	-20.095	-0.201	-0.124
-183.085	21.251	0.030	-0.024
-182.071	173.352	-0.186	-0.268
-181.056	213.003	0.245	-0.387
-180.042	-200.000	-0.009	0.172
-179.027	800.000	-0.093	0.266
-178.012	50.438	-0.178	0.168
-176.998	800.000	-0.015	0.044
-175.983	112.270	-0.127	-0.154
-174.969	171.252	0.150	0.215
-173.954	26.833	-0.121	-0.101
-172.939	-23.354	0.331	-0.199
-171.925	-117.609	0.165	0.030
-170.910	-200.000	-0.006	-0.119
-169.896	203.312	-0.164	-0.254
-168.881	14.145	0.090	0.070
-167.866	-13.930	0.113	0.073
-166.852	-200.000	-0.065	0.351
-165.837	-23.425	0.099	-0.060
-164.823	-179.704	0.188	0.004
-163.808	800.000	0.123	0.379
-162.793	190.539	-0.127	-0.191
-161.779	800.000	-0.076	0.258
-160.764	-60.174	-0.024	-0.010
-159.750	800.000	0.023	0.087
-158.735	30.295	0.181	0.155
-157.720	-90.653	0.123	0.036
-156.706	46.958	0.278	0.258
-155.691	-12.409	-0.103	-0.067
-154.677	-107.816	-0.359	0.078
-153.662	-77.153	0.306	-0.107
-152.647	-200.000	0.040	0.366
-151.633	-126.580	0.131	-0.019
-150.618	-79.350	-0.099	-0.034
-149.604	-154.738	0.113	-0.007
-148.589	18.555	0.284	0.227
-147.574	-200.000	0.006	0.058
-146.560	-40.993	0.547	-0.282
-145.545	130.168	-0.212	0.272
-144.531	201.236	0.111	-0.171
-143.516	11.579	-0.227	0.174
-142.502	-76.959	-0.254	-0.089
-141.487	410.038	0.080	-0.170
-140.472	298.971	0.177	0.326
-139.458	-43.105	-0.263	0.133
-138.443	-173.599	0.072	-0.002
-137.429	27.957	0.242	-0.204
-136.414	357.556	-0.010	0.020
-135.399	520.951	-0.069	0.161
-134.385	-33.734	-0.091	0.050
-133.370	1.208	0.218	0.156
-132.356	-200.000	0.005	-0.351
-131.341	-45.357	-0.290	-0.144
-130.326	-122.669	0.311	-0.050
-129.312	-31.137	0.068	-0.039
-128.297	-200.000	-0.028	0.200
-127.283	532.711	0.181	0.427
-126.268	-200.000	0.025	-0.151
-125.253	-137.414	-0.116	-0.013
-124.239	-5.237	0.359	-0.247
-123.224	441.485	-0.100	-0.219
-122.210	6.478	0.205	-0.152
-121.195	26.518	-0.051	0.042
-120.180	-150.374	-0.148	-0.011
-119.166	208.454	-0.079	-0.123
-118.151	-63.048	0.333	0.137
-117.137	-61.187	-0.316	0.133
-116.122	-200.000	-0.057	-0.273
-115.107	800.000	-0.052	-0.196
-114.093	425.738	0.079	0.170
-113.078	257.679	0.089	0.153
-112.064	257.324	-0.170	-0.291
-111.049	98.129	0.086	0.099
-110.034	-113.552	-0.218	0.043
-109.020	3.102	0.069	-0.050
-108.005	-46.569	-0.300	0.147
-106.991	-200.000	0.001	-0.022
-105.976	-200.000	-0.030	0.352
-104.962	373.325	-0.062	-0.126
-103.947	157.954	0.070	-0.097
-102.932	-122.633	-0.033	0.005
-101.918	235.318	0.058	-0.096
-100.903	48.332	0.152	0.142
-99.889	179.005	-0.003	0.005
-98.874	46.497	-0.040	0.037
-97.859	-82.370	0.131	-0.043
-96.845	-10.912	0.143	0.094
-95.830	217.708	0.023	0.037
-94.816	205.619	0.082	-0.127
-93.801	-200.000	-0.012	0.155
-92.786	-43.355	-0.091	0.046
-91.772	86.989	0.125	0.138
-90.757	145.931	0.184	0.246
-89.743	-200.000	0.049	-0.291
-88.728	158.920	-0.105	0.146
-87.713	-122.691	0.213	-0.034
-86.699	73.471	-0.151	-0.157
-85.684	-123.411	0.210	-0.033
-84.670	-125.361	0.202	-0.031
-83.655	-129.978	0.237	-0.032
-82.640	-68.620	-0.392	0.151
-81.626	-200.000	-0.043	0.217
-80.611	478.430	0.108	-0.243
-79.597	800.000	0.063	-0.266
-78.582	-103.637	-0.304	0.071
-77.567	-200.000	0.027	-0.235
-76.553	42.586	-0.218	-0.198
-75.538	-200.000	0.002	0.407
-74.524	-200.000	0.012	0.142
-73.509	-200.000	0.009	-0.511
-72.494	757.674	-0.095	0.256
-71.480	-85.668	-0.220	-0.068
-70.465	-87.305	0.109	-0.033
-69.451	26.870	-0.230	0.192
-68.436	605.413	0.109	-0.272
-67.422	59.500	-0.116	0.114
-66.407	110.947	-0.099	-0.119
-65.392	-88.447	-0.111	-0.033
-64.378	19.799	-0.191	0.153
-63.363	-200.000	-0.005	-0.178
-62.349	53.730	-0.134	0.129
-61.334	15.745	-1.003	-0.786
-60.319	113.737	0.425	0.514
-59.305	-200.000	0.043	-0.799
-58.290	145.244	0.481	0.641
-57.276	581.671	0.576	1.408
-56.261	-200.000	76.257	511.269
-55.246	516.507	1323.498	3082.359
-54.232	147.585	2549.294	3421.847
-53.217	116.837	2223.242	2719.107
-52.203	52.367	1671.658	1589.008
-51.188	44.496	1397.886	1279.462
-50.173	40.927	1351.996	1215.639
-49.159	59.374	1387.483	1361.771
-48.144	66.174	1406.137	1421.919
-47.130	44.970	1369.023	1255.766
-46.115	40.885	1352.409	1215.557
-45.100	40.681	1348.058	1210.357
-44.086	40.538	1345.941	1207.538
-43.071	40.574	1343.215	1205.264
-42.057	40.513	1341.147	1202.992
-41.042	40.568	1339.072	1201.415
-40.027	40.734	1337.177	1200.669
-39.013	40.767	1335.449	1199.270
-37.998	40.686	1333.892	1197.334
-36.984	40.691	1332.355	1195.938
-35.969	40.786	1330.067	1194.409
-34.954	40.835	1328.119	1192.909
-33.940	40.725	1327.291	1191.453
-32.925	40.789	1325.949	1190.587
-31.911	40.884	1324.308	1189.632
-30.896	40.779	1322.864	1187.662
-29.881	40.741	1321.602	1186.256
-28.867	40.869	1319.823	1185.377
-27.852	40.858	1318.443	1184.026
-26.838	40.843	1317.169	1182.744
-25.823	40.816	1315.840	1181.339
-24.809	40.861	1314.304	1180.184
-23.794	40.781	1313.025	1178.511
-22.779	40.744	1311.682	1177.043
-21.765	40.857	1309.828	1176.003
-20.750	40.852	1308.755	1174.960
-19.736	40.782	1307.382	1173.270
-18.721	40.727	1306.266	1171.894
-17.706	40.707	1305.448	1171.000
-16.692	40.699	1303.971	1169.578
-15.677	40.687	1302.894	1168.497
-14.663	40.764	1301.739	1167.865
-13.648	40.595	1300.920	1166.093
-12.633	40.688	1299.768	1165.556
-11.619	40.751	1298.352	1164.611
-10.604	40.758	1297.742	1164.062
-9.590	40.719	1296.911	1163.043
-8.575	40.720	1295.888	1162.080
-7.560	40.654	1295.020	1160.870
-6.546	40.672	1294.312	1160.293
-5.531	40.668	1293.506	1159.505
-4.517	40.617	1292.613	1158.359
-3.502	40.771	1291.224	1157.967
-2.487	40.779	1289.946	1156.822
-1.473	40.846	1286.207	1153.812
-0.458	39.244	1270.959	1130.884
0.556	35.031	1249.722	1082.641
1.571	30.449	1252.192	1058.643
2.586	29.086	1266.834	1063.059
3.600	27.667	1255.270	1045.141
4.615	19.899	1178.792	939.391
5.629	8.223	1095.849	813.965
6.644	2.847	1071.935	769.248
7.659	2.361	1069.447	764.961
8.673	2.211	1068.045	763.143
9.688	2.213	1066.328	761.857
10.702	2.538	1065.349	762.710
11.717	9.264	1075.848	803.889
12.731	20.271	1091.303	870.922
13.746	25.295	1097.205	900.836
14.761	25.904	1097.408	903.979
15.775	25.812	1097.142	903.218
16.790	25.647	1096.014	901.385
17.804	25.395	1095.744	899.822
18.819	25.646	1095.238	900.579
19.834	25.690	1094.670	900.253
20.848	25.798	1094.189	900.321
21.863	25.724	1093.702	899.467
22.877	25.730	1093.137	898.953
23.892	25.625	1092.139	897.531
24.907	25.740	1091.563	897.550
25.921	25.655	1090.253	895.971
26.936	25.599	1088.471	894.152
27.950	25.599	1087.313	893.118
28.965	25.477	1085.792	891.186
29.980	25.626	1084.397	890.701
30.994	25.808	1083.020	890.389
32.009	25.702	1082.447	889.318
33.023	25.675	1080.699	887.669
34.038	25.554	1080.437	886.777
35.053	25.779	1079.572	887.099
36.067	25.659	1079.042	885.994
37.082	25.768	1078.270	885.818
38.096	25.872	1077.835	885.893
39.111	25.957	1077.469	885.933
40.126	25.972	1075.040	883.927
41.140	25.606	1073.390	880.705
42.155	25.351	1072.008	878.246
43.169	25.372	1071.233	877.633
44.184	25.345	1070.681	876.973
45.199	25.420	1069.471	876.270
46.213	25.277	1068.650	874.822
47.228	25.494	1068.231	875.460
48.242	25.627	1066.759	874.822
49.257	25.722	1066.392	874.903
50.271	25.705	1065.717	874.193
51.286	25.839	1064.901	874.097
52.301	25.819	1064.084	873.252
53.315	25.688	1063.027	871.670
54.330	25.646	1061.970	870.523
55.344	25.638	1061.494	870.019
56.359	25.552	1060.555	868.757
57.374	25.341	1059.789	867.033
58.388	25.372	1058.980	866.446
59.403	25.397	1057.698	865.437
60.417	25.159	1057.432	863.997
61.432	25.258	1056.651	863.760
62.447	25.472	1055.899	864.097
63.461	25.490	1054.984	863.358
64.476	25.464	1053.881	862.256
65.490	25.287	1053.197	860.769
66.505	25.380	1052.508	860.575
67.520	25.428	1051.917	860.248
68.534	25.204	1050.787	858.176
69.549	24.969	1049.555	855.972
70.563	24.958	1048.591	855.056
71.578	24.918	1047.775	854.124
72.593	24.763	1047.204	852.846
73.607	24.867	1047.144	853.218
74.622	25.235	1046.333	854.232
75.636	25.339	1045.291	853.801
76.651	24.988	1044.975	851.798
77.666	25.015	1043.889	850.966
78.680	25.129	1043.209	850.876
79.695	25.133	1042.717	850.419
80.709	25.408	1041.763	850.869
81.724	25.309	1041.353	849.992
82.739	25.424	1040.190	849.508
83.753	25.750	1040.114	850.914
84.768	25.926	1039.481	851.153
85.782	26.161	1038.421	851.316
86.797	25.907	1037.898	849.614
87.812	25.781	1036.415	847.732
88.826	26.042	1035.269	847.948
89.841	25.997	1034.673	847.171
90.855	25.952	1034.095	846.414
91.870	25.987	1032.958	845.574
92.884	25.889	1032.079	844.321
93.899	25.830	1030.686	842.829
94.914	25.988	1030.041	842.963
95.928	25.748	1029.012	840.927
96.943	25.524	1028.146	839.099
97.957	25.227	1026.984	836.692
98.972	25.175	1025.688	835.320
99.987	25.384	1024.855	835.542
101.001	25.633	1024.357	836.217
102.016	25.657	1023.263	835.363
103.030	25.593	1022.041	833.993
104.045	25.502	1021.206	832.817
105.060	25.342	1020.423	831.363
106.074	25.410	1019.505	830.855
107.089	25.751	1019.035	831.977
108.103	25.662	1018.502	831.056
109.118	25.457	1016.883	828.718
110.133	25.381	1016.365	827.874
111.147	25.352	1014.274	825.964
112.162	24.988	1014.037	824.019
113.176	25.217	1013.671	824.705
114.191	25.373	1012.104	824.070
115.206	25.118	1011.280	822.162
116.220	24.993	1010.442	820.832
117.235	24.965	1010.138	820.383
118.249	25.095	1008.856	819.865
119.264	24.999	1008.144	818.778
120.279	25.149	1007.249	818.663
121.293	25.170	1006.344	817.950
122.308	25.054	1006.054	817.114
123.322	25.040	1004.911	816.045
124.337	24.934	1003.545	814.384
125.352	24.432	1001.633	810.480
126.366	24.363	1000.914	809.516
127.381	25.138	1001.003	813.031
128.395	25.668	1000.444	814.904
129.410	25.615	999.909	814.157
130.424	25.638	998.766	813.260
131.439	25.573	997.947	812.225
132.454	25.614	996.867	811.462
133.468	25.623	995.916	810.655
134.483	25.651	995.303	810.211
135.497	25.942	994.651	810.916
136.512	25.917	993.813	810.049
137.527	25.926	992.967	809.328
138.541	25.975	992.101	808.772
139.556	26.010	991.243	808.159
140.570	26.038	990.606	807.692
141.585	25.914	989.768	806.382
142.600	25.979	988.539	805.601
143.614	26.161	987.889	805.810
144.629	26.291	987.411	805.932
145.643	26.072	985.861	803.618
146.658	25.970	984.498	801.986
147.673	25.803	983.791	800.595
148.687	25.651	982.924	799.141
149.702	25.683	981.669	798.195
150.716	25.625	980.862	797.212
151.731	25.809	980.248	797.455
152.746	25.938	979.564	797.399
153.760	25.960	979.021	796.982
154.775	26.005	978.435	796.634
155.789	26.030	977.481	795.898
156.804	25.919	976.779	794.766
157.819	25.974	975.971	794.280
158.833	26.142	975.326	794.425
159.848	26.195	974.108	793.597
160.862	26.045	972.957	791.929
161.877	25.885	972.164	790.511
162.892	25.972	971.266	790.093
163.906	26.022	969.566	788.858
164.921	25.954	968.777	787.850
165.935	26.141	967.904	787.885
166.950	26.088	967.231	787.037
167.964	26.023	966.416	786.024
168.979	25.954	965.054	784.544
169.994	25.892	964.182	783.498
171.008	25.958	964.094	783.642
172.023	26.097	963.271	783.510
173.037	25.855	962.524	781.783
174.052	25.676	961.009	779.708
175.067	25.721	960.403	779.342
176.081	25.838	959.803	779.291
177.096	25.700	959.341	778.248
178.110	25.537	957.925	776.330
179.125	25.260	957.628	774.825
180.140	25.379	957.114	774.854
181.154	25.531	956.944	775.302
182.169	25.865	956.548	776.353
183.183	26.085	956.168	776.920
184.198	25.925	955.138	775.326
185.213	25.869	954.815	774.755
186.227	26.035	953.577	774.397
187.242	26.068	953.018	774.014
188.256	26.098	952.687	773.806
189.271	26.161	952.003	773.454
190.286	25.738	950.842	770.628
191.300	25.257	948.872	766.912
192.315	24.416	947.505	762.147
193.329	24.270	947.141	761.162
194.344	25.330	947.243	765.700
195.359	25.793	947.626	767.920
196.373	25.852	947.257	767.803
197.388	25.795	946.636	766.988
198.402	25.804	945.957	766.408
199.417	25.913	945.433	766.381
200.432	25.674	944.127	764.240
201.446	25.347	943.475	762.255
202.461	25.567	943.002	762.740
203.475	24.682	941.321	757.564
204.490	24.052	939.533	753.391
205.504	24.919	939.605	757.050
206.519	25.484	939.752	759.489
207.534	25.551	939.283	759.328
208.548	25.859	939.710	760.907
209.563	25.866	937.780	759.307
210.577	25.786	937.311	758.521
211.592	26.023	937.732	759.793
212.607	26.124	936.431	759.099
213.621	26.193	935.764	758.780
214.636	26.100	935.273	757.926
215.650	26.047	934.791	757.242
216.665	26.066	934.382	756.925
217.680	26.201	932.844	756.178
218.694	25.775	931.655	753.365
219.709	25.546	931.589	752.286
220.723	25.797	931.498	753.197
221.738	25.882	930.978	753.067
222.753	25.840	929.892	751.944
223.767	26.117	929.401	752.637
224.782	26.287	929.426	753.300
225.796	26.230	928.622	752.343
226.811	25.513	927.517	748.399
227.826	24.798	925.934	744.081
228.840	25.271	924.808	745.075
229.855	25.303	924.295	744.728
230.869	24.890	923.248	742.105
231.884	25.180	923.478	743.427
232.899	26.021	923.500	746.862
233.913	25.849	922.858	745.568
234.928	25.721	922.473	744.662
235.942	25.636	922.296	744.101
236.957	25.271	921.210	741.650
237.972	25.437	920.472	741.674
238.986	25.590	919.866	741.753
240.001	25.496	919.477	740.987
241.015	25.665	918.799	741.070
242.030	25.871	918.562	741.662
243.045	25.870	918.053	741.181
244.059	26.056	917.772	741.653
245.074	26.071	915.928	740.160
246.088	25.514	915.226	737.241
247.103	25.781	915.255	738.296
248.117	26.336	915.487	740.694
249.132	26.593	914.900	741.206
250.147	26.659	914.185	740.831
251.161	26.852	913.447	740.954
252.176	26.760	913.237	740.341
253.190	26.974	912.718	740.731
254.205	27.027	912.466	740.675
255.220	27.073	911.241	739.803
256.234	26.876	910.836	738.609
257.249	26.767	909.960	737.387
258.263	26.774	909.451	736.938
259.278	26.785	908.825	736.410
260.293	26.880	908.169	736.200
261.307	26.694	907.633	734.943
262.322	26.823	906.447	734.444
263.336	25.800	904.725	728.846
264.351	24.853	902.366	723.056
265.366	24.921	902.334	723.244
266.380	26.125	902.992	728.568
267.395	26.464	902.713	729.646
268.409	26.456	901.985	728.962
269.424	26.452	902.256	729.099
270.439	26.566	901.111	728.568
271.453	26.709	900.354	728.467
272.468	26.749	900.293	728.516
273.482	26.814	899.890	728.384
274.497	26.388	898.674	725.625
275.512	26.071	898.005	723.750
276.526	26.377	898.047	724.946
277.541	26.651	897.398	725.456
278.555	26.412	896.571	723.767
279.570	26.225	895.748	722.293
280.585	26.540	894.800	722.720
281.599	26.416	894.103	721.598
282.614	25.894	892.997	718.563
283.628	25.890	892.423	718.022
284.643	26.196	892.408	719.166
285.657	25.878	891.131	716.807
286.672	25.456	890.169	714.293
287.687	26.033	890.265	716.597
288.701	26.144	889.827	716.623
289.716	25.806	888.920	714.491
290.730	25.872	887.954	713.910
291.745	25.726	887.003	712.508
292.760	25.808	887.218	712.942
293.774	26.890	887.409	717.311
294.789	27.199	887.268	718.357
295.803	27.147	886.738	717.657
296.818	27.205	886.125	717.327
297.833	26.771	884.829	714.503
298.847	26.739	883.817	713.496
299.862	26.981	883.955	714.498
300.876	27.083	883.991	714.865
301.891	27.054	882.775	713.704
302.906	26.622	882.114	711.410
303.920	26.857	881.769	711.992
304.935	27.052	881.791	712.713
305.949	27.166	880.639	712.163
306.964	26.880	879.747	710.262
307.979	26.921	879.482	710.146
308.993	27.277	879.434	711.435
310.008	27.246	878.699	710.657
311.022	26.880	877.830	708.460
312.037	26.970	876.900	707.999
313.052	26.659	876.016	706.011
314.066	25.761	874.462	701.201
315.081	25.345	873.867	699.045
316.095	26.231	874.145	702.651
317.110	26.795	873.820	704.521
318.125	26.018	872.496	700.374
319.139	24.784	871.335	694.593
320.154	24.836	870.670	694.202
321.168	25.612	871.334	697.684
322.183	26.529	871.272	701.124
323.197	26.717	870.574	701.228
324.212	26.924	870.051	701.546
325.227	27.003	869.581	701.408
326.241	26.748	869.048	699.935
327.256	26.570	868.568	698.798
328.270	26.403	867.982	697.620
329.285	26.451	866.793	696.787
330.300	26.147	866.168	695.053
331.314	26.522	865.876	696.201
332.329	26.849	865.944	697.452
333.343	26.914	865.924	697.625
334.358	26.892	865.192	696.887
335.373	26.964	865.041	696.980
336.387	27.271	864.933	698.009
337.402	27.430	864.673	698.352
338.416	27.379	864.106	697.635
339.431	27.343	864.271	697.569
340.446	27.657	863.801	698.330
341.460	27.662	862.874	697.536
342.475	27.487	862.095	696.179
343.489	27.475	862.164	696.123
344.504	27.667	861.912	696.594
345.519	27.902	861.803	697.343
346.533	27.875	861.126	696.627
347.548	27.877	860.553	696.110
348.562	27.831	859.951	695.387
349.577	27.804	859.138	694.567
350.592	27.884	857.962	693.856
351.606	27.768	857.793	693.218
352.621	27.583	857.167	691.949
353.635	27.596	856.073	691.055
354.650	26.898	854.346	686.957
355.665	26.088	852.824	682.609
356.679	26.248	853.356	683.579
357.694	26.722	852.885	684.935
358.708	26.665	851.945	683.906
359.723	27.063	851.942	685.343
360.738	27.425	851.397	686.208
361.752	27.626	850.955	686.551
362.767	27.830	850.953	687.253
363.781	28.116	850.427	687.846
364.796	28.330	850.117	688.338
365.810	28.219	850.045	687.801
366.825	28.149	849.166	686.766
367.840	27.782	848.653	684.912
368.854	27.499	847.417	682.797
369.869	27.391	847.450	682.358
370.883	27.442	846.942	682.080
371.898	27.325	846.498	681.221
372.913	27.646	845.676	681.701
373.927	27.724	845.360	681.678
374.942	27.780	845.004	681.538
375.956	27.870	844.891	681.723
376.971	28.064	844.420	682.008
377.986	28.081	844.292	681.905
379.000	28.140	843.533	681.451
380.015	27.938	842.945	680.164
381.029	27.971	841.959	679.432
382.044	28.136	841.808	679.862
383.059	28.232	841.090	679.580
384.073	28.151	840.410	678.671
385.088	27.958	839.972	677.542
386.102	27.808	839.457	676.510
387.117	27.868	838.304	675.744
388.132	27.459	837.171	673.258
389.146	26.928	836.588	670.767
390.161	27.508	836.499	672.778
391.175	27.755	836.234	673.419
392.190	27.547	835.267	671.815
393.205	26.182	833.295	665.145
394.219	24.745	831.262	658.176
395.234	24.474	831.115	657.005
396.248	26.091	832.513	664.008
397.263	27.644	833.406	670.379
398.278	27.694	832.764	669.984
399.292	27.304	832.430	668.225
400.307	27.322	831.713	667.657
401.321	27.406	831.470	667.711
402.336	27.934	831.486	669.598
403.350	28.288	831.440	670.802
404.365	28.499	831.341	671.434
405.380	28.852	830.743	672.183
406.394	28.944	830.123	671.957
407.409	28.879	829.542	671.191
408.423	28.826	829.300	670.742
409.438	28.992	829.155	671.171
410.453	28.881	828.431	670.120
411.467	28.641	827.980	668.822
412.482	28.860	827.313	669.023
413.496	29.058	826.749	669.227
414.511	28.911	826.414	668.362
415.526	28.855	826.537	668.198
416.540	28.758	825.705	667.115
417.555	28.389	825.070	665.203
418.569	28.630	824.383	665.463
419.584	28.554	823.998	664.819
420.599	28.338	823.048	663.211
421.613	94.924	1265.972	1373.802
422.628	81.874	1330.542	1373.939
