DTS Sentinel unit serial number:	SN413079Multiplexer serial number:	ORYXHardware model number:	OX4-SRSoftware version number:	ORYX F/W v4.00 Oryx Data Collector v3.7.2.0data status	okinstallation	princeton_trtdifferential loss correction	single-endedforward channel	channel 1reverse channel	N/Adate	2019/09/14time	00:14:35forward acquisition time	60.00reverse acquisition time	0.00gamma	496.2192k internal	0.2337k external	0.2337temperature offset calibration	1.0077default loss term (dB/km)	0.3790temperature slope calibration	1.0000multiplexer offset coefficient	1.0000multiplexer slope coefficient	1.0000fibre end	0.00T internal ref (°C)	26.50T ext. ref 1 (°C)	3.17T ext. ref 2 (°C)	21.45length (m)	temperature (°C)	Stokes	anti-Stokes-747.200	800.000	-0.081	0.239
-746.185	-22.086	-0.284	0.173
-745.171	-15.524	0.180	0.116
-744.156	-102.279	-0.258	0.062
-743.142	139.300	0.092	0.122
-742.127	124.700	-0.427	0.540
-741.112	-105.111	0.186	-0.043
-740.098	-155.013	-0.274	0.018
-739.083	177.909	0.116	0.170
-738.069	22.570	-0.065	0.054
-737.054	30.392	-0.231	-0.198
-736.039	-96.441	-0.242	-0.064
-735.025	720.095	0.091	0.242
-734.010	-21.040	-0.378	0.232
-732.996	111.226	-0.117	0.142
-731.981	12.764	-0.239	-0.186
-730.966	-9.366	0.083	-0.056
-729.952	-172.574	-0.289	-0.009
-728.937	-27.684	-0.305	-0.178
-727.923	646.981	0.034	-0.086
-726.908	-200.000	-0.039	-0.212
-725.894	-189.484	-0.247	0.003
-724.879	-61.125	-0.412	-0.174
-723.864	578.035	0.016	-0.040
-722.850	86.570	-0.224	0.248
-721.835	800.000	-0.082	-0.325
-720.821	-133.456	0.044	-0.006
-719.806	185.067	-0.034	0.050
-718.791	-88.809	0.220	0.065
-717.777	-98.836	-0.183	0.047
-716.762	520.463	0.056	-0.131
-715.748	629.847	0.094	-0.239
-714.733	-90.338	-0.209	0.061
-713.718	112.277	-0.183	0.221
-712.704	-200.000	0.051	0.326
-711.689	800.000	-0.104	-0.290
-710.675	-83.681	0.121	0.039
-709.660	-70.692	-0.535	0.203
-708.645	-177.650	0.087	-0.002
-707.631	-6.450	-0.166	0.114
-706.616	6.790	-0.230	-0.171
-705.602	-60.867	-0.206	-0.088
-704.587	-12.060	0.148	-0.097
-703.572	37.247	-0.218	0.194
-702.558	10.857	0.235	-0.180
-701.543	479.871	0.094	-0.213
-700.529	-21.837	-0.085	-0.052
-699.514	-90.469	0.108	0.031
-698.499	-39.870	-0.274	-0.143
-697.485	-55.234	0.244	-0.110
-696.470	88.812	-0.071	-0.079
-695.456	800.000	0.120	-0.409
-694.441	326.626	-0.078	0.149
-693.426	-200.000	-0.008	0.200
-692.412	215.737	0.149	0.237
-691.397	-149.001	-0.248	0.020
-690.383	-12.642	-0.300	0.196
-689.368	-10.016	-0.119	0.079
-688.354	66.943	-0.156	0.159
-687.339	-42.933	0.185	0.094
-686.324	-200.000	-0.026	0.178
-685.310	289.677	0.214	-0.389
-684.295	77.027	0.070	0.075
-683.281	-18.165	0.086	0.054
-682.266	-164.147	0.115	0.005
-681.251	-200.000	-0.023	0.119
-680.237	-200.000	0.037	0.449
-679.222	171.190	-0.131	0.188
-678.208	234.842	-0.037	0.061
-677.193	301.918	0.025	0.047
-676.178	30.131	0.301	-0.257
-675.164	-47.140	-0.101	-0.049
-674.149	-169.769	-0.268	-0.010
-673.135	-108.186	-0.370	0.080
-672.120	-200.000	-0.007	0.244
-671.105	193.978	-0.053	0.080
-670.091	79.607	-0.174	0.187
-669.076	51.249	-0.254	-0.241
-668.062	-48.171	-0.194	0.094
-667.047	80.493	-0.125	-0.134
-666.032	-34.602	0.322	-0.176
-665.018	282.469	-0.130	-0.234
-664.003	-85.489	0.262	0.082
-662.989	487.748	-0.153	-0.349
-661.974	-162.112	0.119	-0.006
-660.959	-26.328	-0.221	-0.130
-659.945	-200.000	-0.004	0.134
-658.930	-37.680	-0.174	-0.093
-657.916	-136.809	-0.018	-0.002
-656.901	-85.492	0.185	0.058
-655.886	-81.307	0.090	0.030
-654.872	-177.823	-0.213	-0.005
-653.857	-112.700	0.119	-0.024
-652.843	-3.241	-0.179	0.125
-651.828	800.000	-0.064	0.217
-650.814	750.960	-0.035	0.095
-649.799	443.237	0.101	0.222
-648.784	-76.843	-0.159	0.056
-647.770	-161.414	-0.359	0.019
-646.755	-200.000	-0.007	0.208
-645.741	177.325	0.194	-0.282
-644.726	800.000	-0.055	-0.164
-643.711	223.729	-0.128	0.206
-642.697	-49.077	0.058	0.028
-641.682	-72.073	0.132	-0.049
-640.668	-200.000	-0.014	0.074
-639.653	-200.000	0.008	-0.353
-638.638	-25.801	-0.286	0.169
-637.624	-148.170	-0.087	-0.007
-636.609	-100.611	-0.241	0.059
-635.595	544.809	-0.042	0.099
-634.580	48.752	0.051	0.048
-633.565	-200.000	-0.002	0.126
-632.551	-200.000	-0.019	-0.125
-631.536	800.000	-0.084	-0.303
-630.522	93.001	0.111	-0.125
-629.507	-200.000	0.001	-0.040
-628.492	125.243	-0.273	0.343
-627.478	205.355	0.236	0.367
-626.463	800.000	0.033	0.127
-625.449	-200.000	-0.022	0.210
-624.434	-91.791	0.174	-0.049
-623.419	800.000	0.062	-0.175
-622.405	-200.000	0.038	-0.286
-621.390	-200.000	0.015	0.263
-620.376	-72.487	-0.236	-0.087
-619.361	-200.000	0.034	-0.174
-618.346	145.357	0.148	0.198
-617.332	-71.990	0.096	-0.036
-616.317	-200.000	0.079	0.352
-615.303	55.471	0.262	0.254
-614.288	-200.000	-0.028	0.150
-613.273	-3.791	-0.214	-0.148
-612.259	800.000	0.116	-0.376
-611.244	-200.000	0.061	-0.275
-610.230	102.311	-0.063	0.073
-609.215	-93.787	-0.317	0.087
-608.201	-165.810	0.365	-0.016
-607.186	-200.000	0.042	-0.232
-606.171	182.921	-0.157	-0.231
-605.157	148.394	-0.189	0.255
-604.142	-132.615	0.360	0.046
-603.128	800.000	-0.125	0.364
-602.113	32.001	0.112	0.096
-601.098	553.580	0.028	0.068
-600.084	-76.779	-0.270	0.095
-599.069	-200.000	0.036	-0.159
-598.055	-60.404	-0.343	0.146
-597.040	-72.402	-0.187	0.069
-596.025	-147.899	-0.090	0.007
-595.011	-200.000	0.017	-0.129
-593.996	180.434	0.095	0.139
-592.982	67.819	0.321	-0.327
-591.967	55.533	0.252	0.244
-590.952	61.455	0.091	0.090
-589.938	-154.329	-0.278	-0.019
-588.923	-200.000	0.006	0.036
-587.909	-200.000	-0.019	0.195
-586.894	-40.496	0.099	-0.051
-585.879	-174.604	-0.112	0.003
-584.865	77.471	-0.216	-0.230
-583.850	162.081	-0.049	0.069
-582.836	-144.583	-0.434	-0.040
-581.821	-99.005	0.212	0.054
-580.806	12.248	0.144	-0.111
-579.792	568.753	0.065	-0.157
-578.777	13.534	0.078	-0.060
-577.763	-200.000	0.029	-0.413
-576.748	-76.138	0.277	0.098
-575.733	-200.000	-0.032	0.269
-574.719	41.022	0.071	0.064
-573.704	100.419	-0.210	-0.243
-572.690	785.515	0.156	0.426
-571.675	81.659	0.146	0.157
-570.661	503.156	0.105	0.242
-569.646	-19.593	0.263	-0.162
-568.631	-22.601	-0.267	0.161
-567.617	65.601	-0.053	-0.054
-566.602	-156.277	-0.130	0.008
-565.588	151.511	-0.128	-0.174
-564.573	-200.000	-0.011	0.130
-563.558	-72.513	0.149	-0.055
-562.544	699.885	0.096	0.253
-561.529	-162.377	0.209	-0.010
-560.515	-123.268	-0.288	-0.046
-559.500	-96.228	-0.204	0.054
-558.485	-7.891	-0.250	-0.168
-557.471	800.000	-0.071	-0.210
-556.456	410.608	0.021	0.044
-555.442	-107.018	0.115	0.025
-554.427	-80.447	-0.163	-0.054
-553.412	283.840	0.070	0.125
-552.398	-29.490	0.254	-0.145
-551.383	135.575	-0.069	0.089
-550.369	365.000	-0.031	-0.061
-549.354	-65.175	0.232	0.093
-548.339	407.967	0.085	-0.180
-547.325	4.153	0.050	0.036
-546.310	-36.273	-0.127	-0.068
-545.296	-110.269	0.330	0.068
-544.281	20.342	0.026	-0.021
-543.266	-143.362	-0.198	0.019
-542.252	169.910	0.268	-0.382
-541.237	363.409	-0.021	0.041
-540.223	-32.982	0.197	-0.109
-539.208	-36.958	0.069	-0.037
-538.193	216.350	-0.133	-0.210
-537.179	-108.738	-0.115	-0.025
-536.164	353.642	-0.065	0.129
-535.150	740.498	0.057	0.152
-534.135	-200.000	-0.030	0.267
-533.121	-100.307	0.149	-0.037
-532.106	-103.673	-0.415	0.097
-531.091	167.985	0.072	-0.102
-530.077	-96.922	-0.116	0.030
-529.062	-38.568	-0.116	0.061
-528.048	225.015	-0.184	0.297
-527.033	-109.073	0.375	0.079
-526.018	-112.103	-0.246	-0.049
-525.004	800.000	-0.115	-0.374
-523.989	429.700	0.207	-0.445
-522.975	104.980	0.097	-0.114
-521.960	68.486	-0.156	0.159
-520.945	800.000	0.006	-0.016
-519.931	-200.000	0.028	0.198
-518.916	-15.097	0.250	0.160
-517.902	368.374	-0.131	-0.264
-516.887	-160.135	0.122	-0.007
-515.872	-10.904	0.087	0.057
-514.858	-105.607	0.259	-0.058
-513.843	277.612	-0.285	0.504
-512.829	-50.276	-0.333	-0.157
-511.814	800.000	-0.098	0.276
-510.799	-200.000	0.016	0.123
-509.785	-200.000	0.017	-0.268
-508.770	384.695	-0.132	0.270
-507.756	644.270	0.058	-0.146
-506.741	-200.000	-0.010	0.245
-505.726	81.657	0.074	-0.079
-504.712	61.538	-0.161	-0.159
-503.697	800.000	0.044	-0.151
-502.683	800.000	0.154	-0.450
-501.668	176.828	0.094	0.136
-500.653	-75.126	-0.063	0.022
-499.639	-200.000	0.009	-0.294
-498.624	-200.000	0.042	0.364
-497.610	-185.849	0.112	-0.002
-496.595	800.000	0.076	-0.211
-495.581	28.937	-0.108	0.091
-494.566	-200.000	0.010	-0.087
-493.551	-86.620	0.095	0.029
-492.537	-200.000	-0.010	-0.055
-491.522	78.499	-0.168	0.178
-490.508	-137.554	0.331	-0.037
-489.493	-200.000	-0.068	0.343
-488.478	-200.000	-0.005	-0.328
-487.464	800.000	-0.037	-0.136
-486.449	486.059	-0.071	0.160
-485.435	-127.300	0.249	0.036
-484.420	-82.368	-0.369	-0.119
-483.405	39.914	0.332	0.296
-482.391	-200.000	-0.010	-0.078
-481.376	-94.070	-0.081	-0.022
-480.362	31.424	-0.112	0.096
-479.347	-67.692	-0.186	0.072
-478.332	-151.903	0.187	-0.014
-477.318	-44.343	-0.061	0.030
-476.303	723.056	-0.155	0.409
-475.289	141.442	0.074	-0.097
-474.274	13.749	-0.070	0.054
-473.259	-128.063	0.209	0.030
-472.245	0.130	0.087	0.061
-471.230	-101.956	0.184	-0.044
-470.216	34.226	-0.206	0.178
-469.201	-200.000	0.037	-0.172
-468.186	-200.000	0.014	0.063
-467.172	-16.384	0.269	-0.169
-466.157	62.450	0.153	0.152
-465.143	484.011	-0.067	0.152
-464.128	-187.325	-0.438	-0.006
-463.113	-94.414	0.193	-0.052
-462.099	52.110	-0.186	-0.176
-461.084	-104.398	-0.231	-0.053
-460.070	473.654	-0.055	0.123
-459.055	-200.000	0.022	0.127
-458.040	800.000	0.009	-0.037
-457.026	-124.364	0.134	0.021
-456.011	149.909	0.153	0.206
-454.997	-155.857	0.099	-0.006
-453.982	656.000	0.091	0.232
-452.968	432.416	-0.065	-0.139
-451.953	-200.000	0.003	-0.147
-450.938	105.171	-0.070	0.081
-449.924	-136.176	0.302	-0.035
-448.909	-200.000	0.010	-0.218
-447.895	-124.933	0.266	0.041
-446.880	800.000	0.115	-0.351
-445.865	-88.298	-0.092	0.027
-444.851	800.000	0.041	0.128
-443.836	800.000	-0.060	-0.199
-442.822	-74.049	0.042	-0.015
-441.807	8.784	0.158	-0.118
-440.792	-58.310	-0.374	0.162
-439.778	2.214	-0.176	0.126
-438.763	265.535	0.044	-0.076
-437.749	-13.862	-0.150	-0.096
-436.734	800.000	0.070	0.206
-435.719	-11.827	-0.301	0.196
-434.705	23.088	0.192	0.156
-433.690	-27.213	-0.175	0.101
-432.676	-34.350	0.203	-0.110
-431.661	-30.936	-0.321	-0.180
-430.646	116.269	-0.067	-0.082
-429.632	-200.000	0.037	-0.413
-428.617	-174.388	0.233	0.007
-427.603	289.281	-0.061	-0.109
-426.588	-22.502	0.342	0.205
-425.573	446.306	-0.040	-0.087
-424.559	-104.818	-0.482	0.110
-423.544	7.326	-0.125	-0.093
-422.530	-2.639	-0.396	0.275
-421.515	800.000	0.088	0.268
-420.500	-200.000	-0.003	0.207
-419.486	-100.412	-0.361	-0.089
-418.471	-200.000	0.045	-0.274
-417.457	-200.000	-0.059	-0.412
-416.442	333.097	0.167	0.320
-415.428	800.000	-0.085	-0.271
-414.413	800.000	-0.023	0.095
-413.398	800.000	0.126	0.451
-412.384	131.372	-0.085	0.109
-411.369	-130.512	0.310	0.041
-410.355	-122.156	-0.149	-0.024
-409.340	-88.097	0.182	0.054
-408.325	-14.694	0.489	-0.311
-407.311	163.505	0.094	-0.131
-406.296	-33.190	-0.290	0.159
-405.282	164.570	-0.142	-0.198
-404.267	800.000	-0.141	-0.477
-403.252	-200.000	0.044	0.355
-402.238	71.178	0.352	0.362
-401.223	-82.103	0.149	0.048
-400.209	-50.274	0.150	-0.070
-399.194	-32.988	0.271	0.149
-398.179	275.054	-0.168	-0.296
-397.165	-200.000	0.038	0.232
-396.150	-32.065	-0.204	0.113
-395.136	-40.966	0.232	-0.119
-394.121	56.765	-0.200	-0.193
-393.106	800.000	0.033	-0.117
-392.092	10.339	-0.232	-0.175
-391.077	-200.000	0.050	-0.246
-390.063	209.926	-0.260	-0.404
-389.048	47.724	-0.146	0.135
-388.033	-119.964	-0.135	0.023
-387.019	800.000	0.068	0.271
-386.004	-136.425	0.168	-0.019
-384.990	-200.000	-0.024	-0.148
-383.975	47.505	-0.170	-0.157
-382.960	-90.768	0.392	0.112
-381.946	-4.102	0.299	0.205
-380.931	-78.782	-0.030	-0.010
-379.917	254.297	-0.042	-0.072
-378.902	-200.000	0.042	-0.189
-377.888	-200.000	0.002	0.402
-376.873	9.268	-0.194	0.145
-375.858	-200.000	0.005	0.064
-374.844	-183.795	0.198	0.003
-373.829	744.254	0.038	0.100
-372.815	250.143	0.093	0.156
-371.800	800.000	-0.053	0.164
-370.785	548.851	-0.085	0.202
-369.771	-99.663	-0.438	-0.109
-368.756	800.000	0.094	0.306
-367.742	-42.755	-0.124	-0.062
-366.727	488.702	0.002	-0.004
-365.712	382.198	0.070	-0.141
-364.698	-51.146	-0.206	0.096
-363.683	82.290	-0.184	0.197
-362.669	-0.843	0.247	-0.173
-361.654	800.000	-0.048	-0.151
-360.639	181.406	-0.184	-0.268
-359.625	-200.000	-0.015	-0.090
-358.610	490.351	0.147	-0.332
-357.596	-35.518	-0.266	-0.143
-356.581	79.585	-0.088	0.094
-355.566	164.884	0.154	0.215
-354.552	-63.116	-0.208	0.085
-353.537	-59.236	-0.116	0.049
-352.523	-200.000	-0.019	0.241
-351.508	56.598	0.246	-0.237
-350.493	800.000	-0.102	-0.290
-349.479	-48.669	-0.159	0.076
-348.464	24.451	0.069	0.057
-347.450	-25.174	-0.242	0.142
-346.435	-200.000	0.009	0.250
-345.420	-22.324	0.122	0.073
-344.406	225.370	-0.142	-0.227
-343.391	800.000	-0.043	-0.156
-342.377	-200.000	0.016	-0.219
-341.362	287.680	0.050	0.090
-340.348	-76.534	0.218	0.076
-339.333	70.000	-0.017	0.018
-338.318	178.813	-0.201	-0.290
-337.304	-200.000	-0.044	-0.270
-336.289	800.000	0.042	0.170
-335.275	-81.527	0.194	0.063
-334.260	-27.996	-0.182	0.104
-333.245	-126.753	0.205	-0.030
-332.231	135.979	0.225	-0.290
-331.216	172.074	0.028	-0.040
-330.202	123.913	-0.084	0.104
-329.187	-87.984	-0.166	-0.049
-328.172	-34.034	0.200	-0.108
-327.158	190.515	-0.125	0.185
-326.143	604.797	0.107	0.264
-325.129	-95.969	-0.179	0.047
-324.114	327.530	-0.063	0.119
-323.099	82.187	-0.123	-0.132
-322.085	-101.764	0.131	0.031
-321.070	-24.617	0.310	-0.182
-320.056	177.139	0.214	0.307
-319.041	163.463	-0.068	0.094
-318.026	116.681	0.055	0.067
-317.012	-28.306	-0.156	0.089
-315.997	10.328	0.435	0.327
-314.983	-200.000	-0.024	-0.121
-313.968	-26.702	0.145	-0.084
-312.953	800.000	-0.092	-0.256
-311.939	583.725	-0.107	-0.260
-310.924	100.258	0.124	-0.142
-309.910	55.463	-0.148	-0.141
-308.895	186.026	-0.187	0.275
-307.880	-103.980	-0.031	0.007
-306.866	123.198	-0.149	-0.184
-305.851	12.890	-0.238	0.181
-304.837	121.072	0.227	-0.278
-303.822	-146.578	-0.160	0.014
-302.807	714.956	0.037	0.097
-301.793	800.000	-0.090	-0.300
-300.778	-115.125	-0.222	0.042
-299.764	666.028	-0.045	0.114
-298.749	83.536	0.107	0.115
-297.735	-12.673	0.057	-0.037
-296.720	431.762	-0.068	-0.146
-295.705	-53.816	-0.233	0.105
-294.691	13.046	0.445	0.339
-293.676	376.284	0.067	-0.135
-292.662	-200.000	-0.015	-0.183
-291.647	-41.017	0.203	-0.103
-290.632	-200.000	0.014	-0.320
-289.618	-34.622	-0.232	0.125
-288.603	40.577	0.233	0.207
-287.589	-200.000	-0.038	0.225
-286.574	641.225	0.027	-0.067
-285.559	-71.646	-0.211	-0.078
-284.545	395.755	0.034	-0.070
-283.530	-49.806	-0.256	-0.120
-282.516	-32.545	-0.179	0.099
-281.501	800.000	-0.061	0.245
-280.486	-42.196	0.229	-0.116
-279.472	800.000	0.022	0.085
-278.457	91.060	-0.159	0.176
-277.443	-89.300	-0.188	-0.055
-276.428	800.000	-0.019	-0.062
-275.413	126.935	0.239	-0.298
-274.399	800.000	0.051	-0.190
-273.384	116.161	-0.113	-0.136
-272.370	-35.895	0.049	0.026
-271.355	52.096	-0.091	-0.086
-270.340	-200.000	0.030	-0.489
-269.326	51.886	0.123	-0.115
-268.311	-200.000	-0.016	-0.266
-267.297	-148.762	-0.248	-0.020
-266.282	100.753	-0.161	-0.185
-265.267	-119.626	0.223	-0.038
-264.253	-0.223	-0.139	-0.097
-263.238	-157.201	0.153	0.009
-262.224	800.000	0.013	-0.046
-261.209	210.030	-0.094	0.145
-260.195	-200.000	-0.005	0.058
-259.180	-200.000	0.044	-0.258
-258.165	-59.092	0.271	-0.115
-257.151	-128.571	0.150	-0.021
-256.136	-200.000	-0.030	0.197
-255.122	-146.872	-0.153	0.013
-254.107	4.122	0.163	-0.117
-253.092	-112.909	0.451	0.088
-252.078	-36.512	-0.027	0.015
-251.063	-69.249	-0.243	0.092
-250.049	15.317	-0.127	0.098
-249.034	800.000	0.064	0.249
-248.019	-3.284	0.353	-0.242
-247.005	-144.299	-0.087	-0.008
-245.990	-44.550	-0.219	-0.108
-244.976	-200.000	-0.010	-0.185
-243.961	-125.089	-0.262	0.040
-242.946	-12.401	-0.218	-0.140
-241.932	43.479	0.194	0.174
-240.917	-138.613	0.193	0.021
-239.903	-122.077	-0.088	-0.014
-238.888	245.918	-0.086	0.142
-237.873	-200.000	-0.010	0.263
-236.859	-17.839	0.108	-0.066
-235.844	-200.000	-0.007	-0.202
-234.830	-63.918	0.198	-0.080
-233.815	-126.234	-0.138	0.020
-232.800	84.776	0.112	-0.121
-231.786	-200.000	0.007	-0.113
-230.771	-42.857	-0.451	0.225
-229.757	800.000	-0.065	0.181
-228.742	-70.127	-0.020	-0.008
-227.727	-44.498	-0.178	-0.088
-226.713	-23.336	0.305	-0.180
-225.698	-96.982	0.271	0.070
-224.684	46.351	-0.021	0.020
-223.669	-200.000	-0.013	0.072
-222.655	50.061	-0.198	0.184
-221.640	-154.696	-0.046	-0.003
-220.625	314.226	-0.036	0.066
-219.611	415.144	0.015	0.032
-218.596	715.488	0.066	0.172
-217.582	-200.000	0.033	0.164
-216.567	-66.787	-0.357	-0.139
-215.552	19.126	0.056	0.044
-214.538	70.496	0.166	-0.169
-213.523	134.484	-0.138	-0.177
-212.509	-132.346	-0.229	0.029
-211.494	-200.000	0.000	0.065
-210.479	32.792	0.205	-0.175
-209.465	52.543	-0.099	0.093
-208.450	-152.064	0.032	0.002
-207.436	160.845	0.195	-0.268
-206.421	3.449	0.150	-0.107
-205.406	-200.000	0.003	0.191
-204.392	13.881	-0.349	0.267
-203.377	108.034	0.055	-0.065
-202.363	-200.000	-0.001	-0.138
-201.348	25.227	0.201	0.164
-200.333	-114.039	0.053	-0.010
-199.319	65.951	-0.319	-0.318
-198.304	223.513	0.057	-0.090
-197.290	-58.461	0.213	-0.091
-196.275	-142.873	-0.051	-0.005
-195.260	-122.429	0.293	0.047
-194.246	-138.731	-0.167	0.018
-193.231	-54.226	-0.352	0.157
-192.217	103.024	0.106	0.122
-191.202	142.793	0.172	0.225
-190.187	72.669	0.188	0.192
-189.173	-200.000	0.023	0.319
-188.158	-200.000	0.019	-0.085
-187.144	-116.954	0.104	-0.019
-186.129	305.776	-0.046	-0.084
-185.114	-86.919	0.223	-0.067
-184.100	-121.912	0.117	0.019
-183.085	-174.706	0.161	-0.004
-182.071	800.000	-0.085	0.278
-181.056	-200.000	-0.011	-0.184
-180.042	574.678	-0.038	-0.090
-179.027	474.508	0.116	0.258
-178.012	74.271	0.027	-0.028
-176.998	266.933	0.111	-0.191
-175.983	-134.945	0.110	-0.013
-174.969	-200.000	0.014	-0.159
-173.954	65.443	-0.151	0.150
-172.939	800.000	0.075	0.265
-171.925	112.466	-0.140	-0.167
-170.910	-39.735	-0.045	-0.023
-169.896	161.361	-0.176	0.241
-168.881	400.320	0.045	0.093
-167.866	-200.000	-0.072	-0.563
-166.852	-90.618	-0.225	-0.064
-165.837	-3.498	0.341	-0.233
-164.823	-200.000	0.003	0.337
-163.808	-76.221	0.147	-0.051
-162.793	142.708	-0.250	-0.326
-161.779	-200.000	0.000	-0.176
-160.764	126.665	0.466	0.580
-159.750	256.187	0.138	-0.232
-158.735	212.608	-0.011	-0.017
-157.720	-200.000	0.029	0.163
-156.706	-57.155	0.156	-0.068
-155.691	-106.012	-0.319	0.070
-154.677	32.565	0.197	0.167
-153.662	-200.000	-0.033	-0.195
-152.647	-70.080	0.323	0.121
-151.633	462.088	0.006	0.013
-150.618	-97.496	0.278	0.071
-149.604	-69.694	0.433	-0.162
-148.589	-104.474	0.280	-0.064
-147.574	-200.000	-0.052	0.291
-146.560	-103.234	-0.254	0.059
-145.545	-169.231	0.112	0.004
-144.531	444.838	-0.118	0.253
-143.516	257.464	0.274	0.462
-142.502	281.539	-0.046	0.080
-141.487	-49.325	-0.223	0.104
-140.472	567.405	0.073	-0.173
-139.458	152.818	-0.179	-0.240
-138.443	-200.000	0.020	0.461
-137.429	220.643	0.186	0.292
-136.414	-200.000	0.010	0.222
-135.399	-200.000	-0.217	0.000
-134.385	800.000	-0.048	0.195
-133.370	-200.000	-0.021	0.200
-132.356	444.955	-0.085	-0.184
-131.341	72.317	0.215	0.219
-130.326	64.847	-0.210	-0.207
-129.312	29.259	-0.262	0.218
-128.297	71.194	0.140	0.142
-127.283	180.658	0.144	-0.208
-126.268	-200.000	0.046	0.265
-125.253	-59.445	0.231	-0.097
-124.239	522.782	0.114	0.262
-123.224	209.928	0.099	0.152
-122.210	-4.725	0.213	-0.144
-121.195	-200.000	0.010	-0.066
-120.180	153.569	-0.326	0.437
-119.166	172.382	-0.088	0.124
-118.151	45.106	-0.074	0.067
-117.137	-200.000	-0.010	0.084
-116.122	236.453	-0.155	-0.252
-115.107	-60.437	-0.486	0.202
-114.093	-72.064	0.177	-0.064
-113.078	-200.000	0.037	-0.406
-112.064	4.739	0.057	0.041
-111.049	74.238	0.316	0.325
-110.034	-95.000	-0.090	0.024
-109.020	95.995	-0.258	0.289
-108.005	-70.241	0.174	0.065
-106.991	517.583	0.067	0.153
-105.976	465.543	-0.095	0.209
-104.962	150.539	0.045	0.060
-103.947	800.000	0.029	0.079
-102.932	408.029	0.107	-0.222
-101.918	37.775	0.126	0.110
-100.903	-58.898	-0.174	0.074
-99.889	7.992	0.168	-0.124
-98.874	-200.000	0.017	0.197
-97.859	634.711	-0.009	-0.022
-96.845	564.096	-0.067	-0.159
-95.830	-48.334	-0.055	0.026
-94.816	-200.000	-0.019	0.110
-93.801	-20.286	-0.261	0.157
-92.786	-24.005	-0.312	0.183
-91.772	-140.790	0.265	-0.027
-90.757	289.835	0.025	-0.044
-89.743	800.000	-0.089	-0.291
-88.728	191.301	-0.089	0.131
-87.713	800.000	0.164	0.510
-86.699	528.448	-0.129	-0.297
-85.684	64.421	-0.127	-0.125
-84.670	66.192	0.028	-0.028
-83.655	-200.000	-0.026	0.330
-82.640	-200.000	0.016	-0.277
-81.626	-103.902	0.202	-0.046
-80.611	-200.000	-0.010	0.140
-79.597	-92.708	-0.460	0.126
-78.582	-78.240	-0.283	0.095
-77.567	-6.638	0.156	0.104
-76.553	800.000	0.033	0.116
-75.538	-104.942	-0.170	-0.038
-74.524	64.581	-0.186	0.183
-73.509	-59.649	0.203	-0.085
-72.494	101.401	0.092	0.105
-71.480	53.812	-0.202	0.190
-70.465	696.532	-0.072	-0.186
-69.451	-12.920	0.244	-0.155
-68.436	800.000	-0.042	0.162
-67.422	-200.000	0.006	-0.302
-66.407	-86.609	-0.142	0.043
-65.392	800.000	-0.078	0.241
-64.378	141.995	-0.226	0.293
-63.363	-200.000	0.000	0.289
-62.349	134.394	-0.167	-0.212
-61.334	105.834	-0.917	-1.060
-60.319	246.028	0.410	0.675
-59.305	274.111	-0.567	-0.980
-58.290	107.056	1.021	1.185
-57.276	282.844	0.770	1.351
-56.261	-200.000	116.177	645.791
-55.246	504.645	1536.074	3474.837
-54.232	176.572	2704.354	3840.994
-53.217	105.657	2146.971	2480.167
-52.203	38.032	1582.958	1375.546
-51.188	30.044	1325.801	1104.638
-50.173	27.022	1287.581	1055.223
-49.159	52.767	1346.468	1257.360
-48.144	51.370	1359.019	1260.740
-47.130	29.957	1313.386	1093.608
-46.115	26.615	1295.455	1059.127
-45.100	26.309	1290.657	1053.375
-44.086	26.317	1287.934	1051.162
-43.071	26.265	1285.955	1049.204
-42.057	26.396	1283.454	1047.880
-41.042	26.448	1281.652	1046.667
-40.027	26.354	1280.640	1045.253
-39.013	26.317	1278.702	1043.420
-37.998	26.383	1276.722	1042.139
-36.984	26.398	1275.273	1041.001
-35.969	26.492	1273.137	1039.757
-34.954	26.488	1271.475	1038.340
-33.940	26.558	1269.906	1037.419
-32.925	26.539	1268.723	1036.299
-31.911	26.586	1267.653	1035.655
-30.896	26.558	1266.324	1034.368
-29.881	26.630	1264.215	1033.015
-28.867	26.648	1263.030	1032.109
-27.852	26.657	1261.551	1030.909
-26.838	26.641	1260.298	1029.752
-25.823	26.590	1259.154	1028.490
-24.809	26.599	1257.640	1027.259
-23.794	26.684	1255.873	1026.257
-22.779	26.615	1254.998	1025.109
-21.765	26.659	1253.544	1024.135
-20.750	26.678	1252.722	1023.525
-19.736	26.522	1251.611	1021.697
-18.721	26.394	1250.708	1020.200
-17.706	26.371	1249.547	1019.082
-16.692	26.352	1248.655	1018.205
-15.677	26.497	1246.754	1017.433
-14.663	26.517	1245.752	1016.686
-13.648	26.481	1244.477	1015.406
-12.633	26.336	1244.010	1014.169
-11.619	26.426	1242.929	1013.751
-10.604	26.429	1241.772	1012.785
-9.590	26.393	1241.445	1012.275
-8.575	26.454	1240.120	1011.495
-7.560	26.494	1239.351	1011.051
-6.546	26.498	1238.540	1010.373
-5.531	26.349	1237.794	1008.895
-4.517	26.495	1236.885	1008.923
-3.502	26.437	1235.718	1007.614
-2.487	26.549	1234.608	1007.287
-1.473	26.515	1230.611	1003.801
-0.458	24.989	1216.205	983.639
0.556	21.783	1200.260	947.444
1.571	18.250	1206.505	933.063
2.586	17.474	1220.922	939.845
3.600	17.167	1209.042	928.940
4.615	12.897	1138.355	852.519
5.629	6.105	1068.219	766.876
6.644	3.362	1050.321	740.783
7.659	3.097	1048.006	737.815
8.673	3.095	1047.300	737.243
9.688	3.137	1046.079	736.518
10.702	3.338	1043.948	735.915
11.717	7.235	1048.828	757.962
12.731	14.525	1059.318	800.584
13.746	19.078	1064.868	826.629
14.761	19.673	1065.079	829.575
15.775	18.952	1063.752	825.014
16.790	18.028	1061.000	818.382
17.804	17.198	1059.928	813.510
18.819	16.886	1059.195	811.384
19.834	16.836	1057.999	810.155
20.848	16.745	1057.505	809.269
21.863	16.387	1057.118	807.194
22.877	16.290	1056.267	806.007
23.892	16.229	1055.379	804.969
24.907	16.224	1054.497	804.202
25.921	16.300	1053.166	803.476
26.936	16.363	1052.162	802.938
27.950	16.444	1050.740	802.168
28.965	16.417	1049.276	800.852
29.980	16.536	1047.957	800.336
30.994	16.626	1047.136	800.061
32.009	16.572	1046.117	798.960
33.023	16.588	1044.890	798.025
34.038	16.526	1043.843	796.863
35.053	16.413	1043.177	795.754
36.067	16.409	1041.818	794.627
37.082	16.396	1041.588	794.322
38.096	16.439	1040.850	793.891
39.111	16.596	1039.859	793.799
40.126	16.385	1038.703	791.857
41.140	16.218	1036.835	789.585
42.155	16.000	1035.977	787.841
43.169	15.971	1035.161	787.013
44.184	16.013	1034.008	786.267
45.199	16.061	1032.758	785.469
46.213	16.235	1031.703	785.406
47.228	16.330	1031.020	785.259
48.242	16.395	1030.134	784.814
49.257	16.429	1028.820	783.904
50.271	16.456	1027.972	783.311
51.286	16.506	1027.607	783.199
52.301	16.334	1026.558	781.533
53.315	16.363	1025.092	780.479
54.330	16.312	1024.222	779.516
55.344	16.134	1023.460	778.044
56.359	16.238	1022.602	777.802
57.374	16.204	1021.604	776.819
58.388	16.034	1020.811	775.365
59.403	15.998	1020.031	774.540
60.417	16.177	1018.919	774.447
61.432	15.973	1018.716	773.287
62.447	15.972	1017.719	772.457
63.461	15.867	1016.919	771.302
64.476	16.022	1015.295	770.710
65.490	15.949	1014.860	769.978
66.505	15.820	1014.413	768.980
67.520	15.978	1013.832	769.195
68.534	16.056	1012.946	768.812
69.549	15.904	1012.415	767.648
70.563	15.894	1011.755	767.034
71.578	15.828	1010.572	765.768
72.593	15.756	1009.730	764.734
73.607	15.783	1009.176	764.367
74.622	15.916	1008.395	764.316
75.636	15.899	1007.693	763.637
76.651	15.785	1007.164	762.654
77.666	15.886	1006.227	762.330
78.680	15.881	1005.674	761.824
79.695	15.800	1005.404	761.186
80.709	16.032	1004.495	761.480
81.724	16.024	1004.348	761.261
82.739	16.224	1003.447	761.414
83.753	16.389	1002.775	761.584
84.768	16.579	1001.992	761.774
85.782	16.609	1001.290	761.310
86.797	16.540	999.876	759.856
87.812	16.485	998.806	758.728
88.826	16.520	998.183	758.347
89.841	16.452	997.609	757.538
90.855	16.461	996.353	756.557
91.870	16.551	996.029	756.650
92.884	16.610	994.534	755.709
93.899	16.517	993.860	754.713
94.914	16.646	993.276	754.779
95.928	16.561	992.348	753.628
96.943	16.574	991.351	752.861
97.957	16.608	990.318	752.161
98.972	16.470	989.884	751.151
99.987	16.666	988.304	750.759
101.001	16.597	987.809	750.011
102.016	16.533	986.822	748.911
103.030	16.594	986.447	748.828
104.045	16.579	985.414	747.912
105.060	16.583	984.628	747.267
106.074	16.175	983.680	744.680
107.089	16.063	982.201	743.003
108.103	16.068	981.531	742.451
109.118	16.043	980.528	741.516
110.133	16.039	979.300	740.506
111.147	16.005	979.024	740.083
112.162	16.091	978.032	739.645
113.176	16.203	977.603	739.746
114.191	16.260	976.932	739.422
115.206	16.139	976.187	738.264
116.220	16.096	975.483	737.477
117.235	16.126	974.012	736.429
118.249	16.187	973.307	736.097
119.264	16.073	972.414	734.863
120.279	16.009	971.849	734.089
121.293	16.024	971.114	733.536
122.308	16.017	969.586	732.285
123.322	15.830	968.981	730.952
124.337	15.984	967.800	730.664
125.352	16.015	966.586	729.819
126.366	15.856	965.846	728.505
127.381	15.847	964.702	727.540
128.395	15.911	964.190	727.366
129.410	16.064	962.924	727.006
130.424	16.117	962.286	726.689
131.439	16.230	961.343	726.399
132.454	16.199	960.947	725.903
133.468	16.169	959.958	724.961
134.483	16.151	959.194	724.245
135.497	16.093	958.532	723.431
136.512	16.115	957.580	722.740
137.527	16.185	956.635	722.265
138.541	16.263	956.008	722.061
139.556	16.243	955.567	721.579
140.570	16.571	954.569	722.163
141.585	16.484	954.416	721.610
142.600	16.583	953.271	721.103
143.614	16.562	952.285	720.204
144.629	16.645	951.720	720.068
145.643	16.600	950.660	719.010
146.658	16.496	949.530	717.648
147.673	16.462	948.496	716.660
148.687	16.271	947.904	715.342
149.702	16.195	947.177	714.407
150.716	16.241	946.608	714.109
151.731	16.181	946.243	713.518
152.746	16.284	945.026	712.971
153.760	16.398	944.441	712.948
154.775	16.340	943.889	712.224
155.789	16.459	943.573	712.423
156.804	16.627	942.469	712.234
157.819	16.477	941.968	711.163
158.833	16.662	941.245	711.332
159.848	16.718	940.627	711.037
160.862	16.611	939.523	709.689
161.877	16.505	938.308	708.267
162.892	16.488	936.816	707.003
163.906	16.426	935.955	706.031
164.921	16.262	935.449	704.903
165.935	16.525	934.370	705.125
166.950	16.465	933.948	704.494
167.964	16.482	932.688	703.553
168.979	16.411	932.161	702.798
169.994	16.500	931.082	702.292
171.008	16.643	930.499	702.382
172.023	16.792	929.980	702.549
173.037	16.679	929.252	701.466
174.052	16.635	928.286	700.495
175.067	16.530	927.310	699.263
176.081	16.502	926.991	698.841
177.096	16.283	926.489	697.497
178.110	16.568	925.819	698.107
179.125	16.581	925.369	697.759
180.140	16.626	924.377	697.137
181.154	16.562	924.684	697.044
182.169	16.775	924.011	697.348
183.183	16.851	923.386	697.130
184.198	16.762	922.651	696.146
185.213	16.810	922.071	695.843
186.227	16.711	921.313	694.806
187.242	16.886	920.847	695.110
188.256	17.080	920.197	695.351
189.271	16.977	919.332	694.215
190.286	16.694	918.239	692.174
191.300	16.529	917.214	690.666
192.315	16.274	916.977	689.384
193.329	16.529	916.011	689.635
194.344	16.615	915.753	689.731
195.359	16.550	915.459	689.183
196.373	16.842	914.510	689.597
197.388	16.722	914.811	689.276
198.402	17.038	913.836	689.763
199.417	17.107	913.053	689.392
200.432	17.220	913.072	689.803
201.446	17.323	912.107	689.432
202.461	17.425	911.718	689.491
203.475	17.190	910.655	687.673
204.490	17.078	910.281	686.878
205.504	16.951	909.325	685.582
206.519	17.010	908.682	685.274
207.534	16.908	908.012	684.300
208.548	16.896	907.651	683.915
209.563	17.236	906.829	684.607
210.577	17.108	906.424	683.724
211.592	17.100	905.765	683.136
212.607	17.210	905.000	682.938
213.621	17.039	904.175	681.570
214.636	17.274	903.357	681.837
215.650	17.230	902.800	681.180
216.665	17.364	902.322	681.294
217.680	17.294	901.560	680.377
218.694	17.310	900.830	679.832
219.709	17.413	900.417	679.874
220.723	17.231	899.967	678.743
221.738	17.137	899.280	677.792
222.753	17.319	898.355	677.761
223.767	17.254	898.164	677.298
224.782	17.398	897.732	677.483
225.796	17.472	897.185	677.305
226.811	17.480	895.981	676.371
227.826	17.447	895.218	675.604
228.840	17.370	894.432	674.645
229.855	17.294	893.535	673.608
230.869	17.288	893.084	673.182
231.884	17.245	892.386	672.427
232.899	17.252	891.380	671.638
233.913	17.090	890.821	670.517
234.928	17.121	890.329	670.210
235.942	17.048	889.993	669.609
236.957	16.905	889.984	668.980
237.972	17.147	888.785	668.973
238.986	17.093	887.833	667.985
240.001	17.281	887.619	668.505
241.015	17.232	886.637	667.512
242.030	17.278	885.971	667.133
243.045	17.299	885.703	666.953
244.059	17.276	885.306	666.505
245.074	17.424	884.624	666.511
246.088	17.595	883.859	666.549
247.103	17.604	882.808	665.729
248.117	17.530	883.197	665.675
249.132	17.862	882.504	666.391
250.147	17.934	882.080	666.294
251.161	17.885	881.610	665.689
252.176	18.039	880.619	665.480
253.190	18.066	880.050	665.097
254.205	18.266	879.026	665.040
255.220	18.022	878.749	663.827
256.234	17.989	878.449	663.413
257.249	17.988	877.916	662.945
258.263	18.036	876.807	662.236
259.278	18.124	875.685	661.672
260.293	18.103	875.404	661.318
261.307	18.312	874.979	661.746
262.322	18.137	874.714	660.812
263.336	18.375	873.340	660.632
264.351	18.200	872.719	659.432
265.366	18.290	872.414	659.490
266.380	18.239	871.565	658.591
267.395	18.290	871.062	658.352
268.409	18.181	870.419	657.387
269.424	18.088	869.713	656.438
270.439	17.981	868.802	655.282
271.453	18.000	868.153	654.806
272.468	17.951	867.947	654.407
273.482	18.116	866.903	654.194
274.497	17.989	866.388	653.262
275.512	18.082	865.677	653.023
276.526	18.176	865.123	652.907
277.541	18.173	864.720	652.533
278.555	18.194	864.476	652.370
279.570	18.286	863.951	652.267
280.585	18.405	862.899	651.868
281.599	18.171	862.102	650.317
282.614	18.251	861.844	650.372
283.628	18.228	861.098	649.664
284.643	18.314	860.131	649.202
285.657	18.220	859.950	648.650
286.672	18.274	858.980	648.067
287.687	18.241	858.291	647.366
288.701	18.318	857.839	647.259
289.716	18.369	857.098	646.836
290.730	18.406	856.671	646.595
291.745	18.287	855.949	645.542
292.760	18.431	855.660	645.811
293.774	18.640	855.266	646.242
294.789	18.571	854.380	645.257
295.803	18.355	853.581	643.785
296.818	18.336	853.068	643.271
297.833	18.301	852.439	642.608
298.847	18.269	852.181	642.237
299.862	18.309	851.714	641.976
300.876	18.536	850.928	642.179
301.891	18.721	850.300	642.338
302.906	18.701	849.966	641.956
303.920	18.897	849.218	642.066
304.935	18.740	848.945	641.215
305.949	18.814	847.834	640.595
306.964	18.624	847.556	639.623
307.979	18.775	846.578	639.391
308.993	18.769	846.237	639.051
310.008	18.854	845.698	638.905
311.022	18.656	845.110	637.668
312.037	18.605	844.409	636.894
313.052	18.701	843.542	636.541
314.066	18.425	843.304	635.279
315.081	18.523	842.829	635.231
316.095	18.518	842.037	634.557
317.110	18.489	842.008	634.372
318.125	18.459	840.969	633.423
319.139	18.508	840.696	633.341
320.154	18.526	840.193	632.974
321.168	18.620	839.685	632.882
322.183	18.650	839.434	632.749
323.197	18.752	838.882	632.652
324.212	18.567	838.476	631.606
325.227	18.657	837.374	631.053
326.241	18.488	837.232	630.270
327.256	18.540	836.066	629.525
328.270	18.690	835.763	629.794
329.285	18.609	835.016	628.876
330.300	18.543	834.661	628.311
331.314	18.638	834.076	628.163
332.329	18.620	833.967	627.959
333.343	18.885	833.316	628.384
334.358	18.898	832.707	627.915
335.373	18.868	832.440	627.550
336.387	18.903	832.389	627.583
337.402	18.929	832.431	627.654
338.416	19.064	831.766	627.590
339.431	19.153	831.202	627.433
340.446	19.121	831.248	627.295
341.460	19.050	831.181	626.933
342.475	19.294	830.380	627.159
343.489	19.254	830.189	626.814
344.504	19.408	829.404	626.725
345.519	19.494	828.659	626.420
346.533	19.225	828.561	625.313
347.548	19.160	827.782	624.434
348.562	19.065	827.229	623.619
349.577	18.994	826.837	623.009
350.592	19.022	825.758	622.243
351.606	18.810	825.599	621.303
352.621	19.043	824.243	621.066
353.635	19.160	823.901	621.178
354.650	19.155	823.275	620.633
355.665	19.122	822.732	620.048
356.679	19.316	822.009	620.148
357.694	19.145	821.743	619.277
358.708	19.220	821.040	618.962
359.723	19.342	820.586	619.002
360.738	19.274	819.931	618.208
361.752	19.238	819.328	617.571
362.767	19.331	818.931	617.550
363.781	19.512	818.092	617.512
364.796	19.592	817.817	617.534
365.810	19.772	817.353	617.772
366.825	19.591	817.715	617.343
367.840	19.612	817.025	616.846
368.854	19.541	816.375	616.045
369.869	19.415	815.938	615.212
370.883	19.577	815.035	615.055
371.898	19.651	815.274	615.442
372.913	19.677	814.636	615.000
373.927	19.754	814.134	614.841
374.942	19.654	813.788	614.168
375.956	19.798	813.107	614.111
376.971	19.709	813.143	613.769
377.986	19.939	812.042	613.698
379.000	19.886	812.065	613.474
380.015	19.954	811.303	613.084
381.029	19.863	810.795	612.323
382.044	19.786	810.197	611.547
383.059	19.908	809.609	611.478
384.073	19.932	808.726	610.843
385.088	19.761	808.246	609.825
386.102	19.639	807.823	609.021
387.117	19.494	807.234	608.014
388.132	19.654	806.331	607.839
389.146	19.719	805.754	607.580
390.161	19.939	805.477	608.092
391.175	19.852	805.503	607.751
392.190	19.813	804.618	606.894
393.205	19.797	804.130	606.414
394.219	19.741	803.829	605.937
395.234	19.719	803.421	605.500
396.248	19.567	803.218	604.762
397.263	19.605	802.341	604.180
398.278	19.583	801.822	603.658
399.292	19.598	801.387	603.332
400.307	19.677	800.948	603.223
401.321	19.575	800.711	602.633
402.336	19.667	800.172	602.496
403.350	19.783	800.025	602.738
404.365	19.910	799.378	602.640
405.380	19.970	799.275	602.715
406.394	19.999	798.646	602.287
407.409	20.095	798.108	602.165
408.423	20.157	797.947	602.205
409.438	20.264	797.357	602.076
410.453	20.308	797.097	601.978
411.467	20.347	796.609	601.692
412.482	20.477	796.156	601.748
413.496	20.269	796.123	600.949
414.511	20.443	795.484	601.016
415.526	20.349	795.086	600.338
416.540	20.394	794.503	599.999
417.555	20.312	794.389	599.579
418.569	20.545	793.559	599.703
419.584	20.352	793.203	598.713
420.599	20.316	792.938	598.337
421.613	162.355	1371.507	1796.265
422.628	140.749	1455.740	1796.335
