DTS Sentinel unit serial number:	SN413079Multiplexer serial number:	ORYXHardware model number:	OX4-SRSoftware version number:	ORYX F/W v4.00 Oryx Data Collector v3.7.2.0data status	okinstallation	princeton_trtdifferential loss correction	single-endedforward channel	channel 1reverse channel	N/Adate	2019/09/15time	16:46:35forward acquisition time	60.00reverse acquisition time	0.00gamma	496.2192k internal	0.2292k external	0.2292temperature offset calibration	0.9930default loss term (dB/km)	0.3790temperature slope calibration	1.0000multiplexer offset coefficient	1.0000multiplexer slope coefficient	1.0000fibre end	0.00T internal ref (°C)	44.25T ext. ref 1 (°C)	5.73T ext. ref 2 (°C)	40.19length (m)	temperature (°C)	Stokes	anti-Stokes-747.200	322.030	-0.086	-0.168
-746.185	-200.000	0.013	0.199
-745.171	62.906	-0.150	-0.153
-744.156	149.114	-0.086	0.119
-743.142	800.000	-0.130	-0.411
-742.127	96.841	0.109	0.128
-741.112	-10.998	0.094	0.064
-740.098	-40.826	-0.276	-0.146
-739.083	-36.697	0.234	0.129
-738.069	-48.094	-0.244	-0.120
-737.054	287.570	0.026	0.048
-736.039	-10.143	0.230	0.156
-735.025	-113.436	-0.061	0.012
-734.010	-200.000	-0.004	-0.458
-732.996	101.596	0.222	-0.264
-731.981	-29.735	-0.366	0.214
-730.966	-200.000	0.010	0.391
-729.952	-141.960	0.118	-0.012
-728.937	-20.609	-0.144	-0.090
-727.923	-200.000	-0.036	-0.294
-726.908	234.192	-0.029	-0.048
-725.894	-92.956	0.152	-0.043
-724.879	800.000	-0.028	-0.085
-723.864	-95.391	-0.313	0.086
-722.850	-200.000	-0.021	0.163
-721.835	266.475	-0.111	-0.198
-720.821	-136.567	-0.090	-0.011
-719.806	800.000	-0.049	-0.199
-718.791	-74.309	-0.096	-0.035
-717.777	26.332	-0.250	0.214
-716.762	800.000	-0.092	0.397
-715.748	-194.693	0.072	-0.001
-714.733	-200.000	-0.024	0.188
-713.718	175.918	0.145	0.216
-712.704	800.000	0.055	-0.204
-711.689	93.206	0.240	-0.277
-710.675	-105.013	0.192	-0.045
-709.660	-81.736	-0.269	0.090
-708.645	116.307	-0.294	-0.369
-707.631	32.348	-0.069	-0.061
-706.616	-42.273	0.224	0.117
-705.602	-127.651	-0.224	-0.033
-704.587	162.957	-0.227	0.326
-703.572	-193.769	-0.053	0.000
-702.558	-200.000	0.012	0.346
-701.543	41.965	-0.153	0.142
-700.529	-85.951	-0.207	-0.065
-699.514	91.240	-0.163	0.187
-698.499	-39.345	-0.365	0.196
-697.485	-200.000	-0.028	0.222
-696.470	474.168	0.059	0.137
-695.456	152.249	0.141	-0.197
-694.441	800.000	0.046	-0.202
-693.426	81.465	-0.294	-0.324
-692.412	34.891	0.155	0.138
-691.397	-200.000	0.023	-0.128
-690.383	-139.807	-0.153	0.017
-689.368	-129.681	-0.219	-0.031
-688.354	-22.240	0.390	0.241
-687.339	-60.658	0.145	-0.063
-686.324	-16.712	-0.256	-0.165
-685.310	55.898	0.090	-0.089
-684.295	-160.621	-0.284	0.015
-683.281	8.529	0.034	0.026
-682.266	-200.000	-0.015	0.290
-681.251	800.000	-0.054	-0.155
-680.237	-23.377	-0.166	-0.102
-679.222	800.000	0.066	-0.255
-678.208	252.626	-0.288	-0.502
-677.193	-200.000	0.017	-0.171
-676.178	-200.000	0.007	-0.368
-675.164	-53.440	0.189	-0.088
-674.149	-134.147	0.176	0.022
-673.135	383.266	0.082	0.173
-672.120	157.102	0.141	-0.199
-671.105	-44.163	-0.132	-0.068
-670.091	143.888	0.165	0.224
-669.076	-40.836	0.121	-0.064
-668.062	52.977	-0.141	-0.138
-667.047	14.510	-0.312	-0.248
-666.032	-63.141	-0.270	-0.114
-665.018	800.000	-0.037	0.109
-664.003	334.946	0.064	-0.126
-662.989	-109.120	0.228	0.049
-661.974	-200.000	0.021	0.244
-660.959	-116.874	0.072	0.014
-659.945	-82.254	-0.030	0.010
-658.930	216.952	0.291	-0.472
-657.916	130.719	0.051	-0.067
-656.901	800.000	-0.068	0.266
-655.886	122.053	-0.095	-0.121
-654.872	37.151	0.059	0.053
-653.857	90.331	-0.110	-0.126
-652.843	800.000	0.008	-0.026
-651.828	579.750	-0.044	0.111
-650.814	-112.199	-0.271	-0.055
-649.799	-38.001	0.174	0.094
-648.784	180.852	-0.114	0.171
-647.770	228.956	-0.084	-0.139
-646.755	706.085	0.134	-0.362
-645.741	-86.093	-0.171	-0.054
-644.726	800.000	-0.053	-0.152
-643.711	-16.787	-0.221	-0.142
-642.697	256.812	-0.225	-0.394
-641.682	109.287	-0.026	0.032
-640.668	423.030	0.082	0.179
-639.653	14.316	0.411	0.327
-638.638	-106.105	-0.106	0.024
-637.624	65.801	0.119	-0.123
-636.609	37.283	0.321	0.290
-635.595	376.433	-0.070	-0.146
-634.580	800.000	0.055	0.171
-633.565	800.000	0.076	-0.244
-632.551	8.328	0.319	-0.244
-631.536	273.328	0.075	0.136
-630.522	-41.776	-0.078	0.041
-629.507	800.000	0.074	-0.267
-628.492	-33.785	-0.122	0.068
-627.478	-183.646	-0.256	-0.004
-626.463	-180.749	0.044	0.001
-625.449	-14.582	-0.209	0.137
-624.434	-189.918	-0.515	-0.006
-623.419	344.634	-0.155	-0.310
-622.405	-163.302	0.350	-0.017
-621.390	-169.305	0.118	0.004
-620.376	-25.945	0.132	0.079
-619.361	-154.076	-0.369	-0.026
-618.346	-85.099	-0.095	0.030
-617.332	-168.365	0.406	-0.016
-616.317	550.631	-0.066	-0.161
-615.303	-200.000	-0.067	-0.331
-614.288	265.382	0.064	0.113
-613.273	-93.462	0.172	0.049
-612.259	-110.442	0.161	-0.034
-611.244	41.270	-0.087	-0.080
-610.230	-147.288	-0.235	0.020
-609.215	-9.905	-0.101	0.069
-608.201	42.302	0.132	0.122
-607.186	-14.834	0.044	-0.029
-606.171	-68.174	0.233	-0.092
-605.157	-66.431	0.178	0.072
-604.142	-200.000	-0.026	-0.308
-603.128	-104.908	-0.226	-0.053
-602.113	2.287	-0.277	-0.204
-601.098	232.657	-0.156	-0.260
-600.084	-200.000	-0.041	-0.550
-599.069	-173.867	-0.360	0.011
-598.055	162.811	-0.099	0.142
-597.040	800.000	0.113	-0.378
-596.025	800.000	-0.031	0.130
-595.011	-101.557	-0.239	-0.059
-593.996	39.365	0.153	0.140
-592.982	-33.343	0.062	0.035
-591.967	267.872	-0.182	-0.324
-590.952	24.479	0.245	-0.206
-589.938	46.548	0.076	0.072
-588.923	178.614	-0.132	0.196
-587.909	800.000	0.082	-0.278
-586.894	-200.000	-0.068	0.513
-585.879	93.000	0.141	0.163
-584.865	-93.087	-0.082	0.023
-583.850	-200.000	0.023	0.327
-582.836	480.392	0.065	0.149
-581.821	-200.000	-0.224	-0.001
-580.806	44.594	-0.177	0.165
-579.792	92.494	-0.180	0.206
-578.777	141.598	0.252	0.339
-577.763	468.500	-0.020	-0.046
-576.748	-95.506	0.153	-0.042
-575.733	23.150	-0.234	-0.195
-574.719	83.921	0.183	-0.203
-573.704	-92.345	-0.271	0.077
-572.690	2.571	0.053	-0.039
-571.675	112.079	-0.253	-0.311
-570.661	-200.000	-0.018	-0.277
-569.646	-64.063	-0.030	0.012
-568.631	38.749	0.096	0.087
-567.617	800.000	-0.106	0.305
-566.602	-200.000	-0.042	-0.192
-565.588	-62.009	-0.146	0.062
-564.573	44.980	-0.222	0.207
-563.558	-87.127	0.270	-0.084
-562.544	121.090	-0.193	-0.244
-561.529	-163.959	0.314	0.015
-560.515	-94.698	0.139	-0.038
-559.500	192.291	0.150	0.230
-558.485	-25.365	0.219	0.131
-557.471	800.000	-0.100	-0.372
-556.456	34.888	-0.141	0.126
-555.442	-39.144	-0.283	0.151
-554.427	348.700	-0.108	-0.217
-553.412	673.741	-0.019	-0.051
-552.398	-91.615	-0.305	-0.088
-551.383	489.610	0.039	-0.090
-550.369	-52.870	-0.005	-0.003
-549.354	-47.611	0.102	0.050
-548.339	62.012	-0.054	-0.055
-547.325	-16.976	-0.460	-0.295
-546.310	800.000	0.049	0.170
-545.296	-69.850	-0.229	-0.089
-544.281	-200.000	-0.024	0.116
-543.266	132.625	0.216	-0.282
-542.252	-200.000	-0.008	-0.155
-541.237	800.000	0.123	0.395
-540.223	-200.000	0.026	0.189
-539.208	75.985	-0.058	0.062
-538.193	52.593	0.120	-0.116
-537.179	-200.000	-0.006	0.245
-536.164	-74.038	-0.223	0.082
-535.150	-200.000	-0.004	-0.126
-534.135	-200.000	0.039	0.223
-533.121	-112.473	0.313	-0.063
-532.106	-62.347	0.073	0.031
-531.091	-200.000	0.005	-0.093
-530.077	800.000	-0.076	0.301
-529.062	-200.000	-0.061	0.376
-528.048	-200.000	0.087	-0.458
-527.033	32.783	-0.274	0.241
-526.018	-183.613	-0.120	-0.002
-525.004	240.854	0.164	0.278
-523.989	271.253	0.025	0.045
-522.975	-200.000	0.059	0.306
-521.960	-200.000	0.034	-0.181
-520.945	800.000	0.048	0.188
-519.931	800.000	-0.018	-0.072
-518.916	-117.191	0.116	-0.021
-517.902	-116.576	-0.167	0.031
-516.887	311.821	-0.160	0.304
-515.872	800.000	-0.114	0.387
-514.858	-155.335	0.126	0.008
-513.843	297.156	0.103	0.192
-512.829	193.227	-0.073	-0.112
-511.814	54.682	0.052	0.050
-510.799	619.661	0.057	-0.146
-509.785	130.339	-0.125	-0.163
-508.770	201.204	-0.104	0.162
-507.756	-108.658	-0.299	0.065
-506.741	241.686	0.082	0.139
-505.726	641.582	0.083	0.214
-504.712	-135.674	0.076	-0.009
-503.697	-200.000	-0.042	0.342
-502.683	278.816	0.088	-0.159
-501.668	-200.000	-0.026	-0.123
-500.653	800.000	0.062	0.269
-499.639	-34.280	0.313	-0.174
-498.624	-151.859	-0.222	-0.016
-497.610	-112.867	-0.093	-0.019
-496.595	163.095	-0.195	0.278
-495.581	134.177	0.056	0.073
-494.566	31.820	-0.075	-0.065
-493.551	468.179	-0.060	0.135
-492.537	-68.465	0.139	0.055
-491.522	76.521	-0.169	0.181
-490.508	-125.357	0.263	0.041
-489.493	-2.633	0.200	0.142
-488.478	-15.896	-0.126	-0.081
-487.464	800.000	0.050	-0.192
-486.449	85.272	-0.267	-0.297
-485.435	226.429	0.165	0.271
-484.420	61.117	0.107	0.108
-483.405	-37.824	-0.211	-0.114
-482.391	186.532	-0.082	-0.124
-481.376	136.856	0.284	-0.376
-480.362	-68.654	0.237	-0.093
-479.347	-175.873	0.044	-0.001
-478.332	-157.810	-0.318	-0.019
-477.318	-200.000	-0.005	0.366
-476.303	243.240	0.019	-0.032
-475.289	-31.641	-0.193	0.110
-474.274	-188.303	0.175	0.002
-473.259	-78.555	0.127	-0.044
-472.245	38.972	0.267	0.241
-471.230	215.437	0.040	0.065
-470.216	86.477	-0.080	-0.089
-469.201	-34.232	-0.236	0.131
-468.186	142.160	-0.144	-0.194
-467.172	272.221	0.051	0.091
-466.157	129.397	-0.158	0.205
-465.143	-119.026	-0.098	0.017
-464.128	-87.333	0.189	0.058
-463.113	19.405	0.133	-0.108
-462.099	10.893	-0.051	-0.040
-461.084	30.212	-0.125	0.108
-460.070	-123.378	0.224	-0.036
-459.055	100.274	-0.143	-0.168
-458.040	-193.743	0.123	0.001
-457.026	800.000	0.022	0.088
-456.011	-66.939	0.112	-0.045
-454.997	-40.212	0.176	-0.093
-453.982	-91.702	-0.377	0.109
-452.968	-134.683	0.250	-0.031
-451.953	800.000	0.026	0.088
-450.938	800.000	-0.062	0.177
-449.924	227.577	-0.094	0.155
-448.909	-3.384	0.287	-0.202
-447.895	-178.052	-0.160	-0.004
-446.880	5.274	0.083	-0.062
-445.865	-122.366	0.295	0.049
-444.851	43.851	0.088	0.081
-443.836	-176.266	-0.051	0.001
-442.822	93.681	-0.089	-0.102
-441.807	6.032	0.150	-0.113
-440.792	317.061	-0.175	0.335
-439.778	-81.362	-0.313	0.105
-438.763	37.294	0.141	-0.126
-437.749	-135.305	0.331	-0.040
-436.734	-99.693	0.216	-0.055
-435.719	314.379	0.092	-0.176
-434.705	33.235	0.254	-0.223
-433.690	242.629	0.154	-0.261
-432.676	53.231	-0.074	0.071
-431.661	61.288	0.225	-0.226
-430.646	-81.112	0.180	-0.060
-429.632	-87.412	0.068	-0.021
-428.617	-108.412	0.078	0.017
-427.603	-91.061	0.166	-0.048
-426.588	439.812	-0.046	-0.102
-425.573	-200.000	0.313	-0.001
-424.559	347.277	-0.138	-0.275
-423.544	-48.916	0.328	-0.159
-422.530	-136.589	-0.266	-0.031
-421.515	-78.325	-0.246	0.085
-420.500	122.255	-0.056	-0.071
-419.486	-200.000	0.020	0.204
-418.471	-55.656	-0.067	-0.030
-417.457	-200.000	0.006	0.037
-416.442	-200.000	0.010	0.085
-415.428	166.212	0.122	0.174
-414.413	-7.240	0.121	0.083
-413.398	-86.647	-0.313	0.097
-412.384	1.075	-0.099	-0.072
-411.369	1.081	-0.130	0.094
-410.355	-51.809	0.221	-0.104
-409.340	-104.070	0.086	-0.020
-408.325	-167.937	-0.161	-0.006
-407.311	25.164	-0.132	0.110
-406.296	216.669	-0.228	0.366
-405.282	-200.000	-0.027	0.237
-404.267	-89.552	0.219	0.065
-403.252	-139.046	0.103	0.011
-402.238	-53.755	0.081	-0.037
-401.223	-200.000	0.012	0.206
-400.209	103.302	-0.062	0.074
-399.194	-96.589	-0.130	0.035
-398.179	-200.000	-0.033	-0.215
-397.165	71.672	-0.018	0.019
-396.150	148.485	-0.073	0.100
-395.136	800.000	-0.054	0.212
-394.121	-151.164	0.090	-0.007
-393.106	-200.000	0.018	0.084
-392.092	563.268	0.126	-0.309
-391.077	-8.330	-0.112	-0.076
-390.063	-200.000	-0.015	0.123
-389.048	-12.341	-0.214	-0.141
-388.033	17.519	0.237	-0.190
-387.019	800.000	0.118	-0.383
-386.004	800.000	0.163	-0.528
-384.990	177.964	0.150	-0.220
-383.975	16.432	-0.051	0.041
-382.960	800.000	0.066	0.229
-381.946	-131.951	0.168	0.022
-380.931	38.115	0.158	0.142
-379.917	721.237	-0.022	0.060
-378.902	-72.465	-0.191	0.071
-377.888	697.117	0.081	-0.216
-376.873	143.372	-0.073	0.098
-375.858	194.326	-0.116	-0.177
-374.844	42.263	0.177	0.163
-373.829	-86.915	0.218	0.067
-372.815	-200.000	0.015	-0.205
-371.800	-69.454	0.142	0.055
-370.785	-200.000	0.011	0.048
-369.771	163.863	0.052	0.074
-368.756	-116.749	0.170	0.031
-367.742	58.691	-0.120	0.118
-366.727	57.866	-0.230	-0.227
-365.712	-200.000	0.015	0.125
-364.698	293.121	0.100	0.184
-363.683	-193.584	-0.394	0.003
-362.669	-135.591	0.106	-0.013
-361.654	-64.191	-0.052	-0.021
-360.639	20.785	0.282	-0.231
-359.625	-42.327	-0.129	-0.067
-358.610	-103.519	-0.227	-0.054
-357.596	4.272	0.052	-0.039
-356.581	-28.294	-0.279	0.163
-355.566	-90.089	0.193	-0.057
-354.552	-200.000	-0.055	0.572
-353.537	-5.174	-0.117	0.081
-352.523	581.670	-0.044	0.109
-351.508	-163.642	-0.187	0.009
-350.493	-117.191	0.219	0.040
-349.479	-142.336	0.086	0.009
-348.464	-88.610	0.174	-0.052
-347.450	-155.412	-0.150	-0.010
-346.435	194.962	0.179	-0.274
-345.420	255.415	0.204	0.353
-344.406	-21.502	-0.085	-0.052
-343.391	23.803	0.127	0.106
-342.377	800.000	-0.037	-0.110
-341.362	24.095	0.260	0.216
-340.348	-41.980	-0.244	-0.126
-339.333	156.719	0.082	-0.115
-338.318	63.194	0.115	0.116
-337.304	-22.562	-0.284	-0.173
-336.289	75.836	0.149	-0.159
-335.275	70.900	0.060	-0.063
-334.260	800.000	-0.103	-0.400
-333.245	78.561	0.116	-0.124
-332.231	-76.109	0.116	0.041
-331.216	2.006	-0.414	-0.301
-330.202	800.000	0.064	-0.215
-329.187	384.978	0.037	-0.077
-328.172	-27.174	0.210	0.123
-327.158	350.599	0.102	-0.203
-326.143	-58.127	-0.116	-0.051
-325.129	262.896	0.067	-0.117
-324.114	-32.010	0.303	0.171
-323.099	140.333	-0.177	0.236
-322.085	-49.952	-0.163	-0.078
-321.070	-200.000	0.000	0.208
-320.056	-200.000	-0.013	0.265
-319.041	57.326	-0.106	-0.104
-318.026	-72.764	0.115	0.042
-317.012	99.302	0.069	-0.081
-315.997	50.599	-0.197	-0.188
-314.983	-21.348	0.046	-0.029
-313.968	176.073	-0.246	-0.360
-312.953	800.000	-0.017	-0.072
-311.939	-78.258	-0.151	-0.052
-310.924	-67.714	-0.297	0.117
-309.910	-200.000	-0.042	0.240
-308.895	-27.585	0.162	0.095
-307.880	800.000	0.059	0.178
-306.866	-112.456	-0.233	-0.047
-305.851	-200.000	-0.031	-0.318
-304.837	295.934	0.117	0.217
-303.822	-94.376	0.153	0.042
-302.807	96.121	-0.160	-0.184
-301.793	173.885	0.171	0.248
-300.778	-3.437	0.201	0.141
-299.764	-200.000	-0.014	0.132
-298.749	-130.422	-0.144	0.020
-297.735	-200.000	-0.068	-0.432
-296.720	611.033	-0.067	-0.168
-295.705	-187.040	0.160	-0.002
-294.691	288.960	0.111	0.203
-293.676	-200.000	0.004	0.162
-292.662	195.912	-0.193	0.295
-291.647	-33.552	-0.107	-0.059
-290.632	-112.697	0.100	-0.020
-289.618	-121.440	0.103	-0.017
-288.603	22.791	-0.133	0.110
-287.589	800.000	-0.006	0.019
-286.574	-14.263	0.346	0.224
-285.559	-92.312	0.226	0.064
-284.545	800.000	0.044	-0.131
-283.530	-50.212	0.021	-0.010
-282.516	59.196	0.049	-0.049
-281.501	0.542	-0.239	-0.171
-280.486	165.914	-0.114	0.163
-279.472	-49.337	0.215	-0.103
-278.457	342.143	0.083	0.164
-277.443	-99.010	-0.010	-0.003
-276.428	210.006	-0.259	-0.408
-275.413	463.498	-0.035	0.078
-274.399	-200.000	0.010	-0.181
-273.384	800.000	0.060	-0.204
-272.370	372.388	0.195	-0.398
-271.355	-144.207	0.079	-0.007
-270.340	-200.000	0.004	-0.403
-269.326	16.030	0.186	0.147
-268.311	156.673	-0.059	0.082
-267.297	152.599	-0.119	-0.163
-266.282	800.000	0.085	-0.239
-265.267	-78.473	0.120	-0.041
-264.253	-42.860	0.234	0.120
-263.238	-200.000	-0.042	-0.455
-262.224	-200.000	-0.067	-0.297
-261.209	539.556	-0.036	0.085
-260.195	800.000	0.047	0.160
-259.180	800.000	0.052	-0.221
-258.165	-21.798	0.244	-0.149
-257.151	-200.000	0.004	-0.160
-256.136	-37.767	-0.201	0.108
-255.122	-140.908	-0.132	0.014
-254.107	-91.611	-0.134	-0.038
-253.092	23.666	-0.081	-0.067
-252.078	800.000	-0.113	-0.438
-251.063	102.026	-0.212	0.249
-250.049	59.367	-0.184	0.182
-249.034	-23.800	-0.211	-0.127
-248.019	-136.171	-0.354	0.042
-247.005	-61.172	-0.265	0.112
-245.990	-200.000	0.018	0.133
-244.976	141.639	0.108	-0.144
-243.961	-92.969	0.288	0.081
-242.946	-142.894	0.480	-0.047
-241.932	-73.644	-0.140	0.051
-240.917	-200.000	-0.015	0.148
-239.903	50.650	0.123	0.117
-238.888	800.000	0.084	-0.325
-237.873	289.363	-0.104	-0.189
-236.859	-7.348	-0.140	0.095
-235.844	-57.585	0.163	0.072
-234.830	-6.351	0.036	0.024
-233.815	-80.035	0.026	-0.009
-232.800	-166.425	-0.212	0.009
-231.786	800.000	0.062	0.259
-230.771	-200.000	0.185	0.000
-229.757	77.556	-0.218	-0.233
-228.742	266.297	-0.104	-0.182
-227.727	147.115	0.080	-0.108
-226.713	201.483	-0.065	0.101
-225.698	185.724	-0.066	0.098
-224.684	-200.000	0.027	0.257
-223.669	-162.322	0.345	-0.017
-222.655	-162.703	0.238	-0.012
-221.640	192.147	-0.170	-0.258
-220.625	422.377	-0.131	-0.281
-219.611	39.607	-0.090	0.081
-218.596	655.013	0.037	-0.095
-217.582	-20.912	0.265	-0.163
-216.567	-116.241	0.093	-0.017
-215.552	-200.000	0.012	-0.152
-214.538	164.292	0.232	0.328
-213.523	75.471	0.264	0.279
-212.509	93.623	-0.122	0.138
-211.494	106.074	-0.104	0.124
-210.479	-200.000	-0.002	-0.089
-209.465	-54.566	0.081	0.037
-208.450	-140.736	-0.183	-0.019
-207.436	7.463	0.113	-0.084
-206.421	-98.217	-0.036	0.009
-205.406	-200.000	0.268	-0.000
-204.392	-200.000	-0.004	-0.094
-203.377	23.027	-0.211	0.173
-202.363	-107.852	0.088	0.019
-201.348	-94.536	0.336	0.092
-200.333	-83.110	0.230	0.074
-199.319	-200.000	-0.010	-0.087
-198.304	-163.815	-0.326	0.015
-197.290	122.555	-0.040	-0.050
-196.275	800.000	-0.024	0.087
-195.260	-200.000	0.003	0.076
-194.246	89.879	0.074	-0.083
-193.231	-98.912	0.229	0.058
-192.217	-67.822	0.172	0.067
-191.202	54.653	0.132	-0.128
-190.187	800.000	-0.029	0.089
-189.173	-23.157	-0.203	-0.122
-188.158	-140.066	-0.306	0.032
-187.144	115.112	-0.102	0.124
-186.129	11.467	0.117	-0.090
-185.114	438.319	-0.130	0.285
-184.100	-200.000	0.043	0.248
-183.085	-200.000	0.005	0.126
-182.071	-200.000	0.010	-0.180
-181.056	-200.000	-0.022	0.155
-180.042	-13.635	-0.360	0.233
-179.027	-200.000	-0.006	-0.118
-178.012	-77.335	0.306	0.106
-176.998	-200.000	0.007	0.063
-175.983	316.572	0.168	-0.318
-174.969	-200.000	-0.004	0.324
-173.954	28.663	-0.054	-0.046
-172.939	-82.085	0.069	-0.023
-171.925	-200.000	-0.056	-0.344
-170.910	716.113	0.072	0.192
-169.896	-200.000	-0.010	0.103
-168.881	800.000	0.045	0.150
-167.866	-4.164	-0.221	0.153
-166.852	31.406	-0.218	0.188
-165.837	-29.497	0.217	-0.124
-164.823	68.036	0.264	0.270
-163.808	544.179	0.063	0.151
-162.793	177.410	-0.054	-0.079
-161.779	-150.811	-0.287	-0.022
-160.764	800.000	0.028	-0.096
-159.750	-138.816	-0.343	0.037
-158.735	-200.000	-0.028	0.271
-157.720	-20.894	-0.196	-0.120
-156.706	-82.722	-0.165	-0.053
-155.691	-200.000	0.010	0.074
-154.677	-71.769	-0.184	0.069
-153.662	-200.000	0.051	0.272
-152.647	-125.310	-0.251	-0.038
-151.633	35.517	0.015	0.014
-150.618	361.235	-0.039	-0.079
-149.604	-200.000	0.015	-0.305
-148.589	-200.000	-0.001	-0.084
-147.574	-38.175	-0.258	0.137
-146.560	-149.145	0.067	0.005
-145.545	-200.000	-0.042	-0.220
-144.531	-140.922	0.178	0.018
-143.516	-166.542	-0.341	-0.014
-142.502	-70.660	0.215	-0.081
-141.487	-200.000	-0.031	0.268
-140.472	284.279	0.052	0.094
-139.458	78.285	0.257	0.274
-138.443	64.608	-0.236	0.238
-137.429	-200.000	-0.026	0.237
-136.414	-20.898	0.328	-0.201
-135.399	158.157	-0.139	-0.193
-134.385	-102.026	0.343	-0.083
-133.370	-200.000	-0.022	0.170
-132.356	-130.372	-0.023	-0.003
-131.341	-144.200	0.057	0.005
-130.326	396.793	0.087	-0.181
-129.312	115.805	-0.204	0.250
-128.297	-19.531	0.248	0.154
-127.283	363.139	0.092	-0.185
-126.268	-92.147	-0.131	-0.037
-125.253	210.731	-0.206	0.323
-124.239	-154.723	0.094	0.006
-123.224	-9.571	-0.166	-0.110
-122.210	-137.033	-0.292	0.033
-121.195	-97.690	0.236	-0.061
-120.180	-54.229	0.134	-0.061
-119.166	352.657	0.154	0.306
-118.151	624.967	-0.086	0.217
-117.137	171.088	0.077	-0.110
-116.122	755.089	-0.152	-0.410
-115.107	119.775	0.123	-0.152
-114.093	-186.617	0.125	0.002
-113.078	-29.265	-0.173	-0.099
-112.064	-127.701	-0.087	0.013
-111.049	41.077	-0.269	0.243
-110.034	800.000	-0.010	0.037
-109.020	-137.851	0.275	0.031
-108.005	800.000	-0.064	-0.178
-106.991	800.000	0.088	0.280
-105.976	800.000	-0.023	-0.095
-104.962	122.228	0.133	0.166
-103.947	-200.000	0.010	0.365
-102.932	-99.666	-0.209	0.052
-101.918	-115.813	0.064	0.012
-100.903	-200.000	-0.013	0.219
-99.889	-200.000	0.030	0.335
-98.874	-18.566	-0.383	-0.239
-97.859	-200.000	-0.006	-0.076
-96.845	-18.251	-0.050	0.031
-95.830	-73.674	0.145	0.053
-94.816	800.000	0.102	0.318
-93.801	80.577	-0.151	0.163
-92.786	800.000	0.033	-0.093
-91.772	-35.772	0.058	-0.031
-90.757	78.837	0.251	-0.268
-89.743	-200.000	-0.086	-0.483
-88.728	-133.302	-0.133	0.017
-87.713	322.069	-0.082	0.156
-86.699	-200.000	0.005	-0.094
-85.684	474.718	-0.087	0.196
-84.670	91.670	0.181	0.203
-83.655	-147.593	-0.228	0.019
-82.640	-92.806	0.151	-0.042
-81.626	168.185	0.068	-0.096
-80.611	-200.000	0.036	-0.351
-79.597	110.625	-0.271	0.325
-78.582	-47.720	0.350	0.169
-77.567	-77.667	0.379	0.131
-76.553	-119.580	-0.150	-0.026
-75.538	800.000	-0.023	-0.075
-74.524	-200.000	0.052	-0.314
-73.509	-105.072	-0.161	0.037
-72.494	-140.584	-0.284	-0.029
-71.480	-2.238	-0.152	-0.107
-70.465	-200.000	-0.080	-0.354
-69.451	-200.000	-0.039	0.287
-68.436	-162.248	0.158	0.008
-67.422	-121.894	-0.354	0.058
-66.407	-84.552	0.166	0.052
-65.392	-200.000	-0.032	0.325
-64.378	12.292	0.074	-0.057
-63.363	-128.483	-0.074	-0.010
-62.349	800.000	-0.089	-0.267
-61.334	19.514	-0.606	-0.485
-60.319	-90.978	-0.183	-0.053
-59.305	-200.000	-0.101	-0.525
-58.290	38.286	0.433	0.384
-57.276	800.000	0.585	1.757
-56.261	-200.000	70.736	524.159
-55.246	586.166	1267.424	3105.666
-54.232	140.241	2526.690	3320.808
-53.217	121.168	2250.118	2790.386
-52.203	57.516	1690.958	1645.776
-51.188	48.515	1404.858	1311.035
-50.173	44.566	1356.039	1241.396
-49.159	61.599	1387.350	1375.057
-48.144	70.763	1406.178	1449.814
-47.130	48.820	1369.854	1280.036
-46.115	44.418	1353.970	1238.404
-45.100	44.162	1349.527	1232.737
-44.086	44.126	1347.408	1230.535
-43.071	44.123	1344.817	1228.100
-42.057	44.223	1342.003	1226.088
-41.042	44.213	1340.366	1224.481
-40.027	44.144	1339.126	1222.884
-39.013	44.139	1337.079	1220.937
-37.998	44.145	1335.382	1219.371
-36.984	44.123	1333.755	1217.710
-35.969	44.408	1331.659	1217.454
-34.954	44.320	1330.217	1215.562
-33.940	44.324	1328.239	1213.729
-32.925	44.228	1327.100	1212.065
-31.911	44.311	1325.486	1211.037
-30.896	44.412	1323.903	1210.148
-29.881	44.420	1322.062	1208.461
-28.867	44.409	1320.645	1207.054
-27.852	44.223	1319.833	1205.161
-26.838	44.380	1317.917	1204.295
-25.823	44.391	1316.173	1202.719
-24.809	44.325	1314.955	1201.165
-23.794	44.320	1313.606	1199.854
-22.779	44.286	1312.438	1198.539
-21.765	44.326	1311.585	1197.948
-20.750	44.287	1309.935	1196.165
-19.736	44.260	1308.558	1194.702
-18.721	44.225	1307.091	1193.110
-17.706	44.234	1306.111	1192.223
-16.692	44.224	1305.101	1191.191
-15.677	44.269	1304.116	1190.511
-14.663	44.203	1302.730	1188.810
-13.648	44.206	1301.970	1188.090
-12.633	44.180	1300.889	1186.906
-11.619	44.149	1300.128	1185.977
-10.604	44.179	1299.093	1185.164
-9.590	44.209	1297.759	1184.073
-8.575	44.135	1297.034	1182.934
-7.560	44.163	1296.016	1182.123
-6.546	44.229	1295.196	1181.713
-5.531	44.120	1294.542	1180.434
-4.517	44.254	1293.215	1179.955
-3.502	44.234	1292.408	1179.060
-2.487	44.235	1291.674	1178.346
-1.473	44.350	1287.435	1175.098
-0.458	43.394	1273.293	1156.670
0.556	37.415	1252.956	1113.852
1.571	32.397	1254.471	1086.218
2.586	30.261	1267.601	1085.016
3.600	28.362	1256.836	1064.680
4.615	21.854	1181.800	965.334
5.629	11.446	1099.521	844.468
6.644	6.147	1075.134	798.797
7.659	5.699	1071.706	793.912
8.673	5.577	1070.389	792.248
9.688	5.489	1068.922	790.650
10.702	5.995	1068.549	792.858
11.717	11.752	1077.592	828.736
12.731	19.251	1087.566	874.540
13.746	19.817	1086.536	876.504
14.761	17.535	1083.005	862.036
15.775	16.244	1080.946	853.796
16.790	15.157	1078.578	846.360
17.804	14.398	1077.006	841.223
18.819	13.959	1075.708	837.920
19.834	13.664	1074.609	835.505
20.848	13.423	1073.647	833.469
21.863	13.261	1073.124	832.174
22.877	13.091	1072.148	830.488
23.892	13.050	1071.580	829.769
24.907	13.083	1070.885	829.321
25.921	13.123	1069.871	828.666
26.936	13.047	1068.364	827.042
27.950	13.248	1066.865	826.813
28.965	13.263	1065.022	825.386
29.980	13.277	1063.920	824.530
30.994	13.368	1062.475	823.790
32.009	13.376	1061.390	822.919
33.023	13.390	1060.714	822.387
34.038	13.324	1059.503	821.050
35.053	13.198	1058.251	819.380
36.067	13.240	1057.940	819.274
37.082	13.187	1056.766	818.032
38.096	13.351	1055.950	818.142
39.111	13.356	1055.521	817.760
40.126	13.217	1054.131	815.925
41.140	13.150	1052.639	814.366
42.155	13.047	1051.827	813.158
43.169	13.034	1050.271	811.822
44.184	12.974	1049.758	811.058
45.199	13.033	1048.327	810.169
46.213	13.072	1047.128	809.360
47.228	13.216	1046.207	809.282
48.242	13.246	1045.360	808.707
49.257	13.203	1044.232	807.548
50.271	13.168	1043.556	806.785
51.286	13.217	1042.272	805.961
52.301	13.332	1041.306	805.703
53.315	13.140	1040.485	804.062
54.330	13.211	1038.998	803.184
55.344	13.069	1038.416	801.974
56.359	13.054	1038.094	801.583
57.374	13.095	1036.480	800.462
58.388	13.154	1035.782	800.139
59.403	13.010	1034.505	798.385
60.417	13.022	1034.003	797.985
61.432	12.920	1033.605	797.117
62.447	12.996	1032.408	796.491
63.461	12.935	1031.806	795.658
64.476	12.979	1030.537	794.821
65.490	12.934	1029.814	793.979
66.505	13.025	1029.107	793.801
67.520	12.964	1028.890	793.270
68.534	13.090	1027.713	792.895
69.549	13.016	1027.066	791.970
70.563	12.857	1026.361	790.598
71.578	12.830	1025.710	789.896
72.593	12.811	1024.955	789.152
73.607	12.815	1024.306	788.601
74.622	12.895	1023.669	788.427
75.636	12.861	1023.018	787.691
76.651	12.758	1022.317	786.588
77.666	12.908	1021.605	786.688
78.680	13.006	1020.977	786.602
79.695	13.004	1019.770	785.592
80.709	13.082	1019.380	785.595
81.724	13.073	1019.175	785.325
82.739	13.115	1018.381	784.841
83.753	13.185	1017.490	784.420
84.768	13.370	1016.137	784.183
85.782	13.266	1015.565	783.182
86.797	13.286	1014.724	782.557
87.812	13.316	1013.886	781.982
88.826	13.223	1012.744	780.593
89.841	13.204	1011.656	779.598
90.855	13.430	1010.759	779.904
91.870	13.330	1010.042	778.808
92.884	13.283	1009.226	777.888
93.899	13.458	1008.037	777.727
94.914	13.502	1007.345	777.330
95.928	13.442	1006.788	776.550
96.943	13.284	1005.604	774.829
97.957	13.330	1004.795	774.352
98.972	13.358	1003.959	773.769
99.987	13.237	1003.191	772.544
101.001	13.439	1001.884	772.409
102.016	13.280	1001.806	771.543
103.030	13.316	1000.087	770.319
104.045	13.351	999.550	769.999
105.060	13.234	999.354	769.233
106.074	13.232	997.946	768.074
107.089	13.108	997.034	766.727
108.103	13.062	996.168	765.781
109.118	13.169	995.346	765.577
110.133	12.991	994.889	764.332
111.147	13.024	993.863	763.631
112.162	13.127	992.966	763.350
113.176	13.285	991.844	763.147
114.191	13.079	991.644	761.975
115.206	13.199	990.772	761.790
116.220	13.158	989.804	760.793
117.235	13.184	988.700	759.997
118.249	13.154	987.987	759.243
119.264	13.159	987.007	758.446
120.279	13.169	986.358	757.923
121.293	13.136	985.785	757.266
122.308	12.999	984.971	755.948
123.322	12.991	983.732	754.892
124.337	13.070	982.947	754.583
125.352	13.125	981.526	753.676
126.366	13.085	980.399	752.562
127.381	13.145	979.390	751.994
128.395	13.154	978.509	751.294
129.410	13.229	977.441	750.746
130.424	13.194	976.820	750.047
131.439	13.337	976.010	750.004
132.454	13.358	975.309	749.494
133.468	13.371	975.065	749.300
134.483	13.316	974.075	748.224
135.497	13.382	972.602	747.326
136.512	13.337	972.209	746.752
137.527	13.221	971.771	745.826
138.541	13.425	970.719	745.872
139.556	13.384	969.960	745.040
140.570	13.389	969.474	744.625
141.585	13.574	968.289	744.479
142.600	13.609	967.341	743.840
143.614	13.767	966.619	743.929
144.629	13.573	966.343	742.780
145.643	13.508	965.039	741.419
146.658	13.498	964.223	740.683
147.673	13.517	963.031	739.786
148.687	13.411	962.066	738.508
149.702	13.356	961.705	737.921
150.716	13.342	960.605	736.948
151.731	13.366	960.079	736.587
152.746	13.250	959.733	735.742
153.760	13.374	958.945	735.622
154.775	13.464	958.132	735.334
155.789	13.390	957.468	734.431
156.804	13.512	956.792	734.388
157.819	13.443	956.564	733.840
158.833	13.658	955.356	733.803
159.848	13.633	954.704	733.127
160.862	13.510	953.783	731.810
161.877	13.450	952.596	730.570
162.892	13.527	951.664	730.131
163.906	13.462	950.480	728.869
164.921	13.389	949.734	727.914
165.935	13.503	948.970	727.765
166.950	13.507	948.057	727.019
167.964	13.354	947.330	725.725
168.979	13.548	946.144	725.602
169.994	13.465	945.652	724.795
171.008	13.595	944.302	724.266
172.023	13.617	943.969	724.044
173.037	13.687	943.395	723.845
174.052	13.525	943.066	722.822
175.067	13.547	941.782	721.870
176.081	13.501	941.446	721.344
177.096	13.368	941.363	720.638
178.110	13.595	940.222	720.688
179.125	13.541	939.923	720.162
180.140	13.496	939.212	719.358
181.154	13.751	938.658	719.979
182.169	13.698	938.292	719.403
183.183	13.711	937.896	719.092
184.198	13.792	936.438	718.259
185.213	13.776	935.906	717.718
186.227	13.783	935.233	717.171
187.242	13.787	934.781	716.779
188.256	13.821	934.085	716.329
189.271	13.887	933.096	715.792
190.286	13.581	932.875	714.237
191.300	13.545	931.809	713.203
192.315	13.515	931.073	712.451
193.329	13.562	930.823	712.395
194.344	13.542	930.312	711.856
195.359	13.662	929.488	711.678
196.373	13.729	928.806	711.382
197.388	13.835	928.535	711.562
198.402	13.866	928.093	711.295
199.417	14.025	927.110	711.159
200.432	14.027	926.514	710.649
201.446	14.173	926.231	710.991
202.461	14.136	925.691	710.356
203.475	14.202	925.165	710.170
204.490	13.923	924.167	708.155
205.504	13.877	923.572	707.441
206.519	13.936	922.765	707.008
207.534	13.957	922.011	706.457
208.548	14.029	921.170	706.055
209.563	13.954	920.958	705.513
210.577	14.075	920.320	705.477
211.592	14.179	919.275	705.052
212.607	14.123	918.581	704.220
213.621	14.202	917.854	703.937
214.636	14.059	917.550	703.035
215.650	14.246	916.484	702.947
216.665	14.108	916.316	702.175
217.680	14.272	915.223	701.965
218.694	14.299	914.609	701.545
219.709	14.280	913.908	700.866
220.723	14.313	913.112	700.334
221.738	14.158	912.771	699.359
222.753	14.281	911.876	699.126
223.767	14.246	911.465	698.601
224.782	14.381	910.626	698.463
225.796	14.394	910.711	698.523
226.811	14.358	909.851	697.647
227.826	14.306	909.247	696.905
228.840	14.255	908.299	695.904
229.855	14.365	907.472	695.669
230.869	14.332	906.759	694.921
231.884	14.253	906.246	694.140
232.899	14.371	904.988	693.604
233.913	14.329	904.365	692.892
234.928	14.323	903.579	692.204
235.942	14.304	903.685	692.144
236.957	14.329	902.606	691.362
237.972	14.360	901.592	690.650
238.986	14.378	901.210	690.374
240.001	14.361	900.623	689.792
241.015	14.316	900.489	689.442
242.030	14.388	899.324	688.785
243.045	14.545	898.978	689.110
244.059	14.390	898.455	688.007
245.074	14.518	897.933	688.074
246.088	14.615	896.638	687.422
247.103	14.580	896.208	686.885
248.117	14.646	895.965	686.911
249.132	14.727	895.503	686.830
250.147	14.785	894.943	686.577
251.161	14.824	894.296	686.180
252.176	14.880	893.324	685.605
253.190	14.934	892.793	685.355
254.205	14.992	892.472	685.287
255.220	14.947	891.620	684.386
256.234	14.864	891.278	683.727
257.249	14.923	890.543	683.342
258.263	15.029	889.571	682.969
259.278	15.043	888.844	682.407
260.293	14.956	888.409	681.659
261.307	14.958	887.861	681.185
262.322	14.993	887.691	681.135
263.336	15.206	886.434	680.976
264.351	15.096	885.836	680.012
265.366	15.178	885.138	679.748
266.380	15.195	884.652	679.385
267.395	15.102	883.820	678.306
268.409	15.194	883.010	677.997
269.424	15.196	882.112	677.259
270.439	15.125	881.756	676.638
271.453	15.132	880.903	675.950
272.468	15.097	880.560	675.489
273.482	14.958	880.063	674.485
274.497	15.094	879.490	674.533
275.512	15.034	878.855	673.747
276.526	15.093	878.695	673.802
277.541	15.134	878.201	673.529
278.555	15.130	877.176	672.665
279.570	15.290	876.336	672.605
280.585	15.261	875.742	671.974
281.599	15.387	874.581	671.528
282.614	15.134	873.953	669.975
283.628	15.149	873.633	669.730
284.643	15.187	873.038	669.366
285.657	15.337	872.355	669.382
286.672	15.369	871.467	668.770
287.687	15.476	870.795	668.618
288.701	15.245	870.886	667.711
289.716	15.229	870.044	666.940
290.730	15.353	869.258	666.772
291.745	15.324	869.491	666.777
292.760	15.388	868.441	666.168
293.774	15.571	867.728	666.288
294.789	15.495	867.160	665.489
295.803	15.438	866.489	664.691
296.818	15.420	865.370	663.704
297.833	15.417	865.212	663.513
298.847	15.360	864.772	662.890
299.862	15.432	863.923	662.463
300.876	15.453	863.520	662.179
301.891	15.617	862.836	662.245
302.906	15.667	862.246	661.930
303.920	15.738	861.819	661.823
304.935	15.784	861.097	661.391
305.949	15.761	860.468	660.758
306.964	15.666	860.070	660.019
307.979	15.734	859.242	659.592
308.993	15.729	859.087	659.398
310.008	15.761	858.200	658.785
311.022	15.742	857.918	658.434
312.037	15.842	856.896	657.980
313.052	15.686	856.837	657.268
314.066	15.569	856.248	656.302
315.081	15.667	855.469	656.030
316.095	15.666	854.620	655.314
317.110	15.715	854.153	655.091
318.125	15.715	853.886	654.827
319.139	15.753	853.168	654.367
320.154	15.625	852.912	653.614
321.168	15.858	851.980	653.747
322.183	15.765	851.726	653.134
323.197	15.724	851.165	652.488
324.212	15.859	850.520	652.460
325.227	15.883	850.066	652.143
326.241	15.692	849.465	650.885
327.256	15.859	848.671	650.868
328.270	15.872	847.945	650.302
329.285	15.772	847.632	649.620
330.300	15.798	846.956	649.145
331.314	15.863	846.314	648.845
332.329	15.927	846.256	648.991
333.343	15.798	846.116	648.328
334.358	15.892	845.515	648.174
335.373	16.010	844.723	647.960
336.387	16.014	844.409	647.679
337.402	16.025	844.122	647.444
338.416	16.041	843.981	647.339
339.431	16.176	843.366	647.329
340.446	16.086	843.300	646.873
341.460	16.196	842.904	646.935
342.475	16.319	842.540	647.069
343.489	16.261	841.583	646.056
344.504	16.365	841.148	646.064
345.519	16.236	840.939	645.353
346.533	16.300	840.517	645.214
347.548	16.223	839.694	644.231
348.562	16.223	839.425	643.971
349.577	16.143	838.594	642.970
350.592	16.171	837.745	642.367
351.606	16.078	837.475	641.750
352.621	16.174	836.594	641.386
353.635	16.223	836.119	641.148
354.650	16.321	835.395	640.908
355.665	16.249	834.683	640.034
356.679	16.240	834.363	639.698
357.694	16.252	833.712	639.186
358.708	16.383	832.599	638.774
359.723	16.471	831.983	638.574
360.738	16.379	831.671	637.930
361.752	16.325	831.262	637.357
362.767	16.507	830.258	637.217
363.781	16.554	830.105	637.221
364.796	16.667	829.722	637.298
365.810	16.608	829.392	636.765
366.825	16.544	829.224	636.338
367.840	16.592	828.633	636.009
368.854	16.567	828.098	635.447
369.869	16.466	827.846	634.820
370.883	16.639	827.140	634.873
371.898	16.681	826.726	634.654
372.913	16.754	826.231	634.493
373.927	16.545	825.883	633.387
374.942	16.640	825.370	633.293
375.956	16.710	825.058	633.257
376.971	16.950	824.356	633.560
377.986	16.857	824.259	633.081
379.000	16.913	823.787	632.873
380.015	16.909	822.749	632.004
381.029	16.906	822.277	631.576
382.044	16.984	821.867	631.494
383.059	17.013	820.984	630.868
384.073	16.966	820.661	630.390
385.088	16.763	820.349	629.340
386.102	16.813	819.420	628.758
387.117	16.823	818.904	628.341
388.132	16.928	818.393	628.282
389.146	17.000	817.835	628.066
390.161	16.934	817.531	627.532
391.175	16.987	817.028	627.288
392.190	16.947	816.688	626.822
393.205	16.912	816.170	626.241
394.219	16.944	815.822	626.034
395.234	16.860	815.402	625.347
396.248	16.889	814.743	624.896
397.263	16.813	814.418	624.312
398.278	16.795	814.229	624.045
399.292	16.849	813.738	623.809
400.307	16.843	813.096	623.241
401.321	16.892	812.610	622.995
402.336	17.021	811.784	622.779
403.350	16.962	811.605	622.371
404.365	17.050	811.425	622.499
405.380	17.102	810.869	622.207
406.394	17.100	810.169	621.608
407.409	17.071	810.014	621.330
408.423	17.220	809.716	621.589
409.438	17.289	809.359	621.514
410.453	17.229	808.993	620.960
411.467	17.307	808.444	620.768
412.482	17.452	808.048	620.936
413.496	17.453	807.596	620.538
414.511	17.306	807.443	619.829
415.526	17.306	807.090	619.504
416.540	17.355	806.425	619.117
417.555	17.417	805.646	618.691
418.569	17.444	805.462	618.592
419.584	17.404	804.924	617.977
420.599	17.567	804.202	617.962
421.613	77.369	1237.928	1272.696
422.628	65.501	1301.147	1272.829
