DTS Sentinel unit serial number:	SN413079Multiplexer serial number:	ORYXHardware model number:	OX4-SRSoftware version number:	ORYX F/W v4.00 Oryx Data Collector v3.7.2.0data status	okinstallation	princeton_trtdifferential loss correction	single-endedforward channel	channel 1reverse channel	N/Adate	2019/09/13time	20:26:35forward acquisition time	60.00reverse acquisition time	0.00gamma	496.2192k internal	0.2330k external	0.2330temperature offset calibration	1.0089default loss term (dB/km)	0.3790temperature slope calibration	1.0000multiplexer offset coefficient	1.0000multiplexer slope coefficient	1.0000fibre end	0.00T internal ref (°C)	29.19T ext. ref 1 (°C)	3.20T ext. ref 2 (°C)	23.86length (m)	temperature (°C)	Stokes	anti-Stokes-747.200	23.086	-0.125	0.103
-746.185	187.703	0.049	-0.074
-745.171	-111.833	0.198	0.040
-744.156	-40.235	-0.113	-0.059
-743.142	245.697	0.008	0.014
-742.127	-200.000	0.072	0.418
-741.112	-200.000	-0.041	-0.239
-740.098	-50.466	-0.159	-0.075
-739.083	-70.957	0.106	0.040
-738.069	800.000	-0.082	0.288
-737.054	222.158	-0.102	0.165
-736.039	-103.418	-0.134	-0.032
-735.025	-26.612	0.222	-0.131
-734.010	800.000	-0.031	-0.114
-732.996	800.000	-0.035	-0.126
-731.981	-129.279	-0.371	0.052
-730.966	-114.967	-0.504	0.097
-729.952	-200.000	0.009	-0.067
-728.937	306.159	-0.141	0.263
-727.923	800.000	-0.025	0.075
-726.908	-141.523	-0.122	-0.012
-725.894	192.316	0.033	-0.051
-724.879	33.958	0.113	0.099
-723.864	-174.166	0.186	0.005
-722.850	693.928	0.021	0.054
-721.835	264.591	-0.046	-0.080
-720.821	36.869	-0.289	-0.257
-719.806	-95.469	-0.272	-0.073
-718.791	288.806	0.146	-0.265
-717.777	-60.799	-0.069	0.029
-716.762	800.000	0.054	0.225
-715.748	-37.644	0.367	-0.197
-714.733	-200.000	-0.057	-0.385
-713.718	-88.387	0.168	0.051
-712.704	-124.147	-0.174	-0.027
-711.689	788.681	0.130	-0.359
-710.675	-196.681	0.052	0.000
-709.660	-60.999	-0.236	0.100
-708.645	29.655	-0.173	0.148
-707.631	396.129	-0.168	0.353
-706.616	346.089	0.117	0.232
-705.602	0.902	-0.175	-0.126
-704.587	60.413	-0.137	-0.136
-703.572	-48.200	-0.182	-0.088
-702.558	-200.000	-0.044	-0.207
-701.543	11.372	0.241	-0.186
-700.529	-81.280	-0.272	0.090
-699.514	-91.229	0.220	-0.063
-698.499	288.750	-0.056	-0.102
-697.485	350.773	-0.080	-0.158
-696.470	-200.000	0.004	0.324
-695.456	-200.000	-0.037	-0.168
-694.441	-200.000	-0.014	-0.150
-693.426	87.115	0.038	0.043
-692.412	293.912	0.127	-0.233
-691.397	-36.434	-0.050	-0.027
-690.383	-109.873	0.136	-0.029
-689.368	199.978	-0.214	-0.329
-688.354	-155.315	0.235	0.015
-687.339	-104.820	-0.062	0.014
-686.324	-13.168	-0.232	0.151
-685.310	-105.535	-0.116	0.027
-684.295	-94.245	0.305	-0.084
-683.281	-129.130	0.112	0.016
-682.266	7.384	0.268	0.201
-681.251	76.496	0.140	-0.149
-680.237	-86.983	-0.404	0.124
-679.222	234.853	-0.082	0.135
-678.208	13.610	0.125	-0.097
-677.193	64.354	-0.057	-0.058
-676.178	-115.309	-0.176	-0.033
-675.164	29.357	-0.054	-0.046
-674.149	-17.354	-0.326	0.206
-673.135	-5.852	0.138	0.095
-672.120	56.704	0.305	0.298
-671.105	-129.413	-0.476	0.066
-670.091	-200.000	0.014	0.133
-669.076	-40.292	-0.236	0.123
-668.062	52.443	-0.375	0.360
-667.047	21.223	-0.163	0.133
-666.032	-105.717	0.293	-0.067
-665.018	236.659	0.118	-0.197
-664.003	304.445	0.204	0.379
-662.989	-52.804	-0.183	0.085
-661.974	-33.391	-0.144	-0.080
-660.959	-154.226	0.111	0.008
-659.945	22.256	0.247	0.203
-658.930	121.648	0.100	0.125
-657.916	-107.610	-0.275	-0.060
-656.901	-52.865	-0.132	-0.061
-655.886	-62.488	-0.422	0.176
-654.872	-92.216	-0.296	0.084
-653.857	800.000	-0.205	0.597
-652.843	-83.513	-0.259	-0.083
-651.828	42.281	-0.139	-0.126
-650.814	-200.000	-0.002	0.034
-649.799	13.523	-0.149	0.116
-648.784	-124.891	0.048	-0.007
-647.770	113.790	0.131	-0.160
-646.755	112.169	0.132	0.161
-645.741	776.763	-0.059	0.163
-644.726	-142.766	-0.012	0.001
-643.711	392.350	-0.066	0.138
-642.697	-200.000	-0.033	0.189
-641.682	-200.000	-0.029	0.568
-640.668	-200.000	-0.088	0.000
-639.653	-200.000	-0.026	-0.269
-638.638	98.999	-0.151	-0.174
-637.624	-89.624	0.453	-0.133
-636.609	289.790	0.061	-0.111
-635.595	-200.000	-0.007	-0.130
-634.580	340.225	0.107	0.209
-633.565	310.154	0.122	-0.229
-632.551	167.895	-0.230	0.327
-631.536	-200.000	-0.018	-0.171
-630.522	181.016	0.139	-0.205
-629.507	6.370	-0.168	0.125
-628.492	332.091	0.074	0.143
-627.478	-46.512	0.410	-0.201
-626.463	373.388	-0.141	-0.288
-625.449	572.099	-0.136	0.332
-624.434	800.000	-0.083	-0.234
-623.419	168.070	0.219	0.312
-622.405	-42.952	0.159	-0.081
-621.390	-135.553	0.206	0.025
-620.376	-93.298	0.166	-0.046
-619.361	-200.000	-0.005	-0.081
-618.346	-43.930	0.258	-0.130
-617.332	-45.509	0.125	0.062
-616.317	-81.672	-0.074	0.024
-615.303	206.874	-0.082	-0.128
-614.288	276.732	0.084	0.150
-613.273	-200.000	-0.448	-0.001
-612.259	-103.757	-0.237	0.056
-611.244	-51.249	0.321	0.151
-610.230	-200.000	0.063	-0.436
-609.215	70.913	0.324	-0.336
-608.201	614.406	-0.052	-0.131
-607.186	-200.000	-0.054	0.384
-606.171	63.207	0.064	0.064
-605.157	800.000	0.060	0.231
-604.142	473.241	-0.153	-0.346
-603.128	39.387	0.093	0.083
-602.113	-16.584	-0.260	0.165
-601.098	-200.000	-0.035	-0.193
-600.084	-67.528	0.330	-0.130
-599.069	-200.000	0.011	-0.188
-598.055	536.895	0.046	0.110
-597.040	191.385	-0.191	-0.288
-596.025	-55.674	-0.164	-0.074
-595.011	-87.701	0.080	0.024
-593.996	127.749	0.038	-0.048
-592.982	-39.264	0.100	-0.053
-591.967	329.490	0.074	0.143
-590.952	141.957	-0.037	-0.048
-589.938	25.553	0.043	-0.036
-588.923	148.934	-0.226	-0.306
-587.909	83.123	-0.245	0.266
-586.894	-122.137	-0.216	-0.035
-585.879	-81.332	0.161	0.053
-584.865	18.577	-0.314	0.251
-583.850	14.329	-0.135	-0.106
-582.836	387.106	-0.064	-0.133
-581.821	-109.515	-0.144	0.030
-580.806	-200.000	0.012	-0.085
-579.792	-100.810	-0.138	0.034
-578.777	-57.274	0.137	-0.060
-577.763	42.377	-0.220	0.200
-576.748	800.000	0.057	0.212
-575.733	57.727	-0.192	0.188
-574.719	75.543	0.161	-0.170
-573.704	-89.293	0.220	-0.065
-572.690	-200.000	-0.018	-0.115
-571.675	714.478	-0.101	-0.267
-570.661	-200.000	-0.048	-0.336
-569.646	-200.000	-0.018	0.195
-568.631	610.593	0.143	-0.357
-567.617	-16.389	-0.112	0.071
-566.602	-143.447	0.292	-0.028
-565.588	-100.555	-0.170	0.042
-564.573	586.358	-0.019	0.046
-563.558	12.500	0.179	-0.138
-562.544	-200.000	-0.004	0.099
-561.529	-64.584	-0.097	-0.039
-560.515	-102.702	0.254	-0.061
-559.500	87.113	-0.239	0.264
-558.485	-12.137	0.252	-0.165
-557.471	175.687	-0.161	0.234
-556.456	111.342	-0.185	-0.223
-555.442	-200.000	-0.044	-0.367
-554.427	-200.000	-0.001	0.166
-553.412	-69.623	0.170	-0.065
-552.398	800.000	0.114	-0.477
-551.383	-115.518	0.183	-0.034
-550.369	-120.391	-0.211	0.036
-549.354	-85.090	0.114	0.036
-548.339	-106.191	0.115	-0.026
-547.325	-84.280	0.284	0.090
-546.310	-190.167	-0.210	-0.002
-545.296	800.000	0.058	0.171
-544.281	38.451	0.413	0.367
-543.266	100.620	-0.184	-0.214
-542.252	-93.316	0.387	-0.107
-541.237	85.443	0.218	0.239
-540.223	490.371	-0.085	0.195
-539.208	-63.199	-0.558	0.230
-538.193	-164.293	0.099	-0.005
-537.179	800.000	0.096	-0.377
-536.164	358.938	0.035	-0.070
-535.150	-200.000	0.057	0.288
-534.135	-103.438	0.077	-0.018
-533.121	-200.000	0.007	-0.216
-532.106	-200.000	-0.055	-0.431
-531.091	800.000	0.076	-0.286
-530.077	-95.021	-0.137	0.037
-529.062	-200.000	0.007	0.264
-528.048	33.489	-0.112	-0.097
-527.033	161.421	0.096	0.134
-526.018	-200.000	-0.017	0.143
-525.004	-164.229	-0.412	0.019
-523.989	79.349	0.102	0.110
-522.975	800.000	0.023	0.100
-521.960	-112.562	-0.494	0.098
-520.945	-9.485	-0.269	0.179
-519.931	84.721	0.231	0.252
-518.916	158.896	-0.187	-0.259
-517.902	593.613	-0.074	0.183
-516.887	-176.859	0.204	0.005
-515.872	-94.413	0.278	-0.076
-514.858	22.582	0.238	-0.194
-513.843	800.000	0.068	-0.288
-512.829	-64.088	-0.126	-0.051
-511.814	96.280	-0.130	-0.148
-510.799	-53.662	0.169	0.077
-509.785	-120.142	0.291	0.050
-508.770	-200.000	0.016	-0.161
-507.756	393.312	0.134	0.278
-506.741	-21.072	-0.235	-0.143
-505.726	178.011	-0.112	0.163
-504.712	140.523	-0.083	0.109
-503.697	-200.000	0.028	0.313
-502.683	-79.520	0.302	0.102
-501.668	160.058	-0.053	-0.074
-500.653	-33.186	-0.199	-0.110
-499.639	-200.000	-0.005	-0.284
-498.624	-81.133	0.113	-0.037
-497.610	186.722	-0.105	0.156
-496.595	-72.723	0.194	-0.071
-495.581	611.366	-0.046	0.115
-494.566	-200.000	-0.037	-0.240
-493.551	-72.668	0.310	-0.114
-492.537	-95.734	0.355	0.095
-491.522	7.563	0.210	-0.156
-490.508	1.871	0.250	-0.180
-489.493	163.675	0.078	0.109
-488.478	-161.862	0.199	0.010
-487.464	136.187	0.074	0.096
-486.449	9.418	0.254	-0.191
-485.435	181.419	-0.089	0.131
-484.420	58.521	0.272	-0.266
-483.405	-183.652	-0.319	-0.005
-482.391	-200.000	0.050	-0.259
-481.376	-101.037	0.089	0.022
-480.362	-61.856	0.209	0.087
-479.347	-200.000	0.017	0.189
-478.332	-57.441	-0.362	-0.158
-477.318	-155.883	-0.258	0.016
-476.303	-200.000	0.010	0.173
-475.289	-87.788	-0.332	0.100
-474.274	-67.032	-0.147	0.058
-473.259	800.000	-0.088	-0.259
-472.245	-200.000	-0.022	-0.149
-471.230	-161.756	0.118	0.006
-470.216	800.000	-0.078	0.257
-469.201	-81.044	0.339	-0.112
-468.186	221.398	0.050	-0.081
-467.172	56.637	-0.142	-0.138
-466.157	-79.049	-0.294	-0.100
-465.143	800.000	-0.042	-0.174
-464.128	800.000	-0.080	0.265
-463.113	41.748	0.150	0.135
-462.099	-107.788	0.109	0.024
-461.084	659.504	-0.049	-0.125
-460.070	186.104	0.144	-0.213
-459.055	531.173	0.096	-0.225
-458.040	-75.001	0.111	0.039
-457.026	426.230	0.148	0.318
-456.011	-200.000	-0.279	-0.001
-454.997	397.940	-0.022	0.045
-453.982	-27.661	0.196	0.113
-452.968	182.140	-0.156	-0.229
-451.953	-101.426	-0.246	-0.060
-450.938	-39.267	0.238	-0.124
-449.924	42.573	0.203	-0.184
-448.909	-45.405	-0.121	0.060
-447.895	-200.000	-0.013	-0.073
-446.880	235.272	-0.331	-0.544
-445.865	-54.503	0.039	0.017
-444.851	-62.408	0.390	0.161
-443.836	109.808	-0.178	-0.212
-442.822	707.224	0.101	-0.266
-441.807	28.529	0.080	-0.068
-440.792	48.943	0.019	0.018
-439.778	-148.283	0.293	0.024
-438.763	-103.173	-0.173	-0.041
-437.749	-29.451	-0.090	-0.051
-436.734	-78.210	-0.224	-0.077
-435.719	800.000	-0.090	-0.304
-434.705	-116.209	0.330	-0.061
-433.690	26.261	-0.146	0.121
-432.676	-3.805	-0.314	0.217
-431.661	122.552	-0.088	-0.109
-430.646	-182.907	0.363	-0.006
-429.632	339.356	0.107	0.208
-428.617	61.494	-0.130	-0.129
-427.603	-30.285	-0.129	-0.073
-426.588	-59.436	-0.179	-0.076
-425.573	179.680	0.060	0.087
-424.559	-157.328	-0.337	0.020
-423.544	-200.000	0.016	-0.206
-422.530	-200.000	0.003	0.193
-421.515	90.486	0.043	0.048
-420.500	6.434	0.291	-0.215
-419.486	180.312	0.265	0.387
-418.471	-121.549	-0.138	-0.023
-417.457	404.568	0.041	-0.086
-416.442	-200.000	-0.051	0.265
-415.428	-14.767	-0.132	-0.084
-414.413	200.499	-0.091	-0.139
-413.398	800.000	0.019	0.076
-412.384	-75.553	0.074	-0.026
-411.369	-43.317	0.366	0.184
-410.355	-200.000	-0.056	0.338
-409.340	-200.000	-0.024	-0.224
-408.325	-70.646	-0.153	-0.058
-407.311	-200.000	0.008	-0.154
-406.296	582.490	-0.068	-0.165
-405.282	433.841	0.102	-0.221
-404.267	800.000	0.066	-0.229
-403.252	-200.000	-0.004	0.136
-402.238	800.000	-0.065	-0.248
-401.223	-123.939	0.056	0.009
-400.209	199.720	-0.144	-0.219
-399.194	-200.000	0.450	-0.002
-398.179	125.912	-0.049	-0.061
-397.165	123.145	0.043	-0.053
-396.150	-89.008	-0.122	0.036
-395.136	-162.291	-0.194	0.010
-394.121	362.734	0.135	0.270
-393.106	771.633	-0.014	0.038
-392.092	295.229	0.102	-0.185
-391.077	-45.237	-0.312	0.154
-390.063	-113.155	0.149	-0.029
-389.048	-63.335	0.096	0.039
-388.033	-77.049	0.125	-0.043
-387.019	-200.000	0.047	0.378
-386.004	-149.076	0.185	0.015
-384.990	-32.788	0.121	-0.067
-383.975	210.131	0.090	0.140
-382.960	800.000	0.023	0.090
-381.946	-79.333	-0.328	0.110
-380.931	-111.792	-0.196	-0.039
-379.917	23.550	0.270	0.221
-378.902	-200.000	-0.029	-0.187
-377.888	-7.298	0.136	0.091
-376.873	-26.920	0.079	-0.046
-375.858	-200.000	0.095	-0.487
-374.844	800.000	-0.072	-0.307
-373.829	800.000	0.095	0.320
-372.815	-120.077	-0.307	0.052
-371.800	209.998	0.146	0.228
-370.785	-113.368	-0.297	0.058
-369.771	-13.091	-0.239	-0.154
-368.756	76.845	0.094	0.099
-367.742	-200.000	0.008	-0.071
-366.727	-61.284	0.029	0.012
-365.712	-26.975	0.031	-0.018
-364.698	-31.295	-0.201	-0.112
-363.683	84.086	-0.065	-0.070
-362.669	-121.259	-0.246	0.041
-361.654	5.769	-0.242	-0.178
-360.639	90.707	-0.187	0.207
-359.625	-63.005	-0.404	0.165
-358.610	800.000	0.100	0.362
-357.596	70.388	-0.226	0.232
-356.581	-1.799	0.270	0.188
-355.566	311.100	-0.175	0.326
-354.552	145.744	-0.121	-0.161
-353.537	-85.551	0.043	0.013
-352.523	48.541	-0.085	-0.079
-351.508	-14.465	-0.106	0.068
-350.493	5.214	0.193	-0.141
-349.479	800.000	0.100	-0.299
-348.464	587.190	-0.043	0.105
-347.450	800.000	-0.069	-0.288
-346.435	350.455	0.298	-0.583
-345.420	4.092	-0.109	0.079
-344.406	671.849	-0.094	0.241
-343.391	-144.522	0.302	0.028
-342.377	800.000	-0.034	-0.126
-341.362	16.685	-0.043	-0.034
-340.348	-22.983	0.163	-0.098
-339.333	-116.824	0.071	0.013
-338.318	-200.000	-0.015	0.321
-337.304	-200.000	-0.023	0.342
-336.289	-130.316	-0.209	0.028
-335.275	-103.385	-0.499	-0.117
-334.260	305.795	-0.010	0.019
-333.245	-21.122	-0.122	0.074
-332.231	-169.609	-0.232	-0.008
-331.216	-149.458	0.192	-0.015
-330.202	159.308	0.240	0.330
-329.187	78.361	0.035	-0.037
-328.172	-184.924	0.154	-0.002
-327.158	-89.654	-0.211	-0.061
-326.143	-46.613	-0.073	-0.036
-325.129	20.320	0.081	0.065
-324.114	28.889	-0.108	-0.090
-323.099	-200.000	0.022	-0.148
-322.085	800.000	-0.039	0.169
-321.070	-135.567	0.184	-0.022
-320.056	-200.000	0.015	-0.099
-319.041	-200.000	-0.030	0.342
-318.026	-200.000	0.043	0.207
-317.012	-200.000	0.012	0.143
-315.997	-200.000	0.049	0.258
-314.983	-129.321	-0.266	-0.037
-313.968	-200.000	0.014	-0.221
-312.953	76.688	-0.246	0.258
-311.939	-109.642	-0.044	0.009
-310.924	-143.158	0.172	0.016
-309.910	18.777	-0.119	0.094
-308.895	-84.096	-0.164	0.052
-307.880	-89.036	0.126	0.037
-306.866	-118.296	0.109	0.019
-305.851	-193.501	-0.203	0.002
-304.837	-142.743	0.300	0.029
-303.822	-110.343	-0.054	-0.011
-302.807	800.000	-0.055	-0.232
-301.793	800.000	0.019	0.065
-300.778	-200.000	-0.012	-0.082
-299.764	450.808	-0.060	-0.131
-298.749	-7.542	0.079	0.053
-297.735	231.054	0.022	-0.036
-296.720	216.873	-0.143	-0.225
-295.705	122.998	-0.038	0.047
-294.691	-16.831	-0.225	0.141
-293.676	-200.000	-0.004	0.056
-292.662	172.516	0.122	-0.173
-291.647	800.000	-0.032	0.097
-290.632	800.000	-0.058	-0.166
-289.618	122.854	0.119	0.148
-288.603	-62.089	-0.551	-0.227
-287.589	-104.846	-0.330	0.075
-286.574	424.297	0.252	0.537
-285.559	222.216	-0.170	-0.271
-284.545	-200.000	-0.010	-0.178
-283.530	800.000	-0.080	0.300
-282.516	800.000	-0.040	0.157
-281.501	101.205	0.163	-0.188
-280.486	-135.011	-0.153	-0.018
-279.472	-62.557	0.332	-0.136
-278.457	155.296	-0.179	0.243
-277.443	9.585	0.155	-0.116
-276.428	800.000	-0.039	0.110
-275.413	-164.157	-0.160	-0.007
-274.399	-168.308	-0.258	0.010
-273.384	490.750	0.106	0.240
-272.370	146.336	-0.200	0.266
-271.355	-116.617	-0.330	0.060
-270.340	687.806	-0.007	0.018
-269.326	-7.498	0.179	0.120
-268.311	41.493	0.187	-0.168
-267.297	-200.000	-0.015	0.234
-266.282	-200.000	-0.020	-0.215
-265.267	-33.717	0.114	-0.062
-264.253	-200.000	-0.025	0.289
-263.238	-58.342	-0.119	-0.051
-262.224	75.430	0.120	0.125
-261.209	-121.513	-0.231	0.038
-260.195	-200.000	-0.005	0.222
-259.180	71.815	0.123	0.126
-258.165	-90.830	-0.156	-0.044
-257.151	243.369	0.121	0.201
-256.136	800.000	-0.045	0.180
-255.122	-35.898	0.461	0.246
-254.107	-196.537	-0.475	0.003
-253.092	257.671	-0.104	0.177
-252.078	-39.454	0.313	0.162
-251.063	-200.000	-0.026	0.148
-250.049	-24.139	0.049	0.029
-249.034	800.000	-0.085	0.249
-248.019	-85.124	-0.326	-0.101
-247.005	160.236	0.219	-0.302
-245.990	-200.000	0.009	-0.117
-244.976	-35.616	-0.218	0.117
-243.961	577.899	0.095	0.230
-242.946	-1.615	-0.313	-0.218
-241.932	80.608	0.153	-0.163
-240.917	-169.485	0.133	-0.005
-239.903	634.320	0.066	-0.166
-238.888	-109.593	-0.122	0.025
-237.873	-59.436	0.176	-0.075
-236.859	-200.000	-0.014	0.260
-235.844	-56.969	0.281	-0.122
-234.830	-200.000	-0.002	0.017
-233.815	-105.761	-0.428	-0.096
-232.800	375.566	0.143	-0.288
-231.786	-84.303	0.175	-0.055
-230.771	368.314	-0.147	0.294
-229.757	-200.000	0.061	0.525
-228.742	-121.631	0.321	0.052
-227.727	164.062	-0.034	0.047
-226.713	800.000	0.030	0.114
-225.698	-175.555	0.135	0.004
-224.684	1.993	0.065	-0.046
-223.669	177.465	-0.046	-0.067
-222.655	3.524	0.053	-0.038
-221.640	104.042	-0.106	0.123
-220.625	-200.000	0.010	-0.096
-219.611	-200.000	0.071	0.405
-218.596	135.177	0.031	-0.039
-217.582	-36.749	0.139	0.074
-216.567	-148.102	0.043	0.004
-215.552	800.000	-0.055	-0.189
-214.538	199.198	-0.071	0.107
-213.523	366.110	-0.047	-0.093
-212.509	164.420	-0.056	-0.078
-211.494	-67.079	-0.297	0.116
-210.479	-20.088	0.206	0.125
-209.465	5.959	-0.128	0.093
-208.450	-97.340	0.081	-0.021
-207.436	-15.261	0.245	0.154
-206.421	-94.141	-0.023	-0.006
-205.406	-19.248	0.299	-0.183
-204.392	-64.496	0.190	0.076
-203.377	-200.000	0.033	0.220
-202.363	-121.818	-0.013	-0.002
-201.348	-200.000	0.009	0.300
-200.333	221.124	-0.147	0.233
-199.319	168.959	0.070	-0.099
-198.304	536.249	-0.074	-0.172
-197.290	-130.948	-0.211	-0.028
-196.275	-200.000	0.048	-0.267
-195.260	-122.680	-0.092	-0.015
-194.246	172.560	-0.238	-0.337
-193.231	-27.622	-0.158	0.090
-192.217	-86.044	0.238	0.072
-191.202	73.497	-0.099	0.102
-190.187	-44.010	-0.280	0.139
-189.173	-90.568	0.360	-0.103
-188.158	-200.000	0.034	0.215
-187.144	-74.679	0.175	-0.062
-186.129	-38.173	-0.108	0.056
-185.114	-100.519	0.038	0.009
-184.100	800.000	-0.115	0.328
-183.085	-200.000	-0.031	0.300
-182.071	-200.000	-0.006	-0.072
-181.056	36.104	-0.227	0.197
-180.042	342.802	0.152	0.293
-179.027	-200.000	0.022	0.274
-178.012	-22.905	0.124	0.074
-176.998	-200.000	0.056	0.273
-175.983	-200.000	0.010	0.147
-174.969	51.035	-0.266	0.248
-173.954	10.332	-0.213	-0.160
-172.939	800.000	0.038	-0.145
-171.925	24.062	-0.098	-0.079
-170.910	-50.916	0.258	-0.120
-169.896	-200.000	-0.066	-0.362
-168.881	171.019	-0.120	-0.169
-167.866	-84.913	0.316	-0.098
-166.852	-114.682	-0.116	-0.022
-165.837	70.417	-0.139	-0.142
-164.823	439.815	0.137	-0.295
-163.808	184.535	0.389	-0.568
-162.793	39.670	0.213	-0.188
-161.779	-55.660	-0.049	0.022
-160.764	12.859	0.257	-0.196
-159.750	-6.414	-0.070	-0.047
-158.735	56.389	0.079	-0.076
-157.720	-37.328	-0.206	0.108
-156.706	633.577	0.050	-0.124
-155.691	180.043	-0.142	-0.204
-154.677	-18.729	-0.070	-0.043
-153.662	-56.484	0.219	0.096
-152.647	800.000	-0.082	-0.285
-151.633	-200.000	0.044	-0.191
-150.618	-200.000	-0.010	0.108
-149.604	179.448	-0.051	0.073
-148.589	-200.000	-0.018	0.183
-147.574	390.778	-0.119	0.243
-146.560	261.314	0.073	0.125
-145.545	145.598	-0.068	-0.090
-144.531	-124.660	0.076	0.012
-143.516	-77.003	-0.165	0.056
-142.502	11.610	-0.331	-0.250
-141.487	-16.985	0.093	0.058
-140.472	-104.194	-0.220	0.050
-139.458	7.432	0.245	-0.180
-138.443	-147.331	-0.362	-0.030
-137.429	157.893	0.121	-0.165
-136.414	-131.819	0.353	0.045
-135.399	-200.000	0.015	-0.092
-134.385	83.153	-0.142	0.152
-133.370	-200.000	0.058	0.347
-132.356	24.997	-0.084	0.069
-131.341	-2.078	0.107	-0.074
-130.326	-114.173	0.281	0.053
-129.312	-130.965	0.205	0.027
-128.297	-43.415	0.235	-0.117
-127.283	455.122	-0.069	-0.149
-126.268	-174.018	-0.141	0.004
-125.253	-200.000	-0.017	-0.109
-124.239	-100.917	0.319	0.077
-123.224	72.377	0.108	0.111
-122.210	-75.300	-0.163	-0.057
-121.195	-15.636	-0.275	0.173
-120.180	61.075	-0.193	0.188
-119.166	800.000	-0.085	0.316
-118.151	31.126	-0.021	-0.018
-117.137	-112.155	-0.084	0.017
-116.122	-200.000	0.019	0.238
-115.107	-200.000	0.008	0.045
-114.093	-79.175	0.286	0.095
-113.078	76.397	0.246	0.256
-112.064	134.222	-0.224	0.285
-111.049	-200.000	-0.056	-0.279
-110.034	196.894	-0.173	0.259
-109.020	800.000	0.057	0.238
-108.005	86.076	-0.156	0.168
-106.991	303.959	-0.047	0.086
-105.976	250.662	0.125	0.208
-104.962	385.075	-0.058	-0.117
-103.947	-187.850	0.054	-0.001
-102.932	-98.708	0.115	0.029
-101.918	800.000	0.102	0.405
-100.903	447.160	-0.092	0.198
-99.889	-147.651	-0.032	-0.003
-98.874	47.890	-0.110	-0.101
-97.859	-81.125	0.243	-0.079
-96.845	-200.000	0.084	0.570
-95.830	-72.623	-0.113	-0.041
-94.816	63.011	-0.204	-0.201
-93.801	-200.000	0.013	-0.326
-92.786	-19.763	-0.074	0.045
-91.772	88.914	0.313	0.342
-90.757	-29.559	0.217	-0.121
-89.743	485.806	0.019	0.043
-88.728	616.824	-0.096	0.236
-87.713	717.723	0.078	-0.203
-86.699	480.383	-0.071	-0.158
-85.684	75.751	-0.250	0.259
-84.670	270.737	0.158	-0.273
-83.655	-200.000	0.008	0.401
-82.640	-62.429	0.386	-0.158
-81.626	-10.166	0.266	-0.173
-80.611	-3.189	-0.098	0.067
-79.597	7.196	0.424	-0.310
-78.582	-200.000	-0.003	0.102
-77.567	-101.827	0.449	-0.107
-76.553	68.080	-0.219	0.220
-75.538	-61.979	-0.182	-0.075
-74.524	107.850	-0.143	0.168
-73.509	800.000	0.097	0.398
-72.494	45.402	0.113	0.103
-71.480	207.864	0.093	-0.143
-70.465	-97.395	0.286	0.073
-69.451	-200.000	-0.030	0.145
-68.436	800.000	-0.031	0.087
-67.422	73.581	0.074	0.076
-66.407	222.792	0.202	-0.320
-65.392	650.457	-0.076	0.192
-64.378	-111.735	0.055	0.011
-63.363	-134.060	0.126	-0.015
-62.349	-55.517	0.139	-0.061
-61.334	20.139	-1.123	-0.889
-60.319	44.190	0.689	0.619
-59.305	351.730	-0.543	-1.055
-58.290	345.731	0.558	1.074
-57.276	800.000	0.557	1.833
-56.261	-200.000	110.937	638.423
-55.246	533.871	1511.046	3508.715
-54.232	177.669	2690.846	3843.696
-53.217	113.628	2151.530	2561.180
-52.203	40.928	1599.211	1414.525
-51.188	32.744	1340.994	1136.991
-50.173	29.587	1300.735	1084.312
-49.159	55.393	1356.620	1286.234
-48.144	55.251	1371.638	1299.572
-47.130	32.784	1326.186	1124.493
-46.115	29.325	1308.081	1088.714
-45.100	29.159	1303.100	1083.551
-44.086	29.186	1300.391	1081.411
-43.071	29.039	1298.374	1078.830
-42.057	28.936	1296.091	1076.289
-41.042	28.938	1294.776	1075.169
-40.027	29.104	1293.000	1074.620
-39.013	29.040	1291.168	1072.680
-37.998	29.051	1289.549	1071.357
-36.984	29.155	1287.693	1070.378
-35.969	29.137	1285.778	1068.639
-34.954	29.268	1283.881	1067.775
-33.940	29.195	1283.180	1066.730
-32.925	29.206	1281.504	1065.361
-31.911	29.238	1280.319	1064.514
-30.896	29.290	1278.546	1063.300
-29.881	29.277	1277.414	1062.238
-28.867	29.350	1275.648	1061.150
-27.852	29.322	1274.379	1059.889
-26.838	29.332	1272.863	1058.647
-25.823	29.352	1271.885	1057.904
-24.809	29.247	1270.832	1056.383
-23.794	29.395	1269.088	1055.742
-22.779	29.210	1268.024	1053.756
-21.765	29.380	1266.235	1053.197
-20.750	29.291	1265.069	1051.680
-19.736	29.172	1264.122	1050.170
-18.721	29.319	1262.603	1049.706
-17.706	29.100	1261.941	1047.864
-16.692	29.280	1260.445	1047.608
-15.677	29.092	1259.780	1045.942
-14.663	29.066	1258.743	1044.896
-13.648	29.111	1257.626	1044.178
-12.633	29.192	1256.015	1043.257
-11.619	29.134	1255.896	1042.789
-10.604	29.146	1255.315	1042.337
-9.590	29.044	1254.261	1040.841
-8.575	29.036	1253.323	1039.974
-7.560	29.075	1252.104	1039.142
-6.546	29.109	1251.321	1038.643
-5.531	28.985	1250.660	1037.355
-4.517	29.130	1249.816	1037.433
-3.502	29.189	1248.610	1036.720
-2.487	29.041	1248.100	1035.423
-1.473	29.041	1243.869	1031.872
-0.458	27.465	1228.054	1009.982
0.556	24.137	1210.361	970.052
1.571	20.172	1214.938	951.909
2.586	19.160	1228.960	957.190
3.600	18.670	1217.565	945.532
4.615	13.981	1147.328	866.508
5.629	6.732	1074.884	776.193
6.644	3.345	1057.061	746.856
7.659	3.132	1054.234	743.765
8.673	3.127	1053.300	743.016
9.688	3.206	1051.904	742.344
10.702	3.460	1049.357	741.705
11.717	7.478	1055.596	765.457
12.731	15.187	1066.220	810.520
13.746	19.678	1071.594	836.320
14.761	19.959	1071.516	837.544
15.775	19.150	1069.766	832.192
16.790	18.144	1067.856	825.777
17.804	17.446	1066.388	821.205
18.819	17.315	1065.232	819.607
19.834	17.094	1064.596	817.982
20.848	16.966	1063.763	816.655
21.863	16.720	1063.252	815.002
22.877	16.705	1062.303	814.132
23.892	16.694	1061.248	813.199
24.907	16.482	1061.232	812.098
25.921	16.706	1059.090	811.462
26.936	16.604	1057.967	810.038
27.950	16.560	1057.612	809.487
28.965	16.784	1055.744	809.052
29.980	16.689	1054.789	807.796
30.994	16.988	1053.115	807.869
32.009	16.941	1052.335	806.974
33.023	16.930	1051.633	806.312
34.038	16.797	1050.140	804.463
35.053	16.552	1049.640	802.847
36.067	16.599	1048.823	802.377
37.082	16.657	1047.977	801.932
38.096	16.862	1046.840	801.962
39.111	16.896	1046.409	801.720
40.126	16.578	1045.407	799.378
41.140	16.442	1043.926	797.535
42.155	16.337	1042.057	795.539
43.169	16.265	1041.724	794.876
44.184	16.279	1040.420	793.880
45.199	16.406	1039.540	793.731
46.213	16.579	1038.360	793.573
47.228	16.687	1037.753	793.543
48.242	16.788	1036.369	792.891
49.257	16.591	1035.577	791.294
50.271	16.729	1034.918	791.365
51.286	16.741	1034.085	790.712
52.301	16.621	1033.290	789.477
53.315	16.576	1032.112	788.298
54.330	16.487	1031.138	787.067
55.344	16.516	1030.219	786.432
56.359	16.520	1029.338	785.706
57.374	16.455	1028.555	784.739
58.388	16.487	1027.713	784.177
59.403	16.310	1026.940	782.697
60.417	16.318	1026.038	781.978
61.432	16.318	1025.449	781.457
62.447	16.342	1024.319	780.637
63.461	16.313	1023.360	779.706
64.476	16.189	1022.624	778.503
65.490	16.256	1021.319	777.749
66.505	16.160	1021.126	777.091
67.520	16.215	1020.385	776.713
68.534	16.183	1020.106	776.283
69.549	16.127	1019.487	775.489
70.563	16.188	1017.990	774.562
71.578	15.979	1017.818	773.403
72.593	16.053	1016.569	772.720
73.607	16.075	1015.493	771.935
74.622	16.079	1015.419	771.829
75.636	16.049	1014.759	771.122
76.651	16.135	1014.084	770.936
77.666	16.154	1013.393	770.430
78.680	15.997	1013.172	769.474
79.695	16.244	1011.765	769.465
80.709	16.361	1011.442	769.684
81.724	16.365	1010.951	769.258
82.739	16.461	1010.223	769.076
83.753	16.557	1009.528	768.914
84.768	16.925	1008.541	769.768
85.782	16.855	1008.324	769.213
86.797	16.944	1007.094	768.613
87.812	16.699	1006.408	766.910
88.826	16.800	1005.114	766.313
89.841	16.759	1004.517	765.605
90.855	16.952	1003.756	765.828
91.870	16.911	1002.950	764.959
92.884	16.938	1001.926	764.236
93.899	16.815	1001.285	763.123
94.914	17.125	999.983	763.460
95.928	16.995	999.481	762.421
96.943	17.046	998.078	761.517
97.957	16.739	998.108	760.092
98.972	16.785	996.743	759.191
99.987	16.792	996.348	758.855
101.001	16.779	995.236	757.883
102.016	16.758	994.792	757.384
103.030	16.930	993.521	757.117
104.045	16.781	992.875	755.893
105.060	16.772	991.855	755.008
106.074	16.393	991.088	752.669
107.089	16.370	989.466	751.270
108.103	16.357	988.460	750.381
109.118	16.258	987.645	749.259
110.133	16.270	986.780	748.590
111.147	16.377	985.935	748.357
112.162	16.369	985.252	747.736
113.176	16.454	984.634	747.574
114.191	16.413	984.341	747.107
115.206	16.403	982.974	745.958
116.220	16.461	981.775	745.237
117.235	16.438	980.566	744.151
118.249	16.372	980.324	743.613
119.264	16.294	979.742	742.760
120.279	16.266	978.757	741.828
121.293	16.358	977.432	741.160
122.308	16.113	977.149	739.806
123.322	16.128	976.194	739.082
124.337	16.060	974.622	737.532
125.352	16.138	973.777	737.164
126.366	16.114	972.705	736.184
127.381	16.224	971.706	735.842
128.395	16.214	970.903	735.126
129.410	16.321	969.734	734.643
130.424	16.328	969.519	734.444
131.439	16.363	968.835	734.011
132.454	16.362	967.997	733.309
133.468	16.464	967.205	733.089
134.483	16.468	966.353	732.394
135.497	16.541	965.189	731.764
136.512	16.527	964.347	730.997
137.527	16.514	963.753	730.426
138.541	16.442	963.416	729.797
139.556	16.568	962.694	729.727
140.570	16.628	962.310	729.630
141.585	16.802	961.207	729.481
142.600	16.846	960.454	729.034
143.614	16.861	959.818	728.549
144.629	16.917	959.128	728.201
145.643	16.917	958.049	727.320
146.658	16.765	957.101	725.883
147.673	16.636	955.857	724.326
148.687	16.506	955.299	723.281
149.702	16.476	954.130	722.202
150.716	16.443	953.212	721.307
151.731	16.580	952.183	721.046
152.746	16.571	951.598	720.503
153.760	16.660	950.963	720.336
154.775	16.715	950.773	720.363
155.789	16.721	949.806	719.592
156.804	16.757	949.058	719.114
157.819	16.852	948.319	718.893
158.833	16.775	948.338	718.516
159.848	17.028	946.965	718.485
160.862	16.787	946.016	716.682
161.877	16.811	944.728	715.743
162.892	16.573	944.084	714.186
163.906	16.547	943.028	713.216
164.921	16.527	942.121	712.382
165.935	16.736	941.318	712.591
166.950	16.675	940.562	711.700
167.964	16.665	939.736	710.972
168.979	16.768	938.511	710.414
169.994	16.883	937.748	710.255
171.008	16.797	937.324	709.509
172.023	16.986	937.058	710.039
173.037	16.976	936.218	709.295
174.052	16.807	935.277	707.813
175.067	16.706	934.312	706.601
176.081	16.619	933.884	705.851
177.096	16.707	932.951	705.450
178.110	16.701	932.530	705.046
179.125	16.664	932.585	704.870
180.140	16.839	931.442	704.670
181.154	16.894	930.953	704.467
182.169	16.984	930.835	704.687
183.183	16.950	930.501	704.232
184.198	17.015	929.381	703.593
185.213	17.062	928.552	703.096
186.227	17.172	927.866	702.970
187.242	17.149	927.668	702.664
188.256	17.251	926.786	702.354
189.271	17.168	926.141	701.461
190.286	16.875	925.270	699.529
191.300	16.659	924.111	697.700
192.315	16.527	923.498	696.635
193.329	16.547	923.045	696.311
194.344	16.710	922.510	696.520
195.359	16.780	922.265	696.559
196.373	16.971	921.623	696.797
197.388	17.095	921.140	696.879
198.402	17.232	920.347	696.780
199.417	17.293	920.336	696.961
200.432	17.356	919.922	696.845
201.446	17.471	919.275	696.763
202.461	17.593	918.618	696.699
203.475	17.555	917.721	695.802
204.490	17.309	917.168	694.317
205.504	17.155	916.556	693.164
206.519	17.215	915.644	692.658
207.534	17.120	914.672	691.474
208.548	17.397	914.123	692.128
209.563	17.115	913.876	690.733
210.577	17.210	913.043	690.425
211.592	17.420	912.327	690.677
212.607	17.546	911.658	690.620
213.621	17.394	910.731	689.243
214.636	17.401	910.365	688.933
215.650	17.352	909.751	688.207
216.665	17.511	908.839	688.099
217.680	17.629	908.411	688.192
218.694	17.640	907.431	687.431
219.709	17.509	906.910	686.448
220.723	17.440	906.360	685.694
221.738	17.430	905.582	685.004
222.753	17.548	904.829	684.846
223.767	17.578	904.456	684.625
224.782	17.601	904.044	684.347
225.796	17.802	903.232	684.477
226.811	17.779	902.628	683.865
227.826	17.502	902.051	682.260
228.840	17.564	901.031	681.675
229.855	17.588	900.323	681.174
230.869	17.544	899.203	680.091
231.884	17.309	898.985	678.930
232.899	17.491	898.105	678.930
233.913	17.430	897.573	678.225
234.928	17.217	896.674	676.638
235.942	17.218	896.502	676.451
236.957	17.237	896.145	676.198
237.972	17.236	895.416	675.582
238.986	17.373	894.663	675.500
240.001	17.331	893.971	674.752
241.015	17.357	893.573	674.493
242.030	17.383	893.080	674.166
243.045	17.707	892.093	674.642
244.059	17.619	891.955	674.131
245.074	17.685	890.905	673.540
246.088	17.830	890.032	673.391
247.103	17.753	889.796	672.847
248.117	17.956	889.380	673.275
249.132	18.156	889.410	674.025
250.147	18.276	888.582	673.812
251.161	18.298	887.650	673.132
252.176	18.359	887.184	672.961
253.190	18.338	886.781	672.512
254.205	18.219	886.101	671.470
255.220	18.273	885.622	671.257
256.234	18.131	885.529	670.570
257.249	18.149	884.615	669.893
258.263	18.158	883.495	669.018
259.278	18.316	882.808	669.056
260.293	18.367	882.667	669.091
261.307	18.464	881.825	668.770
262.322	18.414	881.273	668.097
263.336	18.285	880.697	667.102
264.351	18.492	879.809	667.174
265.366	18.514	879.310	666.821
266.380	18.410	878.649	665.857
267.395	18.346	878.134	665.160
268.409	18.315	877.290	664.341
269.424	18.393	876.256	663.803
270.439	18.320	875.836	663.141
271.453	18.299	874.683	662.129
272.468	18.258	874.440	661.727
273.482	18.149	873.790	660.758
274.497	18.342	873.143	660.954
275.512	18.302	872.638	660.359
276.526	18.346	872.221	660.153
277.541	18.368	871.568	659.686
278.555	18.527	871.152	659.927
279.570	18.720	870.354	660.006
280.585	18.645	869.792	659.233
281.599	18.490	868.950	657.942
282.614	18.487	868.283	657.367
283.628	18.312	867.846	656.307
284.643	18.439	867.134	656.196
285.657	18.524	866.439	655.935
286.672	18.390	866.248	655.220
287.687	18.568	865.255	655.092
288.701	18.587	864.591	654.604
289.716	18.484	864.148	653.817
290.730	18.551	863.592	653.596
291.745	18.563	863.073	653.190
292.760	18.506	862.537	652.511
293.774	18.730	862.036	652.924
294.789	18.779	861.002	652.270
295.803	18.548	859.993	650.572
296.818	18.539	859.676	650.242
297.833	18.513	858.885	649.488
298.847	18.529	858.608	649.278
299.862	18.630	858.177	649.278
300.876	18.768	857.687	649.371
301.891	18.764	857.162	648.903
302.906	18.785	856.671	648.554
303.920	19.133	855.465	648.893
304.935	19.138	855.154	648.619
305.949	18.903	854.960	647.530
306.964	18.878	854.245	646.838
307.979	18.927	853.585	646.463
308.993	18.784	853.586	645.869
310.008	19.085	852.570	646.175
311.022	18.827	851.964	644.691
312.037	18.917	851.284	644.457
313.052	18.769	850.495	643.248
314.066	18.565	849.831	641.924
315.081	18.668	849.309	641.857
316.095	18.615	849.161	641.492
317.110	18.698	848.263	641.065
318.125	18.503	848.193	640.228
319.139	18.706	847.399	640.329
320.154	18.833	846.754	640.260
321.168	18.691	846.809	639.716
322.183	18.769	846.154	639.453
323.197	18.813	845.623	639.160
324.212	18.795	844.933	638.514
325.227	18.864	843.819	637.874
326.241	18.694	843.776	637.152
327.256	18.693	843.043	636.538
328.270	18.809	842.368	636.402
329.285	18.711	841.982	635.692
330.300	18.855	841.060	635.474
331.314	18.747	841.089	635.039
332.329	18.998	840.463	635.437
333.343	19.015	840.238	635.275
334.358	19.074	839.452	634.841
335.373	19.093	839.450	634.855
336.387	19.031	839.228	634.402
337.402	19.108	839.092	634.524
338.416	19.307	838.605	634.834
339.431	19.316	838.390	634.650
340.446	19.543	837.890	635.049
341.460	19.336	837.573	633.993
342.475	19.476	836.916	633.951
343.489	19.438	836.591	633.512
344.504	19.662	836.005	633.834
345.519	19.675	835.659	633.561
346.533	19.430	835.331	632.360
347.548	19.351	834.593	631.453
348.562	19.226	833.989	630.484
349.577	19.208	832.798	629.464
350.592	19.012	832.356	628.356
351.606	19.091	831.890	628.237
352.621	19.244	830.872	627.970
353.635	19.215	830.538	627.559
354.650	19.206	830.056	627.107
355.665	19.446	828.895	627.044
356.679	19.513	828.261	626.752
357.694	19.336	828.265	626.058
358.708	19.532	827.173	625.888
359.723	19.402	827.003	625.233
360.738	19.443	826.372	624.849
361.752	19.409	825.546	624.048
362.767	19.688	825.282	624.801
363.781	19.607	825.108	624.320
364.796	19.741	824.097	623.985
365.810	19.893	823.921	624.343
366.825	19.958	823.883	624.493
367.840	19.840	823.404	623.652
368.854	19.779	822.741	622.874
369.869	19.645	822.486	622.142
370.883	19.704	821.721	621.719
371.898	19.774	821.538	621.779
372.913	19.931	821.094	621.954
373.927	19.640	820.939	620.734
374.942	19.870	819.959	620.766
375.956	20.030	819.561	620.981
376.971	20.011	819.440	620.766
377.986	20.176	818.751	620.781
379.000	20.104	817.872	619.800
380.015	20.175	817.366	619.617
381.029	20.113	817.001	619.063
382.044	19.930	817.027	618.374
383.059	20.186	815.596	618.148
384.073	20.042	815.145	617.240
385.088	19.771	814.913	616.046
386.102	19.681	814.330	615.228
387.117	19.908	813.404	615.284
388.132	19.906	812.604	614.617
389.146	19.744	812.517	613.921
390.161	20.086	811.764	614.511
391.175	20.110	811.571	614.396
392.190	19.976	810.977	613.417
393.205	19.963	810.580	613.016
394.219	19.843	810.465	612.449
395.234	19.813	809.664	611.684
396.248	19.680	809.099	610.735
397.263	19.847	808.507	610.821
398.278	19.674	808.248	609.961
399.292	19.626	808.129	609.648
400.307	19.672	807.434	609.230
401.321	19.752	807.187	609.274
402.336	19.841	806.971	609.369
403.350	19.848	805.954	608.574
404.365	20.258	805.349	609.503
405.380	20.159	805.475	609.197
406.394	20.307	804.987	609.292
407.409	20.354	804.729	609.207
408.423	20.268	804.384	608.591
409.438	20.495	803.673	608.795
410.453	20.602	803.378	608.894
411.467	20.480	803.227	608.299
412.482	20.559	802.699	608.119
413.496	20.414	802.634	607.511
414.511	20.488	802.264	607.436
415.526	20.371	801.461	606.365
416.540	20.423	800.868	606.045
417.555	20.563	800.204	605.978
418.569	20.541	799.547	605.348
419.584	20.552	799.571	605.350
420.599	20.512	799.241	604.909
421.613	161.537	1372.378	1796.927
422.628	140.194	1455.892	1797.000
