DTS Sentinel unit serial number:	SN413079Multiplexer serial number:	ORYXHardware model number:	OX4-SRSoftware version number:	ORYX F/W v4.00 Oryx Data Collector v3.7.2.0data status	okinstallation	princeton_trtdifferential loss correction	single-endedforward channel	channel 1reverse channel	N/Adate	2019/09/16time	06:06:35forward acquisition time	60.00reverse acquisition time	0.00gamma	496.2192k internal	0.2331k external	0.2331temperature offset calibration	0.9981default loss term (dB/km)	0.3790temperature slope calibration	1.0000multiplexer offset coefficient	1.0000multiplexer slope coefficient	1.0000fibre end	0.00T internal ref (°C)	27.44T ext. ref 1 (°C)	11.27T ext. ref 2 (°C)	21.89length (m)	temperature (°C)	Stokes	anti-Stokes-747.200	-60.186	-0.124	-0.053
-746.185	-10.154	0.179	0.120
-745.171	17.334	0.177	0.141
-744.156	-200.000	-0.052	0.503
-743.142	-60.011	0.367	0.158
-742.127	-0.748	-0.125	-0.089
-741.112	-168.243	-0.240	0.009
-740.098	-200.000	0.252	-0.001
-739.083	-180.365	0.327	-0.007
-738.069	800.000	-0.100	0.280
-737.054	-154.900	-0.264	-0.018
-736.039	330.824	-0.311	-0.602
-735.025	800.000	0.084	0.302
-734.010	800.000	-0.152	-0.499
-732.996	49.388	0.320	-0.303
-731.981	-5.730	-0.152	0.105
-730.966	-139.710	0.143	-0.015
-729.952	-39.146	-0.079	0.042
-728.937	-200.000	-0.005	-0.157
-727.923	-200.000	-0.026	0.327
-726.908	-100.853	-0.157	-0.039
-725.894	-99.179	-0.161	0.041
-724.879	149.652	-0.254	-0.346
-723.864	-200.000	-0.029	0.191
-722.850	252.880	-0.243	0.417
-721.835	573.973	0.027	0.065
-720.821	800.000	0.038	-0.132
-719.806	-135.305	-0.494	-0.059
-718.791	-86.983	-0.218	0.067
-717.777	-189.838	-0.165	0.002
-716.762	-135.953	-0.200	-0.024
-715.748	24.027	-0.289	-0.239
-714.733	-200.000	-0.027	0.200
-713.718	800.000	0.065	-0.185
-712.704	-116.401	-0.378	0.070
-711.689	62.270	0.050	-0.050
-710.675	74.988	0.178	-0.189
-709.660	-200.000	-0.044	0.287
-708.645	106.180	0.101	0.120
-707.631	161.947	-0.133	0.187
-706.616	-90.315	0.232	0.068
-705.602	2.103	-0.186	0.135
-704.587	-200.000	0.010	-0.207
-703.572	-142.292	-0.276	0.027
-702.558	159.659	0.029	-0.041
-701.543	-45.274	-0.099	0.049
-700.529	-200.000	-0.011	-0.146
-699.514	62.592	-0.102	0.102
-698.499	492.933	0.024	0.054
-697.485	-38.769	-0.511	-0.271
-696.470	22.810	-0.190	0.157
-695.456	248.939	-0.112	-0.191
-694.441	-200.000	-0.007	-0.189
-693.426	14.232	0.197	-0.154
-692.412	221.977	0.090	0.145
-691.397	29.845	0.134	-0.114
-690.383	800.000	0.022	-0.071
-689.368	137.528	0.266	-0.350
-688.354	-200.000	-0.011	0.062
-687.339	-83.157	-0.373	0.121
-686.324	407.420	0.067	-0.143
-685.310	800.000	-0.132	-0.396
-684.295	-200.000	0.011	0.242
-683.281	-99.203	-0.093	-0.024
-682.266	-154.486	-0.146	-0.010
-681.251	-54.057	-0.210	-0.096
-680.237	186.678	0.186	-0.278
-679.222	-82.645	0.263	-0.085
-678.208	81.634	0.154	0.167
-677.193	383.856	-0.137	-0.283
-676.178	-200.000	-0.010	-0.544
-675.164	173.986	-0.140	-0.203
-674.149	-149.926	-0.087	0.007
-673.135	-88.109	-0.332	0.100
-672.120	54.489	0.093	0.090
-671.105	-126.593	-0.596	-0.089
-670.091	800.000	-0.033	-0.112
-669.076	-200.000	-0.028	-0.193
-668.062	730.680	-0.190	-0.508
-667.047	645.240	-0.136	0.348
-666.032	-115.305	0.072	0.014
-665.018	-94.080	0.016	-0.005
-664.003	316.385	0.025	-0.047
-662.989	611.424	-0.108	-0.272
-661.974	-200.000	-0.009	0.105
-660.959	128.779	0.116	0.148
-659.945	-68.413	-0.146	0.057
-658.930	-152.883	-0.248	0.018
-657.916	-200.000	0.039	-0.179
-656.901	-126.700	-0.187	0.028
-655.886	67.761	-0.403	-0.413
-654.872	148.612	-0.097	0.132
-653.857	-33.416	-0.133	0.074
-652.843	-65.981	-0.145	0.058
-651.828	85.570	-0.248	0.273
-650.814	26.541	-0.118	-0.099
-649.799	229.947	-0.052	0.086
-648.784	800.000	-0.136	-0.438
-647.770	-105.054	0.183	0.042
-646.755	800.000	-0.006	-0.019
-645.741	-76.418	0.312	-0.110
-644.726	-200.000	0.011	0.268
-643.711	63.442	-0.168	-0.169
-642.697	42.844	-0.312	-0.285
-641.682	259.255	0.022	0.039
-640.668	190.216	0.153	-0.231
-639.653	98.861	0.145	0.168
-638.638	-36.976	0.345	0.185
-637.624	800.000	0.029	0.114
-636.609	-200.000	-0.039	0.303
-635.595	-145.489	0.097	0.009
-634.580	201.290	-0.183	0.282
-633.565	403.913	0.094	-0.197
-632.551	800.000	-0.094	0.266
-631.536	-39.023	-0.113	-0.060
-630.522	-148.149	0.341	-0.028
-629.507	800.000	-0.070	-0.289
-628.492	537.977	0.041	0.097
-627.478	-23.205	-0.423	-0.255
-626.463	800.000	-0.124	-0.400
-625.449	192.967	-0.152	-0.229
-624.434	-200.000	0.029	0.253
-623.419	747.273	-0.038	0.101
-622.405	-200.000	0.009	0.085
-621.390	103.641	0.054	0.063
-620.376	25.695	0.086	0.071
-619.361	-200.000	0.043	-0.386
-618.346	-200.000	-0.006	0.090
-617.332	62.626	0.187	0.187
-616.317	275.287	-0.148	0.263
-615.303	90.614	0.238	-0.267
-614.288	457.176	0.150	-0.333
-613.273	94.935	-0.165	0.188
-612.259	516.827	-0.048	0.113
-611.244	21.603	-0.375	-0.305
-610.230	-113.657	-0.081	0.016
-609.215	318.722	-0.144	-0.274
-608.201	129.409	-0.073	-0.093
-607.186	-200.000	-0.009	-0.302
-606.171	-109.138	0.183	-0.039
-605.157	-70.432	-0.335	-0.127
-604.142	800.000	0.048	-0.211
-603.128	800.000	0.037	-0.135
-602.113	-200.000	0.029	0.227
-601.098	-43.536	0.217	0.110
-600.084	-121.533	0.333	-0.055
-599.069	-200.000	0.002	0.498
-598.055	87.441	-0.058	0.064
-597.040	-200.000	-0.055	0.392
-596.025	71.914	-0.173	-0.180
-595.011	-6.947	-0.408	-0.277
-593.996	-200.000	0.025	0.346
-592.982	631.589	-0.007	-0.018
-591.967	347.733	-0.057	0.111
-590.952	-184.526	-0.163	0.003
-589.938	-29.358	-0.204	0.117
-588.923	-200.000	-0.037	-0.518
-587.909	-200.000	0.028	0.146
-586.894	-74.372	0.291	0.105
-585.879	-165.479	0.113	-0.005
-584.865	-102.276	-0.160	0.038
-583.850	-31.726	0.172	0.097
-582.836	-158.167	-0.104	0.006
-581.821	-200.000	0.014	0.086
-580.806	283.423	0.052	-0.094
-579.792	800.000	-0.119	-0.341
-578.777	-200.000	-0.010	-0.129
-577.763	37.538	0.114	0.101
-576.748	-200.000	0.005	0.245
-575.733	-142.186	-0.151	0.015
-574.719	-93.885	-0.508	-0.140
-573.704	-59.292	-0.143	0.062
-572.690	-83.575	0.240	-0.077
-571.675	136.144	-0.054	0.071
-570.661	-105.672	-0.213	-0.048
-569.646	-12.783	-0.182	-0.119
-568.631	-200.000	-0.028	-0.178
-567.617	137.409	0.025	-0.033
-566.602	-200.000	0.030	-0.156
-565.588	-200.000	-0.001	-0.125
-564.573	275.492	-0.110	-0.196
-563.558	-48.444	-0.060	-0.029
-562.544	580.842	-0.141	0.345
-561.529	-62.018	-0.063	-0.026
-560.515	-91.850	0.365	-0.104
-559.500	75.873	0.150	-0.158
-558.485	-164.997	0.146	0.007
-557.471	47.468	-0.137	-0.128
-556.456	-200.000	0.084	0.374
-555.442	-200.000	0.026	-0.187
-554.427	-4.843	0.208	-0.143
-553.412	359.561	0.169	-0.337
-552.398	-163.475	0.413	0.020
-551.383	800.000	-0.029	0.103
-550.369	635.862	-0.134	0.341
-549.354	-200.000	-0.021	0.206
-548.339	800.000	-0.088	0.254
-547.325	800.000	0.003	0.009
-546.310	800.000	0.025	-0.078
-545.296	53.593	0.103	-0.099
-544.281	-111.265	0.057	0.012
-543.266	-40.462	-0.110	0.057
-542.252	-134.318	0.193	-0.024
-541.237	-200.000	-0.004	0.250
-540.223	71.243	-0.152	-0.157
-539.208	800.000	-0.057	-0.195
-538.193	-200.000	0.020	-0.205
-537.179	472.423	0.046	-0.103
-536.164	800.000	0.050	0.186
-535.150	42.420	0.201	-0.183
-534.135	-200.000	0.007	0.159
-533.121	103.464	-0.079	-0.092
-532.106	-61.712	-0.161	0.067
-531.091	47.040	-0.053	-0.049
-530.077	430.804	-0.059	0.127
-529.062	-112.723	-0.184	-0.037
-528.048	-96.848	-0.297	0.078
-527.033	-115.130	-0.285	0.054
-526.018	-60.954	0.164	-0.069
-525.004	-81.762	-0.334	0.109
-523.989	-114.785	0.254	0.048
-522.975	-200.000	0.027	0.258
-521.960	-44.478	0.191	-0.095
-520.945	-200.000	0.012	-0.109
-519.931	800.000	0.047	-0.184
-518.916	221.157	-0.185	-0.297
-517.902	79.631	0.192	-0.206
-516.887	-8.236	-0.185	0.124
-515.872	-48.264	0.158	-0.076
-514.858	-90.482	0.179	0.052
-513.843	-154.524	0.018	-0.001
-512.829	-176.807	0.137	-0.003
-511.814	604.306	0.183	-0.453
-510.799	-153.390	0.010	0.001
-509.785	800.000	-0.062	0.243
-508.770	299.197	0.079	-0.145
-507.756	-29.845	0.256	0.146
-506.741	800.000	-0.068	-0.196
-505.726	-65.098	0.069	0.028
-504.712	-107.512	0.464	-0.101
-503.697	259.994	0.184	-0.317
-502.683	-60.099	-0.120	0.051
-501.668	-13.887	0.165	0.106
-500.653	-112.229	0.280	-0.056
-499.639	-172.462	-0.118	-0.004
-498.624	-124.624	-0.055	-0.009
-497.610	-151.626	-0.129	-0.010
-496.595	-4.887	0.221	0.152
-495.581	-185.099	0.192	-0.003
-494.566	355.218	-0.111	0.220
-493.551	127.838	0.069	0.087
-492.537	133.756	-0.169	0.218
-491.522	444.554	0.130	-0.283
-490.508	-126.903	-0.119	0.017
-489.493	-200.000	0.010	-0.244
-488.478	760.244	0.087	-0.236
-487.464	421.331	0.117	-0.251
-486.449	-106.224	-0.331	0.074
-485.435	96.714	0.194	-0.222
-484.420	460.765	-0.054	-0.121
-483.405	-53.997	0.256	0.116
-482.391	-200.000	0.022	0.262
-481.376	-72.599	-0.510	0.188
-480.362	-39.863	-0.157	-0.082
-479.347	-52.397	0.259	-0.120
-478.332	353.902	-0.063	-0.124
-477.318	800.000	0.017	0.073
-476.303	615.867	0.085	0.213
-475.289	-36.763	-0.270	-0.144
-474.274	-43.047	-0.156	0.079
-473.259	183.892	-0.158	-0.233
-472.245	349.408	0.128	0.251
-471.230	-154.740	0.207	-0.014
-470.216	-143.200	0.227	-0.022
-469.201	-147.291	-0.205	0.017
-468.186	800.000	-0.021	-0.082
-467.172	-45.805	0.079	0.039
-466.157	-154.179	0.417	-0.028
-465.143	223.709	0.067	-0.108
-464.128	-66.320	0.195	-0.077
-463.113	15.924	0.137	-0.107
-462.099	105.029	0.036	0.042
-461.084	387.548	0.144	-0.296
-460.070	-200.000	0.013	0.192
-459.055	-19.264	0.136	0.084
-458.040	800.000	0.058	-0.171
-457.026	-101.978	-0.179	0.043
-456.011	-200.000	0.000	0.187
-454.997	-200.000	-0.036	0.224
-453.982	800.000	-0.049	0.214
-452.968	211.889	0.055	-0.086
-451.953	36.551	0.222	0.195
-450.938	-200.000	-0.022	-0.151
-449.924	-200.000	-0.008	-0.238
-448.909	800.000	0.026	-0.074
-447.895	-200.000	-0.024	-0.122
-446.880	-132.284	0.147	0.019
-445.865	-50.312	-0.299	-0.141
-444.851	-88.211	0.190	-0.057
-443.836	139.594	0.162	-0.213
-442.822	-61.426	0.440	0.184
-441.807	-71.893	-0.219	-0.081
-440.792	-27.430	-0.126	-0.073
-439.778	-200.000	-0.033	-0.468
-438.763	26.858	-0.200	0.166
-437.749	-146.372	0.254	0.022
-436.734	706.382	0.047	0.122
-435.719	-105.877	0.208	-0.047
-434.705	112.287	-0.320	-0.385
-433.690	-1.562	-0.047	-0.033
-432.676	145.040	-0.147	0.195
-431.661	279.646	-0.073	0.130
-430.646	-200.000	0.014	-0.073
-429.632	800.000	0.042	-0.137
-428.617	308.432	0.226	0.419
-427.603	66.308	0.203	0.205
-426.588	68.853	-0.068	-0.070
-425.573	-143.366	-0.210	0.020
-424.559	-93.825	-0.233	-0.064
-423.544	-200.000	0.038	-0.553
-422.530	218.087	-0.072	0.113
-421.515	-76.644	-0.066	-0.023
-420.500	-200.000	-0.044	0.450
-419.486	-200.000	-0.345	-0.002
-418.471	40.947	-0.223	0.200
-417.457	61.847	0.191	-0.189
-416.442	-79.481	-0.077	0.026
-415.428	-35.558	0.240	0.129
-414.413	-10.554	0.092	0.061
-413.398	-200.000	-0.018	0.109
-412.384	298.202	-0.179	0.327
-411.369	-28.780	0.165	0.095
-410.355	102.563	-0.288	-0.335
-409.340	146.243	-0.074	-0.098
-408.325	-6.012	0.266	-0.181
-407.311	-200.000	-0.007	0.189
-406.296	740.128	0.150	0.399
-405.282	73.561	0.100	-0.104
-404.267	-70.229	-0.201	0.076
-403.252	-70.780	-0.325	0.122
-402.238	-200.000	-0.009	0.056
-401.223	-89.679	0.082	-0.024
-400.209	-91.142	0.164	0.047
-399.194	89.859	0.082	-0.091
-398.179	-200.000	-0.019	0.119
-397.165	-103.748	-0.126	-0.029
-396.150	11.432	-0.167	-0.127
-395.136	76.250	0.302	0.317
-394.121	-70.821	0.151	0.056
-393.106	-65.748	-0.133	-0.053
-392.092	507.981	0.047	0.108
-391.077	-200.000	0.005	-0.080
-390.063	800.000	-0.020	-0.080
-389.048	-73.393	0.200	-0.073
-388.033	-88.631	0.201	-0.059
-387.019	-49.886	-0.358	-0.169
-386.004	-78.702	0.187	0.064
-384.990	-200.000	-0.031	0.348
-383.975	393.960	-0.082	-0.170
-382.960	60.736	-0.147	0.145
-381.946	406.684	0.207	0.433
-380.931	28.028	0.112	0.093
-379.917	0.785	0.242	0.172
-378.902	800.000	0.042	0.148
-377.888	-152.334	-0.166	-0.012
-376.873	245.904	0.247	-0.413
-375.858	606.477	0.149	0.368
-374.844	-200.000	0.034	0.174
-373.829	-200.000	-0.001	-0.138
-372.815	175.057	-0.213	-0.306
-371.800	358.601	0.094	-0.186
-370.785	-118.449	0.094	-0.017
-369.771	-200.000	-0.096	0.423
-368.756	512.257	-0.059	-0.137
-367.742	800.000	-0.052	0.166
-366.727	-200.000	-0.030	0.155
-365.712	-149.945	0.449	-0.035
-364.698	-200.000	0.044	0.281
-363.683	-94.668	-0.241	0.065
-362.669	348.939	0.093	-0.183
-361.654	-48.363	-0.107	0.051
-360.639	259.296	0.142	0.243
-359.625	-133.771	0.190	-0.023
-358.610	-8.918	0.111	-0.074
-357.596	22.510	-0.173	0.140
-356.581	-88.248	0.165	-0.049
-355.566	800.000	-0.059	-0.221
-354.552	-107.986	-0.156	0.034
-353.537	-68.000	-0.260	-0.100
-352.523	36.527	-0.192	0.168
-351.508	-72.344	0.236	0.087
-350.493	-19.635	0.181	0.111
-349.479	86.563	-0.203	0.222
-348.464	-58.308	-0.239	0.103
-347.450	-200.000	0.022	-0.139
-346.435	424.849	0.094	-0.200
-345.420	-172.168	-0.097	0.003
-344.406	-147.696	0.290	0.024
-343.391	45.738	0.167	0.153
-342.377	800.000	0.091	-0.286
-341.362	286.755	-0.123	-0.221
-340.348	800.000	0.077	-0.283
-339.333	-14.606	0.080	-0.051
-338.318	-200.000	0.001	0.105
-337.304	-40.105	-0.141	-0.073
-336.289	-168.940	-0.151	0.006
-335.275	122.060	-0.030	0.037
-334.260	-109.646	0.069	0.014
-333.245	-105.343	0.049	0.011
-332.231	70.126	0.148	0.151
-331.216	-57.651	0.138	-0.060
-330.202	234.184	-0.170	-0.277
-329.187	-47.152	-0.118	-0.057
-328.172	-108.876	-0.357	0.076
-327.158	-200.000	-0.001	0.023
-326.143	-57.288	-0.074	0.032
-325.129	534.710	0.098	0.230
-324.114	800.000	0.019	-0.062
-323.099	155.084	0.110	-0.150
-322.085	-200.000	0.020	-0.182
-321.070	-154.945	0.225	0.015
-320.056	800.000	-0.042	-0.133
-319.041	-59.902	-0.149	0.063
-318.026	-142.622	-0.257	0.025
-317.012	-113.202	-0.447	0.087
-315.997	95.655	0.124	-0.140
-314.983	70.883	-0.055	0.056
-313.968	-200.000	0.015	-0.145
-312.953	6.326	0.312	-0.229
-311.939	382.897	-0.215	0.437
-310.924	-127.770	-0.311	0.044
-309.910	-123.900	-0.527	0.082
-308.895	800.000	-0.086	-0.287
-307.880	-171.234	-0.159	0.005
-306.866	426.346	-0.093	0.199
-305.851	23.557	0.156	0.127
-304.837	-170.844	0.266	0.009
-303.822	-200.000	0.315	0.000
-302.807	800.000	0.075	-0.303
-301.793	129.672	0.089	-0.113
-300.778	-200.000	-0.014	-0.248
-299.764	-26.027	0.250	-0.145
-298.749	-113.539	-0.217	0.042
-297.735	110.574	0.101	-0.120
-296.720	-104.073	0.192	-0.044
-295.705	-200.000	0.028	-0.196
-294.691	54.269	-0.165	-0.157
-293.676	621.705	0.105	0.261
-292.662	20.824	-0.239	-0.191
-291.647	-151.521	-0.204	0.015
-290.632	-200.000	-0.029	-0.421
-289.618	643.976	0.044	0.111
-288.603	-40.966	0.122	0.062
-287.589	95.860	0.218	0.246
-286.574	-200.000	-0.013	-0.129
-285.559	31.575	0.201	0.171
-284.545	800.000	-0.090	-0.321
-283.530	669.060	0.036	0.092
-282.516	73.387	-0.273	-0.283
-281.501	-78.539	0.340	-0.115
-280.486	52.254	-0.028	0.026
-279.472	-200.000	-0.038	0.234
-278.457	-142.397	-0.231	-0.022
-277.443	-200.000	-0.003	-0.104
-276.428	-200.000	-0.032	0.230
-275.413	-200.000	-0.004	0.308
-274.399	-87.928	0.040	-0.012
-273.384	-200.000	-0.002	-0.034
-272.370	24.817	0.283	0.232
-271.355	333.939	-0.104	0.199
-270.340	-107.072	-0.406	0.089
-269.326	800.000	-0.035	0.141
-268.311	159.452	-0.178	-0.245
-267.297	800.000	-0.093	-0.268
-266.282	-200.000	-0.003	-0.215
-265.267	-200.000	0.059	0.299
-264.253	-66.914	-0.093	-0.036
-263.238	-200.000	0.000	-0.081
-262.224	-200.000	0.011	0.238
-261.209	-51.959	-0.355	0.163
-260.195	646.510	0.099	0.251
-259.180	-149.734	0.150	0.012
-258.165	-58.580	-0.370	0.159
-257.151	19.617	0.138	0.110
-256.136	-97.650	0.018	0.005
-255.122	314.383	-0.110	-0.204
-254.107	63.765	0.139	0.138
-253.092	130.008	-0.159	0.201
-252.078	112.175	-0.086	-0.103
-251.063	-200.000	-0.037	-0.214
-250.049	-200.000	-0.027	0.183
-249.034	144.340	-0.246	0.324
-248.019	161.397	0.199	0.275
-247.005	-200.000	-0.025	0.283
-245.990	-126.545	0.100	0.015
-244.976	347.022	-0.071	-0.138
-243.961	58.584	0.218	0.212
-242.946	210.314	0.102	-0.158
-241.932	-87.427	-0.059	-0.018
-240.917	-200.000	0.053	-0.343
-239.903	43.675	-0.206	0.186
-238.888	-200.000	0.009	0.126
-237.873	800.000	0.005	0.019
-236.859	159.264	-0.132	-0.181
-235.844	-126.429	0.118	0.017
-234.830	319.827	-0.165	-0.310
-233.815	446.345	-0.052	0.114
-232.800	-117.907	-0.173	-0.031
-231.786	-101.154	0.269	0.065
-230.771	800.000	-0.102	-0.289
-229.757	189.866	0.044	-0.065
-228.742	111.062	0.218	0.258
-227.727	62.329	0.093	0.091
-226.713	-71.568	-0.323	-0.119
-225.698	-200.000	-0.047	0.219
-224.684	-2.416	0.116	-0.080
-223.669	800.000	-0.087	0.334
-222.655	-200.000	-0.014	0.291
-221.640	107.997	-0.044	-0.052
-220.625	-200.000	0.011	-0.344
-219.611	117.935	-0.076	-0.093
-218.596	10.922	-0.051	0.038
-217.582	-200.000	-0.035	-0.158
-216.567	-6.932	-0.223	-0.150
-215.552	34.705	0.305	0.263
-214.538	800.000	0.063	-0.186
-213.523	-144.654	-0.294	0.027
-212.509	-200.000	0.017	0.297
-211.494	-141.901	-0.230	0.023
-210.479	214.844	0.091	0.142
-209.465	-200.000	-0.065	0.291
-208.450	70.977	0.113	-0.115
-207.436	-147.484	0.217	0.018
-206.421	-120.376	0.308	0.052
-205.406	-120.473	-0.241	-0.040
-204.392	-38.033	0.134	0.070
-203.377	200.291	0.163	0.247
-202.363	-200.000	-0.009	0.100
-201.348	-50.039	0.224	0.105
-200.333	9.140	0.142	-0.105
-199.319	-7.365	-0.085	-0.057
-198.304	-200.000	0.026	0.251
-197.290	-200.000	0.040	0.394
-196.275	-87.720	-0.154	0.046
-195.260	165.296	-0.192	0.267
-194.246	174.827	-0.255	-0.363
-193.231	-32.521	0.342	0.188
-192.217	800.000	-0.055	-0.172
-191.202	-98.900	0.342	0.086
-190.187	800.000	-0.042	-0.121
-189.173	800.000	-0.060	0.178
-188.158	104.100	0.043	0.049
-187.144	161.215	-0.136	0.187
-186.129	-200.000	0.014	0.405
-185.114	-200.000	-0.005	0.214
-184.100	-200.000	0.006	-0.075
-183.085	305.490	-0.013	0.025
-182.071	-47.735	-0.254	0.121
-181.056	-191.616	0.139	-0.001
-180.042	-70.230	-0.055	0.021
-179.027	224.250	-0.164	-0.261
-178.012	-87.886	0.127	-0.038
-176.998	-200.000	-0.041	-0.201
-175.983	1.994	-0.300	-0.213
-174.969	704.268	0.069	-0.179
-173.954	67.490	0.033	-0.033
-172.939	-147.756	0.117	-0.010
-171.925	-200.000	0.044	-0.302
-170.910	-8.298	0.104	0.069
-169.896	-200.000	0.056	0.249
-168.881	213.171	-0.225	0.350
-167.866	800.000	0.056	-0.224
-166.852	57.425	-0.131	-0.126
-165.837	800.000	-0.035	0.113
-164.823	16.067	-0.174	0.135
-163.808	800.000	0.069	0.221
-162.793	-30.983	0.144	-0.080
-161.779	-131.931	-0.266	0.034
-160.764	-200.000	-0.003	-0.085
-159.750	-200.000	-0.001	0.087
-158.735	-135.240	-0.177	0.021
-157.720	336.553	0.048	0.091
-156.706	800.000	-0.101	-0.368
-155.691	-175.132	0.307	-0.008
-154.677	-200.000	-0.070	-0.331
-153.662	15.609	0.059	-0.046
-152.647	800.000	0.151	-0.447
-151.633	-153.658	0.299	0.020
-150.618	-200.000	0.040	0.218
-149.604	-200.000	-0.005	-0.041
-148.589	-74.993	0.024	0.008
-147.574	414.966	0.039	-0.082
-146.560	-200.000	-0.023	-0.186
-145.545	210.514	-0.210	-0.325
-144.531	800.000	-0.037	-0.153
-143.516	-200.000	0.026	0.226
-142.502	-50.148	-0.150	0.070
-141.487	-200.000	-0.032	0.403
-140.472	-68.167	0.089	-0.034
-139.458	-39.902	0.256	-0.131
-138.443	-87.402	-0.304	0.091
-137.429	-71.630	0.187	-0.069
-136.414	223.686	-0.139	-0.220
-135.399	224.620	-0.208	-0.330
-134.385	-150.460	-0.159	0.012
-133.370	-200.000	-0.030	0.146
-132.356	-96.138	0.136	-0.036
-131.341	137.051	-0.129	0.166
-130.326	490.361	0.091	0.205
-129.312	-168.923	-0.168	0.006
-128.297	-86.026	0.136	0.041
-127.283	17.086	0.155	0.121
-126.268	-64.588	-0.280	0.112
-125.253	-37.488	-0.333	0.175
-124.239	109.663	-0.108	-0.128
-123.224	112.243	0.169	-0.201
-122.210	-36.042	-0.343	-0.182
-121.195	-46.017	0.226	0.109
-120.180	-200.000	0.022	-0.140
-119.166	350.714	0.068	-0.132
-118.151	-200.000	-0.008	0.261
-117.137	793.828	-0.091	0.247
-116.122	216.199	0.118	-0.185
-115.107	800.000	0.027	0.095
-114.093	396.962	-0.033	0.068
-113.078	26.888	0.188	0.155
-112.064	112.830	-0.147	0.174
-111.049	118.098	0.139	-0.168
-110.034	12.963	0.143	0.109
-109.020	-200.000	0.004	-0.203
-108.005	179.741	0.104	0.149
-106.991	-166.217	0.269	-0.011
-105.976	-151.728	0.154	-0.011
-104.962	-200.000	-0.016	-0.235
-103.947	-99.367	0.103	0.025
-102.932	73.585	-0.285	0.293
-101.918	-200.000	0.045	0.404
-100.903	-200.000	0.005	0.097
-99.889	-86.618	0.045	0.014
-98.874	-72.973	0.211	0.076
-97.859	622.114	0.024	-0.060
-96.845	14.143	-0.268	-0.204
-95.830	-127.469	0.111	-0.016
-94.816	93.822	-0.157	0.175
-93.801	200.616	-0.051	0.077
-92.786	516.410	-0.062	-0.143
-91.772	-60.063	0.218	-0.091
-90.757	800.000	0.042	-0.140
-89.743	115.056	-0.150	0.179
-88.728	269.269	-0.057	0.097
-87.713	126.970	0.103	0.128
-86.699	243.077	-0.183	-0.301
-85.684	191.764	-0.186	-0.275
-84.670	8.027	0.148	-0.109
-83.655	-21.068	-0.156	0.093
-82.640	-118.797	-0.205	0.035
-81.626	-78.462	-0.357	0.120
-80.611	215.510	-0.226	-0.352
-79.597	-200.000	-0.081	0.488
-78.582	10.744	0.108	0.081
-77.567	-200.000	-0.006	0.253
-76.553	79.282	-0.151	0.159
-75.538	-70.809	0.407	0.150
-74.524	800.000	-0.110	-0.319
-73.509	56.573	0.187	-0.179
-72.494	33.755	0.132	0.112
-71.480	-103.395	-0.314	0.073
-70.465	-10.035	-0.143	0.093
-69.451	11.277	0.185	0.139
-68.436	58.772	-0.113	0.109
-67.422	-137.068	-0.161	0.018
-66.407	-16.923	0.158	0.098
-65.392	33.967	0.326	-0.278
-64.378	14.883	0.260	0.199
-63.363	-2.005	-0.345	-0.237
-62.349	-200.000	0.054	0.278
-61.334	139.644	-0.863	-1.114
-60.319	199.928	0.505	0.760
-59.305	800.000	-0.334	-0.951
-58.290	299.051	0.644	1.161
-57.276	800.000	0.593	1.622
-56.261	-200.000	113.809	643.487
-55.246	465.985	1509.345	3311.188
-54.232	146.692	2676.742	3524.092
-53.217	103.709	2158.069	2482.812
-52.203	38.898	1604.917	1404.571
-51.188	30.697	1350.460	1132.180
-50.173	27.776	1312.757	1083.218
-49.159	55.663	1368.311	1298.482
-48.144	54.324	1382.604	1303.928
-47.130	31.046	1338.460	1124.048
-46.115	27.658	1320.179	1088.468
-45.100	27.349	1315.996	1083.139
-44.086	27.259	1313.394	1080.415
-43.071	27.306	1310.932	1078.627
-42.057	27.343	1308.654	1076.930
-41.042	27.332	1307.129	1075.567
-40.027	27.319	1305.872	1074.415
-39.013	27.369	1303.609	1072.803
-37.998	27.278	1301.863	1070.786
-36.984	27.488	1299.779	1070.267
-35.969	27.452	1298.288	1068.783
-34.954	27.489	1296.793	1067.729
-33.940	27.414	1295.266	1065.990
-32.925	27.481	1293.941	1065.251
-31.911	27.519	1292.537	1064.275
-30.896	27.555	1291.045	1063.214
-29.881	27.442	1289.921	1061.588
-28.867	27.521	1288.226	1060.607
-27.852	27.466	1286.857	1059.121
-26.838	27.535	1285.578	1058.429
-25.823	27.439	1283.873	1056.421
-24.809	27.551	1282.983	1056.297
-23.794	27.546	1281.841	1055.290
-22.779	27.489	1280.147	1053.523
-21.765	27.566	1278.687	1052.726
-20.750	27.450	1277.682	1051.187
-19.736	27.474	1276.225	1050.085
-18.721	27.482	1275.315	1049.335
-17.706	27.377	1274.234	1047.802
-16.692	27.505	1272.482	1047.055
-15.677	27.523	1271.471	1046.286
-14.663	27.387	1271.063	1045.129
-13.648	27.389	1269.366	1043.700
-12.633	27.394	1268.526	1042.999
-11.619	27.384	1267.918	1042.401
-10.604	27.391	1267.145	1041.761
-9.590	27.404	1265.684	1040.593
-8.575	27.391	1264.730	1039.693
-7.560	27.287	1264.735	1039.062
-6.546	27.291	1263.105	1037.709
-5.531	27.362	1262.101	1037.248
-4.517	27.359	1261.568	1036.749
-3.502	27.461	1260.483	1036.397
-2.487	27.369	1259.977	1035.418
-1.473	27.362	1255.548	1031.695
-0.458	26.005	1240.126	1011.380
0.556	21.129	1224.046	974.482
1.571	17.539	1230.739	959.535
2.586	16.843	1245.614	967.074
3.600	16.942	1234.981	959.297
4.615	15.619	1168.630	900.588
5.629	12.814	1102.457	835.317
6.644	11.431	1085.492	815.488
7.659	11.236	1083.552	812.982
8.673	11.222	1082.411	811.987
9.688	11.191	1081.138	810.806
10.702	11.419	1078.595	809.958
11.717	13.119	1079.873	819.284
12.731	15.923	1083.819	836.147
13.746	17.590	1085.916	845.978
14.761	17.673	1085.051	845.639
15.775	16.659	1083.739	839.517
16.790	15.563	1081.102	831.972
17.804	14.676	1080.145	826.772
18.819	14.387	1078.182	823.768
19.834	14.314	1077.075	822.490
20.848	13.995	1076.056	820.065
21.863	13.727	1075.214	818.031
22.877	13.559	1075.398	817.271
23.892	13.566	1074.033	816.191
24.907	13.586	1073.175	815.566
25.921	13.597	1072.052	814.694
26.936	13.570	1071.246	813.879
27.950	13.788	1069.493	813.542
28.965	13.734	1067.828	811.943
29.980	13.775	1066.408	810.989
30.994	13.744	1065.623	810.171
32.009	13.788	1064.321	809.322
33.023	13.768	1063.576	808.585
34.038	13.859	1062.255	807.952
35.053	13.665	1062.042	806.776
36.067	13.683	1060.967	805.974
37.082	13.588	1060.039	804.738
38.096	13.864	1058.774	805.043
39.111	13.805	1058.187	804.244
40.126	13.671	1057.117	802.708
41.140	13.519	1055.920	800.992
42.155	13.586	1054.346	800.054
43.169	13.489	1053.650	798.986
44.184	13.535	1052.670	798.396
45.199	13.396	1051.589	796.834
46.213	13.515	1050.577	796.570
47.228	13.654	1049.427	796.296
48.242	13.616	1048.830	795.589
49.257	13.711	1047.331	794.835
50.271	13.697	1046.602	794.145
51.286	13.716	1045.329	793.200
52.301	13.579	1045.136	792.327
53.315	13.711	1043.106	791.349
54.330	13.527	1043.027	790.340
55.344	13.553	1042.146	789.728
56.359	13.658	1040.892	789.210
57.374	13.520	1039.875	787.709
58.388	13.486	1038.932	786.765
59.403	13.686	1037.861	786.834
60.417	13.568	1037.698	786.081
61.432	13.392	1036.751	784.460
62.447	13.458	1036.051	784.174
63.461	13.452	1034.930	783.228
64.476	13.403	1033.908	782.155
65.490	13.458	1033.499	782.035
66.505	13.550	1032.446	781.602
67.520	13.439	1031.861	780.565
68.534	13.540	1031.379	780.609
69.549	13.464	1030.718	779.682
70.563	13.472	1029.497	778.725
71.578	13.420	1028.671	777.787
72.593	13.235	1028.504	776.722
73.607	13.392	1027.589	776.702
74.622	13.459	1026.766	776.324
75.636	13.466	1025.744	775.516
76.651	13.345	1025.701	774.847
77.666	13.443	1024.799	774.559
78.680	13.314	1024.368	773.560
79.695	13.402	1023.529	773.268
80.709	13.544	1022.552	773.124
81.724	13.542	1021.994	772.623
82.739	13.644	1021.281	772.494
83.753	13.791	1020.403	772.444
84.768	13.669	1019.753	771.318
85.782	13.744	1019.174	771.159
86.797	13.908	1017.646	770.696
87.812	13.661	1016.725	768.787
88.826	13.743	1015.658	768.289
89.841	13.760	1015.210	767.962
90.855	13.719	1014.337	767.045
91.870	13.684	1013.530	766.206
92.884	13.736	1012.596	765.669
93.899	13.694	1011.971	764.939
94.914	13.903	1010.984	765.086
95.928	13.783	1010.187	763.861
96.943	13.715	1009.398	762.884
97.957	13.747	1008.143	762.018
98.972	13.892	1007.424	762.070
99.987	13.815	1006.374	760.857
101.001	13.767	1005.654	760.026
102.016	13.645	1004.827	758.777
103.030	13.768	1003.845	758.529
104.045	13.684	1003.518	757.832
105.060	13.790	1002.468	757.455
106.074	13.653	1001.356	755.920
107.089	13.568	1000.258	754.638
108.103	13.513	999.157	753.491
109.118	13.583	998.523	753.267
110.133	13.446	997.798	752.030
111.147	13.560	996.505	751.505
112.162	13.681	995.471	751.206
113.176	13.712	994.655	750.665
114.191	13.664	994.302	750.113
115.206	13.670	993.724	749.639
116.220	13.558	992.659	748.262
117.235	13.535	992.125	747.690
118.249	13.689	990.516	747.109
119.264	13.672	989.898	746.499
120.279	13.648	988.810	745.503
121.293	13.479	988.700	744.597
122.308	13.589	987.461	744.090
123.322	13.591	986.160	743.052
124.337	13.560	985.211	742.133
125.352	13.485	984.363	741.092
126.366	13.694	983.015	740.945
127.381	13.598	982.072	739.742
128.395	13.616	981.056	738.990
129.410	13.605	980.587	738.525
130.424	13.697	979.489	738.043
131.439	13.637	979.391	737.637
132.454	13.678	977.850	736.591
133.468	13.860	976.903	736.619
134.483	13.778	976.217	735.672
135.497	13.660	975.641	734.651
136.512	13.664	974.586	733.812
137.527	13.673	974.457	733.690
138.541	13.640	973.365	732.653
139.556	13.775	972.715	732.699
140.570	13.866	971.680	732.253
141.585	13.933	970.516	731.607
142.600	13.877	970.217	731.070
143.614	13.885	969.467	730.476
144.629	13.767	968.669	729.291
145.643	13.864	967.589	728.838
146.658	13.826	966.418	727.726
147.673	13.800	965.658	726.976
148.687	13.791	964.998	726.377
149.702	13.791	963.982	725.546
150.716	13.783	963.149	724.820
151.731	13.755	962.222	723.934
152.746	13.829	961.374	723.556
153.760	13.911	960.836	723.444
154.775	14.015	960.152	723.319
155.789	13.971	959.785	722.789
156.804	13.969	959.212	722.285
157.819	13.920	958.252	721.281
158.833	14.107	957.722	721.632
159.848	14.032	957.105	720.780
160.862	14.103	955.761	720.009
161.877	13.962	954.916	718.700
162.892	14.010	953.736	717.954
163.906	13.856	953.298	716.896
164.921	13.853	952.391	716.139
165.935	13.976	951.395	715.856
166.950	13.913	950.995	715.219
167.964	13.924	949.660	714.201
168.979	13.932	948.938	713.630
169.994	13.904	947.896	712.660
171.008	14.006	946.909	712.296
172.023	14.062	946.338	712.042
173.037	14.077	945.480	711.398
174.052	14.091	945.178	711.168
175.067	14.007	944.322	710.099
176.081	13.923	943.831	709.310
177.096	13.962	943.001	708.789
178.110	14.032	942.414	708.583
179.125	14.017	941.735	707.946
180.140	14.108	941.186	707.861
181.154	14.060	941.199	707.604
182.169	14.090	940.723	707.310
183.183	14.223	939.507	706.898
184.198	14.289	938.780	706.569
185.213	14.252	937.964	705.735
186.227	14.217	937.618	705.264
187.242	14.333	937.112	705.313
188.256	14.413	936.532	705.151
189.271	14.309	935.597	703.947
190.286	14.232	934.489	702.725
191.300	13.930	934.195	701.165
192.315	14.073	933.065	700.859
193.329	13.976	933.195	700.484
194.344	14.100	932.778	700.632
195.359	14.196	931.728	700.185
196.373	14.327	930.911	700.061
197.388	14.179	931.056	699.484
198.402	14.359	930.517	699.773
199.417	14.374	929.690	699.153
200.432	14.555	928.859	699.226
201.446	14.537	928.583	698.880
202.461	14.454	928.231	698.206
203.475	14.541	927.322	697.825
204.490	14.601	926.358	697.287
205.504	14.536	925.670	696.437
206.519	14.443	925.038	695.514
207.534	14.463	924.522	695.147
208.548	14.393	923.993	694.395
209.563	14.491	923.192	694.140
210.577	14.450	922.744	693.572
211.592	14.680	921.457	693.498
212.607	14.696	920.800	693.008
213.621	14.668	920.124	692.321
214.636	14.687	919.519	691.886
215.650	14.632	919.039	691.235
216.665	14.687	917.994	690.616
217.680	14.702	917.285	690.083
218.694	14.692	916.718	689.555
219.709	14.857	915.614	689.344
220.723	14.748	915.725	688.918
221.738	14.787	914.669	688.222
222.753	14.730	914.200	687.574
223.767	14.798	913.774	687.471
224.782	14.788	913.395	687.083
225.796	14.871	912.732	686.866
226.811	14.801	912.345	686.225
227.826	14.909	910.854	685.487
228.840	14.891	910.031	684.733
229.855	14.767	909.768	683.968
230.869	14.872	908.629	683.479
231.884	14.798	907.987	682.633
232.899	14.761	907.523	682.073
233.913	14.743	906.965	681.520
234.928	14.897	905.950	681.324
235.942	14.772	905.629	680.513
236.957	14.749	905.052	679.926
237.972	14.744	904.171	679.185
238.986	14.892	903.837	679.473
240.001	14.864	902.887	678.586
241.015	14.953	902.138	678.327
242.030	14.867	901.988	677.806
243.045	14.848	901.325	677.169
244.059	14.895	900.457	676.645
245.074	14.937	899.910	676.343
246.088	14.886	899.367	675.669
247.103	15.058	898.680	675.789
248.117	15.058	898.208	675.375
249.132	15.118	897.986	675.391
250.147	15.327	896.838	675.307
251.161	15.258	896.259	674.537
252.176	15.315	895.898	674.432
253.190	15.192	895.352	673.469
254.205	15.278	894.384	673.025
255.220	15.355	893.656	672.728
256.234	15.337	893.200	672.252
257.249	15.345	892.127	671.418
258.263	15.402	891.528	671.137
259.278	15.450	890.805	670.722
260.293	15.408	890.910	670.575
261.307	15.494	890.380	670.459
262.322	15.597	889.555	670.192
263.336	15.466	888.676	668.946
264.351	15.479	887.982	668.416
265.366	15.692	887.220	668.634
266.380	15.496	886.506	667.257
267.395	15.519	886.016	666.917
268.409	15.539	885.307	666.405
269.424	15.640	883.968	665.739
270.439	15.574	883.703	665.219
271.453	15.591	882.920	664.637
272.468	15.428	882.647	663.731
273.482	15.582	881.787	663.632
274.497	15.587	881.360	663.270
275.512	15.561	881.065	662.887
276.526	15.600	880.363	662.454
277.541	15.703	879.608	662.234
278.555	15.696	878.782	661.528
279.570	15.741	878.153	661.172
280.585	15.779	877.601	660.847
281.599	15.775	876.946	660.277
282.614	15.545	876.312	658.840
283.628	15.694	875.329	658.626
284.643	15.822	874.817	658.685
285.657	15.692	874.637	657.985
286.672	15.866	873.582	657.809
287.687	15.818	872.911	657.059
288.701	15.894	872.226	656.782
289.716	15.759	872.350	656.291
290.730	15.824	871.395	655.769
291.745	15.749	870.968	655.095
292.760	15.970	870.201	655.322
293.774	15.930	869.666	654.705
294.789	15.927	869.173	654.263
295.803	15.997	868.235	653.772
296.818	16.025	867.416	653.208
297.833	15.919	867.400	652.726
298.847	15.952	866.423	652.059
299.862	16.111	865.663	652.046
300.876	16.093	865.253	651.608
301.891	16.015	864.822	650.926
302.906	16.091	864.287	650.759
303.920	16.219	863.561	650.648
304.935	16.215	862.834	650.028
305.949	16.360	862.211	650.058
306.964	16.224	861.792	649.162
307.979	16.298	861.009	648.801
308.993	16.319	860.380	648.349
310.008	16.148	860.328	647.597
311.022	16.206	859.621	647.227
312.037	16.196	858.867	646.564
313.052	16.317	858.263	646.515
314.066	16.177	857.974	645.705
315.081	16.017	857.880	644.966
316.095	16.102	856.716	644.358
317.110	16.126	856.296	644.079
318.125	16.169	855.603	643.663
319.139	16.143	855.384	643.341
320.154	16.118	854.574	642.580
321.168	16.095	854.029	642.025
322.183	16.136	853.685	641.869
323.197	16.268	852.910	641.728
324.212	16.318	852.343	641.434
325.227	16.338	851.621	640.913
326.241	16.307	851.136	640.370
327.256	16.217	850.661	639.617
328.270	16.317	849.865	639.342
329.285	16.321	849.262	638.845
330.300	16.331	848.653	638.368
331.314	16.351	848.509	638.280
332.329	16.507	847.445	638.012
333.343	16.478	847.510	637.895
334.358	16.516	847.168	637.725
335.373	16.304	846.850	636.630
336.387	16.361	846.249	636.335
337.402	16.390	846.225	636.371
338.416	16.571	845.762	636.648
339.431	16.521	845.483	636.195
340.446	16.550	845.069	635.935
341.460	16.591	844.731	635.778
342.475	16.544	844.288	635.211
343.489	16.698	843.439	635.094
344.504	16.672	843.169	634.737
345.519	16.681	843.413	634.899
346.533	16.852	841.949	634.379
347.548	16.832	841.529	633.933
348.562	16.670	841.148	632.982
349.577	16.674	840.450	632.416
350.592	16.685	839.416	631.626
351.606	16.701	838.682	631.076
352.621	16.535	838.591	630.331
353.635	16.770	837.970	630.685
354.650	16.694	837.328	629.863
355.665	16.653	836.769	629.236
356.679	16.669	835.723	628.454
357.694	16.735	835.243	628.282
358.708	16.666	834.731	627.584
359.723	16.887	833.985	627.787
360.738	16.944	833.593	627.646
361.752	16.788	833.229	626.738
362.767	16.772	832.690	626.221
363.781	16.980	831.967	626.389
364.796	17.036	831.603	626.266
365.810	17.059	831.272	626.046
366.825	17.080	830.860	625.757
367.840	17.031	830.542	625.282
368.854	16.916	829.854	624.286
369.869	17.156	829.071	624.524
370.883	17.106	829.001	624.232
371.898	17.143	828.545	623.970
372.913	17.376	827.841	624.239
373.927	17.275	827.217	623.342
374.942	17.179	827.092	622.842
375.956	17.236	826.748	622.736
376.971	17.319	826.116	622.508
377.986	17.328	825.667	622.150
379.000	17.415	825.068	621.959
380.015	17.344	824.470	621.194
381.029	17.402	823.958	620.967
382.044	17.409	823.175	620.347
383.059	17.426	823.083	620.283
384.073	17.433	822.430	619.763
385.088	17.323	821.983	618.970
386.102	17.537	820.680	618.712
387.117	17.416	820.797	618.305
388.132	17.475	820.001	617.867
389.146	17.157	819.590	616.346
390.161	17.541	819.054	617.283
391.175	17.458	818.780	616.720
392.190	17.463	818.264	616.296
393.205	17.390	817.974	615.758
394.219	17.380	817.376	615.219
395.234	17.316	816.998	614.649
396.248	17.271	816.507	614.062
397.263	17.400	816.302	614.317
398.278	17.188	815.904	613.200
399.292	17.296	815.428	613.175
400.307	17.224	815.042	612.572
401.321	17.429	814.241	612.654
402.336	17.499	813.737	612.474
403.350	17.403	813.531	611.920
404.365	17.603	812.645	611.917
405.380	17.619	812.187	611.574
406.394	17.697	811.793	611.504
407.409	17.721	811.443	611.273
408.423	17.704	811.431	611.147
409.438	17.607	810.913	610.356
410.453	17.702	810.493	610.325
411.467	17.765	809.685	609.891
412.482	17.710	809.716	609.662
413.496	17.805	809.272	609.612
414.511	17.964	808.538	609.574
415.526	17.868	808.301	608.997
416.540	17.804	807.910	608.421
417.555	17.824	807.206	607.909
418.569	17.982	806.887	608.179
419.584	17.952	806.418	607.665
420.599	17.801	806.247	606.942
421.613	111.330	1295.308	1476.376
422.628	96.064	1366.504	1476.454
