DTS Sentinel unit serial number:	SN413079Multiplexer serial number:	ORYXHardware model number:	OX4-SRSoftware version number:	ORYX F/W v4.00 Oryx Data Collector v3.7.2.0data status	okinstallation	princeton_trtdifferential loss correction	single-endedforward channel	channel 1reverse channel	N/Adate	2019/09/12time	03:00:11forward acquisition time	60.00reverse acquisition time	0.00gamma	496.2192k internal	0.2322k external	0.2322temperature offset calibration	1.0074default loss term (dB/km)	0.3790temperature slope calibration	1.0000multiplexer offset coefficient	1.0000multiplexer slope coefficient	1.0000fibre end	0.00T internal ref (°C)	32.31T ext. ref 1 (°C)	2.12T ext. ref 2 (°C)	27.04length (m)	temperature (°C)	Stokes	anti-Stokes-747.200	-15.484	-0.114	-0.074
-746.185	-123.563	0.212	0.034
-745.171	562.830	0.028	-0.069
-744.156	-81.186	0.094	0.031
-743.142	-147.228	0.349	0.030
-742.127	-200.000	-0.004	0.038
-741.112	-200.000	0.352	0.000
-740.098	-200.000	0.005	0.238
-739.083	-88.044	0.333	0.101
-738.069	-142.223	0.133	-0.013
-737.054	-79.753	-0.174	-0.059
-736.039	-113.335	-0.041	-0.008
-735.025	-133.726	0.284	0.036
-734.010	-46.247	-0.248	0.123
-732.996	245.019	-0.006	-0.009
-731.981	11.162	-0.044	-0.034
-730.966	118.190	0.079	-0.099
-729.952	219.172	0.115	0.186
-728.937	145.525	-0.204	0.276
-727.923	3.383	-0.188	0.138
-726.908	-85.481	-0.309	-0.097
-725.894	-200.000	0.036	0.169
-724.879	389.550	-0.078	0.162
-723.864	-200.000	0.017	0.093
-722.850	611.395	0.033	0.082
-721.835	-21.049	-0.273	0.169
-720.821	-21.519	-0.398	0.245
-719.806	-151.101	0.522	-0.040
-718.791	800.000	-0.017	-0.059
-717.777	436.314	-0.092	-0.203
-716.762	-126.033	-0.129	0.020
-715.748	-200.000	0.004	0.428
-714.733	-161.009	0.098	-0.005
-713.718	-123.948	0.038	0.006
-712.704	297.645	0.155	0.287
-711.689	310.010	0.065	-0.122
-710.675	66.572	-0.148	-0.152
-709.660	-75.467	-0.068	-0.024
-708.645	-200.000	0.032	0.210
-707.631	17.763	-0.144	0.116
-706.616	-200.000	-0.009	-0.075
-705.602	800.000	0.078	0.245
-704.587	-156.331	-0.026	0.002
-703.572	800.000	-0.045	0.165
-702.558	659.648	-0.202	-0.523
-701.543	238.574	0.054	0.090
-700.529	-29.885	-0.244	0.140
-699.514	800.000	-0.168	0.516
-698.499	800.000	0.064	0.182
-697.485	-175.238	0.375	-0.010
-696.470	3.702	0.242	-0.178
-695.456	14.706	0.222	0.175
-694.441	351.795	-0.153	-0.307
-693.426	-185.457	0.432	0.007
-692.412	-200.000	0.010	-0.414
-691.397	244.108	-0.104	-0.176
-690.383	53.616	0.274	-0.265
-689.368	-200.000	-0.025	-0.163
-688.354	82.946	0.086	-0.095
-687.339	-123.925	0.051	-0.008
-686.324	-77.170	-0.201	0.071
-685.310	489.183	-0.059	-0.136
-684.295	9.691	0.114	-0.087
-683.281	119.709	-0.211	-0.264
-682.266	-64.660	-0.259	0.106
-681.251	-5.971	0.167	0.115
-680.237	15.440	0.153	-0.121
-679.222	-139.678	0.304	-0.033
-678.208	-140.962	0.123	-0.013
-677.193	-86.836	0.302	-0.093
-676.178	-130.909	-0.150	0.020
-675.164	640.016	0.076	-0.194
-674.149	-200.000	-0.005	-0.054
-673.135	-67.711	-0.325	0.128
-672.120	304.626	0.094	-0.175
-671.105	-143.746	0.257	0.024
-670.091	-200.000	-0.035	-0.164
-669.076	-74.137	0.152	-0.055
-668.062	498.857	0.092	-0.214
-667.047	9.679	-0.140	0.107
-666.032	-106.852	0.406	-0.091
-665.018	800.000	-0.058	-0.163
-664.003	-200.000	-0.061	-0.364
-662.989	282.154	-0.158	-0.285
-661.974	249.390	0.095	-0.162
-660.959	-46.143	0.070	0.035
-659.945	132.449	-0.138	0.179
-658.930	-75.953	-0.167	-0.059
-657.916	-160.579	-0.072	0.004
-656.901	-20.229	0.106	-0.066
-655.886	-13.104	-0.213	0.140
-654.872	-173.015	0.267	0.008
-653.857	-87.627	-0.230	-0.070
-652.843	-130.842	0.151	0.020
-651.828	487.264	-0.042	0.097
-650.814	-69.708	0.151	-0.058
-649.799	162.323	0.248	0.350
-648.784	-200.000	0.083	-0.486
-647.770	-102.096	-0.114	-0.028
-646.755	-69.413	0.351	-0.135
-645.741	389.806	0.035	0.073
-644.726	86.866	-0.106	0.118
-643.711	-94.091	0.137	-0.038
-642.697	262.405	0.071	-0.124
-641.682	-181.657	-0.199	0.004
-640.668	-100.975	-0.213	0.053
-639.653	-100.687	-0.256	0.063
-638.638	446.641	0.044	0.097
-637.624	300.836	-0.020	-0.037
-636.609	-4.530	-0.184	0.128
-635.595	800.000	0.073	-0.277
-634.580	6.938	-0.252	-0.189
-633.565	188.216	-0.303	-0.456
-632.551	465.716	0.085	0.191
-631.536	43.590	-0.061	0.056
-630.522	-200.000	0.000	0.079
-629.507	-200.000	-0.026	-0.151
-628.492	180.060	-0.124	-0.183
-627.478	146.995	-0.177	-0.240
-626.463	-200.000	-0.058	0.275
-625.449	590.929	0.053	0.131
-624.434	-200.000	-0.016	-0.174
-623.419	-25.028	0.240	-0.143
-622.405	776.696	-0.013	0.035
-621.390	800.000	-0.064	-0.192
-620.376	-35.625	-0.305	-0.166
-619.361	38.099	-0.123	-0.110
-618.346	649.515	0.123	-0.317
-617.332	-157.294	-0.330	0.020
-616.317	-89.584	-0.273	-0.080
-615.303	328.460	-0.109	-0.211
-614.288	-52.906	-0.283	-0.131
-613.273	-105.522	-0.584	0.133
-612.259	-192.772	-0.288	0.003
-611.244	800.000	0.084	-0.274
-610.230	-119.775	0.161	-0.028
-609.215	-121.421	-0.310	-0.052
-608.201	-24.526	0.048	0.029
-607.186	271.548	-0.075	-0.133
-606.171	-37.338	0.147	-0.079
-605.157	667.944	0.111	-0.289
-604.142	-91.485	-0.319	0.091
-603.128	-22.212	-0.276	-0.168
-602.113	-200.000	-0.056	-0.341
-601.098	-119.400	-0.143	-0.025
-600.084	754.071	0.205	0.558
-599.069	-200.000	-0.030	-0.212
-598.055	-92.558	0.076	-0.021
-597.040	800.000	0.064	0.194
-596.025	753.396	0.052	-0.141
-595.011	-34.924	0.069	-0.038
-593.996	-139.612	-0.659	-0.071
-592.982	-64.930	-0.111	0.045
-591.967	-157.562	0.158	0.009
-590.952	174.694	-0.109	0.158
-589.938	-2.778	0.213	0.150
-588.923	-21.401	-0.236	0.144
-587.909	-200.000	-0.007	-0.122
-586.894	55.698	0.065	0.063
-585.879	68.893	-0.047	-0.048
-584.865	800.000	-0.041	0.144
-583.850	-16.845	-0.162	0.103
-582.836	-82.186	-0.461	-0.151
-581.821	-33.562	0.298	-0.165
-580.806	724.954	0.097	0.260
-579.792	-50.744	0.030	-0.014
-578.777	800.000	-0.043	0.122
-577.763	-76.599	-0.045	-0.016
-576.748	245.712	0.187	0.316
-575.733	-46.782	0.217	0.106
-574.719	198.765	-0.122	-0.187
-573.704	375.724	-0.167	-0.341
-572.690	-200.000	-0.031	0.613
-571.675	306.840	-0.119	0.223
-570.661	32.729	0.206	-0.179
-569.646	-0.596	-0.076	-0.054
-568.631	3.657	-0.171	0.125
-567.617	800.000	-0.063	-0.180
-566.602	-100.008	-0.185	0.046
-565.588	-78.523	-0.342	-0.118
-564.573	-73.383	-0.174	0.064
-563.558	-200.000	-0.021	0.104
-562.544	-200.000	0.012	-0.096
-561.529	-76.457	0.292	0.103
-560.515	67.889	0.088	0.090
-559.500	-44.121	0.129	-0.065
-558.485	-200.000	-0.022	-0.323
-557.471	316.034	-0.053	0.100
-556.456	800.000	0.048	-0.197
-555.442	147.245	-0.258	-0.348
-554.427	-34.932	0.151	-0.083
-553.412	446.598	0.034	-0.076
-552.398	-133.087	0.067	0.008
-551.383	-200.000	0.039	-0.243
-550.369	-17.071	0.166	-0.105
-549.354	195.121	-0.140	-0.213
-548.339	-140.334	0.221	0.023
-547.325	800.000	0.093	-0.334
-546.310	309.665	-0.071	-0.134
-545.296	-200.000	0.008	0.047
-544.281	13.344	0.241	-0.187
-543.266	-27.410	0.234	0.136
-542.252	728.528	-0.066	-0.177
-541.237	177.251	-0.060	-0.088
-540.223	-157.196	0.215	-0.013
-539.208	-133.486	0.551	-0.069
-538.193	338.997	-0.131	-0.255
-537.179	-200.000	-0.014	0.308
-536.164	800.000	0.060	0.249
-535.150	-100.605	0.490	0.121
-534.135	800.000	0.085	-0.269
-533.121	-79.648	0.275	-0.093
-532.106	77.499	-0.070	0.074
-531.091	800.000	-0.014	-0.059
-530.077	-200.000	-0.015	-0.186
-529.062	207.518	-0.182	-0.284
-528.048	-107.651	0.155	-0.034
-527.033	800.000	-0.037	-0.156
-526.018	-62.866	0.198	0.082
-525.004	561.292	0.086	0.208
-523.989	-200.000	-0.033	-0.320
-522.975	-59.045	0.168	-0.073
-521.960	337.485	0.115	-0.223
-520.945	20.706	0.072	-0.059
-519.931	-200.000	-0.033	0.282
-518.916	19.966	-0.333	0.269
-517.902	-135.144	0.321	0.039
-516.887	-200.000	0.056	0.323
-515.872	-145.489	0.479	-0.043
-514.858	-200.000	0.080	0.362
-513.843	800.000	0.021	-0.073
-512.829	-62.000	-0.231	-0.097
-511.814	80.034	-0.070	0.075
-510.799	-200.000	0.117	0.000
-509.785	39.537	0.102	0.092
-508.770	496.202	-0.186	0.428
-507.756	225.777	-0.145	0.235
-506.741	-120.462	-0.321	-0.055
-505.726	48.877	-0.316	-0.297
-504.712	-32.924	0.053	-0.030
-503.697	144.564	0.124	0.165
-502.683	-200.000	0.002	-0.044
-501.668	420.658	0.142	0.305
-500.653	-44.412	-0.246	-0.123
-499.639	10.048	-0.243	-0.185
-498.624	124.994	-0.110	-0.139
-497.610	105.530	-0.142	0.168
-496.595	-200.000	-0.031	-0.244
-495.581	-182.871	-0.339	0.006
-494.566	-200.000	-0.005	0.248
-493.551	242.686	0.096	-0.162
-492.537	-200.000	-0.023	-0.226
-491.522	-200.000	0.013	-0.100
-490.508	221.395	0.131	-0.211
-489.493	-15.957	0.109	0.070
-488.478	-170.469	-0.393	-0.014
-487.464	-32.108	0.021	-0.012
-486.449	2.986	0.266	-0.193
-485.435	-100.113	-0.143	0.036
-484.420	-200.000	-0.042	0.408
-483.405	800.000	-0.109	-0.371
-482.391	-40.547	-0.216	-0.112
-481.376	-18.279	0.073	-0.046
-480.362	-123.853	0.243	0.038
-479.347	292.596	-0.156	0.284
-478.332	-200.000	-0.006	-0.072
-477.318	156.747	-0.058	-0.080
-476.303	96.602	-0.119	-0.136
-475.289	14.932	-0.221	0.173
-474.274	-30.377	-0.255	-0.145
-473.259	-118.163	0.091	0.016
-472.245	22.310	-0.340	-0.277
-471.230	63.529	-0.049	0.049
-470.216	183.714	0.101	0.150
-469.201	-74.942	0.473	0.169
-468.186	-200.000	0.005	0.043
-467.172	440.957	-0.131	-0.287
-466.157	137.276	0.107	-0.140
-465.143	-57.845	0.206	0.090
-464.128	-118.288	-0.074	0.013
-463.113	-120.460	0.213	-0.036
-462.099	-128.352	0.257	-0.037
-461.084	230.727	0.109	-0.179
-460.070	-145.435	-0.351	-0.032
-459.055	264.077	0.109	0.190
-458.040	-70.187	-0.282	0.107
-457.026	45.694	-0.197	0.182
-456.011	-55.084	-0.246	0.111
-454.997	-136.085	-0.319	-0.037
-453.982	-159.145	-0.276	0.016
-452.968	-200.000	-0.018	-0.083
-451.953	-200.000	-0.002	-0.448
-450.938	-59.393	0.291	0.125
-449.924	800.000	0.028	0.110
-448.909	800.000	0.051	-0.148
-447.895	112.890	0.161	0.195
-446.880	9.238	-0.198	-0.149
-445.865	800.000	0.111	-0.322
-444.851	-200.000	-0.022	-0.166
-443.836	-21.728	-0.048	-0.029
-442.822	-61.059	-0.204	-0.086
-441.807	-200.000	-0.036	0.245
-440.792	303.606	0.060	-0.112
-439.778	-52.253	0.159	0.074
-438.763	91.671	-0.135	-0.151
-437.749	-126.137	0.089	-0.013
-436.734	-200.000	0.006	0.140
-435.719	18.865	0.160	-0.128
-434.705	757.630	-0.136	0.368
-433.690	295.641	0.039	0.071
-432.676	-200.000	-0.007	0.134
-431.661	-200.000	-0.050	-0.225
-430.646	-119.560	-0.264	-0.046
-429.632	-146.725	0.367	-0.032
-428.617	-105.653	-0.164	-0.037
-427.603	-177.789	0.249	-0.006
-426.588	-11.637	0.141	0.092
-425.573	-158.428	-0.172	0.010
-424.559	-200.000	-0.050	0.249
-423.544	745.383	-0.075	0.201
-422.530	800.000	-0.115	0.338
-421.515	-23.397	0.338	-0.203
-420.500	-74.562	-0.440	-0.158
-419.486	-200.000	0.034	0.272
-418.471	-72.354	-0.207	-0.076
-417.457	-159.543	0.155	0.009
-416.442	-105.635	-0.024	-0.005
-415.428	-128.295	-0.113	-0.016
-414.413	-200.000	-0.001	-0.141
-413.398	144.445	-0.213	0.284
-412.384	48.841	-0.145	0.136
-411.369	-62.648	0.165	0.068
-410.355	800.000	0.079	-0.286
-409.340	-145.762	0.210	0.019
-408.325	-23.971	-0.112	0.067
-407.311	139.273	0.063	0.083
-406.296	800.000	0.017	0.074
-405.282	219.962	-0.016	-0.026
-404.267	800.000	-0.042	0.163
-403.252	37.942	-0.059	-0.052
-402.238	-129.663	-0.391	0.054
-401.223	-75.680	-0.091	0.032
-400.209	-35.097	-0.133	0.072
-399.194	122.688	0.050	0.063
-398.179	-200.000	-0.008	0.076
-397.165	428.143	0.070	-0.150
-396.150	-200.000	-0.020	-0.117
-395.136	-154.936	0.114	-0.007
-394.121	-151.136	0.165	-0.012
-393.106	-190.811	0.158	-0.002
-392.092	-116.790	0.072	0.013
-391.077	97.508	-0.111	-0.127
-390.063	47.831	-0.092	0.085
-389.048	-160.869	-0.115	0.006
-388.033	-57.027	-0.254	0.111
-387.019	-118.116	-0.182	-0.032
-386.004	-108.689	-0.280	0.060
-384.990	20.462	-0.207	0.166
-383.975	-13.554	0.116	-0.075
-382.960	780.483	0.029	0.079
-381.946	761.201	0.102	0.275
-380.931	668.987	-0.011	-0.027
-379.917	-200.000	0.077	-0.389
-378.902	388.213	-0.186	0.383
-377.888	13.946	0.209	0.162
-376.873	11.282	0.173	-0.132
-375.858	161.189	0.187	-0.260
-374.844	-85.138	0.328	0.102
-373.829	-20.857	0.256	-0.156
-372.815	-200.000	0.000	-0.131
-371.800	-65.531	0.212	-0.085
-370.785	-55.414	0.218	0.098
-369.771	-4.521	-0.045	0.031
-368.756	-134.486	-0.157	0.019
-367.742	-31.145	0.098	-0.055
-366.727	81.027	-0.076	0.082
-365.712	-111.353	-0.228	-0.046
-364.698	-2.959	-0.184	0.128
-363.683	-200.000	0.004	-0.058
-362.669	588.917	-0.058	-0.141
-361.654	-200.000	0.014	0.358
-360.639	-200.000	0.031	0.250
-359.625	88.039	0.129	-0.142
-358.610	388.792	0.086	0.176
-357.596	-200.000	0.003	-0.134
-356.581	800.000	0.082	0.309
-355.566	196.104	0.204	-0.309
-354.552	96.734	0.186	0.212
-353.537	179.263	0.238	-0.346
-352.523	482.484	0.055	0.125
-351.508	-165.649	0.245	0.011
-350.493	-200.000	-0.071	0.347
-349.479	800.000	-0.043	-0.165
-348.464	162.241	0.092	0.128
-347.450	800.000	0.008	-0.030
-346.435	230.396	0.071	0.115
-345.420	184.548	0.113	-0.166
-344.406	258.552	0.028	0.048
-343.391	8.293	-0.104	-0.077
-342.377	56.966	0.146	-0.141
-341.362	800.000	-0.143	-0.502
-340.348	-200.000	-0.037	-0.341
-339.333	800.000	0.085	-0.286
-338.318	118.868	-0.204	-0.251
-337.304	-100.724	-0.240	0.059
-336.289	51.555	0.362	-0.343
-335.275	-39.099	0.290	-0.152
-334.260	43.539	-0.062	-0.057
-333.245	446.415	0.109	0.238
-332.231	125.778	0.063	-0.079
-331.216	51.376	0.331	0.313
-330.202	30.592	-0.244	-0.208
-329.187	278.129	-0.131	0.232
-328.172	-8.198	0.204	-0.137
-327.158	565.841	0.067	-0.162
-326.143	198.477	0.130	0.198
-325.129	19.933	0.122	-0.097
-324.114	209.753	-0.105	0.163
-323.099	-200.000	0.006	0.183
-322.085	-200.000	-0.065	0.292
-321.070	800.000	-0.094	0.266
-320.056	-121.260	-0.173	0.029
-319.041	168.218	-0.131	-0.186
-318.026	256.257	-0.054	0.092
-317.012	-200.000	0.033	-0.287
-315.997	-20.195	0.077	0.047
-314.983	-40.329	-0.144	0.074
-313.968	52.868	0.287	0.273
-312.953	-200.000	0.034	0.221
-311.939	231.384	0.165	0.269
-310.924	-200.000	0.019	-0.201
-309.910	-116.703	0.139	-0.025
-308.895	-66.608	0.566	0.223
-307.880	74.354	0.192	0.201
-306.866	42.051	-0.283	0.255
-305.851	193.273	-0.142	0.213
-304.837	2.794	0.210	-0.151
-303.822	-81.595	-0.169	0.055
-302.807	-107.970	0.559	0.121
-301.793	94.078	0.209	-0.235
-300.778	24.660	0.309	0.254
-299.764	313.076	-0.062	-0.115
-298.749	800.000	-0.100	0.425
-297.735	-31.313	-0.254	0.142
-296.720	691.665	0.078	-0.202
-295.705	648.246	-0.099	-0.252
-294.691	-200.000	-0.010	0.150
-293.676	7.260	0.094	-0.069
-292.662	-200.000	0.009	0.051
-291.647	-159.987	-0.195	-0.011
-290.632	625.493	-0.034	-0.086
-289.618	-73.554	0.343	0.124
-288.603	-9.424	-0.151	0.100
-287.589	-58.177	-0.277	0.120
-286.574	-200.000	0.005	0.110
-285.559	58.333	0.216	-0.210
-284.545	57.282	0.070	-0.068
-283.530	-111.024	0.272	-0.055
-282.516	-99.516	-0.421	0.105
-281.501	-87.473	0.213	0.064
-280.486	-132.544	0.139	-0.018
-279.472	800.000	-0.048	-0.137
-278.457	54.986	-0.134	0.129
-277.443	-42.718	0.115	0.058
-276.428	-200.000	0.046	0.311
-275.413	800.000	-0.012	-0.046
-274.399	-200.000	-0.085	0.415
-273.384	-16.522	-0.132	0.083
-272.370	-123.457	0.182	-0.029
-271.355	-133.189	0.068	-0.009
-270.340	-81.423	-0.280	-0.091
-269.326	-177.004	-0.133	-0.003
-268.311	122.159	0.285	0.353
-267.297	795.069	0.048	-0.131
-266.282	-181.494	0.238	-0.005
-265.267	-11.921	0.136	0.089
-264.253	-200.000	-0.018	-0.138
-263.238	-119.537	-0.436	-0.075
-262.224	-41.289	0.198	0.101
-261.209	49.577	-0.101	-0.094
-260.195	258.494	0.344	-0.587
-259.180	95.717	-0.052	0.059
-258.165	259.693	-0.183	0.313
-257.151	262.870	0.129	0.222
-256.136	800.000	-0.040	-0.117
-255.122	38.793	0.223	0.197
-254.107	-200.000	-0.029	-0.189
-253.092	800.000	-0.066	0.230
-252.078	800.000	0.135	0.383
-251.063	-200.000	0.021	-0.375
-250.049	791.276	-0.040	0.110
-249.034	252.903	0.057	-0.096
-248.019	277.486	0.088	0.156
-247.005	-88.535	0.136	-0.040
-245.990	-7.927	-0.479	-0.320
-244.976	-136.255	-0.197	-0.023
-243.961	331.410	0.071	-0.136
-242.946	-82.344	0.063	0.020
-241.932	-56.500	-0.170	0.075
-240.917	-131.962	0.020	0.003
-239.903	-92.891	-0.538	0.149
-238.888	408.371	0.117	0.244
-237.873	-127.468	0.211	-0.030
-236.859	35.540	0.175	0.152
-235.844	-119.805	0.272	0.046
-234.830	402.517	0.099	0.207
-233.815	800.000	-0.056	0.168
-232.800	136.183	0.152	0.197
-231.786	-47.171	0.223	0.107
-230.771	437.224	-0.180	-0.389
-229.757	79.938	0.371	-0.395
-228.742	161.814	-0.009	-0.013
-227.727	28.819	0.415	0.348
-226.713	800.000	0.086	0.262
-225.698	-133.640	-0.362	0.045
-224.684	-67.530	-0.055	-0.021
-223.669	45.454	-0.083	0.075
-222.655	41.152	0.213	0.191
-221.640	-116.779	-0.174	0.032
-220.625	136.814	0.071	-0.092
-219.611	-63.910	-0.126	0.051
-218.596	-10.909	-0.090	0.059
-217.582	514.850	0.061	-0.141
-216.567	800.000	-0.078	-0.259
-215.552	-137.037	-0.243	0.027
-214.538	356.574	-0.043	0.085
-213.523	-200.000	0.016	0.169
-212.509	800.000	-0.028	-0.109
-211.494	800.000	0.114	-0.352
-210.479	378.687	0.269	0.545
-209.465	253.527	-0.051	-0.086
-208.450	-98.917	0.014	-0.003
-207.436	-137.057	0.088	-0.010
-206.421	800.000	0.102	-0.306
-205.406	-152.798	-0.273	-0.019
-204.392	129.035	-0.286	0.360
-203.377	-140.517	0.104	0.011
-202.363	800.000	-0.083	0.307
-201.348	-200.000	0.030	0.275
-200.333	-74.511	-0.448	-0.160
-199.319	104.987	0.136	0.158
-198.304	-200.000	0.076	-0.328
-197.290	53.677	0.102	-0.097
-196.275	153.581	-0.250	-0.338
-195.260	-200.000	0.039	-0.329
-194.246	800.000	0.070	-0.214
-193.231	596.326	-0.156	0.382
-192.217	-113.492	0.326	-0.063
-191.202	-6.759	0.217	0.146
-190.187	95.050	0.054	-0.061
-189.173	-46.092	-0.246	-0.120
-188.158	-200.000	-0.031	-0.262
-187.144	18.311	0.479	0.378
-186.129	143.665	-0.122	0.161
-185.114	189.448	0.104	-0.154
-184.100	-108.162	-0.168	-0.036
-183.085	265.995	0.042	0.073
-182.071	800.000	-0.077	-0.277
-181.056	38.134	-0.081	-0.072
-180.042	17.673	0.165	-0.130
-179.027	-200.000	-0.020	-0.356
-178.012	-200.000	0.051	0.243
-176.998	-41.695	-0.210	-0.107
-175.983	663.525	0.064	0.163
-174.969	800.000	0.052	0.188
-173.954	128.175	0.055	0.069
-172.939	193.659	0.086	0.129
-171.925	74.820	0.258	0.268
-170.910	202.264	0.115	-0.175
-169.896	-200.000	-0.000	-0.036
-168.881	-77.718	0.031	0.011
-167.866	-200.000	0.015	0.161
-166.852	-74.286	0.080	0.029
-165.837	-200.000	0.006	-0.085
-164.823	357.240	-0.063	0.125
-163.808	800.000	-0.121	0.409
-162.793	-200.000	0.017	-0.144
-161.779	158.793	-0.106	-0.145
-160.764	373.573	0.141	0.284
-159.750	-19.480	0.344	-0.210
-158.735	-166.199	0.370	0.015
-157.720	41.316	0.079	0.070
-156.706	800.000	-0.081	0.285
-155.691	261.871	-0.240	0.411
-154.677	-200.000	0.010	-0.099
-153.662	214.669	-0.204	-0.320
-152.647	205.187	0.103	0.158
-151.633	562.845	-0.138	-0.329
-150.618	-41.484	0.161	-0.082
-149.604	800.000	0.042	-0.173
-148.589	-130.833	-0.070	-0.009
-147.574	143.631	0.212	0.279
-146.560	-48.642	0.097	0.046
-145.545	-18.574	0.283	0.174
-144.531	96.597	0.081	0.092
-143.516	-200.000	0.017	-0.110
-142.502	-200.000	-0.060	-0.318
-141.487	570.086	0.033	-0.079
-140.472	32.367	-0.064	-0.055
-139.458	-126.115	0.145	0.022
-138.443	63.881	0.051	0.050
-137.429	-57.084	-0.075	-0.033
-136.414	-200.000	-0.004	0.402
-135.399	391.788	-0.099	0.203
-134.385	-92.523	-0.419	0.116
-133.370	28.952	0.260	0.217
-132.356	-104.400	-0.260	0.059
-131.341	-85.349	-0.168	0.052
-130.326	519.223	0.107	0.248
-129.312	21.490	-0.102	0.082
-128.297	-200.000	0.018	0.196
-127.283	-200.000	0.023	0.351
-126.268	-63.224	0.352	-0.143
-125.253	-45.722	0.154	-0.075
-124.239	7.659	-0.251	0.185
-123.224	534.804	0.115	0.268
-122.210	800.000	-0.132	-0.386
-121.195	228.068	0.183	-0.294
-120.180	-27.085	-0.073	0.042
-119.166	800.000	-0.106	0.308
-118.151	525.869	0.096	-0.222
-117.137	800.000	-0.016	-0.051
-116.122	-156.876	-0.292	-0.018
-115.107	-135.086	0.308	-0.037
-114.093	800.000	0.088	-0.255
-113.078	-200.000	0.001	0.077
-112.064	-99.087	-0.425	0.106
-111.049	323.501	0.116	0.219
-110.034	28.378	-0.241	0.201
-109.020	-57.302	0.101	0.044
-108.005	190.591	0.190	-0.281
-106.991	155.349	-0.206	-0.280
-105.976	-125.224	-0.143	0.022
-104.962	-99.979	0.103	0.025
-103.947	-136.617	-0.171	0.019
-102.932	800.000	0.093	-0.350
-101.918	126.898	0.318	-0.397
-100.903	-78.826	0.203	-0.068
-99.889	385.101	0.121	0.246
-98.874	-147.163	0.114	0.010
-97.859	-77.037	0.277	-0.095
-96.845	169.656	0.158	0.222
-95.830	-47.226	0.036	0.017
-94.816	282.449	-0.091	0.161
-93.801	-200.000	0.048	0.281
-92.786	34.532	0.360	0.309
-91.772	-200.000	-0.007	0.314
-90.757	127.358	-0.099	0.124
-89.743	-137.637	0.135	0.015
-88.728	-200.000	0.022	0.139
-87.713	-200.000	-0.054	0.270
-86.699	151.843	0.058	0.078
-85.684	-200.000	0.005	0.089
-84.670	-161.651	0.237	-0.012
-83.655	344.799	0.085	-0.165
-82.640	-139.184	0.270	-0.029
-81.626	-28.500	-0.116	0.066
-80.611	140.794	-0.127	0.165
-79.597	289.091	0.060	0.108
-78.582	178.523	-0.061	0.087
-77.567	-84.753	-0.214	-0.066
-76.553	549.319	0.059	-0.139
-75.538	-200.000	0.059	0.281
-74.524	-44.059	-0.142	0.070
-73.509	-200.000	-0.058	-0.462
-72.494	104.238	-0.074	-0.086
-71.480	-171.001	0.230	-0.008
-70.465	-200.000	-0.008	0.082
-69.451	-188.561	0.098	0.001
-68.436	1.387	-0.191	0.135
-67.422	-17.386	0.419	-0.259
-66.407	513.340	-0.020	0.046
-65.392	442.868	-0.121	-0.261
-64.378	-76.767	-0.237	-0.082
-63.363	82.031	0.090	-0.096
-62.349	64.341	-0.138	0.137
-61.334	28.021	-0.777	-0.645
-60.319	-80.360	0.613	0.201
-59.305	-200.000	0.058	-1.273
-58.290	111.999	0.634	0.753
-57.276	720.056	0.661	1.728
-56.261	-200.000	95.601	591.631
-55.246	569.662	1366.324	3267.283
-54.232	162.913	2539.299	3506.070
-53.217	114.103	2134.794	2553.618
-52.203	44.337	1599.722	1443.906
-51.188	35.979	1338.825	1158.374
-50.173	32.654	1297.244	1102.935
-49.159	54.443	1343.902	1272.771
-48.144	56.539	1361.137	1301.517
-47.130	35.968	1319.938	1141.789
-46.115	32.472	1302.979	1106.562
-45.100	32.353	1297.722	1101.362
-44.086	32.322	1295.011	1098.833
-43.071	32.266	1292.599	1096.416
-42.057	32.145	1291.091	1094.391
-41.042	32.139	1289.363	1092.844
-40.027	32.306	1287.483	1092.181
-39.013	32.186	1285.825	1090.035
-37.998	32.204	1283.709	1088.304
-36.984	32.336	1282.024	1087.595
-35.969	32.345	1280.454	1086.270
-34.954	32.381	1278.816	1085.043
-33.940	32.351	1277.330	1083.567
-32.925	32.388	1276.093	1082.686
-31.911	32.363	1274.536	1081.182
-30.896	32.397	1272.925	1079.966
-29.881	32.461	1271.486	1079.072
-28.867	32.428	1270.392	1077.908
-27.852	32.337	1269.115	1076.262
-26.838	32.324	1267.668	1074.918
-25.823	32.491	1266.029	1074.442
-24.809	32.425	1265.057	1073.195
-23.794	32.374	1263.720	1071.727
-22.779	32.481	1262.106	1070.924
-21.765	32.390	1261.085	1069.501
-20.750	32.487	1259.269	1068.470
-19.736	32.307	1258.131	1066.439
-18.721	32.239	1257.570	1065.533
-17.706	32.324	1255.975	1064.622
-16.692	32.257	1254.931	1063.317
-15.677	32.149	1253.966	1061.846
-14.663	32.347	1252.475	1061.656
-13.648	32.367	1251.059	1060.531
-12.633	32.267	1250.796	1059.703
-11.619	32.304	1249.558	1058.819
-10.604	32.191	1249.175	1057.818
-9.590	32.212	1248.086	1056.968
-8.575	32.101	1247.154	1055.512
-7.560	32.160	1246.221	1055.015
-6.546	32.164	1245.222	1054.147
-5.531	32.308	1244.095	1053.959
-4.517	32.306	1242.832	1052.837
-3.502	32.323	1242.452	1052.571
-2.487	32.224	1241.764	1051.392
-1.473	32.262	1237.706	1048.125
-0.458	30.899	1223.158	1028.247
0.556	27.904	1206.035	991.710
1.571	24.388	1211.726	977.084
2.586	23.470	1226.779	984.043
3.600	23.142	1215.846	973.378
4.615	17.016	1143.011	883.202
5.629	6.819	1066.964	774.587
6.644	2.405	1046.050	738.084
7.659	2.074	1043.638	734.722
8.673	2.040	1042.507	733.699
9.688	1.971	1041.040	732.270
10.702	2.449	1039.638	733.508
11.717	8.900	1049.210	771.314
12.731	19.134	1063.087	831.101
13.746	24.047	1069.631	859.940
14.761	25.202	1070.690	866.297
15.775	25.210	1070.329	865.967
16.790	25.091	1069.457	864.610
17.804	24.975	1068.936	863.555
18.819	25.115	1068.434	863.748
19.834	25.208	1067.973	863.743
20.848	25.350	1067.787	864.200
21.863	25.228	1067.280	863.129
22.877	25.113	1066.889	862.181
23.892	25.090	1065.661	861.002
24.907	25.124	1065.381	860.865
25.921	25.260	1063.679	860.062
26.936	25.223	1062.948	859.220
27.950	25.027	1061.137	856.745
28.965	24.894	1059.731	854.899
29.980	25.085	1058.157	854.464
30.994	25.263	1057.442	854.656
32.009	25.272	1055.908	853.386
33.023	25.063	1054.940	851.533
34.038	25.156	1054.176	851.285
35.053	25.080	1053.741	850.494
36.067	25.169	1052.915	850.177
37.082	25.437	1051.980	850.617
38.096	25.445	1051.309	850.037
39.111	25.570	1050.849	850.178
40.126	25.340	1049.354	847.807
41.140	25.000	1048.022	845.051
42.155	24.822	1046.277	842.732
43.169	24.791	1045.539	841.919
44.184	24.885	1044.524	841.467
45.199	24.689	1043.628	839.751
46.213	24.820	1042.578	839.448
47.228	24.965	1042.152	839.708
48.242	24.993	1041.702	839.404
49.257	25.133	1040.947	839.375
50.271	25.156	1040.302	838.892
51.286	25.297	1039.225	838.606
52.301	25.340	1037.973	837.722
53.315	25.249	1037.382	836.747
54.330	25.091	1036.385	835.134
55.344	25.153	1035.635	834.742
56.359	25.116	1034.629	833.685
57.374	25.042	1033.702	832.521
58.388	24.960	1032.869	831.397
59.403	24.889	1032.219	830.468
60.417	24.678	1031.398	828.758
61.432	24.809	1031.011	828.980
62.447	25.068	1029.990	829.285
63.461	25.026	1029.648	828.740
64.476	24.952	1028.743	827.600
65.490	24.814	1027.538	825.920
66.505	24.885	1026.985	825.731
67.520	24.965	1026.691	825.790
68.534	24.807	1024.935	823.574
69.549	24.407	1024.272	821.129
70.563	24.487	1023.168	820.541
71.578	24.412	1022.813	819.836
72.593	24.310	1021.647	818.363
73.607	24.470	1021.056	818.553
74.622	24.749	1020.700	819.471
75.636	24.760	1020.085	818.953
76.651	24.512	1019.215	817.048
77.666	24.632	1018.061	816.601
78.680	24.617	1017.713	816.183
79.695	24.607	1017.395	815.809
80.709	24.920	1016.331	816.311
81.724	24.715	1015.942	814.990
82.739	24.831	1015.208	814.856
83.753	25.268	1014.845	816.485
84.768	25.536	1014.134	817.057
85.782	25.571	1013.178	816.372
86.797	25.609	1011.904	815.446
87.812	25.388	1011.242	813.843
88.826	25.306	1010.008	812.405
89.841	25.582	1009.308	813.019
90.855	25.500	1008.360	811.812
91.870	25.505	1007.958	811.439
92.884	25.422	1006.142	809.532
93.899	25.346	1005.361	808.488
94.914	25.535	1004.631	808.679
95.928	25.300	1003.760	806.851
96.943	25.162	1002.493	805.143
97.957	24.866	1001.500	802.947
98.972	24.697	1000.202	801.077
99.987	24.878	1000.036	801.682
101.001	25.229	999.125	802.451
102.016	25.230	998.234	801.669
103.030	25.037	997.299	799.987
104.045	24.903	996.522	798.694
105.060	24.778	995.541	797.282
106.074	24.967	994.983	797.607
107.089	25.274	994.248	798.314
108.103	25.334	993.083	797.573
109.118	24.948	991.895	794.833
110.133	25.009	990.765	794.129
111.147	24.622	989.971	791.708
112.162	24.702	988.576	790.875
113.176	24.908	988.591	791.731
114.191	24.771	987.979	790.563
115.206	24.427	986.692	787.945
116.220	24.499	985.840	787.514
117.235	24.657	985.021	787.483
118.249	24.593	984.568	786.773
119.264	24.530	983.605	785.654
120.279	24.505	983.087	785.064
121.293	24.663	982.319	785.074
122.308	24.617	981.621	784.243
123.322	24.612	980.229	783.039
124.337	24.362	978.611	780.586
125.352	23.841	977.186	777.103
126.366	23.812	976.844	776.634
127.381	24.666	976.500	780.023
128.395	25.230	975.857	781.898
129.410	25.164	975.057	780.900
130.424	25.221	973.913	780.161
131.439	25.198	973.184	779.409
132.454	25.137	971.836	777.998
133.468	25.075	971.049	777.028
134.483	25.297	970.423	777.419
135.497	25.387	969.697	777.162
136.512	25.387	968.886	776.439
137.527	25.450	967.919	775.869
138.541	25.414	967.606	775.393
139.556	25.425	966.932	774.833
140.570	25.452	966.415	774.469
141.585	25.569	964.875	773.669
142.600	25.374	964.287	772.289
143.614	25.695	963.009	772.576
144.629	25.757	962.514	772.374
145.643	25.701	960.962	770.823
146.658	25.382	960.118	768.711
147.673	25.303	958.994	767.409
148.687	25.251	958.328	766.585
149.702	25.098	957.391	765.112
150.716	25.145	956.279	764.357
151.731	25.417	955.387	764.736
152.746	25.494	955.096	764.763
153.760	25.568	954.718	764.707
154.775	25.635	954.160	764.477
155.789	25.597	953.025	763.339
156.804	25.537	952.308	762.444
157.819	25.658	951.510	762.249
158.833	25.768	950.615	761.931
159.848	25.759	949.783	761.159
160.862	25.707	948.364	759.731
161.877	25.661	947.604	758.862
162.892	25.585	946.606	757.678
163.906	25.614	945.476	756.825
164.921	25.742	944.478	756.498
165.935	25.560	944.055	755.329
166.950	25.511	943.054	754.257
167.964	25.552	941.870	753.414
168.979	25.353	940.947	751.777
169.994	25.456	940.050	751.425
171.008	25.601	939.825	751.785
172.023	25.562	938.740	750.687
173.037	25.419	937.185	748.781
174.052	25.181	936.723	747.353
175.067	25.373	935.860	747.397
176.081	25.508	935.242	747.398
177.096	25.415	934.868	746.648
178.110	25.027	933.933	744.224
179.125	24.897	933.118	742.967
180.140	24.978	933.047	743.181
181.154	25.041	933.018	743.357
182.169	25.340	932.826	744.375
183.183	25.579	932.092	744.715
184.198	25.342	931.089	742.868
185.213	25.398	930.626	742.664
186.227	25.563	929.601	742.462
187.242	25.462	929.107	741.584
188.256	25.613	928.465	741.628
189.271	25.652	928.028	741.377
190.286	25.365	926.218	738.682
191.300	24.679	925.408	735.152
192.315	23.965	923.548	730.676
193.329	23.937	923.718	730.630
194.344	24.833	923.922	734.409
195.359	25.418	923.660	736.534
196.373	25.610	923.028	736.753
197.388	25.459	922.365	735.539
198.402	25.430	921.957	735.028
199.417	25.475	921.281	734.611
200.432	25.224	920.392	732.811
201.446	25.010	919.911	731.491
202.461	25.002	919.129	730.771
203.475	24.250	917.154	726.074
204.490	23.572	915.597	722.018
205.504	24.519	915.658	725.855
206.519	25.041	915.811	728.032
207.534	25.175	915.262	728.077
208.548	25.512	915.717	729.741
209.563	25.318	914.358	727.808
210.577	25.274	914.054	727.322
211.592	25.703	913.484	728.541
212.607	25.724	912.515	727.790
213.621	25.663	912.244	727.263
214.636	25.604	911.720	726.542
215.650	25.454	910.850	725.179
216.665	25.645	910.393	725.521
217.680	25.702	909.583	725.041
218.694	25.256	908.181	722.065
219.709	25.030	907.530	720.577
220.723	25.322	907.213	721.435
221.738	25.507	906.420	721.480
222.753	25.366	906.190	720.671
223.767	25.709	905.416	721.364
224.782	25.860	904.939	721.526
225.796	25.837	904.197	720.777
226.811	25.004	903.341	716.703
227.826	24.432	901.998	713.286
228.840	24.620	901.615	713.670
229.855	24.708	900.865	713.367
230.869	24.292	899.600	710.643
231.884	24.683	900.025	712.474
232.899	25.425	899.994	715.342
233.913	25.456	899.042	714.647
234.928	25.394	898.188	713.659
235.942	25.412	897.537	713.151
236.957	25.072	896.645	711.030
237.972	24.962	896.356	710.299
238.986	25.235	895.901	710.957
240.001	25.090	895.466	709.976
241.015	25.166	894.934	709.793
242.030	25.406	894.457	710.301
243.045	25.443	894.152	710.140
244.059	25.580	893.407	710.030
245.074	25.484	892.420	708.803
246.088	25.023	891.835	706.459
247.103	25.321	891.760	707.511
248.117	25.994	891.282	709.717
249.132	26.141	891.193	710.161
250.147	26.350	889.902	709.894
251.161	26.371	890.253	710.193
252.176	26.022	890.289	708.788
253.190	26.353	888.913	708.927
254.205	26.525	888.732	709.396
255.220	26.487	887.899	708.517
256.234	26.336	887.435	707.495
257.249	26.345	886.363	706.613
258.263	26.313	885.885	706.043
259.278	26.547	885.068	706.243
260.293	26.353	884.640	705.081
261.307	26.425	883.680	704.533
262.322	26.112	883.175	702.852
263.336	25.395	881.049	698.312
264.351	24.401	879.141	692.877
265.366	24.435	878.916	692.774
266.380	25.606	879.812	697.964
267.395	26.077	879.540	699.514
268.409	26.075	878.628	698.717
269.424	26.151	878.288	698.679
270.439	26.128	877.908	698.227
271.453	26.311	877.361	698.437
272.468	26.551	877.177	699.157
273.482	26.399	877.044	698.402
274.497	26.122	875.222	695.822
275.512	25.692	874.501	693.528
276.526	26.101	874.857	695.327
277.541	26.397	873.929	695.668
278.555	25.951	873.173	693.291
279.570	25.896	872.350	692.363
280.585	26.106	871.717	692.605
281.599	26.062	870.651	691.530
282.614	25.429	869.853	688.410
283.628	25.406	869.397	687.901
284.643	25.814	869.016	689.098
285.657	25.399	867.676	686.388
286.672	25.190	867.236	685.180
287.687	25.635	867.159	686.757
288.701	25.757	866.602	686.724
289.716	25.620	865.460	685.237
290.730	25.327	865.184	683.840
291.745	25.145	864.047	682.189
292.760	25.396	863.717	682.820
293.774	26.436	864.579	687.397
294.789	26.758	864.243	688.294
295.803	26.704	863.449	687.396
296.818	26.708	862.937	686.941
297.833	26.438	861.393	684.629
298.847	26.205	860.930	683.319
299.862	26.501	860.974	684.412
300.876	26.791	860.562	685.123
301.891	26.715	859.840	684.200
302.906	26.229	859.099	681.717
303.920	26.415	858.590	681.954
304.935	26.704	858.234	682.698
305.949	26.582	857.886	681.903
306.964	26.462	857.199	680.842
307.979	26.470	856.681	680.402
308.993	26.932	856.851	682.216
310.008	26.783	855.643	680.633
311.022	26.521	855.292	679.312
312.037	26.370	854.508	678.062
313.052	26.178	853.298	676.322
314.066	25.282	851.906	671.805
315.081	24.971	851.305	670.109
316.095	25.829	851.559	673.461
317.110	26.430	851.033	675.230
318.125	25.512	849.552	670.572
319.139	24.392	848.431	665.453
320.154	24.463	847.905	665.246
321.168	25.457	848.723	669.534
322.183	26.150	848.694	672.032
323.197	26.324	847.903	671.993
324.212	26.416	847.711	672.123
325.227	26.530	847.441	672.274
326.241	26.502	846.433	671.310
327.256	26.313	846.051	670.249
328.270	26.188	844.958	668.861
329.285	25.927	844.746	667.668
330.300	25.736	843.610	666.005
331.314	26.037	843.323	666.828
332.329	26.456	843.390	668.375
333.343	26.646	843.067	668.760
334.358	26.512	842.568	667.811
335.373	26.577	842.089	667.611
336.387	26.972	842.266	669.149
337.402	26.967	842.151	668.979
338.416	26.873	841.892	668.369
339.431	27.001	841.868	668.760
340.446	27.225	841.117	668.931
341.460	27.101	840.021	667.543
342.475	26.861	840.164	666.714
343.489	27.093	839.511	666.991
344.504	27.303	839.481	667.677
345.519	27.450	839.024	667.795
346.533	27.511	838.401	667.463
347.548	27.484	838.025	667.008
348.562	27.360	837.398	665.996
349.577	27.193	836.986	664.999
350.592	27.285	836.193	664.643
351.606	27.158	835.725	663.749
352.621	27.148	834.551	662.720
353.635	27.230	833.855	662.411
354.650	26.549	832.039	658.431
355.665	25.636	830.562	653.890
356.679	25.971	830.785	655.223
357.694	26.292	830.652	656.228
358.708	26.239	829.930	655.405
359.723	26.633	830.074	656.890
360.738	27.070	828.862	657.456
361.752	27.090	828.909	657.509
362.767	27.479	828.426	658.472
363.781	27.667	828.557	659.197
364.796	27.617	828.464	658.886
365.810	27.756	827.703	658.725
366.825	27.638	827.218	657.855
367.840	27.482	825.844	656.141
368.854	27.037	825.691	654.360
369.869	27.072	825.558	654.320
370.883	27.084	824.613	653.559
371.898	27.046	824.054	652.921
372.913	26.995	823.982	652.622
373.927	27.316	823.394	653.250
374.942	27.486	822.727	653.276
375.956	27.392	822.990	653.089
376.971	27.569	822.509	653.283
377.986	27.741	821.963	653.409
379.000	27.718	820.916	652.434
380.015	27.522	820.536	651.373
381.029	27.581	820.027	651.125
382.044	27.550	819.919	650.871
383.059	27.780	818.908	650.831
384.073	27.864	818.394	650.663
385.088	27.704	817.958	649.689
386.102	27.592	817.178	648.613
387.117	27.423	816.439	647.367
388.132	27.053	815.511	645.263
389.146	26.586	814.491	642.739
390.161	27.068	814.297	644.239
391.175	27.560	814.679	646.230
392.190	27.214	813.021	643.634
393.205	25.660	810.929	636.430
394.219	24.241	809.765	630.444
395.234	24.049	809.481	629.488
396.248	25.861	810.453	636.598
397.263	27.293	811.692	642.577
398.278	27.276	810.887	641.823
399.292	26.948	810.436	640.252
400.307	27.025	809.886	640.032
401.321	27.223	809.457	640.333
402.336	27.525	809.425	641.315
403.350	27.840	809.574	642.483
404.365	28.246	809.058	643.447
405.380	28.442	808.935	643.978
406.394	28.669	808.157	644.098
407.409	28.490	807.859	643.179
408.423	28.394	807.585	642.567
409.438	28.274	807.564	642.072
410.453	28.442	806.808	642.002
411.467	28.429	806.177	641.398
412.482	28.351	805.924	640.867
413.496	28.461	805.670	640.993
414.511	28.598	804.952	640.843
415.526	28.418	804.818	640.050
416.540	28.084	804.328	638.440
417.555	28.000	803.113	637.123
418.569	28.154	803.086	637.586
419.584	27.977	802.164	636.181
420.599	27.935	801.559	635.499
421.613	111.526	1285.590	1458.074
422.628	96.277	1356.125	1458.187
