DTS Sentinel unit serial number:	SN413079Multiplexer serial number:	ORYXHardware model number:	OX4-SRSoftware version number:	ORYX F/W v4.00 Oryx Data Collector v3.7.2.0data status	okinstallation	princeton_trtdifferential loss correction	single-endedforward channel	channel 1reverse channel	N/Adate	2019/09/15time	01:34:35forward acquisition time	60.00reverse acquisition time	0.00gamma	496.2192k internal	0.2322k external	0.2322temperature offset calibration	0.9983default loss term (dB/km)	0.3790temperature slope calibration	1.0000multiplexer offset coefficient	1.0000multiplexer slope coefficient	1.0000fibre end	0.00T internal ref (°C)	31.86T ext. ref 1 (°C)	4.52T ext. ref 2 (°C)	26.72length (m)	temperature (°C)	Stokes	anti-Stokes-747.200	-21.439	-0.137	-0.085
-746.185	20.172	-0.177	0.144
-745.171	-33.648	-0.432	-0.241
-744.156	450.442	0.046	-0.103
-743.142	186.551	-0.136	0.205
-742.127	-40.235	-0.381	0.200
-741.112	800.000	-0.108	0.341
-740.098	-122.670	-0.315	-0.052
-739.083	91.889	-0.319	-0.362
-738.069	89.655	-0.235	0.265
-737.054	-164.540	0.216	0.010
-736.039	322.355	-0.184	-0.354
-735.025	-104.212	0.292	0.068
-734.010	-78.720	-0.318	0.110
-732.996	120.492	0.163	-0.204
-731.981	-14.020	0.116	0.076
-730.966	-200.000	0.003	0.137
-729.952	-112.310	0.222	0.045
-728.937	800.000	0.074	0.244
-727.923	-111.287	-0.145	0.030
-726.908	86.759	-0.119	-0.132
-725.894	-200.000	0.006	-0.272
-724.879	-81.974	-0.226	0.075
-723.864	-150.823	0.145	-0.011
-722.850	800.000	-0.056	-0.167
-721.835	-110.277	-0.393	-0.083
-720.821	-102.805	-0.315	-0.076
-719.806	-200.000	-0.002	0.057
-718.791	-149.008	0.198	-0.016
-717.777	-100.419	0.160	0.040
-716.762	-79.145	0.075	0.026
-715.748	-200.000	-0.087	-0.481
-714.733	-200.000	-0.040	-0.232
-713.718	800.000	-0.122	-0.437
-712.704	-57.260	-0.079	-0.035
-711.689	-54.262	0.147	0.067
-710.675	-124.216	0.203	0.032
-709.660	84.730	0.208	0.230
-708.645	-8.322	-0.159	-0.108
-707.631	-64.417	-0.409	-0.168
-706.616	-34.106	-0.482	0.267
-705.602	-200.000	-0.012	0.065
-704.587	115.355	-0.145	0.179
-703.572	122.659	0.015	-0.019
-702.558	411.679	-0.095	0.203
-701.543	800.000	-0.046	0.195
-700.529	464.664	-0.121	-0.272
-699.514	-94.151	0.232	0.064
-698.499	48.599	0.167	0.158
-697.485	-117.695	-0.249	-0.045
-696.470	800.000	0.085	-0.367
-695.456	-200.000	0.025	0.146
-694.441	-200.000	0.014	-0.233
-693.426	-110.040	0.044	0.009
-692.412	-200.000	-0.034	-0.307
-691.397	-166.755	0.221	-0.009
-690.383	74.226	0.290	-0.307
-689.368	34.989	0.220	-0.194
-688.354	-13.574	-0.287	0.187
-687.339	105.049	-0.197	0.235
-686.324	-200.000	-0.000	0.009
-685.310	425.738	-0.170	-0.369
-684.295	153.484	-0.145	0.201
-683.281	-179.668	0.292	0.006
-682.266	593.844	0.092	0.229
-681.251	800.000	0.038	-0.126
-680.237	635.318	-0.008	0.022
-679.222	-18.631	0.142	-0.089
-678.208	-5.581	-0.261	0.180
-677.193	-200.000	-0.003	0.236
-676.178	-128.651	-0.476	0.068
-675.164	-69.035	0.074	-0.029
-674.149	267.603	0.163	0.287
-673.135	65.095	-0.145	0.147
-672.120	118.597	0.123	-0.154
-671.105	-93.448	-0.256	0.072
-670.091	238.777	-0.133	-0.223
-669.076	-152.519	0.379	-0.027
-668.062	800.000	0.019	-0.066
-667.047	-200.000	0.023	-0.262
-666.032	135.954	-0.169	-0.222
-665.018	-33.628	0.386	-0.215
-664.003	-139.251	0.142	0.015
-662.989	-134.794	-0.103	0.013
-661.974	-169.653	0.119	-0.004
-660.959	34.073	-0.131	-0.115
-659.945	-167.979	0.287	-0.011
-658.930	317.974	-0.206	-0.393
-657.916	394.989	0.193	0.404
-656.901	-70.652	0.388	-0.148
-655.886	50.803	0.231	-0.221
-654.872	-21.575	0.112	-0.069
-653.857	244.547	-0.054	-0.091
-652.843	800.000	0.039	0.126
-651.828	800.000	0.071	-0.228
-650.814	-151.395	-0.182	-0.014
-649.799	800.000	0.017	0.069
-648.784	-69.783	0.134	-0.052
-647.770	-154.831	-0.105	-0.007
-646.755	21.784	0.067	0.055
-645.741	200.850	0.208	0.321
-644.726	-62.249	-0.381	-0.160
-643.711	235.696	0.032	-0.054
-642.697	80.493	0.163	-0.177
-641.682	666.048	-0.125	0.324
-640.668	-89.631	-0.261	-0.077
-639.653	-200.000	0.067	0.296
-638.638	153.374	0.042	0.058
-637.624	-86.873	0.308	0.095
-636.609	800.000	-0.067	0.255
-635.595	-125.066	-0.164	0.025
-634.580	-200.000	-0.049	-0.247
-633.565	-174.184	-0.136	0.004
-632.551	800.000	-0.065	-0.269
-631.536	-100.230	0.186	0.046
-630.522	-200.000	0.028	0.218
-629.507	-44.438	0.203	0.102
-628.492	-36.856	0.131	0.071
-627.478	-90.978	0.338	-0.098
-626.463	23.662	-0.101	-0.084
-625.449	-200.000	0.013	0.154
-624.434	-200.000	-0.031	0.228
-623.419	-200.000	-0.170	0.000
-622.405	-51.525	-0.108	0.051
-621.390	6.683	-0.081	-0.061
-620.376	-200.000	0.016	0.162
-619.361	-200.000	-0.017	-0.202
-618.346	800.000	0.075	-0.249
-617.332	326.794	-0.047	0.091
-616.317	-77.100	0.381	0.133
-615.303	-59.596	-0.379	-0.163
-614.288	298.265	0.067	0.124
-613.273	-18.933	0.378	0.237
-612.259	800.000	0.090	-0.265
-611.244	-200.000	-0.375	-0.002
-610.230	56.590	-0.110	-0.107
-609.215	6.370	-0.288	0.215
-608.201	77.155	-0.228	-0.244
-607.186	-79.472	-0.116	0.039
-606.171	-75.940	0.192	-0.068
-605.157	-93.551	0.121	0.034
-604.142	1.648	-0.280	-0.203
-603.128	218.997	-0.036	-0.058
-602.113	43.581	0.040	0.037
-601.098	96.377	-0.096	-0.110
-600.084	-200.000	0.007	-0.221
-599.069	-25.341	-0.187	0.111
-598.055	-4.511	0.118	0.082
-597.040	-200.000	0.010	0.194
-596.025	-88.190	0.013	0.004
-595.011	-83.830	-0.311	0.099
-593.996	-200.000	0.005	-0.029
-592.982	-59.837	-0.290	0.125
-591.967	-142.961	-0.179	-0.017
-590.952	-103.451	-0.072	0.017
-589.938	35.325	-0.050	-0.044
-588.923	129.811	-0.122	0.157
-587.909	-200.000	0.053	-0.233
-586.894	800.000	0.074	0.215
-585.879	297.262	-0.150	0.276
-584.865	-55.764	0.261	0.117
-583.850	435.489	0.100	0.219
-582.836	38.410	0.160	0.143
-581.821	800.000	-0.023	0.079
-580.806	42.671	-0.322	-0.295
-579.792	-200.000	0.031	-0.226
-578.777	26.982	-0.152	0.128
-577.763	273.105	-0.049	-0.087
-576.748	111.256	-0.060	0.072
-575.733	-118.868	0.353	-0.062
-574.719	-74.812	0.143	0.052
-573.704	120.472	-0.108	0.134
-572.690	488.018	0.087	-0.200
-571.675	-165.529	0.180	0.008
-570.661	800.000	0.028	0.080
-569.646	-39.950	0.045	-0.024
-568.631	308.954	-0.166	0.312
-567.617	-200.000	-0.017	0.138
-566.602	333.943	-0.160	-0.311
-565.588	-200.000	-0.021	0.217
-564.573	-200.000	-0.020	-0.096
-563.558	-135.956	0.123	0.015
-562.544	402.923	0.053	-0.112
-561.529	800.000	0.015	-0.054
-560.515	-106.662	-0.270	-0.060
-559.500	348.129	0.075	0.148
-558.485	-121.044	-0.066	0.011
-557.471	-91.560	-0.435	-0.124
-556.456	170.954	0.042	0.061
-555.442	-200.000	0.006	-0.073
-554.427	159.515	0.189	-0.263
-553.412	402.256	0.119	-0.252
-552.398	800.000	-0.121	-0.398
-551.383	26.675	-0.057	-0.048
-550.369	334.599	0.150	-0.291
-549.354	121.039	-0.107	-0.134
-548.339	-200.000	0.016	-0.139
-547.325	56.437	0.204	-0.199
-546.310	-200.000	0.044	-0.270
-545.296	-200.000	-0.015	-0.133
-544.281	-107.114	0.131	0.029
-543.266	-200.000	0.025	0.254
-542.252	-200.000	0.008	-0.145
-541.237	36.714	-0.213	-0.189
-540.223	-65.155	-0.214	0.086
-539.208	-200.000	-0.028	-0.167
-538.193	-85.551	0.377	-0.117
-537.179	71.707	0.212	-0.221
-536.164	-87.514	0.077	-0.023
-535.150	-200.000	0.016	-0.147
-534.135	280.872	-0.112	0.201
-533.121	82.542	-0.181	-0.197
-532.106	437.004	-0.012	0.026
-531.091	-55.324	0.253	-0.114
-530.077	-71.750	0.162	-0.061
-529.062	-105.627	-0.060	-0.014
-528.048	120.332	-0.076	-0.094
-527.033	-143.094	-0.158	-0.015
-526.018	-143.176	0.113	-0.011
-525.004	-159.410	-0.043	-0.002
-523.989	-20.139	-0.070	0.043
-522.975	265.307	-0.085	-0.149
-521.960	101.995	-0.189	-0.221
-520.945	266.473	0.251	0.439
-519.931	-142.048	-0.091	-0.009
-518.916	341.970	0.041	-0.080
-517.902	-46.161	0.171	-0.084
-516.887	-37.685	-0.128	-0.068
-515.872	69.696	-0.114	-0.117
-514.858	-104.743	0.148	0.034
-513.843	34.308	-0.221	-0.193
-512.829	-129.234	0.396	-0.055
-511.814	177.859	0.185	-0.270
-510.799	603.581	-0.087	-0.216
-509.785	-31.734	0.242	-0.136
-508.770	57.395	-0.148	-0.145
-507.756	-89.413	0.108	-0.032
-506.741	-83.895	0.330	-0.105
-505.726	-45.390	-0.217	-0.108
-504.712	157.909	-0.160	-0.222
-503.697	14.404	-0.121	-0.094
-502.683	-21.195	0.045	0.027
-501.668	-120.197	0.089	0.015
-500.653	-200.000	0.045	-0.375
-499.639	-200.000	-0.015	-0.148
-498.624	13.535	-0.184	-0.143
-497.610	20.302	0.139	0.112
-496.595	9.114	-0.101	0.076
-495.581	-200.000	0.009	0.093
-494.566	-160.116	0.270	0.015
-493.551	75.698	-0.345	-0.364
-492.537	506.941	0.080	0.187
-491.522	244.400	0.067	0.112
-490.508	209.874	-0.024	-0.037
-489.493	-200.000	0.050	0.309
-488.478	800.000	-0.051	-0.169
-487.464	24.380	0.211	-0.175
-486.449	60.093	-0.018	0.018
-485.435	-200.000	0.094	0.000
-484.420	-90.877	-0.104	0.030
-483.405	-27.553	-0.078	0.045
-482.391	800.000	-0.099	0.275
-481.376	-200.000	-0.005	-0.149
-480.362	-148.253	-0.128	-0.011
-479.347	-103.171	0.156	-0.037
-478.332	122.015	-0.192	0.240
-477.318	800.000	0.032	0.132
-476.303	-200.000	0.077	-0.384
-475.289	800.000	0.108	0.308
-474.274	-126.030	0.217	-0.033
-473.259	-200.000	-0.045	-0.283
-472.245	-200.000	-0.040	-0.446
-471.230	-103.145	-0.259	-0.061
-470.216	-2.327	-0.244	-0.171
-469.201	800.000	-0.084	-0.239
-468.186	-22.116	0.200	-0.121
-467.172	339.904	0.204	-0.398
-466.157	62.682	0.140	-0.140
-465.143	192.448	-0.153	-0.231
-464.128	-87.265	0.165	0.050
-463.113	-72.190	0.249	0.092
-462.099	-200.000	0.012	-0.064
-461.084	131.683	-0.174	0.224
-460.070	24.437	0.135	0.111
-459.055	-200.000	-0.047	0.356
-458.040	-110.449	-0.184	0.038
-457.026	-200.000	-0.017	0.345
-456.011	85.643	0.222	-0.243
-454.997	444.850	-0.053	-0.116
-453.982	-3.347	-0.445	0.309
-452.968	659.275	-0.108	0.277
-451.953	800.000	-0.079	-0.327
-450.938	43.889	0.093	0.085
-449.924	-40.049	0.234	0.122
-448.909	3.650	-0.125	0.091
-447.895	-73.989	0.195	0.071
-446.880	-35.915	0.287	-0.155
-445.865	494.976	-0.154	-0.354
-444.851	76.465	-0.149	-0.158
-443.836	21.353	0.071	0.057
-442.822	-200.000	-0.024	-0.167
-441.807	190.276	-0.176	0.265
-440.792	-0.414	-0.175	0.124
-439.778	800.000	-0.082	-0.260
-438.763	-143.915	0.300	0.028
-437.749	-200.000	-0.003	0.058
-436.734	-127.540	0.414	-0.060
-435.719	62.229	-0.051	-0.050
-434.705	25.005	0.028	-0.023
-433.690	-148.050	-0.176	-0.015
-432.676	-60.593	0.021	-0.009
-431.661	-101.911	0.435	-0.105
-430.646	-72.384	0.128	0.047
-429.632	-200.000	-0.024	0.106
-428.617	-200.000	-0.082	-0.430
-427.603	-152.365	0.182	-0.013
-426.588	-71.496	-0.240	0.090
-425.573	12.069	-0.247	-0.189
-424.559	-28.401	-0.067	0.038
-423.544	-143.486	-0.279	-0.027
-422.530	350.742	-0.036	0.071
-421.515	-200.000	0.066	0.332
-420.500	110.308	0.173	0.208
-419.486	-101.621	-0.265	0.064
-418.471	223.329	0.033	-0.053
-417.457	88.207	0.091	0.100
-416.442	-138.909	0.165	0.018
-415.428	-129.971	0.380	-0.052
-414.413	-49.662	0.044	-0.021
-413.398	800.000	-0.030	0.131
-412.384	-83.392	-0.099	-0.032
-411.369	800.000	-0.104	0.360
-410.355	-61.491	0.083	-0.035
-409.340	-200.000	-0.006	0.089
-408.325	160.486	-0.011	0.015
-407.311	621.458	0.112	-0.282
-406.296	-171.758	0.090	0.003
-405.282	-23.201	-0.080	-0.048
-404.267	71.593	-0.296	0.307
-403.252	50.843	0.216	0.204
-402.238	-200.000	0.031	-0.320
-401.223	-200.000	0.001	0.159
-400.209	36.676	-0.250	-0.220
-399.194	84.231	0.163	0.178
-398.179	-200.000	0.054	0.272
-397.165	49.032	0.060	-0.056
-396.150	703.104	0.096	-0.251
-395.136	2.024	0.178	-0.128
-394.121	-18.292	-0.215	0.134
-393.106	232.156	0.111	0.181
-392.092	800.000	-0.144	0.431
-391.077	50.305	0.360	-0.339
-390.063	148.877	-0.191	0.258
-389.048	117.620	0.047	-0.058
-388.033	-200.000	-0.027	-0.428
-387.019	-92.070	-0.113	0.032
-386.004	522.787	-0.071	0.166
-384.990	-171.349	0.254	0.008
-383.975	800.000	0.166	-0.486
-382.960	426.632	0.037	0.079
-381.946	-200.000	0.007	0.144
-380.931	-52.397	-0.117	0.054
-379.917	109.052	-0.143	-0.170
-378.902	131.564	0.038	0.049
-377.888	-9.953	-0.217	-0.144
-376.873	-200.000	-0.003	0.117
-375.858	800.000	-0.032	-0.103
-374.844	462.313	-0.034	-0.075
-373.829	-200.000	-0.006	0.030
-372.815	800.000	0.163	0.687
-371.800	99.946	-0.156	0.181
-370.785	144.035	0.054	0.071
-369.771	337.375	-0.155	0.300
-368.756	9.125	-0.034	0.025
-367.742	800.000	0.110	0.395
-366.727	-109.256	0.246	0.052
-365.712	351.069	0.103	0.203
-364.698	-155.847	0.459	-0.029
-363.683	-82.094	-0.141	0.046
-362.669	-200.000	0.050	0.300
-361.654	128.284	-0.034	-0.043
-360.639	10.376	0.211	0.160
-359.625	-176.485	0.392	0.010
-358.610	-112.826	0.156	-0.031
-357.596	367.539	0.036	-0.072
-356.581	122.238	-0.138	0.171
-355.566	-44.216	0.169	-0.084
-354.552	493.230	-0.092	-0.209
-353.537	-72.462	-0.396	-0.146
-352.523	629.714	-0.074	0.185
-351.508	655.457	0.192	-0.492
-350.493	-48.556	-0.167	0.080
-349.479	-35.827	0.295	-0.159
-348.464	188.672	-0.123	-0.183
-347.450	273.162	-0.171	0.301
-346.435	800.000	0.058	-0.171
-345.420	-5.599	-0.304	-0.208
-344.406	-200.000	-0.009	0.061
-343.391	90.376	0.249	-0.278
-342.377	283.843	0.103	0.183
-341.362	149.519	-0.079	0.106
-340.348	-8.021	-0.423	0.284
-339.333	-92.576	-0.043	0.012
-338.318	-200.000	-0.019	-0.187
-337.304	156.722	-0.153	-0.210
-336.289	-128.207	0.321	-0.046
-335.275	535.791	0.070	-0.166
-334.260	-91.499	-0.317	0.090
-333.245	-94.080	-0.478	-0.130
-332.231	-72.447	0.128	-0.047
-331.216	-109.335	0.029	-0.006
-330.202	-200.000	0.000	0.127
-329.187	46.351	-0.255	0.235
-328.172	-147.135	-0.138	0.012
-327.158	-23.467	0.028	0.017
-326.143	-37.107	-0.309	0.164
-325.129	-200.000	0.006	0.041
-324.114	-52.950	-0.191	-0.087
-323.099	-200.000	0.136	0.615
-322.085	800.000	-0.069	-0.193
-321.070	51.328	-0.197	0.186
-320.056	-154.262	-0.177	0.012
-319.041	416.445	-0.032	0.067
-318.026	-200.000	0.112	0.706
-317.012	-54.394	-0.130	-0.058
-315.997	2.680	0.296	-0.213
-314.983	800.000	-0.070	-0.260
-313.968	88.607	0.308	-0.340
-312.953	-200.000	-0.010	-0.309
-311.939	65.072	-0.147	-0.147
-310.924	49.442	-0.072	0.068
-309.910	-200.000	0.020	0.120
-308.895	-40.214	-0.131	0.068
-307.880	-193.620	0.315	-0.003
-306.866	243.018	0.144	-0.240
-305.851	-155.579	-0.279	-0.018
-304.837	630.395	-0.084	0.212
-303.822	-96.230	0.320	0.084
-302.807	-172.894	0.275	-0.008
-301.793	177.819	-0.117	0.169
-300.778	-200.000	0.028	-0.124
-299.764	-87.071	-0.227	-0.069
-298.749	-200.000	-0.037	0.171
-297.735	55.937	-0.263	0.253
-296.720	-200.000	-0.012	0.055
-295.705	-8.509	0.194	0.129
-294.691	-79.953	0.077	0.026
-293.676	-60.449	-0.344	-0.145
-292.662	9.379	-0.017	0.012
-291.647	3.206	0.341	0.246
-290.632	54.633	-0.172	0.165
-289.618	-200.000	0.023	0.236
-288.603	-72.945	0.048	0.017
-287.589	228.053	0.031	-0.051
-286.574	-109.502	-0.048	0.010
-285.559	477.041	0.025	-0.057
-284.545	38.389	-0.133	0.118
-283.530	335.599	-0.176	-0.339
-282.516	-108.978	0.192	-0.041
-281.501	15.349	-0.126	-0.098
-280.486	11.863	0.143	0.109
-279.472	800.000	0.019	0.052
-278.457	-117.445	-0.435	-0.078
-277.443	46.460	-0.183	-0.169
-276.428	683.639	0.065	0.168
-275.413	-66.606	-0.075	0.029
-274.399	70.383	-0.080	-0.082
-273.384	534.154	-0.008	-0.018
-272.370	132.533	0.202	0.259
-271.355	-35.942	0.411	0.221
-270.340	-59.982	0.194	-0.082
-269.326	115.658	-0.188	-0.228
-268.311	51.223	0.260	-0.245
-267.297	-40.904	-0.398	0.204
-266.282	-200.000	-0.050	-0.531
-265.267	585.817	0.118	-0.289
-264.253	-61.218	0.178	0.074
-263.238	-98.413	-0.217	-0.055
-262.224	111.105	0.186	0.222
-261.209	15.968	0.292	0.228
-260.195	266.109	0.109	0.189
-259.180	279.630	0.028	0.050
-258.165	-200.000	0.007	0.148
-257.151	170.953	0.228	-0.324
-256.136	-200.000	0.053	-0.340
-255.122	-157.689	-0.106	-0.006
-254.107	800.000	-0.107	0.337
-253.092	800.000	-0.088	-0.320
-252.078	75.157	0.119	-0.124
-251.063	22.088	-0.182	0.147
-250.049	-200.000	-0.025	0.161
-249.034	152.699	-0.082	0.112
-248.019	-106.266	0.082	0.018
-247.005	-42.764	-0.129	0.065
-245.990	-52.284	0.115	-0.053
-244.976	350.975	-0.149	-0.292
-243.961	225.195	-0.175	0.280
-242.946	273.331	-0.113	-0.198
-241.932	800.000	-0.076	-0.290
-240.917	800.000	-0.049	0.148
-239.903	-14.423	-0.246	-0.157
-238.888	-25.550	-0.232	0.136
-237.873	-138.066	0.181	-0.020
-236.859	72.164	-0.084	-0.086
-235.844	-76.722	-0.126	-0.044
-234.830	18.141	0.163	0.129
-233.815	-30.116	0.251	0.142
-232.800	-52.271	-0.127	-0.058
-231.786	-200.000	-0.019	0.108
-230.771	112.786	-0.253	0.304
-229.757	-200.000	-0.006	-0.081
-228.742	-197.090	0.094	-0.001
-227.727	52.485	0.036	-0.034
-226.713	-101.385	0.081	0.019
-225.698	800.000	0.137	0.423
-224.684	-66.685	-0.205	0.080
-223.669	800.000	-0.075	0.228
-222.655	-200.000	-0.030	0.399
-221.640	800.000	0.132	0.390
-220.625	800.000	0.133	0.405
-219.611	569.339	0.073	-0.175
-218.596	479.359	-0.142	0.318
-217.582	-152.419	0.084	-0.006
-216.567	216.480	-0.146	0.230
-215.552	-103.559	-0.259	0.060
-214.538	-114.751	-0.400	-0.076
-213.523	26.939	0.224	-0.185
-212.509	800.000	-0.106	-0.374
-211.494	-200.000	0.000	-0.251
-210.479	-200.000	-0.000	-0.187
-209.465	-152.584	0.185	-0.013
-208.450	59.852	-0.060	0.059
-207.436	-57.238	0.217	0.094
-206.421	800.000	0.039	0.112
-205.406	69.541	0.161	0.164
-204.392	88.142	-0.124	-0.136
-203.377	153.222	-0.061	0.083
-202.363	-179.114	-0.268	-0.006
-201.348	-103.165	0.251	-0.059
-200.333	192.528	-0.153	0.228
-199.319	-88.213	0.170	0.050
-198.304	724.348	0.073	0.192
-197.290	454.024	0.079	-0.173
-196.275	800.000	0.066	-0.253
-195.260	-102.590	0.290	-0.068
-194.246	-39.561	0.342	0.177
-193.231	-126.812	0.295	0.043
-192.217	-84.470	-0.158	-0.049
-191.202	145.325	0.056	-0.074
-190.187	-200.000	-0.005	0.035
-189.173	-67.420	0.263	0.102
-188.158	-96.748	-0.225	-0.059
-187.144	800.000	0.078	0.231
-186.129	-144.769	0.092	0.008
-185.114	-200.000	0.000	-0.045
-184.100	-54.611	-0.093	0.042
-183.085	3.078	-0.065	-0.047
-182.071	-90.070	0.098	-0.028
-181.056	63.201	-0.199	0.197
-180.042	75.426	0.063	0.066
-179.027	123.842	0.133	-0.165
-178.012	385.478	0.080	-0.163
-176.998	219.607	-0.097	-0.153
-175.983	-99.113	0.317	0.079
-174.969	-80.498	-0.131	-0.043
-173.954	-200.000	0.012	-0.173
-172.939	-200.000	-0.030	-0.456
-171.925	-200.000	-0.014	-0.268
-170.910	800.000	-0.121	-0.383
-169.896	-200.000	0.029	0.297
-168.881	-54.678	-0.082	-0.037
-167.866	196.334	0.177	-0.266
-166.852	-39.451	0.235	0.122
-165.837	-80.145	0.177	-0.059
-164.823	-114.888	0.235	-0.044
-163.808	33.279	0.141	-0.121
-162.793	-64.743	-0.237	0.095
-161.779	-200.000	0.064	0.294
-160.764	22.412	0.249	0.201
-159.750	-200.000	-0.083	0.377
-158.735	-72.150	-0.243	0.089
-157.720	-92.322	0.137	0.038
-156.706	800.000	-0.047	-0.203
-155.691	-42.422	-0.177	0.089
-154.677	-27.554	-0.476	0.273
-153.662	-80.442	0.251	0.083
-152.647	-16.196	0.213	0.134
-151.633	-200.000	-0.013	0.211
-150.618	-59.227	0.320	0.136
-149.604	91.410	0.228	0.253
-148.589	-79.784	0.134	0.045
-147.574	-30.182	0.200	-0.112
-146.560	-130.939	0.204	-0.027
-145.545	-39.760	0.169	0.087
-144.531	73.978	-0.190	0.196
-143.516	2.745	0.187	0.134
-142.502	-142.010	-0.062	-0.006
-141.487	-200.000	0.006	-0.097
-140.472	259.228	0.172	-0.294
-139.458	536.175	-0.113	-0.266
-138.443	462.887	-0.055	-0.121
-137.429	-1.992	-0.115	-0.080
-136.414	-133.189	-0.363	0.045
-135.399	83.476	0.243	0.262
-134.385	155.229	-0.089	0.120
-133.370	300.062	-0.068	0.123
-132.356	448.410	0.079	0.172
-131.341	-200.000	0.015	0.072
-130.326	-200.000	-0.038	-0.208
-129.312	-98.871	-0.304	0.076
-128.297	-35.214	0.329	-0.177
-127.283	-200.000	-0.056	-0.255
-126.268	66.216	0.084	-0.084
-125.253	800.000	-0.052	0.156
-124.239	-200.000	-0.036	-0.169
-123.224	-171.564	-0.141	0.005
-122.210	-81.180	0.177	-0.058
-121.195	-189.217	0.203	-0.002
-120.180	-48.966	-0.159	-0.075
-119.166	-67.356	0.222	-0.086
-118.151	84.084	-0.218	0.235
-117.137	-200.000	0.032	0.288
-116.122	-51.852	-0.062	-0.028
-115.107	562.682	-0.043	-0.103
-114.093	-200.000	0.016	-0.102
-113.078	-87.582	0.473	-0.141
-112.064	-72.801	-0.414	-0.150
-111.049	-39.224	-0.208	-0.108
-110.034	-112.323	0.265	0.052
-109.020	-200.000	0.033	0.275
-108.005	-168.246	0.151	0.006
-106.991	41.750	-0.020	0.018
-105.976	90.265	0.168	-0.185
-104.962	639.087	-0.111	-0.278
-103.947	6.054	-0.131	-0.096
-102.932	-55.168	0.090	0.040
-101.918	70.036	0.110	0.112
-100.903	800.000	-0.033	0.136
-99.889	84.600	0.433	-0.467
-98.874	-27.738	-0.139	0.079
-97.859	209.363	0.144	-0.222
-96.845	576.618	0.070	-0.168
-95.830	-188.105	0.414	-0.005
-94.816	304.740	0.123	0.226
-93.801	-108.954	-0.126	-0.026
-92.786	-35.686	0.158	0.084
-91.772	-58.775	-0.199	-0.085
-90.757	-112.111	0.331	-0.066
-89.743	800.000	0.080	-0.269
-88.728	8.013	-0.096	-0.071
-87.713	-51.244	0.116	0.053
-86.699	252.705	-0.173	-0.291
-85.684	800.000	-0.044	-0.158
-84.670	96.324	0.071	0.080
-83.655	156.564	-0.334	0.454
-82.640	166.828	-0.205	0.287
-81.626	3.819	0.116	-0.083
-80.611	-48.067	0.361	0.172
-79.597	165.239	-0.103	0.144
-78.582	-130.460	0.118	0.016
-77.567	48.093	0.131	0.121
-76.553	-102.905	0.153	-0.036
-75.538	-73.925	0.332	-0.119
-74.524	14.121	-0.152	-0.117
-73.509	-93.577	0.133	0.036
-72.494	-200.000	-0.035	-0.442
-71.480	150.080	-0.026	-0.035
-70.465	-34.813	0.210	-0.113
-69.451	42.801	-0.044	0.040
-68.436	-69.414	-0.212	-0.080
-67.422	-200.000	0.017	0.249
-66.407	49.990	-0.067	0.062
-65.392	-200.000	0.060	0.274
-64.378	800.000	0.055	0.236
-63.363	298.368	-0.070	0.126
-62.349	-74.437	0.231	-0.082
-61.334	8.006	-0.891	-0.657
-60.319	243.373	0.257	0.423
-59.305	693.965	-0.301	-0.776
-58.290	169.732	0.759	1.067
-57.276	451.376	0.659	1.432
-56.261	-200.000	96.086	597.206
-55.246	650.074	1373.405	3457.740
-54.232	199.347	2548.761	3842.669
-53.217	120.376	2138.064	2610.836
-52.203	43.901	1600.757	1442.032
-51.188	35.346	1338.892	1154.861
-50.173	32.213	1296.828	1100.227
-49.159	55.094	1344.322	1277.263
-48.144	57.293	1360.932	1306.068
-47.130	35.592	1319.959	1139.808
-46.115	32.057	1302.423	1103.881
-45.100	31.925	1297.007	1098.471
-44.086	31.746	1295.072	1095.745
-43.071	31.836	1292.627	1094.155
-42.057	31.730	1290.567	1091.752
-41.042	31.588	1289.160	1089.694
-40.027	31.719	1287.415	1088.937
-39.013	31.709	1285.604	1087.300
-37.998	31.820	1283.719	1086.308
-36.984	31.704	1282.564	1084.615
-35.969	31.962	1279.671	1083.619
-34.954	31.887	1278.550	1082.190
-33.940	31.920	1277.176	1081.178
-32.925	31.945	1275.589	1079.932
-31.911	31.932	1274.555	1078.941
-30.896	31.861	1273.349	1077.470
-29.881	32.030	1271.583	1076.902
-28.867	31.995	1270.230	1075.513
-27.852	32.074	1268.539	1074.488
-26.838	32.032	1267.512	1073.336
-25.823	31.997	1265.908	1071.734
-24.809	31.969	1264.550	1070.386
-23.794	31.914	1263.672	1069.286
-22.779	31.914	1262.255	1068.042
-21.765	32.014	1261.075	1067.570
-20.750	31.925	1259.474	1065.669
-19.736	31.849	1258.119	1064.049
-18.721	31.787	1257.197	1062.877
-17.706	31.795	1255.988	1061.854
-16.692	31.817	1254.838	1060.965
-15.677	31.743	1253.703	1059.546
-14.663	31.741	1252.818	1058.746
-13.648	31.853	1251.664	1058.360
-12.633	31.752	1250.787	1057.009
-11.619	31.743	1250.117	1056.345
-10.604	31.776	1249.104	1055.635
-9.590	31.817	1247.776	1054.702
-8.575	31.769	1246.937	1053.682
-7.560	31.821	1246.205	1053.313
-6.546	31.822	1245.110	1052.352
-5.531	31.762	1244.513	1051.470
-4.517	31.836	1243.368	1050.872
-3.502	31.755	1242.619	1049.747
-2.487	31.804	1241.851	1049.331
-1.473	31.841	1237.515	1045.831
-0.458	30.269	1222.850	1024.721
0.556	25.576	1205.368	987.636
1.571	21.866	1211.047	971.687
2.586	20.855	1226.331	978.189
3.600	20.402	1214.957	966.510
4.615	15.487	1144.151	884.282
5.629	8.004	1071.484	791.012
6.644	4.705	1052.260	760.645
7.659	4.513	1049.769	757.837
8.673	4.403	1048.874	756.587
9.688	4.470	1047.215	755.650
10.702	4.531	1045.849	754.896
11.717	8.863	1051.678	780.160
12.731	15.848	1061.390	821.498
13.746	18.666	1063.809	837.063
14.761	17.999	1062.439	832.664
15.775	16.839	1060.453	825.386
16.790	15.880	1058.275	818.953
17.804	15.086	1057.138	814.143
18.819	14.700	1055.922	811.261
19.834	14.512	1055.007	809.569
20.848	14.406	1053.991	808.208
21.863	14.089	1053.138	805.943
22.877	13.834	1052.886	804.444
23.892	14.041	1051.757	804.510
24.907	14.003	1050.825	803.543
25.921	14.028	1049.981	802.951
26.936	14.132	1048.455	802.215
27.950	14.033	1047.357	800.822
28.965	14.191	1045.539	800.121
29.980	14.296	1044.093	799.451
30.994	14.317	1043.093	798.715
32.009	14.329	1042.285	798.080
33.023	14.240	1041.272	796.811
34.038	14.143	1040.390	795.603
35.053	14.031	1039.463	794.285
36.067	13.972	1038.671	793.331
37.082	14.091	1037.991	793.309
38.096	14.194	1036.858	792.861
39.111	14.196	1036.199	792.299
40.126	14.005	1035.167	790.533
41.140	13.916	1033.794	788.989
42.155	13.881	1032.811	788.001
43.169	13.793	1031.583	786.580
44.184	13.788	1030.436	785.612
45.199	13.896	1029.342	785.219
46.213	13.949	1028.420	784.696
47.228	13.972	1027.537	784.061
48.242	14.075	1026.930	784.016
49.257	14.007	1025.564	782.582
50.271	14.103	1024.514	782.162
51.286	14.152	1023.936	781.881
52.301	14.111	1022.669	780.652
53.315	14.018	1021.839	779.514
54.330	13.973	1020.872	778.497
55.344	13.928	1019.695	777.323
56.359	14.018	1018.939	777.097
57.374	13.887	1018.173	775.830
58.388	13.903	1017.456	775.292
59.403	13.911	1016.506	774.535
60.417	13.829	1015.658	773.437
61.432	13.760	1015.224	772.720
62.447	13.777	1014.043	771.829
63.461	13.763	1013.626	771.382
64.476	13.679	1012.550	770.101
65.490	13.729	1011.961	769.820
66.505	13.901	1010.874	769.720
67.520	13.697	1010.863	768.698
68.534	13.794	1010.099	768.499
69.549	13.722	1009.092	767.332
70.563	13.709	1008.280	766.587
71.578	13.686	1007.799	766.045
72.593	13.679	1006.607	765.039
73.607	13.694	1006.012	764.589
74.622	13.667	1005.586	764.076
75.636	13.724	1004.594	763.513
76.651	13.668	1004.065	762.790
77.666	13.618	1003.626	762.156
78.680	13.582	1003.220	761.617
79.695	13.584	1002.982	761.374
80.709	13.785	1001.709	761.265
81.724	13.885	1000.690	760.882
82.739	13.911	1000.383	760.702
83.753	14.111	999.036	760.525
84.768	14.043	998.622	759.828
85.782	14.239	997.875	760.090
86.797	14.131	997.004	758.867
87.812	14.102	995.865	757.802
88.826	14.029	994.949	756.704
89.841	14.185	993.983	756.609
90.855	14.174	993.171	755.876
91.870	14.282	992.163	755.530
92.884	14.157	991.797	754.622
93.899	14.197	991.025	754.147
94.914	14.416	989.525	753.932
95.928	14.357	989.002	753.199
96.943	14.234	988.584	752.258
97.957	14.170	987.132	750.798
98.972	14.320	986.194	750.693
99.987	14.317	985.442	750.043
101.001	14.176	984.675	748.755
102.016	14.082	983.717	747.541
103.030	14.260	983.059	747.772
104.045	14.159	982.697	746.976
105.060	14.224	981.657	746.412
106.074	14.037	980.582	744.692
107.089	13.929	979.512	743.329
108.103	13.909	978.613	742.490
109.118	13.864	977.868	741.658
110.133	13.843	977.054	740.884
111.147	13.940	976.145	740.563
112.162	13.832	975.336	739.399
113.176	13.926	974.562	739.164
114.191	13.905	974.211	738.740
115.206	14.082	972.759	738.362
116.220	13.826	972.492	736.958
117.235	13.920	971.345	736.437
118.249	13.901	970.697	735.798
119.264	13.951	969.756	735.242
120.279	13.864	969.026	734.240
121.293	13.950	967.689	733.540
122.308	13.721	967.770	732.525
123.322	13.928	966.021	732.049
124.337	13.846	965.228	731.022
125.352	13.844	964.120	730.110
126.366	13.970	962.651	729.488
127.381	13.813	962.051	728.278
128.395	13.781	961.480	727.642
129.410	13.926	960.142	727.200
130.424	13.939	959.405	726.632
131.439	14.018	958.849	726.494
132.454	13.956	958.448	725.853
133.468	14.004	957.565	725.332
134.483	14.064	956.312	724.578
135.497	14.066	955.606	723.989
136.512	14.113	954.373	723.194
137.527	14.072	953.822	722.533
138.541	14.084	953.151	722.015
139.556	14.082	952.827	721.695
140.570	14.150	951.789	721.143
141.585	14.281	951.087	721.115
142.600	14.246	949.932	720.024
143.614	14.389	949.004	719.873
144.629	14.281	948.510	718.967
145.643	14.365	947.575	718.560
146.658	14.041	946.634	716.383
147.673	14.235	945.351	716.188
148.687	14.152	944.605	715.202
149.702	14.044	943.600	713.914
150.716	13.979	943.105	713.197
151.731	14.214	942.526	713.701
152.746	14.097	941.501	712.361
153.760	14.166	940.999	712.217
154.775	14.311	940.289	712.235
155.789	14.365	939.800	712.034
156.804	14.358	938.767	711.156
157.819	14.212	938.432	710.218
158.833	14.229	938.154	710.015
159.848	14.326	937.171	709.624
160.862	14.266	936.005	708.421
161.877	14.131	935.507	707.407
162.892	14.174	934.198	706.539
163.906	14.223	933.005	705.780
164.921	14.209	932.214	705.061
165.935	14.173	931.552	704.344
166.950	14.312	930.182	703.833
167.964	14.364	929.786	703.693
168.979	14.196	929.196	702.475
169.994	14.318	928.465	702.375
171.008	14.299	927.414	701.436
172.023	14.490	926.754	701.680
173.037	14.522	926.066	701.232
174.052	14.319	925.531	699.912
175.067	14.270	924.683	699.003
176.081	14.249	924.255	698.530
177.096	14.111	924.010	697.703
178.110	14.275	922.793	697.409
179.125	14.357	922.678	697.603
180.140	14.363	921.869	696.957
181.154	14.419	921.648	696.962
182.169	14.484	921.390	696.977
183.183	14.568	920.220	696.381
184.198	14.470	919.344	695.249
185.213	14.461	918.711	694.667
186.227	14.475	918.312	694.364
187.242	14.530	917.539	693.946
188.256	14.635	916.866	693.811
189.271	14.529	916.243	692.839
190.286	14.452	915.295	691.742
191.300	14.182	914.663	690.084
192.315	14.305	913.505	689.660
193.329	14.340	913.261	689.557
194.344	14.367	912.715	689.199
195.359	14.547	912.072	689.393
196.373	14.579	911.181	688.793
197.388	14.667	911.031	688.981
198.402	14.832	910.335	689.075
199.417	14.879	910.193	689.099
200.432	14.869	909.791	688.694
201.446	14.884	909.172	688.226
202.461	14.761	909.175	687.658
203.475	14.764	907.995	686.720
204.490	14.818	906.920	686.067
205.504	14.714	906.452	685.225
206.519	14.842	905.770	685.176
207.534	14.752	904.719	683.949
208.548	14.812	904.333	683.844
209.563	14.788	903.815	683.293
210.577	14.689	903.209	682.370
211.592	14.958	902.782	683.085
212.607	15.045	901.773	682.617
213.621	14.849	901.165	681.296
214.636	14.898	900.480	680.918
215.650	15.007	899.545	680.596
216.665	14.997	898.825	679.948
217.680	15.107	898.335	679.964
218.694	15.121	897.544	679.361
219.709	15.054	897.220	678.786
220.723	15.082	896.805	678.526
221.738	15.048	895.799	677.566
222.753	15.060	895.069	677.003
223.767	15.170	894.476	676.937
224.782	15.190	894.292	676.822
225.796	15.245	893.670	676.512
226.811	15.134	892.876	675.404
227.826	14.934	892.480	674.237
228.840	15.255	891.175	674.483
229.855	15.120	890.816	673.608
230.869	15.147	889.611	672.749
231.884	15.033	889.500	672.144
232.899	14.962	888.563	671.093
233.913	14.960	887.828	670.472
234.928	15.044	887.307	670.356
235.942	15.000	886.776	669.718
236.957	15.118	885.867	669.443
237.972	15.053	885.353	668.737
238.986	15.081	884.876	668.428
240.001	15.018	884.101	667.533
241.015	15.092	883.554	667.354
242.030	15.246	882.791	667.333
243.045	15.137	882.680	666.757
244.059	15.158	882.138	666.371
245.074	15.210	881.536	666.064
246.088	15.292	880.775	665.755
247.103	15.290	880.344	665.365
248.117	15.481	879.604	665.504
249.132	15.529	879.279	665.390
250.147	15.531	878.501	664.750
251.161	15.629	878.025	664.719
252.176	15.594	877.501	664.123
253.190	15.747	876.532	663.937
254.205	15.714	875.939	663.298
255.220	15.738	875.320	662.863
256.234	15.612	874.742	661.870
257.249	15.877	873.670	662.043
258.263	15.745	873.229	661.132
259.278	15.660	872.795	660.412
260.293	15.787	871.729	660.046
261.307	15.970	871.392	660.448
262.322	15.750	871.087	659.297
263.336	15.825	870.322	658.955
264.351	15.939	869.328	658.590
265.366	15.855	869.283	658.166
266.380	15.939	868.107	657.545
267.395	15.904	867.304	656.744
268.409	15.872	866.427	655.899
269.424	15.869	866.075	655.563
270.439	15.951	865.460	655.358
271.453	15.789	864.896	654.244
272.468	15.839	864.277	653.911
273.482	15.976	863.496	653.793
274.497	15.852	863.280	653.092
275.512	15.836	862.602	652.457
276.526	15.927	862.139	652.401
277.541	15.961	861.546	652.027
278.555	16.100	860.634	651.815
279.570	16.218	860.273	651.941
280.585	16.052	859.393	650.576
281.599	16.020	858.941	650.051
282.614	16.081	857.669	649.268
283.628	16.096	857.273	648.968
284.643	15.992	856.784	648.142
285.657	15.927	856.437	647.573
286.672	16.036	856.013	647.610
287.687	16.091	855.209	647.156
288.701	16.118	854.863	646.942
289.716	16.114	854.560	646.638
290.730	16.098	853.568	645.771
291.745	16.170	852.906	645.489
292.760	16.288	852.480	645.561
293.774	16.363	851.831	645.299
294.789	16.083	851.549	643.956
295.803	16.008	850.771	643.025
296.818	16.020	849.870	642.336
297.833	16.098	849.197	642.067
298.847	16.366	848.660	642.623
299.862	16.375	847.610	641.805
300.876	16.330	847.783	641.708
301.891	16.375	847.008	641.236
302.906	16.293	846.539	640.514
303.920	16.476	845.885	640.654
304.935	16.500	845.376	640.304
305.949	16.499	844.524	639.597
306.964	16.345	843.988	638.554
307.979	16.457	843.587	638.617
308.993	16.432	843.199	638.171
310.008	16.599	842.441	638.170
311.022	16.573	841.687	637.447
312.037	16.508	841.240	636.808
313.052	16.141	841.116	635.273
314.066	16.426	839.923	635.389
315.081	16.304	839.765	634.752
316.095	16.437	838.913	634.554
317.110	16.193	838.545	633.305
318.125	16.272	838.238	633.313
319.139	16.451	837.181	633.128
320.154	16.441	837.078	632.958
321.168	16.345	836.557	632.146
322.183	16.344	836.306	631.897
323.197	16.528	835.388	631.835
324.212	16.602	834.528	631.407
325.227	16.492	834.283	630.753
326.241	16.531	833.853	630.518
327.256	16.504	833.239	629.897
328.270	16.492	832.609	629.323
329.285	16.380	832.404	628.693
330.300	16.535	831.547	628.568
331.314	16.558	830.915	628.119
332.329	16.352	830.617	627.073
333.343	16.540	830.046	627.286
334.358	16.660	829.538	627.291
335.373	16.766	829.171	627.349
336.387	16.731	828.978	627.017
337.402	16.809	828.808	627.121
338.416	16.873	828.503	627.074
339.431	16.924	827.958	626.792
340.446	16.860	827.927	626.477
341.460	16.824	827.536	625.995
342.475	16.843	827.144	625.711
343.489	17.033	826.104	625.571
344.504	16.864	826.167	624.939
345.519	17.074	825.552	625.191
346.533	17.013	824.869	624.395
347.548	16.836	824.441	623.366
348.562	16.900	823.717	622.997
349.577	16.984	822.933	622.660
350.592	16.995	822.167	622.063
351.606	16.814	821.707	620.998
352.621	16.821	821.801	621.039
353.635	16.776	820.943	620.172
354.650	16.949	820.358	620.306
355.665	16.976	819.324	619.568
356.679	17.130	818.497	619.450
357.694	17.001	818.080	618.609
358.708	17.208	817.295	618.715
359.723	17.106	816.969	618.042
360.738	17.069	816.435	617.451
361.752	17.055	815.898	616.938
362.767	17.186	815.612	617.144
363.781	17.296	814.603	616.726
364.796	17.460	814.271	617.012
365.810	17.407	814.188	616.705
366.825	17.452	813.734	616.467
367.840	17.284	813.116	615.336
368.854	17.320	812.907	615.254
369.869	17.251	812.690	614.787
370.883	17.324	811.809	614.328
371.898	17.367	811.937	614.528
372.913	17.458	811.302	614.320
373.927	17.396	810.762	613.634
374.942	17.530	810.077	613.544
375.956	17.450	810.050	613.182
376.971	17.604	809.404	613.191
377.986	17.620	809.065	612.938
379.000	17.657	808.434	612.540
380.015	17.606	808.121	612.065
381.029	17.656	807.409	611.651
382.044	17.612	806.854	611.018
383.059	17.575	806.168	610.311
384.073	17.730	805.661	610.429
385.088	17.663	804.667	609.382
386.102	17.615	804.448	608.990
387.117	17.752	803.703	608.862
388.132	17.503	803.529	607.788
389.146	17.404	803.421	607.298
390.161	17.563	802.766	607.316
391.175	17.810	801.983	607.551
392.190	17.542	801.546	606.213
393.205	17.485	801.426	605.865
394.219	17.555	800.898	605.661
395.234	17.556	800.336	605.185
396.248	17.611	799.811	604.931
397.263	17.575	799.475	604.495
398.278	17.551	799.199	604.147
399.292	17.633	798.355	603.748
400.307	17.508	798.256	603.175
401.321	17.562	797.489	602.734
402.336	17.553	797.199	602.430
403.350	17.592	796.911	602.296
404.365	17.685	796.536	602.290
405.380	17.732	796.250	602.186
406.394	17.727	795.647	601.658
407.409	17.964	795.011	601.958
408.423	17.926	794.965	601.738
409.438	18.098	794.439	601.893
410.453	18.020	794.052	601.271
411.467	18.109	793.423	601.053
412.482	18.096	793.072	600.689
413.496	17.924	793.129	600.076
414.511	18.101	792.676	600.302
415.526	18.134	791.919	599.789
416.540	18.187	791.025	599.244
417.555	18.086	790.918	598.757
418.569	18.198	790.563	598.829
419.584	18.220	789.981	598.410
420.599	18.202	789.849	598.197
421.613	156.249	1371.255	1795.461
422.628	135.120	1455.967	1795.547
