DTS Sentinel unit serial number:	SN413079Multiplexer serial number:	ORYXHardware model number:	OX4-SRSoftware version number:	ORYX F/W v4.00 Oryx Data Collector v3.7.2.0data status	okinstallation	princeton_trtdifferential loss correction	single-endedforward channel	channel 1reverse channel	N/Adate	2019/09/11time	08:44:11forward acquisition time	60.00reverse acquisition time	0.00gamma	496.2192k internal	0.2313k external	0.2313temperature offset calibration	0.9947default loss term (dB/km)	0.3790temperature slope calibration	1.0000multiplexer offset coefficient	1.0000multiplexer slope coefficient	1.0000fibre end	0.00T internal ref (°C)	33.62T ext. ref 1 (°C)	0.08T ext. ref 2 (°C)	30.86length (m)	temperature (°C)	Stokes	anti-Stokes-747.200	-70.433	0.131	-0.050
-746.185	533.748	-0.023	0.054
-745.171	-200.000	-0.024	0.130
-744.156	-84.817	-0.508	0.162
-743.142	35.565	-0.098	0.087
-742.127	453.732	-0.201	0.450
-741.112	110.816	-0.108	0.132
-740.098	-194.705	-0.131	-0.001
-739.083	-127.702	0.124	-0.018
-738.069	-107.859	-0.282	-0.062
-737.054	60.863	0.086	0.086
-736.039	800.000	-0.119	-0.414
-735.025	-21.146	0.233	0.145
-734.010	-122.151	-0.320	-0.053
-732.996	479.424	-0.142	0.326
-731.981	320.763	0.136	0.261
-730.966	250.651	-0.075	-0.129
-729.952	-62.621	-0.216	0.091
-728.937	-53.328	0.067	0.031
-727.923	-96.855	0.129	0.034
-726.908	56.529	-0.285	-0.281
-725.894	-142.283	-0.267	-0.027
-724.879	-0.552	-0.060	0.043
-723.864	800.000	-0.015	0.047
-722.850	-200.000	-0.007	0.047
-721.835	-166.493	-0.147	-0.006
-720.821	371.223	0.085	-0.174
-719.806	800.000	-0.052	0.224
-718.791	169.751	-0.118	-0.171
-717.777	454.543	-0.097	-0.218
-716.762	115.469	-0.217	-0.268
-715.748	-134.669	0.384	-0.047
-714.733	606.746	-0.045	0.113
-713.718	28.463	0.080	0.069
-712.704	44.060	0.282	0.262
-711.689	-94.778	0.072	-0.020
-710.675	-11.968	-0.062	-0.041
-709.660	-200.000	-0.030	0.210
-708.645	-146.903	-0.320	0.028
-707.631	-200.000	-0.039	-0.321
-706.616	144.605	-0.098	-0.133
-705.602	800.000	-0.127	-0.494
-704.587	-200.000	-0.017	-0.277
-703.572	468.990	0.042	0.096
-702.558	601.533	-0.096	-0.242
-701.543	800.000	-0.057	-0.178
-700.529	-20.022	0.244	-0.153
-699.514	41.658	-0.228	0.209
-698.499	524.037	0.157	-0.373
-697.485	-29.051	0.134	0.078
-696.470	-35.074	-0.083	0.046
-695.456	99.467	-0.043	0.050
-694.441	-82.484	0.152	-0.050
-693.426	145.392	0.021	-0.028
-692.412	-21.280	0.162	0.100
-691.397	63.475	-0.275	-0.279
-690.383	-129.309	-0.244	0.034
-689.368	64.194	0.130	0.132
-688.354	3.741	-0.209	0.154
-687.339	-200.000	0.020	-0.186
-686.324	-200.000	0.030	0.211
-685.310	42.950	-0.327	0.301
-684.295	-13.581	-0.021	0.014
-683.281	-148.249	0.077	-0.006
-682.266	-200.000	-0.007	-0.035
-681.251	-38.165	-0.204	0.110
-680.237	272.086	0.052	-0.094
-679.222	-55.051	-0.338	-0.154
-678.208	1.027	0.268	-0.194
-677.193	-197.723	0.049	-0.000
-676.178	-40.839	0.120	0.063
-675.164	-200.000	-0.008	-0.222
-674.149	212.146	0.167	-0.267
-673.135	685.958	-0.155	-0.409
-672.120	-147.809	-0.153	0.013
-671.105	-13.993	-0.228	-0.149
-670.091	800.000	-0.063	0.190
-669.076	-120.051	-0.241	-0.042
-668.062	-122.916	-0.362	0.059
-667.047	-30.258	0.203	-0.116
-666.032	-60.140	0.097	-0.042
-665.018	800.000	0.131	-0.391
-664.003	-200.000	-0.007	-0.110
-662.989	411.067	-0.105	-0.225
-661.974	800.000	-0.052	0.152
-660.959	84.594	-0.125	-0.138
-659.945	-142.024	-0.318	-0.032
-658.930	57.121	0.122	-0.121
-657.916	432.331	-0.157	0.345
-656.901	-151.196	0.202	-0.015
-655.886	-200.000	-0.083	0.471
-654.872	35.454	-0.099	-0.088
-653.857	2.210	0.194	-0.141
-652.843	139.927	0.107	0.142
-651.828	-58.422	-0.030	0.013
-650.814	-173.914	-0.304	-0.009
-649.799	-200.000	-0.003	-0.016
-648.784	-139.421	0.044	-0.005
-647.770	-29.758	0.276	-0.159
-646.755	-163.035	-0.222	0.011
-645.741	188.519	-0.134	-0.203
-644.726	-80.156	0.119	0.040
-643.711	739.929	-0.023	0.063
-642.697	490.886	-0.086	0.199
-641.682	146.350	-0.123	0.166
-640.668	284.119	0.095	0.173
-639.653	-138.463	-0.107	0.012
-638.638	-115.630	-0.227	0.043
-637.624	800.000	0.066	-0.223
-636.609	800.000	0.034	-0.107
-635.595	800.000	0.062	0.186
-634.580	-24.261	0.091	-0.055
-633.565	-42.798	-0.055	-0.028
-632.551	119.312	0.206	-0.257
-631.536	-43.377	0.209	-0.107
-630.522	-200.000	-0.040	0.241
-629.507	325.527	0.131	0.252
-628.492	203.784	-0.053	-0.083
-627.478	-200.000	-0.029	-0.184
-626.463	-200.000	0.032	-0.321
-625.449	87.336	-0.179	0.200
-624.434	5.718	-0.213	-0.159
-623.419	81.704	-0.118	-0.129
-622.405	-200.000	-0.014	0.094
-621.390	-64.140	-0.198	0.081
-620.376	-123.537	-0.333	-0.053
-619.361	190.558	0.200	-0.303
-618.346	-172.048	-0.300	-0.010
-617.332	-200.000	-0.039	0.246
-616.317	54.533	0.296	0.288
-615.303	-155.344	0.181	0.012
-614.288	-167.424	-0.249	0.010
-613.273	66.674	-0.227	0.233
-612.259	-93.030	-0.381	-0.107
-611.244	-21.632	-0.302	0.185
-610.230	37.825	-0.053	0.048
-609.215	-200.000	0.008	0.194
-608.201	96.519	0.079	0.091
-607.186	20.804	-0.380	-0.311
-606.171	-200.000	0.007	0.086
-605.157	679.972	0.091	0.239
-604.142	68.795	-0.203	0.211
-603.128	347.720	-0.089	-0.176
-602.113	-85.970	0.265	0.083
-601.098	57.914	-0.107	-0.106
-600.084	164.160	0.226	0.321
-599.069	84.093	0.174	-0.192
-598.055	800.000	-0.043	-0.129
-597.040	-200.000	0.056	-0.374
-596.025	-57.887	-0.226	0.099
-595.011	68.179	-0.181	0.187
-593.996	-147.851	0.138	-0.012
-592.982	160.483	-0.145	-0.204
-591.967	-71.393	-0.198	0.075
-590.952	800.000	-0.160	0.569
-589.938	103.172	-0.100	0.118
-588.923	-43.230	0.305	-0.156
-587.909	-8.774	0.120	-0.081
-586.894	324.789	0.027	0.052
-585.879	-19.443	-0.134	-0.084
-584.865	205.230	-0.111	0.174
-583.850	-127.877	-0.120	0.017
-582.836	-134.708	-0.358	-0.044
-581.821	10.109	0.067	0.051
-580.806	-76.938	0.056	-0.020
-579.792	-200.000	0.047	-0.405
-578.777	-37.619	-0.202	-0.108
-577.763	0.157	0.274	-0.197
-576.748	58.910	0.028	0.027
-575.733	99.348	-0.127	-0.148
-574.719	800.000	-0.023	0.082
-573.704	-21.458	-0.051	-0.031
-572.690	80.584	-0.060	0.065
-571.675	-200.000	-0.021	-0.139
-570.661	111.107	-0.111	0.135
-569.646	-70.638	0.215	0.082
-568.631	-160.677	-0.474	-0.025
-567.617	699.140	-0.098	-0.259
-566.602	-61.358	-0.093	-0.039
-565.588	-106.209	0.338	0.076
-564.573	331.620	-0.195	0.380
-563.558	-200.000	-0.037	0.229
-562.544	-200.000	0.050	-0.339
-561.529	-51.216	-0.202	-0.095
-560.515	800.000	-0.078	-0.253
-559.500	395.843	-0.129	-0.272
-558.485	311.751	-0.182	-0.344
-557.471	-200.000	-0.007	-0.034
-556.456	-176.801	-0.174	0.004
-555.442	692.739	0.144	0.381
-554.427	-159.440	0.042	-0.002
-553.412	96.699	-0.155	0.179
-552.398	-121.349	0.268	-0.045
-551.383	800.000	-0.080	0.288
-550.369	786.074	-0.022	0.062
-549.354	348.440	-0.244	0.484
-548.339	-27.872	-0.165	0.096
-547.325	230.309	-0.098	-0.162
-546.310	21.338	-0.100	-0.082
-545.296	-51.890	0.116	-0.054
-544.281	218.288	0.293	0.471
-543.266	-200.000	0.010	-0.062
-542.252	-146.087	-0.214	-0.019
-541.237	79.498	0.210	0.226
-540.223	25.988	0.112	-0.094
-539.208	116.150	0.169	0.208
-538.193	33.826	-0.255	0.224
-537.179	800.000	0.075	0.231
-536.164	43.798	-0.115	-0.106
-535.150	800.000	-0.047	0.133
-534.135	800.000	0.088	0.364
-533.121	-35.838	-0.128	0.069
-532.106	-27.561	0.119	-0.070
-531.091	-108.854	0.111	0.024
-530.077	-79.814	-0.134	-0.045
-529.062	-42.545	0.320	-0.164
-528.048	57.959	0.065	0.064
-527.033	-200.000	0.000	-0.060
-526.018	614.587	0.048	-0.121
-525.004	-102.868	0.120	-0.029
-523.989	76.830	-0.183	-0.195
-522.975	23.252	-0.336	0.278
-521.960	57.704	0.217	-0.214
-520.945	321.522	-0.208	0.397
-519.931	800.000	0.057	-0.181
-518.916	188.848	0.092	-0.139
-517.902	11.085	0.205	-0.158
-516.887	5.642	0.100	0.074
-515.872	-156.666	0.291	0.018
-514.858	7.155	0.271	0.203
-513.843	-58.373	0.027	0.012
-512.829	-47.836	0.325	-0.158
-511.814	800.000	0.031	0.120
-510.799	104.248	0.095	-0.112
-509.785	62.063	0.097	-0.097
-508.770	359.348	0.057	0.115
-507.756	-57.286	-0.342	-0.151
-506.741	-200.000	0.025	-0.190
-505.726	-79.581	-0.141	0.048
-504.712	150.763	-0.066	-0.090
-503.697	494.801	0.112	-0.259
-502.683	295.608	-0.188	-0.345
-501.668	-200.000	0.005	0.309
-500.653	-200.000	-0.009	0.113
-499.639	-97.020	-0.142	-0.037
-498.624	201.217	0.024	-0.037
-497.610	-86.753	0.213	-0.065
-496.595	219.703	0.142	-0.229
-495.581	800.000	0.016	-0.067
-494.566	76.698	-0.067	0.072
-493.551	800.000	0.130	-0.477
-492.537	800.000	-0.043	-0.177
-491.522	20.899	-0.229	0.187
-490.508	722.553	0.102	0.273
-489.493	-200.000	-0.018	0.203
-488.478	-141.615	-0.158	0.016
-487.464	-139.731	0.026	0.003
-486.449	-87.938	-0.339	0.102
-485.435	800.000	-0.133	-0.401
-484.420	183.744	0.044	-0.066
-483.405	-200.000	-0.022	0.116
-482.391	100.045	0.127	0.148
-481.376	-200.000	0.045	-0.224
-480.362	97.255	-0.271	-0.312
-479.347	-198.284	0.560	0.003
-478.332	137.512	0.178	-0.233
-477.318	26.811	-0.501	0.422
-476.303	-125.255	0.256	-0.039
-475.289	-41.476	-0.144	-0.074
-474.274	21.940	0.124	0.101
-473.259	-175.026	-0.085	0.002
-472.245	-57.450	-0.236	-0.104
-471.230	-200.000	0.010	0.092
-470.216	63.497	-0.124	-0.125
-469.201	-56.348	0.075	0.033
-468.186	-118.190	0.099	-0.018
-467.172	-106.476	-0.066	-0.015
-466.157	-98.554	0.327	-0.084
-465.143	679.212	0.120	0.313
-464.128	-7.788	0.327	0.222
-463.113	-6.240	0.178	0.122
-462.099	-86.359	0.141	0.043
-461.084	-150.603	-0.070	-0.005
-460.070	164.764	-0.136	-0.193
-459.055	164.220	0.050	-0.071
-458.040	303.913	-0.042	-0.078
-457.026	-53.948	-0.129	-0.059
-456.011	-200.000	0.026	-0.204
-454.997	-96.620	-0.074	0.020
-453.982	241.250	-0.117	-0.195
-452.968	-109.865	0.138	0.029
-451.953	423.602	0.167	-0.360
-450.938	205.640	-0.127	-0.198
-449.924	-23.614	0.281	-0.169
-448.909	671.708	-0.183	0.476
-447.895	800.000	-0.066	-0.262
-446.880	-59.135	0.110	-0.048
-445.865	107.544	-0.117	0.140
-444.851	800.000	-0.073	-0.318
-443.836	-171.328	0.137	-0.005
-442.822	225.041	-0.087	-0.141
-441.807	800.000	-0.080	-0.267
-440.792	-45.626	0.142	0.071
-439.778	551.142	0.072	0.172
-438.763	-200.000	0.031	-0.151
-437.749	-156.932	-0.176	0.011
-436.734	-37.844	0.289	-0.154
-435.719	-39.522	0.322	0.169
-434.705	-200.000	-0.020	0.179
-433.690	800.000	0.044	0.176
-432.676	-21.483	0.146	-0.089
-431.661	13.503	-0.138	-0.107
-430.646	-200.000	0.317	-0.001
-429.632	-132.864	-0.074	-0.010
-428.617	-117.226	-0.239	-0.043
-427.603	144.210	0.166	-0.222
-426.588	413.612	0.065	0.139
-425.573	23.514	0.166	0.137
-424.559	305.052	0.190	0.353
-423.544	93.917	-0.046	0.052
-422.530	-200.000	-0.001	0.083
-421.515	449.041	0.041	0.091
-420.500	-200.000	-0.010	-0.404
-419.486	-117.793	0.428	-0.077
-418.471	97.068	-0.150	-0.172
-417.457	584.701	-0.025	-0.062
-416.442	-37.786	0.360	-0.192
-415.428	136.379	-0.142	0.185
-414.413	-80.792	-0.456	0.152
-413.398	132.120	0.183	-0.236
-412.384	73.172	0.080	-0.084
-411.369	240.152	-0.198	-0.331
-410.355	22.637	0.165	0.135
-409.340	55.648	-0.188	-0.182
-408.325	-22.691	-0.378	-0.229
-407.311	-36.394	-0.045	-0.024
-406.296	-200.000	0.007	-0.065
-405.282	-72.092	0.252	0.094
-404.267	-200.000	0.267	-0.001
-403.252	280.225	0.101	0.180
-402.238	-98.584	0.424	0.108
-401.223	2.473	0.198	-0.143
-400.209	800.000	-0.061	-0.186
-399.194	114.621	-0.207	-0.252
-398.179	247.774	0.068	-0.115
-397.165	-200.000	-0.025	0.165
-396.150	66.804	-0.272	-0.277
-395.136	223.172	0.063	-0.102
-394.121	348.707	-0.071	0.141
-393.106	263.528	0.043	0.074
-392.092	-133.635	0.208	-0.026
-391.077	800.000	-0.063	0.226
-390.063	-122.481	-0.113	-0.018
-389.048	-200.000	-0.011	-0.133
-388.033	97.967	-0.264	-0.304
-387.019	-31.967	-0.188	0.105
-386.004	800.000	-0.026	0.098
-384.990	-66.361	-0.171	-0.068
-383.975	-97.067	0.278	-0.073
-382.960	-70.374	-0.340	0.129
-381.946	-166.569	-0.114	0.005
-380.931	-200.000	-0.013	0.210
-379.917	376.968	0.087	-0.177
-378.902	800.000	-0.016	-0.069
-377.888	800.000	-0.110	0.387
-376.873	-200.000	-0.055	0.262
-375.858	236.402	-0.244	0.404
-374.844	117.807	0.116	0.143
-373.829	-72.183	0.131	-0.049
-372.815	-123.966	-0.197	-0.031
-371.800	-200.000	-0.004	0.026
-370.785	57.602	-0.189	0.184
-369.771	-200.000	-0.003	-0.173
-368.756	134.185	-0.139	0.180
-367.742	287.264	-0.062	-0.112
-366.727	-58.977	0.124	-0.054
-365.712	-150.275	0.171	0.013
-364.698	-104.604	0.289	0.067
-363.683	42.749	-0.316	0.288
-362.669	-200.000	-0.004	-0.147
-361.654	-35.655	0.080	0.043
-360.639	37.793	0.070	0.062
-359.625	517.662	-0.095	0.222
-358.610	6.754	0.155	0.116
-357.596	-53.320	0.106	0.048
-356.581	110.167	-0.088	-0.106
-355.566	-148.617	-0.230	-0.019
-354.552	-99.135	0.193	-0.049
-353.537	89.565	-0.076	0.085
-352.523	482.144	0.037	-0.085
-351.508	800.000	-0.069	0.255
-350.493	49.667	-0.179	-0.168
-349.479	17.047	-0.239	0.189
-348.464	-200.000	-0.047	0.272
-347.450	18.500	0.108	-0.086
-346.435	-94.480	0.154	0.042
-345.420	-200.000	0.030	-0.382
-344.406	-29.473	-0.259	-0.148
-343.391	-8.028	0.044	-0.030
-342.377	-117.806	-0.325	0.058
-341.362	-125.171	-0.092	-0.014
-340.348	78.104	0.188	0.200
-339.333	-199.229	-0.418	0.002
-338.318	-112.121	0.143	-0.029
-337.304	113.638	0.133	-0.161
-336.289	129.628	0.157	0.201
-335.275	141.284	0.215	-0.284
-334.260	-144.489	-0.088	-0.008
-333.245	743.129	0.022	-0.059
-332.231	190.421	-0.093	-0.139
-331.216	17.900	0.027	-0.021
-330.202	507.498	-0.121	0.280
-329.187	-200.000	0.051	0.359
-328.172	-200.000	0.037	-0.360
-327.158	-31.587	0.054	0.030
-326.143	-64.788	-0.098	0.040
-325.129	800.000	0.056	-0.202
-324.114	294.988	-0.171	-0.312
-323.099	-70.661	0.180	-0.068
-322.085	89.088	0.082	0.091
-321.070	-81.715	-0.018	-0.006
-320.056	28.968	0.200	0.169
-319.041	-160.152	-0.228	-0.012
-318.026	-75.662	0.380	-0.134
-317.012	349.470	0.075	0.148
-315.997	-200.000	-0.035	-0.307
-314.983	-97.652	0.141	-0.037
-313.968	800.000	0.080	-0.243
-312.953	387.588	0.090	-0.186
-311.939	27.877	-0.174	0.146
-310.924	-38.670	0.144	-0.076
-309.910	728.315	0.101	0.268
-308.895	143.662	0.218	-0.290
-307.880	128.455	-0.186	-0.237
-306.866	800.000	0.031	-0.104
-305.851	-200.000	-0.049	0.237
-304.837	-163.027	-0.179	-0.009
-303.822	-51.877	0.362	0.168
-302.807	-78.537	0.161	-0.055
-301.793	-7.407	-0.122	-0.082
-300.778	526.071	0.144	0.338
-299.764	-99.853	0.130	-0.033
-298.749	163.091	0.133	0.187
-297.735	800.000	0.076	-0.234
-296.720	30.735	-0.181	-0.154
-295.705	700.479	0.026	0.067
-294.691	235.631	0.092	0.152
-293.676	58.281	-0.060	-0.058
-292.662	110.744	-0.182	-0.218
-291.647	81.718	-0.105	-0.114
-290.632	-200.000	0.136	0.597
-289.618	-51.958	0.143	0.066
-288.603	-200.000	0.028	0.166
-287.589	-200.000	-0.021	-0.373
-286.574	-146.937	0.222	0.019
-285.559	-29.202	-0.208	-0.119
-284.545	295.225	0.121	-0.221
-283.530	18.258	0.028	-0.022
-282.516	-48.350	-0.432	0.208
-281.501	-200.000	-0.035	0.306
-280.486	-200.000	0.029	0.157
-279.472	64.606	-0.096	-0.096
-278.457	375.298	-0.021	0.043
-277.443	800.000	0.071	-0.226
-276.428	800.000	0.030	-0.118
-275.413	-76.245	0.244	0.086
-274.399	-200.000	0.062	-0.343
-273.384	-3.281	0.142	-0.098
-272.370	-173.561	-0.362	0.011
-271.355	4.071	0.174	0.126
-270.340	-71.794	0.120	0.044
-269.326	192.564	0.223	-0.334
-268.311	-33.623	-0.099	-0.054
-267.297	-71.280	0.156	-0.058
-266.282	195.960	0.123	-0.187
-265.267	205.486	0.256	0.396
-264.253	800.000	0.108	0.371
-263.238	122.863	0.203	0.252
-262.224	-200.000	-0.002	-0.080
-261.209	258.307	0.119	0.204
-260.195	53.933	0.152	0.146
-259.180	-18.849	0.062	-0.039
-258.165	11.794	-0.164	0.126
-257.151	-3.572	-0.110	-0.076
-256.136	73.508	-0.233	-0.243
-255.122	143.347	0.338	-0.447
-254.107	60.734	-0.144	0.142
-253.092	387.191	-0.014	0.029
-252.078	16.642	0.156	-0.123
-251.063	-4.235	-0.217	-0.149
-250.049	-200.000	-0.009	-0.199
-249.034	-200.000	-0.003	-0.050
-248.019	-140.721	0.380	-0.039
-247.005	-12.117	-0.069	0.045
-245.990	-18.171	0.293	-0.183
-244.976	-14.222	-0.262	0.168
-243.961	33.467	0.307	0.265
-242.946	255.420	-0.132	-0.225
-241.932	552.748	-0.021	-0.050
-240.917	800.000	0.066	0.204
-239.903	-150.228	0.261	-0.020
-238.888	-200.000	0.007	0.181
-237.873	-71.785	-0.205	0.076
-236.859	-200.000	-0.004	-0.027
-235.844	476.313	0.136	0.306
-234.830	-68.664	-0.074	0.028
-233.815	-200.000	-0.258	0.000
-232.800	274.561	0.161	0.283
-231.786	84.352	0.241	0.262
-230.771	106.977	-0.042	-0.050
-229.757	-117.016	0.257	-0.047
-228.742	-81.166	-0.136	0.045
-227.727	-133.155	-0.127	0.016
-226.713	-160.212	0.259	0.014
-225.698	-166.163	-0.285	-0.012
-224.684	-147.753	-0.084	0.007
-223.669	800.000	-0.112	0.353
-222.655	262.332	-0.045	0.078
-221.640	-200.000	0.016	0.100
-220.625	9.322	-0.198	-0.149
-219.611	101.684	0.136	-0.158
-218.596	-138.801	0.059	0.006
-217.582	-200.000	-0.005	-0.079
-216.567	-200.000	-0.007	0.050
-215.552	-52.855	-0.344	-0.157
-214.538	-57.008	0.085	0.037
-213.523	-5.562	-0.318	-0.217
-212.509	-6.903	0.329	0.222
-211.494	493.866	-0.090	0.204
-210.479	-117.250	-0.192	-0.035
-209.465	270.569	-0.082	0.143
-208.450	24.889	0.155	0.128
-207.436	-53.585	0.232	0.105
-206.421	356.291	-0.072	-0.142
-205.406	-7.800	0.135	-0.091
-204.392	-143.787	0.122	0.011
-203.377	-23.877	-0.119	-0.071
-202.363	172.470	-0.137	-0.196
-201.348	-200.000	0.012	0.108
-200.333	57.290	-0.160	0.155
-199.319	-100.143	0.049	0.012
-198.304	-200.000	0.029	0.354
-197.290	66.574	0.098	0.099
-196.275	-200.000	0.014	0.287
-195.260	38.261	-0.106	-0.094
-194.246	-28.662	0.260	0.149
-193.231	-200.000	0.027	-0.403
-192.217	109.676	-0.168	0.200
-191.202	2.607	-0.050	-0.036
-190.187	174.961	0.234	-0.336
-189.173	-139.189	0.452	0.048
-188.158	204.956	0.183	-0.281
-187.144	-149.379	0.389	-0.031
-186.129	-200.000	0.052	0.337
-185.114	-200.000	0.065	0.324
-184.100	558.016	-0.055	-0.130
-183.085	111.269	0.076	-0.091
-182.071	-85.692	-0.216	0.066
-181.056	800.000	-0.100	0.339
-180.042	319.903	-0.156	-0.295
-179.027	-180.831	-0.155	0.003
-178.012	-11.320	0.079	0.052
-176.998	-53.798	0.067	0.030
-175.983	-140.934	-0.207	0.021
-174.969	-112.638	0.333	-0.066
-173.954	130.973	0.064	0.081
-172.939	-79.180	0.084	-0.028
-171.925	65.159	-0.104	0.104
-170.910	566.604	-0.097	-0.234
-169.896	-159.169	0.072	0.004
-168.881	-51.479	0.203	0.094
-167.866	-126.318	-0.251	-0.037
-166.852	-169.293	0.325	-0.012
-165.837	2.902	-0.356	0.256
-164.823	-200.000	-0.003	0.173
-163.808	-120.366	-0.331	0.056
-162.793	292.603	-0.067	0.122
-161.779	-54.457	-0.274	-0.123
-160.764	800.000	0.068	-0.195
-159.750	301.928	-0.050	-0.092
-158.735	-149.515	-0.185	-0.015
-157.720	173.333	-0.201	-0.288
-156.706	-56.622	0.370	0.162
-155.691	800.000	-0.085	-0.264
-154.677	800.000	-0.024	-0.070
-153.662	-200.000	-0.026	-0.227
-152.647	-94.258	-0.172	0.047
-151.633	43.125	-0.128	0.115
-150.618	800.000	0.068	0.202
-149.604	14.644	0.239	0.185
-148.589	-200.000	-0.012	0.279
-147.574	-26.647	0.086	-0.050
-146.560	-111.581	-0.338	0.068
-145.545	-171.400	-0.229	-0.008
-144.531	410.235	0.031	0.064
-143.516	-94.978	-0.285	0.076
-142.502	165.453	-0.136	-0.190
-141.487	771.311	-0.058	-0.156
-140.472	113.099	-0.150	-0.180
-139.458	-114.089	-0.352	0.068
-138.443	108.459	-0.062	-0.073
-137.429	314.207	-0.157	-0.293
-136.414	152.385	-0.316	0.427
-135.399	-200.000	0.007	0.137
-134.385	-200.000	0.039	-0.256
-133.370	-130.296	0.101	0.014
-132.356	-51.159	-0.224	-0.104
-131.341	800.000	0.070	0.217
-130.326	61.383	-0.051	0.050
-129.312	62.894	-0.151	-0.150
-128.297	-152.051	0.348	-0.025
-127.283	202.447	-0.193	0.294
-126.268	800.000	-0.023	0.065
-125.253	36.468	-0.139	-0.121
-124.239	-167.592	-0.034	0.001
-123.224	800.000	-0.027	0.116
-122.210	56.595	-0.058	0.055
-121.195	-23.379	0.131	-0.078
-120.180	-8.881	0.138	0.092
-119.166	-200.000	-0.004	-0.206
-118.151	-21.846	0.311	0.187
-117.137	324.435	-0.136	-0.257
-116.122	38.628	0.161	0.142
-115.107	7.233	0.285	-0.211
-114.093	-200.000	-0.057	-0.273
-113.078	581.629	-0.013	0.031
-112.064	227.758	0.073	0.117
-111.049	8.687	0.073	0.055
-110.034	663.455	0.049	0.125
-109.020	-28.869	-0.067	-0.038
-108.005	166.276	-0.046	-0.065
-106.991	34.577	0.257	0.222
-105.976	-200.000	0.055	0.498
-104.962	800.000	0.114	-0.411
-103.947	118.681	0.186	-0.228
-102.932	-126.765	-0.205	0.030
-101.918	53.718	0.194	0.184
-100.903	652.973	0.106	-0.270
-99.889	228.728	0.129	0.209
-98.874	-60.509	-0.296	-0.125
-97.859	64.357	0.064	0.064
-96.845	-200.000	-0.027	-0.180
-95.830	-12.119	0.057	-0.037
-94.816	-15.830	-0.338	0.213
-93.801	-114.336	-0.065	-0.012
-92.786	-144.837	-0.182	-0.016
-91.772	-82.037	-0.238	-0.077
-90.757	26.190	-0.334	-0.275
-89.743	-33.458	0.154	0.084
-88.728	433.759	-0.254	0.546
-87.713	-200.000	-0.005	-0.203
-86.699	-5.960	-0.081	-0.055
-85.684	513.561	-0.084	0.193
-84.670	-12.399	-0.184	-0.119
-83.655	131.158	-0.117	0.148
-82.640	218.514	-0.091	-0.144
-81.626	-187.038	-0.076	0.001
-80.611	-156.616	0.010	-0.001
-79.597	800.000	0.068	0.192
-78.582	38.821	0.035	0.031
-77.567	-37.776	0.044	0.023
-76.553	-182.208	-0.145	-0.003
-75.538	-153.241	-0.191	0.013
-74.524	253.641	-0.182	-0.308
-73.509	800.000	0.073	-0.206
-72.494	30.505	0.397	-0.335
-71.480	-124.912	0.221	0.034
-70.465	81.318	-0.118	-0.126
-69.451	187.383	-0.176	-0.259
-68.436	469.910	0.040	-0.089
-67.422	-115.067	-0.334	0.063
-66.407	94.382	0.167	0.188
-65.392	-92.699	0.035	-0.010
-64.378	79.902	-0.130	-0.138
-63.363	36.021	0.063	-0.055
-62.349	504.741	-0.130	0.297
-61.334	54.212	-0.875	-0.832
-60.319	-56.311	0.493	0.216
-59.305	-200.000	-0.159	-0.903
-58.290	141.024	0.743	0.970
-57.276	198.328	0.879	1.328
-56.261	-200.000	99.256	582.902
-55.246	608.206	1417.443	3491.801
-54.232	180.945	2648.486	3841.126
-53.217	119.124	2201.398	2687.507
-52.203	45.549	1642.945	1497.713
-51.188	37.258	1374.583	1201.982
-50.173	33.855	1331.351	1143.686
-49.159	55.835	1382.753	1323.244
-48.144	59.576	1399.874	1362.486
-47.130	37.524	1353.054	1184.588
-46.115	33.820	1335.358	1146.731
-45.100	33.646	1330.468	1141.437
-44.086	33.430	1328.168	1138.122
-43.071	33.425	1325.943	1136.145
-42.057	33.499	1323.650	1134.576
-41.042	33.549	1321.747	1133.199
-40.027	33.465	1320.608	1131.674
-39.013	33.418	1318.663	1129.683
-37.998	33.529	1316.269	1128.247
-36.984	33.688	1314.558	1127.680
-35.969	33.702	1312.172	1125.671
-34.954	33.662	1310.933	1124.329
-33.940	33.694	1309.659	1123.381
-32.925	33.751	1308.499	1122.678
-31.911	33.724	1306.929	1121.125
-30.896	33.713	1305.586	1119.868
-29.881	33.677	1304.039	1118.283
-28.867	33.741	1302.310	1117.133
-27.852	33.762	1301.175	1116.238
-26.838	33.770	1299.320	1114.649
-25.823	33.743	1298.318	1113.584
-24.809	33.668	1296.753	1111.763
-23.794	33.675	1295.389	1110.587
-22.779	33.682	1294.259	1109.618
-21.765	33.768	1292.664	1108.706
-20.750	33.722	1291.841	1107.691
-19.736	33.565	1290.633	1105.693
-18.721	33.579	1289.143	1104.455
-17.706	33.589	1288.027	1103.513
-16.692	33.536	1287.307	1102.546
-15.677	33.606	1285.422	1101.290
-14.663	33.588	1284.243	1100.136
-13.648	33.519	1283.472	1099.032
-12.633	33.604	1282.045	1098.256
-11.619	33.559	1281.352	1097.357
-10.604	33.575	1280.309	1096.516
-9.590	33.509	1279.642	1095.519
-8.575	33.502	1278.834	1094.745
-7.560	33.560	1277.531	1093.917
-6.546	33.595	1276.534	1093.222
-5.531	33.516	1275.942	1092.219
-4.517	33.560	1275.057	1091.670
-3.502	33.462	1274.257	1090.379
-2.487	33.509	1273.203	1089.705
-1.473	33.661	1268.908	1086.857
-0.458	32.751	1254.123	1068.991
0.556	27.484	1236.910	1031.773
1.571	24.276	1241.564	1017.291
2.586	23.487	1257.629	1025.798
3.600	22.430	1246.318	1010.423
4.615	15.540	1169.486	910.816
5.629	4.907	1089.786	794.678
6.644	0.402	1068.462	756.493
7.659	-0.035	1065.831	752.382
8.673	-0.011	1064.356	751.393
9.688	-0.035	1062.867	750.154
10.702	0.436	1061.760	751.653
11.717	6.980	1071.905	791.611
12.731	16.943	1086.280	852.472
13.746	21.332	1091.263	878.417
14.761	21.898	1091.850	881.654
15.775	21.910	1091.189	881.104
16.790	21.573	1090.163	878.505
17.804	21.535	1089.717	877.878
18.819	21.684	1089.343	878.249
19.834	21.819	1088.869	878.462
20.848	21.807	1088.438	877.978
21.863	21.758	1087.868	877.194
22.877	21.733	1087.400	876.615
23.892	21.671	1086.123	875.201
24.907	21.752	1085.388	874.931
25.921	21.657	1084.736	873.857
26.936	21.566	1083.357	872.214
27.950	21.614	1081.988	871.276
28.965	21.525	1079.615	868.844
29.980	21.717	1077.669	868.151
30.994	21.838	1077.074	868.196
32.009	21.876	1075.936	867.392
33.023	21.587	1074.327	864.591
34.038	21.611	1074.514	864.783
35.053	21.811	1073.551	864.917
36.067	21.765	1072.739	863.957
37.082	21.762	1072.248	863.473
38.096	21.983	1071.255	863.684
39.111	22.026	1070.685	863.358
40.126	21.836	1069.210	861.162
41.140	21.509	1066.971	857.676
42.155	21.405	1065.932	856.260
43.169	21.374	1064.764	855.091
44.184	21.494	1063.519	854.606
45.199	21.327	1062.653	853.016
46.213	21.423	1062.133	852.995
47.228	21.567	1060.866	852.602
48.242	21.718	1059.924	852.501
49.257	21.874	1059.029	852.464
50.271	21.645	1058.631	850.959
51.286	21.803	1057.987	851.133
52.301	21.941	1056.917	850.866
53.315	21.695	1056.303	849.103
54.330	21.749	1054.849	848.123
55.344	21.842	1053.849	847.690
56.359	21.788	1053.137	846.784
57.374	21.425	1052.120	844.141
58.388	21.611	1051.256	844.266
59.403	21.440	1050.767	842.977
60.417	21.346	1049.420	841.368
61.432	21.468	1048.736	841.331
62.447	21.561	1048.434	841.464
63.461	21.630	1047.655	841.092
64.476	21.495	1046.431	839.390
65.490	21.300	1045.747	837.832
66.505	21.495	1044.728	837.873
67.520	21.579	1043.897	837.538
68.534	21.441	1042.897	835.998
69.549	21.004	1041.999	833.118
70.563	21.052	1041.275	832.695
71.578	21.125	1040.334	832.218
72.593	20.940	1039.092	830.271
73.607	21.039	1038.353	830.076
74.622	21.498	1038.181	832.051
75.636	21.446	1037.299	831.020
76.651	21.179	1036.759	829.249
77.666	21.086	1036.044	828.158
78.680	21.268	1035.037	828.146
79.695	21.241	1034.549	827.552
80.709	21.408	1033.671	827.570
81.724	21.375	1033.299	827.040
82.739	21.473	1031.852	826.272
83.753	21.769	1031.737	827.507
84.768	21.935	1031.215	827.795
85.782	22.049	1030.080	827.352
86.797	21.995	1029.041	826.189
87.812	21.855	1028.055	824.665
88.826	22.045	1026.935	824.585
89.841	22.063	1025.709	823.612
90.855	22.011	1025.047	822.767
91.870	21.899	1024.343	821.604
92.884	21.837	1023.246	820.361
93.899	21.687	1022.084	818.652
94.914	21.913	1021.172	818.908
95.928	21.872	1020.122	817.801
96.943	21.779	1018.549	816.036
97.957	21.277	1017.528	812.808
98.972	21.263	1016.317	811.707
99.987	21.423	1016.052	812.167
101.001	21.581	1015.206	812.151
102.016	21.563	1014.500	811.430
103.030	21.530	1013.260	810.215
104.045	21.612	1011.547	809.150
105.060	21.371	1010.725	807.311
106.074	21.527	1010.034	807.406
107.089	21.880	1009.669	808.670
108.103	21.793	1008.552	807.305
109.118	21.581	1007.357	805.299
110.133	21.445	1006.743	804.111
111.147	21.399	1005.036	802.468
112.162	21.254	1004.030	800.929
113.176	21.505	1003.056	801.228
114.191	21.331	1002.521	799.936
115.206	21.121	1001.104	797.776
116.220	21.056	1000.441	796.878
117.235	21.197	999.758	796.908
118.249	21.235	998.865	796.298
119.264	21.130	998.304	795.300
120.279	21.282	997.350	795.166
121.293	21.233	996.844	794.466
122.308	21.364	995.165	793.655
123.322	21.241	993.957	792.062
124.337	21.027	992.940	790.210
125.352	20.540	991.480	786.775
126.366	20.659	990.178	786.212
127.381	21.326	990.224	789.192
128.395	21.634	990.099	790.412
129.410	21.731	988.859	789.788
130.424	21.783	987.635	788.976
131.439	21.727	986.979	788.131
132.454	21.703	986.401	787.492
133.468	21.744	984.898	786.405
134.483	21.779	984.355	786.061
135.497	21.885	983.722	785.961
136.512	22.003	982.473	785.423
137.527	22.016	982.028	785.053
138.541	21.949	981.240	784.053
139.556	21.926	980.211	783.059
140.570	22.005	979.366	782.669
141.585	22.074	977.921	781.751
142.600	22.033	977.144	780.878
143.614	22.215	976.684	781.252
144.629	22.309	975.533	780.677
145.643	22.036	974.464	778.542
146.658	22.008	973.391	777.494
147.673	21.938	972.117	776.096
148.687	21.772	971.376	774.701
149.702	21.662	970.373	773.349
150.716	21.694	969.346	772.603
151.731	21.940	968.354	772.826
152.746	22.127	967.823	773.159
153.760	21.963	967.602	772.194
154.775	21.983	966.702	771.494
155.789	22.016	965.929	770.951
156.804	22.100	964.665	770.246
157.819	22.151	963.967	769.845
158.833	22.323	963.183	769.899
159.848	22.143	962.288	768.330
160.862	22.074	960.985	766.920
161.877	22.146	960.119	766.476
162.892	22.175	959.173	765.780
163.906	22.139	958.292	764.854
164.921	22.147	957.112	763.879
165.935	22.146	956.172	763.053
166.950	22.118	955.107	762.017
167.964	22.054	954.596	761.266
168.979	21.995	953.499	760.068
169.994	21.924	952.406	758.819
171.008	22.243	951.804	759.652
172.023	22.242	950.797	758.779
173.037	22.014	949.820	756.946
174.052	21.719	949.250	755.154
175.067	21.940	948.330	755.307
176.081	22.055	947.679	755.217
177.096	21.803	947.285	753.751
178.110	21.627	946.259	752.113
179.125	21.506	945.417	750.860
180.140	21.511	945.481	750.865
181.154	21.619	945.207	751.042
182.169	22.105	944.521	752.515
183.183	22.241	943.757	752.420
184.198	21.928	943.417	750.746
185.213	22.050	942.273	750.291
186.227	22.157	941.405	749.990
187.242	22.213	940.688	749.591
188.256	22.190	940.335	749.144
189.271	22.239	939.554	748.665
190.286	21.874	938.315	746.059
191.300	21.382	937.065	742.910
192.315	20.708	935.686	738.888
193.329	20.576	935.168	737.855
194.344	21.595	935.510	742.381
195.359	21.948	935.299	743.644
196.373	22.075	934.656	743.606
197.388	21.821	934.477	742.324
198.402	21.915	933.546	741.916
199.417	21.987	932.498	741.322
200.432	21.729	931.884	739.677
201.446	21.678	930.924	738.636
202.461	21.652	930.467	738.096
203.475	20.750	928.554	732.722
204.490	19.938	927.057	728.059
205.504	20.941	927.700	732.721
206.519	21.668	927.723	735.728
207.534	21.722	926.942	735.270
208.548	22.066	926.630	736.398
209.563	21.921	925.455	734.795
210.577	21.874	925.037	734.199
211.592	22.261	924.735	735.516
212.607	22.138	923.535	733.979
213.621	22.159	923.244	733.773
214.636	22.136	923.214	733.586
215.650	22.088	921.883	732.265
216.665	22.225	921.056	732.115
217.680	22.170	920.307	731.226
218.694	21.791	919.188	728.694
219.709	21.659	918.436	727.486
220.723	21.998	918.304	728.728
221.738	22.012	917.779	728.304
222.753	21.913	917.149	727.329
223.767	21.866	916.740	726.743
224.782	22.139	916.644	727.734
225.796	22.153	916.133	727.321
226.811	21.677	914.243	723.794
227.826	21.072	912.506	719.855
228.840	21.239	912.181	720.223
229.855	21.216	911.740	719.717
230.869	20.824	910.730	717.244
231.884	21.265	910.809	719.059
232.899	22.087	910.500	722.133
233.913	21.961	909.847	721.032
234.928	22.091	909.027	720.852
235.942	21.861	908.617	719.520
236.957	21.820	907.536	718.430
237.972	21.722	907.205	717.704
238.986	21.827	906.775	717.731
240.001	21.723	906.097	716.705
241.015	21.815	905.734	716.730
242.030	21.899	905.233	716.616
243.045	22.061	904.526	716.652
244.059	22.179	904.447	717.007
245.074	22.094	903.043	715.487
246.088	21.757	901.742	713.020
247.103	21.846	902.036	713.554
248.117	22.518	901.464	715.768
249.132	22.684	901.438	716.357
250.147	22.739	901.255	716.374
251.161	22.918	900.324	716.296
252.176	22.715	899.877	715.053
253.190	22.891	898.996	715.000
254.205	23.121	898.725	715.655
255.220	23.007	898.131	714.657
256.234	22.848	897.131	713.155
257.249	22.724	896.749	712.287
258.263	22.786	895.981	711.866
259.278	22.995	894.874	711.764
260.293	22.893	894.446	710.950
261.307	22.861	893.752	710.208
262.322	22.700	892.423	708.440
263.336	21.779	890.877	703.457
264.351	20.915	888.865	698.344
265.366	20.966	888.782	698.423
266.380	22.177	889.220	703.558
267.395	22.501	888.998	704.616
268.409	22.445	888.333	703.801
269.424	22.718	887.954	704.528
270.439	22.569	887.680	703.656
271.453	22.659	886.665	703.148
272.468	22.760	886.473	703.336
273.482	22.904	886.197	703.628
274.497	22.595	884.436	700.938
275.512	22.290	883.798	699.161
276.526	22.675	883.795	700.625
277.541	22.632	883.625	700.258
278.555	22.539	882.441	698.888
279.570	22.399	881.649	697.642
280.585	22.551	881.111	697.757
281.599	22.608	879.993	697.036
282.614	21.959	878.821	693.481
283.628	22.068	878.320	693.456
284.643	22.265	878.208	694.084
285.657	21.920	876.968	691.683
286.672	21.582	876.167	689.660
287.687	22.197	876.155	692.010
288.701	22.278	875.399	691.671
289.716	21.990	874.670	689.900
290.730	21.987	874.105	689.384
291.745	21.712	873.034	687.398
292.760	21.870	873.198	688.087
293.774	23.042	873.099	692.542
294.789	23.234	873.028	693.177
295.803	23.250	872.585	692.827
296.818	23.212	872.045	692.186
297.833	22.846	870.626	689.572
298.847	22.614	869.719	687.887
299.862	23.116	869.481	689.594
300.876	23.271	869.250	689.955
301.891	23.007	868.513	688.279
302.906	22.729	867.332	686.201
303.920	22.810	867.220	686.367
304.935	23.210	866.696	687.445
305.949	23.223	866.095	686.958
306.964	22.864	865.462	685.003
307.979	23.065	865.173	685.492
308.993	23.341	865.081	686.429
310.008	23.429	864.053	685.893
311.022	23.109	863.325	684.016
312.037	23.032	862.571	683.064
313.052	22.649	861.904	680.994
314.066	22.103	860.016	677.340
315.081	21.584	859.671	675.007
316.095	22.384	859.968	678.264
317.110	22.983	859.732	680.324
318.125	22.130	857.995	675.611
319.139	21.019	856.807	670.348
320.154	21.085	856.400	670.225
321.168	21.936	857.121	673.999
322.183	22.676	856.524	676.309
323.197	22.638	856.599	676.163
324.212	23.028	856.180	677.266
325.227	23.023	855.559	676.696
326.241	23.033	854.654	675.958
327.256	22.758	854.722	674.903
328.270	22.842	853.633	674.301
329.285	22.539	852.738	672.378
330.300	22.321	852.144	671.020
331.314	22.649	851.741	671.894
332.329	22.997	851.601	673.048
333.343	23.218	851.123	673.452
334.358	23.000	851.007	672.472
335.373	23.011	850.356	671.941
336.387	23.522	849.903	673.464
337.402	23.493	850.224	673.548
338.416	23.290	849.701	672.304
339.431	23.481	849.550	672.849
340.446	23.625	849.134	673.005
341.460	23.365	848.789	671.687
342.475	23.300	847.977	670.741
343.489	23.469	847.619	671.038
344.504	23.741	847.221	671.690
345.519	23.995	847.005	672.419
346.533	23.870	846.407	671.413
347.548	23.869	845.928	670.970
348.562	23.875	845.207	670.362
349.577	23.629	845.072	669.269
350.592	23.740	844.267	668.990
351.606	23.858	843.360	668.656
352.621	23.754	842.447	667.483
353.635	23.653	842.003	666.691
354.650	22.975	840.118	662.598
355.665	22.095	838.593	658.044
356.679	22.558	838.247	659.448
357.694	23.002	837.845	660.730
358.708	22.971	837.281	660.113
359.723	23.069	837.503	660.597
360.738	23.448	836.930	661.498
361.752	23.617	836.539	661.764
362.767	23.916	836.581	662.850
363.781	24.031	836.261	662.967
364.796	24.204	835.391	662.863
365.810	24.265	835.248	662.917
366.825	24.135	834.824	662.041
367.840	23.922	834.204	660.699
368.854	23.486	832.758	657.878
369.869	23.605	832.637	658.166
370.883	23.605	832.296	657.838
371.898	23.580	831.906	657.377
372.913	23.662	831.499	657.303
373.927	23.682	830.741	656.718
374.942	23.818	830.386	656.881
375.956	23.921	829.994	656.895
376.971	23.952	830.061	657.004
377.986	24.157	829.287	657.089
379.000	24.281	828.325	656.727
380.015	23.950	828.175	655.332
381.029	24.128	827.482	655.379
382.044	24.240	827.084	655.416
383.059	24.234	826.442	654.829
384.073	24.334	825.507	654.395
385.088	24.206	824.879	653.371
386.102	24.079	824.303	652.391
387.117	24.110	823.631	651.916
388.132	23.647	822.617	649.363
389.146	23.103	822.022	646.846
390.161	23.510	821.876	648.162
391.175	23.982	821.719	649.706
392.190	23.693	820.438	647.580
393.205	22.303	818.257	640.744
394.219	20.826	816.893	634.243
395.234	20.838	816.566	633.977
396.248	22.327	817.946	640.417
397.263	23.749	818.964	646.336
398.278	23.847	818.404	646.193
399.292	23.625	817.389	644.526
400.307	23.646	817.013	644.250
401.321	23.601	816.508	643.633
402.336	24.074	816.825	645.541
403.350	24.443	816.706	646.725
404.365	24.790	816.236	647.553
405.380	24.967	815.829	647.815
406.394	24.930	815.585	647.428
407.409	24.817	815.274	646.717
408.423	24.733	814.890	646.052
409.438	24.930	814.187	646.146
410.453	24.992	813.496	645.763
411.467	24.838	813.252	644.960
412.482	24.879	812.806	644.698
413.496	24.932	812.562	644.637
414.511	24.881	812.582	644.412
415.526	24.921	811.654	643.765
416.540	24.872	810.676	642.754
417.555	24.541	809.613	640.666
418.569	24.591	809.998	641.094
419.584	24.632	809.414	640.723
420.599	24.270	808.831	638.906
421.613	154.738	1365.644	1793.958
422.628	134.500	1446.763	1794.034
