DTS Sentinel unit serial number:	SN413079Multiplexer serial number:	ORYXHardware model number:	OX4-SRSoftware version number:	ORYX F/W v4.00 Oryx Data Collector v3.7.2.0data status	okinstallation	princeton_trtdifferential loss correction	single-endedforward channel	channel 1reverse channel	N/Adate	2019/09/15time	06:30:35forward acquisition time	60.00reverse acquisition time	0.00gamma	496.2192k internal	0.2324k external	0.2324temperature offset calibration	0.9995default loss term (dB/km)	0.3790temperature slope calibration	1.0000multiplexer offset coefficient	1.0000multiplexer slope coefficient	1.0000fibre end	0.00T internal ref (°C)	30.50T ext. ref 1 (°C)	4.81T ext. ref 2 (°C)	25.37length (m)	temperature (°C)	Stokes	anti-Stokes-747.200	88.788	-0.099	0.111
-746.185	-200.000	0.075	0.422
-745.171	12.638	-0.067	-0.052
-744.156	187.628	0.194	0.293
-743.142	261.530	0.148	-0.258
-742.127	9.263	-0.270	0.206
-741.112	-200.000	0.002	-0.171
-740.098	800.000	-0.171	0.528
-739.083	-200.000	0.016	-0.104
-738.069	-200.000	0.000	-0.207
-737.054	-113.319	-0.119	-0.024
-736.039	-40.376	-0.172	0.090
-735.025	390.677	0.176	0.368
-734.010	-115.108	-0.232	0.044
-732.996	-54.294	-0.380	-0.174
-731.981	-33.879	-0.416	-0.231
-730.966	800.000	0.067	-0.245
-729.952	-11.094	0.113	0.075
-728.937	19.428	-0.187	-0.151
-727.923	-200.000	-0.043	-0.213
-726.908	175.694	0.085	-0.124
-725.894	334.567	-0.052	0.102
-724.879	-8.745	0.222	-0.150
-723.864	-200.000	-0.010	0.234
-722.850	800.000	0.039	0.155
-721.835	267.300	-0.217	0.382
-720.821	19.774	-0.078	0.063
-719.806	-200.000	0.056	0.263
-718.791	-161.404	0.157	0.008
-717.777	-9.679	0.115	0.077
-716.762	-200.000	-0.045	0.317
-715.748	7.714	-0.219	-0.165
-714.733	-200.000	0.024	-0.174
-713.718	9.375	-0.122	-0.093
-712.704	-151.559	-0.126	0.009
-711.689	-34.021	0.307	-0.170
-710.675	-120.752	0.206	-0.035
-709.660	-83.037	-0.186	-0.060
-708.645	252.334	0.081	0.138
-707.631	-81.179	-0.257	0.085
-706.616	-137.280	-0.255	0.029
-705.602	800.000	0.073	-0.222
-704.587	-134.795	-0.105	-0.013
-703.572	-12.990	0.076	0.050
-702.558	-59.385	-0.259	-0.112
-701.543	-52.278	0.192	-0.090
-700.529	100.265	0.088	0.103
-699.514	-141.322	-0.405	0.041
-698.499	188.756	-0.112	-0.169
-697.485	-200.000	-0.006	0.112
-696.470	-156.618	0.259	0.016
-695.456	-8.251	0.209	-0.142
-694.441	-182.012	-0.334	-0.006
-693.426	-27.101	0.050	-0.030
-692.412	-34.988	-0.239	-0.131
-691.397	61.790	0.141	-0.141
-690.383	-19.474	-0.306	-0.191
-689.368	176.304	-0.110	-0.161
-688.354	-200.000	0.017	-0.130
-687.339	800.000	-0.009	0.027
-686.324	-200.000	0.066	-0.377
-685.310	-155.404	0.135	-0.009
-684.295	800.000	-0.071	0.215
-683.281	132.936	0.264	0.343
-682.266	-126.302	-0.333	-0.050
-681.251	39.515	-0.357	-0.322
-680.237	-114.629	-0.091	-0.017
-679.222	-200.000	-0.022	0.126
-678.208	-200.000	-0.095	0.468
-677.193	-200.000	-0.009	0.042
-676.178	396.471	-0.140	-0.294
-675.164	72.683	-0.035	-0.037
-674.149	800.000	-0.025	0.091
-673.135	644.631	-0.058	-0.148
-672.120	216.283	0.133	-0.213
-671.105	4.995	-0.124	0.092
-670.091	-76.060	-0.287	0.102
-669.076	800.000	0.031	-0.127
-668.062	559.139	0.122	-0.296
-667.047	-200.000	0.017	0.087
-666.032	-22.811	0.077	-0.047
-665.018	247.386	-0.130	-0.221
-664.003	800.000	-0.040	0.125
-662.989	800.000	0.061	-0.176
-661.974	-200.000	-0.035	-0.377
-660.959	-71.647	0.438	-0.165
-659.945	191.594	0.165	0.251
-658.930	37.998	0.062	0.055
-657.916	-154.498	-0.060	0.004
-656.901	800.000	0.044	0.135
-655.886	-123.048	-0.079	-0.013
-654.872	-74.567	-0.338	0.123
-653.857	-160.904	0.152	0.008
-652.843	323.177	0.157	-0.301
-651.828	-200.000	-0.105	-0.000
-650.814	95.338	0.051	0.058
-649.799	-48.523	-0.316	0.153
-648.784	-200.000	0.006	0.094
-647.770	-48.331	-0.356	-0.173
-646.755	271.133	-0.161	-0.286
-645.741	-152.801	0.305	-0.022
-644.726	17.537	-0.139	0.111
-643.711	-112.289	0.259	0.052
-642.697	532.388	0.155	-0.368
-641.682	562.525	0.120	0.291
-640.668	-49.236	-0.375	-0.180
-639.653	-80.386	-0.090	-0.030
-638.638	-105.551	-0.465	-0.106
-637.624	138.809	0.123	-0.163
-636.609	164.691	-0.175	0.248
-635.595	-200.000	-0.038	0.293
-634.580	-200.000	0.024	0.215
-633.565	-126.718	-0.436	0.065
-632.551	379.174	-0.037	-0.075
-631.536	-55.867	0.121	-0.054
-630.522	-6.975	-0.416	-0.284
-629.507	-200.000	0.004	-0.023
-628.492	-200.000	-0.008	0.314
-627.478	344.035	-0.203	-0.400
-626.463	180.013	0.248	-0.366
-625.449	-200.000	-0.013	0.233
-624.434	766.417	0.059	-0.161
-623.419	-200.000	0.030	-0.137
-622.405	-200.000	-0.038	-0.227
-621.390	-112.681	0.147	0.029
-620.376	234.665	-0.155	0.257
-619.361	69.341	0.098	-0.102
-618.346	690.917	-0.065	0.170
-617.332	120.339	-0.110	-0.137
-616.317	-168.018	-0.070	0.003
-615.303	-131.421	-0.266	0.035
-614.288	-185.637	0.111	-0.002
-613.273	-200.000	-0.033	-0.205
-612.259	-118.448	-0.357	0.063
-611.244	-80.708	0.183	-0.061
-610.230	59.910	-0.211	0.209
-609.215	399.341	-0.100	0.210
-608.201	107.416	-0.068	0.081
-607.186	-77.170	0.274	0.096
-606.171	-86.081	-0.241	0.075
-605.157	-200.000	0.013	-0.139
-604.142	251.230	-0.068	0.116
-603.128	419.407	-0.110	0.235
-602.113	-104.906	0.034	-0.008
-601.098	598.822	0.035	0.087
-600.084	67.285	0.258	0.264
-599.069	274.579	0.101	0.179
-598.055	-24.696	0.321	0.192
-597.040	800.000	0.022	-0.067
-596.025	-19.581	0.124	0.077
-595.011	-113.196	0.391	-0.077
-593.996	-200.000	-0.084	-0.406
-592.982	-74.624	0.173	-0.062
-591.967	-152.243	-0.161	0.012
-590.952	143.189	-0.170	-0.227
-589.938	87.957	0.120	-0.134
-588.923	-200.000	0.027	0.209
-587.909	205.244	0.147	0.230
-586.894	408.101	0.156	0.331
-585.879	134.153	-0.142	0.185
-584.865	-132.784	0.145	0.019
-583.850	329.128	-0.121	-0.234
-582.836	-200.000	0.028	0.144
-581.821	-102.612	0.067	0.016
-580.806	-200.000	-0.193	0.001
-579.792	7.117	0.417	0.312
-578.777	-82.766	-0.321	0.104
-577.763	-76.644	-0.055	0.019
-576.748	-103.563	0.259	-0.061
-575.733	553.567	0.089	-0.215
-574.719	-200.000	0.022	0.322
-573.704	-200.000	-0.032	-0.291
-572.690	-129.382	0.420	0.058
-571.675	-62.042	-0.503	0.211
-570.661	-200.000	0.004	-0.018
-569.646	333.588	-0.169	-0.327
-568.631	161.832	-0.069	0.097
-567.617	-73.747	-0.007	0.002
-566.602	800.000	0.099	0.305
-565.588	-62.262	0.181	0.076
-564.573	800.000	0.028	-0.093
-563.558	73.152	0.199	0.209
-562.544	98.425	-0.239	0.276
-561.529	50.548	-0.194	-0.184
-560.515	-200.000	0.018	-0.413
-559.500	-200.000	0.002	-0.109
-558.485	-12.169	-0.246	0.161
-557.471	-109.384	0.173	0.037
-556.456	-200.000	-0.055	-0.272
-555.442	-156.813	0.172	0.011
-554.427	-89.801	-0.170	0.050
-553.412	68.758	0.168	-0.172
-552.398	-125.860	0.096	-0.015
-551.383	-114.079	-0.154	0.030
-550.369	-59.416	0.282	0.121
-549.354	497.940	-0.056	-0.129
-548.339	34.778	0.107	0.094
-547.325	104.329	0.199	0.234
-546.310	56.329	0.247	0.240
-545.296	-3.295	-0.248	-0.173
-544.281	6.839	-0.168	0.125
-543.266	-200.000	0.009	-0.154
-542.252	800.000	-0.063	-0.207
-541.237	-164.295	-0.431	-0.020
-540.223	108.762	0.209	-0.250
-539.208	-88.516	0.151	0.045
-538.193	-98.092	0.091	0.023
-537.179	127.786	-0.100	0.128
-536.164	-14.854	-0.265	0.170
-535.150	-180.345	-0.267	0.006
-534.135	-140.124	-0.197	-0.021
-533.121	-105.661	0.240	0.054
-532.106	800.000	-0.061	-0.197
-531.091	21.538	-0.020	-0.016
-530.077	776.249	-0.082	-0.224
-529.062	-200.000	-0.004	0.147
-528.048	227.337	0.050	0.081
-527.033	289.761	0.132	0.239
-526.018	-92.415	0.201	0.057
-525.004	-61.806	0.080	0.033
-523.989	-89.535	-0.275	-0.081
-522.975	182.796	0.116	-0.171
-521.960	-93.063	-0.169	-0.047
-520.945	72.849	0.090	0.094
-519.931	-91.587	-0.242	0.069
-518.916	-198.839	-0.279	-0.002
-517.902	-111.482	0.115	0.023
-516.887	74.136	-0.302	0.317
-515.872	800.000	0.032	-0.125
-514.858	16.936	0.274	0.217
-513.843	-200.000	-0.001	-0.055
-512.829	-95.673	0.114	0.031
-511.814	800.000	-0.093	-0.318
-510.799	372.988	-0.051	0.105
-509.785	-200.000	0.033	0.153
-508.770	60.212	0.176	-0.174
-507.756	20.076	-0.053	-0.043
-506.741	-130.661	0.278	-0.037
-505.726	193.652	-0.204	-0.309
-504.712	-200.000	0.015	-0.068
-503.697	-158.949	-0.112	-0.006
-502.683	55.104	0.092	-0.089
-501.668	-38.671	0.259	-0.137
-500.653	-179.733	0.339	-0.007
-499.639	338.019	0.023	-0.044
-498.624	-72.077	-0.288	0.107
-497.610	0.368	0.055	-0.039
-496.595	-181.404	0.058	0.001
-495.581	8.115	0.319	0.239
-494.566	100.654	0.107	-0.124
-493.551	-200.000	0.020	-0.088
-492.537	72.167	-0.182	-0.189
-491.522	-32.761	0.123	-0.068
-490.508	186.350	-0.135	0.201
-489.493	590.914	0.024	0.059
-488.478	147.934	0.137	0.184
-487.464	-17.607	-0.032	-0.020
-486.449	-200.000	0.037	0.222
-485.435	-8.586	0.153	-0.103
-484.420	-112.149	-0.097	0.019
-483.405	-87.324	-0.290	-0.088
-482.391	-142.642	-0.100	0.010
-481.376	-137.479	0.138	-0.016
-480.362	-87.960	0.294	0.088
-479.347	-26.919	-0.125	0.073
-478.332	-200.000	-0.012	-0.108
-477.318	-87.825	-0.272	-0.082
-476.303	85.804	-0.182	-0.200
-475.289	207.643	-0.128	-0.199
-474.274	99.327	-0.226	-0.261
-473.259	-23.547	-0.057	0.034
-472.245	-72.415	0.076	-0.028
-471.230	70.454	0.120	-0.124
-470.216	2.795	0.013	0.009
-469.201	-43.985	0.082	-0.041
-468.186	-108.779	0.418	0.089
-467.172	-66.861	-0.224	0.088
-466.157	30.829	0.251	-0.214
-465.143	-164.654	-0.115	0.005
-464.128	745.602	0.046	0.123
-463.113	-81.606	0.193	-0.063
-462.099	82.050	0.115	0.124
-461.084	0.444	-0.104	0.074
-460.070	9.532	-0.331	0.250
-459.055	99.290	0.277	-0.319
-458.040	-90.203	-0.322	-0.094
-457.026	-200.000	-0.018	-0.122
-456.011	413.167	0.071	-0.151
-454.997	554.577	-0.071	-0.171
-453.982	414.256	0.118	-0.250
-452.968	69.690	-0.045	-0.046
-451.953	-24.736	-0.346	-0.205
-450.938	800.000	-0.149	-0.473
-449.924	177.877	0.111	-0.162
-448.909	-111.346	0.088	-0.018
-447.895	-88.598	-0.376	0.112
-446.880	142.405	-0.048	-0.064
-445.865	800.000	0.030	-0.099
-444.851	-200.000	0.004	0.051
-443.836	433.457	0.108	0.234
-442.822	-200.000	-0.006	0.144
-441.807	800.000	0.109	-0.333
-440.792	114.221	0.240	-0.292
-439.778	124.968	-0.276	0.347
-438.763	-25.229	-0.121	-0.071
-437.749	15.040	-0.119	-0.093
-436.734	-200.000	0.040	-0.186
-435.719	-85.679	-0.231	0.072
-434.705	800.000	-0.128	0.353
-433.690	67.103	0.118	-0.120
-432.676	92.923	0.109	-0.123
-431.661	-152.286	0.416	0.030
-430.646	30.857	-0.120	-0.103
-429.632	-200.000	-0.005	-0.345
-428.617	-50.010	0.122	-0.058
-427.603	-79.766	0.079	-0.027
-426.588	346.777	-0.060	0.118
-425.573	64.758	0.128	-0.129
-424.559	129.196	-0.182	-0.232
-423.544	306.491	0.119	0.221
-422.530	-13.104	0.044	0.029
-421.515	177.679	-0.077	-0.111
-420.500	491.715	0.089	-0.202
-419.486	-115.425	0.284	0.053
-418.471	39.907	0.213	-0.190
-417.457	-170.614	0.225	-0.008
-416.442	332.062	0.150	-0.288
-415.428	-200.000	-0.058	-0.328
-414.413	153.818	-0.059	-0.080
-413.398	-36.844	-0.134	0.072
-412.384	-41.851	0.353	0.180
-411.369	-200.000	-0.005	0.197
-410.355	103.648	0.113	-0.132
-409.340	-188.035	0.166	-0.002
-408.325	-200.000	-0.037	0.311
-407.311	-121.710	0.166	0.027
-406.296	246.972	-0.212	0.357
-405.282	177.095	-0.226	0.328
-404.267	800.000	0.088	0.361
-403.252	274.599	0.126	0.222
-402.238	2.134	-0.305	-0.220
-401.223	280.382	0.146	0.260
-400.209	63.042	-0.132	-0.132
-399.194	237.659	0.141	-0.233
-398.179	101.773	-0.080	-0.093
-397.165	-120.713	0.412	-0.069
-396.150	-200.000	0.036	0.257
-395.136	-46.834	0.163	-0.079
-394.121	800.000	-0.073	-0.224
-393.106	-78.209	-0.368	-0.126
-392.092	21.306	0.257	-0.208
-391.077	-10.132	0.222	-0.147
-390.063	404.713	0.113	-0.238
-389.048	-107.642	-0.214	-0.047
-388.033	13.151	-0.152	0.117
-387.019	-200.000	-0.093	-0.412
-386.004	445.654	-0.229	0.502
-384.990	-135.598	-0.304	0.036
-383.975	-43.097	-0.412	-0.208
-382.960	-43.773	-0.105	0.052
-381.946	800.000	-0.080	-0.323
-380.931	248.784	0.137	0.231
-379.917	-46.019	0.195	-0.096
-378.902	-174.339	0.437	0.013
-377.888	-105.653	-0.356	-0.080
-376.873	-101.406	0.039	-0.009
-375.858	-57.851	0.160	-0.069
-374.844	286.170	0.131	0.236
-373.829	-200.000	-0.013	-0.149
-372.815	800.000	-0.095	-0.270
-371.800	-200.000	-0.011	0.210
-370.785	800.000	-0.077	-0.228
-369.771	259.063	0.037	0.063
-368.756	-200.000	0.009	-0.063
-367.742	115.534	0.128	0.156
-366.727	51.350	-0.197	0.186
-365.712	14.326	0.119	0.092
-364.698	-20.960	0.359	0.219
-363.683	800.000	0.028	0.107
-362.669	200.295	0.137	0.210
-361.654	-8.558	0.045	0.030
-360.639	-200.000	0.036	0.265
-359.625	800.000	-0.055	0.211
-358.610	286.794	0.109	0.196
-357.596	-27.212	-0.206	-0.120
-356.581	32.748	0.175	0.150
-355.566	-64.679	0.132	0.053
-354.552	206.974	-0.140	-0.216
-353.537	-200.000	-0.044	0.432
-352.523	154.618	-0.240	-0.328
-351.508	305.811	0.109	0.201
-350.493	54.487	-0.155	-0.148
-349.479	-20.255	-0.171	0.105
-348.464	39.437	-0.072	-0.064
-347.450	-63.882	0.138	0.056
-346.435	78.991	-0.178	-0.190
-345.420	-2.598	0.225	-0.156
-344.406	-62.514	0.297	0.123
-343.391	63.610	0.031	0.031
-342.377	126.850	0.115	0.145
-341.362	170.592	-0.116	0.165
-340.348	-128.631	-0.261	0.037
-339.333	48.365	0.315	0.293
-338.318	331.630	0.034	0.065
-337.304	-176.536	-0.225	-0.006
-336.289	158.291	-0.265	0.365
-335.275	-200.000	0.001	-0.031
-334.260	-5.692	0.134	0.091
-333.245	357.133	-0.057	0.113
-332.231	800.000	0.041	0.139
-331.216	-186.255	-0.146	0.002
-330.202	-116.262	0.390	-0.072
-329.187	-200.000	-0.009	-0.105
-328.172	-200.000	-0.027	-0.142
-327.158	-0.488	0.133	-0.094
-326.143	800.000	0.016	-0.058
-325.129	800.000	0.104	0.319
-324.114	447.555	-0.081	-0.177
-323.099	-200.000	-0.005	0.241
-322.085	1.599	0.135	-0.097
-321.070	-59.484	0.229	0.098
-320.056	162.731	0.062	-0.087
-319.041	143.467	-0.149	-0.197
-318.026	18.713	0.147	-0.117
-317.012	42.836	0.088	0.079
-315.997	-66.570	-0.293	0.115
-314.983	-200.000	0.006	-0.113
-313.968	-70.352	-0.329	-0.124
-312.953	-66.681	0.293	0.115
-311.939	-71.992	-0.303	-0.112
-310.924	-161.908	-0.107	0.005
-309.910	148.265	0.149	0.200
-308.895	-142.662	-0.271	0.026
-307.880	-200.000	-0.071	-0.320
-306.866	-194.816	0.137	0.001
-305.851	-200.000	0.046	0.304
-304.837	374.523	0.180	0.363
-303.822	800.000	0.047	0.198
-302.807	-27.812	0.163	-0.094
-301.793	285.797	-0.048	0.086
-300.778	-119.040	-0.391	-0.068
-299.764	-152.489	0.135	0.010
-298.749	800.000	0.025	0.078
-297.735	-200.000	0.013	0.111
-296.720	-113.014	0.032	-0.006
-295.705	19.184	0.164	-0.131
-294.691	29.828	-0.243	0.205
-293.676	-196.408	0.096	-0.001
-292.662	-38.116	-0.247	0.130
-291.647	129.206	0.217	-0.275
-290.632	-38.400	-0.181	-0.095
-289.618	-59.908	0.164	-0.069
-288.603	-200.000	-0.030	0.179
-287.589	145.119	0.104	-0.137
-286.574	-200.000	0.033	-0.210
-285.559	202.330	-0.115	-0.176
-284.545	800.000	0.023	-0.082
-283.530	-179.438	-0.343	-0.007
-282.516	-58.110	0.053	0.023
-281.501	-63.399	0.312	-0.127
-280.486	-107.239	-0.354	0.077
-279.472	258.369	-0.025	-0.042
-278.457	-200.000	-0.032	-0.296
-277.443	-108.755	0.205	0.044
-276.428	800.000	-0.039	-0.153
-275.413	75.202	0.047	0.049
-274.399	-41.565	0.170	0.086
-273.384	185.331	0.141	0.207
-272.370	-118.233	-0.260	0.046
-271.355	-50.656	0.468	0.219
-270.340	-71.637	-0.111	-0.041
-269.326	-140.058	-0.036	0.004
-268.311	-115.130	0.379	-0.071
-267.297	-144.206	-0.315	-0.029
-266.282	76.816	0.181	0.190
-265.267	-174.183	0.110	-0.003
-264.253	-137.879	0.066	0.007
-263.238	735.350	0.065	0.173
-262.224	174.553	0.162	-0.232
-261.209	-171.719	-0.220	-0.007
-260.195	-61.774	0.130	-0.054
-259.180	-200.000	0.024	0.106
-258.165	128.496	0.212	-0.268
-257.151	-115.052	0.180	0.034
-256.136	51.557	-0.144	0.136
-255.122	52.139	0.208	-0.197
-254.107	-200.000	-0.047	0.308
-253.092	270.218	0.120	-0.210
-252.078	-19.877	0.043	0.026
-251.063	-53.924	-0.135	-0.061
-250.049	89.969	-0.113	-0.125
-249.034	336.191	-0.105	0.201
-248.019	-119.802	-0.124	0.021
-247.005	7.950	0.234	-0.174
-245.990	140.592	-0.092	-0.120
-244.976	-170.450	0.199	-0.007
-243.961	53.161	-0.148	0.141
-242.946	-200.000	0.050	0.247
-241.932	-82.365	0.094	-0.030
-240.917	-55.930	-0.205	0.090
-239.903	-195.867	0.297	0.002
-238.888	59.330	0.053	-0.052
-237.873	800.000	0.149	0.422
-236.859	142.495	-0.028	-0.037
-235.844	555.672	0.110	0.261
-234.830	800.000	0.038	0.137
-233.815	800.000	-0.071	-0.251
-232.800	-119.597	-0.151	-0.026
-231.786	-177.582	0.346	0.008
-230.771	-65.650	0.183	-0.072
-229.757	-5.334	-0.129	0.088
-228.742	82.975	0.055	-0.059
-227.727	-83.591	-0.202	-0.064
-226.713	800.000	0.072	0.224
-225.698	136.453	0.223	-0.288
-224.684	-17.703	0.380	-0.236
-223.669	-18.868	-0.027	-0.017
-222.655	-200.000	0.001	0.043
-221.640	102.140	0.177	-0.205
-220.625	-29.315	0.126	0.072
-219.611	-29.050	0.119	-0.067
-218.596	9.923	-0.106	0.080
-217.582	19.591	-0.321	0.256
-216.567	-1.170	0.166	0.116
-215.552	-68.427	0.209	0.080
-214.538	-146.118	0.179	-0.016
-213.523	-145.192	0.065	0.006
-212.509	-135.399	-0.211	0.025
-211.494	40.608	0.102	-0.090
-210.479	-27.273	-0.058	-0.033
-209.465	246.024	0.101	0.168
-208.450	256.065	0.019	-0.032
-207.436	-11.670	-0.297	-0.193
-206.421	-32.531	-0.450	-0.248
-205.406	241.054	-0.094	0.155
-204.392	800.000	-0.096	-0.319
-203.377	-4.940	-0.253	-0.172
-202.363	60.299	-0.377	0.369
-201.348	55.734	0.143	-0.137
-200.333	800.000	-0.043	0.126
-199.319	178.997	0.185	0.267
-198.304	-137.697	-0.192	-0.021
-197.290	-81.987	0.209	0.068
-196.275	622.002	0.071	0.177
-195.260	-137.040	-0.096	0.011
-194.246	-11.190	0.088	-0.057
-193.231	-29.445	0.293	0.166
-192.217	84.334	-0.015	0.016
-191.202	-143.368	-0.259	-0.024
-190.187	-3.853	-0.473	0.324
-189.173	10.723	0.219	-0.165
-188.158	6.697	-0.117	-0.086
-187.144	-56.227	-0.202	-0.089
-186.129	800.000	-0.056	-0.207
-185.114	11.873	-0.062	0.047
-184.100	129.169	-0.067	-0.085
-183.085	184.950	-0.138	-0.203
-182.071	-155.596	-0.097	-0.006
-181.056	-200.000	0.009	-0.431
-180.042	-200.000	0.019	0.114
-179.027	800.000	0.090	0.267
-178.012	-54.862	0.280	0.125
-176.998	-112.755	-0.534	0.105
-175.983	-80.687	-0.046	0.015
-174.969	187.760	-0.050	0.074
-173.954	51.841	-0.211	0.198
-172.939	-43.992	0.289	0.144
-171.925	16.019	0.080	-0.062
-170.910	-200.000	-0.011	0.414
-169.896	-151.196	-0.254	-0.019
-168.881	-22.347	0.327	0.196
-167.866	142.597	-0.134	-0.175
-166.852	-200.000	-0.027	-0.178
-165.837	123.304	0.274	-0.339
-164.823	800.000	-0.094	0.398
-163.808	-41.339	0.087	0.044
-162.793	800.000	0.080	-0.299
-161.779	86.430	-0.127	0.138
-160.764	-96.713	-0.159	-0.041
-159.750	-152.110	0.088	-0.006
-158.735	-100.462	-0.249	-0.061
-157.720	53.302	-0.179	0.169
-156.706	162.304	0.141	-0.195
-155.691	-200.000	-0.013	-0.312
-154.677	-200.000	0.010	0.105
-153.662	30.235	-0.090	-0.076
-152.647	-200.000	-0.042	-0.384
-151.633	557.935	0.070	0.167
-150.618	-55.109	0.102	-0.045
-149.604	57.254	-0.204	0.197
-148.589	-184.496	0.112	0.002
-147.574	-200.000	-0.027	0.276
-146.560	-16.242	-0.153	-0.096
-145.545	359.219	0.170	0.336
-144.531	442.981	-0.109	0.235
-143.516	-110.339	-0.293	0.060
-142.502	-50.363	-0.199	0.093
-141.487	-45.575	-0.241	-0.117
-140.472	-110.553	-0.180	0.037
-139.458	800.000	-0.070	0.268
-138.443	36.805	-0.217	0.189
-137.429	103.795	0.129	0.149
-136.414	-200.000	-0.018	-0.200
-135.399	-200.000	-0.032	-0.153
-134.385	-48.512	0.503	-0.238
-133.370	-114.225	0.271	0.052
-132.356	-156.561	-0.340	0.021
-131.341	-114.736	-0.306	-0.058
-130.326	-200.000	-0.025	0.233
-129.312	-101.268	0.457	-0.110
-128.297	87.644	0.144	-0.157
-127.283	71.472	0.103	-0.106
-126.268	437.979	0.077	0.165
-125.253	11.766	0.233	0.176
-124.239	749.920	0.036	-0.097
-123.224	236.408	-0.021	-0.034
-122.210	-200.000	-0.012	0.280
-121.195	-143.235	0.302	0.029
-120.180	-78.068	0.204	-0.069
-119.166	-200.000	0.053	-0.320
-118.151	-78.759	0.232	0.078
-117.137	-25.214	0.374	0.218
-116.122	21.480	0.288	0.231
-115.107	-168.706	0.256	-0.010
-114.093	-200.000	-0.013	-0.080
-113.078	-126.476	0.373	0.055
-112.064	23.419	-0.206	0.167
-111.049	294.727	0.121	0.217
-110.034	97.059	0.013	-0.015
-109.020	163.264	0.100	0.139
-108.005	800.000	0.135	-0.378
-106.991	-122.298	-0.169	-0.027
-105.976	-200.000	0.024	0.180
-104.962	-200.000	-0.041	0.303
-103.947	-54.171	-0.199	0.089
-102.932	-200.000	-0.001	-0.245
-101.918	87.933	0.155	0.169
-100.903	279.033	-0.023	0.040
-99.889	148.079	-0.234	-0.311
-98.874	88.249	-0.045	0.049
-97.859	277.109	0.111	0.194
-96.845	242.899	0.152	0.251
-95.830	-2.298	-0.086	-0.059
-94.816	800.000	-0.041	0.166
-93.801	-122.438	0.224	-0.036
-92.786	-200.000	-0.029	-0.183
-91.772	-200.000	-0.020	0.255
-90.757	93.563	0.253	0.282
-89.743	-18.583	-0.107	-0.065
-88.728	-177.443	0.260	-0.006
-87.713	207.450	-0.193	-0.296
-86.699	-63.545	0.377	0.152
-85.684	227.707	0.040	0.064
-84.670	800.000	-0.025	0.087
-83.655	261.896	0.117	-0.200
-82.640	-29.661	-0.202	-0.113
-81.626	-200.000	-0.047	0.312
-80.611	-8.761	0.203	0.134
-79.597	-45.359	0.149	0.073
-78.582	598.364	0.068	0.167
-77.567	-24.846	-0.318	0.186
-76.553	691.782	0.156	-0.403
-75.538	538.098	0.068	-0.158
-74.524	180.564	0.086	0.124
-73.509	-200.000	0.029	0.307
-72.494	-124.946	-0.178	0.027
-71.480	-200.000	-0.013	-0.172
-70.465	-42.287	0.231	-0.116
-69.451	25.288	0.302	0.246
-68.436	421.548	0.182	0.383
-67.422	558.222	-0.020	0.047
-66.407	61.106	-0.198	-0.193
-65.392	268.904	-0.204	0.352
-64.378	388.127	0.132	0.269
-63.363	430.896	0.167	0.355
-62.349	800.000	0.054	0.177
-61.334	34.391	-1.072	-0.920
-60.319	41.591	0.555	0.494
-59.305	800.000	-0.359	-1.254
-58.290	56.866	0.775	0.742
-57.276	800.000	0.484	1.316
-56.261	-200.000	102.868	598.446
-55.246	561.926	1439.341	3420.147
-54.232	186.354	2628.587	3842.887
-53.217	117.962	2147.611	2599.336
-52.203	42.563	1593.464	1424.428
-51.188	33.938	1328.968	1136.641
-50.173	30.834	1287.117	1082.785
-49.159	55.190	1338.849	1271.242
-48.144	55.991	1354.757	1291.036
-47.130	34.206	1311.158	1122.812
-46.115	30.615	1293.295	1086.535
-45.100	30.501	1288.600	1081.884
-44.086	30.387	1286.131	1079.103
-43.071	30.401	1283.583	1077.005
-42.057	30.344	1281.922	1075.240
-41.042	30.351	1280.318	1073.892
-40.027	30.348	1279.095	1072.805
-39.013	30.439	1276.667	1071.249
-37.998	30.430	1274.677	1069.487
-36.984	30.400	1273.524	1068.306
-35.969	30.513	1271.603	1067.298
-34.954	30.594	1269.524	1065.974
-33.940	30.596	1268.675	1065.229
-32.925	30.576	1266.730	1063.440
-31.911	30.532	1265.867	1062.426
-30.896	30.633	1264.186	1061.548
-29.881	30.702	1262.451	1060.443
-28.867	30.747	1260.789	1059.260
-27.852	30.677	1260.099	1058.242
-26.838	30.635	1258.571	1056.674
-25.823	30.508	1257.590	1055.092
-24.809	30.607	1255.913	1054.203
-23.794	30.505	1255.166	1052.957
-22.779	30.570	1253.257	1051.680
-21.765	30.576	1252.387	1050.941
-20.750	30.608	1250.933	1049.858
-19.736	30.449	1249.841	1048.007
-18.721	30.450	1248.428	1046.784
-17.706	30.423	1247.483	1045.800
-16.692	30.507	1246.364	1045.292
-15.677	30.439	1244.983	1043.709
-14.663	30.441	1244.064	1042.909
-13.648	30.354	1243.264	1041.708
-12.633	30.433	1241.760	1040.853
-11.619	30.314	1241.440	1039.873
-10.604	30.552	1239.989	1039.950
-9.590	30.402	1239.318	1038.507
-8.575	30.392	1238.363	1037.607
-7.560	30.375	1237.495	1036.746
-6.546	30.483	1236.559	1036.525
-5.531	30.371	1235.579	1035.033
-4.517	30.332	1235.037	1034.324
-3.502	30.367	1234.246	1033.816
-2.487	30.458	1232.923	1033.174
-1.473	30.381	1229.132	1029.527
-0.458	28.940	1214.209	1009.085
0.556	24.386	1197.233	972.240
1.571	20.904	1202.759	957.541
2.586	20.087	1217.279	964.472
3.600	19.739	1206.791	954.153
4.615	15.258	1137.569	875.978
5.629	8.084	1065.772	785.385
6.644	5.083	1047.492	757.295
7.659	4.748	1044.862	753.703
8.673	4.673	1043.725	752.453
9.688	4.727	1042.310	751.626
10.702	4.978	1040.360	751.366
11.717	9.076	1046.016	775.210
12.731	15.903	1055.360	815.222
13.746	18.496	1058.476	830.134
14.761	18.027	1057.081	826.694
15.775	16.917	1055.329	819.886
16.790	16.077	1052.839	813.828
17.804	15.273	1051.354	808.731
18.819	14.936	1050.410	806.309
19.834	14.636	1049.363	803.990
20.848	14.502	1048.082	802.294
21.863	14.265	1047.454	800.599
22.877	14.065	1046.998	799.218
23.892	13.920	1046.518	798.087
24.907	13.983	1045.628	797.642
25.921	14.106	1044.304	797.147
26.936	14.126	1043.071	796.234
27.950	14.217	1041.752	795.592
28.965	14.311	1040.423	794.954
29.980	14.419	1038.695	794.077
30.994	14.477	1037.741	793.552
32.009	14.428	1036.909	792.614
33.023	14.335	1036.004	791.412
34.038	14.323	1034.846	790.398
35.053	14.277	1033.957	789.434
36.067	14.257	1033.293	788.762
37.082	14.353	1032.267	788.364
38.096	14.179	1032.058	787.308
39.111	14.255	1030.836	786.668
40.126	14.105	1029.699	785.024
41.140	13.959	1028.545	783.385
42.155	13.875	1027.500	782.124
43.169	14.038	1026.310	781.914
44.184	13.983	1024.856	780.482
45.199	13.925	1024.447	779.825
46.213	14.172	1023.251	780.007
47.228	14.184	1022.339	779.298
48.242	14.179	1021.532	778.590
49.257	14.228	1020.154	777.702
50.271	14.284	1019.155	777.133
51.286	14.291	1018.422	776.537
52.301	14.249	1017.148	775.299
53.315	14.277	1015.929	774.431
54.330	14.057	1015.309	772.867
55.344	14.029	1014.837	772.312
56.359	14.052	1013.946	771.671
57.374	14.062	1012.943	770.885
58.388	14.038	1012.309	770.223
59.403	13.924	1011.555	769.056
60.417	13.903	1010.461	768.057
61.432	13.899	1009.861	767.515
62.447	13.893	1008.874	766.669
63.461	13.768	1008.358	765.635
64.476	13.936	1006.801	765.156
65.490	13.866	1006.284	764.372
66.505	13.933	1005.584	764.082
67.520	13.933	1005.149	763.687
68.534	13.936	1004.475	763.119
69.549	13.885	1003.930	762.402
70.563	13.940	1002.901	761.806
71.578	13.824	1002.356	760.794
72.593	13.855	1001.178	759.976
73.607	13.922	1000.269	759.521
74.622	13.792	1000.114	758.743
75.636	13.775	999.418	758.069
76.651	13.752	998.758	757.397
77.666	13.840	998.039	757.185
78.680	14.004	996.899	757.002
79.695	13.846	996.941	756.249
80.709	13.918	996.269	755.999
81.724	13.918	995.729	755.521
82.739	14.037	994.885	755.354
83.753	14.098	993.953	754.858
84.768	14.191	992.844	754.370
85.782	14.365	992.432	754.780
86.797	14.267	991.835	753.814
87.812	14.235	990.737	752.769
88.826	14.319	989.262	751.960
89.841	14.334	988.860	751.657
90.855	14.415	987.755	751.116
91.870	14.294	987.149	750.042
92.884	14.273	986.165	749.133
93.899	14.356	985.569	748.988
94.914	14.434	984.429	748.406
95.928	14.452	983.815	747.953
96.943	14.235	983.218	746.463
97.957	14.297	982.106	745.827
98.972	14.320	981.038	745.056
99.987	14.248	980.451	744.223
101.001	14.347	978.981	743.480
102.016	14.262	978.661	742.792
103.030	14.317	977.776	742.301
104.045	14.345	976.651	741.505
105.060	14.275	976.053	740.675
106.074	14.121	975.003	739.129
107.089	14.015	974.245	738.018
108.103	14.009	973.232	737.157
109.118	14.056	972.524	736.765
110.133	14.090	971.214	735.856
111.147	14.073	970.489	735.167
112.162	14.076	969.544	734.402
113.176	14.146	968.919	734.169
114.191	14.156	968.389	733.750
115.206	14.179	967.492	733.104
116.220	14.160	966.773	732.411
117.235	14.203	965.908	731.883
118.249	14.043	964.937	730.380
119.264	14.029	964.464	729.892
120.279	13.939	963.466	728.680
121.293	14.078	962.848	728.758
122.308	14.140	961.240	727.746
123.322	13.871	961.038	726.352
124.337	13.971	960.131	726.040
125.352	13.977	959.188	725.288
126.366	14.005	958.014	724.456
127.381	14.122	956.540	723.787
128.395	14.154	955.689	723.221
129.410	14.038	955.084	722.194
130.424	13.902	954.654	721.215
131.439	14.071	953.868	721.292
132.454	14.106	953.188	720.865
133.468	14.227	952.318	720.667
134.483	14.207	951.698	720.044
135.497	14.219	950.362	719.024
136.512	14.142	950.129	718.450
137.527	14.212	949.030	717.857
138.541	14.175	947.998	716.854
139.556	14.284	947.527	716.906
140.570	14.236	947.274	716.444
141.585	14.363	946.505	716.347
142.600	14.413	945.746	715.920
143.614	14.376	944.594	714.828
144.629	14.425	943.888	714.442
145.643	14.462	942.644	713.593
146.658	14.209	941.980	711.944
147.673	14.213	941.092	711.229
148.687	14.169	940.302	710.383
149.702	14.161	939.509	709.687
150.716	14.217	938.530	709.120
151.731	14.225	937.903	708.619
152.746	14.282	937.032	708.140
153.760	14.326	936.359	707.755
154.775	14.287	936.442	707.590
155.789	14.429	935.472	707.398
156.804	14.511	934.501	706.947
157.819	14.401	934.069	706.095
158.833	14.461	933.476	705.837
159.848	14.643	932.507	705.810
160.862	14.466	931.570	704.290
161.877	14.453	930.662	703.489
162.892	14.394	929.199	702.071
163.906	14.331	928.887	701.508
164.921	14.313	927.940	700.654
165.935	14.336	927.590	700.426
166.950	14.405	926.636	699.932
167.964	14.327	925.709	698.844
168.979	14.374	924.542	698.098
169.994	14.485	923.365	697.613
171.008	14.536	923.228	697.659
172.023	14.558	922.320	697.005
173.037	14.504	921.939	696.428
174.052	14.486	921.066	695.633
175.067	14.501	919.975	694.808
176.081	14.385	919.868	694.184
177.096	14.291	919.419	693.394
178.110	14.458	918.286	693.171
179.125	14.500	918.083	693.130
180.140	14.466	917.581	692.549
181.154	14.522	917.437	692.611
182.169	14.548	916.640	692.057
183.183	14.644	915.814	691.770
184.198	14.643	914.794	690.933
185.213	14.634	914.487	690.604
186.227	14.712	913.707	690.277
187.242	14.698	913.211	689.781
188.256	14.810	912.617	689.736
189.271	14.725	911.891	688.776
190.286	14.597	911.003	687.516
191.300	14.456	910.099	686.193
192.315	14.492	909.436	685.781
193.329	14.446	909.034	685.227
194.344	14.565	908.738	685.433
195.359	14.595	907.770	684.766
196.373	14.702	906.991	684.553
197.388	14.783	906.930	684.780
198.402	14.885	906.637	684.916
199.417	14.885	906.010	684.382
200.432	14.904	905.237	683.815
201.446	15.026	904.452	683.660
202.461	15.124	904.290	683.876
203.475	15.063	903.979	683.332
204.490	14.938	902.988	682.013
205.504	14.819	902.259	680.918
206.519	14.906	901.120	680.352
207.534	14.970	900.807	680.314
208.548	14.890	900.483	679.686
209.563	14.955	899.544	679.181
210.577	14.999	899.104	678.965
211.592	15.081	898.166	678.532
212.607	15.129	897.401	678.087
213.621	15.120	896.369	677.210
214.636	15.037	896.282	676.752
215.650	15.186	895.380	676.611
216.665	15.109	894.961	675.922
217.680	15.166	894.253	675.561
218.694	15.232	893.631	675.296
219.709	15.187	893.335	674.829
220.723	15.255	892.272	674.243
221.738	15.224	891.517	673.485
222.753	15.181	891.116	672.953
223.767	15.282	890.253	672.645
224.782	15.300	889.910	672.400
225.796	15.330	889.515	672.160
226.811	15.299	888.983	671.574
227.826	15.172	888.176	670.398
228.840	15.211	887.389	669.902
229.855	15.210	886.603	669.242
230.869	15.226	886.045	668.830
231.884	15.230	885.037	668.023
232.899	15.188	884.336	667.268
233.913	15.255	883.829	667.095
234.928	15.270	883.079	666.528
235.942	15.092	882.404	665.252
236.957	15.193	882.056	665.333
237.972	15.080	881.458	664.375
238.986	15.215	880.838	664.385
240.001	15.348	880.104	664.297
241.015	15.281	879.419	663.458
242.030	15.262	879.128	663.102
243.045	15.242	878.929	662.814
244.059	15.244	878.039	662.095
245.074	15.368	877.267	661.944
246.088	15.344	876.472	661.189
247.103	15.492	876.329	661.607
248.117	15.483	875.687	661.027
249.132	15.612	875.301	661.186
250.147	15.670	874.332	660.622
251.161	15.654	873.852	660.138
252.176	15.823	873.448	660.437
253.190	15.791	872.509	659.543
254.205	15.819	871.920	659.151
255.220	15.803	871.091	658.403
256.234	15.738	870.621	657.735
257.249	15.877	869.858	657.644
258.263	15.785	869.235	656.756
259.278	15.931	868.269	656.536
260.293	15.929	867.819	656.132
261.307	16.016	867.284	656.005
262.322	15.934	866.905	655.342
263.336	15.933	866.679	655.111
264.351	15.972	865.363	654.210
265.366	16.023	864.711	653.857
266.380	16.056	864.048	653.423
267.395	15.989	863.400	652.616
268.409	15.971	862.885	652.100
269.424	16.041	861.978	651.628
270.439	15.929	861.373	650.680
271.453	16.001	860.667	650.367
272.468	16.019	859.755	649.691
273.482	15.966	859.755	649.426
274.497	15.800	859.174	648.292
275.512	15.838	858.669	648.001
276.526	16.008	858.154	648.208
277.541	16.046	857.768	648.006
278.555	16.098	857.098	647.640
279.570	16.188	856.364	647.373
280.585	16.182	855.547	646.677
281.599	16.150	854.824	645.950
282.614	16.117	853.726	644.937
283.628	16.090	853.298	644.455
284.643	16.208	853.080	644.682
285.657	16.080	852.415	643.633
286.672	16.304	851.293	643.587
287.687	16.174	851.043	642.844
288.701	16.232	850.263	642.417
289.716	16.246	849.926	642.160
290.730	16.253	849.574	641.865
291.745	16.282	849.024	641.502
292.760	16.272	848.351	640.898
293.774	16.351	847.639	640.601
294.789	16.363	847.283	640.325
295.803	16.339	846.274	639.414
296.818	16.248	845.888	638.722
297.833	16.270	844.999	638.078
298.847	16.156	844.685	637.351
299.862	16.232	844.103	637.142
300.876	16.413	843.571	637.366
301.891	16.514	842.620	636.974
302.906	16.555	842.289	636.821
303.920	16.586	841.967	636.640
304.935	16.653	841.092	636.174
305.949	16.596	840.491	635.449
306.964	16.546	840.419	635.148
307.979	16.559	839.479	634.430
308.993	16.492	839.388	634.054
310.008	16.602	838.785	633.956
311.022	16.603	838.084	633.372
312.037	16.365	837.656	632.105
313.052	16.541	836.672	631.962
314.066	16.471	836.080	631.196
315.081	16.436	835.824	630.818
316.095	16.555	834.785	630.423
317.110	16.554	834.443	630.103
318.125	16.445	833.932	629.256
319.139	16.563	833.526	629.334
320.154	16.516	833.232	628.882
321.168	16.468	832.610	628.179
322.183	16.694	831.829	628.372
323.197	16.604	831.197	627.506
324.212	16.495	831.415	627.208
325.227	16.653	830.218	626.838
326.241	16.618	829.850	626.373
327.256	16.519	829.083	625.375
328.270	16.727	828.911	625.958
329.285	16.637	827.856	624.772
330.300	16.587	827.981	624.626
331.314	16.617	827.382	624.229
332.329	16.724	826.955	624.246
333.343	16.778	826.282	623.885
334.358	16.871	825.349	623.466
335.373	16.851	825.458	623.420
336.387	16.995	825.122	623.640
337.402	16.706	825.113	622.517
338.416	17.026	824.430	623.122
339.431	17.096	824.290	623.217
340.446	16.918	823.944	622.247
341.460	17.034	823.276	622.111
342.475	17.058	823.257	622.132
343.489	17.176	822.572	621.990
344.504	17.261	821.794	621.658
345.519	17.075	821.692	620.844
346.533	17.209	821.183	620.896
347.548	17.146	820.248	619.905
348.562	16.930	820.038	618.902
349.577	16.993	818.997	618.292
350.592	16.825	818.776	617.456
351.606	16.886	818.208	617.198
352.621	16.977	817.494	616.935
353.635	16.915	817.020	616.296
354.650	17.082	816.114	616.166
355.665	17.013	816.090	615.841
356.679	17.068	815.211	615.322
357.694	17.184	814.402	615.077
358.708	17.284	813.651	614.818
359.723	17.171	813.350	614.127
360.738	17.164	813.058	613.828
361.752	17.427	811.663	613.670
362.767	17.364	811.078	612.945
363.781	17.403	811.146	613.081
364.796	17.467	810.549	612.806
365.810	17.519	810.359	612.799
366.825	17.519	810.035	612.499
367.840	17.492	809.449	611.903
368.854	17.435	809.025	611.324
369.869	17.479	808.454	610.995
370.883	17.428	807.590	610.108
371.898	17.500	808.013	610.629
372.913	17.563	807.517	610.428
373.927	17.504	806.827	609.641
374.942	17.578	806.201	609.378
375.956	17.608	806.177	609.414
376.971	17.559	805.674	608.804
377.986	17.690	805.145	608.819
379.000	17.793	804.433	608.593
380.015	17.673	804.120	607.874
381.029	17.687	803.544	607.435
382.044	17.775	802.978	607.269
383.059	18.015	802.060	607.372
384.073	17.755	801.719	606.136
385.088	17.567	801.147	604.983
386.102	17.601	800.481	604.546
387.117	17.814	800.029	604.909
388.132	17.670	799.447	603.905
389.146	17.745	798.916	603.716
390.161	17.716	798.723	603.414
391.175	17.824	798.188	603.337
392.190	17.647	798.064	602.564
393.205	17.713	797.211	602.100
394.219	17.643	796.980	601.627
395.234	17.510	796.419	600.681
396.248	17.578	795.998	600.550
397.263	17.607	795.869	600.501
398.278	17.600	795.256	599.961
399.292	17.678	794.847	599.873
400.307	17.900	793.924	599.903
401.321	17.725	793.859	599.185
402.336	17.770	792.986	598.633
403.350	17.888	792.908	598.934
404.365	18.011	792.473	598.985
405.380	17.957	792.150	598.500
406.394	18.001	791.688	598.251
407.409	17.973	791.508	597.964
408.423	18.031	791.017	597.741
409.438	18.262	790.359	597.998
410.453	18.129	790.108	597.292
411.467	17.983	790.057	596.689
412.482	18.243	789.296	596.969
413.496	18.121	788.942	596.225
414.511	18.069	788.707	595.813
415.526	18.216	788.342	595.996
416.540	18.232	787.585	595.427
417.555	18.175	787.246	594.920
418.569	18.085	786.918	594.305
419.584	18.241	786.321	594.345
420.599	18.258	785.894	594.029
421.613	157.403	1370.322	1795.670
422.628	136.054	1455.452	1795.771
