DTS Sentinel unit serial number:	SN413079Multiplexer serial number:	ORYXHardware model number:	OX4-SRSoftware version number:	ORYX F/W v4.00 Oryx Data Collector v3.7.2.0data status	okinstallation	princeton_trtdifferential loss correction	single-endedforward channel	channel 1reverse channel	N/Adate	2019/09/13time	07:38:35forward acquisition time	60.00reverse acquisition time	0.00gamma	496.2192k internal	0.2334k external	0.2334temperature offset calibration	1.0163default loss term (dB/km)	0.3790temperature slope calibration	1.0000multiplexer offset coefficient	1.0000multiplexer slope coefficient	1.0000fibre end	0.00T internal ref (°C)	26.31T ext. ref 1 (°C)	4.20T ext. ref 2 (°C)	22.26length (m)	temperature (°C)	Stokes	anti-Stokes-747.200	-24.664	0.059	-0.035
-746.185	-200.000	-0.002	-0.032
-745.171	-128.562	-0.529	-0.075
-744.156	-89.918	-0.142	0.042
-743.142	-200.000	0.048	0.214
-742.127	-19.554	-0.164	-0.102
-741.112	204.044	0.152	-0.237
-740.098	-1.608	-0.322	0.228
-739.083	-55.771	-0.271	-0.122
-738.069	-102.711	0.111	-0.027
-737.054	223.548	0.150	0.243
-736.039	-158.644	-0.330	0.019
-735.025	-167.531	-0.169	0.007
-734.010	-61.773	-0.172	-0.072
-732.996	-32.482	0.031	-0.018
-731.981	-199.652	-0.129	0.001
-730.966	51.153	0.082	-0.078
-729.952	400.153	-0.051	-0.107
-728.937	-200.000	0.029	-0.155
-727.923	800.000	0.035	-0.144
-726.908	-200.000	0.022	-0.109
-725.894	-117.710	-0.129	-0.023
-724.879	-32.125	-0.221	-0.124
-723.864	-200.000	0.007	-0.271
-722.850	68.162	-0.184	-0.189
-721.835	-200.000	0.036	0.298
-720.821	563.862	-0.124	-0.302
-719.806	-50.689	0.203	-0.096
-718.791	-2.258	-0.256	-0.180
-717.777	-49.969	-0.179	-0.085
-716.762	690.414	0.073	0.191
-715.748	7.681	0.220	-0.165
-714.733	-96.520	-0.494	-0.131
-713.718	126.779	-0.096	-0.122
-712.704	451.799	-0.086	-0.191
-711.689	-97.608	-0.181	0.047
-710.675	52.619	-0.324	0.310
-709.660	-92.679	0.134	-0.038
-708.645	-200.000	-0.015	-0.165
-707.631	-200.000	-0.000	-0.177
-706.616	367.807	0.112	-0.227
-705.602	-91.995	0.230	-0.065
-704.587	337.706	0.122	0.239
-703.572	800.000	-0.043	0.145
-702.558	800.000	-0.091	0.351
-701.543	-122.336	-0.199	0.033
-700.529	6.073	0.185	-0.137
-699.514	82.559	0.098	0.107
-698.499	-171.942	-0.293	-0.010
-697.485	-200.000	0.007	0.297
-696.470	464.032	-0.078	0.175
-695.456	37.789	0.068	0.061
-694.441	-42.306	0.174	-0.089
-693.426	-107.956	-0.176	-0.038
-692.412	-200.000	-0.050	-0.226
-691.397	800.000	0.083	-0.355
-690.383	18.804	-0.351	-0.282
-689.368	146.754	0.231	0.312
-688.354	-30.409	0.243	-0.138
-687.339	345.874	0.155	-0.306
-686.324	800.000	-0.090	-0.282
-685.310	205.027	-0.080	0.124
-684.295	-34.841	-0.268	0.147
-683.281	98.022	0.031	-0.036
-682.266	-200.000	-0.035	0.228
-681.251	276.928	-0.139	0.247
-680.237	-50.719	-0.128	0.060
-679.222	94.307	0.189	-0.215
-678.208	-2.187	0.086	-0.061
-677.193	-165.157	0.112	-0.005
-676.178	800.000	-0.046	-0.143
-675.164	272.503	0.117	0.206
-674.149	19.502	0.244	-0.197
-673.135	163.844	-0.080	-0.113
-672.120	234.055	-0.114	-0.189
-671.105	302.532	0.093	-0.173
-670.091	25.976	-0.203	0.170
-669.076	330.616	-0.054	-0.105
-668.062	207.581	0.081	-0.126
-667.047	-200.000	-0.017	-0.080
-666.032	-99.088	-0.278	-0.071
-665.018	800.000	-0.069	-0.268
-664.003	-200.000	0.045	-0.296
-662.989	417.960	0.198	-0.424
-661.974	107.243	0.274	-0.326
-660.959	393.157	0.109	0.226
-659.945	800.000	-0.097	0.278
-658.930	59.947	0.195	0.193
-657.916	2.231	-0.226	-0.164
-656.901	-57.369	0.142	-0.062
-655.886	42.916	-0.392	0.358
-654.872	61.139	0.106	-0.105
-653.857	123.854	-0.177	-0.223
-652.843	-42.167	-0.140	-0.072
-651.828	-101.112	-0.195	0.048
-650.814	800.000	-0.090	0.251
-649.799	800.000	-0.061	0.192
-648.784	-131.012	-0.309	0.041
-647.770	-200.000	-0.006	0.099
-646.755	332.114	0.067	0.129
-645.741	345.521	0.055	0.107
-644.726	654.841	0.079	0.202
-643.711	-200.000	-0.080	-0.354
-642.697	-82.370	-0.289	0.094
-641.682	-134.026	-0.243	0.030
-640.668	-160.464	-0.148	-0.008
-639.653	355.681	-0.071	-0.142
-638.638	26.099	-0.081	-0.068
-637.624	88.833	-0.184	0.204
-636.609	-169.896	0.097	0.003
-635.595	-200.000	-0.002	0.024
-634.580	-104.218	-0.128	-0.030
-633.565	13.929	-0.132	-0.102
-632.551	-169.606	-0.223	-0.008
-631.536	336.560	-0.111	-0.216
-630.522	-116.050	0.337	0.063
-629.507	-148.831	-0.478	0.039
-628.492	-64.672	0.257	0.104
-627.478	-137.716	-0.143	-0.016
-626.463	-200.000	0.007	-0.166
-625.449	-200.000	-0.038	-0.192
-624.434	424.525	0.147	-0.317
-623.419	-200.000	0.017	-0.113
-622.405	-142.638	0.235	-0.023
-621.390	-200.000	0.039	0.225
-620.376	74.879	0.084	-0.089
-619.361	379.353	-0.124	-0.253
-618.346	-200.000	0.005	0.057
-617.332	-78.906	-0.160	0.054
-616.317	-122.516	0.422	-0.069
-615.303	-183.848	0.363	-0.006
-614.288	-37.712	-0.143	-0.076
-613.273	-108.063	-0.398	0.086
-612.259	-54.876	-0.040	0.018
-611.244	-84.852	0.171	0.054
-610.230	103.978	-0.124	0.145
-609.215	-188.323	0.358	-0.005
-608.201	800.000	-0.056	0.215
-607.186	-13.517	-0.147	-0.095
-606.171	114.312	-0.027	0.032
-605.157	-7.949	0.197	0.133
-604.142	230.097	-0.081	-0.133
-603.128	-109.788	-0.150	-0.031
-602.113	-46.185	-0.097	0.048
-601.098	474.574	0.059	0.134
-600.084	-160.310	-0.238	-0.013
-599.069	-200.000	-0.016	-0.130
-598.055	100.618	-0.178	0.207
-597.040	38.408	-0.194	-0.173
-596.025	-98.435	0.469	0.120
-595.011	-126.304	0.159	-0.024
-593.996	435.352	0.180	0.391
-592.982	-152.820	-0.114	-0.008
-591.967	-137.067	-0.340	-0.039
-590.952	-200.000	0.004	-0.290
-589.938	37.083	-0.133	-0.118
-588.923	5.927	-0.111	0.082
-587.909	-27.270	0.191	-0.111
-586.894	-61.932	0.070	0.029
-585.879	-167.297	-0.153	-0.006
-584.865	-123.000	0.455	-0.073
-583.850	-15.267	-0.090	0.058
-582.836	30.761	-0.374	-0.320
-581.821	-159.515	-0.338	0.019
-580.806	-72.383	0.024	-0.009
-579.792	-75.054	-0.468	-0.167
-578.777	800.000	0.105	0.332
-577.763	-95.764	0.068	0.018
-576.748	-104.059	0.301	0.070
-575.733	41.674	-0.243	0.219
-574.719	-139.547	-0.189	-0.020
-573.704	22.440	-0.108	0.088
-572.690	62.868	-0.163	-0.163
-571.675	11.186	-0.104	0.079
-570.661	200.804	0.041	-0.063
-569.646	-200.000	0.042	0.363
-568.631	-193.693	0.252	-0.002
-567.617	-110.131	0.296	-0.062
-566.602	800.000	0.093	-0.263
-565.588	800.000	0.103	0.295
-564.573	226.553	-0.121	0.195
-563.558	472.493	0.105	0.236
-562.544	-91.054	0.120	-0.034
-561.529	138.317	0.108	-0.142
-560.515	-200.000	-0.021	0.212
-559.500	152.273	0.235	-0.320
-558.485	-58.768	-0.375	-0.162
-557.471	-53.340	0.276	0.126
-556.456	167.847	-0.055	-0.078
-555.442	-98.464	0.174	0.044
-554.427	-5.369	-0.069	0.047
-553.412	-116.702	-0.312	0.057
-552.398	-200.000	-0.031	0.225
-551.383	-7.487	-0.246	-0.166
-550.369	-167.104	0.389	-0.016
-549.354	-200.000	-0.042	-0.278
-548.339	-200.000	0.057	-0.268
-547.325	107.633	-0.126	0.150
-546.310	-87.413	-0.195	0.059
-545.296	-200.000	-0.005	0.203
-544.281	-167.151	-0.160	0.006
-543.266	-56.574	-0.139	-0.061
-542.252	-109.699	-0.037	-0.008
-541.237	-140.224	-0.183	0.019
-540.223	-88.572	-0.290	0.086
-539.208	49.557	-0.133	-0.125
-538.193	11.177	-0.040	-0.031
-537.179	-38.338	-0.039	-0.020
-536.164	85.183	0.135	-0.148
-535.150	472.135	0.090	-0.203
-534.135	-124.468	0.238	0.037
-533.121	-138.482	0.280	0.031
-532.106	800.000	-0.065	0.199
-531.091	-130.860	0.139	-0.018
-530.077	-115.899	-0.246	0.046
-529.062	-64.579	0.058	-0.023
-528.048	-200.000	-0.007	-0.122
-527.033	663.468	-0.045	-0.115
-526.018	27.743	0.145	-0.122
-525.004	800.000	0.071	0.223
-523.989	670.864	0.117	-0.301
-522.975	405.869	-0.121	-0.255
-521.960	-153.683	0.423	-0.029
-520.945	-48.686	-0.150	-0.072
-519.931	-0.846	0.036	0.025
-518.916	-100.016	0.132	0.033
-517.902	800.000	-0.025	0.071
-516.887	-200.000	0.049	-0.215
-515.872	-1.425	-0.370	-0.260
-514.858	139.850	0.176	-0.231
-513.843	288.979	0.156	0.281
-512.829	7.738	0.172	0.128
-511.814	-87.012	0.052	0.016
-510.799	-200.000	-0.011	-0.301
-509.785	-200.000	-0.005	0.029
-508.770	-200.000	-0.003	0.019
-507.756	57.158	0.061	0.059
-506.741	653.999	0.065	0.166
-505.726	118.294	0.023	-0.028
-504.712	19.241	0.244	0.195
-503.697	-200.000	0.004	0.081
-502.683	135.213	0.231	-0.299
-501.668	-21.209	-0.447	0.272
-500.653	524.985	-0.115	0.269
-499.639	264.010	-0.104	-0.180
-498.624	-94.171	0.218	0.059
-497.610	-111.681	-0.140	0.028
-496.595	-200.000	-0.026	-0.365
-495.581	-52.417	-0.152	-0.070
-494.566	9.073	-0.354	-0.266
-493.551	-100.877	-0.154	-0.038
-492.537	-96.142	0.090	-0.024
-491.522	-65.464	0.240	0.096
-490.508	-47.625	0.098	0.047
-489.493	389.279	0.082	0.169
-488.478	800.000	-0.042	-0.157
-487.464	-200.000	-0.017	0.134
-486.449	368.690	-0.116	0.233
-485.435	79.922	-0.073	0.078
-484.420	-200.000	0.045	-0.255
-483.405	-179.811	0.128	-0.003
-482.391	-200.000	-0.012	-0.142
-481.376	-38.855	0.447	0.234
-480.362	-105.319	-0.179	0.040
-479.347	28.614	-0.011	0.009
-478.332	-163.201	-0.294	0.014
-477.318	-47.322	0.335	-0.162
-476.303	-7.481	-0.329	-0.222
-475.289	-72.007	-0.132	-0.049
-474.274	292.684	-0.081	0.146
-473.259	197.771	0.116	-0.176
-472.245	258.210	-0.031	-0.054
-471.230	109.077	0.100	-0.118
-470.216	-160.412	0.146	-0.008
-469.201	143.897	-0.083	-0.111
-468.186	-79.810	0.123	0.041
-467.172	-200.000	0.047	0.354
-466.157	598.971	0.044	-0.108
-465.143	137.817	-0.094	0.123
-464.128	-106.459	-0.199	0.044
-463.113	23.597	-0.148	0.121
-462.099	12.157	-0.408	0.312
-461.084	108.045	-0.369	0.437
-460.070	53.599	0.103	0.098
-459.055	-22.147	0.058	0.035
-458.040	194.507	0.146	-0.220
-457.026	-200.000	-0.023	0.111
-456.011	-52.638	0.181	-0.083
-454.997	72.733	-0.217	0.225
-453.982	-200.000	0.227	0.000
-452.968	-29.880	0.348	-0.197
-451.953	75.085	0.123	-0.129
-450.938	-89.207	-0.134	-0.039
-449.924	-110.740	0.207	-0.042
-448.909	-32.468	0.288	0.160
-447.895	-163.216	0.553	0.026
-446.880	-13.951	0.148	0.095
-445.865	-200.000	-0.083	-0.379
-444.851	-200.000	0.004	-0.200
-443.836	-5.623	0.106	0.072
-442.822	93.180	-0.207	0.232
-441.807	-16.950	0.270	0.169
-440.792	-58.390	-0.367	0.158
-439.778	350.379	0.131	0.258
-438.763	-105.896	0.209	-0.047
-437.749	6.562	0.251	-0.185
-436.734	-111.454	0.128	-0.026
-435.719	-200.000	-0.014	-0.326
-434.705	-174.709	0.104	0.003
-433.690	800.000	-0.045	-0.127
-432.676	-200.000	-0.019	0.257
-431.661	-41.665	-0.265	0.135
-430.646	-109.135	0.403	0.085
-429.632	-50.455	0.145	0.068
-428.617	-182.522	0.305	-0.006
-427.603	-126.562	0.390	0.057
-426.588	-83.177	0.330	0.105
-425.573	-200.000	-0.006	0.173
-424.559	-15.280	-0.354	-0.225
-423.544	800.000	0.028	0.086
-422.530	-107.076	-0.279	0.061
-421.515	-17.440	0.077	-0.048
-420.500	222.486	0.029	-0.047
-419.486	-67.407	0.135	0.053
-418.471	-9.438	0.123	0.082
-417.457	-48.445	0.272	0.130
-416.442	64.691	-0.207	0.207
-415.428	168.594	-0.185	-0.261
-414.413	113.092	-0.168	-0.202
-413.398	-96.944	0.263	0.068
-412.384	257.687	-0.041	-0.070
-411.369	269.471	0.192	-0.335
-410.355	800.000	-0.093	0.265
-409.340	-169.801	-0.048	-0.002
-408.325	16.124	-0.393	0.308
-407.311	12.900	-0.080	0.062
-406.296	24.870	-0.307	-0.253
-405.282	-28.495	-0.094	0.054
-404.267	-84.061	-0.250	-0.079
-403.252	800.000	-0.049	-0.141
-402.238	40.964	0.267	0.239
-401.223	-131.629	-0.452	-0.059
-400.209	215.000	0.069	0.109
-399.194	-97.503	-0.134	-0.035
-398.179	-76.352	0.197	0.069
-397.165	312.678	0.083	-0.155
-396.150	800.000	-0.118	-0.348
-395.136	-34.897	-0.252	0.136
-394.121	-73.530	0.278	-0.100
-393.106	-142.945	-0.083	0.008
-392.092	40.569	-0.155	0.139
-391.077	-160.350	-0.408	-0.022
-390.063	800.000	-0.079	0.320
-389.048	-74.450	-0.341	-0.122
-388.033	-162.647	0.444	0.022
-387.019	800.000	-0.010	0.041
-386.004	-46.131	-0.067	-0.033
-384.990	-43.972	-0.099	-0.049
-383.975	-5.357	0.090	-0.061
-382.960	42.596	-0.233	-0.210
-381.946	800.000	0.053	0.182
-380.931	-42.960	-0.145	-0.073
-379.917	4.357	-0.164	0.119
-378.902	-92.829	0.061	-0.017
-377.888	37.228	-0.218	-0.192
-376.873	-82.561	0.089	-0.029
-375.858	42.526	-0.184	-0.166
-374.844	40.259	0.311	-0.277
-373.829	123.830	-0.014	0.017
-372.815	-159.768	0.154	0.008
-371.800	-200.000	-0.046	-0.253
-370.785	262.727	0.148	0.254
-369.771	-159.465	-0.216	-0.012
-368.756	-200.000	0.018	-0.109
-367.742	3.183	-0.115	-0.083
-366.727	800.000	-0.072	-0.209
-365.712	-5.686	0.167	-0.114
-364.698	-156.769	0.096	-0.006
-363.683	800.000	-0.046	0.130
-362.669	-134.078	-0.203	0.025
-361.654	187.934	-0.124	0.184
-360.639	-2.115	0.247	-0.172
-359.625	520.323	-0.021	0.049
-358.610	-33.089	0.239	0.131
-357.596	-200.000	0.047	-0.225
-356.581	-128.393	-0.304	0.043
-355.566	-132.593	0.442	0.056
-354.552	-110.132	-0.273	0.056
-353.537	800.000	-0.085	-0.234
-352.523	-32.669	-0.271	0.149
-351.508	26.498	0.041	0.034
-350.493	-65.618	-0.207	0.082
-349.479	604.863	-0.095	-0.234
-348.464	-103.980	0.150	0.035
-347.450	-112.567	-0.192	-0.038
-346.435	800.000	-0.011	-0.037
-345.420	-64.194	0.226	0.091
-344.406	618.894	-0.059	-0.148
-343.391	31.131	-0.135	-0.114
-342.377	-46.359	-0.211	0.103
-341.362	-154.432	0.317	0.021
-340.348	-131.079	0.252	-0.033
-339.333	273.187	0.082	0.144
-338.318	-146.664	0.240	0.021
-337.304	-111.740	-0.025	-0.005
-336.289	57.388	-0.148	0.143
-335.275	200.271	0.114	-0.173
-334.260	800.000	-0.084	0.261
-333.245	446.054	-0.075	-0.162
-332.231	558.249	-0.108	-0.258
-331.216	-40.767	0.183	0.094
-330.202	-127.209	-0.076	-0.011
-329.187	800.000	-0.064	0.213
-328.172	693.512	0.077	0.199
-327.158	-200.000	0.008	0.158
-326.143	-40.076	-0.192	-0.099
-325.129	52.288	-0.036	0.034
-324.114	800.000	0.059	0.176
-323.099	-102.284	0.270	0.064
-322.085	23.386	0.349	0.283
-321.070	-200.000	0.017	-0.177
-320.056	301.305	0.190	-0.348
-319.041	-147.691	-0.133	-0.011
-318.026	-200.000	-0.050	-0.279
-317.012	70.620	-0.350	-0.357
-315.997	-200.000	-0.004	-0.215
-314.983	-28.452	-0.148	-0.084
-313.968	34.417	0.278	-0.240
-312.953	179.333	0.230	-0.333
-311.939	-94.559	-0.267	-0.072
-310.924	-171.982	0.054	0.002
-309.910	-26.121	0.240	0.139
-308.895	-200.000	-0.035	0.239
-307.880	-147.037	-0.364	0.031
-306.866	800.000	0.079	-0.244
-305.851	387.702	0.234	0.479
-304.837	-200.000	0.041	-0.218
-303.822	-200.000	0.063	0.368
-302.807	151.574	0.168	0.226
-301.793	-53.187	-0.417	-0.189
-300.778	-200.000	0.024	0.349
-299.764	-200.000	0.005	0.483
-298.749	-66.712	-0.024	-0.010
-297.735	53.585	-0.261	0.247
-296.720	-200.000	-0.024	0.366
-295.705	-200.000	0.002	-0.019
-294.691	-41.248	-0.127	0.065
-293.676	-124.672	-0.004	-0.001
-292.662	177.412	-0.119	-0.171
-291.647	-28.529	-0.147	0.084
-290.632	-41.515	0.198	0.101
-289.618	-68.732	0.208	-0.079
-288.603	204.780	-0.133	0.204
-287.589	772.237	0.121	0.326
-286.574	-27.644	-0.130	0.074
-285.559	47.805	0.239	0.220
-284.545	-200.000	-0.027	0.143
-283.530	-31.704	-0.232	-0.129
-282.516	52.996	0.059	-0.056
-281.501	183.930	-0.113	-0.165
-280.486	0.601	0.343	0.242
-279.472	800.000	-0.028	0.111
-278.457	-127.123	0.173	0.025
-277.443	-76.544	0.165	0.057
-276.428	-53.315	0.170	-0.077
-275.413	24.451	0.106	-0.086
-274.399	180.492	-0.109	0.158
-273.384	31.028	0.331	0.280
-272.370	-119.587	-0.406	0.069
-271.355	-24.034	-0.356	-0.210
-270.340	-56.081	-0.329	-0.144
-269.326	-99.312	-0.252	-0.063
-268.311	800.000	0.063	0.193
-267.297	-179.381	0.188	-0.004
-266.282	-116.408	0.298	-0.054
-265.267	44.160	0.160	-0.145
-264.253	-33.114	-0.026	-0.014
-263.238	-200.000	-0.004	0.129
-262.224	-83.467	0.273	0.086
-261.209	-117.432	-0.416	-0.074
-260.195	-94.745	0.198	-0.053
-259.180	157.218	0.116	0.158
-258.165	559.430	-0.179	-0.427
-257.151	108.913	0.142	0.167
-256.136	199.702	-0.235	-0.356
-255.122	160.540	-0.004	-0.005
-254.107	0.528	-0.063	0.045
-253.092	-78.855	-0.038	-0.013
-252.078	-200.000	-0.017	-0.276
-251.063	-30.164	0.160	0.090
-250.049	4.472	0.419	-0.303
-249.034	-38.008	0.100	-0.052
-248.019	-200.000	0.064	-0.291
-247.005	-200.000	0.036	-0.207
-245.990	-14.273	0.202	-0.128
-244.976	52.349	0.146	-0.138
-243.961	44.563	0.217	-0.197
-242.946	-102.328	-0.062	0.015
-241.932	800.000	-0.094	0.367
-240.917	71.591	-0.177	-0.181
-239.903	-23.802	0.147	0.087
-238.888	-151.018	0.101	-0.008
-237.873	184.730	0.182	-0.265
-236.859	-200.000	-0.004	0.180
-235.844	-200.000	0.003	0.097
-234.830	-200.000	0.008	-0.100
-233.815	475.814	-0.115	0.256
-232.800	315.754	0.123	0.229
-231.786	170.549	0.253	0.357
-230.771	-33.394	0.047	0.026
-229.757	78.567	-0.104	-0.109
-228.742	12.548	-0.202	0.153
-227.727	-84.926	-0.114	0.035
-226.713	40.918	-0.226	0.201
-225.698	-75.623	0.178	0.062
-224.684	-200.000	0.007	-0.198
-223.669	70.603	0.098	0.099
-222.655	-42.541	0.112	0.056
-221.640	-49.800	-0.285	-0.133
-220.625	-48.966	0.433	-0.204
-219.611	-200.000	-0.018	0.138
-218.596	-200.000	-0.006	0.175
-217.582	23.537	-0.250	0.203
-216.567	596.549	-0.143	0.349
-215.552	298.714	-0.049	-0.089
-214.538	-117.109	-0.259	-0.046
-213.523	91.507	0.240	0.265
-212.509	321.774	0.083	-0.156
-211.494	-200.000	-0.034	0.277
-210.479	-82.264	0.019	-0.006
-209.465	800.000	-0.106	-0.429
-208.450	297.078	-0.080	0.145
-207.436	257.623	-0.013	-0.023
-206.421	677.783	-0.031	0.078
-205.406	800.000	0.038	0.119
-204.392	-18.160	-0.143	-0.088
-203.377	-88.875	-0.279	0.081
-202.363	-83.615	0.283	0.089
-201.348	-92.504	-0.121	0.033
-200.333	3.652	-0.225	-0.162
-199.319	278.943	0.127	-0.222
-198.304	-158.224	0.425	-0.024
-197.290	-36.152	-0.365	0.194
-196.275	3.215	0.272	0.194
-195.260	-70.545	0.048	0.018
-194.246	-2.315	-0.042	-0.029
-193.231	-51.675	0.238	-0.109
-192.217	-130.601	-0.220	0.029
-191.202	-96.185	0.126	0.033
-190.187	179.115	0.202	0.290
-189.173	-158.851	0.367	0.021
-188.158	304.384	-0.054	-0.098
-187.144	-200.000	0.022	-0.121
-186.129	363.821	-0.151	-0.298
-185.114	-200.000	0.009	-0.073
-184.100	-23.053	-0.214	0.127
-183.085	166.426	-0.319	0.445
-182.071	59.190	-0.180	0.174
-181.056	-8.380	0.389	-0.257
-180.042	-200.000	-0.029	-0.312
-179.027	199.590	0.208	-0.314
-178.012	-174.856	0.491	0.014
-176.998	-8.078	0.358	-0.237
-175.983	-158.441	-0.215	0.012
-174.969	26.524	-0.124	-0.102
-173.954	-37.920	0.228	0.119
-172.939	24.928	0.105	0.086
-171.925	-137.900	-0.130	0.014
-170.910	-200.000	-0.036	-0.239
-169.896	-55.025	0.272	-0.121
-168.881	-39.388	-0.289	0.149
-167.866	62.576	-0.165	-0.162
-166.852	-125.093	0.067	-0.010
-165.837	498.376	-0.077	-0.173
-164.823	-178.407	-0.230	-0.005
-163.808	-200.000	-0.189	0.000
-162.793	-33.705	-0.144	-0.078
-161.779	193.769	0.077	-0.114
-160.764	524.180	0.159	-0.368
-159.750	800.000	0.046	-0.192
-158.735	-125.383	-0.104	0.016
-157.720	-15.826	0.132	0.083
-156.706	-200.000	-0.014	-0.088
-155.691	43.651	0.069	-0.062
-154.677	340.734	-0.066	0.126
-153.662	134.470	-0.074	-0.095
-152.647	-72.550	0.307	0.111
-151.633	768.081	-0.106	0.283
-150.618	800.000	-0.018	-0.072
-149.604	-200.000	0.044	0.539
-148.589	-42.545	0.134	-0.067
-147.574	-173.130	-0.229	0.007
-146.560	222.761	0.041	-0.064
-145.545	-200.000	-0.018	0.095
-144.531	49.216	-0.067	0.062
-143.516	800.000	-0.055	-0.234
-142.502	-13.717	-0.181	0.115
-141.487	-2.965	0.261	0.179
-140.472	-12.206	0.284	-0.183
-139.458	170.993	0.104	-0.146
-138.443	6.461	-0.169	0.123
-137.429	-116.761	0.149	-0.027
-136.414	-95.795	-0.429	0.112
-135.399	55.860	0.058	0.055
-134.385	-200.000	0.014	-0.130
-133.370	-48.258	0.288	-0.136
-132.356	103.098	0.084	-0.097
-131.341	-62.819	0.204	-0.083
-130.326	43.052	0.107	0.096
-129.312	-58.272	0.397	-0.170
-128.297	461.763	0.073	0.160
-127.283	291.810	0.029	0.051
-126.268	-200.000	-0.004	-0.070
-125.253	-200.000	0.067	-0.288
-124.239	212.472	0.010	0.015
-123.224	-200.000	-0.018	0.242
-122.210	-200.000	-0.002	0.195
-121.195	-93.755	0.043	-0.012
-120.180	-81.399	-0.243	-0.079
-119.166	277.272	-0.163	0.284
-118.151	160.342	0.188	0.256
-117.137	58.488	0.240	-0.231
-116.122	410.461	0.076	-0.159
-115.107	-172.983	0.169	0.005
-114.093	-200.000	-0.015	-0.134
-113.078	201.686	0.163	-0.247
-112.064	149.890	0.250	-0.332
-111.049	6.303	0.034	0.025
-110.034	-200.000	0.012	0.077
-109.020	-89.908	0.047	0.014
-108.005	-64.279	0.214	0.085
-106.991	-55.504	-0.132	0.058
-105.976	-200.000	-0.058	0.259
-104.962	-200.000	0.003	0.224
-103.947	-144.466	0.408	0.037
-102.932	95.554	0.174	-0.195
-101.918	-200.000	0.038	0.395
-100.903	-65.905	-0.092	-0.036
-99.889	-7.063	-0.240	0.160
-98.874	96.253	0.138	0.155
-97.859	-200.000	0.001	0.254
-96.845	-51.437	0.438	0.201
-95.830	-31.238	-0.177	0.098
-94.816	-200.000	0.019	-0.148
-93.801	65.875	0.171	0.170
-92.786	-200.000	-0.012	0.320
-91.772	484.489	0.006	0.013
-90.757	-151.950	0.533	-0.038
-89.743	-119.800	0.086	0.015
-88.728	133.915	-0.270	0.343
-87.713	386.417	0.085	0.171
-86.699	800.000	0.020	0.072
-85.684	800.000	-0.038	-0.158
-84.670	-57.271	-0.311	-0.134
-83.655	-200.000	0.039	0.227
-82.640	100.454	-0.148	-0.168
-81.626	-50.308	-0.153	0.071
-80.611	-4.091	0.321	-0.218
-79.597	800.000	0.016	-0.058
-78.582	-23.882	0.302	0.177
-77.567	7.045	0.181	0.132
-76.553	347.440	-0.076	0.146
-75.538	-200.000	-0.020	0.119
-74.524	-70.517	-0.179	0.066
-73.509	-200.000	-0.008	0.150
-72.494	-126.331	0.173	-0.025
-71.480	-104.862	0.081	-0.018
-70.465	-126.998	-0.262	0.038
-69.451	-54.116	0.188	0.084
-68.436	-87.197	-0.356	0.106
-67.422	-102.278	0.096	-0.023
-66.407	138.492	-0.044	0.057
-65.392	-97.151	-0.181	0.046
-64.378	-122.517	0.480	-0.076
-63.363	-158.633	0.113	0.006
-62.349	-135.205	-0.246	0.029
-61.334	35.825	-1.143	-0.983
-60.319	76.454	0.383	0.397
-59.305	800.000	-0.375	-1.104
-58.290	156.757	0.879	1.188
-57.276	467.717	0.642	1.408
-56.261	-200.000	118.555	659.530
-55.246	506.317	1551.487	3518.353
-54.232	173.613	2720.494	3839.986
-53.217	105.351	2157.969	2492.957
-52.203	37.900	1589.799	1382.061
-51.188	29.536	1332.091	1108.045
-50.173	26.920	1293.120	1060.321
-49.159	53.721	1351.284	1268.865
-48.144	51.923	1365.631	1271.560
-47.130	29.879	1319.544	1099.472
-46.115	26.415	1301.291	1063.882
-45.100	26.297	1295.912	1058.752
-44.086	26.183	1293.290	1055.905
-43.071	26.153	1291.113	1053.905
-42.057	26.240	1289.033	1052.676
-41.042	26.143	1287.691	1050.974
-40.027	26.138	1285.979	1049.507
-39.013	26.255	1283.808	1048.372
-37.998	26.151	1282.713	1046.834
-36.984	26.266	1280.235	1045.431
-35.969	26.306	1278.408	1044.130
-34.954	26.320	1276.642	1042.726
-33.940	26.312	1275.597	1041.788
-32.925	26.377	1274.278	1041.041
-31.911	26.279	1272.987	1039.382
-30.896	26.492	1271.222	1039.126
-29.881	26.440	1270.497	1038.189
-28.867	26.430	1268.444	1036.418
-27.852	26.372	1267.653	1035.397
-26.838	26.442	1266.172	1034.546
-25.823	26.355	1264.773	1032.866
-24.809	26.363	1263.506	1031.837
-23.794	26.322	1262.141	1030.446
-22.779	26.425	1260.333	1029.515
-21.765	26.418	1259.461	1028.724
-20.750	26.447	1258.035	1027.679
-19.736	26.347	1257.077	1026.288
-18.721	26.264	1255.815	1024.746
-17.706	26.323	1254.758	1024.180
-16.692	26.225	1254.107	1023.052
-15.677	26.324	1252.812	1022.514
-14.663	26.240	1251.683	1021.076
-13.648	26.249	1250.473	1020.103
-12.633	26.271	1249.354	1019.275
-11.619	26.354	1248.077	1018.656
-10.604	26.237	1247.819	1017.747
-9.590	26.337	1246.986	1017.588
-8.575	26.175	1245.585	1015.495
-7.560	26.221	1245.193	1015.397
-6.546	26.251	1244.198	1014.714
-5.531	26.253	1243.082	1013.773
-4.517	26.386	1241.929	1013.539
-3.502	26.379	1241.069	1012.756
-2.487	26.291	1240.307	1011.601
-1.473	26.307	1236.369	1008.442
-0.458	25.074	1221.792	989.706
0.556	23.611	1205.155	954.172
1.571	20.116	1211.335	940.060
2.586	19.271	1225.888	946.629
3.600	18.848	1214.020	935.078
4.615	14.462	1143.385	858.067
5.629	7.398	1072.854	770.842
6.644	4.542	1055.152	744.388
7.659	4.260	1052.490	741.096
8.673	3.981	1051.394	738.928
9.688	4.019	1050.154	738.176
10.702	4.440	1048.205	738.742
11.717	9.075	1054.175	765.014
12.731	16.782	1064.740	809.581
13.746	21.354	1070.340	835.682
14.761	22.148	1071.183	840.063
15.775	21.387	1069.874	835.324
16.790	20.458	1067.843	829.234
17.804	19.912	1066.077	825.188
18.819	19.820	1065.057	823.887
19.834	19.643	1064.408	822.469
20.848	19.551	1064.160	821.767
21.863	19.311	1062.982	819.644
22.877	19.120	1062.558	818.335
23.892	19.058	1061.893	817.456
24.907	19.105	1060.778	816.747
25.921	18.983	1060.002	815.502
26.936	18.952	1058.937	814.463
27.950	19.100	1057.387	813.896
28.965	19.227	1056.088	813.427
29.980	19.368	1055.051	813.219
30.994	19.381	1054.048	812.437
32.009	19.550	1052.760	812.167
33.023	19.451	1051.747	810.850
34.038	19.324	1050.929	809.550
35.053	19.149	1049.908	807.871
36.067	19.176	1048.724	807.013
37.082	19.341	1047.989	807.150
38.096	19.484	1047.599	807.449
39.111	19.457	1046.324	806.265
40.126	19.165	1045.541	804.229
41.140	18.885	1043.780	801.499
42.155	18.657	1042.567	799.431
43.169	18.684	1041.556	798.713
44.184	18.615	1040.815	797.755
45.199	18.692	1039.635	797.134
46.213	18.910	1038.741	797.390
47.228	19.112	1038.336	797.947
48.242	19.141	1037.115	797.073
49.257	19.108	1036.074	796.048
50.271	19.314	1035.248	796.296
51.286	19.414	1034.148	795.840
52.301	19.225	1033.706	794.559
53.315	19.076	1032.700	793.026
54.330	18.999	1031.406	791.611
55.344	18.882	1030.524	790.324
56.359	18.939	1029.838	789.990
57.374	18.779	1029.048	788.579
58.388	18.688	1027.991	787.285
59.403	18.634	1027.226	786.382
60.417	18.596	1026.662	785.702
61.432	18.630	1025.773	785.111
62.447	18.578	1024.951	784.171
63.461	18.562	1023.763	783.121
64.476	18.532	1022.957	782.300
65.490	18.599	1021.980	781.789
66.505	18.620	1021.371	781.350
67.520	18.545	1021.109	780.738
68.534	18.673	1020.274	780.611
69.549	18.554	1019.283	779.242
70.563	18.503	1018.295	778.190
71.578	18.304	1017.653	776.725
72.593	18.100	1017.186	775.374
73.607	18.237	1016.597	775.481
74.622	18.254	1015.943	774.989
75.636	18.380	1014.851	774.658
76.651	18.509	1014.186	774.665
77.666	18.366	1014.013	773.820
78.680	18.424	1013.067	773.287
79.695	18.479	1012.147	772.767
80.709	18.573	1012.196	773.161
81.724	18.736	1011.628	773.389
82.739	18.864	1010.756	773.233
83.753	19.224	1010.106	774.285
84.768	19.534	1009.146	774.871
85.782	19.676	1008.802	775.177
86.797	19.449	1007.801	773.320
87.812	19.242	1006.998	771.710
88.826	19.361	1006.029	771.432
89.841	19.412	1005.059	770.847
90.855	19.622	1004.046	770.940
91.870	19.514	1003.511	769.977
92.884	19.537	1002.313	769.093
93.899	19.431	1001.710	768.089
94.914	19.671	1000.302	768.009
95.928	19.495	999.664	766.671
96.943	19.482	998.416	765.588
97.957	19.350	998.173	764.747
98.972	19.272	997.446	763.780
99.987	19.279	996.459	762.985
101.001	19.207	995.601	761.942
102.016	19.311	994.375	761.396
103.030	19.377	993.836	761.208
104.045	19.350	992.896	760.304
105.060	19.232	991.612	758.732
106.074	18.951	990.467	756.554
107.089	18.686	989.448	754.541
108.103	18.542	988.861	753.396
109.118	18.696	987.233	752.765
110.133	18.444	986.866	751.311
111.147	18.520	985.764	750.741
112.162	18.580	985.275	750.565
113.176	18.821	984.576	751.017
114.191	18.829	984.137	750.654
115.206	18.761	982.989	749.412
116.220	18.699	982.214	748.484
117.235	18.723	981.494	747.976
118.249	18.646	980.549	746.852
119.264	18.615	979.273	745.680
120.279	18.574	978.844	745.109
121.293	18.413	978.000	743.705
122.308	18.410	976.905	742.792
123.322	18.408	975.686	741.791
124.337	18.240	974.885	740.388
125.352	18.377	973.790	740.084
126.366	18.344	973.019	739.291
127.381	18.307	972.202	738.446
128.395	18.309	971.585	737.920
129.410	18.552	970.585	738.140
130.424	18.580	969.977	737.734
131.439	18.708	969.424	737.799
132.454	18.833	968.100	737.260
133.468	18.671	967.805	736.274
134.483	18.884	966.795	736.355
135.497	18.746	966.103	735.173
136.512	18.733	965.206	734.369
137.527	18.869	964.495	734.346
138.541	18.809	964.030	733.667
139.556	18.859	963.234	733.212
140.570	18.986	963.075	733.566
141.585	19.379	961.885	734.268
142.600	19.323	961.215	733.455
143.614	19.416	960.822	733.486
144.629	19.465	959.537	732.647
145.643	19.207	959.059	731.123
146.658	19.191	957.640	729.909
147.673	19.029	956.465	728.263
148.687	18.937	955.440	727.030
149.702	18.756	954.797	725.712
150.716	18.875	954.002	725.543
151.731	18.869	953.360	724.966
152.746	18.851	953.043	724.586
153.760	18.844	952.522	724.095
154.775	18.999	952.021	724.305
155.789	19.029	951.292	723.811
156.804	19.058	950.884	723.561
157.819	19.204	949.573	723.110
158.833	19.512	948.990	723.895
159.848	19.512	948.492	723.453
160.862	19.371	947.101	721.735
161.877	19.125	945.872	719.705
162.892	18.848	944.870	717.725
163.906	18.873	943.239	716.524
164.921	18.904	943.003	716.411
165.935	18.971	942.349	716.131
166.950	18.985	941.581	715.545
167.964	19.044	940.713	715.063
168.979	18.960	939.633	713.833
169.994	18.827	938.972	712.716
171.008	19.130	938.223	713.340
172.023	19.312	937.423	713.419
173.037	19.459	936.948	713.604
174.052	19.250	935.959	711.924
175.067	18.961	935.161	710.062
176.081	18.809	934.645	708.980
177.096	18.666	934.292	708.059
178.110	18.989	933.355	708.616
179.125	18.973	932.941	708.175
180.140	18.976	932.623	707.881
181.154	19.156	932.267	708.290
182.169	19.380	931.919	708.882
183.183	19.306	931.226	707.991
184.198	19.438	930.268	707.741
185.213	19.249	929.841	706.577
186.227	19.478	929.102	706.891
187.242	19.530	928.622	706.679
188.256	19.641	928.218	706.763
189.271	19.577	927.369	705.793
190.286	19.294	925.872	703.434
191.300	18.861	925.151	701.059
192.315	18.613	924.415	699.429
193.329	18.736	924.062	699.599
194.344	18.911	923.700	699.976
195.359	19.042	923.274	700.124
196.373	19.205	922.519	700.152
197.388	19.548	921.864	700.989
198.402	19.659	921.543	701.131
199.417	19.735	921.231	701.138
200.432	19.938	920.562	701.391
201.446	19.771	920.670	700.733
202.461	20.008	919.926	701.065
203.475	19.865	918.916	699.658
204.490	19.613	918.038	697.907
205.504	19.393	917.030	696.192
206.519	19.414	916.188	695.574
207.534	19.430	915.753	695.248
208.548	19.440	915.229	694.830
209.563	19.462	914.556	694.346
210.577	19.468	914.157	694.004
211.592	19.798	913.331	694.644
212.607	19.938	912.748	694.700
213.621	19.783	911.862	693.341
214.636	19.648	911.260	692.281
215.650	19.732	910.669	692.108
216.665	19.958	909.687	692.206
217.680	20.006	909.329	692.062
218.694	20.075	908.601	691.725
219.709	19.842	907.874	690.177
220.723	19.921	907.461	690.120
221.738	19.799	906.445	688.797
222.753	19.861	905.942	688.601
223.767	20.028	905.408	688.799
224.782	20.015	905.023	688.396
225.796	20.227	904.307	688.631
226.811	19.985	903.712	687.157
227.826	19.828	902.590	685.622
228.840	19.804	902.174	685.148
229.855	19.744	901.339	684.216
230.869	19.801	900.276	683.572
231.884	19.726	899.513	682.636
232.899	19.531	899.248	681.607
233.913	19.404	898.128	680.197
234.928	19.586	897.487	680.368
235.942	19.458	897.041	679.464
236.957	19.560	896.573	679.453
237.972	19.429	896.345	678.703
238.986	19.477	895.183	677.951
240.001	19.477	895.118	677.844
241.015	19.551	894.544	677.641
242.030	19.696	893.786	677.572
243.045	19.915	893.206	677.933
244.059	19.881	892.524	677.220
245.074	19.906	892.286	677.077
246.088	19.942	891.550	676.600
247.103	20.071	891.049	676.663
248.117	20.235	891.058	677.250
249.132	20.632	890.362	678.213
250.147	20.685	889.966	678.057
251.161	20.754	889.093	677.600
252.176	20.779	888.994	677.561
253.190	20.669	888.406	676.625
254.205	20.892	887.449	676.705
255.220	20.919	886.675	676.159
256.234	20.714	886.449	675.129
257.249	20.701	885.540	674.328
258.263	20.742	884.632	673.735
259.278	20.640	884.254	672.995
260.293	20.841	883.617	673.225
261.307	20.876	883.397	673.133
262.322	20.850	882.626	672.388
263.336	20.945	881.459	671.806
264.351	21.159	880.750	672.028
265.366	21.012	880.575	671.268
266.380	20.819	879.994	670.026
267.395	20.838	879.372	669.565
268.409	20.685	878.397	668.176
269.424	20.787	877.561	667.872
270.439	20.650	876.733	666.660
271.453	20.608	875.998	665.879
272.468	20.605	875.529	665.451
273.482	20.512	875.298	664.863
274.497	20.631	874.346	664.534
275.512	20.567	873.915	663.903
276.526	20.628	873.551	663.801
277.541	20.716	872.983	663.647
278.555	20.957	872.477	664.121
279.570	21.116	872.166	664.433
280.585	21.051	870.901	663.163
281.599	21.011	869.953	662.229
282.614	20.720	869.682	660.859
283.628	20.540	869.040	659.631
284.643	20.604	868.577	659.463
285.657	20.691	867.495	658.912
286.672	20.737	866.669	658.401
287.687	20.892	866.224	658.592
288.701	20.891	865.703	658.132
289.716	20.792	865.352	657.436
290.730	20.843	864.763	657.120
291.745	20.818	864.482	656.756
292.760	20.884	864.061	656.625
293.774	21.220	863.340	657.285
294.789	21.131	862.349	656.138
295.803	20.820	861.444	654.223
296.818	20.708	860.954	653.373
297.833	20.871	860.213	653.362
298.847	20.868	859.839	653.011
299.862	20.901	859.144	652.550
300.876	21.020	858.768	652.649
301.891	21.213	858.470	653.086
302.906	21.191	857.815	652.451
303.920	21.470	857.919	653.514
304.935	21.531	856.979	652.968
305.949	21.533	856.044	652.204
306.964	21.140	855.773	650.475
307.979	21.105	855.212	649.863
308.993	21.413	854.693	650.556
310.008	21.345	853.796	649.562
311.022	21.329	853.131	648.939
312.037	21.056	852.646	647.502
313.052	20.879	852.125	646.390
314.066	20.764	851.178	645.191
315.081	20.813	850.752	644.990
316.095	20.857	849.888	644.441
317.110	20.802	849.525	643.907
318.125	20.835	848.965	643.546
319.139	20.838	848.739	643.330
320.154	20.935	847.798	642.917
321.168	20.951	847.931	643.019
322.183	20.988	847.446	642.734
323.197	21.045	846.545	642.201
324.212	21.048	846.033	641.768
325.227	21.017	845.426	641.135
326.241	21.015	844.640	640.477
327.256	21.027	843.828	639.848
328.270	21.010	843.751	639.671
329.285	20.919	842.734	638.511
330.300	21.005	842.414	638.525
331.314	20.978	842.359	638.329
332.329	21.154	841.846	638.527
333.343	21.152	841.461	638.170
334.358	21.219	841.207	638.165
335.373	21.322	840.854	638.220
336.387	21.209	840.528	637.500
337.402	21.599	839.938	638.421
338.416	21.493	840.203	638.179
339.431	21.816	839.620	638.856
340.446	21.851	838.974	638.436
341.460	21.897	838.942	638.523
342.475	21.901	838.631	638.243
343.489	21.923	838.198	637.937
344.504	22.040	837.544	637.810
345.519	21.957	837.608	637.501
346.533	21.960	836.404	636.539
347.548	21.782	835.640	635.257
348.562	21.580	834.699	633.753
349.577	21.376	834.368	632.706
350.592	21.349	833.801	632.121
351.606	21.289	833.009	631.250
352.621	21.574	831.612	631.165
353.635	21.423	831.583	630.543
354.650	21.589	831.129	630.740
355.665	21.585	830.805	630.424
356.679	21.622	830.210	630.049
357.694	21.764	829.324	629.830
358.708	21.616	828.782	628.831
359.723	21.581	828.418	628.373
360.738	21.750	827.732	628.405
361.752	21.915	827.041	628.416
362.767	21.996	826.611	628.322
363.781	22.249	826.074	628.763
364.796	22.167	825.905	628.286
365.810	22.410	825.766	628.995
366.825	22.344	825.367	628.399
367.840	22.311	824.604	627.645
368.854	22.087	824.083	626.392
369.869	22.016	823.726	625.813
370.883	22.099	823.586	625.949
371.898	22.247	823.438	626.305
372.913	22.222	822.911	625.762
373.927	22.039	821.798	624.208
374.942	22.238	821.496	624.632
375.956	22.346	821.425	624.905
376.971	22.405	820.864	624.632
377.986	22.601	820.098	624.690
379.000	22.423	819.882	623.839
380.015	22.503	819.111	623.481
381.029	22.403	818.707	622.764
382.044	22.479	818.107	622.521
383.059	22.560	817.565	622.341
384.073	22.396	816.491	620.891
385.088	22.206	815.831	619.663
386.102	22.078	815.587	618.971
387.117	22.123	814.942	618.587
388.132	22.023	814.276	617.674
389.146	22.213	813.935	618.030
390.161	22.403	813.313	618.169
391.175	22.505	812.801	618.083
392.190	22.294	812.301	616.909
393.205	22.184	811.926	616.182
394.219	22.088	811.503	615.471
395.234	21.983	810.977	614.649
396.248	21.803	810.686	613.744
397.263	21.883	809.862	613.346
398.278	21.819	809.522	612.810
399.292	21.892	809.304	612.847
400.307	21.776	809.064	612.204
401.321	21.828	808.437	611.858
402.336	22.041	807.777	612.047
403.350	22.350	807.319	612.722
404.365	22.322	807.230	612.505
405.380	22.501	806.821	612.761
406.394	22.759	806.049	613.016
407.409	22.587	806.151	612.444
408.423	22.737	805.468	612.389
409.438	22.657	805.552	612.122
410.453	22.789	805.203	612.262
411.467	22.797	804.922	612.022
412.482	22.986	804.341	612.179
413.496	23.061	803.902	612.050
414.511	22.953	803.572	611.371
415.526	22.883	802.664	610.385
416.540	22.831	802.269	609.852
417.555	22.888	802.024	609.809
418.569	22.863	801.779	609.480
419.584	22.747	801.629	608.912
420.599	22.837	800.444	608.270
421.613	165.227	1370.361	1794.957
422.628	143.604	1453.433	1795.021
