DTS Sentinel unit serial number:	SN413079Multiplexer serial number:	ORYXHardware model number:	OX4-SRSoftware version number:	ORYX F/W v4.00 Oryx Data Collector v3.7.2.0data status	okinstallation	princeton_trtdifferential loss correction	single-endedforward channel	channel 1reverse channel	N/Adate	2019/09/12time	17:16:12forward acquisition time	60.00reverse acquisition time	0.00gamma	496.2192k internal	0.2314k external	0.2314temperature offset calibration	1.0100default loss term (dB/km)	0.3790temperature slope calibration	1.0000multiplexer offset coefficient	1.0000multiplexer slope coefficient	1.0000fibre end	0.00T internal ref (°C)	35.09T ext. ref 1 (°C)	2.81T ext. ref 2 (°C)	28.81length (m)	temperature (°C)	Stokes	anti-Stokes-747.200	800.000	-0.100	0.314
-746.185	188.205	-0.141	0.214
-745.171	172.899	-0.236	0.345
-744.156	800.000	-0.078	0.337
-743.142	-109.693	-0.146	0.031
-742.127	185.260	0.122	0.183
-741.112	800.000	0.128	-0.366
-740.098	800.000	-0.180	0.661
-739.083	-77.168	-0.264	-0.093
-738.069	-200.000	0.035	0.611
-737.054	214.537	0.134	0.216
-736.039	150.372	-0.220	0.302
-735.025	-70.172	-0.202	-0.078
-734.010	800.000	-0.083	0.277
-732.996	11.414	0.346	0.269
-731.981	123.316	-0.159	0.202
-730.966	-28.434	-0.324	0.189
-729.952	272.697	-0.331	0.593
-728.937	123.126	-0.201	-0.256
-727.923	46.448	-0.140	-0.131
-726.908	-7.913	0.084	-0.058
-725.894	-164.991	-0.385	0.017
-724.879	800.000	-0.066	-0.275
-723.864	-200.000	0.011	-0.143
-722.850	-200.000	0.012	-0.219
-721.835	277.387	0.022	-0.041
-720.821	-94.070	-0.125	-0.035
-719.806	82.529	-0.301	0.331
-718.791	-200.000	0.000	0.221
-717.777	334.906	0.074	0.145
-716.762	-161.790	-0.307	0.016
-715.748	-119.895	0.146	0.025
-714.733	-171.913	0.299	0.010
-713.718	-39.399	-0.103	-0.055
-712.704	-200.000	0.017	0.287
-711.689	-70.492	-0.189	0.073
-710.675	-200.000	-0.029	-0.200
-709.660	800.000	0.064	0.282
-708.645	-200.000	0.035	-0.322
-707.631	-11.798	-0.217	0.144
-706.616	476.465	0.064	-0.147
-705.602	-25.534	-0.307	0.184
-704.587	-200.000	0.043	0.356
-703.572	-21.780	0.239	-0.147
-702.558	-22.665	-0.174	0.106
-701.543	66.417	0.242	0.249
-700.529	-160.587	-0.271	0.015
-699.514	-200.000	-0.055	0.309
-698.499	-200.000	-0.015	-0.130
-697.485	-44.367	-0.072	0.036
-696.470	-97.470	0.128	-0.034
-695.456	35.180	-0.039	0.034
-694.441	800.000	0.041	-0.160
-693.426	144.148	-0.071	0.096
-692.412	-200.000	0.004	-0.195
-691.397	800.000	-0.144	-0.549
-690.383	-126.993	0.077	0.011
-689.368	-19.200	-0.046	0.029
-688.354	-77.480	-0.340	-0.119
-687.339	2.328	0.058	-0.043
-686.324	-133.575	-0.351	0.044
-685.310	47.293	0.086	-0.081
-684.295	59.301	-0.268	0.267
-683.281	429.848	-0.129	0.281
-682.266	800.000	-0.040	-0.157
-681.251	-81.781	-0.193	0.064
-680.237	800.000	-0.026	-0.084
-679.222	-200.000	0.010	-0.117
-678.208	57.408	0.089	0.088
-677.193	23.916	-0.188	-0.157
-676.178	-200.000	0.049	-0.228
-675.164	-129.493	0.286	0.040
-674.149	-102.024	0.163	0.040
-673.135	69.414	-0.159	0.165
-672.120	145.531	-0.147	-0.199
-671.105	-200.000	0.015	0.273
-670.091	143.917	-0.162	0.219
-669.076	726.886	0.055	-0.147
-668.062	800.000	-0.074	-0.296
-667.047	-140.906	-0.164	0.017
-666.032	-200.000	0.047	-0.312
-665.018	-51.990	0.239	-0.112
-664.003	502.809	0.083	0.195
-662.989	800.000	0.091	0.279
-661.974	115.078	-0.162	0.199
-660.959	-200.000	0.080	-0.362
-659.945	-11.732	-0.243	-0.161
-658.930	800.000	0.025	-0.113
-657.916	7.578	-0.201	0.152
-656.901	800.000	-0.103	-0.313
-655.886	68.374	0.158	-0.163
-654.872	53.098	0.192	0.186
-653.857	-70.187	0.093	-0.036
-652.843	-200.000	0.005	-0.211
-651.828	64.369	-0.011	0.011
-650.814	-37.329	0.074	0.040
-649.799	-99.287	-0.254	-0.065
-648.784	495.580	-0.062	-0.144
-647.770	-52.831	0.275	0.128
-646.755	-22.292	-0.257	-0.157
-645.741	800.000	0.053	-0.205
-644.726	-35.135	0.194	-0.107
-643.711	-200.000	-0.056	0.248
-642.697	-103.929	-0.140	-0.033
-641.682	-93.796	-0.068	0.019
-640.668	-144.875	-0.217	0.020
-639.653	-200.000	-0.026	-0.391
-638.638	7.223	0.183	-0.138
-637.624	-200.000	0.019	0.201
-636.609	97.642	0.155	0.180
-635.595	176.239	-0.034	0.050
-634.580	-143.907	0.544	-0.052
-633.565	-200.000	0.008	0.141
-632.551	-97.198	-0.161	-0.042
-631.536	-200.000	0.041	-0.317
-630.522	-155.504	0.189	-0.012
-629.507	-200.000	-0.066	-0.338
-628.492	-34.622	0.087	-0.048
-627.478	173.939	0.053	-0.078
-626.463	65.025	-0.042	0.043
-625.449	40.283	-0.051	0.046
-624.434	-67.135	-0.188	-0.075
-623.419	34.641	-0.142	0.125
-622.405	800.000	0.036	-0.124
-621.390	42.187	0.360	0.330
-620.376	-200.000	0.016	0.279
-619.361	26.265	-0.220	-0.185
-618.346	-72.369	-0.226	-0.084
-617.332	119.014	0.029	-0.036
-616.317	-200.000	0.022	-0.241
-615.303	-24.208	0.148	-0.089
-614.288	155.893	-0.221	-0.308
-613.273	-187.500	-0.324	0.004
-612.259	-26.748	-0.192	0.113
-611.244	278.184	0.075	-0.135
-610.230	66.804	0.081	-0.083
-609.215	-200.000	0.021	-0.111
-608.201	263.845	0.231	0.406
-607.186	-116.308	0.208	0.039
-606.171	62.431	-0.110	-0.111
-605.157	-130.497	0.448	-0.061
-604.142	-200.000	-0.040	0.257
-603.128	800.000	-0.071	-0.287
-602.113	-200.000	0.053	0.280
-601.098	219.829	-0.110	0.178
-600.084	257.946	-0.058	0.100
-599.069	3.839	-0.184	-0.135
-598.055	-200.000	-0.003	-0.056
-597.040	-200.000	0.315	0.001
-596.025	229.637	0.021	0.035
-595.011	33.907	-0.173	-0.152
-593.996	800.000	0.059	-0.206
-592.982	348.520	0.127	0.253
-591.967	104.034	0.197	0.234
-590.952	800.000	-0.039	0.109
-589.938	-200.000	-0.002	0.174
-588.923	8.925	-0.178	0.135
-587.909	644.779	0.072	-0.186
-586.894	-200.000	0.032	0.156
-585.879	275.132	-0.093	0.166
-584.865	-200.000	0.012	0.153
-583.850	49.220	-0.249	-0.236
-582.836	-196.950	0.103	-0.001
-581.821	-200.000	-0.007	-0.035
-580.806	247.349	0.167	-0.284
-579.792	800.000	-0.028	-0.091
-578.777	-166.072	-0.278	0.012
-577.763	800.000	-0.118	-0.349
-576.748	-45.062	0.066	0.033
-575.733	-200.000	0.069	0.373
-574.719	-200.000	-0.009	0.102
-573.704	37.936	0.088	0.079
-572.690	38.499	-0.223	0.201
-571.675	-200.000	-0.009	0.311
-570.661	176.512	0.077	0.113
-569.646	1.295	-0.119	0.086
-568.631	-200.000	0.051	0.234
-567.617	141.149	0.081	0.108
-566.602	-85.887	0.154	-0.048
-565.588	30.154	-0.176	-0.151
-564.573	-149.973	0.145	-0.011
-563.558	110.969	-0.089	0.107
-562.544	671.257	-0.044	-0.113
-561.529	93.451	-0.299	-0.341
-560.515	-51.443	-0.236	0.111
-559.500	65.883	-0.097	0.099
-558.485	553.413	0.107	-0.260
-557.471	16.803	0.209	0.166
-556.456	-16.645	0.122	0.078
-555.442	208.112	-0.032	-0.050
-554.427	-200.000	0.003	0.043
-553.412	-51.277	0.156	-0.073
-552.398	336.491	0.065	0.128
-551.383	-200.000	-0.072	-0.392
-550.369	-200.000	0.041	-0.350
-549.354	-200.000	-0.009	0.177
-548.339	-95.621	0.425	0.114
-547.325	-80.289	0.143	0.048
-546.310	384.415	-0.119	0.246
-545.296	76.112	-0.065	-0.069
-544.281	-200.000	-0.010	0.105
-543.266	-20.970	-0.158	-0.097
-542.252	-11.253	0.354	-0.235
-541.237	-32.695	0.043	0.024
-540.223	48.999	-0.200	0.189
-539.208	-72.259	-0.065	0.024
-538.193	78.138	-0.210	0.225
-537.179	86.899	-0.066	0.074
-536.164	115.435	0.194	-0.238
-535.150	22.312	0.282	-0.232
-534.135	781.090	-0.090	-0.247
-533.121	1.637	0.176	-0.127
-532.106	87.964	-0.119	-0.133
-531.091	281.892	-0.124	0.224
-530.077	-200.000	0.009	-0.197
-529.062	800.000	0.034	0.100
-528.048	-111.593	-0.319	0.065
-527.033	-8.431	0.266	0.180
-526.018	269.373	0.215	-0.380
-525.004	-200.000	0.033	-0.290
-523.989	574.361	0.085	-0.208
-522.975	800.000	-0.047	0.142
-521.960	-50.911	0.273	0.129
-520.945	-110.744	0.108	-0.022
-519.931	-183.635	0.340	0.006
-518.916	-42.712	-0.097	0.049
-517.902	-33.763	0.081	-0.045
-516.887	-84.462	0.183	-0.058
-515.872	313.386	-0.141	0.266
-514.858	-101.108	0.065	-0.016
-513.843	347.097	-0.053	0.105
-512.829	-200.000	-0.022	0.466
-511.814	273.654	0.053	-0.095
-510.799	-46.842	0.169	-0.083
-509.785	-200.000	-0.043	0.378
-508.770	800.000	0.138	0.386
-507.756	202.558	0.023	-0.035
-506.741	52.107	-0.145	-0.139
-505.726	7.078	0.185	-0.139
-504.712	-62.088	-0.065	-0.027
-503.697	800.000	0.068	-0.201
-502.683	-23.688	0.061	0.037
-501.668	-106.652	0.043	0.010
-500.653	-110.286	0.105	0.022
-499.639	-131.928	0.232	0.030
-498.624	-200.000	0.048	0.221
-497.610	-92.550	0.112	-0.032
-496.595	-200.000	0.002	0.172
-495.581	-132.577	-0.011	-0.001
-494.566	244.470	-0.129	0.217
-493.551	52.998	-0.078	0.075
-492.537	-178.446	0.211	0.005
-491.522	-53.742	-0.214	0.098
-490.508	451.632	-0.128	-0.283
-489.493	-90.358	-0.094	-0.027
-488.478	-109.455	0.071	0.015
-487.464	133.713	-0.131	-0.170
-486.449	83.446	-0.115	0.126
-485.435	77.720	0.237	0.254
-484.420	167.082	0.107	-0.152
-483.405	-38.124	0.279	0.149
-482.391	52.409	0.132	-0.126
-481.376	110.994	0.156	-0.188
-480.362	-107.753	-0.085	0.019
-479.347	703.740	0.069	-0.183
-478.332	-72.181	-0.439	0.163
-477.318	188.479	-0.091	-0.137
-476.303	-200.000	-0.003	0.026
-475.289	520.848	-0.026	0.062
-474.274	-103.011	0.071	0.017
-473.259	-95.948	-0.303	0.081
-472.245	300.600	-0.032	-0.060
-471.230	-200.000	-0.016	-0.221
-470.216	-22.045	0.098	0.060
-469.201	326.534	-0.100	0.191
-468.186	800.000	-0.035	-0.128
-467.172	248.438	-0.064	0.109
-466.157	-58.923	-0.299	0.130
-465.143	-158.752	-0.141	-0.008
-464.128	-86.220	0.321	-0.099
-463.113	-83.791	-0.130	0.042
-462.099	-87.581	0.227	0.069
-461.084	71.129	-0.061	0.064
-460.070	-200.000	0.003	-0.121
-459.055	-200.000	-0.029	-0.129
-458.040	12.042	-0.131	-0.101
-457.026	-35.172	0.096	-0.052
-456.011	180.178	0.235	-0.345
-454.997	117.261	0.115	0.141
-453.982	-89.974	0.108	0.032
-452.968	-54.187	0.392	0.178
-451.953	79.269	-0.330	0.355
-450.938	-200.000	-0.076	0.354
-449.924	-136.962	-0.375	-0.043
-448.909	800.000	0.010	0.040
-447.895	-200.000	0.039	-0.197
-446.880	-138.881	-0.017	0.002
-445.865	-200.000	-0.066	-0.308
-444.851	-111.907	-0.129	0.026
-443.836	800.000	-0.085	0.306
-442.822	-9.496	-0.247	-0.165
-441.807	-104.690	0.147	-0.034
-440.792	40.524	0.104	0.094
-439.778	44.770	-0.124	0.114
-438.763	239.030	-0.102	0.170
-437.749	-200.000	-0.066	-0.475
-436.734	62.375	0.302	0.302
-435.719	800.000	-0.073	-0.316
-434.705	629.729	-0.096	0.244
-433.690	162.315	0.208	-0.293
-432.676	800.000	-0.070	0.238
-431.661	713.026	-0.143	0.379
-430.646	9.440	0.302	-0.229
-429.632	-22.571	-0.233	-0.141
-428.617	800.000	0.054	-0.236
-427.603	487.559	-0.140	-0.319
-426.588	104.817	0.138	-0.163
-425.573	800.000	0.030	-0.086
-424.559	-28.619	-0.148	-0.085
-423.544	-200.000	-0.043	-0.222
-422.530	800.000	-0.057	-0.173
-421.515	-99.666	-0.092	0.023
-420.500	44.305	0.145	0.134
-419.486	800.000	0.056	0.170
-418.471	-127.353	0.297	0.043
-417.457	-183.587	0.122	0.002
-416.442	-86.519	-0.175	-0.054
-415.428	-200.000	0.019	-0.235
-414.413	306.656	0.097	-0.181
-413.398	-200.000	-0.039	-0.244
-412.384	12.941	-0.272	-0.211
-411.369	600.612	0.059	0.147
-410.355	-95.385	-0.266	0.071
-409.340	-135.553	-0.385	-0.046
-408.325	48.126	-0.283	-0.265
-407.311	428.659	0.042	-0.091
-406.296	-200.000	-0.009	-0.227
-405.282	77.641	0.149	0.159
-404.267	800.000	-0.019	0.083
-403.252	-200.000	0.067	0.298
-402.238	619.380	-0.197	0.495
-401.223	-200.000	0.008	0.097
-400.209	800.000	-0.075	0.250
-399.194	151.752	0.120	0.164
-398.179	221.093	-0.144	-0.231
-397.165	-90.235	-0.291	0.085
-396.150	800.000	0.139	0.395
-395.136	-200.000	0.008	0.175
-394.121	-115.293	-0.311	0.059
-393.106	800.000	-0.068	-0.260
-392.092	15.441	-0.263	0.206
-391.077	38.037	0.171	0.152
-390.063	-200.000	-0.030	-0.257
-389.048	32.811	-0.165	-0.143
-388.033	297.238	0.053	-0.096
-387.019	14.479	-0.150	0.117
-386.004	55.586	-0.303	0.293
-384.990	-72.281	-0.244	-0.091
-383.975	-19.146	-0.033	-0.021
-382.960	475.064	0.175	0.396
-381.946	114.091	-0.036	0.044
-380.931	-105.767	0.375	0.085
-379.917	-47.962	0.266	0.129
-378.902	648.166	-0.054	-0.139
-377.888	-104.550	0.091	0.021
-376.873	800.000	-0.137	0.394
-375.858	-158.341	0.251	0.015
-374.844	-200.000	-0.058	-0.285
-373.829	318.292	-0.084	0.158
-372.815	-101.770	-0.158	-0.038
-371.800	-146.632	0.326	0.028
-370.785	90.820	0.244	-0.274
-369.771	-88.680	-0.148	0.044
-368.756	230.747	-0.175	-0.286
-367.742	-8.986	-0.408	-0.273
-366.727	-12.634	-0.240	0.156
-365.712	-118.244	0.307	-0.055
-364.698	-51.339	0.055	0.026
-363.683	800.000	0.085	0.322
-362.669	-66.358	0.322	0.128
-361.654	800.000	0.099	0.353
-360.639	-73.724	0.263	-0.096
-359.625	24.340	-0.113	0.093
-358.610	-200.000	0.010	0.171
-357.596	-200.000	0.013	0.131
-356.581	-5.356	0.166	-0.114
-355.566	-71.133	0.177	0.066
-354.552	-46.787	0.193	-0.095
-353.537	-200.000	-0.015	-0.146
-352.523	-160.519	-0.125	-0.007
-351.508	74.080	0.107	-0.113
-350.493	-64.600	-0.083	-0.034
-349.479	-67.712	0.449	0.176
-348.464	-37.538	0.161	-0.086
-347.450	340.408	0.041	0.080
-346.435	-117.761	0.346	-0.062
-345.420	-1.801	-0.086	0.060
-344.406	94.063	-0.113	0.128
-343.391	-110.470	0.239	-0.050
-342.377	16.959	-0.186	0.147
-341.362	-143.412	0.105	-0.010
-340.348	646.792	-0.027	0.069
-339.333	-200.000	-0.032	-0.167
-338.318	786.086	-0.025	-0.069
-337.304	321.601	-0.117	0.221
-336.289	251.984	-0.120	-0.204
-335.275	-64.643	-0.294	-0.119
-334.260	38.791	0.154	0.137
-333.245	-4.336	-0.230	-0.159
-332.231	-48.251	-0.098	-0.047
-331.216	104.877	0.241	0.284
-330.202	358.416	-0.079	0.158
-329.187	32.145	0.109	-0.094
-328.172	-142.515	0.325	0.032
-327.158	-200.000	-0.246	0.001
-326.143	-200.000	0.001	0.031
-325.129	-200.000	-0.019	0.215
-324.114	201.742	0.073	-0.112
-323.099	-200.000	-0.028	0.143
-322.085	-58.445	0.134	0.058
-321.070	-200.000	0.015	-0.113
-320.056	62.073	-0.018	-0.018
-319.041	-105.757	-0.138	0.031
-318.026	280.517	0.079	-0.141
-317.012	-151.854	-0.479	-0.035
-315.997	-107.802	-0.191	-0.041
-314.983	1.694	-0.143	-0.102
-313.968	-29.067	-0.123	0.071
-312.953	-62.363	0.331	-0.137
-311.939	-200.000	0.041	0.391
-310.924	24.289	0.094	0.077
-309.910	-171.207	0.291	-0.010
-308.895	-80.160	0.166	-0.055
-307.880	10.282	0.170	-0.129
-306.866	66.270	-0.089	0.090
-305.851	-200.000	-0.034	0.321
-304.837	-200.000	0.004	0.061
-303.822	49.119	-0.093	-0.087
-302.807	143.554	0.220	-0.292
-301.793	279.161	0.100	-0.178
-300.778	67.785	-0.042	0.043
-299.764	-200.000	0.084	0.392
-298.749	27.199	-0.117	-0.098
-297.735	75.378	-0.201	0.212
-296.720	688.637	-0.166	-0.432
-295.705	-169.298	-0.129	-0.005
-294.691	-90.349	-0.308	-0.089
-293.676	-34.627	0.300	-0.164
-292.662	-200.000	0.012	-0.105
-291.647	-200.000	0.003	-0.234
-290.632	-109.843	0.269	0.056
-289.618	1.585	-0.157	0.112
-288.603	-94.308	-0.161	-0.044
-287.589	323.312	-0.112	0.213
-286.574	12.595	-0.193	0.148
-285.559	683.674	-0.056	0.144
-284.545	-68.256	-0.252	0.098
-283.530	-6.531	0.267	0.181
-282.516	-37.328	-0.204	-0.108
-281.501	-147.169	0.336	0.029
-280.486	800.000	0.081	-0.234
-279.472	800.000	0.065	-0.237
-278.457	350.503	-0.075	0.147
-277.443	-200.000	0.006	-0.189
-276.428	-70.841	0.145	0.055
-275.413	800.000	-0.004	0.013
-274.399	800.000	-0.030	0.103
-273.384	-200.000	0.021	0.349
-272.370	98.485	-0.070	0.080
-271.355	7.565	0.231	0.172
-270.340	-19.096	-0.114	0.070
-269.326	-106.921	-0.197	0.043
-268.311	146.614	-0.161	-0.216
-267.297	-172.766	-0.090	-0.003
-266.282	-200.000	0.023	-0.121
-265.267	215.923	0.041	0.065
-264.253	-200.000	-0.004	-0.099
-263.238	-128.845	-0.117	0.016
-262.224	56.603	0.104	0.101
-261.209	-200.000	-0.025	0.375
-260.195	-200.000	0.006	-0.382
-259.180	-200.000	0.055	-0.273
-258.165	-47.841	-0.327	-0.157
-257.151	-131.178	-0.347	-0.046
-256.136	-177.433	-0.106	0.003
-255.122	800.000	0.078	0.293
-254.107	361.848	0.123	-0.246
-253.092	193.581	0.183	-0.276
-252.078	800.000	0.044	0.145
-251.063	633.876	-0.067	0.168
-250.049	-95.231	-0.381	-0.102
-249.034	69.985	0.283	0.290
-248.019	-59.216	0.204	0.087
-247.005	-56.685	-0.249	0.109
-245.990	-200.000	-0.002	-0.033
-244.976	-61.078	-0.398	0.167
-243.961	800.000	-0.024	-0.083
-242.946	-48.771	0.347	-0.165
-241.932	252.348	-0.117	0.199
-240.917	-200.000	-0.079	0.392
-239.903	-166.928	0.275	0.011
-238.888	-137.881	-0.219	-0.024
-237.873	210.415	-0.134	-0.209
-236.859	75.819	-0.198	0.208
-235.844	225.494	-0.054	0.087
-234.830	-30.319	-0.330	-0.186
-233.815	25.272	-0.153	-0.126
-232.800	800.000	0.046	-0.194
-231.786	-78.137	-0.170	0.058
-230.771	22.426	-0.096	-0.078
-229.757	-200.000	-0.039	-0.335
-228.742	194.325	-0.078	0.117
-227.727	-200.000	0.039	0.195
-226.713	241.743	-0.152	-0.252
-225.698	-158.708	-0.410	0.023
-224.684	800.000	0.121	-0.384
-223.669	-122.776	0.183	0.029
-222.655	-160.387	-0.094	-0.005
-221.640	-89.663	-0.183	-0.053
-220.625	-91.564	0.070	-0.020
-219.611	-200.000	0.011	-0.407
-218.596	-99.463	-0.242	-0.060
-217.582	800.000	0.130	-0.386
-216.567	-25.098	-0.302	-0.178
-215.552	-163.451	0.366	0.017
-214.538	-21.213	-0.150	-0.091
-213.523	-60.013	0.128	-0.054
-212.509	543.067	0.128	0.303
-211.494	-200.000	0.002	-0.130
-210.479	154.999	0.037	-0.051
-209.465	800.000	0.047	0.170
-208.450	-52.198	0.146	-0.067
-207.436	275.258	-0.182	0.321
-206.421	-80.926	0.096	0.031
-205.406	158.674	0.229	-0.316
-204.392	-200.000	-0.038	-0.186
-203.377	-81.930	0.070	-0.023
-202.363	-127.402	-0.126	-0.018
-201.348	141.193	0.071	0.094
-200.333	12.101	-0.249	0.190
-199.319	317.072	0.109	0.205
-198.304	-58.269	-0.274	0.118
-197.290	-200.000	0.040	0.187
-196.275	-200.000	0.063	0.290
-195.260	-98.961	0.189	-0.048
-194.246	705.316	0.214	-0.561
-193.231	-119.394	0.481	-0.083
-192.217	-78.507	-0.146	0.050
-191.202	-119.867	-0.026	-0.004
-190.187	-50.289	0.155	-0.073
-189.173	-200.000	-0.007	0.337
-188.158	-200.000	0.001	0.042
-187.144	179.375	-0.098	0.142
-186.129	-200.000	-0.009	0.052
-185.114	-107.910	0.190	-0.041
-184.100	-62.602	0.337	-0.139
-183.085	-52.201	0.220	-0.101
-182.071	691.117	0.013	-0.033
-181.056	-200.000	-0.038	0.164
-180.042	32.053	0.342	-0.293
-179.027	-76.377	0.241	0.084
-178.012	262.122	0.106	-0.183
-176.998	-200.000	0.087	0.420
-175.983	470.391	0.040	-0.088
-174.969	-30.495	-0.136	-0.077
-173.954	-19.814	0.271	-0.166
-172.939	-79.564	-0.360	0.121
-171.925	-138.476	0.101	0.011
-170.910	-90.577	0.247	-0.071
-169.896	-200.000	-0.009	0.055
-168.881	-200.000	0.038	0.299
-167.866	134.837	0.133	0.171
-166.852	-200.000	-0.040	-0.178
-165.837	-45.600	-0.082	0.040
-164.823	800.000	-0.082	-0.319
-163.808	-125.471	-0.200	0.030
-162.793	-59.086	-0.393	0.168
-161.779	800.000	0.059	-0.235
-160.764	800.000	0.094	-0.300
-159.750	-175.721	-0.223	0.006
-158.735	-46.403	0.088	-0.043
-157.720	272.047	0.147	-0.258
-156.706	800.000	-0.031	-0.091
-155.691	-67.756	0.085	0.033
-154.677	-44.420	-0.096	0.048
-153.662	-83.986	0.046	0.015
-152.647	-33.987	-0.237	-0.129
-151.633	-82.883	0.096	0.031
-150.618	51.568	-0.068	-0.064
-149.604	535.563	-0.041	-0.095
-148.589	-44.364	-0.023	0.012
-147.574	-180.190	0.341	-0.007
-146.560	6.400	-0.041	-0.030
-145.545	285.064	0.038	0.067
-144.531	18.117	0.024	0.019
-143.516	92.688	-0.183	0.205
-142.502	-103.184	0.410	0.096
-141.487	175.947	-0.221	-0.318
-140.472	800.000	0.019	0.063
-139.458	645.324	0.016	0.041
-138.443	229.684	0.138	-0.223
-137.429	800.000	-0.083	0.269
-136.414	272.361	-0.225	0.393
-135.399	383.815	0.140	-0.285
-134.385	-200.000	0.011	0.058
-133.370	-105.005	0.291	-0.066
-132.356	140.133	0.145	0.189
-131.341	-98.865	-0.020	0.005
-130.326	-106.487	0.107	0.024
-129.312	-103.546	0.098	-0.023
-128.297	257.670	0.163	-0.278
-127.283	707.236	-0.058	-0.153
-126.268	-59.709	-0.219	0.093
-125.253	-176.243	-0.052	0.001
-124.239	-114.482	0.233	-0.044
-123.224	-2.745	0.121	-0.084
-122.210	408.859	0.172	-0.361
-121.195	-155.772	0.263	0.017
-120.180	-4.816	0.171	0.116
-119.166	109.253	0.151	0.179
-118.151	134.557	0.136	0.175
-117.137	401.388	-0.054	0.111
-116.122	35.787	-0.097	0.084
-115.107	520.555	-0.057	0.132
-114.093	335.852	0.158	0.303
-113.078	-200.000	0.021	0.166
-112.064	343.415	0.060	-0.117
-111.049	370.234	-0.063	-0.125
-110.034	-200.000	0.027	0.398
-109.020	-200.000	-0.010	0.337
-108.005	800.000	-0.032	-0.114
-106.991	800.000	-0.089	0.316
-105.976	800.000	0.065	0.279
-104.962	-88.030	-0.196	0.058
-103.947	800.000	-0.024	0.068
-102.932	-159.749	-0.262	0.014
-101.918	34.272	0.063	-0.054
-100.903	-102.317	-0.123	0.029
-99.889	-171.499	-0.061	0.002
-98.874	20.978	-0.131	0.105
-97.859	-68.710	0.205	0.078
-96.845	-200.000	0.009	0.140
-95.830	4.722	0.113	-0.082
-94.816	800.000	0.087	0.323
-93.801	312.672	-0.057	0.105
-92.786	-4.623	-0.121	-0.083
-91.772	-94.021	0.425	-0.115
-90.757	-61.903	-0.262	-0.108
-89.743	-160.733	0.276	0.014
-88.728	235.604	-0.190	-0.310
-87.713	-43.723	0.241	-0.120
-86.699	27.780	0.125	-0.104
-85.684	-141.696	-0.344	0.034
-84.670	-8.161	0.442	-0.294
-83.655	371.669	-0.036	-0.072
-82.640	124.690	0.120	-0.150
-81.626	147.031	-0.109	-0.145
-80.611	-125.634	-0.167	-0.025
-79.597	-138.704	0.042	0.005
-78.582	-81.080	-0.182	-0.059
-77.567	-106.834	-0.251	0.055
-76.553	290.275	0.142	0.255
-75.538	338.178	-0.173	0.332
-74.524	82.862	-0.115	-0.124
-73.509	-133.823	-0.137	-0.017
-72.494	-144.987	0.260	-0.023
-71.480	120.723	0.041	0.050
-70.465	800.000	-0.088	-0.280
-69.451	7.728	-0.289	-0.214
-68.436	-68.312	-0.181	-0.069
-67.422	800.000	0.023	-0.064
-66.407	373.036	-0.060	0.120
-65.392	23.281	-0.327	0.265
-64.378	-48.105	0.340	-0.162
-63.363	-33.577	0.147	-0.080
-62.349	-42.873	-0.190	0.095
-61.334	72.745	-0.745	-0.767
-60.319	211.116	0.302	0.468
-59.305	413.841	-0.549	-1.153
-58.290	236.248	0.577	0.943
-57.276	322.460	0.868	1.632
-56.261	-200.000	96.764	583.851
-55.246	559.419	1381.979	3292.960
-54.232	154.312	2577.295	3490.795
-53.217	115.947	2156.686	2605.078
-52.203	46.812	1615.525	1481.347
-51.188	38.554	1353.163	1190.783
-50.173	35.254	1310.638	1133.831
-49.159	58.213	1359.891	1315.130
-48.144	62.141	1378.250	1356.419
-47.130	38.926	1332.169	1174.345
-46.115	35.254	1314.381	1136.889
-45.100	35.101	1309.455	1131.683
-44.086	35.027	1307.182	1129.237
-43.071	34.874	1304.927	1126.340
-42.057	34.913	1303.035	1124.892
-41.042	34.999	1301.284	1123.841
-40.027	35.130	1299.425	1122.958
-39.013	34.973	1298.223	1120.957
-37.998	35.047	1296.094	1119.508
-36.984	35.026	1295.023	1118.416
-35.969	35.106	1293.025	1117.111
-34.954	35.127	1291.231	1115.637
-33.940	35.141	1289.541	1114.217
-32.925	35.159	1288.953	1113.769
-31.911	35.301	1287.081	1112.931
-30.896	35.221	1285.377	1110.953
-29.881	35.255	1283.909	1109.835
-28.867	35.239	1282.810	1108.747
-27.852	35.135	1281.617	1107.073
-26.838	35.202	1280.289	1106.266
-25.823	35.215	1278.789	1105.003
-24.809	35.089	1277.342	1102.984
-23.794	35.214	1276.134	1102.615
-22.779	35.221	1274.866	1101.515
-21.765	35.258	1273.068	1100.129
-20.750	35.092	1272.689	1098.806
-19.736	35.095	1271.014	1097.336
-18.721	35.094	1269.981	1096.391
-17.706	35.078	1269.024	1095.431
-16.692	35.010	1267.586	1093.759
-15.677	35.091	1266.515	1093.253
-14.663	35.075	1265.305	1092.074
-13.648	35.008	1264.185	1090.684
-12.633	34.972	1263.213	1089.596
-11.619	35.014	1262.593	1089.254
-10.604	35.037	1261.787	1088.646
-9.590	35.003	1260.686	1087.465
-8.575	35.015	1259.563	1086.517
-7.560	35.031	1258.610	1085.747
-6.546	34.977	1258.129	1084.982
-5.531	34.897	1257.189	1083.675
-4.517	35.111	1256.096	1083.898
-3.502	34.990	1255.320	1082.505
-2.487	35.028	1254.633	1082.080
-1.473	34.918	1250.482	1077.839
-0.458	33.081	1235.065	1054.269
0.556	29.697	1215.775	1010.627
1.571	25.451	1219.681	990.433
2.586	24.260	1234.310	995.579
3.600	23.408	1222.877	981.555
4.615	17.175	1151.152	891.300
5.629	7.475	1074.019	783.801
6.644	3.248	1053.175	748.022
7.659	2.788	1050.485	743.812
8.673	2.654	1049.372	742.309
9.688	2.562	1047.913	740.770
10.702	3.085	1045.889	741.797
11.717	8.878	1054.680	776.079
12.731	18.772	1069.174	835.014
13.746	24.740	1076.485	869.772
14.761	26.161	1078.329	878.099
15.775	26.286	1077.602	878.038
16.790	26.133	1076.728	876.504
17.804	26.011	1076.378	875.551
18.819	26.094	1076.379	875.877
19.834	26.200	1075.806	875.844
20.848	26.369	1075.381	876.243
21.863	26.339	1074.097	874.972
22.877	26.288	1073.934	874.517
23.892	26.165	1073.266	873.301
24.907	26.357	1072.493	873.523
25.921	26.252	1071.544	872.165
26.936	26.244	1070.176	870.937
27.950	26.185	1068.341	869.081
28.965	26.033	1066.995	867.180
29.980	26.253	1065.399	866.859
30.994	26.387	1064.590	866.767
32.009	26.333	1063.809	865.795
33.023	26.099	1062.630	863.640
34.038	26.259	1061.443	863.363
35.053	26.347	1061.337	863.620
36.067	26.215	1061.000	862.639
37.082	26.266	1060.549	862.441
38.096	26.585	1059.186	862.776
39.111	26.606	1058.095	861.912
40.126	26.521	1056.970	860.518
41.140	26.053	1055.245	856.812
42.155	25.882	1053.993	854.912
43.169	25.823	1053.395	854.071
44.184	25.734	1052.642	852.962
45.199	25.791	1051.495	852.227
46.213	25.876	1050.756	851.955
47.228	25.989	1050.361	852.091
48.242	26.070	1049.149	851.417
49.257	26.328	1048.519	852.046
50.271	26.316	1047.696	851.247
51.286	26.324	1047.173	850.781
52.301	26.360	1046.118	850.020
53.315	26.256	1045.218	848.726
54.330	26.164	1044.613	847.726
55.344	26.154	1043.484	846.689
56.359	26.071	1042.984	845.818
57.374	25.934	1042.101	844.383
58.388	26.037	1040.727	843.680
59.403	26.026	1040.109	843.054
60.417	25.772	1039.411	841.224
61.432	25.988	1038.880	841.728
62.447	25.940	1038.549	841.163
63.461	26.032	1037.216	840.437
64.476	26.003	1036.517	839.661
65.490	25.880	1035.778	838.415
66.505	25.910	1035.301	838.094
67.520	25.918	1034.312	837.256
68.534	25.745	1033.428	835.668
69.549	25.413	1032.225	833.079
70.563	25.415	1031.379	832.332
71.578	25.400	1030.244	831.275
72.593	25.280	1029.548	830.084
73.607	25.386	1029.141	830.172
74.622	25.795	1028.445	831.424
75.636	25.879	1028.093	831.456
76.651	25.599	1027.162	829.335
77.666	25.659	1026.268	828.820
78.680	25.756	1025.692	828.725
79.695	25.580	1025.707	827.855
80.709	25.920	1024.104	828.049
81.724	25.952	1023.581	827.700
82.739	26.033	1022.826	827.388
83.753	26.369	1022.184	828.337
84.768	26.586	1021.595	828.778
85.782	26.577	1020.862	828.072
86.797	26.501	1019.789	826.778
87.812	26.407	1018.522	825.251
88.826	26.481	1017.998	825.089
89.841	26.504	1017.418	824.651
90.855	26.598	1015.872	823.753
91.870	26.511	1015.197	822.738
92.884	26.428	1014.039	821.348
93.899	26.398	1012.852	820.178
94.914	26.432	1012.644	820.092
95.928	26.311	1011.484	818.534
96.943	26.044	1010.229	816.237
97.957	25.895	1008.843	814.370
98.972	25.932	1007.718	813.558
99.987	25.965	1007.350	813.337
101.001	26.340	1006.513	814.280
102.016	26.278	1005.889	813.422
103.030	26.117	1004.540	811.538
104.045	25.941	1003.903	810.160
105.060	25.918	1002.802	809.094
106.074	25.950	1002.262	808.732
107.089	26.465	1001.690	810.506
108.103	26.155	1000.667	808.221
109.118	26.093	999.300	806.767
110.133	25.942	998.660	805.505
111.147	25.736	997.411	803.505
112.162	25.762	996.251	802.617
113.176	25.855	996.297	802.999
114.191	25.855	995.386	802.193
115.206	25.484	994.471	799.735
116.220	25.510	993.524	799.015
117.235	25.684	992.603	798.979
118.249	25.523	991.866	797.602
119.264	25.456	991.300	796.778
120.279	25.553	990.445	796.448
121.293	25.551	989.792	795.844
122.308	25.702	988.618	795.497
123.322	25.612	987.686	794.281
124.337	25.337	986.435	791.991
125.352	25.001	984.720	789.066
126.366	24.916	984.334	788.310
127.381	25.672	983.953	791.259
128.395	26.116	983.480	792.762
129.410	26.283	982.303	792.476
130.424	26.136	981.846	791.392
131.439	26.263	980.848	791.074
132.454	26.205	979.971	790.044
133.468	26.071	979.391	788.922
134.483	26.194	978.696	788.828
135.497	26.360	977.917	788.853
136.512	26.342	977.200	788.130
137.527	26.529	976.011	787.911
138.541	26.520	975.091	787.059
139.556	26.468	974.650	786.412
140.570	26.624	973.941	786.445
141.585	26.572	972.815	785.243
142.600	26.552	971.765	784.238
143.614	26.659	971.155	784.141
144.629	26.773	970.323	783.890
145.643	26.510	969.110	781.705
146.658	26.330	967.853	779.846
147.673	26.460	966.563	779.298
148.687	26.312	965.522	777.753
149.702	26.095	965.158	776.457
150.716	26.174	964.308	776.046
151.731	26.267	963.296	775.560
152.746	26.629	962.500	776.403
153.760	26.633	962.142	776.064
154.775	26.734	961.288	775.739
155.789	26.565	960.606	774.394
156.804	26.488	959.709	773.273
157.819	26.599	959.061	773.157
158.833	26.851	958.380	773.615
159.848	26.677	957.368	771.988
160.862	26.478	956.144	770.087
161.877	26.511	955.699	769.801
162.892	26.647	954.136	769.054
163.906	26.669	952.533	767.786
164.921	26.520	951.949	766.615
165.935	26.616	951.224	766.371
166.950	26.653	950.404	765.798
167.964	26.579	949.327	764.550
168.979	26.467	948.143	763.056
169.994	26.291	947.865	762.024
171.008	26.534	947.236	762.476
172.023	26.723	946.007	762.214
173.037	26.540	945.558	761.014
174.052	26.304	944.914	759.437
175.067	26.357	943.874	758.754
176.081	26.341	943.605	758.405
177.096	26.397	942.825	757.947
178.110	26.061	942.057	755.852
179.125	25.805	941.117	753.960
180.140	25.802	941.024	753.805
181.154	26.157	940.381	754.712
182.169	26.420	940.403	755.760
183.183	26.632	940.050	756.295
184.198	26.467	938.849	754.572
185.213	26.459	937.881	753.697
186.227	26.643	937.498	754.089
187.242	26.581	937.096	753.438
188.256	26.664	936.358	753.123
189.271	26.689	935.891	752.788
190.286	26.319	934.498	750.064
191.300	25.609	933.553	746.295
192.315	24.769	931.774	741.327
193.329	24.701	931.434	740.709
194.344	25.680	932.066	745.202
195.359	26.310	931.250	747.090
196.373	26.463	931.031	747.478
197.388	26.372	930.402	746.533
198.402	26.521	929.703	746.522
199.417	26.563	929.166	746.195
200.432	26.243	928.160	744.004
201.446	26.026	927.761	742.727
202.461	26.050	927.114	742.241
203.475	25.215	925.184	737.199
204.490	24.658	923.351	733.390
205.504	25.356	923.976	736.684
206.519	26.002	924.379	739.592
207.534	26.194	923.533	739.634
208.548	26.536	923.455	740.908
209.563	26.300	922.262	738.920
210.577	26.219	922.116	738.407
211.592	26.651	921.679	739.755
212.607	26.639	920.902	739.019
213.621	26.702	920.260	738.696
214.636	26.623	919.813	737.950
215.650	26.639	918.808	737.142
216.665	26.772	917.949	736.931
217.680	26.666	917.714	736.245
218.694	26.296	915.919	733.238
219.709	26.102	915.316	731.905
220.723	26.342	915.625	733.059
221.738	26.491	914.747	732.894
222.753	26.453	914.136	732.186
223.767	26.590	913.659	732.296
224.782	26.817	913.510	733.030
225.796	26.861	912.759	732.537
226.811	26.210	910.873	728.335
227.826	25.564	909.545	724.609
228.840	25.706	909.513	725.090
229.855	25.766	908.675	724.599
230.869	25.478	907.420	722.377
231.884	25.808	907.810	723.950
232.899	26.506	907.920	726.777
233.913	26.258	907.462	725.350
234.928	26.268	906.841	724.829
235.942	26.374	905.919	724.454
236.957	26.049	904.976	722.335
237.972	25.998	904.232	721.473
238.986	26.062	904.085	721.549
240.001	26.075	903.392	720.984
241.015	26.254	903.038	721.350
242.030	26.424	902.485	721.524
243.045	26.528	902.029	721.512
244.059	26.457	901.564	720.789
245.074	26.541	900.430	720.154
246.088	26.233	899.588	718.192
247.103	26.421	899.531	718.831
248.117	26.933	899.509	720.786
249.132	27.208	899.634	721.912
250.147	27.239	898.632	721.167
251.161	27.315	898.625	721.402
252.176	27.464	897.424	720.964
253.190	27.518	896.839	720.642
254.205	27.633	896.421	720.698
255.220	27.449	896.297	719.806
256.234	27.244	895.376	718.194
257.249	27.201	894.729	717.442
258.263	27.221	893.733	716.659
259.278	27.346	893.097	716.576
260.293	27.539	892.554	716.837
261.307	27.391	892.202	715.908
262.322	27.160	891.103	714.059
263.336	26.409	889.004	709.367
264.351	25.473	887.244	704.236
265.366	25.456	887.548	704.348
266.380	26.685	887.810	709.307
267.395	27.076	887.609	710.614
268.409	27.021	886.616	709.540
269.424	27.213	885.862	709.626
270.439	27.118	885.826	709.163
271.453	27.154	885.274	708.796
272.468	27.386	884.918	709.355
273.482	27.421	884.520	709.106
274.497	27.043	882.978	706.341
275.512	26.512	882.971	704.205
276.526	26.953	882.844	705.757
277.541	27.245	882.096	706.230
278.555	27.034	880.932	704.417
279.570	26.951	880.242	703.483
280.585	27.025	879.945	703.470
281.599	27.086	878.975	702.866
282.614	26.454	877.983	699.568
283.628	26.392	877.127	698.588
284.643	26.803	876.930	699.954
285.657	26.424	876.135	697.796
286.672	26.002	875.260	695.409
287.687	26.661	875.687	698.230
288.701	26.806	874.572	697.837
289.716	26.439	873.700	695.667
290.730	26.383	872.794	694.670
291.745	26.308	871.891	693.604
292.760	26.359	872.258	694.028
293.774	27.427	872.504	698.262
294.789	27.748	872.271	699.243
295.803	27.686	871.864	698.619
296.818	27.785	871.177	698.383
297.833	27.390	869.710	695.635
298.847	27.195	869.248	694.463
299.862	27.484	869.138	695.416
300.876	27.678	868.928	695.925
301.891	27.596	868.113	694.898
302.906	27.318	866.778	692.710
303.920	27.336	866.922	692.833
304.935	27.767	866.479	694.055
305.949	27.613	865.868	692.921
306.964	27.474	865.269	691.851
307.979	27.583	864.352	691.473
308.993	27.841	864.714	692.680
310.008	27.965	863.793	692.351
311.022	27.710	862.638	690.398
312.037	27.367	862.840	689.201
313.052	27.213	861.507	687.491
314.066	26.206	859.740	682.219
315.081	25.858	859.629	680.756
316.095	26.913	859.848	684.852
317.110	27.214	859.486	685.641
318.125	26.383	857.954	681.230
319.139	25.356	856.617	676.241
320.154	25.488	856.274	676.406
321.168	26.418	856.389	679.937
322.183	27.036	856.738	682.477
323.197	27.240	856.405	682.918
324.212	27.537	855.816	683.502
325.227	27.449	855.416	682.791
326.241	27.194	854.925	681.382
327.256	27.270	854.140	680.982
328.270	27.174	853.430	679.996
329.285	26.822	852.972	678.256
330.300	26.767	851.668	676.953
331.314	27.034	851.277	677.578
332.329	27.479	851.049	678.997
333.343	27.684	851.144	679.777
334.358	27.615	850.830	679.207
335.373	27.540	850.280	678.430
336.387	27.788	850.624	679.568
337.402	27.913	850.552	679.915
338.416	27.848	849.832	679.036
339.431	28.054	849.568	679.532
340.446	28.232	849.310	679.929
341.460	28.087	848.761	678.888
342.475	27.929	847.692	677.387
343.489	27.955	847.489	677.263
344.504	28.355	847.465	678.667
345.519	28.383	847.192	678.493
346.533	28.356	846.672	677.913
347.548	28.597	845.815	678.058
348.562	28.474	845.273	677.110
349.577	28.298	844.525	675.800
350.592	28.325	844.181	675.567
351.606	28.345	843.377	674.936
352.621	28.262	842.469	673.845
353.635	28.100	842.058	672.861
354.650	27.536	840.189	669.238
355.665	26.399	839.210	664.226
356.679	26.717	838.960	665.136
357.694	27.321	838.171	666.663
358.708	27.346	837.464	666.133
359.723	27.750	837.769	667.798
360.738	28.123	837.282	668.714
361.752	28.077	836.788	668.094
362.767	28.517	836.741	669.603
363.781	28.523	836.375	669.272
364.796	28.777	836.049	669.878
365.810	28.787	835.406	669.340
366.825	28.807	834.683	668.776
367.840	28.380	834.475	666.995
368.854	27.996	833.272	664.580
369.869	27.951	832.631	663.843
370.883	28.171	832.422	664.419
371.898	27.950	832.512	663.629
372.913	28.036	831.928	663.415
373.927	28.057	831.946	663.448
374.942	28.312	831.218	663.733
375.956	28.502	830.733	663.974
376.971	28.772	829.985	664.297
377.986	28.666	830.062	663.916
379.000	28.619	829.426	663.178
380.015	28.384	828.600	661.612
381.029	28.496	828.147	661.593
382.044	28.693	827.391	661.642
383.059	28.741	827.206	661.607
384.073	28.719	826.752	661.108
385.088	28.809	825.890	660.681
386.102	28.560	824.852	658.900
387.117	28.431	824.026	657.720
388.132	28.128	823.389	656.066
389.146	27.676	822.585	653.747
390.161	28.085	822.505	655.093
391.175	28.375	822.440	656.021
392.190	28.052	821.093	653.733
393.205	26.752	819.135	647.476
394.219	25.232	817.298	640.544
395.234	25.064	817.097	639.732
396.248	26.832	818.346	646.966
397.263	28.256	819.185	652.653
398.278	28.133	819.057	652.056
399.292	27.889	818.325	650.545
400.307	27.921	817.610	650.034
401.321	28.082	817.709	650.625
402.336	28.421	817.258	651.416
403.350	28.843	817.344	652.925
404.365	29.047	817.264	653.528
405.380	29.500	816.520	654.481
406.394	29.558	815.996	654.212
407.409	29.500	815.453	653.511
408.423	29.410	815.263	652.982
409.438	29.407	814.810	652.551
410.453	29.505	814.776	652.812
411.467	29.535	814.025	652.261
412.482	29.373	813.621	651.306
413.496	29.442	813.660	651.524
414.511	29.421	812.827	650.724
415.526	29.694	812.161	651.098
416.540	29.347	811.700	649.448
417.555	28.865	811.119	647.228
418.569	29.062	810.549	647.409
419.584	29.125	810.268	647.349
420.599	28.921	809.470	645.936
421.613	108.660	1283.070	1442.770
422.628	93.914	1352.064	1442.880
