DTS Sentinel unit serial number:	SN413079Multiplexer serial number:	ORYXHardware model number:	OX4-SRSoftware version number:	ORYX F/W v4.00 Oryx Data Collector v3.7.2.0data status	okinstallation	princeton_trtdifferential loss correction	single-endedforward channel	channel 1reverse channel	N/Adate	2019/09/12time	02:36:11forward acquisition time	60.00reverse acquisition time	0.00gamma	496.2192k internal	0.2322k external	0.2322temperature offset calibration	1.0081default loss term (dB/km)	0.3790temperature slope calibration	1.0000multiplexer offset coefficient	1.0000multiplexer slope coefficient	1.0000fibre end	0.00T internal ref (°C)	32.44T ext. ref 1 (°C)	2.09T ext. ref 2 (°C)	27.22length (m)	temperature (°C)	Stokes	anti-Stokes-747.200	210.952	-0.101	-0.160
-746.185	-147.679	-0.105	-0.009
-745.171	436.598	-0.151	0.332
-744.156	108.301	-0.202	-0.243
-743.142	18.913	0.322	-0.261
-742.127	800.000	-0.050	0.203
-741.112	99.567	0.163	-0.191
-740.098	-200.000	-0.016	0.269
-739.083	-33.717	-0.036	0.020
-738.069	331.597	-0.158	0.307
-737.054	-131.289	-0.046	-0.006
-736.039	92.271	-0.322	0.366
-735.025	-200.000	-0.022	0.343
-734.010	89.751	-0.079	-0.089
-732.996	800.000	-0.115	-0.330
-731.981	-49.879	0.176	-0.084
-730.966	-108.107	-0.111	-0.024
-729.952	-136.025	0.158	-0.019
-728.937	52.089	0.021	0.020
-727.923	-113.869	-0.058	-0.011
-726.908	-36.071	0.116	0.063
-725.894	-87.314	-0.133	0.041
-724.879	336.981	0.039	0.077
-723.864	-33.490	-0.454	0.253
-722.850	-200.000	-0.049	0.367
-721.835	-171.236	0.067	-0.002
-720.821	-62.352	-0.152	0.064
-719.806	-23.126	-0.261	0.159
-718.791	-200.000	-0.010	0.088
-717.777	154.916	0.204	0.283
-716.762	-82.851	0.180	-0.059
-715.748	800.000	0.128	-0.416
-714.733	-200.000	-0.027	-0.251
-713.718	145.183	-0.015	0.021
-712.704	-108.858	-0.200	-0.043
-711.689	685.742	0.072	0.190
-710.675	173.702	-0.281	-0.409
-709.660	-118.798	0.133	0.024
-708.645	-80.120	-0.354	0.120
-707.631	-97.301	0.059	-0.016
-706.616	110.406	0.206	-0.250
-705.602	-200.000	-0.024	-0.137
-704.587	7.299	0.139	-0.104
-703.572	-200.000	-0.018	0.411
-702.558	800.000	0.015	0.048
-701.543	63.499	0.072	-0.073
-700.529	-31.531	-0.072	0.041
-699.514	139.524	-0.166	-0.221
-698.499	-111.794	0.212	-0.043
-697.485	559.401	0.159	0.388
-696.470	-109.334	0.295	-0.063
-695.456	9.778	-0.150	0.115
-694.441	-200.000	-0.011	-0.193
-693.426	286.320	0.142	-0.259
-692.412	-200.000	0.004	-0.080
-691.397	-127.082	0.185	-0.027
-690.383	-39.259	0.307	0.163
-689.368	21.006	0.107	-0.088
-688.354	233.570	-0.084	-0.139
-687.339	227.985	-0.065	-0.107
-686.324	-200.000	-0.347	-0.001
-685.310	-200.000	0.001	-0.081
-684.295	783.347	0.098	-0.272
-683.281	8.986	0.198	0.150
-682.266	253.147	0.020	0.034
-681.251	-95.328	-0.125	-0.034
-680.237	240.348	0.038	0.063
-679.222	-6.810	-0.329	-0.225
-678.208	124.488	0.114	0.144
-677.193	309.519	0.140	0.263
-676.178	800.000	-0.138	-0.403
-675.164	29.833	0.081	0.070
-674.149	203.013	-0.049	0.076
-673.135	154.406	0.022	-0.031
-672.120	205.260	-0.047	0.073
-671.105	-93.099	0.163	0.046
-670.091	192.399	-0.068	0.103
-669.076	-18.751	-0.364	-0.228
-668.062	-40.849	-0.085	-0.045
-667.047	420.834	0.057	0.123
-666.032	-88.876	-0.227	0.068
-665.018	194.558	-0.194	-0.296
-664.003	191.549	0.222	0.336
-662.989	-200.000	-0.036	0.196
-661.974	800.000	0.041	-0.126
-660.959	-75.604	-0.093	0.033
-659.945	-45.120	-0.154	-0.077
-658.930	-118.266	-0.204	0.037
-657.916	-101.218	0.219	0.054
-656.901	308.669	-0.136	0.256
-655.886	800.000	-0.032	-0.103
-654.872	-84.581	0.286	0.091
-653.857	-81.581	-0.161	-0.053
-652.843	-200.000	-0.002	0.122
-651.828	491.221	0.075	-0.172
-650.814	0.624	0.157	0.113
-649.799	-40.733	0.329	-0.172
-648.784	-106.561	-0.421	-0.095
-647.770	92.308	-0.280	0.318
-646.755	-200.000	-0.027	-0.149
-645.741	26.007	0.047	0.040
-644.726	653.296	-0.049	0.127
-643.711	156.537	0.168	0.233
-642.697	-168.085	0.228	-0.009
-641.682	-200.000	0.039	0.405
-640.668	4.236	0.125	-0.092
-639.653	-160.914	0.304	0.016
-638.638	381.570	-0.056	-0.115
-637.624	-200.000	-0.014	0.095
-636.609	800.000	0.079	-0.223
-635.595	430.466	-0.058	-0.127
-634.580	800.000	-0.133	-0.543
-633.565	-46.592	-0.312	-0.154
-632.551	-77.408	0.221	0.077
-631.536	-67.196	0.199	-0.079
-630.522	-101.478	-0.350	-0.086
-629.507	-200.000	0.014	0.202
-628.492	-200.000	-0.003	-0.335
-627.478	31.730	0.042	0.037
-626.463	-200.000	0.024	0.223
-625.449	69.059	0.174	-0.180
-624.434	39.621	-0.144	-0.130
-623.419	-59.719	0.104	0.045
-622.405	69.394	-0.074	-0.077
-621.390	223.470	-0.186	-0.301
-620.376	-200.000	0.024	-0.325
-619.361	-200.000	-0.007	0.436
-618.346	800.000	-0.044	-0.154
-617.332	-114.530	0.130	0.025
-616.317	352.659	0.137	0.273
-615.303	-127.063	0.191	-0.028
-614.288	-18.136	0.085	0.054
-613.273	-57.681	-0.414	0.182
-612.259	-59.638	-0.090	0.039
-611.244	800.000	-0.122	0.379
-610.230	294.798	0.094	-0.173
-609.215	-75.568	0.117	0.042
-608.201	-89.502	-0.071	0.021
-607.186	265.906	0.112	-0.197
-606.171	78.349	0.187	0.201
-605.157	-7.392	0.135	0.092
-604.142	-8.554	-0.110	0.075
-603.128	-57.000	-0.064	0.028
-602.113	-53.191	0.203	0.094
-601.098	-105.564	-0.260	0.059
-600.084	-106.809	-0.194	-0.043
-599.069	347.742	-0.043	-0.085
-598.055	800.000	-0.113	0.352
-597.040	304.017	0.123	0.229
-596.025	-200.000	-0.251	0.001
-595.011	-47.525	0.091	0.045
-593.996	17.318	-0.212	0.169
-592.982	246.075	-0.245	-0.415
-591.967	-200.000	0.010	0.060
-590.952	3.251	0.094	0.069
-589.938	263.929	0.016	0.029
-588.923	-14.469	-0.098	0.064
-587.909	-200.000	0.019	-0.128
-586.894	-73.619	0.052	-0.019
-585.879	800.000	-0.053	0.153
-584.865	389.634	-0.077	0.161
-583.850	-49.555	-0.103	0.049
-582.836	185.194	-0.108	0.161
-581.821	245.888	0.061	0.104
-580.806	-200.000	0.007	-0.213
-579.792	80.592	-0.179	-0.193
-578.777	-102.041	-0.418	-0.101
-577.763	96.420	-0.077	-0.089
-576.748	-88.519	-0.071	-0.021
-575.733	-161.396	-0.041	-0.002
-574.719	-15.759	-0.160	-0.102
-573.704	-3.049	-0.418	0.292
-572.690	-1.887	-0.168	0.118
-571.675	183.282	-0.219	0.325
-570.661	-121.915	-0.283	-0.047
-569.646	71.967	-0.134	0.140
-568.631	-162.709	-0.186	0.009
-567.617	-156.824	0.128	-0.008
-566.602	256.522	-0.175	-0.302
-565.588	225.823	-0.171	0.279
-564.573	524.928	-0.026	-0.060
-563.558	-95.435	0.240	-0.065
-562.544	612.671	-0.104	-0.262
-561.529	50.485	0.199	0.189
-560.515	-68.320	-0.218	-0.085
-559.500	21.099	0.212	0.172
-558.485	-79.201	0.158	-0.054
-557.471	800.000	0.062	0.206
-556.456	-22.526	0.049	-0.030
-555.442	386.519	-0.096	0.199
-554.427	13.942	0.199	0.155
-553.412	-200.000	-0.011	-0.391
-552.398	170.173	0.089	-0.127
-551.383	140.283	0.074	0.098
-550.369	-157.345	-0.163	-0.010
-549.354	134.781	-0.156	-0.203
-548.339	208.812	0.073	0.115
-547.325	108.518	0.329	-0.393
-546.310	608.100	0.112	0.280
-545.296	-41.941	0.336	0.173
-544.281	-18.150	0.050	-0.031
-543.266	-155.445	-0.218	-0.014
-542.252	-170.208	-0.136	0.005
-541.237	800.000	-0.133	0.490
-540.223	-37.404	0.078	-0.042
-539.208	47.497	0.372	-0.347
-538.193	-43.058	-0.186	-0.095
-537.179	-200.000	0.007	-0.096
-536.164	-37.675	-0.337	0.180
-535.150	775.448	0.107	0.292
-534.135	-137.507	0.248	0.028
-533.121	211.893	0.154	0.243
-532.106	-74.385	-0.279	-0.101
-531.091	32.046	-0.439	-0.380
-530.077	-116.949	-0.161	-0.029
-529.062	-200.000	0.014	-0.241
-528.048	-87.259	0.128	0.039
-527.033	-81.016	0.102	0.034
-526.018	91.943	-0.158	-0.179
-525.004	25.537	-0.177	0.148
-523.989	102.920	-0.232	0.272
-522.975	800.000	-0.010	-0.042
-521.960	145.824	0.017	0.023
-520.945	320.638	-0.159	-0.303
-519.931	-200.000	0.016	0.156
-518.916	61.044	0.103	-0.103
-517.902	9.025	-0.290	0.219
-516.887	197.769	0.246	0.377
-515.872	70.296	0.166	0.171
-514.858	-78.521	-0.048	-0.017
-513.843	-45.261	0.193	-0.096
-512.829	640.710	0.125	-0.319
-511.814	791.827	0.164	-0.452
-510.799	800.000	-0.031	0.107
-509.785	-200.000	-0.042	-0.201
-508.770	43.290	0.313	0.286
-507.756	18.340	0.282	-0.225
-506.741	800.000	0.018	0.062
-505.726	-200.000	-0.017	0.097
-504.712	-68.424	0.138	0.054
-503.697	36.231	-0.144	-0.127
-502.683	-1.052	-0.151	0.107
-501.668	-200.000	-0.007	0.212
-500.653	62.910	0.033	0.033
-499.639	-200.000	-0.019	-0.103
-498.624	347.813	0.151	-0.298
-497.610	-200.000	-0.046	-0.416
-496.595	170.623	0.057	0.082
-495.581	-200.000	0.015	-0.092
-494.566	-34.283	0.106	-0.058
-493.551	-115.379	-0.310	-0.059
-492.537	-200.000	-0.052	0.262
-491.522	373.485	-0.107	0.217
-490.508	40.084	-0.138	0.124
-489.493	419.779	-0.146	-0.313
-488.478	191.225	0.071	0.107
-487.464	653.279	-0.074	0.190
-486.449	3.921	0.080	-0.058
-485.435	103.430	-0.188	0.221
-484.420	-200.000	-0.021	0.132
-483.405	455.686	0.084	0.187
-482.391	-154.343	-0.079	0.005
-481.376	-46.362	0.257	0.126
-480.362	-174.905	-0.553	0.016
-479.347	-200.000	-0.011	0.065
-478.332	-46.271	0.533	0.262
-477.318	151.951	-0.247	0.337
-476.303	0.078	0.123	-0.088
-475.289	-200.000	-0.016	-0.196
-474.274	312.772	-0.060	-0.112
-473.259	-200.000	-0.066	0.323
-472.245	682.161	-0.146	-0.381
-471.230	-200.000	-0.007	-0.329
-470.216	-200.000	-0.014	0.102
-469.201	-45.373	0.253	-0.126
-468.186	-200.000	-0.039	-0.269
-467.172	-117.738	0.182	0.033
-466.157	-200.000	-0.020	0.283
-465.143	-65.744	0.425	0.170
-464.128	461.491	0.080	-0.177
-463.113	346.025	0.031	-0.061
-462.099	-188.547	0.075	-0.001
-461.084	-135.244	0.159	0.019
-460.070	800.000	-0.083	-0.271
-459.055	-95.033	0.166	-0.045
-458.040	-200.000	0.000	-0.128
-457.026	-56.346	0.115	-0.051
-456.011	457.717	-0.124	-0.275
-454.997	800.000	-0.053	-0.178
-453.982	800.000	0.060	-0.171
-452.968	173.340	0.081	-0.117
-451.953	2.152	0.179	0.129
-450.938	-164.661	-0.166	-0.007
-449.924	-99.677	-0.213	0.053
-448.909	-163.531	-0.168	0.008
-447.895	243.802	0.157	0.264
-446.880	800.000	0.043	-0.127
-445.865	22.375	0.084	-0.069
-444.851	22.437	0.199	0.163
-443.836	-200.000	-0.018	0.344
-442.822	-130.214	-0.215	-0.029
-441.807	800.000	0.082	0.260
-440.792	51.481	-0.237	-0.225
-439.778	-45.523	0.271	-0.134
-438.763	267.388	0.083	0.146
-437.749	800.000	-0.033	0.122
-436.734	44.852	0.218	-0.201
-435.719	16.274	0.232	0.183
-434.705	64.578	-0.125	0.125
-433.690	-13.053	0.112	-0.073
-432.676	-52.716	0.188	-0.087
-431.661	-19.234	0.208	-0.129
-430.646	-121.962	0.165	0.027
-429.632	-21.286	0.256	0.156
-428.617	-101.201	-0.248	0.061
-427.603	-109.895	-0.054	0.011
-426.588	245.737	-0.006	-0.009
-425.573	-27.859	-0.175	0.101
-424.559	-42.624	-0.176	0.089
-423.544	152.740	0.304	0.415
-422.530	-200.000	0.085	0.421
-421.515	595.333	-0.113	-0.279
-420.500	441.751	-0.041	0.090
-419.486	-91.959	-0.324	0.091
-418.471	-3.175	-0.112	-0.078
-417.457	6.114	0.158	-0.117
-416.442	7.732	0.113	-0.085
-415.428	-85.769	0.114	0.035
-414.413	800.000	-0.106	0.293
-413.398	-140.504	0.254	-0.026
-412.384	-83.050	-0.400	0.128
-411.369	79.867	-0.157	0.169
-410.355	-200.000	0.080	0.551
-409.340	-52.244	0.312	-0.144
-408.325	-200.000	0.005	-0.182
-407.311	-173.053	0.423	0.013
-406.296	106.576	-0.081	0.095
-405.282	278.358	-0.046	-0.082
-404.267	226.472	-0.078	0.126
-403.252	-200.000	-0.049	-0.350
-402.238	-200.000	-0.063	0.315
-401.223	-11.433	-0.327	-0.215
-400.209	-200.000	0.001	-0.019
-399.194	46.996	-0.338	0.314
-398.179	75.866	0.343	0.361
-397.165	800.000	0.007	-0.029
-396.150	-31.395	0.097	0.054
-395.136	194.733	-0.105	-0.159
-394.121	-19.588	0.154	-0.095
-393.106	800.000	0.077	-0.251
-392.092	14.573	-0.157	-0.122
-391.077	256.485	-0.256	-0.439
-390.063	-200.000	0.025	-0.210
-389.048	800.000	0.076	-0.245
-388.033	413.321	-0.086	0.183
-387.019	508.988	-0.081	-0.188
-386.004	48.644	0.156	-0.146
-384.990	-197.391	0.340	-0.002
-383.975	-60.161	0.113	-0.048
-382.960	19.903	-0.151	-0.121
-381.946	-200.000	-0.035	-0.289
-380.931	-184.444	-0.432	-0.007
-379.917	-47.499	-0.072	-0.035
-378.902	-200.000	0.037	0.353
-377.888	-200.000	0.073	0.343
-376.873	-129.968	-0.274	-0.037
-375.858	-88.641	0.247	-0.073
-374.844	208.005	0.057	-0.088
-373.829	-200.000	0.051	0.318
-372.815	-30.292	0.146	0.083
-371.800	-200.000	-0.008	-0.303
-370.785	-95.413	0.168	0.045
-369.771	287.735	-0.153	0.275
-368.756	-51.454	0.062	0.029
-367.742	340.805	-0.151	-0.294
-366.727	71.982	-0.275	-0.285
-365.712	-80.372	-0.272	0.091
-364.698	112.457	-0.207	-0.249
-363.683	306.673	-0.022	0.041
-362.669	42.474	0.135	-0.122
-361.654	82.239	0.156	-0.168
-360.639	316.605	-0.107	0.202
-359.625	-13.305	0.269	0.174
-358.610	-176.791	0.168	0.004
-357.596	47.854	0.117	-0.108
-356.581	-200.000	-0.028	0.230
-355.566	79.307	-0.114	-0.121
-354.552	-49.587	0.135	-0.064
-353.537	-45.663	-0.185	-0.091
-352.523	-200.000	-0.028	-0.433
-351.508	-136.240	0.169	-0.020
-350.493	-200.000	0.030	0.191
-349.479	-120.682	0.024	-0.004
-348.464	-200.000	0.191	-0.001
-347.450	-26.603	-0.140	0.082
-346.435	699.246	-0.067	-0.176
-345.420	-64.008	-0.258	0.105
-344.406	-200.000	0.002	0.567
-343.391	800.000	0.058	-0.203
-342.377	800.000	0.078	-0.295
-341.362	-106.269	-0.057	0.013
-340.348	108.936	0.137	0.163
-339.333	457.425	0.060	0.133
-338.318	110.843	-0.188	-0.225
-337.304	1.955	-0.374	-0.269
-336.289	800.000	-0.028	-0.084
-335.275	477.508	0.185	-0.416
-334.260	59.767	0.176	-0.173
-333.245	-66.336	0.097	-0.038
-332.231	-105.278	-0.241	-0.055
-331.216	1.855	0.129	-0.093
-330.202	77.011	0.157	0.166
-329.187	164.806	0.169	-0.237
-328.172	-200.000	0.053	-0.319
-327.158	198.525	-0.076	0.116
-326.143	-14.207	0.105	0.067
-325.129	-161.174	0.322	0.017
-324.114	397.836	0.092	0.192
-323.099	29.458	-0.131	-0.111
-322.085	518.699	0.100	-0.232
-321.070	-24.829	-0.421	-0.248
-320.056	137.128	-0.145	-0.188
-319.041	7.853	0.158	0.118
-318.026	-121.786	0.092	-0.015
-317.012	-126.209	-0.104	-0.015
-315.997	11.276	0.176	0.134
-314.983	406.842	-0.056	-0.117
-313.968	2.492	0.107	0.077
-312.953	173.889	-0.012	-0.017
-311.939	214.720	0.178	0.280
-310.924	63.334	0.135	-0.135
-309.910	161.861	-0.099	-0.138
-308.895	330.133	-0.142	0.271
-307.880	-27.904	0.140	0.080
-306.866	-92.033	-0.336	0.095
-305.851	317.354	0.056	0.105
-304.837	-139.146	0.070	-0.007
-303.822	394.135	0.095	0.196
-302.807	-32.910	0.095	-0.052
-301.793	18.221	-0.200	-0.159
-300.778	-34.984	0.180	0.098
-299.764	-130.018	-0.219	-0.030
-298.749	800.000	0.104	-0.410
-297.735	-100.093	0.155	-0.038
-296.720	-200.000	-0.020	0.179
-295.705	786.822	-0.100	-0.272
-294.691	-200.000	0.056	-0.318
-293.676	69.716	-0.153	0.157
-292.662	4.314	0.196	0.143
-291.647	551.866	-0.011	-0.026
-290.632	-200.000	0.008	-0.174
-289.618	-200.000	0.015	-0.124
-288.603	-200.000	0.010	0.257
-287.589	403.577	-0.169	0.352
-286.574	-99.979	0.149	-0.037
-285.559	-200.000	0.056	-0.408
-284.545	-7.871	0.078	0.052
-283.530	800.000	0.013	0.057
-282.516	-196.435	-0.449	-0.003
-281.501	295.910	-0.074	-0.135
-280.486	800.000	-0.062	-0.198
-279.472	223.820	0.032	0.052
-278.457	49.050	0.138	-0.129
-277.443	-166.404	0.081	0.003
-276.428	800.000	-0.036	0.150
-275.413	-69.983	0.290	0.110
-274.399	-200.000	-0.034	-0.187
-273.384	-200.000	0.045	-0.216
-272.370	-68.502	-0.268	-0.103
-271.355	552.281	-0.095	0.227
-270.340	239.308	-0.068	-0.113
-269.326	-200.000	0.031	0.226
-268.311	162.437	-0.122	-0.170
-267.297	372.635	0.011	0.021
-266.282	-63.044	0.109	-0.045
-265.267	-96.884	-0.141	0.037
-264.253	-60.951	0.197	-0.082
-263.238	-200.000	0.002	-0.140
-262.224	-112.524	0.054	0.011
-261.209	479.675	0.053	-0.118
-260.195	32.103	-0.275	-0.235
-259.180	97.802	-0.213	0.242
-258.165	-200.000	-0.050	-0.238
-257.151	-200.000	-0.065	-0.518
-256.136	-200.000	0.004	0.017
-255.122	3.303	-0.208	0.150
-254.107	384.152	0.128	0.261
-253.092	-23.714	-0.164	-0.097
-252.078	113.421	0.128	0.154
-251.063	-200.000	0.065	-0.307
-250.049	-183.072	0.207	0.004
-249.034	-71.213	-0.260	-0.097
-248.019	-104.096	0.195	0.045
-247.005	114.184	-0.180	-0.217
-245.990	-129.919	0.267	-0.036
-244.976	349.944	0.031	0.062
-243.961	-200.000	0.017	0.202
-242.946	-108.508	0.149	-0.032
-241.932	-144.224	-0.182	-0.017
-240.917	335.073	0.088	-0.168
-239.903	-67.594	0.129	-0.050
-238.888	-200.000	-0.003	-0.148
-237.873	47.339	-0.134	-0.124
-236.859	-19.296	-0.054	0.033
-235.844	-200.000	-0.008	0.372
-234.830	800.000	-0.025	0.097
-233.815	800.000	-0.044	0.142
-232.800	-200.000	0.002	0.179
-231.786	51.937	-0.119	0.112
-230.771	-200.000	0.058	-0.308
-229.757	-98.583	0.370	-0.094
-228.742	183.504	-0.132	-0.194
-227.727	-200.000	0.010	0.046
-226.713	800.000	-0.035	0.122
-225.698	314.148	-0.120	-0.223
-224.684	-200.000	0.009	0.392
-223.669	-109.130	0.298	-0.063
-222.655	-13.632	-0.157	0.101
-221.640	344.794	-0.062	-0.121
-220.625	-200.000	-0.034	0.186
-219.611	-161.670	0.186	0.009
-218.596	-87.243	0.262	0.079
-217.582	388.306	0.073	-0.149
-216.567	602.810	-0.127	0.313
-215.552	13.765	0.304	0.234
-214.538	297.192	0.146	0.265
-213.523	112.304	-0.286	-0.342
-212.509	-35.251	-0.161	-0.087
-211.494	-35.495	-0.251	-0.135
-210.479	800.000	0.008	-0.022
-209.465	-107.244	0.395	-0.086
-208.450	800.000	0.039	0.121
-207.436	-116.437	0.480	-0.088
-206.421	-102.353	-0.434	0.103
-205.406	501.567	0.092	-0.209
-204.392	-11.686	0.210	-0.137
-203.377	-32.387	0.190	-0.105
-202.363	800.000	-0.091	0.261
-201.348	205.221	-0.254	0.389
-200.333	83.569	0.274	-0.296
-199.319	333.853	-0.161	-0.309
-198.304	-11.176	-0.217	0.142
-197.290	-200.000	0.004	0.116
-196.275	258.453	0.121	0.207
-195.260	800.000	-0.028	-0.102
-194.246	-68.555	0.232	0.089
-193.231	17.639	0.214	-0.169
-192.217	-136.634	-0.304	0.035
-191.202	-40.476	0.117	0.060
-190.187	35.837	0.207	0.180
-189.173	-162.242	-0.097	-0.005
-188.158	674.368	0.050	0.129
-187.144	-200.000	0.044	0.254
-186.129	-55.590	0.053	-0.023
-185.114	-200.000	-0.046	0.312
-184.100	661.389	0.105	0.268
-183.085	-147.798	0.301	0.025
-182.071	-200.000	-0.039	0.282
-181.056	513.308	-0.052	0.119
-180.042	-200.000	-0.010	-0.109
-179.027	-88.654	0.200	-0.059
-178.012	142.497	-0.165	0.216
-176.998	211.252	0.073	0.113
-175.983	-200.000	0.036	0.258
-174.969	-111.528	-0.090	-0.018
-173.954	-28.798	-0.226	0.128
-172.939	-82.207	-0.359	0.115
-171.925	172.470	-0.194	-0.276
-170.910	-87.968	0.261	0.078
-169.896	-3.150	0.240	0.165
-168.881	-2.916	-0.284	0.196
-167.866	-141.855	0.081	-0.008
-166.852	162.055	0.251	-0.347
-165.837	800.000	0.099	-0.290
-164.823	313.574	0.079	0.148
-163.808	43.055	0.259	-0.234
-162.793	-144.470	-0.051	-0.005
-161.779	-42.235	0.148	-0.075
-160.764	-37.139	-0.277	0.147
-159.750	800.000	0.062	0.188
-158.735	-200.000	0.006	0.050
-157.720	-69.899	-0.142	0.054
-156.706	78.811	0.164	-0.173
-155.691	181.977	-0.126	-0.183
-154.677	-20.036	0.250	0.152
-153.662	-77.666	-0.343	0.117
-152.647	-74.899	-0.217	-0.077
-151.633	800.000	0.029	-0.114
-150.618	107.022	0.248	0.291
-149.604	-129.571	-0.129	-0.018
-148.589	312.873	0.087	-0.162
-147.574	546.326	0.097	-0.229
-146.560	-47.549	0.382	0.183
-145.545	800.000	0.052	0.213
-144.531	-155.911	0.287	-0.018
-143.516	-200.000	0.029	-0.127
-142.502	48.375	0.130	-0.120
-141.487	79.676	0.077	-0.082
-140.472	102.483	-0.133	0.154
-139.458	27.245	0.148	-0.123
-138.443	800.000	-0.073	0.206
-137.429	-99.522	0.022	-0.005
-136.414	-42.771	-0.226	0.114
-135.399	265.936	0.071	0.122
-134.385	-163.682	0.094	0.004
-133.370	-103.412	0.366	-0.085
-132.356	218.661	0.042	-0.066
-131.341	370.068	0.134	-0.267
-130.326	449.539	0.066	0.143
-129.312	-26.081	0.196	0.113
-128.297	-93.256	0.105	-0.029
-127.283	616.244	0.054	-0.133
-126.268	24.892	0.153	0.125
-125.253	2.260	-0.249	0.177
-124.239	800.000	0.012	0.037
-123.224	-200.000	-0.016	0.242
-122.210	154.712	-0.082	-0.111
-121.195	222.730	0.170	0.271
-120.180	-112.155	-0.274	-0.054
-119.166	26.031	-0.061	0.050
-118.151	-43.454	0.182	0.091
-117.137	-127.167	-0.193	0.028
-116.122	-178.727	0.325	-0.007
-115.107	-69.643	-0.440	-0.166
-114.093	-91.722	0.098	-0.027
-113.078	678.267	0.033	0.086
-112.064	-33.053	-0.144	-0.079
-111.049	-67.421	-0.245	0.095
-110.034	177.288	0.197	-0.283
-109.020	-40.539	-0.204	-0.104
-108.005	90.299	0.180	-0.199
-106.991	-99.730	-0.232	0.057
-105.976	-200.000	0.055	-0.325
-104.962	-137.923	0.389	-0.043
-103.947	147.068	0.128	0.169
-102.932	24.861	-0.119	-0.097
-101.918	-168.505	0.302	0.011
-100.903	122.083	0.118	0.145
-99.889	-54.794	0.007	-0.003
-98.874	58.373	-0.044	0.043
-97.859	-200.000	0.008	0.256
-96.845	674.893	0.036	-0.092
-95.830	-156.415	0.288	0.018
-94.816	101.036	0.109	0.125
-93.801	-144.908	-0.240	0.022
-92.786	211.675	0.228	-0.354
-91.772	102.507	-0.054	0.062
-90.757	-160.641	0.319	0.017
-89.743	399.593	0.152	-0.314
-88.728	142.129	-0.147	-0.192
-87.713	561.969	0.044	-0.104
-86.699	-77.192	-0.371	-0.127
-85.684	62.191	-0.032	-0.031
-84.670	-27.630	0.120	-0.069
-83.655	-200.000	-0.027	-0.299
-82.640	-126.373	-0.196	-0.029
-81.626	355.620	0.089	0.174
-80.611	-8.469	0.188	-0.124
-79.597	281.591	0.127	-0.224
-78.582	-200.000	0.004	-0.051
-77.567	152.638	-0.180	0.241
-76.553	205.397	-0.090	-0.137
-75.538	800.000	-0.119	-0.402
-74.524	13.404	-0.060	0.046
-73.509	-200.000	0.004	-0.018
-72.494	259.815	0.010	-0.016
-71.480	-200.000	-0.077	-0.363
-70.465	114.511	0.096	-0.115
-69.451	133.833	0.147	0.187
-68.436	82.992	-0.182	-0.195
-67.422	-200.000	-0.000	0.094
-66.407	-7.451	0.236	0.157
-65.392	388.363	0.236	0.480
-64.378	132.025	-0.186	-0.236
-63.363	54.930	0.120	0.114
-62.349	-120.640	0.221	0.037
-61.334	166.058	-0.895	-1.246
-60.319	-44.372	0.739	0.364
-59.305	-200.000	-0.113	-0.967
-58.290	264.105	0.513	0.877
-57.276	800.000	0.371	1.485
-56.261	-200.000	95.522	584.207
-55.246	563.507	1367.243	3256.358
-54.232	162.714	2540.091	3506.427
-53.217	113.527	2135.688	2550.599
-52.203	44.217	1601.481	1445.088
-51.188	35.969	1339.421	1159.190
-50.173	32.784	1298.218	1104.862
-49.159	54.233	1345.509	1273.449
-48.144	56.629	1362.107	1303.385
-47.130	36.141	1320.637	1143.772
-46.115	32.519	1303.922	1107.982
-45.100	32.428	1298.657	1102.934
-44.086	32.338	1295.932	1100.052
-43.071	32.234	1294.075	1097.823
-42.057	32.332	1291.425	1096.103
-41.042	32.262	1290.380	1094.765
-40.027	32.338	1288.683	1093.723
-39.013	32.415	1286.431	1092.212
-37.998	32.391	1284.973	1090.795
-36.984	32.356	1283.112	1088.966
-35.969	32.416	1281.396	1087.816
-34.954	32.495	1279.347	1086.492
-33.940	32.526	1278.345	1085.772
-32.925	32.623	1276.362	1084.605
-31.911	32.504	1275.245	1082.930
-30.896	32.511	1273.852	1081.741
-29.881	32.484	1272.523	1080.417
-28.867	32.516	1271.413	1079.615
-27.852	32.553	1269.234	1077.933
-26.838	32.471	1267.939	1076.323
-25.823	32.627	1266.420	1075.881
-24.809	32.538	1265.333	1074.409
-23.794	32.564	1264.143	1073.500
-22.779	32.573	1262.757	1072.332
-21.765	32.627	1261.423	1071.464
-20.750	32.501	1260.454	1069.881
-19.736	32.395	1259.158	1068.138
-18.721	32.362	1257.823	1066.775
-17.706	32.368	1257.345	1066.364
-16.692	32.465	1255.471	1065.279
-15.677	32.431	1254.762	1064.442
-14.663	32.343	1253.486	1062.825
-13.648	32.372	1252.282	1061.925
-12.633	32.369	1251.536	1061.230
-11.619	32.295	1250.734	1060.093
-10.604	32.387	1249.987	1059.935
-9.590	32.357	1248.814	1058.731
-8.575	32.283	1247.666	1057.299
-7.560	32.367	1246.910	1057.086
-6.546	32.368	1246.012	1056.291
-5.531	32.242	1245.399	1055.023
-4.517	32.449	1244.188	1055.116
-3.502	32.373	1243.444	1054.016
-2.487	32.443	1242.356	1053.443
-1.473	32.330	1238.342	1049.369
-0.458	30.948	1223.479	1029.109
0.556	28.130	1206.059	992.533
1.571	24.416	1210.857	976.115
2.586	23.650	1225.847	983.868
3.600	23.035	1215.424	972.038
4.615	17.051	1142.454	882.576
5.629	6.936	1065.934	774.084
6.644	2.475	1045.150	737.471
7.659	1.998	1043.078	733.646
8.673	1.985	1041.477	732.393
9.688	1.914	1039.994	730.947
10.702	2.463	1038.925	732.758
11.717	9.067	1048.353	771.157
12.731	19.152	1062.465	830.342
13.746	24.212	1068.678	859.603
14.761	25.270	1069.882	865.602
15.775	25.283	1069.390	865.188
16.790	25.219	1068.289	863.913
17.804	25.066	1068.033	862.896
18.819	25.142	1067.788	862.986
19.834	25.320	1067.009	863.137
20.848	25.223	1066.978	862.569
21.863	25.308	1066.371	862.406
22.877	25.323	1065.457	861.665
23.892	25.191	1064.829	860.446
24.907	25.188	1064.307	859.934
25.921	25.271	1062.476	858.779
26.936	25.244	1061.298	857.621
27.950	25.180	1059.872	856.085
28.965	25.103	1058.242	854.325
29.980	25.065	1056.839	852.940
30.994	25.210	1055.989	852.868
32.009	25.322	1054.557	852.166
33.023	25.174	1053.845	850.812
34.038	25.163	1053.464	850.378
35.053	25.337	1052.086	850.014
36.067	25.151	1052.215	849.163
37.082	25.341	1051.104	849.089
38.096	25.472	1050.195	848.900
39.111	25.524	1050.031	848.934
40.126	25.411	1048.312	846.937
41.140	25.034	1046.617	843.718
42.155	24.759	1045.447	841.406
43.169	24.928	1044.517	841.382
44.184	24.889	1043.947	840.663
45.199	24.872	1042.574	839.401
46.213	25.008	1041.771	839.322
47.228	24.994	1041.540	838.992
48.242	25.089	1040.458	838.492
49.257	25.200	1039.803	838.411
50.271	25.221	1039.288	838.020
51.286	25.239	1038.044	837.024
52.301	25.364	1036.872	836.591
53.315	25.348	1036.065	835.788
54.330	25.154	1035.613	834.446
55.344	25.158	1034.862	833.788
56.359	25.240	1033.550	833.035
57.374	24.994	1032.496	830.975
58.388	25.037	1032.023	830.716
59.403	25.027	1030.717	829.547
60.417	24.820	1030.479	828.322
61.432	24.979	1029.739	828.391
62.447	25.013	1029.196	828.038
63.461	25.077	1028.217	827.475
64.476	24.881	1027.041	825.550
65.490	24.990	1026.254	825.347
66.505	24.971	1025.914	824.910
67.520	24.996	1025.405	824.544
68.534	24.745	1024.072	822.248
69.549	24.565	1022.799	820.325
70.563	24.604	1021.978	819.771
71.578	24.435	1021.555	818.586
72.593	24.369	1020.423	817.305
73.607	24.521	1020.142	817.701
74.622	24.834	1019.640	818.659
75.636	24.747	1018.795	817.510
76.651	24.650	1018.054	816.401
77.666	24.527	1017.015	814.936
78.680	24.617	1016.514	814.872
79.695	24.771	1016.106	815.172
80.709	24.920	1015.541	815.326
81.724	24.873	1014.233	813.993
82.739	24.973	1013.426	813.725
83.753	25.275	1013.010	814.692
84.768	25.528	1012.585	815.424
85.782	25.695	1011.819	815.494
86.797	25.545	1010.910	814.010
87.812	25.378	1009.662	812.178
88.826	25.457	1008.936	811.878
89.841	25.565	1008.116	811.634
90.855	25.548	1007.498	810.990
91.870	25.531	1006.685	810.185
92.884	25.367	1005.402	808.343
93.899	25.428	1004.276	807.638
94.914	25.502	1003.502	807.277
95.928	25.442	1002.550	806.173
96.943	25.207	1001.274	804.019
97.957	24.971	1000.444	802.229
98.972	24.826	999.078	800.413
99.987	25.141	998.716	801.458
101.001	25.218	998.161	801.288
102.016	25.394	996.884	800.976
103.030	25.078	996.619	799.282
104.045	25.097	995.211	798.167
105.060	24.807	994.587	796.306
106.074	25.012	993.922	796.617
107.089	25.414	993.520	798.010
108.103	25.309	992.239	796.443
109.118	24.962	991.271	794.057
110.133	24.992	990.363	793.395
111.147	24.775	988.922	791.210
112.162	24.801	987.791	790.346
113.176	25.103	987.150	791.098
114.191	24.959	986.621	789.972
115.206	24.482	985.752	787.100
116.220	24.589	984.615	786.596
117.235	24.756	984.023	786.787
118.249	24.752	983.438	786.232
119.264	24.652	982.741	785.168
120.279	24.671	982.023	784.606
121.293	24.746	981.049	784.087
122.308	24.765	980.269	783.478
123.322	24.635	979.260	782.034
124.337	24.456	977.944	780.133
125.352	24.024	976.632	777.129
126.366	24.068	975.356	776.239
127.381	24.770	975.638	779.455
128.395	24.979	975.422	780.121
129.410	25.332	974.141	780.565
130.424	25.206	973.262	779.242
131.439	25.245	972.266	778.546
132.454	25.326	971.384	778.123
133.468	25.121	970.338	776.328
134.483	25.266	969.597	776.295
135.497	25.283	969.328	776.082
136.512	25.448	968.030	775.687
137.527	25.508	967.436	775.401
138.541	25.421	966.741	774.399
139.556	25.414	966.180	773.853
140.570	25.524	965.494	773.709
141.585	25.717	964.092	773.346
142.600	25.577	963.046	771.839
143.614	25.715	962.508	771.930
144.629	25.751	961.911	771.535
145.643	25.733	960.188	770.010
146.658	25.540	959.057	768.211
147.673	25.473	957.828	766.871
148.687	25.338	957.152	765.686
149.702	25.282	956.203	764.623
150.716	25.290	955.669	764.159
151.731	25.383	954.925	763.894
152.746	25.704	954.396	764.766
153.760	25.615	953.776	763.826
154.775	25.715	953.420	763.897
155.789	25.718	952.480	763.092
156.804	25.559	951.567	761.617
157.819	25.789	950.126	761.367
158.833	25.620	950.387	760.795
159.848	25.857	948.975	760.601
160.862	25.814	947.651	759.287
161.877	25.768	946.618	758.201
162.892	25.797	945.744	757.553
163.906	25.715	944.377	756.048
164.921	25.674	943.770	755.323
165.935	25.804	943.124	755.287
166.950	25.732	942.260	754.226
167.964	25.628	941.639	753.227
168.979	25.525	940.602	751.898
169.994	25.475	939.404	750.667
171.008	25.689	938.787	751.001
172.023	25.707	938.381	750.684
173.037	25.523	937.434	749.091
174.052	25.474	936.022	747.695
175.067	25.341	935.826	746.920
176.081	25.403	935.541	746.884
177.096	25.497	934.277	746.197
178.110	25.071	933.607	743.828
179.125	24.873	933.105	742.544
180.140	25.079	932.412	742.778
181.154	25.128	932.530	743.010
182.169	25.627	932.180	744.730
183.183	25.731	931.682	744.697
184.198	25.607	930.581	743.239
185.213	25.551	930.035	742.506
186.227	25.712	929.323	742.538
187.242	25.592	928.893	741.633
188.256	25.577	928.556	741.237
189.271	25.743	927.569	741.067
190.286	25.348	926.323	738.382
191.300	24.708	925.003	734.636
192.315	23.907	923.468	730.065
193.329	23.954	922.998	729.819
194.344	24.919	923.343	733.988
195.359	25.428	923.251	735.935
196.373	25.547	922.440	735.709
197.388	25.510	922.101	735.222
198.402	25.541	921.368	734.701
199.417	25.532	920.951	734.265
200.432	25.389	919.710	732.627
201.446	25.084	919.144	730.871
202.461	25.175	918.280	730.488
203.475	24.314	916.758	725.710
204.490	23.485	915.571	721.336
205.504	24.626	915.550	725.894
206.519	24.989	915.871	727.561
207.534	25.190	915.140	727.730
208.548	25.588	914.974	729.148
209.563	25.470	914.100	727.908
210.577	25.259	913.630	726.614
211.592	25.686	913.323	728.034
212.607	25.751	912.136	727.288
213.621	25.706	911.481	726.519
214.636	25.760	911.103	726.372
215.650	25.693	910.246	725.353
216.665	25.791	909.907	725.411
217.680	25.689	908.686	723.964
218.694	25.257	907.472	721.199
219.709	25.171	907.109	720.502
220.723	25.525	906.402	721.295
221.738	25.535	906.025	720.971
222.753	25.529	905.356	720.350
223.767	25.649	905.319	720.739
224.782	25.756	905.186	720.998
225.796	25.896	904.179	720.691
226.811	25.141	902.717	716.446
227.826	24.604	901.128	712.981
228.840	24.762	900.937	713.397
229.855	24.802	900.330	713.013
230.869	24.413	899.373	710.643
231.884	24.822	899.327	712.170
232.899	25.535	899.331	714.949
233.913	25.605	898.270	714.322
234.928	25.323	898.224	713.099
235.942	25.478	897.312	712.926
236.957	25.109	896.364	710.651
237.972	25.113	895.945	710.269
238.986	25.455	895.017	710.825
240.001	25.281	894.790	709.892
241.015	25.384	894.507	710.015
242.030	25.530	893.968	710.099
243.045	25.634	893.280	709.898
244.059	25.546	893.710	709.834
245.074	25.533	892.274	708.575
246.088	25.119	891.314	706.124
247.103	25.436	891.236	707.246
248.117	26.032	890.871	709.238
249.132	26.205	890.597	709.638
250.147	26.347	890.277	709.876
251.161	26.487	889.663	709.874
252.176	26.370	889.029	708.845
253.190	26.569	888.696	709.298
254.205	26.553	888.309	708.864
255.220	26.637	887.672	708.622
256.234	26.581	886.476	707.383
257.249	26.450	885.849	706.310
258.263	26.350	885.760	705.786
259.278	26.506	884.854	705.612
260.293	26.615	884.112	705.382
261.307	26.478	883.086	703.966
262.322	26.201	882.382	702.268
263.336	25.361	880.742	697.639
264.351	24.425	878.605	692.254
265.366	24.550	878.979	692.970
266.380	25.712	879.399	697.751
267.395	26.100	879.023	698.894
268.409	26.044	878.629	698.299
269.424	26.209	878.312	698.624
270.439	26.182	877.607	697.898
271.453	26.388	877.062	698.200
272.468	26.456	876.722	698.127
273.482	26.388	875.982	697.216
274.497	26.218	874.660	695.446
275.512	25.816	874.051	693.354
276.526	26.160	873.975	694.555
277.541	26.308	873.855	694.968
278.555	26.054	873.048	693.289
279.570	25.957	872.182	692.168
280.585	26.151	871.525	692.329
281.599	25.995	870.426	690.798
282.614	25.396	869.635	687.815
283.628	25.493	868.718	687.401
284.643	25.919	868.441	688.747
285.657	25.509	867.369	686.273
286.672	25.101	866.997	684.360
287.687	25.692	866.912	686.489
288.701	25.777	866.038	686.060
289.716	25.449	865.162	684.056
290.730	25.603	864.146	683.777
291.745	25.268	863.567	681.987
292.760	25.593	863.524	683.127
293.774	26.539	864.087	687.104
294.789	26.743	863.761	687.559
295.803	26.799	863.666	687.633
296.818	26.878	862.463	686.914
297.833	26.401	861.490	684.274
298.847	26.276	860.848	683.230
299.862	26.488	860.496	683.691
300.876	26.832	860.220	684.710
301.891	26.667	859.993	683.849
302.906	26.429	858.561	681.750
303.920	26.625	857.999	681.984
304.935	26.848	857.779	682.586
305.949	26.792	857.149	681.816
306.964	26.478	856.656	680.183
307.979	26.635	856.162	680.319
308.993	26.935	856.081	681.321
310.008	26.868	855.651	680.669
311.022	26.671	854.678	679.097
312.037	26.469	854.143	677.853
313.052	26.381	852.792	676.391
314.066	25.389	851.462	671.572
315.081	25.010	850.986	669.720
316.095	25.919	851.134	673.171
317.110	26.353	850.871	674.526
318.125	25.614	849.292	670.460
319.139	24.472	848.210	665.295
320.154	24.586	847.813	665.349
321.168	25.493	848.171	668.946
322.183	26.057	848.517	671.259
323.197	26.436	848.062	672.250
324.212	26.565	847.719	672.396
325.227	26.574	846.816	671.654
326.241	26.367	846.232	670.363
327.256	26.316	845.674	669.675
328.270	26.169	845.121	668.632
329.285	25.996	844.102	667.128
330.300	25.996	843.114	666.290
331.314	26.015	843.482	666.588
332.329	26.423	843.296	667.890
333.343	26.669	842.653	668.228
334.358	26.590	842.327	667.620
335.373	26.654	842.058	667.586
336.387	27.046	841.681	668.672
337.402	27.133	841.672	668.923
338.416	27.103	841.534	668.644
339.431	27.158	841.100	668.444
340.446	27.268	840.692	668.463
341.460	27.203	840.104	667.700
342.475	27.090	839.561	666.792
343.489	27.115	839.045	666.416
344.504	27.360	839.192	667.372
345.519	27.381	839.032	667.261
346.533	27.434	838.201	666.738
347.548	27.492	837.487	666.322
348.562	27.425	836.586	665.302
349.577	27.238	836.575	664.553
350.592	27.386	835.786	664.405
351.606	27.339	834.873	663.449
352.621	27.211	834.496	662.624
353.635	27.180	833.365	661.556
354.650	26.552	831.520	657.751
355.665	25.604	830.530	653.468
356.679	25.985	830.365	654.665
357.694	26.325	830.264	655.758
358.708	26.277	829.573	654.981
359.723	26.777	829.446	656.636
360.738	27.058	828.922	657.179
361.752	27.206	828.518	657.336
362.767	27.439	828.293	657.941
363.781	27.615	828.016	658.297
364.796	27.715	827.689	658.344
365.810	27.898	827.139	658.506
366.825	27.782	826.624	657.619
367.840	27.597	825.852	656.280
368.854	27.055	825.170	653.731
369.869	27.118	824.799	653.606
370.883	27.175	824.248	653.317
371.898	27.171	823.850	652.929
372.913	27.205	823.382	652.621
373.927	27.268	823.168	652.620
374.942	27.300	822.779	652.370
375.956	27.508	822.182	652.582
376.971	27.599	822.116	652.798
377.986	27.732	821.914	653.058
379.000	27.748	820.821	652.188
380.015	27.665	820.264	651.391
381.029	27.597	819.536	650.513
382.044	27.796	819.359	651.026
383.059	27.764	818.884	650.475
384.073	27.842	818.299	650.229
385.088	27.792	817.663	649.489
386.102	27.698	816.555	648.217
387.117	27.582	815.784	647.137
388.132	26.981	814.949	644.287
389.146	26.574	814.321	642.289
390.161	27.151	813.924	643.965
391.175	27.419	814.234	645.101
392.190	27.292	812.826	643.479
393.205	25.801	811.229	636.891
394.219	24.251	808.959	629.581
395.234	24.187	809.093	629.404
396.248	25.976	810.529	636.790
397.263	27.329	810.940	641.833
398.278	27.303	810.735	641.524
399.292	27.031	810.214	640.094
400.307	27.081	809.630	639.752
401.321	27.153	809.113	639.542
402.336	27.473	809.528	640.938
403.350	27.791	809.148	641.701
404.365	28.403	808.766	643.490
405.380	28.529	808.636	643.773
406.394	28.683	808.217	643.922
407.409	28.500	807.602	642.734
408.423	28.378	807.148	641.887
409.438	28.440	806.963	641.899
410.453	28.675	806.026	641.920
411.467	28.362	805.678	640.493
412.482	28.380	805.682	640.503
413.496	28.560	804.878	640.434
414.511	28.497	804.780	640.078
415.526	28.549	804.347	639.859
416.540	28.488	803.476	638.897
417.555	28.151	802.809	637.137
418.569	28.117	802.622	636.816
419.584	28.119	801.754	636.077
420.599	27.998	801.323	635.257
421.613	111.902	1284.853	1458.450
422.628	96.637	1355.289	1458.573
