DTS Sentinel unit serial number:	SN413079Multiplexer serial number:	ORYXHardware model number:	OX4-SRSoftware version number:	ORYX F/W v4.00 Oryx Data Collector v3.7.2.0data status	okinstallation	princeton_trtdifferential loss correction	single-endedforward channel	channel 1reverse channel	N/Adate	2019/09/17time	12:30:35forward acquisition time	60.00reverse acquisition time	0.00gamma	496.2192k internal	0.2318k external	0.2318temperature offset calibration	0.9972default loss term (dB/km)	0.3790temperature slope calibration	1.0000multiplexer offset coefficient	1.0000multiplexer slope coefficient	1.0000fibre end	0.00T internal ref (°C)	31.94T ext. ref 1 (°C)	0.42T ext. ref 2 (°C)	29.15length (m)	temperature (°C)	Stokes	anti-Stokes-747.200	800.000	-0.037	-0.155
-746.185	-127.159	-0.138	0.020
-745.171	196.606	0.120	0.185
-744.156	-152.550	-0.116	0.008
-743.142	327.634	-0.100	0.193
-742.127	162.135	0.176	0.250
-741.112	-88.056	-0.228	0.069
-740.098	-73.279	-0.425	-0.157
-739.083	77.541	0.046	-0.050
-738.069	246.304	-0.263	-0.448
-737.054	-65.412	-0.383	-0.156
-736.039	584.281	-0.157	-0.391
-735.025	800.000	0.069	-0.258
-734.010	-141.936	0.327	-0.033
-732.996	201.661	-0.209	-0.326
-731.981	-107.904	0.247	0.054
-730.966	800.000	0.031	0.112
-729.952	800.000	0.044	0.169
-728.937	-118.068	-0.433	0.078
-727.923	105.198	0.101	0.120
-726.908	81.913	-0.141	0.155
-725.894	31.461	0.205	-0.179
-724.879	-113.704	0.192	0.038
-723.864	-200.000	-0.250	0.001
-722.850	-118.515	-0.222	0.040
-721.835	-177.148	0.134	0.003
-720.821	-200.000	-0.018	0.136
-719.806	704.671	0.063	0.169
-718.791	573.688	0.095	-0.234
-717.777	-196.521	-0.234	0.002
-716.762	-34.860	-0.316	-0.174
-715.748	-200.000	0.063	-0.305
-714.733	-110.196	0.195	-0.041
-713.718	-25.394	-0.395	-0.236
-712.704	320.138	-0.142	-0.272
-711.689	226.499	-0.142	-0.233
-710.675	200.230	0.188	-0.292
-709.660	316.899	0.096	-0.184
-708.645	74.704	-0.093	0.099
-707.631	37.422	0.088	0.079
-706.616	202.413	0.186	-0.290
-705.602	800.000	-0.056	-0.203
-704.587	108.823	-0.265	-0.320
-703.572	-6.409	0.056	-0.038
-702.558	-77.908	0.129	0.045
-701.543	800.000	-0.008	-0.033
-700.529	-44.844	0.338	0.170
-699.514	-200.000	0.028	0.267
-698.499	-200.000	-0.004	-0.116
-697.485	-200.000	0.009	-0.068
-696.470	119.607	0.066	0.082
-695.456	531.894	-0.064	-0.153
-694.441	800.000	0.008	-0.030
-693.426	-200.000	0.076	-0.543
-692.412	483.748	0.008	-0.017
-691.397	150.004	0.204	-0.279
-690.383	53.737	-0.271	0.263
-689.368	-200.000	-0.030	0.164
-688.354	326.275	-0.032	0.061
-687.339	-72.939	0.280	0.104
-686.324	30.418	-0.379	0.327
-685.310	82.257	0.204	-0.224
-684.295	255.413	-0.155	-0.268
-683.281	-72.266	-0.118	0.044
-682.266	-200.000	0.031	0.251
-681.251	-200.000	-0.002	0.020
-680.237	-200.000	0.020	-0.193
-679.222	485.342	-0.057	0.130
-678.208	-80.976	0.176	-0.059
-677.193	43.905	-0.252	-0.233
-676.178	-112.087	-0.306	0.062
-675.164	-120.626	0.152	-0.026
-674.149	-33.321	0.082	-0.046
-673.135	-82.245	0.166	-0.055
-672.120	800.000	0.045	-0.137
-671.105	-94.321	-0.133	-0.037
-670.091	-87.485	0.074	-0.023
-669.076	-129.148	-0.094	0.013
-668.062	375.851	-0.022	-0.046
-667.047	25.427	0.145	0.122
-666.032	-180.426	0.347	0.007
-665.018	21.862	-0.123	-0.101
-664.003	-200.000	-0.014	0.241
-662.989	800.000	0.104	-0.398
-661.974	13.269	0.089	0.070
-660.959	-168.665	0.123	0.005
-659.945	-115.636	-0.268	0.051
-658.930	-89.724	0.286	0.085
-657.916	-172.070	-0.392	0.013
-656.901	621.633	-0.111	-0.281
-655.886	-125.397	-0.146	0.022
-654.872	-50.031	-0.140	-0.067
-653.857	-142.497	-0.270	0.027
-652.843	-200.000	-0.018	-0.086
-651.828	-110.655	-0.217	0.045
-650.814	-54.311	-0.153	-0.070
-649.799	-38.113	-0.176	0.094
-648.784	-139.128	0.178	0.019
-647.770	15.334	-0.288	-0.228
-646.755	800.000	-0.075	-0.228
-645.741	-81.617	-0.139	0.046
-644.726	-55.618	-0.257	-0.116
-643.711	-15.217	-0.093	-0.060
-642.697	800.000	0.056	-0.227
-641.682	-200.000	-0.015	-0.089
-640.668	-12.689	-0.068	-0.045
-639.653	-26.404	-0.072	0.042
-638.638	-200.000	-0.014	0.100
-637.624	205.600	0.083	0.130
-636.609	800.000	-0.097	0.278
-635.595	279.796	0.148	0.266
-634.580	50.432	-0.114	0.108
-633.565	-110.449	-0.395	-0.083
-632.551	54.167	0.105	0.101
-631.536	581.049	-0.021	-0.051
-630.522	56.768	0.098	0.096
-629.507	143.588	-0.110	0.147
-628.492	150.657	-0.186	-0.255
-627.478	259.711	-0.031	0.054
-626.463	183.581	-0.085	-0.127
-625.449	105.464	-0.137	-0.163
-624.434	-22.482	0.196	0.120
-623.419	-158.551	-0.064	-0.004
-622.405	-46.952	0.130	-0.064
-621.390	-200.000	-0.014	-0.122
-620.376	-13.684	-0.212	-0.138
-619.361	-200.000	-0.009	-0.045
-618.346	-126.212	-0.170	-0.026
-617.332	-113.385	-0.651	0.129
-616.317	339.353	-0.027	0.054
-615.303	-63.476	-0.141	-0.058
-614.288	-36.050	-0.157	-0.086
-613.273	370.413	0.073	0.150
-612.259	-0.038	-0.132	-0.094
-611.244	-115.861	-0.166	-0.031
-610.230	-200.000	0.010	-0.060
-609.215	-163.117	0.171	0.008
-608.201	-200.000	0.003	-0.284
-607.186	-200.000	-0.024	-0.213
-606.171	-13.268	-0.140	-0.092
-605.157	800.000	-0.010	-0.039
-604.142	-191.747	-0.257	-0.003
-603.128	-200.000	0.000	-0.177
-602.113	-131.717	-0.274	-0.036
-601.098	230.039	0.153	-0.251
-600.084	-36.973	-0.193	-0.104
-599.069	302.653	-0.056	0.105
-598.055	800.000	0.044	-0.175
-597.040	382.194	0.101	0.208
-596.025	515.834	-0.022	-0.052
-595.011	760.412	-0.045	0.124
-593.996	800.000	0.059	-0.195
-592.982	43.717	-0.068	0.062
-591.967	-47.547	0.202	0.099
-590.952	-83.174	0.262	-0.085
-589.938	37.132	0.170	0.152
-588.923	519.096	-0.102	-0.240
-587.909	740.956	0.026	0.071
-586.894	800.000	0.044	-0.134
-585.879	800.000	0.112	-0.490
-584.865	800.000	0.094	-0.293
-583.850	-45.378	-0.224	0.112
-582.836	-137.720	-0.242	0.027
-581.821	800.000	0.127	0.362
-580.806	-200.000	0.021	0.206
-579.792	-200.000	-0.037	-0.342
-578.777	80.011	0.022	-0.024
-577.763	78.776	0.235	0.252
-576.748	-159.687	-0.035	0.002
-575.733	524.951	0.121	0.287
-574.719	800.000	0.026	0.083
-573.704	-116.223	0.199	0.037
-572.690	-200.000	-0.032	0.181
-571.675	-113.302	-0.206	-0.041
-570.661	-85.054	0.298	0.094
-569.646	-51.776	-0.190	-0.089
-568.631	-26.672	0.255	0.150
-567.617	-59.246	-0.240	-0.104
-566.602	84.450	0.115	-0.126
-565.588	-61.010	-0.058	-0.025
-564.573	-69.662	-0.292	-0.112
-563.558	779.751	0.064	-0.176
-562.544	-105.515	0.161	-0.037
-561.529	218.378	0.147	0.236
-560.515	-166.062	-0.274	-0.012
-559.500	-83.102	-0.303	0.098
-558.485	-157.383	-0.326	-0.020
-557.471	-129.549	-0.348	0.048
-556.456	490.205	-0.074	-0.170
-555.442	-38.465	-0.127	0.068
-554.427	-184.158	0.276	-0.005
-553.412	-121.993	-0.506	-0.084
-552.398	290.318	0.140	-0.255
-551.383	89.267	0.072	-0.081
-550.369	-200.000	0.061	-0.318
-549.354	165.757	-0.077	-0.109
-548.339	-200.000	0.005	-0.232
-547.325	800.000	-0.091	0.256
-546.310	-3.300	0.331	0.232
-545.296	311.524	0.056	-0.106
-544.281	-90.275	0.084	0.025
-543.266	-174.894	-0.199	0.006
-542.252	-87.711	0.133	-0.040
-541.237	-200.000	-0.004	0.065
-540.223	-200.000	0.023	-0.175
-539.208	162.471	-0.190	-0.268
-538.193	33.598	0.035	0.030
-537.179	-195.966	0.172	-0.001
-536.164	-112.662	0.253	0.050
-535.150	800.000	-0.061	0.205
-534.135	-59.179	-0.185	0.080
-533.121	-86.521	-0.304	0.094
-532.106	-146.764	-0.204	-0.018
-531.091	-200.000	0.044	0.436
-530.077	134.940	-0.101	0.131
-529.062	-200.000	-0.001	0.198
-528.048	378.364	0.137	-0.281
-527.033	153.111	-0.025	0.034
-526.018	-76.160	-0.069	0.024
-525.004	-30.502	0.170	0.096
-523.989	51.538	-0.186	-0.178
-522.975	-128.413	0.236	-0.034
-521.960	40.555	-0.136	0.123
-520.945	91.536	0.082	0.093
-519.931	127.137	0.142	-0.180
-518.916	-200.000	0.177	0.001
-517.902	164.310	0.114	0.162
-516.887	21.674	0.166	0.135
-515.872	-200.000	-0.041	0.208
-514.858	800.000	0.048	-0.156
-513.843	17.242	0.230	-0.183
-512.829	179.061	-0.020	0.029
-511.814	346.402	0.065	-0.128
-510.799	-200.000	-0.021	0.145
-509.785	493.013	-0.053	0.123
-508.770	-200.000	-0.004	0.088
-507.756	800.000	-0.086	-0.302
-506.741	51.708	-0.195	-0.186
-505.726	-88.192	0.201	0.060
-504.712	-98.599	0.166	-0.043
-503.697	-200.000	0.028	-0.291
-502.683	-48.636	0.367	0.177
-501.668	-29.104	-0.103	-0.059
-500.653	-159.674	0.187	0.010
-499.639	800.000	-0.089	-0.272
-498.624	42.788	0.118	-0.108
-497.610	-36.662	0.220	0.119
-496.595	264.894	-0.020	-0.034
-495.581	-77.687	-0.234	-0.081
-494.566	-200.000	0.012	0.317
-493.551	571.619	-0.062	0.151
-492.537	-200.000	-0.017	0.142
-491.522	0.378	-0.190	-0.136
-490.508	59.848	-0.071	0.071
-489.493	109.084	-0.064	-0.077
-488.478	82.719	0.070	-0.077
-487.464	335.370	0.144	-0.281
-486.449	800.000	-0.040	0.133
-485.435	-145.089	0.191	0.017
-484.420	-83.522	0.244	-0.078
-483.405	121.577	-0.171	-0.214
-482.391	-200.000	0.004	-0.121
-481.376	704.283	0.069	-0.183
-480.362	141.855	0.217	0.288
-479.347	-24.479	0.278	-0.166
-478.332	348.818	0.133	-0.263
-477.318	230.292	0.030	0.050
-476.303	159.962	0.050	0.069
-475.289	285.287	-0.114	-0.206
-474.274	123.787	0.166	-0.209
-473.259	-200.000	0.076	-0.353
-472.245	800.000	0.053	0.177
-471.230	105.492	-0.090	0.106
-470.216	65.202	0.200	0.203
-469.201	-200.000	0.004	0.208
-468.186	88.623	0.225	-0.250
-467.172	212.875	0.251	0.397
-466.157	63.041	0.171	-0.172
-465.143	-138.353	-0.196	-0.022
-464.128	-200.000	0.051	-0.231
-463.113	-67.709	0.185	0.073
-462.099	800.000	0.080	0.341
-461.084	356.585	0.107	-0.213
-460.070	304.957	0.069	0.128
-459.055	362.094	-0.143	0.286
-458.040	-17.867	0.058	-0.037
-457.026	108.026	-0.168	0.200
-456.011	253.140	0.098	0.168
-454.997	682.047	0.075	0.196
-453.982	431.199	0.122	-0.265
-452.968	-200.000	-0.006	-0.121
-451.953	-151.724	0.119	-0.009
-450.938	-157.793	-0.410	-0.024
-449.924	-127.817	0.346	-0.050
-448.909	-200.000	-0.035	-0.277
-447.895	-164.294	0.083	0.004
-446.880	-37.526	0.166	0.089
-445.865	1.092	-0.147	0.105
-444.851	50.010	0.201	-0.190
-443.836	-200.000	-0.068	-0.427
-442.822	666.656	0.034	0.087
-441.807	-200.000	-0.048	0.267
-440.792	-35.705	0.306	-0.166
-439.778	-49.590	0.012	-0.006
-438.763	479.631	0.147	0.333
-437.749	190.350	-0.069	0.104
-436.734	800.000	0.039	0.163
-435.719	158.849	0.073	0.102
-434.705	-59.131	0.243	-0.105
-433.690	-38.697	0.231	-0.122
-432.676	800.000	-0.064	-0.266
-431.661	16.519	-0.202	-0.160
-430.646	800.000	0.042	0.172
-429.632	331.017	0.047	-0.090
-428.617	-77.627	-0.284	0.098
-427.603	800.000	-0.058	-0.165
-426.588	-120.513	0.083	0.014
-425.573	-89.218	-0.125	-0.037
-424.559	-23.379	0.055	0.033
-423.544	31.333	-0.217	0.186
-422.530	199.567	0.151	-0.232
-421.515	5.160	0.210	0.155
-420.500	484.637	0.108	0.245
-419.486	-85.987	-0.166	0.051
-418.471	-87.344	0.337	-0.102
-417.457	-89.490	0.127	0.037
-416.442	-169.524	0.204	0.007
-415.428	800.000	-0.087	0.366
-414.413	-169.823	0.281	0.010
-413.398	-135.674	-0.099	0.012
-412.384	50.152	0.013	-0.012
-411.369	52.876	0.151	0.145
-410.355	140.872	-0.127	0.168
-409.340	800.000	-0.087	0.365
-408.325	32.617	-0.156	-0.135
-407.311	311.464	-0.169	0.317
-406.296	800.000	0.027	0.091
-405.282	-117.839	0.154	0.028
-404.267	-139.816	-0.376	0.040
-403.252	-145.434	0.156	-0.014
-402.238	132.536	0.146	0.187
-401.223	365.412	-0.128	0.257
-400.209	-28.490	-0.162	0.093
-399.194	3.927	-0.067	0.049
-398.179	-88.647	-0.131	0.039
-397.165	-200.000	0.006	-0.107
-396.150	136.767	0.247	0.322
-395.136	-153.612	-0.204	0.014
-394.121	800.000	0.054	-0.208
-393.106	-200.000	0.015	-0.331
-392.092	99.645	0.095	-0.110
-391.077	-200.000	0.042	0.260
-390.063	-142.413	0.302	0.030
-389.048	-175.342	-0.386	-0.011
-388.033	79.663	0.096	0.102
-387.019	-118.263	0.157	-0.028
-386.004	800.000	-0.119	0.369
-384.990	-11.483	-0.360	0.236
-383.975	-112.490	0.077	-0.015
-382.960	-112.467	0.313	-0.062
-381.946	-200.000	0.017	-0.203
-380.931	-200.000	0.029	0.336
-379.917	800.000	0.015	-0.056
-378.902	-106.642	-0.146	-0.032
-377.888	333.775	-0.039	-0.075
-376.873	-34.154	0.204	0.112
-375.858	389.102	0.101	0.209
-374.844	31.749	-0.094	-0.081
-373.829	-33.963	-0.412	-0.226
-372.815	-5.456	0.107	0.073
-371.800	-114.092	-0.158	0.031
-370.785	171.532	-0.102	0.147
-369.771	607.874	0.074	0.185
-368.756	-200.000	-0.005	0.087
-367.742	-42.798	0.194	-0.098
-366.727	39.982	-0.100	0.090
-365.712	-131.195	-0.125	0.017
-364.698	-200.000	-0.035	-0.168
-363.683	0.698	0.182	-0.130
-362.669	104.947	0.171	-0.201
-361.654	273.219	0.071	0.125
-360.639	374.946	-0.122	0.249
-359.625	109.452	-0.369	0.441
-358.610	541.830	-0.125	-0.298
-357.596	-131.386	0.141	0.019
-356.581	415.887	-0.045	0.096
-355.566	276.503	-0.132	0.233
-354.552	11.004	0.111	-0.085
-353.537	-89.607	0.110	0.032
-352.523	6.727	-0.110	-0.082
-351.508	-191.798	0.152	0.001
-350.493	80.554	-0.214	-0.230
-349.479	430.190	-0.149	-0.321
-348.464	-161.309	0.081	-0.004
-347.450	800.000	0.097	0.379
-346.435	32.641	0.131	-0.113
-345.420	-120.701	-0.219	-0.037
-344.406	379.415	0.094	-0.191
-343.391	82.930	-0.286	0.310
-342.377	576.057	-0.151	-0.368
-341.362	800.000	-0.063	-0.234
-340.348	800.000	-0.014	0.057
-339.333	31.963	-0.241	0.207
-338.318	8.467	-0.095	0.072
-337.304	-200.000	-0.020	-0.232
-336.289	119.323	0.277	0.341
-335.275	259.156	-0.032	0.055
-334.260	-34.609	0.106	-0.058
-333.245	21.528	0.120	-0.098
-332.231	-40.047	0.086	-0.045
-331.216	45.004	0.249	-0.229
-330.202	128.322	-0.083	0.105
-329.187	93.389	-0.079	-0.090
-328.172	-200.000	-0.023	-0.173
-327.158	345.167	-0.084	0.164
-326.143	-200.000	0.026	-0.306
-325.129	20.302	-0.137	-0.110
-324.114	25.475	0.155	-0.128
-323.099	10.216	0.146	0.110
-322.085	-141.015	-0.152	0.016
-321.070	-49.241	-0.140	-0.067
-320.056	-200.000	-0.022	0.104
-319.041	280.373	-0.147	-0.262
-318.026	-29.616	-0.377	-0.214
-317.012	415.760	-0.142	-0.301
-315.997	-64.042	0.105	-0.043
-314.983	42.730	0.219	-0.199
-313.968	-20.048	-0.043	0.027
-312.953	-29.219	-0.174	-0.099
-311.939	41.976	-0.348	-0.315
-310.924	-200.000	0.018	-0.205
-309.910	-75.080	0.133	0.047
-308.895	16.813	0.207	-0.163
-307.880	-200.000	0.048	-0.288
-306.866	-38.754	-0.134	0.070
-305.851	117.763	-0.232	0.284
-304.837	374.881	0.149	0.302
-303.822	-200.000	-0.020	0.413
-302.807	800.000	-0.076	-0.212
-301.793	-65.806	0.067	-0.027
-300.778	33.357	-0.112	0.097
-299.764	-22.827	0.123	-0.074
-298.749	19.388	-0.232	-0.185
-297.735	86.518	0.200	0.220
-296.720	-132.203	-0.431	-0.056
-295.705	193.371	0.122	0.183
-294.691	96.488	0.241	0.274
-293.676	320.477	-0.101	0.192
-292.662	-158.907	0.252	-0.014
-291.647	17.161	0.190	-0.150
-290.632	800.000	-0.044	0.148
-289.618	241.715	0.116	-0.193
-288.603	800.000	0.039	0.143
-287.589	-79.074	-0.313	0.106
-286.574	-200.000	0.003	-0.235
-285.559	-104.682	-0.200	0.046
-284.545	271.267	0.213	-0.372
-283.530	296.490	-0.154	0.281
-282.516	21.487	0.458	0.370
-281.501	532.528	0.070	0.164
-280.486	-200.000	0.086	0.399
-279.472	-174.301	0.066	0.002
-278.457	407.951	-0.073	0.153
-277.443	398.876	-0.027	-0.056
-276.428	800.000	-0.052	-0.143
-275.413	-17.832	-0.080	-0.050
-274.399	-15.936	0.152	0.096
-273.384	-25.338	-0.400	0.235
-272.370	-200.000	-0.016	-0.135
-271.355	264.097	-0.063	-0.108
-270.340	-200.000	-0.058	-0.276
-269.326	29.903	-0.363	0.308
-268.311	-31.485	-0.545	0.305
-267.297	-166.628	-0.208	0.009
-266.282	-114.272	-0.286	-0.055
-265.267	-86.750	-0.180	0.055
-264.253	-200.000	-0.017	0.151
-263.238	235.636	0.099	-0.163
-262.224	62.133	-0.049	0.049
-261.209	583.631	0.131	-0.320
-260.195	-200.000	0.012	-0.068
-259.180	-106.874	0.034	0.007
-258.165	-113.548	-0.269	0.052
-257.151	800.000	-0.131	-0.430
-256.136	188.956	0.094	0.140
-255.122	111.870	-0.061	-0.073
-254.107	-96.467	0.259	-0.068
-253.092	20.396	0.088	0.071
-252.078	-56.357	0.201	0.089
-251.063	-200.000	0.043	-0.243
-250.049	-132.451	0.187	-0.024
-249.034	462.056	-0.078	-0.172
-248.019	105.566	0.129	0.151
-247.005	436.937	0.029	-0.063
-245.990	164.351	-0.083	0.116
-244.976	800.000	-0.049	-0.170
-243.961	800.000	0.018	-0.078
-242.946	800.000	0.038	0.134
-241.932	-84.908	-0.121	0.038
-240.917	800.000	-0.091	0.322
-239.903	-11.716	-0.195	-0.127
-238.888	-97.870	0.076	0.019
-237.873	-200.000	-0.059	-0.369
-236.859	-200.000	-0.019	-0.307
-235.844	761.219	-0.033	-0.090
-234.830	129.705	0.070	-0.089
-233.815	56.712	0.256	0.247
-232.800	-50.477	-0.152	0.071
-231.786	-40.895	-0.185	-0.095
-230.771	142.661	-0.048	0.063
-229.757	-200.000	0.045	0.255
-228.742	167.331	0.130	-0.183
-227.727	-200.000	-0.045	0.198
-226.713	-172.278	0.394	-0.013
-225.698	-60.353	0.188	0.079
-224.684	107.976	-0.124	-0.146
-223.669	27.087	0.129	0.108
-222.655	39.581	0.175	-0.156
-221.640	-7.587	0.113	-0.076
-220.625	301.389	0.108	0.198
-219.611	-200.000	-0.006	-0.137
-218.596	800.000	-0.095	-0.393
-217.582	-150.423	0.349	-0.027
-216.567	-200.000	0.026	0.117
-215.552	71.812	-0.216	0.223
-214.538	-123.737	-0.246	-0.039
-213.523	105.526	0.099	0.116
-212.509	638.112	-0.159	-0.400
-211.494	-161.789	0.439	0.022
-210.479	800.000	0.106	0.327
-209.465	-76.512	0.323	0.112
-208.450	-192.324	0.139	0.001
-207.436	19.419	0.191	0.152
-206.421	800.000	0.063	-0.248
-205.406	-200.000	-0.027	-0.202
-204.392	-47.793	0.119	0.057
-203.377	-200.000	-0.018	-0.373
-202.363	53.588	-0.197	0.187
-201.348	17.154	-0.005	-0.004
-200.333	-58.720	0.208	0.089
-199.319	800.000	-0.045	-0.146
-198.304	93.578	0.185	0.207
-197.290	183.903	0.123	-0.181
-196.275	33.398	0.152	-0.131
-195.260	-12.502	0.037	-0.024
-194.246	800.000	0.068	0.251
-193.231	-200.000	-0.015	0.418
-192.217	123.040	0.074	-0.091
-191.202	-200.000	-0.020	-0.085
-190.187	-51.580	-0.036	0.017
-189.173	-200.000	-0.049	0.226
-188.158	-59.188	0.204	-0.087
-187.144	800.000	0.083	0.264
-186.129	-200.000	0.006	0.075
-185.114	-70.861	0.238	-0.089
-184.100	-200.000	0.011	-0.168
-183.085	105.921	-0.022	0.025
-182.071	-112.418	0.175	-0.035
-181.056	-43.481	0.219	-0.109
-180.042	-200.000	0.013	0.250
-179.027	36.242	-0.332	0.290
-178.012	-117.615	0.389	-0.069
-176.998	-162.233	-0.195	0.010
-175.983	116.210	0.232	-0.281
-174.969	-135.917	-0.185	-0.022
-173.954	-200.000	0.003	0.211
-172.939	-200.000	-0.078	0.590
-171.925	671.982	-0.089	0.229
-170.910	-88.660	0.185	-0.054
-169.896	-63.631	-0.041	0.016
-168.881	775.882	0.054	0.146
-167.866	40.309	-0.308	0.274
-166.852	-200.000	0.044	0.275
-165.837	-37.942	0.257	-0.135
-164.823	-200.000	0.015	-0.220
-163.808	543.454	0.103	0.244
-162.793	-79.507	-0.205	0.069
-161.779	-200.000	-0.024	-0.162
-160.764	11.327	-0.092	0.070
-159.750	87.242	0.248	-0.272
-158.735	-173.466	-0.194	-0.006
-157.720	-200.000	0.011	0.178
-156.706	-6.974	-0.275	-0.185
-155.691	125.701	0.192	-0.240
-154.677	-54.137	-0.106	-0.048
-153.662	338.716	-0.199	-0.384
-152.647	44.634	-0.097	0.088
-151.633	-178.187	-0.177	0.004
-150.618	-200.000	-0.017	0.091
-149.604	-77.332	-0.118	-0.041
-148.589	-200.000	-0.026	0.239
-147.574	-200.000	-0.031	-0.140
-146.560	800.000	0.189	-0.574
-145.545	-94.548	0.131	-0.035
-144.531	-150.338	0.220	-0.017
-143.516	148.978	0.113	0.152
-142.502	156.097	0.037	0.050
-141.487	-137.602	0.118	-0.013
-140.472	800.000	-0.020	-0.069
-139.458	-4.556	-0.418	-0.286
-138.443	-122.890	-0.170	0.027
-137.429	23.430	0.174	-0.141
-136.414	255.780	0.094	-0.159
-135.399	-41.340	0.181	0.092
-134.385	88.150	-0.154	-0.168
-133.370	-200.000	0.082	0.369
-132.356	-200.000	0.016	-0.326
-131.341	-200.000	0.006	-0.331
-130.326	-178.528	-0.156	-0.004
-129.312	-120.684	0.636	-0.106
-128.297	-102.158	0.330	-0.078
-127.283	209.869	0.142	-0.220
-126.268	289.119	-0.046	0.082
-125.253	86.868	0.284	0.309
-124.239	338.612	-0.113	-0.217
-123.224	-175.041	-0.309	-0.008
-122.210	88.593	0.174	-0.192
-121.195	172.796	-0.062	0.088
-120.180	276.389	0.215	-0.377
-119.166	172.568	-0.090	-0.128
-118.151	-81.420	0.165	0.054
-117.137	102.283	-0.167	0.192
-116.122	-200.000	0.017	-0.353
-115.107	111.615	0.053	0.063
-114.093	-200.000	0.035	-0.169
-113.078	24.070	0.164	0.134
-112.064	-95.847	-0.345	-0.091
-111.049	30.138	0.069	-0.058
-110.034	-74.767	-0.258	-0.091
-109.020	110.371	0.158	0.188
-108.005	-109.409	0.114	0.024
-106.991	81.971	-0.024	-0.026
-105.976	-96.291	-0.344	0.090
-104.962	475.111	-0.072	-0.160
-103.947	34.571	0.108	-0.093
-102.932	756.756	0.082	0.219
-101.918	-9.215	-0.023	-0.015
-100.903	410.699	-0.077	-0.162
-99.889	109.228	0.074	-0.087
-98.874	44.965	-0.137	0.124
-97.859	-120.575	-0.158	0.026
-96.845	-200.000	-0.016	0.327
-95.830	-61.691	-0.129	-0.053
-94.816	-164.562	0.166	-0.007
-93.801	550.416	-0.076	0.180
-92.786	800.000	-0.030	-0.105
-91.772	-200.000	-0.061	0.369
-90.757	-54.460	0.332	0.148
-89.743	479.068	-0.180	-0.402
-88.728	-98.928	-0.096	0.024
-87.713	-54.344	0.274	-0.123
-86.699	-200.000	0.016	-0.140
-85.684	-140.876	-0.217	-0.022
-84.670	383.045	0.040	-0.082
-83.655	172.365	-0.138	-0.195
-82.640	176.487	-0.186	0.267
-81.626	-136.340	-0.264	0.030
-80.611	74.047	-0.042	0.044
-79.597	85.444	-0.290	0.314
-78.582	22.539	0.124	-0.100
-77.567	24.936	0.151	-0.124
-76.553	296.169	0.191	-0.345
-75.538	800.000	-0.068	-0.275
-74.524	39.884	-0.162	0.143
-73.509	453.257	-0.109	0.238
-72.494	800.000	0.049	0.143
-71.480	-13.575	0.286	-0.182
-70.465	-75.251	0.104	0.037
-69.451	568.513	0.039	0.093
-68.436	-163.510	0.326	0.015
-67.422	-25.942	0.099	-0.057
-66.407	56.262	-0.137	0.131
-65.392	-34.082	0.321	-0.174
-64.378	-166.905	-0.047	0.002
-63.363	93.404	0.133	0.148
-62.349	-99.326	0.034	-0.008
-61.334	39.461	-1.086	-0.959
-60.319	341.280	0.328	0.631
-59.305	-200.000	-0.173	-0.883
-58.290	262.533	0.744	1.272
-57.276	800.000	0.433	1.500
-56.261	-200.000	95.780	583.176
-55.246	532.279	1414.976	3298.880
-54.232	154.206	2593.664	3505.935
-53.217	112.160	2175.395	2590.500
-52.203	43.976	1624.312	1466.373
-51.188	35.401	1358.290	1173.988
-50.173	32.230	1315.920	1118.488
-49.159	55.197	1362.438	1297.364
-48.144	56.937	1378.462	1323.069
-47.130	35.751	1338.118	1158.478
-46.115	32.280	1320.946	1122.882
-45.100	31.945	1316.272	1116.866
-44.086	31.840	1313.714	1114.031
-43.071	31.777	1311.624	1111.840
-42.057	31.812	1309.003	1109.778
-41.042	31.823	1307.351	1108.403
-40.027	31.810	1305.788	1106.957
-39.013	31.876	1303.981	1105.770
-37.998	31.901	1302.469	1104.587
-36.984	31.879	1300.496	1102.745
-35.969	32.023	1298.456	1101.816
-34.954	31.990	1296.338	1099.777
-33.940	31.938	1295.841	1099.012
-32.925	31.999	1294.273	1097.993
-31.911	31.980	1292.960	1096.725
-30.896	32.074	1291.020	1095.583
-29.881	32.119	1289.810	1094.778
-28.867	32.090	1288.335	1093.313
-27.852	31.958	1287.110	1091.460
-26.838	32.132	1285.410	1090.989
-25.823	32.119	1284.117	1089.774
-24.809	32.025	1282.864	1088.120
-23.794	31.992	1281.809	1086.991
-22.779	31.984	1280.186	1085.526
-21.765	31.952	1278.999	1084.291
-20.750	31.960	1277.867	1083.332
-19.736	31.857	1276.580	1081.607
-18.721	31.884	1275.272	1080.611
-17.706	31.908	1274.279	1079.862
-16.692	31.861	1272.549	1078.087
-15.677	31.766	1271.695	1076.772
-14.663	31.883	1270.513	1076.402
-13.648	32.038	1268.950	1075.922
-12.633	31.891	1268.415	1074.586
-11.619	31.789	1267.730	1073.380
-10.604	31.943	1266.540	1073.206
-9.590	31.891	1265.454	1071.951
-8.575	31.935	1264.596	1071.429
-7.560	31.765	1264.383	1070.238
-6.546	31.824	1263.353	1069.659
-5.531	31.868	1261.860	1068.605
-4.517	31.782	1261.271	1067.573
-3.502	31.817	1260.749	1067.288
-2.487	31.902	1259.077	1066.311
-1.473	31.965	1255.501	1063.600
-0.458	31.041	1241.064	1046.147
0.556	26.592	1224.549	1011.836
1.571	22.818	1230.958	995.796
2.586	21.560	1245.713	1000.458
3.600	20.891	1233.629	986.874
4.615	15.276	1159.297	897.357
5.629	5.515	1080.824	787.616
6.644	0.855	1060.028	749.356
7.659	0.308	1057.762	744.982
8.673	0.234	1056.299	743.521
9.688	0.295	1055.043	742.874
10.702	0.582	1053.458	743.104
11.717	5.930	1060.992	774.806
12.731	14.645	1071.928	826.022
13.746	17.843	1074.950	844.121
14.761	17.199	1073.819	839.976
15.775	16.180	1071.854	833.332
16.790	15.280	1069.384	826.903
17.804	14.452	1068.448	822.022
18.819	14.173	1067.341	819.727
19.834	13.921	1066.050	817.419
20.848	13.698	1065.229	815.621
21.863	13.504	1064.130	813.756
22.877	13.275	1063.572	812.132
23.892	13.222	1063.063	811.412
24.907	13.187	1062.326	810.603
25.921	13.161	1061.819	810.017
26.936	13.228	1060.953	809.617
27.950	13.314	1059.649	808.968
28.965	13.282	1058.784	808.083
29.980	13.529	1056.855	807.740
30.994	13.547	1055.898	807.025
32.009	13.576	1055.128	806.506
33.023	13.534	1053.960	805.337
34.038	13.442	1053.356	804.361
35.053	13.409	1052.393	803.393
36.067	13.397	1051.546	802.616
37.082	13.365	1050.896	801.896
38.096	13.483	1049.911	801.642
39.111	13.501	1049.213	801.125
40.126	13.486	1048.088	800.123
41.140	13.231	1046.986	797.983
42.155	13.161	1045.624	796.533
43.169	13.195	1044.661	795.895
44.184	13.259	1043.529	795.270
45.199	13.277	1042.759	794.698
46.213	13.307	1041.703	793.969
47.228	13.175	1040.885	792.640
48.242	13.350	1039.784	792.571
49.257	13.304	1038.693	791.451
50.271	13.409	1037.609	791.053
51.286	13.341	1036.706	789.973
52.301	13.448	1035.840	789.754
53.315	13.271	1035.094	788.272
54.330	13.292	1033.995	787.464
55.344	13.258	1033.010	786.483
56.359	13.406	1032.281	786.562
57.374	13.337	1031.538	785.597
58.388	13.192	1030.577	784.109
59.403	13.229	1029.554	783.434
60.417	13.117	1029.169	782.541
61.432	13.183	1028.202	782.050
62.447	13.196	1027.463	781.480
63.461	13.192	1026.294	780.502
64.476	13.198	1025.207	779.635
65.490	13.194	1024.483	778.999
66.505	13.212	1023.664	778.392
67.520	13.233	1023.311	778.152
68.534	13.281	1022.307	777.548
69.549	13.035	1022.074	776.142
70.563	13.247	1020.783	776.088
71.578	13.122	1020.419	775.158
72.593	13.087	1019.578	774.285
73.607	13.165	1018.750	773.956
74.622	13.233	1017.869	773.537
75.636	13.257	1017.194	773.063
76.651	12.999	1017.156	771.760
77.666	13.238	1016.431	772.262
78.680	13.197	1015.622	771.385
79.695	13.126	1014.780	770.347
80.709	13.212	1014.084	770.153
81.724	13.179	1013.491	769.477
82.739	13.179	1013.115	769.126
83.753	13.396	1011.754	769.032
84.768	13.447	1011.088	768.698
85.782	13.529	1009.932	768.131
86.797	13.423	1009.503	767.245
87.812	13.275	1008.570	765.783
88.826	13.363	1007.411	765.239
89.841	13.454	1006.313	764.759
90.855	13.337	1005.681	763.673
91.870	13.538	1004.506	763.637
92.884	13.558	1004.212	763.440
93.899	13.380	1003.331	761.881
94.914	13.502	1002.433	761.692
95.928	13.505	1001.497	760.928
96.943	13.442	1001.094	760.268
97.957	13.390	999.805	758.981
98.972	13.446	998.955	758.525
99.987	13.496	997.988	757.953
101.001	13.488	996.970	757.077
102.016	13.464	996.273	756.371
103.030	13.527	995.425	755.946
104.045	13.398	995.065	755.017
105.060	13.382	993.856	753.962
106.074	13.299	992.826	752.737
107.089	13.209	992.227	751.807
108.103	13.233	991.531	751.322
109.118	13.310	990.273	750.652
110.133	13.377	989.290	750.141
111.147	13.345	988.740	749.514
112.162	13.260	987.755	748.318
113.176	13.435	987.154	748.586
114.191	13.445	986.209	747.849
115.206	13.453	985.531	747.306
116.220	13.381	984.858	746.406
117.235	13.325	984.040	745.466
118.249	13.362	983.097	744.850
119.264	13.356	982.341	744.184
120.279	13.396	981.610	743.746
121.293	13.462	980.948	743.476
122.308	13.274	980.016	741.861
123.322	13.234	978.915	740.780
124.337	13.303	977.546	739.988
125.352	13.368	976.690	739.564
126.366	13.430	975.641	738.984
127.381	13.420	974.307	737.863
128.395	13.356	973.718	737.067
129.410	13.380	972.965	736.539
130.424	13.468	972.469	736.490
131.439	13.377	971.340	735.166
132.454	13.376	970.754	734.652
133.468	13.423	969.946	734.185
134.483	13.528	968.738	733.669
135.497	13.470	968.135	732.892
136.512	13.539	967.047	732.307
137.527	13.456	966.482	731.448
138.541	13.383	966.062	730.744
139.556	13.480	965.360	730.574
140.570	13.403	964.704	729.674
141.585	13.630	963.537	729.726
142.600	13.487	962.906	728.555
143.614	13.620	961.873	728.293
144.629	13.603	961.245	727.677
145.643	13.523	960.564	726.748
146.658	13.623	959.168	726.066
147.673	13.507	958.381	724.897
148.687	13.446	957.313	723.761
149.702	13.487	956.870	723.538
150.716	13.518	955.988	722.946
151.731	13.539	955.261	722.422
152.746	13.519	954.619	721.784
153.760	13.599	953.711	721.381
154.775	13.586	953.633	721.204
155.789	13.499	953.155	720.400
156.804	13.545	951.967	719.636
157.819	13.618	951.518	719.554
158.833	13.722	950.951	719.511
159.848	13.717	949.815	718.564
160.862	13.628	948.838	717.376
161.877	13.657	947.642	716.537
162.892	13.590	947.269	715.903
163.906	13.618	946.149	715.112
164.921	13.610	945.427	714.470
165.935	13.710	944.464	714.108
166.950	13.731	943.618	713.497
167.964	13.636	943.079	712.618
168.979	13.707	941.965	712.017
169.994	13.563	941.831	711.232
171.008	13.714	940.572	710.869
172.023	13.701	939.754	710.130
173.037	13.799	939.208	710.073
174.052	13.681	938.806	709.202
175.067	13.722	937.924	708.649
176.081	13.685	937.304	707.959
177.096	13.737	936.796	707.734
178.110	13.726	936.341	707.284
179.125	13.880	935.516	707.251
180.140	13.846	935.176	706.790
181.154	13.950	934.108	706.360
182.169	13.889	934.172	706.089
183.183	13.805	933.844	705.419
184.198	13.955	932.691	705.125
185.213	13.928	932.051	704.464
186.227	14.063	931.026	704.198
187.242	14.011	930.561	703.564
188.256	14.028	930.091	703.217
189.271	14.027	929.047	702.363
190.286	13.774	928.524	700.836
191.300	13.860	927.764	700.564
192.315	13.893	927.198	700.215
193.329	13.788	926.968	699.532
194.344	13.862	926.151	699.169
195.359	13.989	925.534	699.176
196.373	13.977	924.850	698.544
197.388	14.114	924.506	698.799
198.402	14.236	923.109	698.196
199.417	14.214	922.713	697.739
200.432	14.232	922.491	697.586
201.446	14.284	921.897	697.294
202.461	14.412	921.394	697.388
203.475	14.321	921.030	696.667
204.490	14.135	920.389	695.344
205.504	14.086	919.828	694.656
206.519	14.219	918.565	694.194
207.534	14.240	917.728	693.589
208.548	14.374	916.940	693.487
209.563	14.187	916.740	692.497
210.577	14.298	915.935	692.290
211.592	14.146	916.009	691.653
212.607	14.366	914.661	691.488
213.621	14.489	913.634	691.160
214.636	14.386	912.983	690.181
215.650	14.460	912.129	689.780
216.665	14.384	911.644	689.036
217.680	14.524	911.073	689.123
218.694	14.454	910.498	688.338
219.709	14.510	909.753	687.944
220.723	14.460	909.288	687.324
221.738	14.355	908.607	686.319
222.753	14.567	907.764	686.492
223.767	14.559	907.403	686.127
224.782	14.617	906.346	685.503
225.796	14.636	905.901	685.184
226.811	14.594	905.570	684.703
227.826	14.443	905.125	683.683
228.840	14.463	904.253	683.049
229.855	14.508	903.371	682.507
230.869	14.525	902.391	681.775
231.884	14.579	901.824	681.507
232.899	14.552	901.048	680.751
233.913	14.626	900.501	680.578
234.928	14.554	899.780	679.681
235.942	14.570	899.270	679.298
236.957	14.460	899.051	678.627
237.972	14.539	898.042	678.124
238.986	14.580	897.354	677.714
240.001	14.585	896.629	677.125
241.015	14.635	896.042	676.827
242.030	14.709	895.290	676.496
243.045	14.667	894.983	676.033
244.059	14.825	894.394	676.169
245.074	14.786	893.654	675.393
246.088	14.770	892.842	674.654
247.103	14.781	892.380	674.290
248.117	14.756	892.301	674.070
249.132	14.837	891.577	673.791
250.147	14.841	890.583	672.994
251.161	14.930	889.540	672.505
252.176	14.965	889.105	672.259
253.190	15.002	888.800	672.117
254.205	15.091	887.941	671.763
255.220	15.183	887.297	671.585
256.234	15.087	886.802	670.766
257.249	15.116	886.072	670.272
258.263	15.083	885.330	669.520
259.278	15.097	884.925	669.209
260.293	15.130	884.099	668.658
261.307	15.124	883.328	667.991
262.322	15.256	882.933	668.159
263.336	15.229	882.119	667.379
264.351	15.119	881.832	666.665
265.366	15.218	880.795	666.215
266.380	15.192	880.369	665.730
267.395	15.353	879.607	665.733
268.409	15.356	878.525	664.867
269.424	15.356	877.898	664.333
270.439	15.241	877.205	663.296
271.453	15.242	876.914	663.022
272.468	15.362	876.102	662.821
273.482	15.158	875.816	661.743
274.497	15.297	874.806	661.468
275.512	15.328	874.353	661.190
276.526	15.437	873.926	661.238
277.541	15.240	873.275	659.912
278.555	15.334	873.093	660.087
279.570	15.442	872.322	659.870
280.585	15.493	871.155	659.127
281.599	15.433	870.604	658.418
282.614	15.500	869.680	657.924
283.628	15.418	869.334	657.282
284.643	15.548	868.798	657.328
285.657	15.464	867.964	656.309
286.672	15.472	867.868	656.209
287.687	15.595	866.704	655.751
288.701	15.510	866.464	655.180
289.716	15.619	865.758	655.012
290.730	15.675	865.485	654.967
291.745	15.629	864.687	654.128
292.760	15.710	864.198	654.014
293.774	15.687	863.217	653.123
294.789	15.679	862.966	652.844
295.803	15.721	861.806	652.073
296.818	15.651	861.422	651.455
297.833	15.826	860.336	651.253
298.847	15.686	859.899	650.322
299.862	15.702	859.531	650.046
300.876	15.728	858.860	649.584
301.891	15.749	858.290	649.175
302.906	15.906	857.708	649.283
303.920	15.820	857.068	648.408
304.935	15.867	856.645	648.212
305.949	15.780	856.348	647.598
306.964	15.904	855.433	647.322
307.979	16.034	854.748	647.248
308.993	15.851	854.336	646.178
310.008	15.841	853.938	645.782
311.022	15.916	853.234	645.479
312.037	15.870	852.554	644.728
313.052	16.072	851.884	644.940
314.066	15.809	851.462	643.556
315.081	15.845	850.931	643.237
316.095	15.950	850.150	642.989
317.110	15.919	849.940	642.656
318.125	15.933	849.240	642.124
319.139	15.945	848.707	641.709
320.154	16.015	848.204	641.536
321.168	16.058	847.406	641.041
322.183	16.130	846.769	640.774
323.197	16.152	846.623	640.693
324.212	16.039	846.112	639.819
325.227	16.023	845.293	639.082
326.241	16.016	844.856	638.670
327.256	16.018	844.469	638.328
328.270	16.076	843.940	638.094
329.285	15.926	843.534	637.162
330.300	16.128	842.546	637.123
331.314	16.076	841.792	636.299
332.329	16.089	841.705	636.226
333.343	16.117	841.319	635.984
334.358	16.197	840.691	635.752
335.373	16.173	840.512	635.470
336.387	16.287	840.199	635.609
337.402	16.234	839.868	635.102
338.416	16.252	839.637	634.939
339.431	16.310	839.381	634.908
340.446	16.382	838.385	634.368
341.460	16.521	837.706	634.318
342.475	16.376	837.869	633.842
343.489	16.485	837.386	633.829
344.504	16.553	836.871	633.638
345.519	16.497	836.406	633.023
346.533	16.505	835.705	632.462
347.548	16.494	835.444	632.169
348.562	16.485	834.428	631.310
349.577	16.388	834.440	630.902
350.592	16.357	833.727	630.190
351.606	16.367	833.043	629.656
352.621	16.368	832.366	629.092
353.635	16.472	831.348	628.655
354.650	16.474	830.926	628.286
355.665	16.532	830.248	627.932
356.679	16.540	829.864	627.617
357.694	16.607	828.704	626.933
358.708	16.643	828.315	626.717
359.723	16.583	827.629	625.920
360.738	16.676	827.263	625.931
361.752	16.588	826.803	625.203
362.767	16.647	826.204	624.915
363.781	16.849	825.373	624.976
364.796	16.751	825.308	624.507
365.810	16.852	824.628	624.311
366.825	16.849	824.328	624.019
367.840	16.829	823.916	623.575
368.854	16.713	823.704	622.935
369.869	16.716	823.115	622.445
370.883	16.919	822.462	622.642
371.898	16.884	822.376	622.392
372.913	16.865	821.983	621.971
373.927	16.924	821.381	621.677
374.942	16.935	820.674	621.127
375.956	16.973	820.508	621.084
376.971	17.026	820.049	620.878
377.986	16.954	819.901	620.447
379.000	17.157	819.128	620.549
380.015	17.067	818.650	619.803
381.029	17.140	817.564	619.192
382.044	17.128	816.892	618.585
383.059	17.107	816.929	618.481
384.073	17.130	816.306	618.040
385.088	17.023	815.576	617.041
386.102	17.110	814.911	616.799
387.117	17.068	814.333	616.157
388.132	16.948	814.409	615.724
389.146	17.036	813.691	615.443
390.161	17.266	812.907	615.629
391.175	17.276	812.385	615.216
392.190	17.210	811.848	614.517
393.205	17.238	811.489	614.292
394.219	17.077	811.561	613.712
395.234	17.122	810.972	613.373
396.248	17.147	810.179	612.810
397.263	17.182	809.716	612.532
398.278	17.072	809.946	612.255
399.292	17.094	809.353	611.831
400.307	17.105	809.122	611.642
401.321	17.291	808.434	611.736
402.336	17.284	807.631	611.051
403.350	17.291	807.065	610.592
404.365	17.253	806.888	610.267
405.380	17.292	806.592	610.131
406.394	17.433	805.744	609.939
407.409	17.468	805.426	609.770
408.423	17.449	805.149	609.441
409.438	17.414	804.873	609.053
410.453	17.562	804.297	609.091
411.467	17.538	803.880	608.635
412.482	17.583	803.347	608.339
413.496	17.517	803.109	607.869
414.511	17.669	802.773	608.103
415.526	17.521	802.381	607.226
416.540	17.524	801.702	606.669
417.555	17.812	801.073	607.165
418.569	17.618	800.925	606.308
419.584	17.692	800.200	605.969
420.599	17.612	799.936	605.430
421.613	107.604	1287.001	1457.900
422.628	92.591	1357.964	1458.023
