DTS Sentinel unit serial number:	SN413079Multiplexer serial number:	ORYXHardware model number:	OX4-SRSoftware version number:	ORYX F/W v4.00 Oryx Data Collector v3.7.2.0data status	okinstallation	princeton_trtdifferential loss correction	single-endedforward channel	channel 1reverse channel	N/Adate	2019/09/15time	03:18:35forward acquisition time	60.00reverse acquisition time	0.00gamma	496.2192k internal	0.2323k external	0.2323temperature offset calibration	0.9990default loss term (dB/km)	0.3790temperature slope calibration	1.0000multiplexer offset coefficient	1.0000multiplexer slope coefficient	1.0000fibre end	0.00T internal ref (°C)	31.06T ext. ref 1 (°C)	4.59T ext. ref 2 (°C)	25.70length (m)	temperature (°C)	Stokes	anti-Stokes-747.200	17.593	-0.103	-0.083
-746.185	-153.772	-0.104	0.007
-745.171	176.590	0.149	-0.219
-744.156	-200.000	-0.010	0.227
-743.142	-66.688	-0.264	0.106
-742.127	88.607	-0.254	0.286
-741.112	72.099	-0.178	0.187
-740.098	364.263	0.112	0.228
-739.083	-135.483	-0.258	0.031
-738.069	433.694	-0.108	0.236
-737.054	12.487	0.138	0.108
-736.039	531.708	-0.059	0.140
-735.025	61.855	0.189	-0.190
-734.010	560.028	-0.019	-0.046
-732.996	-200.000	-0.057	-0.481
-731.981	-200.000	-0.082	-0.371
-730.966	-120.489	-0.199	-0.034
-729.952	-25.813	0.159	-0.094
-728.937	3.570	-0.108	-0.080
-727.923	800.000	-0.108	-0.397
-726.908	-43.524	-0.040	-0.020
-725.894	363.850	-0.111	0.225
-724.879	141.582	-0.176	0.235
-723.864	-200.000	0.028	0.193
-722.850	261.996	-0.155	0.272
-721.835	156.036	-0.033	-0.046
-720.821	-64.522	0.123	0.050
-719.806	-134.595	0.148	0.018
-718.791	-142.738	-0.170	0.017
-717.777	800.000	0.027	-0.116
-716.762	-155.381	-0.139	0.009
-715.748	503.123	0.100	-0.233
-714.733	-31.517	-0.137	-0.077
-713.718	-200.000	-0.009	-0.160
-712.704	800.000	-0.080	-0.255
-711.689	-77.993	-0.339	0.118
-710.675	-59.923	-0.199	-0.086
-709.660	76.973	0.129	-0.138
-708.645	33.974	0.058	0.051
-707.631	58.072	-0.103	0.101
-706.616	21.847	0.209	0.171
-705.602	-147.118	-0.135	-0.012
-704.587	-88.416	-0.088	-0.026
-703.572	376.908	0.122	0.251
-702.558	-31.586	-0.228	-0.129
-701.543	-189.056	0.302	-0.004
-700.529	53.064	-0.178	0.172
-699.514	-200.000	-0.049	-0.218
-698.499	90.836	-0.099	-0.112
-697.485	-183.681	0.305	0.005
-696.470	-1.845	-0.249	0.176
-695.456	625.845	0.122	-0.309
-694.441	-200.000	-0.016	-0.361
-693.426	362.394	0.134	0.272
-692.412	-200.000	0.004	0.026
-691.397	-0.500	0.152	0.109
-690.383	-103.865	0.135	-0.032
-689.368	6.099	-0.198	0.148
-688.354	-40.135	-0.183	0.096
-687.339	-24.482	-0.207	-0.124
-686.324	800.000	-0.107	-0.300
-685.310	-94.430	0.115	0.032
-684.295	-107.114	0.396	0.088
-683.281	-72.293	-0.156	0.058
-682.266	-200.000	-0.011	-0.114
-681.251	-200.000	0.023	-0.327
-680.237	-84.541	-0.180	0.057
-679.222	621.512	-0.041	0.104
-678.208	722.300	0.105	0.281
-677.193	789.819	0.113	-0.313
-676.178	-63.335	0.121	-0.050
-675.164	-46.022	0.101	-0.050
-674.149	-1.600	0.120	0.085
-673.135	800.000	-0.051	-0.152
-672.120	-94.863	-0.120	-0.033
-671.105	298.231	-0.052	-0.097
-670.091	231.664	-0.055	-0.091
-669.076	-200.000	-0.046	0.271
-668.062	252.239	-0.052	-0.090
-667.047	134.783	-0.139	-0.182
-666.032	154.416	0.176	0.244
-665.018	45.633	-0.226	0.210
-664.003	-63.357	-0.206	0.085
-662.989	23.421	-0.131	-0.109
-661.974	-200.000	0.012	0.060
-660.959	43.433	-0.103	0.095
-659.945	-30.683	-0.148	0.085
-658.930	-200.000	-0.005	0.469
-657.916	58.113	-0.053	0.052
-656.901	800.000	0.034	-0.114
-655.886	-86.722	0.190	0.059
-654.872	16.985	-0.222	-0.177
-653.857	-4.166	-0.255	-0.178
-652.843	562.276	-0.028	0.069
-651.828	-131.768	-0.193	0.025
-650.814	-200.000	-0.013	-0.206
-649.799	169.368	-0.215	-0.309
-648.784	-147.764	0.299	-0.025
-647.770	28.434	-0.307	-0.261
-646.755	-200.000	-0.043	0.219
-645.741	-180.679	-0.413	0.009
-644.726	-68.273	-0.054	-0.021
-643.711	7.827	0.019	-0.015
-642.697	800.000	-0.086	-0.304
-641.682	584.780	-0.018	0.046
-640.668	-79.970	0.314	-0.106
-639.653	-135.757	0.159	0.019
-638.638	-40.717	-0.053	-0.028
-637.624	87.523	-0.051	0.057
-636.609	3.302	-0.073	-0.054
-635.595	-200.000	-0.006	-0.056
-634.580	-140.125	0.234	0.025
-633.565	57.788	-0.150	-0.147
-632.551	16.013	0.229	-0.181
-631.536	354.663	0.092	0.184
-630.522	-89.020	0.386	-0.115
-629.507	-49.831	0.264	-0.126
-628.492	127.393	0.064	0.081
-627.478	-72.238	-0.049	-0.018
-626.463	72.094	-0.076	-0.079
-625.449	639.841	0.132	-0.338
-624.434	-200.000	-0.010	-0.119
-623.419	77.521	0.149	-0.160
-622.405	-200.000	0.053	-0.259
-621.390	-200.000	-0.049	-0.396
-620.376	-8.154	0.314	-0.212
-619.361	800.000	0.014	0.039
-618.346	-171.793	-0.327	0.011
-617.332	-12.029	-0.117	0.077
-616.317	528.016	-0.095	0.224
-615.303	533.829	0.116	-0.276
-614.288	174.222	-0.194	-0.282
-613.273	800.000	0.035	0.115
-612.259	-1.679	0.338	0.239
-611.244	-130.137	0.133	0.018
-610.230	-200.000	0.004	-0.126
-609.215	246.792	0.031	0.053
-608.201	115.051	-0.048	-0.059
-607.186	-3.485	-0.170	0.119
-606.171	137.169	0.264	0.346
-605.157	800.000	0.020	0.055
-604.142	-127.203	-0.074	-0.011
-603.128	800.000	0.063	-0.201
-602.113	-180.627	0.306	0.006
-601.098	-64.865	-0.147	0.060
-600.084	226.508	-0.115	0.187
-599.069	800.000	0.031	0.100
-598.055	127.464	0.192	-0.245
-597.040	-93.191	0.082	-0.023
-596.025	117.151	-0.119	-0.147
-595.011	39.833	-0.300	0.271
-593.996	-42.148	-0.195	0.100
-592.982	-200.000	-0.002	0.096
-591.967	82.668	0.043	0.047
-590.952	-95.891	-0.216	-0.058
-589.938	-135.037	0.190	0.023
-588.923	219.493	-0.111	0.178
-587.909	327.796	-0.119	0.229
-586.894	247.593	-0.112	-0.190
-585.879	364.023	0.136	-0.274
-584.865	331.819	0.276	-0.533
-583.850	394.597	-0.061	0.128
-582.836	-131.316	0.353	-0.047
-581.821	21.235	0.146	-0.119
-580.806	62.507	-0.210	-0.210
-579.792	-124.984	-0.253	0.039
-578.777	2.454	0.217	0.158
-577.763	292.377	-0.124	0.226
-576.748	11.441	0.256	0.197
-575.733	-68.076	0.129	-0.050
-574.719	-89.492	-0.273	0.081
-573.704	-138.512	0.243	-0.027
-572.690	39.632	-0.190	-0.171
-571.675	619.252	0.018	0.044
-570.661	-0.388	0.199	-0.142
-569.646	91.869	0.120	-0.135
-568.631	85.870	0.212	-0.234
-567.617	124.952	-0.330	-0.417
-566.602	-200.000	0.056	-0.287
-565.588	-200.000	0.011	-0.155
-564.573	90.185	-0.268	-0.300
-563.558	-39.040	-0.189	0.099
-562.544	-113.473	-0.205	0.040
-561.529	125.475	-0.140	0.177
-560.515	-76.761	-0.253	0.089
-559.500	-60.827	0.211	0.090
-558.485	-144.491	0.004	0.000
-557.471	418.871	-0.053	0.114
-556.456	142.462	-0.186	-0.247
-555.442	-10.744	-0.259	-0.172
-554.427	49.128	0.131	0.123
-553.412	-11.046	0.178	-0.118
-552.398	-106.204	-0.195	0.044
-551.383	-187.663	0.252	0.003
-550.369	-27.187	-0.197	0.115
-549.354	74.571	-0.040	-0.042
-548.339	65.184	0.104	-0.106
-547.325	-112.415	-0.104	0.021
-546.310	762.964	0.047	-0.127
-545.296	-77.338	0.225	-0.078
-544.281	-92.522	0.259	-0.073
-543.266	543.400	-0.126	0.300
-542.252	-10.773	-0.089	0.059
-541.237	-200.000	0.020	-0.147
-540.223	-43.411	-0.371	-0.188
-539.208	-75.306	-0.159	0.057
-538.193	291.498	-0.164	0.298
-537.179	144.337	-0.024	-0.032
-536.164	544.065	-0.016	0.038
-535.150	-78.466	-0.233	-0.080
-534.135	239.398	0.190	0.316
-533.121	-92.748	0.178	-0.050
-532.106	71.419	-0.103	-0.107
-531.091	-44.818	0.215	-0.107
-530.077	-200.000	0.001	0.024
-529.062	100.580	-0.076	-0.089
-528.048	800.000	-0.039	0.112
-527.033	-19.925	0.157	0.097
-526.018	-30.694	-0.201	-0.114
-525.004	-73.971	0.057	-0.021
-523.989	266.638	0.131	0.229
-522.975	-200.000	-0.030	0.400
-521.960	800.000	-0.056	-0.178
-520.945	-40.535	0.381	-0.198
-519.931	44.435	-0.097	-0.089
-518.916	34.767	-0.117	-0.103
-517.902	-91.426	0.308	0.088
-516.887	97.397	0.076	-0.088
-515.872	42.972	0.173	-0.158
-514.858	-168.103	0.322	0.013
-513.843	-72.607	0.150	-0.055
-512.829	-109.829	-0.197	-0.041
-511.814	800.000	-0.066	0.273
-510.799	-171.279	0.219	-0.007
-509.785	-200.000	-0.029	-0.237
-508.770	30.705	0.100	0.085
-507.756	337.349	-0.103	0.200
-506.741	183.157	-0.099	0.147
-505.726	128.772	0.116	0.148
-504.712	800.000	0.044	0.126
-503.697	-20.178	0.034	-0.021
-502.683	17.782	-0.060	0.048
-501.668	111.720	0.188	-0.227
-500.653	788.882	-0.109	0.300
-499.639	425.993	0.077	-0.166
-498.624	265.423	0.061	-0.106
-497.610	90.263	0.333	0.372
-496.595	-88.118	-0.078	0.023
-495.581	24.834	0.213	0.176
-494.566	67.888	0.319	-0.327
-493.551	-70.137	-0.185	0.070
-492.537	-7.775	-0.153	-0.104
-491.522	-98.480	0.254	-0.065
-490.508	-45.093	-0.057	0.028
-489.493	-70.991	-0.592	-0.223
-488.478	-117.941	0.200	-0.036
-487.464	70.149	0.243	0.251
-486.449	-26.465	0.302	0.177
-485.435	-42.795	0.266	0.135
-484.420	-200.000	0.032	-0.186
-483.405	102.859	-0.044	0.051
-482.391	-88.769	-0.384	-0.114
-481.376	207.376	-0.088	-0.138
-480.362	131.173	0.057	-0.073
-479.347	-54.715	0.180	0.081
-478.332	-29.756	-0.199	-0.114
-477.318	-11.890	0.158	-0.103
-476.303	59.163	-0.220	-0.217
-475.289	-30.333	-0.007	0.004
-474.274	-18.499	0.110	0.069
-473.259	-200.000	-0.027	0.337
-472.245	84.734	0.287	-0.314
-471.230	-156.041	0.309	-0.020
-470.216	800.000	-0.083	0.267
-469.201	-200.000	0.025	0.140
-468.186	-70.464	-0.224	-0.085
-467.172	-200.000	0.002	0.343
-466.157	11.568	-0.405	-0.310
-465.143	-200.000	0.006	0.068
-464.128	800.000	0.055	-0.166
-463.113	-134.787	0.176	-0.021
-462.099	-59.885	0.426	-0.182
-461.084	68.123	-0.082	-0.084
-460.070	-99.919	-0.251	-0.063
-459.055	-116.615	-0.093	0.017
-458.040	538.243	0.135	0.319
-457.026	800.000	0.045	-0.130
-456.011	-200.000	-0.005	-0.138
-454.997	-200.000	-0.042	0.274
-453.982	103.573	0.116	-0.136
-452.968	-71.288	-0.291	0.109
-451.953	-40.170	-0.281	-0.146
-450.938	155.131	-0.155	0.213
-449.924	-34.501	-0.079	0.043
-448.909	306.879	-0.151	0.281
-447.895	-200.000	0.019	-0.200
-446.880	393.330	-0.036	0.074
-445.865	84.620	-0.064	-0.069
-444.851	-40.422	0.087	-0.045
-443.836	-37.917	-0.157	-0.083
-442.822	800.000	-0.082	0.313
-441.807	294.475	0.163	0.297
-440.792	-88.558	0.371	-0.110
-439.778	131.560	0.143	0.184
-438.763	-112.936	0.440	-0.087
-437.749	245.250	0.255	0.429
-436.734	-96.496	-0.184	-0.048
-435.719	-69.913	0.386	0.147
-434.705	-116.502	-0.492	-0.091
-433.690	502.948	0.038	0.088
-432.676	-200.000	-0.017	0.160
-431.661	112.049	0.097	0.116
-430.646	-129.806	0.128	0.018
-429.632	-166.705	0.225	-0.009
-428.617	62.464	-0.279	0.278
-427.603	558.973	-0.048	0.115
-426.588	-200.000	0.010	0.118
-425.573	0.231	0.180	-0.128
-424.559	-43.981	0.176	0.088
-423.544	-118.922	-0.182	-0.032
-422.530	-100.823	0.167	-0.041
-421.515	-134.009	0.152	0.019
-420.500	800.000	-0.016	-0.052
-419.486	34.179	0.229	0.199
-418.471	143.619	-0.201	-0.267
-417.457	189.628	0.149	0.223
-416.442	37.611	0.082	0.072
-415.428	142.804	-0.155	0.206
-414.413	-97.586	0.212	0.055
-413.398	-200.000	0.011	0.152
-412.384	-133.841	-0.266	0.033
-411.369	490.649	0.105	-0.239
-410.355	34.995	0.133	0.116
-409.340	44.795	0.082	0.075
-408.325	76.676	0.129	0.137
-407.311	-200.000	0.012	0.092
-406.296	-29.788	0.147	-0.083
-405.282	-74.362	-0.245	-0.088
-404.267	-200.000	-0.004	0.490
-403.252	6.227	-0.327	0.241
-402.238	-133.748	0.054	0.007
-401.223	564.306	-0.078	-0.189
-400.209	-133.597	-0.224	0.028
-399.194	800.000	-0.021	0.080
-398.179	800.000	-0.117	-0.346
-397.165	-105.122	-0.388	-0.088
-396.150	100.769	-0.232	-0.269
-395.136	-171.271	-0.078	-0.003
-394.121	-149.565	0.264	-0.021
-393.106	274.001	-0.038	-0.068
-392.092	21.768	0.129	0.105
-391.077	-200.000	0.040	-0.192
-390.063	-73.713	-0.302	0.109
-389.048	210.727	-0.018	0.029
-388.033	95.983	-0.365	0.415
-387.019	-15.758	-0.040	0.025
-386.004	-200.000	0.012	-0.184
-384.990	-140.570	0.123	-0.013
-383.975	-160.545	-0.030	-0.002
-382.960	4.726	-0.125	-0.092
-381.946	610.864	0.095	-0.236
-380.931	415.762	-0.099	-0.210
-379.917	385.307	0.167	-0.342
-378.902	-113.424	0.104	0.020
-377.888	-77.681	-0.320	-0.110
-376.873	800.000	0.039	0.133
-375.858	34.989	0.174	-0.152
-374.844	-85.452	-0.159	0.049
-373.829	261.011	-0.119	-0.205
-372.815	85.572	-0.068	-0.074
-371.800	-200.000	-0.008	-0.051
-370.785	800.000	-0.074	-0.294
-369.771	-153.782	-0.131	0.009
-368.756	-8.678	0.349	-0.233
-367.742	70.779	0.132	0.136
-366.727	-199.057	0.154	-0.001
-365.712	-102.900	-0.159	-0.038
-364.698	339.252	-0.144	-0.279
-363.683	-200.000	-0.002	0.139
-362.669	359.170	-0.070	-0.140
-361.654	116.929	0.013	0.016
-360.639	-125.898	-0.120	-0.018
-359.625	247.834	0.103	0.173
-358.610	-97.386	0.211	0.055
-357.596	800.000	0.050	-0.179
-356.581	-105.224	-0.322	-0.073
-355.566	-4.125	0.221	0.152
-354.552	-121.112	-0.544	-0.091
-353.537	-150.794	0.335	0.025
-352.523	235.912	0.149	0.245
-351.508	745.401	0.092	0.247
-350.493	54.957	0.122	0.117
-349.479	71.804	-0.350	-0.361
-348.464	-93.285	0.152	-0.042
-347.450	84.780	-0.112	0.122
-346.435	-101.995	0.212	-0.051
-345.420	-190.702	0.150	-0.002
-344.406	-113.354	0.149	-0.029
-343.391	0.772	0.117	-0.084
-342.377	-67.025	0.156	0.061
-341.362	800.000	-0.078	0.327
-340.348	-54.247	-0.254	0.114
-339.333	57.928	-0.132	0.128
-338.318	-106.233	-0.328	0.073
-337.304	25.904	0.106	0.088
-336.289	351.478	0.226	0.445
-335.275	-143.254	0.179	0.017
-334.260	-80.143	0.151	-0.050
-333.245	800.000	-0.072	-0.243
-332.231	321.390	0.057	0.108
-331.216	800.000	0.046	0.161
-330.202	800.000	0.017	-0.050
-329.187	-200.000	-0.040	-0.315
-328.172	-46.817	-0.338	-0.164
-327.158	800.000	-0.079	0.217
-326.143	59.703	-0.199	0.195
-325.129	179.726	0.125	-0.181
-324.114	-143.458	0.258	-0.024
-323.099	800.000	0.069	0.289
-322.085	-78.427	0.171	0.058
-321.070	800.000	-0.023	-0.084
-320.056	6.626	-0.305	0.225
-319.041	261.481	0.030	0.052
-318.026	-200.000	-0.009	0.216
-317.012	-136.423	0.200	-0.023
-315.997	-19.810	0.215	-0.132
-314.983	-113.647	-0.193	0.037
-313.968	290.747	0.076	-0.138
-312.953	800.000	-0.010	0.044
-311.939	15.483	-0.347	0.271
-310.924	132.756	-0.205	-0.262
-309.910	34.187	-0.163	-0.141
-308.895	281.149	0.166	0.296
-307.880	203.502	0.121	-0.185
-306.866	-51.702	-0.238	-0.110
-305.851	-200.000	0.056	-0.290
-304.837	800.000	-0.063	0.180
-303.822	30.388	0.165	0.140
-302.807	-114.466	0.315	-0.060
-301.793	25.842	-0.200	0.165
-300.778	-200.000	-0.005	-0.176
-299.764	-200.000	-0.026	-0.114
-298.749	345.641	0.156	-0.304
-297.735	800.000	-0.133	0.387
-296.720	278.982	0.091	0.161
-295.705	62.945	-0.164	0.163
-294.691	104.692	-0.044	0.051
-293.676	-200.000	0.005	0.325
-292.662	-81.002	-0.161	0.053
-291.647	-166.060	-0.424	-0.018
-290.632	-200.000	0.026	-0.113
-289.618	443.596	0.099	-0.215
-288.603	71.299	-0.127	0.131
-287.589	379.874	0.066	-0.134
-286.574	-40.781	0.261	0.134
-285.559	-200.000	0.004	-0.128
-284.545	-124.185	-0.147	-0.023
-283.530	-200.000	-0.004	-0.401
-282.516	-200.000	0.061	0.368
-281.501	-32.026	-0.046	-0.026
-280.486	-200.000	-0.034	-0.159
-279.472	306.297	-0.092	0.169
-278.457	201.398	-0.062	-0.094
-277.443	59.354	0.132	0.129
-276.428	99.160	-0.272	-0.311
-275.413	194.425	0.092	0.138
-274.399	-200.000	-0.255	0.001
-273.384	-200.000	-0.003	-0.018
-272.370	-139.032	-0.332	0.036
-271.355	377.555	-0.083	0.168
-270.340	454.349	-0.112	-0.245
-269.326	800.000	-0.081	-0.276
-268.311	91.875	0.162	-0.181
-267.297	-103.896	0.257	0.059
-266.282	4.218	-0.307	0.223
-265.267	134.126	-0.110	0.141
-264.253	-200.000	0.003	0.036
-263.238	-105.794	0.274	-0.061
-262.224	-45.168	0.119	0.059
-261.209	800.000	-0.050	-0.194
-260.195	-44.715	0.329	0.163
-259.180	-79.674	-0.203	-0.068
-258.165	-200.000	0.056	-0.340
-257.151	-200.000	0.013	-0.156
-256.136	-200.000	0.027	-0.118
-255.122	207.425	0.148	-0.229
-254.107	388.705	-0.170	-0.348
-253.092	-200.000	-0.058	0.304
-252.078	215.222	0.158	-0.248
-251.063	415.173	0.195	0.413
-250.049	-105.184	0.247	-0.056
-249.034	-200.000	0.012	0.253
-248.019	-200.000	0.038	0.180
-247.005	-200.000	0.014	0.253
-245.990	384.835	0.127	0.258
-244.976	8.558	-0.238	-0.177
-243.961	800.000	-0.035	0.107
-242.946	35.127	-0.129	-0.112
-241.932	-140.842	-0.224	-0.023
-240.917	800.000	-0.123	0.355
-239.903	800.000	-0.073	0.228
-238.888	-42.213	0.224	0.113
-237.873	132.048	0.169	0.215
-236.859	-200.000	0.008	-0.075
-235.844	57.055	0.253	0.244
-234.830	-61.640	-0.296	-0.123
-233.815	-100.382	-0.322	0.079
-232.800	547.352	-0.033	0.078
-231.786	-89.440	0.242	-0.071
-230.771	55.216	-0.101	-0.097
-229.757	-72.422	0.127	-0.046
-228.742	-55.475	0.126	-0.056
-227.727	800.000	0.015	-0.043
-226.713	-101.055	0.385	0.094
-225.698	800.000	-0.025	-0.082
-224.684	-6.744	-0.202	0.136
-223.669	12.639	0.057	-0.043
-222.655	-34.949	-0.312	-0.168
-221.640	109.452	0.153	0.181
-220.625	-34.420	0.162	-0.088
-219.611	382.354	0.063	0.127
-218.596	190.210	0.202	-0.300
-217.582	-71.393	0.141	-0.052
-216.567	-120.820	-0.299	-0.050
-215.552	-189.290	0.022	-0.000
-214.538	-15.022	-0.216	-0.137
-213.523	353.111	-0.084	0.164
-212.509	688.325	-0.099	-0.257
-211.494	-67.782	0.053	-0.021
-210.479	5.779	0.256	0.188
-209.465	-200.000	0.028	0.199
-208.450	-200.000	-0.013	0.070
-207.436	-156.837	-0.246	-0.015
-206.421	-86.859	0.048	0.015
-205.406	-85.409	0.285	0.088
-204.392	-200.000	-0.072	0.336
-203.377	140.317	-0.100	0.131
-202.363	175.588	-0.364	-0.521
-201.348	800.000	-0.164	-0.459
-200.333	90.750	-0.204	0.225
-199.319	-95.879	0.097	0.026
-198.304	-52.790	-0.055	-0.025
-197.290	-200.000	0.013	-0.306
-196.275	-37.700	0.084	0.044
-195.260	243.625	0.112	0.186
-194.246	-200.000	-0.016	0.080
-193.231	562.690	0.039	0.094
-192.217	26.645	-0.216	0.179
-191.202	-66.559	0.196	-0.077
-190.187	18.634	0.112	-0.089
-189.173	-200.000	-0.026	-0.163
-188.158	-0.625	0.229	0.161
-187.144	-134.450	0.179	-0.022
-186.129	-74.493	0.251	0.089
-185.114	-144.036	-0.285	-0.026
-184.100	-32.958	-0.367	-0.201
-183.085	196.943	0.137	-0.207
-182.071	121.171	-0.152	-0.187
-181.056	800.000	-0.033	-0.142
-180.042	317.072	-0.137	0.255
-179.027	119.248	-0.230	0.281
-178.012	-200.000	0.022	0.405
-176.998	120.514	-0.086	0.105
-175.983	80.327	-0.209	-0.222
-174.969	-180.791	-0.294	-0.006
-173.954	106.358	0.098	0.115
-172.939	-88.325	-0.112	0.033
-171.925	-5.212	-0.270	-0.183
-170.910	-151.455	-0.161	0.012
-169.896	60.009	0.082	0.080
-168.881	-143.354	-0.249	-0.024
-167.866	800.000	-0.066	0.255
-166.852	-72.157	0.453	-0.166
-165.837	-108.046	-0.172	-0.037
-164.823	709.849	0.038	0.100
-163.808	188.668	0.068	0.100
-162.793	-78.477	-0.237	0.080
-161.779	74.071	0.230	0.238
-160.764	-56.193	-0.106	-0.047
-159.750	19.919	0.265	-0.211
-158.735	594.379	0.058	0.142
-157.720	261.922	-0.167	0.285
-156.706	1.403	0.310	0.220
-155.691	-123.717	-0.070	-0.011
-154.677	99.134	0.205	-0.233
-153.662	-137.521	-0.109	0.012
-152.647	-200.000	0.037	-0.369
-151.633	9.506	0.123	-0.092
-150.618	16.907	-0.196	0.153
-149.604	-36.133	0.077	0.041
-148.589	134.628	-0.121	-0.155
-147.574	-200.000	-0.014	-0.102
-146.560	-138.798	-0.431	0.046
-145.545	-92.379	-0.166	0.046
-144.531	128.754	0.145	-0.182
-143.516	-78.068	-0.188	-0.064
-142.502	-200.000	-0.016	0.432
-141.487	35.252	0.042	-0.036
-140.472	800.000	-0.097	0.283
-139.458	-147.875	0.387	0.032
-138.443	53.753	-0.193	0.183
-137.429	-200.000	-0.010	-0.325
-136.414	-200.000	0.045	0.224
-135.399	174.476	-0.144	0.206
-134.385	-200.000	-0.037	0.184
-133.370	767.724	-0.065	-0.174
-132.356	800.000	-0.009	-0.026
-131.341	187.358	0.068	-0.100
-130.326	-200.000	-0.110	0.480
-129.312	-96.575	-0.135	-0.035
-128.297	35.178	0.108	-0.093
-127.283	158.318	0.048	0.066
-126.268	-59.611	-0.280	-0.118
-125.253	164.352	0.056	-0.077
-124.239	-200.000	-0.032	0.270
-123.224	800.000	0.063	0.245
-122.210	-200.000	0.041	0.209
-121.195	-200.000	0.004	-0.250
-120.180	156.709	0.182	0.248
-119.166	-160.962	-0.325	0.017
-118.151	211.212	-0.105	-0.163
-117.137	-10.135	-0.303	-0.198
-116.122	129.042	0.258	0.324
-115.107	-200.000	-0.019	-0.121
-114.093	46.116	0.053	0.048
-113.078	133.232	-0.030	-0.038
-112.064	38.407	0.117	0.103
-111.049	-13.095	-0.066	-0.042
-110.034	-127.910	-0.328	0.047
-109.020	-81.202	0.107	-0.035
-108.005	23.341	0.016	-0.013
-106.991	-200.000	-0.017	0.208
-105.976	-200.000	-0.037	0.374
-104.962	171.848	0.068	0.096
-103.947	-109.097	0.288	-0.060
-102.932	-117.553	0.234	-0.042
-101.918	-156.168	0.185	0.011
-100.903	800.000	0.042	-0.151
-99.889	-38.002	0.356	0.186
-98.874	64.953	-0.323	0.321
-97.859	75.218	-0.082	0.085
-96.845	-62.020	0.166	-0.068
-95.830	-84.465	0.023	-0.007
-94.816	254.096	0.028	0.047
-93.801	10.476	-0.291	-0.218
-92.786	-200.000	0.011	0.156
-91.772	-194.919	-0.171	-0.001
-90.757	-79.634	0.027	0.009
-89.743	357.746	0.070	0.138
-88.728	14.931	0.158	-0.122
-87.713	137.868	0.217	-0.279
-86.699	214.729	-0.195	-0.305
-85.684	-69.211	0.048	-0.018
-84.670	397.747	-0.043	-0.088
-83.655	630.798	0.013	0.032
-82.640	355.294	-0.064	-0.126
-81.626	-89.622	-0.401	-0.116
-80.611	-200.000	-0.003	-0.201
-79.597	-200.000	0.038	0.175
-78.582	39.233	-0.037	0.032
-77.567	800.000	-0.045	-0.148
-76.553	-76.116	0.043	0.015
-75.538	392.948	0.091	-0.187
-74.524	-166.697	0.246	0.010
-73.509	800.000	-0.044	0.156
-72.494	-15.908	-0.396	0.248
-71.480	800.000	0.038	-0.137
-70.465	-111.841	0.450	-0.090
-69.451	202.980	-0.123	0.186
-68.436	-73.352	-0.169	0.061
-67.422	800.000	-0.043	-0.137
-66.407	-99.707	-0.109	0.027
-65.392	747.856	-0.112	0.298
-64.378	-200.000	-0.055	-0.328
-63.363	34.990	0.221	-0.190
-62.349	-200.000	-0.008	0.043
-61.334	23.437	-0.835	-0.675
-60.319	-62.679	0.392	0.160
-59.305	800.000	-0.276	-0.879
-58.290	5.866	1.080	0.786
-57.276	-200.000	0.288	1.565
-56.261	-200.000	100.821	606.508
-55.246	587.769	1410.347	3413.071
-54.232	192.115	2593.118	3843.754
-53.217	118.763	2141.796	2600.173
-52.203	43.146	1593.873	1429.551
-51.188	34.795	1329.080	1142.364
-50.173	31.440	1287.148	1086.817
-49.159	54.502	1337.400	1266.401
-48.144	56.571	1354.229	1294.528
-47.130	34.794	1310.944	1126.592
-46.115	31.234	1293.406	1090.723
-45.100	31.070	1288.262	1085.389
-44.086	30.988	1285.916	1082.889
-43.071	30.961	1283.670	1080.798
-42.057	30.784	1281.882	1078.229
-41.042	30.912	1280.329	1077.618
-40.027	30.958	1278.806	1076.562
-39.013	31.029	1276.566	1075.042
-37.998	30.946	1275.281	1073.440
-36.984	31.008	1273.346	1072.123
-35.969	31.094	1271.573	1071.080
-34.954	30.992	1270.353	1069.424
-33.940	31.040	1268.906	1068.439
-32.925	31.087	1267.356	1067.362
-31.911	31.139	1265.807	1066.311
-30.896	31.076	1264.765	1065.034
-29.881	31.137	1263.220	1064.039
-28.867	31.229	1261.396	1062.981
-27.852	31.250	1260.034	1061.909
-26.838	31.363	1258.308	1061.054
-25.823	31.239	1257.351	1059.506
-24.809	31.212	1256.168	1058.314
-23.794	31.067	1255.150	1056.589
-22.779	31.103	1253.631	1055.476
-21.765	31.183	1252.240	1054.716
-20.750	31.145	1251.329	1053.688
-19.736	31.103	1249.751	1052.080
-18.721	31.044	1248.470	1050.630
-17.706	31.004	1247.120	1049.229
-16.692	31.119	1246.376	1049.208
-15.677	30.973	1244.903	1047.104
-14.663	30.986	1243.993	1046.370
-13.648	30.925	1243.060	1045.202
-12.633	30.996	1242.146	1044.789
-11.619	30.954	1241.138	1043.663
-10.604	31.069	1240.233	1043.504
-9.590	30.965	1239.296	1042.092
-8.575	30.895	1238.632	1041.104
-7.560	30.950	1237.665	1040.557
-6.546	31.058	1236.568	1040.198
-5.531	30.964	1236.026	1039.177
-4.517	30.988	1234.886	1038.310
-3.502	30.998	1233.966	1037.551
-2.487	30.942	1233.183	1036.538
-1.473	30.927	1229.093	1032.977
-0.458	29.574	1214.166	1012.974
0.556	24.779	1196.818	974.979
1.571	21.181	1202.078	959.444
2.586	20.214	1216.768	965.698
3.600	19.728	1206.097	954.462
4.615	15.153	1136.664	875.576
5.629	7.870	1064.628	784.241
6.644	4.795	1045.526	755.202
7.659	4.531	1042.976	752.016
8.673	4.512	1042.054	751.190
9.688	4.523	1040.763	750.247
10.702	4.536	1038.904	748.906
11.717	8.739	1044.376	773.108
12.731	15.588	1053.675	813.181
13.746	18.456	1056.651	829.303
14.761	17.820	1055.847	825.525
15.775	16.998	1053.262	819.459
16.790	15.867	1051.666	812.688
17.804	15.106	1049.656	807.395
18.819	14.712	1048.659	804.660
19.834	14.552	1048.008	803.321
20.848	14.312	1046.873	801.224
21.863	14.160	1045.942	799.709
22.877	14.016	1045.545	798.642
23.892	14.010	1044.673	797.877
24.907	13.924	1044.016	796.892
25.921	14.031	1042.684	796.320
26.936	14.024	1041.659	795.430
27.950	14.102	1040.315	794.707
28.965	14.145	1038.611	793.543
29.980	14.180	1037.560	792.834
30.994	14.217	1036.331	792.001
32.009	14.354	1034.680	791.319
33.023	14.169	1034.693	790.379
34.038	14.186	1033.372	789.384
35.053	14.044	1032.149	787.707
36.067	13.998	1031.298	786.770
37.082	14.168	1030.440	786.849
38.096	14.193	1030.049	786.597
39.111	14.235	1029.385	786.220
40.126	14.032	1028.014	784.147
41.140	13.896	1026.847	782.544
42.155	13.980	1025.070	781.517
43.169	13.783	1024.680	780.226
44.184	13.837	1023.444	779.467
45.199	13.891	1022.532	778.956
46.213	13.889	1021.267	777.916
47.228	13.964	1020.591	777.685
48.242	14.098	1019.620	777.501
49.257	14.009	1018.678	776.300
50.271	14.041	1017.862	775.758
51.286	14.148	1016.902	775.454
52.301	14.105	1015.900	774.422
53.315	14.013	1015.078	773.297
54.330	13.938	1014.258	772.259
55.344	13.917	1013.285	771.351
56.359	14.040	1011.807	770.730
57.374	13.872	1011.159	769.387
58.388	13.955	1010.245	769.007
59.403	13.883	1009.315	767.897
60.417	13.910	1008.770	767.542
61.432	13.787	1008.139	766.426
62.447	13.696	1007.862	765.726
63.461	13.910	1006.185	765.373
64.476	13.753	1005.832	764.311
65.490	13.836	1004.490	763.605
66.505	13.792	1004.144	763.072
67.520	13.919	1003.371	763.001
68.534	13.912	1002.531	762.264
69.549	13.944	1001.619	761.650
70.563	13.854	1000.894	760.620
71.578	13.672	1000.862	759.691
72.593	13.687	999.614	758.748
73.607	13.773	998.735	758.408
74.622	13.600	998.672	757.501
75.636	13.654	998.043	757.204
76.651	13.797	997.221	757.167
77.666	13.677	996.859	756.277
78.680	13.779	995.909	755.953
79.695	13.735	995.639	755.481
80.709	13.833	994.918	755.314
81.724	13.883	994.212	754.935
82.739	14.020	993.089	754.639
83.753	14.153	992.641	754.837
84.768	14.377	991.742	755.099
85.782	14.337	990.675	754.039
86.797	14.240	990.037	753.050
87.812	14.178	989.461	752.263
88.826	14.199	988.269	751.385
89.841	14.273	987.011	750.700
90.855	14.166	986.240	749.564
91.870	14.228	985.912	749.524
92.884	14.211	984.955	748.658
93.899	14.213	984.028	747.896
94.914	14.355	983.079	747.746
95.928	14.334	982.300	746.989
96.943	14.266	981.685	746.150
97.957	14.217	980.323	744.830
98.972	14.180	980.201	744.509
99.987	14.101	979.280	743.390
101.001	14.279	978.197	743.296
102.016	14.203	977.284	742.199
103.030	14.340	976.321	742.010
104.045	14.239	975.699	741.024
105.060	14.149	974.879	739.934
106.074	13.982	973.994	738.454
107.089	13.977	973.163	737.738
108.103	13.931	971.695	736.355
109.118	13.897	971.078	735.673
110.133	13.924	970.368	735.188
111.147	13.959	969.682	734.758
112.162	13.874	968.559	733.468
113.176	14.098	967.835	733.843
114.191	14.042	967.287	733.116
115.206	14.072	966.385	732.497
116.220	14.166	964.984	731.787
117.235	14.055	964.328	730.737
118.249	13.949	964.010	729.966
119.264	13.966	963.478	729.571
120.279	13.945	962.393	728.594
121.293	13.991	961.525	728.073
122.308	13.791	961.052	726.774
123.322	13.935	959.462	726.136
124.337	13.875	958.587	725.148
125.352	14.103	956.694	724.648
126.366	13.841	956.705	723.449
127.381	13.907	955.759	722.958
128.395	13.861	955.111	722.204
129.410	14.040	953.884	721.987
130.424	14.007	953.190	721.256
131.439	14.168	952.257	721.184
132.454	14.011	952.096	720.319
133.468	14.020	951.400	719.766
134.483	14.148	949.942	719.153
135.497	14.069	949.138	718.139
136.512	14.034	948.909	717.750
137.527	13.965	947.715	716.488
138.541	14.080	946.812	716.237
139.556	14.114	946.514	716.096
140.570	14.125	946.015	715.701
141.585	14.295	944.952	715.566
142.600	14.348	944.016	715.018
143.614	14.418	943.092	714.557
144.629	14.412	942.542	714.053
145.643	14.306	941.823	712.991
146.658	14.285	940.226	711.627
147.673	14.233	939.598	710.869
148.687	14.082	939.063	709.755
149.702	14.107	937.906	708.923
150.716	14.150	937.158	708.480
151.731	14.021	936.654	707.487
152.746	14.151	935.804	707.336
153.760	14.182	935.432	707.124
154.775	14.244	935.108	707.078
155.789	14.275	934.276	706.519
156.804	14.158	934.072	705.806
157.819	14.395	932.832	705.811
158.833	14.560	931.890	705.734
159.848	14.479	931.115	704.740
160.862	14.461	930.273	703.964
161.877	14.365	929.725	703.082
162.892	14.253	928.356	701.516
163.906	14.161	928.145	700.906
164.921	14.315	926.819	700.491
165.935	14.311	926.209	699.949
166.950	14.348	925.730	699.681
167.964	14.345	924.179	698.434
168.979	14.382	923.355	697.905
169.994	14.166	923.088	696.736
171.008	14.368	922.301	696.928
172.023	14.449	921.483	696.584
173.037	14.506	920.935	696.346
174.052	14.499	920.072	695.604
175.067	14.356	919.624	694.608
176.081	14.220	919.307	693.742
177.096	14.411	918.153	693.601
178.110	14.437	917.568	693.207
179.125	14.401	917.025	692.589
180.140	14.412	916.924	692.494
181.154	14.393	916.514	692.045
182.169	14.605	915.756	692.290
183.183	14.443	915.745	691.549
184.198	14.522	914.650	690.987
185.213	14.447	913.661	689.872
186.227	14.576	913.149	689.955
187.242	14.625	912.806	689.840
188.256	14.726	911.851	689.471
189.271	14.520	911.692	688.440
190.286	14.536	910.123	687.261
191.300	14.356	909.526	686.009
192.315	14.322	908.838	685.287
193.329	14.330	908.282	684.843
194.344	14.438	907.268	684.458
195.359	14.546	906.989	684.633
196.373	14.615	906.832	684.736
197.388	14.675	906.229	684.467
198.402	14.866	905.522	684.653
199.417	14.881	904.840	684.138
200.432	15.020	903.912	683.945
201.446	14.983	904.049	683.838
202.461	14.852	903.529	682.847
203.475	14.993	902.604	682.662
204.490	14.914	901.801	681.676
205.504	14.835	900.887	680.602
206.519	14.792	900.699	680.223
207.534	14.816	899.752	679.545
208.548	14.957	899.040	679.522
209.563	14.931	898.561	678.994
210.577	14.944	897.654	678.302
211.592	14.851	897.185	677.510
212.607	15.024	896.366	677.532
213.621	15.080	895.812	677.279
214.636	14.910	895.273	676.124
215.650	15.000	894.576	675.902
216.665	15.104	893.919	675.765
217.680	15.040	893.376	675.038
218.694	15.154	892.212	674.559
219.709	15.099	891.783	673.954
220.723	15.155	891.606	673.985
221.738	15.137	890.474	672.996
222.753	15.096	889.830	672.283
223.767	15.072	889.166	671.627
224.782	15.207	888.824	671.852
225.796	15.274	887.958	671.403
226.811	15.260	887.383	670.857
227.826	15.225	886.768	670.191
228.840	15.122	886.149	669.251
229.855	15.078	885.266	668.350
230.869	15.017	884.900	667.771
231.884	15.128	883.644	667.208
232.899	15.098	882.950	666.504
233.913	14.989	882.829	665.922
234.928	15.026	882.041	665.414
235.942	15.131	881.224	665.156
236.957	15.018	881.013	664.489
237.972	15.303	880.032	664.821
238.986	15.074	879.922	663.770
240.001	15.086	878.775	662.895
241.015	15.247	877.985	662.877
242.030	15.238	877.574	662.473
243.045	15.280	877.034	662.171
244.059	15.214	876.814	661.688
245.074	15.311	876.135	661.497
246.088	15.367	875.178	660.939
247.103	15.363	874.918	660.668
248.117	15.439	874.438	660.545
249.132	15.544	873.973	660.547
250.147	15.828	873.042	660.903
251.161	15.566	872.832	659.656
252.176	15.636	872.067	659.295
253.190	15.819	870.687	658.911
254.205	15.784	870.453	658.537
255.220	15.814	870.294	658.477
256.234	15.831	869.365	657.779
257.249	15.792	868.891	657.213
258.263	15.815	868.134	656.670
259.278	15.894	867.207	656.219
260.293	15.906	866.449	655.635
261.307	15.900	865.998	655.213
262.322	15.825	865.518	654.497
263.336	16.065	864.445	654.563
264.351	16.035	863.658	653.793
265.366	15.937	863.755	653.427
266.380	15.922	863.129	652.838
267.395	15.911	862.324	652.128
268.409	16.020	861.698	652.018
269.424	15.931	861.063	651.135
270.439	15.927	860.025	650.278
271.453	15.820	859.669	649.537
272.468	15.736	859.477	649.011
273.482	15.862	858.943	649.038
274.497	15.950	857.844	648.489
275.512	15.860	857.208	647.603
276.526	15.973	856.989	647.815
277.541	15.867	856.910	647.292
278.555	16.064	855.795	647.146
279.570	16.116	855.292	646.911
280.585	16.145	854.277	646.197
281.599	16.035	853.853	645.398
282.614	15.986	853.024	644.526
283.628	15.954	852.833	644.202
284.643	16.128	851.928	644.125
285.657	16.099	851.143	643.363
286.672	15.989	851.033	642.806
287.687	16.275	849.860	642.952
288.701	16.180	849.397	642.183
289.716	16.228	849.220	642.174
290.730	16.160	848.378	641.223
291.745	16.223	847.929	641.066
292.760	16.340	847.229	640.923
293.774	16.259	846.889	640.302
294.789	16.299	846.225	639.898
295.803	16.193	845.476	638.870
296.818	16.154	844.701	638.082
297.833	16.381	843.477	637.958
298.847	16.245	843.228	637.202
299.862	16.245	842.973	636.950
300.876	16.478	842.243	637.220
301.891	16.386	842.074	636.689
302.906	16.495	841.482	636.598
303.920	16.531	840.599	636.009
304.935	16.592	840.101	635.805
305.949	16.424	839.890	634.956
306.964	16.561	839.150	634.857
307.979	16.458	838.507	633.928
308.993	16.536	837.954	633.745
310.008	16.432	837.809	633.189
311.022	16.410	836.776	632.269
312.037	16.542	836.057	632.165
313.052	16.360	835.303	630.859
314.066	16.371	835.500	630.995
315.081	16.321	834.376	629.902
316.095	16.452	833.805	629.904
317.110	16.290	833.786	629.229
318.125	16.431	833.018	629.121
319.139	16.489	832.552	628.928
320.154	16.456	832.150	628.447
321.168	16.584	831.379	628.282
322.183	16.520	831.025	627.723
323.197	16.397	830.493	626.808
324.212	16.507	829.763	626.612
325.227	16.477	829.590	626.314
326.241	16.586	828.872	626.118
327.256	16.439	828.373	625.144
328.270	16.590	827.401	624.912
329.285	16.554	827.083	624.483
330.300	16.371	827.143	623.798
331.314	16.567	826.050	623.643
332.329	16.582	825.731	623.401
333.343	16.607	825.364	623.158
334.358	16.595	825.065	622.833
335.373	16.758	824.249	622.763
336.387	16.670	824.364	622.470
337.402	16.799	824.050	622.652
338.416	16.858	823.801	622.628
339.431	16.846	823.243	622.104
340.446	16.792	823.048	621.706
341.460	16.862	822.902	621.795
342.475	16.975	822.427	621.797
343.489	17.097	821.848	621.752
344.504	17.045	821.495	621.237
345.519	17.126	820.589	620.795
346.533	17.038	819.969	619.948
347.548	17.094	819.275	619.572
348.562	16.890	819.011	618.575
349.577	16.977	818.377	618.358
350.592	17.001	817.648	617.842
351.606	16.880	816.972	616.836
352.621	16.967	816.283	616.575
353.635	16.908	815.897	616.014
354.650	17.062	815.020	615.859
355.665	17.163	814.624	615.869
356.679	17.038	814.157	615.009
357.694	17.095	813.464	614.638
358.708	17.243	812.743	614.575
359.723	17.190	812.218	613.933
360.738	17.274	811.666	613.762
361.752	17.198	811.026	612.951
362.767	17.229	810.303	612.463
363.781	17.365	809.854	612.559
364.796	17.424	810.006	612.831
365.810	17.542	809.497	612.816
366.825	17.231	809.340	611.525
367.840	17.341	808.808	611.464
368.854	17.288	808.130	610.705
369.869	17.376	807.478	610.475
370.883	17.394	807.241	610.309
371.898	17.476	806.866	610.266
372.913	17.456	806.710	610.019
373.927	17.548	805.687	609.520
374.942	17.504	805.590	609.236
375.956	17.443	805.387	608.813
376.971	17.475	805.000	608.578
377.986	17.608	804.562	608.669
379.000	17.659	803.680	608.129
380.015	17.712	803.399	608.052
381.029	17.638	802.486	607.045
382.044	17.667	801.986	606.717
383.059	17.790	801.241	606.535
384.073	17.600	800.947	605.585
385.088	17.654	800.350	605.271
386.102	17.589	799.972	604.703
387.117	17.479	799.487	603.891
388.132	17.558	798.611	603.458
389.146	17.553	798.296	603.146
390.161	17.607	798.072	603.116
391.175	17.825	797.728	603.574
392.190	17.683	796.897	602.389
393.205	17.670	796.182	601.751
394.219	17.638	796.124	601.540
395.234	17.550	795.729	600.876
396.248	17.554	795.178	600.424
397.263	17.502	794.901	599.978
398.278	17.587	794.190	599.687
399.292	17.557	793.997	599.382
400.307	17.501	793.399	598.680
401.321	17.608	792.743	598.508
402.336	17.648	792.685	598.551
403.350	17.718	791.992	598.221
404.365	17.914	791.432	598.433
405.380	17.842	791.225	597.971
406.394	17.908	790.446	597.561
407.409	18.038	790.604	598.080
408.423	18.108	789.962	597.790
409.438	17.892	789.846	596.892
410.453	17.956	789.499	596.800
411.467	18.098	789.032	596.890
412.482	18.058	788.322	596.161
413.496	18.301	787.742	596.515
414.511	18.086	787.613	595.618
415.526	18.091	787.527	595.517
416.540	18.229	786.560	595.213
417.555	18.244	786.240	594.970
418.569	18.044	785.973	594.019
419.584	18.211	785.819	594.432
420.599	18.217	785.049	593.819
421.613	157.325	1369.985	1796.583
422.628	135.951	1455.212	1796.647
