DTS Sentinel unit serial number:	SN413079Multiplexer serial number:	ORYXHardware model number:	OX4-SRSoftware version number:	ORYX F/W v4.00 Oryx Data Collector v3.7.2.0data status	okinstallation	princeton_trtdifferential loss correction	single-endedforward channel	channel 1reverse channel	N/Adate	2019/09/13time	12:34:35forward acquisition time	60.00reverse acquisition time	0.00gamma	496.2192k internal	0.2306k external	0.2306temperature offset calibration	1.0168default loss term (dB/km)	0.3790temperature slope calibration	1.0000multiplexer offset coefficient	1.0000multiplexer slope coefficient	1.0000fibre end	0.00T internal ref (°C)	34.50T ext. ref 1 (°C)	4.60T ext. ref 2 (°C)	31.51length (m)	temperature (°C)	Stokes	anti-Stokes-747.200	333.460	-0.011	-0.021
-746.185	-5.393	-0.207	0.145
-745.171	-42.766	0.162	0.084
-744.156	-114.411	-0.143	0.028
-743.142	800.000	-0.032	-0.093
-742.127	463.376	-0.097	0.220
-741.112	-125.135	0.082	0.013
-740.098	-51.322	0.421	0.200
-739.083	-31.041	-0.146	-0.084
-738.069	-127.651	0.285	0.042
-737.054	-34.469	0.061	-0.034
-736.039	800.000	0.046	-0.144
-735.025	38.613	0.073	-0.066
-734.010	171.094	-0.092	-0.135
-732.996	-200.000	0.000	-0.043
-731.981	3.512	0.120	-0.089
-730.966	-40.215	-0.242	0.128
-729.952	800.000	-0.089	0.311
-728.937	-16.800	-0.280	0.180
-727.923	-200.000	0.009	0.161
-726.908	446.299	0.061	-0.137
-725.894	256.632	-0.046	0.080
-724.879	-122.709	-0.042	-0.007
-723.864	225.331	0.170	0.280
-722.850	-200.000	-0.003	0.235
-721.835	-130.568	-0.241	0.033
-720.821	-137.606	-0.301	-0.035
-719.806	-200.000	0.029	-0.332
-718.791	18.823	-0.098	-0.079
-717.777	-97.661	-0.309	0.082
-716.762	-200.000	0.011	-0.404
-715.748	-200.000	-0.042	-0.426
-714.733	592.394	0.065	-0.162
-713.718	414.393	-0.113	0.246
-712.704	147.364	0.216	-0.296
-711.689	-131.510	-0.368	-0.049
-710.675	-86.736	-0.333	0.104
-709.660	103.773	-0.081	-0.096
-708.645	-200.000	0.040	0.204
-707.631	-126.657	-0.372	0.056
-706.616	94.448	0.158	0.183
-705.602	-90.926	0.215	0.063
-704.587	621.018	-0.114	-0.292
-703.572	-200.000	0.037	0.213
-702.558	-146.653	-0.048	0.004
-701.543	-200.000	-0.032	-0.166
-700.529	-200.000	-0.048	-0.277
-699.514	-176.597	-0.323	-0.008
-698.499	-53.132	0.327	0.152
-697.485	-19.917	-0.251	0.157
-696.470	-54.931	-0.174	-0.080
-695.456	-200.000	-0.005	-0.086
-694.441	-115.503	0.335	-0.064
-693.426	28.270	-0.270	-0.231
-692.412	24.127	-0.065	-0.054
-691.397	-10.028	0.375	0.253
-690.383	-32.483	-0.236	-0.134
-689.368	69.496	-0.236	-0.247
-688.354	132.214	-0.129	-0.168
-687.339	-168.960	0.481	0.018
-686.324	800.000	0.062	0.228
-685.310	-88.027	0.175	0.053
-684.295	-58.179	0.159	-0.070
-683.281	-87.611	-0.257	-0.079
-682.266	200.216	0.119	-0.186
-681.251	8.075	0.044	-0.034
-680.237	-81.998	-0.271	-0.090
-679.222	-149.684	0.154	0.012
-678.208	-75.413	0.222	-0.080
-677.193	579.859	-0.105	-0.261
-676.178	-130.803	0.165	-0.022
-675.164	-98.124	-0.174	-0.046
-674.149	-45.941	-0.150	-0.075
-673.135	-69.678	0.137	0.053
-672.120	-47.919	-0.083	0.041
-671.105	504.312	0.110	-0.258
-670.091	-200.000	-0.011	-0.121
-669.076	-49.039	0.146	0.071
-668.062	-200.000	0.049	-0.333
-667.047	763.018	-0.122	0.337
-666.032	-28.340	-0.160	-0.094
-665.018	-48.715	0.217	-0.106
-664.003	-200.000	-0.011	0.075
-662.989	-200.000	-0.017	-0.236
-661.974	-40.675	-0.301	-0.158
-660.959	10.018	0.119	0.091
-659.945	-200.000	-0.022	0.394
-658.930	189.007	-0.184	0.279
-657.916	179.515	0.102	-0.151
-656.901	51.727	0.207	0.199
-655.886	336.060	-0.102	0.201
-654.872	-200.000	0.004	-0.349
-653.857	800.000	-0.118	-0.356
-652.843	2.164	-0.379	0.277
-651.828	155.354	0.204	0.285
-650.814	-45.925	-0.279	0.139
-649.799	64.684	0.188	-0.192
-648.784	-57.646	-0.130	-0.058
-647.770	4.504	0.064	-0.048
-646.755	-200.000	-0.012	-0.186
-645.741	800.000	0.056	-0.196
-644.726	82.498	-0.098	-0.108
-643.711	-200.000	-0.015	-0.191
-642.697	-118.849	-0.218	0.039
-641.682	-200.000	0.030	0.256
-640.668	219.937	-0.054	-0.088
-639.653	37.684	0.339	-0.305
-638.638	-200.000	-0.035	-0.221
-637.624	3.220	0.074	0.054
-636.609	-8.093	0.260	-0.177
-635.595	-200.000	0.018	-0.243
-634.580	-49.043	-0.289	-0.140
-633.565	267.477	-0.016	-0.028
-632.551	-200.000	-0.029	-0.149
-631.536	-65.383	0.163	-0.067
-630.522	-19.231	-0.135	0.085
-629.507	-101.002	-0.104	0.026
-628.492	-159.512	-0.221	-0.012
-627.478	-200.000	0.029	-0.342
-626.463	667.541	0.097	0.255
-625.449	-45.530	0.175	0.088
-624.434	-161.966	-0.165	-0.008
-623.419	-86.175	0.132	-0.041
-622.405	-100.757	-0.063	0.016
-621.390	800.000	0.040	-0.162
-620.376	-79.519	-0.278	0.095
-619.361	-110.074	-0.230	-0.049
-618.346	-7.366	-0.162	-0.111
-617.332	160.146	-0.132	0.187
-616.317	800.000	0.110	0.434
-615.303	40.690	0.203	-0.185
-614.288	97.436	-0.227	-0.264
-613.273	397.004	-0.113	0.239
-612.259	-200.000	0.001	0.290
-611.244	-200.000	0.023	0.193
-610.230	-45.972	-0.256	-0.128
-609.215	-22.062	0.148	-0.091
-608.201	-200.000	-0.042	0.526
-607.186	59.484	-0.147	-0.146
-606.171	800.000	-0.061	-0.218
-605.157	88.588	-0.130	-0.147
-604.142	355.736	-0.030	-0.061
-603.128	203.227	-0.265	-0.414
-602.113	-200.000	0.039	-0.297
-601.098	800.000	0.113	-0.408
-600.084	-121.541	0.402	0.068
-599.069	0.503	0.146	-0.106
-598.055	-33.835	0.283	0.158
-597.040	800.000	0.044	0.125
-596.025	301.785	-0.078	-0.145
-595.011	296.691	0.146	0.272
-593.996	-6.515	0.110	0.076
-592.982	800.000	0.032	-0.123
-591.967	48.281	0.171	-0.162
-590.952	33.486	0.010	-0.009
-589.938	42.147	-0.123	0.113
-588.923	-133.762	0.098	-0.012
-587.909	-147.459	-0.050	-0.004
-586.894	800.000	-0.049	0.152
-585.879	128.441	0.045	0.058
-584.865	262.526	-0.163	-0.287
-583.850	-69.574	0.116	0.045
-582.836	4.288	-0.148	0.110
-581.821	-200.000	-0.018	-0.211
-580.806	-200.000	-0.028	-0.187
-579.792	800.000	-0.022	-0.064
-578.777	-97.517	0.359	-0.094
-577.763	-200.000	-0.012	0.096
-576.748	-19.150	0.194	-0.122
-575.733	-179.105	0.366	-0.008
-574.719	106.852	0.178	0.213
-573.704	-200.000	-0.048	0.683
-572.690	-61.395	-0.196	0.083
-571.675	230.016	-0.191	-0.316
-570.661	-200.000	-0.005	0.057
-569.646	-105.693	0.284	-0.065
-568.631	255.627	-0.248	-0.430
-567.617	-10.283	-0.193	-0.129
-566.602	-54.512	-0.295	-0.135
-565.588	391.444	-0.092	-0.193
-564.573	-172.409	0.316	0.010
-563.558	242.013	-0.074	0.124
-562.544	-119.983	-0.098	0.017
-561.529	-200.000	0.010	-0.122
-560.515	165.103	0.093	0.133
-559.500	800.000	0.107	0.302
-558.485	800.000	0.066	-0.211
-557.471	-61.766	0.127	-0.054
-556.456	-104.621	0.066	0.015
-555.442	-127.649	-0.158	0.023
-554.427	-34.277	0.086	0.048
-553.412	336.722	-0.123	-0.242
-552.398	-6.306	0.150	0.104
-551.383	-148.236	-0.488	-0.041
-550.369	-200.000	-0.016	0.136
-549.354	-51.188	-0.212	-0.100
-548.339	-200.000	0.008	-0.385
-547.325	-132.089	-0.266	-0.035
-546.310	-200.000	0.031	0.284
-545.296	224.160	-0.136	-0.221
-544.281	-61.065	0.092	0.039
-543.266	120.148	0.113	-0.142
-542.252	480.391	-0.096	-0.219
-541.237	93.124	-0.173	-0.197
-540.223	192.649	0.165	0.251
-539.208	0.895	-0.209	0.151
-538.193	-65.985	-0.201	-0.081
-537.179	-61.135	0.422	-0.180
-536.164	83.866	0.259	-0.286
-535.150	148.130	0.225	-0.306
-534.135	800.000	-0.035	0.099
-533.121	659.017	-0.039	0.102
-532.106	800.000	-0.128	0.366
-531.091	800.000	0.032	0.109
-530.077	-24.781	-0.344	-0.207
-529.062	-45.545	-0.254	0.127
-528.048	311.439	-0.102	0.193
-527.033	-115.297	-0.368	0.070
-526.018	-200.000	-0.017	-0.084
-525.004	13.022	-0.084	0.066
-523.989	800.000	-0.086	0.287
-522.975	255.786	-0.095	-0.164
-521.960	-122.218	-0.129	-0.021
-520.945	-200.000	0.041	-0.191
-519.931	-65.004	-0.404	0.165
-518.916	800.000	-0.100	-0.299
-517.902	-64.943	-0.222	-0.090
-516.887	800.000	0.098	-0.341
-515.872	-99.275	-0.204	-0.052
-514.858	32.411	-0.102	0.088
-513.843	-90.181	0.257	0.075
-512.829	284.177	0.076	0.138
-511.814	-124.812	-0.382	-0.059
-510.799	-115.571	-0.238	-0.045
-509.785	187.686	-0.164	0.247
-508.770	-200.000	0.002	0.138
-507.756	-167.911	0.028	-0.001
-506.741	-200.000	-0.068	-0.430
-505.726	-144.651	0.367	-0.034
-504.712	51.177	-0.222	0.213
-503.697	-200.000	0.039	-0.211
-502.683	800.000	-0.040	0.151
-501.668	109.464	0.191	0.231
-500.653	28.536	-0.214	0.182
-499.639	71.056	-0.085	-0.089
-498.624	-71.856	0.276	0.103
-497.610	-115.145	0.224	0.043
-496.595	137.084	-0.090	0.119
-495.581	-82.959	-0.270	0.088
-494.566	483.235	-0.091	0.208
-493.551	108.289	-0.139	0.167
-492.537	-200.000	-0.008	-0.160
-491.522	-28.652	-0.210	0.122
-490.508	-79.887	0.140	-0.047
-489.493	3.175	0.132	0.097
-488.478	-62.010	0.180	0.076
-487.464	-200.000	-0.045	-0.354
-486.449	-200.000	0.014	-0.089
-485.435	748.238	-0.125	-0.340
-484.420	-143.990	0.089	-0.008
-483.405	-70.129	-0.115	0.044
-482.391	7.433	0.243	0.183
-481.376	800.000	0.071	-0.266
-480.362	44.506	-0.058	0.054
-479.347	114.536	0.133	-0.163
-478.332	148.309	-0.058	0.079
-477.318	-141.512	0.319	-0.032
-476.303	93.377	-0.041	0.047
-475.289	-200.000	-0.031	0.259
-474.274	-103.459	0.218	0.052
-473.259	-86.462	-0.216	0.067
-472.245	-128.950	-0.086	0.012
-471.230	180.017	-0.048	-0.070
-470.216	107.298	-0.288	0.345
-469.201	266.222	-0.030	0.053
-468.186	-200.000	0.019	0.340
-467.172	-192.714	0.266	-0.002
-466.157	-200.000	0.007	0.181
-465.143	391.102	-0.044	0.092
-464.128	-37.421	0.235	-0.126
-463.113	-26.502	0.169	-0.100
-462.099	-200.000	-0.023	0.221
-461.084	488.759	0.128	0.294
-460.070	141.108	0.185	-0.247
-459.055	162.041	-0.053	-0.075
-458.040	573.165	-0.075	-0.184
-457.026	-200.000	0.060	-0.462
-456.011	-17.607	0.174	0.110
-454.997	-200.000	0.042	-0.197
-453.982	-99.130	0.121	-0.031
-452.968	397.255	-0.081	-0.169
-451.953	-62.049	-0.311	-0.131
-450.938	145.617	-0.245	0.330
-449.924	-51.281	-0.222	0.104
-448.909	800.000	0.077	-0.215
-447.895	-40.235	0.148	0.077
-446.880	800.000	0.022	-0.071
-445.865	-200.000	0.001	0.107
-444.851	60.122	0.041	0.041
-443.836	345.194	0.017	0.034
-442.822	478.564	-0.080	-0.181
-441.807	372.809	-0.103	0.210
-440.792	800.000	-0.083	0.257
-439.778	445.808	-0.107	0.237
-438.763	33.818	-0.114	-0.100
-437.749	67.300	0.159	-0.163
-436.734	-200.000	0.004	0.144
-435.719	146.417	-0.098	-0.132
-434.705	215.846	-0.205	-0.328
-433.690	25.667	0.183	-0.153
-432.676	32.591	-0.105	-0.091
-431.661	-50.685	0.272	-0.129
-430.646	-200.000	0.018	-0.174
-429.632	367.285	0.096	-0.194
-428.617	367.325	0.022	0.044
-427.603	0.862	-0.129	0.093
-426.588	-78.994	-0.010	-0.003
-425.573	21.453	0.339	0.277
-424.559	220.567	0.101	-0.163
-423.544	-55.568	0.351	0.158
-422.530	74.975	-0.108	0.114
-421.515	-86.347	0.108	0.033
-420.500	-108.642	-0.179	0.039
-419.486	-200.000	-0.033	0.228
-418.471	299.015	0.013	-0.025
-417.457	18.874	-0.172	-0.139
-416.442	-79.858	-0.119	-0.040
-415.428	281.476	0.052	0.094
-414.413	152.767	-0.175	0.241
-413.398	139.995	-0.217	0.287
-412.384	-147.408	0.088	0.007
-411.369	-95.791	0.243	0.065
-410.355	216.857	0.007	0.012
-409.340	119.811	-0.159	0.198
-408.325	144.826	-0.157	0.211
-407.311	121.105	-0.152	-0.190
-406.296	-60.923	0.299	0.127
-405.282	3.582	0.278	-0.204
-404.267	-104.779	0.169	-0.039
-403.252	-94.441	-0.086	-0.023
-402.238	-200.000	0.079	-0.382
-401.223	800.000	0.045	-0.169
-400.209	-44.342	0.105	-0.053
-399.194	64.644	0.188	0.191
-398.179	87.036	0.194	0.215
-397.165	-3.686	-0.295	-0.206
-396.150	25.157	-0.153	0.127
-395.136	11.470	-0.291	-0.224
-394.121	-200.000	-0.076	0.390
-393.106	800.000	0.068	0.285
-392.092	14.714	-0.141	-0.110
-391.077	35.639	-0.165	-0.145
-390.063	8.113	-0.057	0.043
-389.048	-47.918	-0.280	0.136
-388.033	-9.679	-0.217	0.145
-387.019	744.578	0.038	0.102
-386.004	-126.152	-0.296	0.044
-384.990	800.000	0.069	-0.288
-383.975	-99.649	0.111	-0.028
-382.960	-22.495	0.292	-0.177
-381.946	627.889	0.032	-0.081
-380.931	131.715	-0.063	0.081
-379.917	32.959	-0.460	0.400
-378.902	-119.292	-0.196	-0.034
-377.888	-200.000	-0.000	0.111
-376.873	-189.535	0.078	0.001
-375.858	789.124	0.109	0.299
-374.844	-200.000	0.016	0.284
-373.829	34.227	0.184	0.161
-372.815	-128.250	-0.047	-0.007
-371.800	68.421	0.077	-0.079
-370.785	68.342	0.218	-0.224
-369.771	-158.424	-0.369	0.021
-368.756	-81.826	-0.099	-0.033
-367.742	-200.000	-0.095	0.425
-366.727	116.777	-0.214	0.264
-365.712	800.000	-0.043	0.176
-364.698	119.206	0.251	0.311
-363.683	232.486	-0.204	0.336
-362.669	-159.111	0.170	-0.010
-361.654	-28.067	0.322	-0.187
-360.639	108.387	-0.060	-0.072
-359.625	-200.000	-0.001	-0.039
-358.610	800.000	-0.007	-0.023
-357.596	-86.615	-0.039	0.012
-356.581	40.253	-0.185	-0.167
-355.566	-59.259	-0.074	0.032
-354.552	241.617	0.025	-0.042
-353.537	-56.734	0.153	0.068
-352.523	-166.043	0.215	-0.009
-351.508	-4.702	0.089	-0.062
-350.493	-84.274	-0.179	0.057
-349.479	197.485	0.060	-0.092
-348.464	-200.000	0.012	-0.356
-347.450	-38.806	-0.356	-0.188
-346.435	-78.459	0.151	-0.052
-345.420	-200.000	-0.016	-0.316
-344.406	-57.622	-0.168	-0.074
-343.391	-200.000	-0.089	-0.393
-342.377	31.334	0.277	-0.238
-341.362	-58.887	-0.225	0.097
-340.348	-90.288	-0.159	-0.046
-339.333	-200.000	0.024	0.110
-338.318	-200.000	0.020	0.270
-337.304	-200.000	0.007	-0.115
-336.289	-200.000	-0.017	0.146
-335.275	-139.695	-0.122	0.013
-334.260	41.227	0.046	-0.042
-333.245	15.745	0.074	-0.059
-332.231	-102.016	-0.243	0.059
-331.216	-200.000	0.044	-0.257
-330.202	-63.753	-0.169	0.069
-329.187	611.437	-0.129	-0.324
-328.172	-76.248	0.188	-0.066
-327.158	123.774	0.152	0.192
-326.143	-57.366	-0.151	0.066
-325.129	33.402	-0.243	-0.211
-324.114	283.020	0.224	0.403
-323.099	-200.000	0.015	-0.359
-322.085	-14.704	-0.167	-0.108
-321.070	-97.374	0.102	-0.027
-320.056	-98.959	0.261	-0.066
-319.041	-200.000	0.032	-0.160
-318.026	800.000	-0.120	0.365
-317.012	-200.000	-0.009	0.069
-315.997	460.908	-0.133	-0.298
-314.983	-129.932	-0.351	0.048
-313.968	-61.912	0.012	-0.005
-312.953	63.066	0.177	0.177
-311.939	-110.902	0.315	0.065
-310.924	-176.025	-0.322	0.009
-309.910	10.621	0.170	0.129
-308.895	110.303	0.052	0.062
-307.880	266.440	-0.014	-0.024
-306.866	-109.466	0.388	0.082
-305.851	-200.000	-0.002	-0.115
-304.837	-39.292	0.235	-0.123
-303.822	262.237	0.217	0.376
-302.807	-200.000	0.045	-0.259
-301.793	-70.448	-0.189	-0.072
-300.778	588.932	0.094	0.231
-299.764	-18.065	-0.150	-0.094
-298.749	-46.666	0.402	-0.197
-297.735	29.658	0.255	-0.217
-296.720	701.099	-0.093	0.244
-295.705	-200.000	0.008	0.197
-294.691	251.831	0.069	-0.117
-293.676	-200.000	0.005	0.090
-292.662	-143.565	0.082	0.008
-291.647	147.898	0.254	-0.342
-290.632	361.281	-0.074	-0.149
-289.618	-200.000	-0.004	0.270
-288.603	-37.661	-0.202	-0.107
-287.589	539.538	-0.058	-0.137
-286.574	139.422	-0.253	-0.333
-285.559	186.798	-0.058	-0.086
-284.545	-200.000	-0.022	-0.131
-283.530	-69.961	0.167	-0.064
-282.516	800.000	0.023	0.088
-281.501	44.504	-0.247	-0.227
-280.486	51.504	-0.160	-0.152
-279.472	-200.000	0.063	0.286
-278.457	554.354	0.052	-0.126
-277.443	100.668	0.136	0.158
-276.428	72.858	-0.081	0.084
-275.413	630.574	0.081	-0.204
-274.399	-200.000	0.009	0.056
-273.384	-200.000	0.034	0.216
-272.370	-200.000	-0.011	-0.070
-271.355	-164.315	0.425	0.019
-270.340	-163.752	0.077	0.004
-269.326	100.802	-0.166	0.192
-268.311	-53.179	0.052	0.024
-267.297	-162.617	0.371	-0.018
-266.282	-20.196	0.248	0.153
-265.267	206.819	-0.195	-0.303
-264.253	800.000	-0.034	-0.144
-263.238	179.169	-0.017	0.025
-262.224	-14.375	0.162	0.104
-261.209	95.010	-0.118	-0.134
-260.195	-200.000	0.012	-0.301
-259.180	-200.000	0.033	-0.224
-258.165	705.912	0.166	0.438
-257.151	38.423	-0.249	0.222
-256.136	-200.000	-0.045	-0.216
-255.122	418.896	-0.193	-0.412
-254.107	14.011	-0.123	0.095
-253.092	151.382	-0.119	-0.162
-252.078	-15.702	-0.354	0.225
-251.063	84.827	0.236	-0.258
-250.049	-100.653	-0.421	0.104
-249.034	-98.113	-0.439	0.113
-248.019	-200.000	0.047	-0.233
-247.005	-101.405	0.174	-0.042
-245.990	202.191	0.165	0.255
-244.976	98.974	0.085	0.098
-243.961	-145.822	-0.181	0.016
-242.946	-31.082	-0.205	-0.115
-241.932	-48.052	0.360	0.173
-240.917	26.738	0.223	0.187
-239.903	-135.862	0.045	-0.005
-238.888	119.757	0.213	-0.263
-237.873	-102.327	0.390	0.093
-236.859	330.428	0.075	-0.145
-235.844	459.812	0.039	-0.086
-234.830	-200.000	-0.003	0.289
-233.815	193.536	-0.230	0.347
-232.800	800.000	-0.111	0.331
-231.786	212.661	0.233	0.367
-230.771	-8.151	-0.102	0.068
-229.757	-200.000	-0.040	0.244
-228.742	62.029	0.194	-0.193
-227.727	800.000	0.041	-0.141
-226.713	604.452	-0.065	-0.161
-225.698	800.000	0.034	0.139
-224.684	800.000	0.127	0.424
-223.669	58.553	0.184	-0.180
-222.655	120.379	-0.177	0.219
-221.640	792.763	0.143	0.393
-220.625	57.343	0.457	-0.445
-219.611	-200.000	-0.045	0.284
-218.596	565.132	-0.128	-0.310
-217.582	-137.830	0.203	-0.023
-216.567	217.143	-0.042	0.067
-215.552	2.287	0.296	0.213
-214.538	-200.000	-0.026	-0.268
-213.523	52.266	0.163	0.155
-212.509	62.713	0.283	-0.282
-211.494	168.446	0.122	-0.173
-210.479	100.546	0.012	-0.013
-209.465	370.302	-0.121	0.245
-208.450	-200.000	0.012	0.078
-207.436	65.214	-0.154	0.155
-206.421	-89.309	0.123	0.036
-205.406	154.983	-0.190	-0.260
-204.392	-65.836	0.240	-0.096
-203.377	624.139	0.045	0.113
-202.363	-200.000	0.012	0.090
-201.348	273.116	0.128	0.225
-200.333	-142.275	-0.338	0.033
-199.319	-173.339	-0.125	-0.004
-198.304	250.368	0.050	-0.085
-197.290	-126.113	-0.029	-0.004
-196.275	-200.000	-0.006	-0.133
-195.260	2.717	0.166	0.120
-194.246	87.748	-0.078	-0.086
-193.231	74.638	0.195	0.204
-192.217	77.172	-0.126	-0.133
-191.202	-2.735	0.244	0.170
-190.187	-35.481	-0.087	0.047
-189.173	-200.000	-0.020	0.152
-188.158	-200.000	-0.070	0.338
-187.144	-140.477	-0.184	-0.019
-186.129	-165.033	0.195	0.009
-185.114	-200.000	-0.033	0.170
-184.100	37.537	0.212	0.188
-183.085	800.000	-0.103	-0.395
-182.071	-115.653	0.099	-0.019
-181.056	-200.000	0.039	-0.170
-180.042	9.690	0.142	0.107
-179.027	150.952	0.060	-0.082
-178.012	800.000	0.052	-0.217
-176.998	-47.968	0.283	-0.136
-175.983	-130.450	0.222	0.030
-174.969	91.220	-0.233	0.260
-173.954	45.540	0.116	-0.107
-172.939	-129.202	-0.192	0.027
-171.925	-200.000	0.050	-0.256
-170.910	216.038	0.168	0.265
-169.896	95.041	0.193	0.219
-168.881	-200.000	-0.047	-0.216
-167.866	370.754	-0.054	0.109
-166.852	-34.972	0.187	0.102
-165.837	630.099	0.132	0.331
-164.823	-75.070	0.079	0.028
-163.808	407.663	-0.075	0.159
-162.793	-32.627	0.301	0.167
-161.779	-78.512	-0.188	-0.064
-160.764	420.756	-0.091	-0.194
-159.750	110.298	0.163	-0.194
-158.735	40.893	-0.370	0.332
-157.720	-91.749	0.055	0.015
-156.706	-200.000	-0.025	-0.191
-155.691	-200.000	-0.014	0.271
-154.677	66.718	-0.222	0.224
-153.662	33.997	0.171	0.148
-152.647	-79.045	0.285	-0.096
-151.633	-7.912	-0.281	0.189
-150.618	742.912	-0.151	0.404
-149.604	75.370	0.165	-0.173
-148.589	36.105	0.051	-0.044
-147.574	704.304	0.061	0.160
-146.560	-118.214	0.295	0.052
-145.545	38.658	-0.026	-0.023
-144.531	-91.872	-0.219	-0.062
-143.516	122.878	0.219	0.272
-142.502	590.202	0.155	0.379
-141.487	-22.651	0.287	0.173
-140.472	-200.000	-0.023	-0.128
-139.458	34.763	0.145	0.126
-138.443	9.175	-0.288	-0.216
-137.429	-147.923	0.174	0.014
-136.414	-140.472	0.263	-0.027
-135.399	-61.556	0.040	-0.017
-134.385	21.267	0.416	0.336
-133.370	-132.110	-0.079	-0.010
-132.356	800.000	-0.085	-0.271
-131.341	39.548	-0.255	-0.227
-130.326	800.000	0.071	0.224
-129.312	-200.000	0.058	0.387
-128.297	-56.264	0.383	0.169
-127.283	-83.993	0.209	0.066
-126.268	388.114	0.161	-0.331
-125.253	52.507	0.141	0.134
-124.239	-6.602	-0.074	0.050
-123.224	-200.000	0.000	-0.256
-122.210	-200.000	-0.006	0.047
-121.195	94.615	0.191	-0.215
-120.180	-200.000	0.042	0.266
-119.166	-70.216	-0.140	0.053
-118.151	-35.408	0.063	0.034
-117.137	-8.018	0.080	0.054
-116.122	800.000	0.048	-0.156
-115.107	302.918	-0.091	0.167
-114.093	-67.763	-0.280	-0.109
-113.078	-39.713	-0.124	0.064
-112.064	105.564	-0.037	-0.044
-111.049	-49.541	-0.030	0.014
-110.034	-200.000	0.024	0.339
-109.020	-135.361	0.380	-0.045
-108.005	140.602	0.094	0.123
-106.991	334.300	0.047	0.090
-105.976	-187.136	0.356	-0.005
-104.962	-200.000	0.084	-0.395
-103.947	-200.000	0.025	0.244
-102.932	172.361	-0.087	-0.124
-101.918	605.120	0.096	0.237
-100.903	-200.000	0.018	-0.242
-99.889	495.996	0.126	0.286
-98.874	-200.000	0.007	0.372
-97.859	514.432	0.076	0.176
-96.845	-89.531	0.171	0.050
-95.830	800.000	0.055	0.191
-94.816	631.045	-0.159	0.400
-93.801	51.140	-0.235	0.221
-92.786	-121.281	0.172	-0.028
-91.772	-40.058	-0.309	0.160
-90.757	-123.808	0.108	0.017
-89.743	423.005	-0.186	0.396
-88.728	448.301	0.149	0.326
-87.713	72.600	-0.127	0.132
-86.699	-149.278	-0.263	0.021
-85.684	9.387	0.139	-0.105
-84.670	277.733	-0.104	-0.183
-83.655	220.531	-0.109	-0.173
-82.640	-169.840	0.183	-0.007
-81.626	76.139	-0.161	-0.169
-80.611	-200.000	-0.003	-0.044
-79.597	-71.083	0.119	-0.044
-78.582	13.436	-0.133	-0.103
-77.567	-200.000	0.066	0.327
-76.553	-35.930	-0.160	-0.086
-75.538	800.000	0.128	0.359
-74.524	800.000	-0.105	0.289
-73.509	-40.392	-0.255	0.132
-72.494	-29.862	0.255	-0.144
-71.480	-200.000	0.037	-0.254
-70.465	121.115	-0.204	-0.251
-69.451	-161.122	0.340	0.018
-68.436	282.892	-0.256	0.456
-67.422	-21.903	0.243	0.146
-66.407	576.200	0.081	-0.196
-65.392	-98.633	-0.310	-0.078
-64.378	-7.990	-0.053	-0.035
-63.363	-200.000	0.005	-0.227
-62.349	-113.022	0.156	-0.031
-61.334	-18.042	-0.789	-0.490
-60.319	86.645	0.305	0.333
-59.305	-200.000	-0.051	-0.979
-58.290	128.053	0.648	0.817
-57.276	503.910	0.769	1.761
-56.261	-200.000	95.313	557.469
-55.246	622.392	1390.419	3467.010
-54.232	184.135	2617.910	3838.120
-53.217	120.837	2202.030	2711.783
-52.203	46.223	1649.429	1513.412
-51.188	37.951	1381.642	1216.353
-50.173	34.767	1338.170	1158.764
-49.159	55.883	1386.911	1331.778
-48.144	59.777	1404.941	1373.041
-47.130	38.358	1359.327	1199.016
-46.115	34.753	1341.336	1161.240
-45.100	34.434	1336.828	1155.356
-44.086	34.350	1334.586	1152.868
-43.071	34.465	1331.841	1151.143
-42.057	34.401	1330.042	1149.154
-41.042	34.325	1328.554	1147.366
-40.027	34.373	1326.668	1145.983
-39.013	34.433	1324.405	1144.341
-37.998	34.371	1323.077	1142.775
-36.984	34.528	1320.879	1141.770
-35.969	34.468	1319.640	1140.297
-34.954	34.454	1317.506	1138.324
-33.940	34.560	1316.351	1137.916
-32.925	34.517	1314.974	1136.426
-31.911	34.571	1313.575	1135.490
-30.896	34.473	1312.369	1133.823
-29.881	34.633	1310.245	1132.889
-28.867	34.768	1308.680	1132.291
-27.852	34.641	1307.474	1130.450
-26.838	34.622	1305.974	1128.994
-25.823	34.534	1304.974	1127.565
-24.809	34.629	1303.310	1126.645
-23.794	34.580	1302.100	1125.267
-22.779	34.609	1300.579	1124.075
-21.765	34.649	1299.344	1123.200
-20.750	34.614	1298.007	1121.794
-19.736	34.499	1296.873	1120.095
-18.721	34.394	1295.766	1118.477
-17.706	34.406	1294.431	1117.353
-16.692	34.492	1292.882	1116.474
-15.677	34.446	1291.871	1115.290
-14.663	34.514	1290.590	1114.538
-13.648	34.431	1289.625	1113.174
-12.633	34.352	1289.048	1112.169
-11.619	34.511	1287.493	1111.708
-10.604	34.496	1287.024	1111.175
-9.590	34.458	1286.394	1110.362
-8.575	34.365	1285.170	1108.721
-7.560	34.373	1284.594	1108.230
-6.546	34.462	1283.332	1107.611
-5.531	34.394	1282.253	1106.241
-4.517	34.352	1281.406	1105.226
-3.502	34.445	1280.677	1105.089
-2.487	34.573	1279.301	1104.601
-1.473	34.619	1275.148	1101.236
-0.458	33.443	1260.447	1081.786
0.556	31.938	1240.307	1040.137
1.571	27.625	1244.029	1019.118
2.586	25.985	1258.320	1021.455
3.600	24.129	1245.767	1000.760
4.615	18.131	1171.283	909.048
5.629	9.135	1094.399	804.425
6.644	5.017	1072.882	768.281
7.659	4.635	1069.913	764.212
8.673	4.427	1069.027	762.487
9.688	4.324	1067.885	761.101
10.702	4.989	1066.945	763.622
11.717	10.635	1075.025	797.134
12.731	19.213	1086.410	847.911
13.746	22.403	1090.182	866.508
14.761	22.167	1089.086	864.400
15.775	21.253	1087.265	858.389
16.790	20.192	1085.675	851.847
17.804	19.546	1083.772	847.114
18.819	19.256	1082.898	844.933
19.834	19.163	1081.827	843.564
20.848	18.961	1081.402	842.168
21.863	18.795	1080.647	840.696
22.877	18.675	1079.840	839.406
23.892	18.703	1078.685	838.570
24.907	18.599	1078.463	837.814
25.921	18.513	1077.463	836.543
26.936	18.693	1075.483	835.811
27.950	18.647	1074.501	834.750
28.965	18.733	1072.985	833.915
29.980	19.058	1071.744	834.452
30.994	18.962	1071.047	833.374
32.009	19.067	1069.965	832.964
33.023	19.042	1068.601	831.711
34.038	18.934	1067.265	830.072
35.053	18.761	1066.909	828.890
36.067	18.714	1065.904	827.809
37.082	18.816	1065.254	827.721
38.096	18.788	1065.174	827.451
39.111	19.000	1063.461	827.066
40.126	18.677	1062.234	824.490
41.140	18.465	1061.028	822.461
42.155	18.347	1059.622	820.733
43.169	18.281	1058.426	819.419
44.184	18.267	1057.546	818.599
45.199	18.320	1056.533	817.996
46.213	18.549	1055.335	818.087
47.228	18.782	1054.454	818.442
48.242	18.759	1054.071	817.961
49.257	18.663	1052.759	816.415
50.271	18.803	1052.166	816.548
51.286	18.961	1050.955	816.287
52.301	18.813	1050.033	814.798
53.315	18.606	1048.917	812.878
54.330	18.649	1047.659	812.036
55.344	18.493	1047.034	810.739
56.359	18.474	1046.068	809.831
57.374	18.451	1045.620	809.305
58.388	18.356	1044.509	807.923
59.403	18.240	1043.548	806.563
60.417	18.195	1043.205	806.017
61.432	18.243	1041.964	805.208
62.447	18.277	1040.417	804.105
63.461	18.049	1040.529	803.046
64.476	18.142	1039.251	802.425
65.490	18.061	1038.557	801.439
66.505	18.176	1037.642	801.202
67.520	18.288	1037.058	801.203
68.534	18.282	1036.531	800.696
69.549	18.275	1035.398	799.717
70.563	18.050	1034.504	797.906
71.578	18.039	1033.462	796.981
72.593	17.926	1032.936	795.982
73.607	17.955	1032.250	795.517
74.622	18.008	1031.693	795.262
75.636	18.028	1031.204	794.908
76.651	17.959	1030.782	794.192
77.666	18.045	1030.026	793.939
78.680	18.154	1028.733	793.380
79.695	18.139	1028.310	792.911
80.709	18.325	1027.835	793.337
81.724	18.306	1027.591	792.990
82.739	18.450	1026.746	792.934
83.753	18.727	1026.195	793.717
84.768	19.008	1025.555	794.451
85.782	19.087	1024.883	794.226
86.797	18.972	1024.081	793.005
87.812	18.785	1022.970	791.214
88.826	18.764	1021.785	790.129
89.841	18.966	1020.917	790.317
90.855	19.022	1020.155	789.916
91.870	18.903	1019.570	788.843
92.884	18.957	1018.559	788.239
93.899	18.996	1017.154	787.263
94.914	19.080	1016.730	787.248
95.928	18.979	1015.989	786.141
96.943	18.909	1015.077	785.047
97.957	18.911	1013.810	784.006
98.972	18.869	1013.408	783.436
99.987	18.860	1012.363	782.519
101.001	18.859	1011.204	781.547
102.016	18.852	1010.144	780.629
103.030	18.868	1009.547	780.170
104.045	18.895	1008.993	779.794
105.060	18.722	1008.038	778.206
106.074	18.638	1006.482	776.556
107.089	18.299	1005.578	774.256
108.103	18.258	1004.877	773.463
109.118	18.140	1003.950	772.148
110.133	18.254	1002.494	771.471
111.147	18.339	1001.664	771.150
112.162	18.291	1000.987	770.344
113.176	18.474	1000.250	770.529
114.191	18.372	1000.041	769.845
115.206	18.412	998.955	769.120
116.220	18.419	998.046	768.382
117.235	18.500	997.570	768.308
118.249	18.356	996.257	766.587
119.264	18.320	995.502	765.778
120.279	18.229	994.874	764.819
121.293	18.193	993.873	763.822
122.308	18.047	992.854	762.319
123.322	18.064	991.724	761.463
124.337	18.028	990.999	760.677
125.352	18.050	989.505	759.559
126.366	18.076	988.820	759.081
127.381	18.198	987.683	758.684
128.395	18.246	986.705	758.079
129.410	18.245	986.373	757.751
130.424	18.229	985.468	756.917
131.439	18.374	984.990	757.125
132.454	18.466	984.145	756.817
133.468	18.398	983.237	755.752
134.483	18.481	982.238	755.282
135.497	18.452	981.400	754.440
136.512	18.587	980.216	754.057
137.527	18.568	979.456	753.324
138.541	18.532	979.011	752.757
139.556	18.474	978.115	751.749
140.570	18.772	977.432	752.460
141.585	18.876	976.866	752.413
142.600	18.894	976.218	751.928
143.614	18.958	975.259	751.401
144.629	19.160	974.476	751.613
145.643	18.957	973.716	750.074
146.658	18.786	972.634	748.431
147.673	18.664	970.933	746.527
148.687	18.642	969.909	745.578
149.702	18.529	969.414	744.638
150.716	18.385	968.889	743.546
151.731	18.573	967.797	743.456
152.746	18.546	967.193	742.811
153.760	18.588	966.858	742.669
154.775	18.763	965.946	742.660
155.789	18.906	965.348	742.751
156.804	18.843	964.739	741.945
157.819	18.878	964.062	741.509
158.833	18.972	963.828	741.668
159.848	19.145	962.749	741.520
160.862	18.921	961.609	739.613
161.877	18.836	959.680	737.696
162.892	18.545	959.217	736.028
163.906	18.428	958.138	734.633
164.921	18.513	957.145	734.173
165.935	18.611	956.189	733.789
166.950	18.631	955.804	733.517
167.964	18.722	954.280	732.669
168.979	18.575	953.690	731.526
169.994	18.551	952.912	730.760
171.008	18.681	952.512	730.943
172.023	18.934	951.758	731.377
173.037	19.076	950.648	731.061
174.052	18.961	949.941	729.965
175.067	18.660	949.292	728.125
176.081	18.533	948.706	727.073
177.096	18.450	948.309	726.353
178.110	18.528	947.826	726.250
179.125	18.621	946.905	725.872
180.140	18.703	946.555	725.887
181.154	18.990	945.956	726.576
182.169	19.062	945.814	726.708
183.183	19.043	945.316	726.178
184.198	19.020	944.452	725.357
185.213	18.861	943.876	724.177
186.227	19.168	942.950	724.697
187.242	19.146	942.338	724.067
188.256	19.261	941.996	724.226
189.271	19.248	941.293	723.566
190.286	18.907	940.087	721.145
191.300	18.498	939.141	718.639
192.315	18.375	938.421	717.511
193.329	18.346	938.272	717.214
194.344	18.779	937.331	718.239
195.359	18.853	936.691	717.996
196.373	18.869	936.803	718.087
197.388	18.996	936.353	718.208
198.402	19.178	935.984	718.621
199.417	19.378	935.002	718.636
200.432	19.336	935.099	718.473
201.446	19.570	934.333	718.795
202.461	19.678	933.812	718.777
203.475	19.510	933.075	717.450
204.490	19.172	931.902	715.082
205.504	19.211	930.864	714.382
206.519	19.279	929.992	713.933
207.534	19.174	929.719	713.223
208.548	19.192	928.649	712.416
209.563	19.135	928.760	712.204
210.577	19.222	928.409	712.230
211.592	19.351	927.437	711.955
212.607	19.545	926.362	711.867
213.621	19.430	925.871	710.949
214.636	19.368	925.321	710.210
215.650	19.379	924.512	709.572
216.665	19.508	924.129	709.745
217.680	19.554	923.108	709.087
218.694	19.558	922.846	708.839
219.709	19.558	922.044	708.161
220.723	19.524	921.340	707.419
221.738	19.474	920.423	706.449
222.753	19.463	920.204	706.170
223.767	19.464	919.657	705.693
224.782	19.751	919.296	706.526
225.796	19.781	918.556	706.020
226.811	19.676	917.763	704.918
227.826	19.484	916.902	703.412
228.840	19.507	916.254	702.948
229.855	19.475	915.307	702.029
230.869	19.552	914.421	701.599
231.884	19.394	913.922	700.513
232.899	19.392	913.176	699.869
233.913	19.429	912.122	699.152
234.928	19.217	911.670	697.882
235.942	19.143	911.138	697.117
236.957	19.173	910.680	696.824
237.972	19.233	910.064	696.534
238.986	19.296	909.135	696.016
240.001	19.338	908.716	695.804
241.015	19.439	908.385	695.894
242.030	19.451	907.884	695.498
243.045	19.563	906.971	695.189
244.059	19.586	906.076	694.533
245.074	19.631	905.920	694.532
246.088	19.758	905.490	694.651
247.103	19.832	904.860	694.403
248.117	19.881	904.921	694.588
249.132	20.119	904.274	694.982
250.147	20.271	904.024	695.339
251.161	20.277	903.326	694.764
252.176	20.397	902.428	694.491
253.190	20.556	901.675	694.485
254.205	20.412	901.394	693.633
255.220	20.410	900.326	692.740
256.234	20.315	899.364	691.562
257.249	20.403	899.185	691.712
258.263	20.290	898.512	690.684
259.278	20.306	897.784	690.126
260.293	20.480	897.191	690.301
261.307	20.627	896.561	690.341
262.322	20.557	896.264	689.774
263.336	20.664	895.163	689.289
264.351	20.580	894.101	688.078
265.366	20.612	893.844	687.943
266.380	20.587	893.158	687.256
267.395	20.388	892.570	685.956
268.409	20.248	891.992	684.902
269.424	20.379	890.988	684.584
270.439	20.419	890.177	684.058
271.453	20.282	889.224	682.729
272.468	20.283	888.871	682.401
273.482	20.228	888.178	681.590
274.497	20.287	887.376	681.148
275.512	20.275	887.267	680.955
276.526	20.276	886.840	680.571
277.541	20.454	886.128	680.661
278.555	20.579	885.669	680.740
279.570	20.736	884.876	680.685
280.585	20.625	884.206	679.674
281.599	20.444	883.469	678.341
282.614	20.407	882.912	677.708
283.628	20.313	882.218	676.749
284.643	20.430	881.465	676.568
285.657	20.468	880.846	676.183
286.672	20.506	880.575	676.060
287.687	20.457	879.848	675.251
288.701	20.547	879.274	675.103
289.716	20.582	877.981	674.184
290.730	20.410	878.206	673.630
291.745	20.581	877.466	673.664
292.760	20.686	876.620	673.365
293.774	20.871	876.033	673.568
294.789	20.621	875.552	672.172
295.803	20.459	875.023	671.081
296.818	20.489	873.700	670.122
297.833	20.593	873.333	670.182
298.847	20.505	873.011	669.538
299.862	20.606	872.282	669.309
300.876	20.768	871.673	669.403
301.891	20.910	871.393	669.678
302.906	21.037	870.876	669.708
303.920	21.151	870.384	669.708
304.935	21.090	870.167	669.248
305.949	21.062	868.893	668.099
306.964	20.897	868.026	666.742
307.979	20.913	867.687	666.487
308.993	20.988	867.203	666.342
310.008	21.087	866.701	666.276
311.022	20.982	865.932	665.226
312.037	20.761	865.784	664.209
313.052	20.712	864.640	663.085
314.066	20.504	864.269	661.950
315.081	20.524	863.873	661.665
316.095	20.607	862.959	661.221
317.110	20.769	861.964	661.017
318.125	20.613	862.021	660.410
319.139	20.530	861.473	659.616
320.154	20.648	860.843	659.520
321.168	20.743	860.489	659.553
322.183	20.740	860.147	659.220
323.197	20.662	859.687	658.516
324.212	20.862	858.748	658.495
325.227	20.891	857.895	657.891
326.241	20.718	857.720	657.044
327.256	20.840	856.830	656.767
328.270	20.592	856.498	655.517
329.285	20.633	856.019	655.248
330.300	20.680	855.569	655.020
331.314	20.737	854.863	654.639
332.329	20.873	854.623	654.905
333.343	21.049	854.254	655.226
334.358	20.881	853.782	654.176
335.373	21.008	853.344	654.258
336.387	21.043	853.148	654.184
337.402	21.122	852.677	654.059
338.416	21.232	852.702	654.433
339.431	21.466	852.505	655.101
340.446	21.503	851.775	654.622
341.460	21.544	851.023	654.139
342.475	21.679	850.690	654.328
343.489	21.635	850.409	653.891
344.504	21.761	849.700	653.755
345.519	21.736	849.490	653.444
346.533	21.601	848.698	652.274
347.548	21.330	848.386	650.967
348.562	21.287	847.325	649.937
349.577	21.129	846.721	648.827
350.592	21.058	846.065	648.002
351.606	21.155	845.122	647.586
352.621	21.033	844.814	646.840
353.635	21.273	844.238	647.231
354.650	21.277	843.740	646.806
355.665	21.292	842.927	646.179
356.679	21.452	842.420	646.325
357.694	21.381	841.767	645.507
358.708	21.426	841.049	645.062
359.723	21.299	840.491	644.109
360.738	21.421	840.062	644.174
361.752	21.375	839.673	643.649
362.767	21.702	838.909	644.210
363.781	21.809	838.525	644.250
364.796	21.827	838.372	644.141
365.810	21.878	838.155	644.108
366.825	22.039	837.674	644.270
367.840	21.904	837.371	643.486
368.854	21.834	836.249	642.308
369.869	21.625	835.893	641.213
370.883	21.653	836.062	641.391
371.898	21.965	835.185	641.802
372.913	21.911	835.036	641.431
373.927	21.726	834.505	640.292
374.942	22.073	833.415	640.663
375.956	22.131	833.189	640.645
376.971	22.100	832.880	640.239
377.986	22.221	832.901	640.638
379.000	22.216	831.947	639.831
380.015	22.280	831.414	639.595
381.029	22.101	830.737	638.368
382.044	22.174	830.361	638.289
383.059	22.137	829.803	637.668
384.073	22.006	829.010	636.528
385.088	21.810	828.155	635.105
386.102	21.773	827.386	634.327
387.117	21.778	827.113	634.077
388.132	21.785	826.731	633.753
389.146	21.749	826.070	633.062
390.161	21.911	826.176	633.673
391.175	22.068	825.419	633.602
392.190	22.035	824.268	632.542
393.205	21.837	823.912	631.503
394.219	21.872	823.732	631.432
395.234	21.757	823.304	630.635
396.248	21.779	822.781	630.260
397.263	21.641	822.147	629.222
398.278	21.580	821.871	628.735
399.292	21.699	821.404	628.750
400.307	21.631	820.712	627.920
401.321	21.692	820.354	627.810
402.336	21.861	819.930	628.035
403.350	22.036	819.648	628.390
404.365	22.174	819.363	628.608
405.380	22.197	818.981	628.342
406.394	22.224	818.427	627.959
407.409	22.337	817.897	627.899
408.423	22.337	817.898	627.846
409.438	22.287	817.669	627.433
410.453	22.502	817.038	627.661
411.467	22.479	816.416	627.045
412.482	22.762	815.747	627.484
413.496	22.712	816.031	627.466
414.511	22.677	815.282	626.712
415.526	22.613	814.543	625.861
416.540	22.448	814.216	624.970
417.555	22.498	813.782	624.757
418.569	22.589	813.262	624.627
419.584	22.554	812.887	624.158
420.599	22.690	812.483	624.276
421.613	159.920	1369.750	1790.581
422.628	139.248	1450.945	1790.696
