DTS Sentinel unit serial number:	SN413079Multiplexer serial number:	ORYXHardware model number:	OX4-SRSoftware version number:	ORYX F/W v4.00 Oryx Data Collector v3.7.2.0data status	okinstallation	princeton_trtdifferential loss correction	single-endedforward channel	channel 1reverse channel	N/Adate	2019/09/16time	03:30:35forward acquisition time	60.00reverse acquisition time	0.00gamma	496.2192k internal	0.2331k external	0.2331temperature offset calibration	0.9981default loss term (dB/km)	0.3790temperature slope calibration	1.0000multiplexer offset coefficient	1.0000multiplexer slope coefficient	1.0000fibre end	0.00T internal ref (°C)	27.67T ext. ref 1 (°C)	10.56T ext. ref 2 (°C)	21.62length (m)	temperature (°C)	Stokes	anti-Stokes-747.200	-96.753	0.082	-0.022
-746.185	190.171	-0.180	0.272
-745.171	-200.000	0.036	0.204
-744.156	-200.000	-0.051	0.345
-743.142	-20.717	0.268	0.165
-742.127	59.334	-0.294	0.292
-741.112	18.928	0.121	0.098
-740.098	116.261	0.114	0.141
-739.083	-73.601	-0.230	-0.084
-738.069	359.309	0.040	0.081
-737.054	257.711	-0.109	0.189
-736.039	15.400	-0.298	-0.235
-735.025	-200.000	0.003	0.169
-734.010	800.000	-0.025	0.098
-732.996	-23.124	-0.351	0.212
-731.981	800.000	0.067	-0.197
-730.966	-95.187	0.260	-0.071
-729.952	-143.676	0.141	-0.013
-728.937	800.000	-0.044	0.142
-727.923	16.658	-0.157	-0.125
-726.908	-52.894	0.040	-0.019
-725.894	308.131	0.048	-0.089
-724.879	199.117	-0.092	-0.142
-723.864	188.887	-0.168	0.252
-722.850	18.097	0.110	0.088
-721.835	800.000	-0.021	0.080
-720.821	-200.000	-0.021	-0.104
-719.806	74.166	0.175	0.185
-718.791	-94.998	-0.335	0.091
-717.777	-32.863	0.210	0.117
-716.762	-89.974	0.270	0.079
-715.748	178.420	-0.051	-0.075
-714.733	-200.000	0.015	-0.163
-713.718	146.759	-0.043	0.058
-712.704	-200.000	-0.027	0.168
-711.689	-200.000	0.025	0.321
-710.675	-129.459	0.073	0.010
-709.660	-171.491	-0.330	0.011
-708.645	-153.712	0.005	-0.000
-707.631	800.000	0.036	-0.142
-706.616	-17.879	0.483	-0.304
-705.602	37.196	0.128	0.114
-704.587	54.091	0.055	-0.053
-703.572	410.965	0.136	0.291
-702.558	88.005	0.077	-0.086
-701.543	-200.000	-0.020	-0.146
-700.529	-200.000	-0.098	0.453
-699.514	90.034	0.018	-0.020
-698.499	8.824	0.140	0.106
-697.485	-200.000	0.028	-0.149
-696.470	-182.771	0.354	-0.006
-695.456	-16.848	0.093	-0.059
-694.441	16.206	-0.250	0.198
-693.426	21.022	-0.140	-0.114
-692.412	200.728	0.066	-0.101
-691.397	28.420	0.283	0.240
-690.383	451.049	0.118	0.263
-689.368	-79.995	0.228	0.077
-688.354	-200.000	-0.025	0.180
-687.339	169.281	-0.148	0.212
-686.324	-200.000	-0.056	0.333
-685.310	-200.000	-0.005	0.277
-684.295	166.230	-0.016	0.022
-683.281	37.229	0.102	-0.091
-682.266	-195.444	0.193	0.001
-681.251	43.359	-0.095	0.087
-680.237	129.578	0.206	-0.264
-679.222	-200.000	0.022	-0.266
-678.208	52.362	-0.234	0.224
-677.193	-59.313	-0.161	0.070
-676.178	-152.071	0.253	-0.018
-675.164	-46.999	-0.164	0.080
-674.149	-145.548	-0.284	-0.026
-673.135	-150.119	-0.258	0.020
-672.120	-88.416	-0.158	-0.047
-671.105	-112.418	0.150	0.030
-670.091	-124.297	0.173	0.027
-669.076	-200.000	0.002	0.040
-668.062	800.000	0.040	0.149
-667.047	-122.845	-0.077	-0.012
-666.032	32.298	-0.340	0.294
-665.018	154.255	0.166	0.228
-664.003	61.171	-0.152	0.152
-662.989	-139.031	0.344	0.037
-661.974	-142.104	-0.160	0.016
-660.959	-60.739	-0.042	-0.018
-659.945	800.000	-0.096	-0.359
-658.930	10.531	-0.191	0.146
-657.916	-76.645	0.683	0.240
-656.901	132.255	-0.034	-0.043
-655.886	800.000	0.019	-0.080
-654.872	161.276	0.188	-0.264
-653.857	-40.814	0.226	0.117
-652.843	6.414	-0.070	-0.052
-651.828	-11.121	0.070	0.046
-650.814	-94.246	0.413	-0.113
-649.799	-120.935	-0.169	-0.029
-648.784	-122.809	-0.342	0.055
-647.770	-18.745	-0.284	-0.177
-646.755	-107.259	0.195	-0.043
-645.741	1.893	0.223	0.162
-644.726	-67.805	0.105	0.041
-643.711	397.861	-0.011	0.023
-642.697	-200.000	0.020	0.246
-641.682	-128.326	0.116	-0.017
-640.668	-74.016	0.120	-0.044
-639.653	800.000	0.068	0.190
-638.638	69.017	0.099	-0.102
-637.624	-131.972	0.113	0.015
-636.609	-99.136	0.183	0.046
-635.595	-22.882	0.206	-0.125
-634.580	38.667	0.227	-0.203
-633.565	-122.345	0.429	0.070
-632.551	145.193	-0.126	0.169
-631.536	141.584	0.072	-0.096
-630.522	800.000	-0.081	0.231
-629.507	53.352	0.182	-0.174
-628.492	-80.590	0.077	0.026
-627.478	-73.924	-0.240	0.087
-626.463	-200.000	-0.033	0.195
-625.449	-118.163	-0.097	-0.017
-624.434	142.791	-0.173	-0.231
-623.419	-168.628	-0.217	0.008
-622.405	-200.000	0.030	-0.178
-621.390	99.396	-0.296	0.343
-620.376	-200.000	-0.175	-0.001
-619.361	256.893	0.072	0.124
-618.346	79.768	0.053	-0.057
-617.332	-200.000	0.016	-0.244
-616.317	208.828	0.132	0.207
-615.303	145.814	-0.033	-0.044
-614.288	-200.000	-0.016	-0.257
-613.273	-30.429	-0.184	-0.104
-612.259	-86.730	0.587	-0.180
-611.244	-16.230	-0.147	-0.093
-610.230	-72.483	0.044	-0.016
-609.215	-37.625	-0.154	-0.082
-608.201	20.457	-0.245	-0.198
-607.186	137.454	-0.150	0.197
-606.171	14.297	0.238	-0.186
-605.157	270.408	0.146	-0.256
-604.142	-200.000	-0.006	-0.093
-603.128	296.914	0.170	0.312
-602.113	-93.486	-0.174	0.048
-601.098	-118.305	-0.063	0.011
-600.084	-200.000	-0.031	0.269
-599.069	-200.000	-0.006	-0.240
-598.055	-34.941	-0.254	-0.139
-597.040	-12.927	-0.298	0.194
-596.025	177.492	-0.130	-0.190
-595.011	-7.208	-0.256	0.174
-593.996	-200.000	0.070	-0.596
-592.982	-169.377	0.126	-0.005
-591.967	-46.137	0.054	-0.026
-590.952	305.613	0.056	-0.105
-589.938	-90.542	0.231	0.067
-588.923	800.000	-0.067	-0.235
-587.909	800.000	0.053	0.231
-586.894	-5.836	0.140	-0.096
-585.879	-47.317	-0.152	0.074
-584.865	-133.121	0.153	-0.019
-583.850	125.505	0.111	0.140
-582.836	-35.398	0.291	-0.158
-581.821	108.676	-0.220	0.263
-580.806	625.893	0.022	-0.055
-579.792	-83.852	0.206	0.066
-578.777	-83.720	-0.325	-0.104
-577.763	-200.000	0.014	0.199
-576.748	-50.380	-0.151	-0.072
-575.733	-105.020	0.177	-0.040
-574.719	-149.701	-0.234	-0.018
-573.704	-38.132	-0.438	0.232
-572.690	-50.332	-0.212	0.100
-571.675	-200.000	-0.045	-0.356
-570.661	62.802	-0.221	-0.221
-569.646	-200.000	0.006	-0.106
-568.631	15.381	-0.201	-0.158
-567.617	27.210	-0.221	0.185
-566.602	-139.766	-0.195	0.021
-565.588	-200.000	-0.008	-0.051
-564.573	192.910	0.062	-0.093
-563.558	-200.000	-0.016	0.220
-562.544	-87.329	0.162	-0.049
-561.529	526.306	-0.159	0.374
-560.515	-89.720	0.114	-0.033
-559.500	677.533	-0.064	-0.165
-558.485	324.455	0.115	-0.220
-557.471	-160.541	-0.362	0.019
-556.456	-95.686	-0.087	0.023
-555.442	-76.096	0.201	-0.071
-554.427	-72.479	-0.201	0.074
-553.412	692.000	0.079	0.208
-552.398	-4.404	-0.521	0.360
-551.383	16.319	0.244	-0.192
-550.369	155.323	0.231	0.317
-549.354	129.554	-0.062	0.079
-548.339	-200.000	-0.027	0.228
-547.325	35.007	0.155	-0.135
-546.310	-77.399	-0.280	-0.097
-545.296	-200.000	0.006	0.110
-544.281	-200.000	0.006	0.147
-543.266	-200.000	0.016	0.161
-542.252	-200.000	-0.035	0.357
-541.237	162.114	0.150	-0.211
-540.223	152.192	0.078	-0.106
-539.208	-112.183	0.188	0.038
-538.193	-106.362	0.286	0.064
-537.179	-30.514	0.083	0.047
-536.164	-164.443	-0.079	-0.004
-535.150	-200.000	0.060	-0.273
-534.135	619.703	0.086	0.215
-533.121	248.609	-0.132	-0.223
-532.106	87.328	-0.036	0.040
-531.091	800.000	-0.055	-0.190
-530.077	-3.286	0.161	0.112
-529.062	298.663	0.086	0.158
-528.048	272.659	0.196	-0.345
-527.033	-200.000	0.000	-0.307
-526.018	-200.000	0.001	-0.033
-525.004	20.160	-0.244	0.196
-523.989	800.000	-0.072	-0.260
-522.975	-61.238	0.034	0.014
-521.960	-57.656	-0.262	0.114
-520.945	800.000	-0.094	0.282
-519.931	-27.505	0.245	0.142
-518.916	-200.000	-0.018	0.306
-517.902	-133.392	-0.079	0.010
-516.887	-182.983	-0.255	-0.005
-515.872	-34.447	0.029	0.016
-514.858	800.000	0.068	0.205
-513.843	-200.000	-0.069	0.494
-512.829	-60.065	0.581	0.247
-511.814	-200.000	0.012	0.085
-510.799	-200.000	0.039	-0.173
-509.785	739.109	0.044	-0.119
-508.770	13.761	0.099	-0.077
-507.756	-200.000	0.052	-0.313
-506.741	86.787	0.258	-0.284
-505.726	-200.000	0.028	0.178
-504.712	13.981	0.151	0.117
-503.697	19.224	-0.062	-0.049
-502.683	-16.237	0.148	0.094
-501.668	599.359	0.052	0.129
-500.653	-102.124	0.264	0.063
-499.639	203.681	0.190	0.293
-498.624	241.850	-0.127	-0.212
-497.610	-47.113	-0.251	-0.122
-496.595	-136.155	0.187	0.022
-495.581	-27.358	0.110	0.064
-494.566	-12.714	-0.277	0.180
-493.551	-58.287	0.181	-0.079
-492.537	800.000	0.106	-0.293
-491.522	800.000	-0.031	-0.125
-490.508	656.153	0.024	-0.061
-489.493	-200.000	-0.011	0.280
-488.478	-93.472	-0.149	0.041
-487.464	57.585	-0.190	0.186
-486.449	90.520	-0.068	-0.076
-485.435	-107.032	-0.196	-0.043
-484.420	201.865	-0.072	-0.111
-483.405	500.061	0.188	-0.432
-482.391	463.244	-0.091	-0.203
-481.376	439.923	0.048	-0.104
-480.362	800.000	-0.028	0.108
-479.347	-117.917	-0.285	-0.051
-478.332	273.734	0.089	0.156
-477.318	-16.920	-0.234	0.147
-476.303	103.328	0.125	0.146
-475.289	612.913	-0.080	0.198
-474.274	-200.000	0.013	0.087
-473.259	77.871	-0.133	-0.141
-472.245	120.049	0.051	-0.063
-471.230	-108.263	0.238	-0.051
-470.216	65.668	-0.187	0.189
-469.201	-200.000	0.010	0.306
-468.186	222.737	0.080	-0.129
-467.172	154.297	0.043	0.059
-466.157	215.664	-0.098	0.155
-465.143	-120.739	0.218	0.037
-464.128	-200.000	0.029	-0.434
-463.113	-45.225	0.276	0.136
-462.099	127.437	0.109	0.138
-461.084	174.596	-0.160	0.230
-460.070	37.911	0.108	0.096
-459.055	-49.776	0.137	-0.065
-458.040	437.751	0.078	-0.169
-457.026	-59.331	0.360	0.154
-456.011	-44.073	-0.262	0.131
-454.997	322.163	-0.157	-0.297
-453.982	-200.000	-0.061	-0.413
-452.968	-75.696	0.030	-0.011
-451.953	800.000	0.077	-0.284
-450.938	12.476	0.150	-0.115
-449.924	311.525	0.040	0.074
-448.909	800.000	0.089	0.258
-447.895	39.056	0.125	0.111
-446.880	-152.713	-0.133	0.009
-445.865	-200.000	-0.013	0.124
-444.851	-96.780	-0.442	-0.116
-443.836	-100.372	0.309	-0.076
-442.822	-200.000	-0.022	-0.148
-441.807	-102.421	-0.177	-0.042
-440.792	100.656	0.090	0.103
-439.778	461.477	0.138	-0.306
-438.763	213.080	0.041	0.064
-437.749	-200.000	-0.031	0.151
-436.734	-98.220	-0.208	0.053
-435.719	358.174	-0.097	0.192
-434.705	-97.229	0.218	0.056
-433.690	6.034	-0.169	0.125
-432.676	-63.576	0.272	-0.111
-431.661	252.741	-0.095	0.162
-430.646	135.035	-0.100	-0.129
-429.632	499.653	0.054	0.124
-428.617	302.481	-0.045	-0.084
-427.603	44.583	0.214	0.195
-426.588	-186.539	0.119	-0.002
-425.573	800.000	-0.066	0.230
-424.559	81.939	-0.066	-0.071
-423.544	272.916	-0.032	-0.056
-422.530	800.000	-0.095	0.375
-421.515	-63.499	0.188	-0.077
-420.500	-30.347	0.292	-0.165
-419.486	60.256	0.107	0.105
-418.471	800.000	0.078	0.315
-417.457	-126.651	0.333	0.049
-416.442	-110.879	0.082	0.017
-415.428	228.380	-0.143	0.232
-414.413	246.014	0.150	0.251
-413.398	-200.000	0.000	0.175
-412.384	78.280	-0.038	0.040
-411.369	454.163	-0.094	0.208
-410.355	-132.042	0.138	-0.018
-409.340	-8.311	-0.178	0.119
-408.325	-35.602	0.032	0.017
-407.311	-96.757	0.096	0.025
-406.296	6.969	0.125	-0.093
-405.282	134.517	0.189	-0.243
-404.267	126.938	-0.046	-0.058
-403.252	-99.654	0.094	-0.023
-402.238	51.106	-0.142	0.134
-401.223	-67.858	-0.129	0.050
-400.209	-200.000	-0.014	-0.114
-399.194	800.000	0.036	0.120
-398.179	-129.478	-0.175	0.024
-397.165	-150.577	0.267	-0.020
-396.150	-200.000	0.006	0.148
-395.136	275.437	0.175	-0.308
-394.121	800.000	-0.153	-0.419
-393.106	-113.808	-0.503	-0.097
-392.092	8.500	0.086	-0.064
-391.077	417.465	0.122	0.259
-390.063	-6.978	-0.082	0.055
-389.048	277.634	-0.130	-0.230
-388.033	-67.415	-0.096	-0.037
-387.019	53.329	0.289	-0.275
-386.004	77.145	0.037	-0.039
-384.990	-56.843	-0.145	0.063
-383.975	800.000	-0.087	0.248
-382.960	344.144	0.051	-0.099
-381.946	230.281	-0.153	-0.248
-380.931	-200.000	0.066	0.463
-379.917	190.217	-0.037	-0.056
-378.902	167.920	-0.117	0.165
-377.888	-200.000	0.021	0.190
-376.873	63.570	-0.100	-0.100
-375.858	674.170	0.038	-0.097
-374.844	-200.000	0.013	-0.227
-373.829	-28.242	0.085	0.049
-372.815	-72.675	0.326	0.119
-371.800	131.422	0.077	-0.098
-370.785	-55.380	-0.419	-0.187
-369.771	-37.253	-0.150	-0.080
-368.756	-104.115	-0.112	-0.026
-367.742	40.994	-0.176	-0.157
-366.727	-200.000	0.001	-0.121
-365.712	-112.791	-0.222	-0.044
-364.698	-120.034	0.379	0.064
-363.683	3.153	-0.147	0.106
-362.669	31.998	-0.220	0.188
-361.654	-154.467	-0.082	0.005
-360.639	-200.000	0.004	-0.111
-359.625	-200.000	0.025	-0.483
-358.610	-102.904	-0.182	-0.043
-357.596	-87.525	0.097	-0.029
-356.581	169.781	0.125	-0.177
-355.566	-45.812	0.060	0.030
-354.552	-200.000	-0.040	-0.317
-353.537	3.826	0.147	-0.106
-352.523	5.199	0.118	0.086
-351.508	-26.218	0.163	0.095
-350.493	-11.855	0.051	0.033
-349.479	88.102	-0.145	0.160
-348.464	-66.349	0.126	-0.050
-347.450	89.611	0.145	-0.161
-346.435	-144.761	-0.174	-0.016
-345.420	-200.000	0.069	-0.329
-344.406	262.680	-0.167	-0.288
-343.391	-147.823	0.232	-0.019
-342.377	-84.048	0.273	0.086
-341.362	22.563	0.259	0.210
-340.348	-185.410	0.258	0.004
-339.333	44.218	0.172	-0.156
-338.318	-61.510	-0.174	0.072
-337.304	135.525	0.099	0.128
-336.289	800.000	0.112	0.325
-335.275	19.504	-0.125	-0.100
-334.260	-61.345	0.145	0.061
-333.245	-33.316	-0.205	-0.113
-332.231	-50.129	0.113	-0.053
-331.216	399.166	-0.064	-0.132
-330.202	-200.000	0.046	-0.213
-329.187	185.612	0.269	0.396
-328.172	-22.698	-0.217	0.130
-327.158	-46.139	-0.089	0.043
-326.143	125.835	0.152	0.191
-325.129	188.004	0.330	-0.487
-324.114	-200.000	0.052	-0.241
-323.099	-76.074	0.055	-0.019
-322.085	-200.000	-0.018	0.489
-321.070	34.878	0.135	-0.117
-320.056	-200.000	-0.093	-0.549
-319.041	-133.716	0.149	-0.018
-318.026	-200.000	-0.032	0.267
-317.012	45.631	-0.149	-0.136
-315.997	-200.000	-0.012	0.214
-314.983	-200.000	-0.003	-0.136
-313.968	-130.123	-0.203	-0.027
-312.953	99.336	-0.133	-0.152
-311.939	-91.184	-0.220	-0.063
-310.924	-44.669	0.065	-0.032
-309.910	786.702	-0.054	-0.146
-308.895	800.000	0.117	0.324
-307.880	-94.141	0.198	0.054
-306.866	-200.000	-0.018	0.373
-305.851	-20.450	0.277	-0.168
-304.837	-200.000	0.013	-0.179
-303.822	-22.149	-0.080	-0.048
-302.807	232.589	0.140	0.227
-301.793	-22.082	0.222	-0.134
-300.778	-134.075	0.412	0.050
-299.764	-31.127	-0.149	0.083
-298.749	-6.547	0.190	-0.128
-297.735	-67.534	-0.189	-0.073
-296.720	28.367	0.330	0.276
-295.705	-95.127	-0.504	0.134
-294.691	-103.287	0.242	-0.057
-293.676	151.295	-0.032	-0.043
-292.662	23.613	0.024	0.020
-291.647	-200.000	0.006	-0.095
-290.632	-63.281	0.187	0.076
-289.618	-152.107	0.461	0.033
-288.603	800.000	0.094	0.274
-287.589	23.870	0.092	0.075
-286.574	432.902	0.209	0.448
-285.559	1.247	-0.517	0.367
-284.545	53.525	0.205	-0.194
-283.530	-61.389	-0.176	-0.073
-282.516	42.548	-0.102	-0.091
-281.501	-60.590	-0.062	0.026
-280.486	-125.084	0.082	-0.013
-279.472	-135.172	-0.515	-0.061
-278.457	-133.162	0.327	-0.041
-277.443	-147.852	0.292	0.024
-276.428	346.139	-0.067	0.131
-275.413	163.943	-0.076	0.106
-274.399	177.059	-0.213	-0.307
-273.384	28.705	-0.035	-0.029
-272.370	88.672	0.080	0.087
-271.355	-165.257	0.080	0.003
-270.340	-200.000	-0.046	-0.284
-269.326	-114.638	0.191	0.036
-268.311	800.000	0.026	0.107
-267.297	800.000	0.059	0.206
-266.282	-50.168	0.104	0.049
-265.267	-118.294	-0.306	-0.054
-264.253	29.597	-0.288	-0.242
-263.238	-200.000	0.041	0.258
-262.224	184.841	0.137	-0.201
-261.209	-17.415	-0.150	-0.094
-260.195	343.613	-0.066	0.128
-259.180	-200.000	-0.008	-0.097
-258.165	-200.000	-0.257	0.001
-257.151	-165.243	-0.260	0.011
-256.136	-8.356	-0.150	-0.099
-255.122	152.841	0.087	0.117
-254.107	-200.000	0.046	-0.269
-253.092	125.965	0.141	-0.176
-252.078	4.209	0.279	0.202
-251.063	-200.000	-0.009	-0.057
-250.049	26.773	-0.205	0.169
-249.034	-123.850	-0.159	-0.025
-248.019	-200.000	0.007	-0.127
-247.005	-200.000	0.011	-0.120
-245.990	89.865	0.081	-0.089
-244.976	82.308	-0.057	-0.061
-243.961	-200.000	-0.004	-0.184
-242.946	-200.000	-0.048	-0.526
-241.932	8.575	0.298	0.222
-240.917	-92.600	-0.395	-0.109
-239.903	800.000	-0.039	0.144
-238.888	111.898	-0.107	0.127
-237.873	520.729	-0.100	-0.230
-236.859	37.790	0.036	0.032
-235.844	800.000	0.045	-0.161
-234.830	57.856	0.068	-0.066
-233.815	-36.095	-0.099	0.053
-232.800	-64.698	-0.243	0.097
-231.786	-151.169	0.334	-0.025
-230.771	-200.000	-0.008	-0.259
-229.757	800.000	0.027	-0.082
-228.742	14.411	0.215	0.166
-227.727	-166.801	-0.169	-0.007
-226.713	1.429	0.137	-0.097
-225.698	-152.353	0.003	-0.000
-224.684	-13.362	0.220	-0.141
-223.669	-200.000	-0.009	-0.096
-222.655	-131.102	0.208	0.027
-221.640	396.490	0.069	-0.143
-220.625	800.000	-0.042	0.160
-219.611	529.759	0.047	0.110
-218.596	-121.877	0.267	-0.043
-217.582	-103.803	-0.363	0.084
-216.567	-79.565	0.461	0.154
-215.552	-133.759	0.305	-0.037
-214.538	-25.435	0.180	0.105
-213.523	800.000	0.053	0.165
-212.509	-124.788	-0.181	-0.028
-211.494	-93.028	-0.514	0.141
-210.479	-93.678	0.128	0.035
-209.465	-10.150	-0.124	-0.081
-208.450	-200.000	0.051	-0.264
-207.436	-200.000	-0.026	0.140
-206.421	336.881	0.171	-0.327
-205.406	-45.596	-0.228	-0.111
-204.392	-64.989	-0.485	0.193
-203.377	-70.553	-0.255	0.095
-202.363	-5.027	-0.275	0.187
-201.348	-54.831	0.051	-0.023
-200.333	-96.584	-0.332	0.086
-199.319	-104.139	0.046	0.011
-198.304	-61.545	-0.262	-0.108
-197.290	11.882	-0.037	0.028
-196.275	663.076	-0.097	-0.246
-195.260	800.000	-0.086	0.270
-194.246	-69.836	0.236	0.089
-193.231	-200.000	-0.006	-0.265
-192.217	525.379	-0.057	-0.132
-191.202	166.731	-0.105	0.147
-190.187	-162.957	-0.222	0.011
-189.173	-140.208	0.248	-0.026
-188.158	-200.000	0.049	0.320
-187.144	172.719	-0.040	-0.056
-186.129	-200.000	0.031	0.286
-185.114	230.133	-0.112	-0.181
-184.100	385.955	-0.119	-0.241
-183.085	800.000	-0.072	0.223
-182.071	308.385	-0.180	-0.330
-181.056	62.863	0.165	-0.162
-180.042	-94.529	0.235	-0.063
-179.027	-200.000	-0.003	0.073
-178.012	-48.821	-0.091	-0.043
-176.998	117.511	-0.032	0.039
-175.983	13.880	-0.351	0.268
-174.969	-109.140	0.209	0.044
-173.954	-105.822	0.331	-0.074
-172.939	800.000	0.050	0.159
-171.925	245.071	-0.156	0.259
-170.910	95.782	-0.267	-0.300
-169.896	-200.000	-0.008	-0.182
-168.881	-200.000	0.013	-0.065
-167.866	45.970	-0.197	-0.180
-166.852	-81.907	-0.127	-0.041
-165.837	67.515	0.034	-0.034
-164.823	-200.000	0.053	0.326
-163.808	-112.227	0.143	-0.028
-162.793	800.000	-0.057	-0.243
-161.779	-113.363	-0.149	0.029
-160.764	800.000	0.043	-0.125
-159.750	-156.588	0.271	-0.017
-158.735	-170.955	-0.152	-0.005
-157.720	429.036	-0.046	0.099
-156.706	178.608	0.083	-0.119
-155.691	-171.116	-0.185	-0.006
-154.677	102.843	-0.166	0.191
-153.662	800.000	0.080	0.228
-152.647	-97.280	-0.576	0.148
-151.633	58.304	-0.087	0.084
-150.618	16.053	-0.287	0.222
-149.604	-81.559	0.041	0.013
-148.589	172.117	0.270	0.381
-147.574	-200.000	-0.048	-0.221
-146.560	210.456	0.086	0.133
-145.545	56.173	0.226	-0.216
-144.531	-12.389	-0.066	0.043
-143.516	45.551	0.282	0.256
-142.502	800.000	-0.134	-0.433
-141.487	-38.805	0.114	0.059
-140.472	323.009	-0.041	-0.077
-139.458	491.734	0.098	0.220
-138.443	-98.402	0.034	-0.009
-137.429	-200.000	0.009	-0.124
-136.414	800.000	0.090	0.324
-135.399	79.035	0.299	0.315
-134.385	169.818	-0.246	-0.346
-133.370	11.800	0.235	-0.177
-132.356	-105.287	-0.079	0.018
-131.341	-6.434	0.207	-0.139
-130.326	800.000	0.074	0.207
-129.312	800.000	0.111	0.336
-128.297	-72.609	-0.057	0.021
-127.283	-200.000	0.057	0.251
-126.268	800.000	-0.064	-0.226
-125.253	-200.000	0.006	0.049
-124.239	-200.000	0.048	0.574
-123.224	4.499	0.272	-0.196
-122.210	-200.000	-0.019	0.183
-121.195	-57.324	-0.150	0.065
-120.180	-60.206	0.191	0.080
-119.166	-88.573	-0.119	0.035
-118.151	-8.370	0.312	-0.206
-117.137	-163.615	0.133	-0.006
-116.122	-18.715	-0.250	0.153
-115.107	-90.479	-0.257	0.073
-114.093	336.944	0.198	-0.378
-113.078	-164.491	-0.393	0.018
-112.064	-116.498	0.402	0.073
-111.049	-93.730	-0.329	0.089
-110.034	-200.000	-0.216	0.001
-109.020	194.650	-0.236	-0.351
-108.005	-112.587	0.309	0.060
-106.991	-65.564	0.251	-0.099
-105.976	-31.905	-0.179	-0.098
-104.962	-148.489	-0.226	0.018
-103.947	-88.336	0.223	0.065
-102.932	275.006	0.097	0.168
-101.918	53.427	0.146	0.138
-100.903	-200.000	-0.042	0.306
-99.889	-200.000	-0.010	-0.201
-98.874	-71.954	0.186	-0.068
-97.859	-200.000	-0.004	-0.100
-96.845	-200.000	-0.003	-0.049
-95.830	-72.118	0.159	-0.058
-94.816	357.033	0.080	-0.156
-93.801	-155.148	-0.204	-0.013
-92.786	109.472	-0.051	-0.060
-91.772	-36.825	0.269	0.142
-90.757	-57.098	-0.107	0.046
-89.743	300.166	-0.119	0.216
-88.728	-200.000	-0.013	0.108
-87.713	-150.809	-0.099	0.007
-86.699	224.778	-0.118	-0.187
-85.684	800.000	-0.071	0.223
-84.670	-46.765	0.033	0.016
-83.655	-59.897	0.161	0.068
-82.640	625.623	-0.046	-0.113
-81.626	-69.638	0.129	-0.048
-80.611	-56.701	-0.303	0.132
-79.597	72.689	0.323	0.331
-78.582	40.157	0.036	-0.032
-77.567	-45.773	0.063	-0.030
-76.553	-134.124	0.336	-0.041
-75.538	550.870	-0.055	-0.129
-74.524	315.503	0.127	-0.235
-73.509	-200.000	0.036	-0.244
-72.494	16.705	-0.164	-0.127
-71.480	619.188	0.179	0.440
-70.465	-200.000	-0.035	-0.207
-69.451	310.811	0.197	0.361
-68.436	-200.000	0.007	0.480
-67.422	574.692	0.136	-0.326
-66.407	-64.246	0.279	0.111
-65.392	-200.000	0.008	0.181
-64.378	-200.000	0.003	-0.065
-63.363	149.464	-0.105	0.139
-62.349	-200.000	-0.048	0.362
-61.334	204.920	-0.853	-1.297
-60.319	26.481	0.258	0.212
-59.305	800.000	-0.399	-1.458
-58.290	800.000	0.330	1.170
-57.276	311.109	0.741	1.360
-56.261	-200.000	112.466	638.448
-55.246	471.467	1501.775	3310.781
-54.232	147.524	2669.648	3522.853
-53.217	103.864	2153.599	2478.919
-52.203	38.934	1603.652	1403.674
-51.188	30.984	1350.466	1133.891
-50.173	28.111	1312.272	1084.766
-49.159	55.762	1368.207	1298.928
-48.144	54.513	1382.538	1304.954
-47.130	31.313	1338.328	1125.504
-46.115	27.817	1320.892	1089.967
-45.100	27.611	1315.740	1084.443
-44.086	27.534	1313.744	1082.302
-43.071	27.442	1311.235	1079.642
-42.057	27.619	1308.774	1078.624
-41.042	27.549	1307.606	1077.203
-40.027	27.543	1306.067	1075.855
-39.013	27.580	1303.980	1074.311
-37.998	27.596	1302.232	1072.924
-36.984	27.587	1300.502	1071.406
-35.969	27.780	1298.314	1070.693
-34.954	27.650	1297.076	1068.869
-33.940	27.701	1295.279	1067.642
-32.925	27.768	1293.938	1066.884
-31.911	27.789	1292.659	1065.910
-30.896	27.825	1291.282	1064.942
-29.881	27.702	1290.332	1063.399
-28.867	27.728	1288.809	1062.254
-27.852	27.811	1287.299	1061.454
-26.838	27.852	1285.518	1060.181
-25.823	27.739	1284.880	1058.955
-24.809	27.704	1283.558	1057.620
-23.794	27.689	1281.875	1056.104
-22.779	27.734	1280.668	1055.326
-21.765	27.803	1279.204	1054.477
-20.750	27.836	1277.728	1053.413
-19.736	27.627	1276.968	1051.535
-18.721	27.595	1275.831	1050.375
-17.706	27.571	1274.567	1049.156
-16.692	27.675	1273.301	1048.670
-15.677	27.744	1272.402	1048.282
-14.663	27.674	1270.908	1046.608
-13.648	27.669	1269.702	1045.546
-12.633	27.593	1269.254	1044.700
-11.619	27.523	1268.658	1043.769
-10.604	27.596	1267.220	1042.958
-9.590	27.562	1266.536	1042.160
-8.575	27.597	1265.254	1041.263
-7.560	27.644	1264.697	1041.035
-6.546	27.521	1263.932	1039.658
-5.531	27.598	1262.864	1039.182
-4.517	27.588	1262.040	1038.404
-3.502	27.531	1261.125	1037.286
-2.487	27.640	1260.340	1037.217
-1.473	27.526	1256.221	1033.142
-0.458	26.028	1240.543	1011.810
0.556	20.986	1224.178	973.758
1.571	17.468	1230.030	958.548
2.586	16.712	1244.785	965.652
3.600	16.709	1234.231	957.361
4.615	15.154	1168.016	897.592
5.629	12.195	1100.873	830.956
6.644	10.720	1084.370	811.065
7.659	10.652	1081.776	808.715
8.673	10.418	1080.807	806.753
9.688	10.461	1079.536	805.945
10.702	10.694	1077.068	805.190
11.717	12.495	1078.451	815.084
12.731	15.640	1083.025	834.104
13.746	17.494	1085.393	845.067
14.761	17.612	1084.724	845.056
15.775	16.585	1082.951	838.510
16.790	15.548	1080.575	831.465
17.804	14.866	1078.960	826.779
18.819	14.453	1077.188	823.306
19.834	14.315	1076.556	822.069
20.848	13.830	1076.154	819.296
21.863	13.618	1075.408	817.611
22.877	13.553	1074.426	816.470
23.892	13.647	1073.263	815.980
24.907	13.530	1072.981	815.117
25.921	13.553	1072.108	814.492
26.936	13.563	1070.795	813.475
27.950	13.525	1069.489	812.224
28.965	13.681	1067.627	811.498
29.980	13.839	1065.685	810.726
30.994	13.764	1065.070	809.819
32.009	13.781	1063.734	808.817
33.023	13.818	1062.891	808.282
34.038	13.842	1061.527	807.291
35.053	13.679	1061.081	806.087
36.067	13.682	1060.130	805.309
37.082	13.690	1058.964	804.387
38.096	13.785	1058.374	804.332
39.111	13.804	1057.409	803.619
40.126	13.723	1056.093	802.156
41.140	13.567	1055.009	800.506
42.155	13.585	1054.007	799.765
43.169	13.608	1052.551	798.699
44.184	13.567	1051.621	797.725
45.199	13.483	1050.905	796.707
46.213	13.453	1049.305	795.278
47.228	13.509	1048.695	795.013
48.242	13.718	1047.302	794.891
49.257	13.635	1046.412	793.747
50.271	13.702	1045.754	793.501
51.286	13.787	1044.828	793.133
52.301	13.796	1043.702	792.249
53.315	13.698	1042.661	790.923
54.330	13.561	1042.039	789.729
55.344	13.559	1040.839	788.741
56.359	13.616	1040.080	788.365
57.374	13.592	1039.272	787.569
58.388	13.389	1038.497	785.950
59.403	13.538	1037.166	785.580
60.417	13.501	1036.735	785.007
61.432	13.453	1036.161	784.275
62.447	13.367	1035.218	783.085
63.461	13.283	1034.697	782.224
64.476	13.489	1033.410	782.157
65.490	13.506	1031.866	780.996
66.505	13.387	1031.812	780.326
67.520	13.443	1030.976	779.889
68.534	13.543	1030.322	779.795
69.549	13.379	1029.817	778.571
70.563	13.570	1028.238	778.206
71.578	13.443	1027.611	777.069
72.593	13.399	1027.102	776.408
73.607	13.392	1026.346	775.735
74.622	13.304	1025.905	774.919
75.636	13.403	1024.653	774.368
76.651	13.393	1024.354	774.030
77.666	13.269	1024.103	773.188
78.680	13.444	1022.683	772.865
79.695	13.517	1022.135	772.726
80.709	13.414	1021.584	771.759
81.724	13.602	1021.194	772.274
82.739	13.630	1020.077	771.489
83.753	13.645	1019.778	771.267
84.768	13.738	1018.404	770.589
85.782	13.786	1017.774	770.267
86.797	13.585	1016.914	768.620
87.812	13.669	1015.447	767.831
88.826	13.767	1014.520	767.516
89.841	13.662	1013.952	766.529
90.855	13.780	1012.831	766.159
91.870	13.812	1012.242	765.794
92.884	13.772	1011.350	764.870
93.899	13.850	1010.541	764.549
94.914	13.877	1010.054	764.234
95.928	13.816	1009.250	763.281
96.943	13.850	1008.365	762.701
97.957	13.759	1007.558	761.604
98.972	13.799	1006.535	760.946
99.987	13.906	1005.620	760.678
101.001	13.802	1004.796	759.511
102.016	13.729	1004.322	758.750
103.030	13.790	1003.094	758.033
104.045	13.760	1002.391	757.301
105.060	13.671	1001.871	756.433
106.074	13.724	1000.510	755.580
107.089	13.548	999.660	754.070
108.103	13.633	998.308	753.369
109.118	13.642	997.367	752.636
110.133	13.446	996.547	751.060
111.147	13.580	995.685	750.952
112.162	13.660	994.834	750.608
113.176	13.668	993.735	749.747
114.191	13.669	993.457	749.476
115.206	13.579	992.480	748.263
116.220	13.584	991.907	747.790
117.235	13.698	990.604	747.252
118.249	13.533	990.345	746.251
119.264	13.553	989.595	745.710
120.279	13.591	988.431	744.936
121.293	13.587	987.501	744.152
122.308	13.583	986.492	743.306
123.322	13.588	985.581	742.576
124.337	13.421	984.595	741.023
125.352	13.584	983.689	741.005
126.366	13.543	982.697	740.007
127.381	13.612	981.507	739.353
128.395	13.540	980.749	738.395
129.410	13.575	979.861	737.819
130.424	13.637	978.929	737.324
131.439	13.770	977.922	737.094
132.454	13.826	977.182	736.718
133.468	13.686	976.669	735.647
134.483	13.608	975.950	734.692
135.497	13.651	975.002	734.108
136.512	13.640	974.274	733.444
137.527	13.637	973.164	732.529
138.541	13.598	972.760	731.991
139.556	13.717	971.966	731.850
140.570	13.878	970.770	731.594
141.585	13.794	970.477	730.938
142.600	13.863	969.501	730.445
143.614	13.877	968.515	729.697
144.629	14.058	967.221	729.453
145.643	13.950	967.120	728.837
146.658	13.883	965.384	727.171
147.673	13.833	965.104	726.676
148.687	13.751	963.998	725.425
149.702	13.843	962.992	725.002
150.716	13.740	962.202	723.896
151.731	13.807	961.669	723.721
152.746	13.841	961.149	723.415
153.760	13.905	960.332	723.016
154.775	13.879	959.732	722.387
155.789	14.015	958.809	722.217
156.804	13.927	958.576	721.597
157.819	13.945	957.522	720.819
158.833	13.925	956.804	720.127
159.848	14.075	955.951	720.069
160.862	14.112	955.151	719.565
161.877	13.840	954.358	717.725
162.892	13.884	953.224	717.000
163.906	13.794	952.305	715.860
164.921	13.821	951.742	715.487
165.935	14.051	950.397	715.403
166.950	13.938	949.663	714.301
167.964	13.881	949.617	713.958
168.979	13.972	947.807	712.926
169.994	14.052	946.748	712.408
171.008	13.991	946.899	712.196
172.023	14.097	945.915	711.848
173.037	14.111	945.028	711.177
174.052	14.103	943.954	710.271
175.067	13.951	943.756	709.411
176.081	13.968	943.043	708.887
177.096	13.953	942.624	708.443
178.110	14.089	942.040	708.522
179.125	14.045	941.131	707.586
180.140	13.987	941.071	707.232
181.154	14.176	939.889	707.087
182.169	14.157	939.937	706.977
183.183	14.201	938.928	706.345
184.198	14.350	938.133	706.315
185.213	14.237	937.311	705.157
186.227	14.188	936.846	704.538
187.242	14.273	936.135	704.300
188.256	14.421	935.540	704.413
189.271	14.332	935.109	703.649
190.286	14.113	934.213	701.991
191.300	14.052	933.765	701.333
192.315	14.047	933.019	700.690
193.329	14.079	932.511	700.380
194.344	14.152	931.546	699.902
195.359	14.087	930.854	699.046
196.373	14.183	930.625	699.218
197.388	14.388	930.115	699.632
198.402	14.435	929.091	698.998
199.417	14.399	928.602	698.416
200.432	14.520	928.157	698.527
201.446	14.544	927.674	698.202
202.461	14.645	927.110	698.139
203.475	14.477	926.560	696.959
204.490	14.428	926.228	696.445
205.504	14.427	925.424	695.773
206.519	14.474	924.071	694.893
207.534	14.533	923.320	694.511
208.548	14.410	922.827	693.565
209.563	14.562	921.970	693.494
210.577	14.640	921.135	693.126
211.592	14.545	920.696	692.342
212.607	14.607	920.378	692.299
213.621	14.695	919.041	691.596
214.636	14.715	918.580	691.269
215.650	14.593	917.910	690.200
216.665	14.773	917.118	690.286
217.680	14.605	916.761	689.266
218.694	14.962	915.533	689.751
219.709	14.819	915.187	688.840
220.723	14.751	914.818	688.224
221.738	14.611	913.968	686.944
222.753	14.745	913.312	686.943
223.767	14.789	912.996	686.824
224.782	14.795	912.730	686.591
225.796	14.918	911.589	686.176
226.811	14.840	911.016	685.362
227.826	14.762	910.322	684.459
228.840	14.794	909.341	683.794
229.855	14.827	908.308	683.090
230.869	14.755	907.739	682.307
231.884	14.849	907.318	682.314
232.899	14.802	906.772	681.652
233.913	14.719	905.820	680.536
234.928	14.711	905.380	680.114
235.942	14.671	904.838	679.487
236.957	14.849	904.003	679.520
237.972	14.769	903.067	678.432
238.986	14.735	902.964	678.156
240.001	14.817	902.085	677.771
241.015	14.856	901.623	677.520
242.030	14.947	900.796	677.207
243.045	14.934	900.584	676.936
244.059	14.838	900.033	676.072
245.074	14.943	899.028	675.683
246.088	15.023	898.771	675.754
247.103	15.091	897.863	675.287
248.117	15.132	897.141	674.847
249.132	15.099	897.350	674.810
250.147	15.329	896.179	674.798
251.161	15.334	895.231	674.042
252.176	15.287	894.914	673.556
253.190	15.453	894.037	673.505
254.205	15.395	893.356	672.699
255.220	15.410	892.551	672.093
256.234	15.508	891.910	671.943
257.249	15.447	891.543	671.363
258.263	15.417	890.616	670.485
259.278	15.427	890.258	670.196
260.293	15.462	889.787	669.923
261.307	15.374	889.330	669.169
262.322	15.538	888.465	669.110
263.336	15.433	888.027	668.306
264.351	15.608	886.554	667.833
265.366	15.603	886.057	667.377
266.380	15.534	885.778	666.835
267.395	15.690	884.923	666.751
268.409	15.601	884.025	665.663
269.424	15.533	883.517	664.954
270.439	15.462	883.036	664.251
271.453	15.587	882.122	663.997
272.468	15.488	881.506	663.085
273.482	15.510	880.894	662.653
274.497	15.609	880.288	662.527
275.512	15.508	880.088	661.923
276.526	15.541	879.320	661.417
277.541	15.529	879.112	661.153
278.555	15.696	878.102	660.992
279.570	15.739	877.656	660.765
280.585	15.848	876.813	660.502
281.599	15.743	875.808	659.273
282.614	15.624	875.348	658.402
283.628	15.759	874.814	658.473
284.643	15.783	874.252	658.085
285.657	15.787	873.381	657.387
286.672	15.727	872.979	656.793
287.687	15.738	872.566	656.467
288.701	15.876	871.912	656.453
289.716	15.823	871.301	655.730
290.730	15.826	870.623	655.170
291.745	15.797	869.866	654.430
292.760	15.727	869.594	653.897
293.774	15.942	868.846	654.114
294.789	15.796	868.281	653.061
295.803	15.822	867.461	652.489
296.818	15.891	866.540	652.005
297.833	15.907	866.050	651.640
298.847	16.071	865.556	651.846
299.862	15.933	865.492	651.206
300.876	15.849	864.871	650.356
301.891	16.204	863.376	650.542
302.906	16.210	862.982	650.212
303.920	16.249	862.698	650.090
304.935	16.207	862.563	649.769
305.949	16.078	861.502	648.418
306.964	16.163	860.520	647.949
307.979	16.174	860.399	647.841
308.993	16.230	860.137	647.801
310.008	16.217	859.067	646.889
311.022	16.194	858.737	646.494
312.037	16.153	857.948	645.688
313.052	16.006	857.851	644.995
314.066	16.172	856.898	644.856
315.081	16.206	856.323	644.494
316.095	16.297	855.663	644.287
317.110	16.125	855.472	643.432
318.125	16.116	854.809	642.842
319.139	16.039	854.646	642.369
320.154	16.156	853.928	642.217
321.168	16.192	853.491	641.968
322.183	16.115	852.742	641.058
323.197	16.318	852.385	641.503
324.212	16.353	851.741	641.094
325.227	16.248	851.095	640.153
326.241	16.286	850.477	639.774
327.256	16.085	850.445	638.934
328.270	16.198	849.445	638.554
329.285	16.228	848.872	638.179
330.300	16.406	847.928	638.085
331.314	16.228	847.921	637.350
332.329	16.332	847.705	637.523
333.343	16.327	847.000	636.917
334.358	16.462	846.092	636.687
335.373	16.395	845.903	636.238
336.387	16.556	845.417	636.421
337.402	16.482	845.585	636.213
338.416	16.603	845.111	636.256
339.431	16.501	845.049	635.770
340.446	16.603	844.213	635.465
341.460	16.772	843.894	635.803
342.475	16.726	843.540	635.308
343.489	16.688	843.015	634.717
344.504	16.684	842.902	634.558
345.519	16.603	842.176	633.655
346.533	16.723	841.434	633.486
347.548	16.752	840.688	632.978
348.562	16.698	840.263	632.400
349.577	16.573	839.886	631.594
350.592	16.703	839.418	631.670
351.606	16.697	838.701	631.055
352.621	16.694	837.804	630.313
353.635	16.728	837.204	629.931
354.650	16.798	836.524	629.623
355.665	16.878	835.894	629.391
356.679	16.793	835.468	628.698
357.694	16.719	834.719	627.806
358.708	16.834	834.220	627.800
359.723	16.652	833.817	626.769
360.738	16.794	833.039	626.654
361.752	16.826	832.280	626.144
362.767	17.040	831.599	626.368
363.781	16.938	831.359	625.756
364.796	17.011	830.928	625.645
365.810	16.993	830.805	625.430
366.825	17.055	830.206	625.153
367.840	17.156	829.858	625.207
368.854	17.078	829.404	624.522
369.869	17.152	828.667	624.184
370.883	17.102	828.371	623.723
371.898	17.029	828.020	623.133
372.913	17.115	827.719	623.168
373.927	17.266	826.545	622.784
374.942	17.297	826.156	622.548
375.956	17.229	825.886	622.040
376.971	17.199	825.738	621.764
377.986	17.342	825.476	622.035
379.000	17.493	824.413	621.731
380.015	17.356	824.058	620.906
381.029	17.375	823.635	620.604
382.044	17.255	823.277	619.840
383.059	17.420	822.232	619.599
384.073	17.384	821.511	618.873
385.088	17.265	821.152	618.112
386.102	17.342	820.870	618.126
387.117	17.332	820.180	617.514
388.132	17.252	820.128	617.130
389.146	17.368	818.937	616.602
390.161	17.455	818.795	616.754
391.175	17.488	818.222	616.388
392.190	17.357	817.598	615.388
393.205	17.378	817.162	615.082
394.219	17.506	816.547	615.027
395.234	17.360	816.218	614.199
396.248	17.419	815.768	614.019
397.263	17.207	815.654	613.112
398.278	17.288	815.402	613.161
399.292	17.281	814.827	612.649
400.307	17.343	814.469	612.549
401.321	17.427	813.413	612.005
402.336	17.314	813.269	611.435
403.350	17.436	812.865	611.515
404.365	17.594	812.103	611.454
405.380	17.575	811.911	611.190
406.394	17.655	811.069	610.788
407.409	17.700	810.964	610.816
408.423	17.690	810.596	610.446
409.438	17.778	810.675	610.770
410.453	17.650	810.218	609.914
411.467	17.898	809.424	610.145
412.482	17.891	809.242	609.930
413.496	17.868	808.934	609.562
414.511	17.862	808.156	608.899
415.526	17.857	807.992	608.704
416.540	17.835	807.668	608.329
417.555	17.935	806.529	607.775
418.569	17.988	806.311	607.744
419.584	17.853	806.049	607.012
420.599	17.856	805.410	606.487
421.613	111.262	1294.579	1475.158
422.628	95.980	1365.823	1475.216
