DTS Sentinel unit serial number:	SN413079Multiplexer serial number:	ORYXHardware model number:	OX4-SRSoftware version number:	ORYX F/W v4.00 Oryx Data Collector v3.7.2.0data status	okinstallation	princeton_trtdifferential loss correction	single-endedforward channel	channel 1reverse channel	N/Adate	2019/09/17time	22:22:35forward acquisition time	60.00reverse acquisition time	0.00gamma	496.2192k internal	0.2340k external	0.2340temperature offset calibration	0.9973default loss term (dB/km)	0.3790temperature slope calibration	1.0000multiplexer offset coefficient	1.0000multiplexer slope coefficient	1.0000fibre end	0.00T internal ref (°C)	25.50T ext. ref 1 (°C)	0.17T ext. ref 2 (°C)	18.54length (m)	temperature (°C)	Stokes	anti-Stokes-747.200	-107.373	0.350	0.077
-746.185	136.638	-0.293	0.383
-745.171	29.470	-0.107	0.091
-744.156	389.812	0.082	0.170
-743.142	147.970	0.094	-0.127
-742.127	298.287	0.140	-0.258
-741.112	10.926	-0.130	0.099
-740.098	108.677	-0.275	0.330
-739.083	-14.925	0.058	-0.037
-738.069	-74.505	-0.288	-0.104
-737.054	800.000	-0.020	0.085
-736.039	-200.000	-0.038	-0.223
-735.025	76.298	0.167	0.177
-734.010	-174.947	0.309	-0.009
-732.996	800.000	-0.018	-0.074
-731.981	282.911	-0.046	0.082
-730.966	131.661	-0.065	-0.084
-729.952	-200.000	0.001	0.336
-728.937	-49.832	0.098	-0.047
-727.923	17.994	0.103	0.082
-726.908	-52.455	-0.128	0.059
-725.894	-200.000	0.053	-0.290
-724.879	-29.606	-0.266	-0.152
-723.864	-57.398	-0.101	0.044
-722.850	335.344	-0.143	0.277
-721.835	-115.123	-0.235	0.045
-720.821	-18.740	0.181	0.113
-719.806	15.927	-0.048	0.038
-718.791	673.111	-0.059	-0.152
-717.777	151.385	-0.227	-0.310
-716.762	-44.896	0.149	0.074
-715.748	-73.951	-0.397	-0.144
-714.733	26.059	0.082	-0.069
-713.718	-112.958	-0.355	-0.070
-712.704	800.000	0.036	0.132
-711.689	729.319	-0.029	-0.077
-710.675	-200.000	0.022	0.377
-709.660	-137.303	-0.339	0.038
-708.645	283.991	0.026	0.047
-707.631	388.072	-0.094	0.195
-706.616	-63.519	0.438	-0.180
-705.602	-156.745	-0.426	-0.026
-704.587	-26.120	0.237	-0.139
-703.572	800.000	0.044	-0.153
-702.558	800.000	-0.151	0.469
-701.543	43.499	0.248	0.227
-700.529	357.539	-0.088	0.175
-699.514	153.129	-0.092	-0.126
-698.499	800.000	-0.029	-0.105
-697.485	-200.000	0.007	0.093
-696.470	78.779	0.249	-0.266
-695.456	800.000	-0.071	0.204
-694.441	598.747	0.063	0.158
-693.426	171.015	-0.061	0.087
-692.412	800.000	0.023	0.092
-691.397	666.551	-0.078	0.202
-690.383	22.988	0.274	0.224
-689.368	-34.967	0.229	0.125
-688.354	594.776	-0.134	0.330
-687.339	308.904	-0.029	0.055
-686.324	-5.794	-0.221	0.152
-685.310	44.633	0.299	0.275
-684.295	282.381	-0.101	0.182
-683.281	46.031	-0.057	-0.053
-682.266	-142.404	0.203	-0.020
-681.251	800.000	-0.136	0.478
-680.237	-94.652	-0.216	0.059
-679.222	800.000	0.063	0.222
-678.208	-101.113	-0.259	-0.063
-677.193	51.788	-0.115	0.110
-676.178	6.629	-0.121	0.090
-675.164	-200.000	-0.024	-0.268
-674.149	800.000	-0.037	-0.128
-673.135	-54.321	-0.256	-0.116
-672.120	18.284	-0.331	-0.264
-671.105	-70.981	0.321	-0.121
-670.091	-5.785	0.235	-0.161
-669.076	-200.000	0.067	0.326
-668.062	441.713	0.135	-0.294
-667.047	-124.592	-0.037	-0.006
-666.032	-26.211	0.231	-0.136
-665.018	-200.000	-0.003	0.220
-664.003	-200.000	0.031	0.135
-662.989	-200.000	0.019	0.247
-661.974	-25.457	-0.072	-0.043
-660.959	364.972	-0.037	-0.075
-659.945	594.572	0.059	0.146
-658.930	800.000	0.051	0.180
-657.916	-200.000	-0.033	0.193
-656.901	375.983	-0.039	-0.079
-655.886	-33.906	-0.277	-0.152
-654.872	157.373	-0.075	0.104
-653.857	34.094	-0.029	-0.025
-652.843	800.000	0.061	0.253
-651.828	-95.152	0.056	-0.015
-650.814	14.145	-0.333	0.259
-649.799	-141.947	0.124	-0.012
-648.784	348.614	0.188	-0.370
-647.770	403.445	-0.093	0.196
-646.755	-43.797	0.087	-0.044
-645.741	15.941	-0.132	-0.104
-644.726	-200.000	0.029	-0.457
-643.711	-196.702	0.045	-0.000
-642.697	-125.771	0.036	0.005
-641.682	-68.354	-0.254	-0.098
-640.668	-13.658	0.119	0.077
-639.653	5.333	0.190	-0.140
-638.638	-16.444	-0.395	-0.250
-637.624	-200.000	-0.038	0.166
-636.609	771.934	-0.121	-0.330
-635.595	-200.000	-0.031	-0.235
-634.580	-120.304	-0.302	-0.051
-633.565	-150.852	-0.153	0.012
-632.551	29.852	0.223	0.190
-631.536	67.445	-0.150	-0.153
-630.522	197.294	-0.182	-0.277
-629.507	-151.565	0.319	0.024
-628.492	-45.623	-0.485	0.239
-627.478	210.407	-0.076	-0.120
-626.463	-94.983	0.239	0.065
-625.449	-20.824	-0.145	0.089
-624.434	-200.000	-0.003	-0.041
-623.419	-95.158	0.210	-0.057
-622.405	390.044	-0.127	0.263
-621.390	180.428	0.183	0.267
-620.376	-157.411	0.085	-0.005
-619.361	33.382	-0.354	-0.307
-618.346	293.820	-0.072	0.132
-617.332	417.673	0.109	-0.232
-616.317	35.474	-0.156	-0.136
-615.303	675.721	-0.042	0.110
-614.288	97.796	0.174	0.200
-613.273	-59.056	0.091	0.039
-612.259	77.688	0.083	0.088
-611.244	-200.000	0.036	-0.227
-610.230	-49.031	-0.220	-0.105
-609.215	-200.000	-0.003	-0.053
-608.201	-200.000	-0.072	0.334
-607.186	279.500	-0.163	0.289
-606.171	-141.426	-0.186	0.019
-605.157	217.684	0.116	-0.184
-604.142	-102.601	0.379	0.090
-603.128	-200.000	-0.017	0.132
-602.113	754.608	-0.232	-0.625
-601.098	92.698	-0.103	-0.116
-600.084	-200.000	0.009	0.064
-599.069	-77.199	0.399	-0.139
-598.055	-89.782	-0.064	-0.019
-597.040	114.816	0.191	-0.232
-596.025	-200.000	0.005	-0.224
-595.011	-36.312	0.046	-0.025
-593.996	-200.000	0.008	-0.302
-592.982	800.000	-0.061	0.205
-591.967	661.666	-0.131	-0.335
-590.952	83.690	0.215	-0.234
-589.938	452.392	0.006	-0.013
-588.923	-61.982	-0.291	-0.121
-587.909	112.033	0.062	0.075
-586.894	-139.780	0.261	0.028
-585.879	78.224	-0.164	0.175
-584.865	-60.822	-0.119	0.050
-583.850	-165.805	-0.102	0.004
-582.836	-71.100	0.167	0.063
-581.821	748.193	-0.019	0.052
-580.806	-53.351	0.326	0.149
-579.792	-0.907	-0.173	0.122
-578.777	490.897	0.107	-0.244
-577.763	-200.000	-0.013	0.120
-576.748	-200.000	-0.026	0.195
-575.733	-200.000	0.000	-0.114
-574.719	-200.000	-0.074	-0.334
-573.704	-200.000	-0.010	0.126
-572.690	381.939	0.114	-0.233
-571.675	-49.961	0.165	-0.078
-570.661	-14.980	0.167	0.107
-569.646	26.689	0.172	-0.144
-568.631	-151.969	-0.159	0.012
-567.617	-43.700	0.099	-0.049
-566.602	-57.966	0.027	0.012
-565.588	800.000	0.099	0.307
-564.573	158.197	-0.104	-0.143
-563.558	720.049	0.033	0.086
-562.544	-200.000	-0.020	-0.194
-561.529	800.000	0.048	0.185
-560.515	-200.000	0.055	0.269
-559.500	800.000	-0.035	-0.103
-558.485	-77.281	-0.100	-0.035
-557.471	-200.000	-0.071	-0.459
-556.456	81.433	-0.221	-0.238
-555.442	-26.876	-0.123	-0.071
-554.427	-154.688	-0.150	0.010
-553.412	87.980	0.168	0.185
-552.398	-70.135	-0.394	0.149
-551.383	274.159	0.072	0.128
-550.369	39.943	-0.320	-0.286
-549.354	-56.674	0.150	0.066
-548.339	1.404	0.051	-0.036
-547.325	329.764	-0.147	0.281
-546.310	-62.312	0.146	0.061
-545.296	-200.000	0.038	0.175
-544.281	69.911	0.183	-0.188
-543.266	-200.000	-0.019	0.307
-542.252	800.000	0.051	-0.161
-541.237	-146.792	0.125	-0.011
-540.223	631.781	-0.097	-0.245
-539.208	-200.000	-0.023	-0.197
-538.193	-200.000	-0.012	0.248
-537.179	249.880	-0.133	0.224
-536.164	-56.486	0.069	0.031
-535.150	-200.000	0.018	-0.139
-534.135	-200.000	-0.045	0.323
-533.121	-200.000	0.132	0.000
-532.106	633.152	-0.049	-0.124
-531.091	-21.658	0.156	-0.095
-530.077	-118.486	-0.207	0.036
-529.062	-73.326	-0.252	-0.092
-528.048	-18.643	0.176	0.109
-527.033	127.315	-0.095	0.120
-526.018	-65.600	-0.277	-0.110
-525.004	246.054	-0.013	0.021
-523.989	330.213	0.079	-0.150
-522.975	800.000	0.072	-0.282
-521.960	-94.703	0.298	-0.080
-520.945	78.869	0.264	-0.280
-519.931	-48.599	-0.143	0.069
-518.916	-200.000	-0.007	0.069
-517.902	299.635	0.157	-0.287
-516.887	-4.918	0.141	-0.097
-515.872	-200.000	-0.072	-0.506
-514.858	-99.759	0.181	-0.045
-513.843	-114.044	-0.287	0.055
-512.829	72.656	-0.115	-0.119
-511.814	-92.275	0.369	-0.103
-510.799	49.914	-0.413	0.387
-509.785	396.272	0.098	0.204
-508.770	-119.483	-0.241	-0.041
-507.756	-75.084	0.148	0.053
-506.741	202.147	0.115	0.177
-505.726	31.539	0.169	-0.145
-504.712	75.664	-0.258	-0.270
-503.697	-26.802	-0.228	-0.133
-502.683	-112.096	-0.332	-0.066
-501.668	402.375	-0.105	0.220
-500.653	745.360	0.038	-0.101
-499.639	-103.191	0.360	0.084
-498.624	-135.625	-0.160	0.019
-497.610	-200.000	-0.023	-0.437
-496.595	-200.000	-0.019	-0.336
-495.581	-88.757	0.308	-0.091
-494.566	301.319	0.147	-0.270
-493.551	-28.347	-0.360	-0.206
-492.537	-115.556	-0.128	0.024
-491.522	-149.170	-0.286	0.023
-490.508	-200.000	-0.004	0.191
-489.493	234.360	-0.127	0.208
-488.478	-24.222	0.206	-0.122
-487.464	-200.000	-0.017	0.097
-486.449	31.254	0.176	0.150
-485.435	-200.000	-0.045	-0.340
-484.420	255.068	-0.094	-0.159
-483.405	-6.811	0.349	0.235
-482.391	-200.000	0.077	0.000
-481.376	351.632	-0.097	0.191
-480.362	-200.000	0.013	-0.356
-479.347	-200.000	-0.012	0.075
-478.332	-64.670	-0.157	0.063
-477.318	800.000	0.077	0.258
-476.303	-200.000	0.016	0.252
-475.289	-152.992	0.047	-0.003
-474.274	75.345	0.025	-0.026
-473.259	265.209	-0.159	-0.275
-472.245	148.192	0.093	-0.124
-471.230	108.003	0.088	0.104
-470.216	-25.418	-0.053	0.031
-469.201	-65.343	0.062	0.025
-468.186	405.615	-0.081	-0.169
-467.172	-1.635	-0.238	-0.166
-466.157	-172.616	0.188	0.006
-465.143	-74.068	0.072	0.026
-464.128	-121.642	-0.158	0.026
-463.113	70.512	0.141	0.144
-462.099	-16.568	0.082	-0.051
-461.084	292.880	-0.117	-0.211
-460.070	-77.578	-0.336	-0.115
-459.055	-146.968	-0.085	-0.007
-458.040	2.836	-0.083	-0.060
-457.026	-12.705	-0.194	0.125
-456.011	238.302	0.099	0.163
-454.997	-134.630	-0.343	-0.041
-453.982	37.206	-0.105	0.092
-452.968	-200.000	0.015	-0.082
-451.953	20.145	0.198	0.158
-450.938	-200.000	0.006	0.131
-449.924	33.263	0.099	-0.085
-448.909	538.337	0.058	-0.137
-447.895	36.594	0.299	-0.261
-446.880	224.372	-0.020	-0.032
-445.865	86.994	0.050	0.055
-444.851	-21.505	-0.125	-0.076
-443.836	-124.065	0.024	0.004
-442.822	-24.803	0.296	-0.174
-441.807	-200.000	-0.015	-0.246
-440.792	-80.368	0.079	-0.026
-439.778	-158.128	-0.063	-0.004
-438.763	47.215	0.158	0.146
-437.749	-200.000	-0.024	-0.137
-436.734	-200.000	0.050	0.238
-435.719	56.930	-0.084	-0.081
-434.705	14.055	-0.195	0.150
-433.690	800.000	-0.082	-0.258
-432.676	702.299	-0.107	-0.280
-431.661	140.895	0.211	-0.276
-430.646	-56.883	-0.189	0.082
-429.632	9.904	-0.161	0.121
-428.617	-200.000	0.066	0.371
-427.603	-79.327	0.170	-0.057
-426.588	-74.644	0.091	0.032
-425.573	-93.455	0.198	0.054
-424.559	70.649	0.122	0.125
-423.544	-140.007	-0.120	0.013
-422.530	76.381	0.201	-0.211
-421.515	-105.852	-0.283	-0.063
-420.500	-96.388	-0.210	0.055
-419.486	800.000	0.005	-0.020
-418.471	-160.446	0.399	0.021
-417.457	174.938	-0.170	0.244
-416.442	-200.000	0.020	0.207
-415.428	221.835	-0.128	-0.203
-414.413	-42.774	0.193	-0.097
-413.398	-76.436	-0.237	0.082
-412.384	350.656	-0.055	-0.108
-411.369	-61.101	-0.032	0.013
-410.355	-97.563	-0.065	-0.017
-409.340	-182.446	-0.093	0.002
-408.325	80.075	-0.060	-0.064
-407.311	-124.762	0.110	0.017
-406.296	3.967	0.189	0.136
-405.282	-48.689	-0.275	-0.131
-404.267	-111.022	-0.142	0.029
-403.252	800.000	-0.059	-0.231
-402.238	0.658	0.131	0.093
-401.223	-15.784	-0.122	-0.077
-400.209	-54.797	-0.136	0.061
-399.194	421.539	-0.127	-0.269
-398.179	49.603	-0.095	-0.089
-397.165	800.000	-0.129	-0.384
-396.150	-50.063	-0.172	-0.081
-395.136	-98.742	0.205	0.052
-394.121	209.267	-0.051	0.080
-393.106	-104.158	-0.347	-0.080
-392.092	-16.561	0.166	-0.104
-391.077	-200.000	0.068	0.361
-390.063	68.684	-0.204	0.207
-389.048	165.605	-0.166	-0.231
-388.033	-94.656	0.273	0.073
-387.019	-41.935	-0.031	0.015
-386.004	-23.082	-0.117	-0.069
-384.990	461.971	-0.111	0.244
-383.975	-162.943	-0.009	-0.000
-382.960	8.638	-0.144	0.107
-381.946	-137.060	0.236	0.027
-380.931	-200.000	-0.036	0.155
-379.917	-102.192	-0.361	0.086
-378.902	797.800	0.056	-0.153
-377.888	319.003	0.131	0.245
-376.873	-200.000	0.004	-0.356
-375.858	7.950	0.094	0.070
-374.844	-12.001	0.113	0.073
-373.829	-42.791	-0.134	-0.067
-372.815	-200.000	-0.001	-0.393
-371.800	132.328	-0.156	0.199
-370.785	-200.000	0.004	-0.104
-369.771	81.775	0.192	0.206
-368.756	-46.876	-0.197	0.095
-367.742	-154.778	0.268	-0.018
-366.727	-200.000	-0.022	-0.172
-365.712	-22.135	-0.624	-0.374
-364.698	800.000	-0.091	0.280
-363.683	-99.370	-0.464	-0.115
-362.669	-15.745	0.334	0.210
-361.654	-127.791	0.295	-0.042
-360.639	-81.492	-0.198	-0.064
-359.625	436.596	-0.069	-0.148
-358.610	-40.424	0.161	0.082
-357.596	22.902	0.182	-0.147
-356.581	-200.000	0.006	0.204
-355.566	-200.000	-0.004	-0.174
-354.552	123.527	-0.039	0.049
-353.537	153.329	-0.129	-0.175
-352.523	-41.132	0.582	0.296
-351.508	17.302	-0.377	-0.295
-350.493	-15.940	-0.019	0.012
-349.479	-108.473	0.169	-0.036
-348.464	-131.710	0.367	-0.048
-347.450	-200.000	-0.015	-0.127
-346.435	800.000	0.026	0.083
-345.420	800.000	0.112	0.481
-344.406	-7.889	-0.314	0.209
-343.391	-153.230	-0.206	0.014
-342.377	800.000	-0.012	-0.036
-341.362	-69.185	0.195	0.074
-340.348	800.000	0.075	0.318
-339.333	19.251	-0.012	0.010
-338.318	-72.882	-0.041	-0.015
-337.304	-13.548	0.240	0.153
-336.289	32.745	0.107	-0.091
-335.275	-70.167	0.159	-0.060
-334.260	-200.000	-0.020	-0.180
-333.245	-200.000	0.070	-0.415
-332.231	-152.553	0.169	-0.012
-331.216	16.542	-0.225	0.176
-330.202	85.563	0.230	0.249
-329.187	800.000	-0.088	0.336
-328.172	-92.962	-0.360	-0.099
-327.158	39.722	-0.331	-0.293
-326.143	-200.000	0.028	-0.191
-325.129	65.491	0.081	0.081
-324.114	-50.054	0.122	-0.057
-323.099	-37.555	0.081	-0.042
-322.085	-80.348	0.207	0.068
-321.070	45.564	-0.297	-0.271
-320.056	101.660	-0.225	0.259
-319.041	-52.042	-0.030	0.014
-318.026	32.600	-0.147	0.126
-317.012	-148.678	0.240	0.019
-315.997	800.000	-0.056	0.211
-314.983	-14.612	-0.117	0.074
-313.968	800.000	0.069	-0.211
-312.953	800.000	0.040	-0.145
-311.939	37.731	-0.246	0.215
-310.924	47.155	-0.183	-0.168
-309.910	-85.315	0.102	0.032
-308.895	596.955	0.169	0.414
-307.880	6.580	0.223	0.163
-306.866	800.000	-0.131	0.406
-305.851	731.271	0.031	-0.082
-304.837	-200.000	-0.019	-0.254
-303.822	-128.167	0.504	0.071
-302.807	237.440	-0.133	0.218
-301.793	-107.266	-0.244	0.053
-300.778	691.209	0.039	-0.100
-299.764	-200.000	0.005	-0.033
-298.749	-3.664	0.168	-0.115
-297.735	-43.745	0.073	-0.036
-296.720	81.209	0.366	-0.390
-295.705	-17.084	-0.170	0.106
-294.691	-34.740	0.309	-0.166
-293.676	800.000	0.088	-0.363
-292.662	667.574	-0.158	-0.402
-291.647	-200.000	0.011	0.168
-290.632	22.786	-0.147	0.118
-289.618	-28.202	0.329	-0.187
-288.603	24.058	-0.368	-0.299
-287.589	678.782	0.081	-0.207
-286.574	17.269	-0.103	0.080
-285.559	31.370	0.213	-0.180
-284.545	129.933	-0.177	-0.222
-283.530	440.033	0.149	0.321
-282.516	-135.445	-0.029	-0.003
-281.501	727.283	-0.092	0.241
-280.486	453.793	-0.083	0.182
-279.472	-46.516	-0.302	0.146
-278.457	-59.231	-0.106	-0.045
-277.443	0.546	-0.300	0.211
-276.428	-42.818	0.434	-0.217
-275.413	-60.563	0.170	0.071
-274.399	-121.166	-0.449	0.074
-273.384	167.601	0.288	0.403
-272.370	-169.890	-0.134	0.005
-271.355	-75.598	0.183	0.064
-270.340	-172.044	0.270	0.009
-269.326	59.443	-0.102	-0.099
-268.311	35.671	0.238	0.205
-267.297	-188.313	-0.245	-0.003
-266.282	-81.944	-0.230	-0.074
-265.267	605.034	-0.021	0.052
-264.253	321.455	-0.129	0.241
-263.238	-43.560	0.204	0.101
-262.224	800.000	0.058	0.213
-261.209	113.243	0.128	-0.153
-260.195	-200.000	0.005	0.085
-259.180	800.000	-0.055	0.200
-258.165	-77.537	0.233	-0.079
-257.151	-67.210	-0.212	0.082
-256.136	-96.759	0.185	0.048
-255.122	-200.000	-0.022	0.176
-254.107	43.908	0.115	0.104
-253.092	96.035	0.118	0.133
-252.078	248.782	-0.134	0.223
-251.063	-87.721	0.265	0.079
-250.049	-72.333	0.124	0.045
-249.034	-96.334	0.209	0.055
-248.019	61.293	-0.161	-0.158
-247.005	-5.039	-0.210	-0.142
-245.990	-13.227	-0.317	-0.202
-244.976	-200.000	-0.005	-0.205
-243.961	-120.123	-0.348	-0.059
-242.946	368.389	0.082	0.162
-241.932	-39.398	0.201	0.104
-240.917	-59.828	-0.083	-0.035
-239.903	-7.436	0.153	-0.102
-238.888	656.424	-0.096	-0.243
-237.873	0.870	0.189	-0.133
-236.859	347.428	-0.055	-0.107
-235.844	-200.000	-0.053	0.458
-234.830	191.528	0.027	-0.039
-233.815	137.533	-0.183	0.236
-232.800	-112.338	0.366	-0.072
-231.786	301.638	0.209	0.379
-230.771	-81.016	-0.469	0.153
-229.757	800.000	-0.145	0.411
-228.742	-34.782	0.248	0.133
-227.727	-109.266	-0.103	-0.021
-226.713	26.410	0.228	0.187
-225.698	-120.481	0.305	-0.051
-224.684	-43.809	0.255	0.126
-223.669	-200.000	0.028	0.155
-222.655	-60.867	-0.386	0.160
-221.640	-200.000	-0.066	0.610
-220.625	132.094	0.137	-0.173
-219.611	-150.377	0.157	0.012
-218.596	800.000	0.063	0.181
-217.582	101.820	-0.054	-0.062
-216.567	89.688	-0.279	-0.305
-215.552	19.547	0.460	0.363
-214.538	-22.002	-0.285	0.170
-213.523	310.948	0.021	-0.039
-212.509	445.288	0.082	-0.176
-211.494	88.432	-0.059	0.064
-210.479	-111.889	0.246	0.049
-209.465	72.289	0.150	0.154
-208.450	397.463	-0.119	0.244
-207.436	-168.409	0.012	0.000
-206.421	-200.000	-0.012	-0.120
-205.406	-200.000	0.026	-0.394
-204.392	800.000	-0.096	0.280
-203.377	176.814	0.018	0.026
-202.363	-200.000	0.015	0.170
-201.348	-142.410	0.074	-0.007
-200.333	-200.000	0.017	0.265
-199.319	800.000	-0.095	0.270
-198.304	-200.000	-0.035	-0.243
-197.290	-138.400	0.318	-0.034
-196.275	506.831	-0.172	-0.391
-195.260	-200.000	-0.038	0.229
-194.246	207.633	0.084	0.129
-193.231	111.748	0.139	0.165
-192.217	-33.342	0.191	0.104
-191.202	6.300	0.073	0.053
-190.187	-200.000	0.017	-0.100
-189.173	-188.134	-0.083	-0.001
-188.158	-104.881	0.107	-0.024
-187.144	417.114	0.186	0.389
-186.129	-73.712	0.206	0.074
-185.114	193.626	-0.095	0.141
-184.100	-120.339	0.251	0.042
-183.085	93.897	-0.058	0.065
-182.071	-41.970	-0.054	0.027
-181.056	-200.000	0.023	0.454
-180.042	-101.862	-0.156	-0.037
-179.027	-130.442	0.237	0.031
-178.012	800.000	0.057	0.202
-176.998	-39.261	0.245	0.126
-175.983	52.304	-0.203	0.190
-174.969	209.001	0.039	-0.059
-173.954	120.893	0.155	0.189
-172.939	-85.713	-0.126	-0.038
-171.925	76.948	0.191	-0.199
-170.910	-115.247	-0.462	0.086
-169.896	-200.000	0.017	0.199
-168.881	346.708	0.096	-0.184
-167.866	-186.967	-0.531	-0.007
-166.852	330.556	-0.083	-0.157
-165.837	11.911	0.152	-0.115
-164.823	52.303	-0.070	-0.066
-163.808	-106.334	0.291	0.064
-162.793	693.428	-0.109	-0.279
-161.779	83.127	0.149	-0.159
-160.764	670.434	-0.059	0.150
-159.750	576.979	-0.040	0.095
-158.735	202.883	0.222	0.336
-157.720	311.075	0.046	0.085
-156.706	619.965	-0.106	-0.260
-155.691	31.736	0.075	-0.063
-154.677	-132.287	-0.361	-0.046
-153.662	293.482	0.211	0.378
-152.647	-42.250	0.377	-0.189
-151.633	-42.737	0.185	-0.092
-150.618	-9.644	0.121	0.079
-149.604	800.000	0.059	0.181
-148.589	-138.921	-0.484	0.051
-147.574	345.294	-0.045	-0.086
-146.560	411.652	0.184	0.383
-145.545	-120.168	0.304	-0.051
-144.531	-145.476	-0.342	0.030
-143.516	-143.894	0.141	0.013
-142.502	255.702	0.045	0.076
-141.487	607.597	-0.025	-0.061
-140.472	-200.000	0.023	0.133
-139.458	-200.000	0.008	-0.093
-138.443	257.296	-0.292	0.492
-137.429	800.000	0.063	0.215
-136.414	-114.247	-0.166	0.031
-135.399	-200.000	0.004	-0.237
-134.385	31.679	-0.106	0.089
-133.370	-200.000	-0.052	0.316
-132.356	408.602	0.065	-0.134
-131.341	268.886	0.146	-0.251
-130.326	-80.711	-0.100	0.033
-129.312	-42.810	-0.204	0.102
-128.297	3.641	0.359	0.256
-127.283	-200.000	0.074	0.381
-126.268	451.975	0.161	-0.349
-125.253	336.253	-0.093	0.176
-124.239	167.176	0.289	-0.401
-123.224	-53.435	-0.333	-0.149
-122.210	-72.719	-0.265	0.096
-121.195	113.330	-0.287	0.341
-120.180	-200.000	0.034	-0.210
-119.166	326.819	0.078	0.146
-118.151	-138.305	0.562	0.061
-117.137	-43.511	0.263	0.130
-116.122	25.327	-0.157	-0.128
-115.107	70.289	0.082	0.082
-114.093	-200.000	-0.034	0.191
-113.078	800.000	0.076	0.259
-112.064	398.829	0.069	0.140
-111.049	4.593	-0.256	0.184
-110.034	-200.000	0.022	0.122
-109.020	-200.000	0.026	-0.135
-108.005	-200.000	-0.005	-0.143
-106.991	-200.000	-0.016	0.339
-105.976	61.052	-0.121	0.118
-104.962	22.205	-0.225	-0.180
-103.947	49.911	0.247	-0.228
-102.932	-98.116	-0.040	0.010
-101.918	800.000	-0.050	-0.204
-100.903	-88.126	-0.045	0.013
-99.889	81.375	0.210	0.222
-98.874	800.000	0.066	0.269
-97.859	107.647	0.175	0.204
-96.845	-77.024	-0.231	-0.079
-95.830	-200.000	0.031	0.165
-94.816	-46.630	-0.093	0.044
-93.801	177.861	0.039	-0.056
-92.786	-44.566	0.314	-0.153
-91.772	-70.255	0.240	-0.089
-90.757	800.000	-0.017	-0.067
-89.743	-43.402	-0.060	-0.030
-88.728	800.000	-0.033	0.107
-87.713	154.286	0.377	0.505
-86.699	-59.323	-0.235	0.099
-85.684	-200.000	-0.008	-0.171
-84.670	103.782	0.163	-0.187
-83.655	105.670	-0.134	-0.155
-82.640	-69.525	0.197	0.074
-81.626	-200.000	0.016	0.386
-80.611	286.764	-0.131	0.231
-79.597	35.838	0.285	0.245
-78.582	-50.571	-0.171	0.079
-77.567	192.340	-0.243	0.358
-76.553	-200.000	-0.036	-0.169
-75.538	31.350	0.069	0.058
-74.524	-81.170	0.084	-0.027
-73.509	-91.147	0.216	-0.061
-72.494	64.845	-0.121	-0.119
-71.480	800.000	-0.054	0.162
-70.465	-200.000	-0.001	-0.372
-69.451	85.701	0.221	-0.237
-68.436	-1.466	0.140	-0.096
-67.422	410.125	-0.111	-0.231
-66.407	1.592	0.266	-0.187
-65.392	-51.253	0.200	-0.092
-64.378	183.260	-0.157	-0.227
-63.363	-26.695	-0.125	-0.072
-62.349	-200.000	0.013	-0.072
-61.334	31.307	-1.213	-1.016
-60.319	188.923	0.608	0.888
-59.305	800.000	-0.250	-0.850
-58.290	72.136	1.172	1.190
-57.276	800.000	0.477	1.562
-56.261	-200.000	119.707	618.642
-55.246	411.204	1531.049	3170.176
-54.232	148.559	2678.156	3530.110
-53.217	97.526	2124.626	2381.554
-52.203	36.366	1570.867	1351.512
-51.188	28.724	1318.276	1089.040
-50.173	26.010	1280.806	1042.383
-49.159	49.860	1345.289	1237.460
-48.144	48.287	1358.974	1240.639
-47.130	28.739	1308.993	1081.290
-46.115	25.701	1289.981	1047.882
-45.100	25.385	1285.199	1042.123
-44.086	25.438	1282.913	1040.535
-43.071	25.368	1280.566	1038.189
-42.057	25.261	1279.104	1036.339
-41.042	25.353	1277.118	1035.219
-40.027	25.374	1275.415	1033.923
-39.013	25.530	1273.299	1033.064
-37.998	25.433	1272.046	1031.450
-36.984	25.531	1270.237	1030.499
-35.969	25.482	1268.467	1028.744
-34.954	25.562	1266.956	1027.933
-33.940	25.534	1265.861	1026.848
-32.925	25.517	1264.503	1025.604
-31.911	25.487	1262.865	1024.068
-30.896	25.595	1261.438	1023.483
-29.881	25.565	1260.457	1022.479
-28.867	25.530	1259.031	1021.079
-27.852	25.668	1257.062	1020.226
-26.838	25.666	1256.349	1019.595
-25.823	25.618	1254.854	1018.068
-24.809	25.613	1253.284	1016.729
-23.794	25.640	1252.079	1015.862
-22.779	25.568	1251.396	1014.863
-21.765	25.579	1249.829	1013.612
-20.750	25.580	1248.532	1012.523
-19.736	25.524	1247.313	1011.179
-18.721	25.490	1245.909	1009.812
-17.706	25.494	1244.924	1008.994
-16.692	25.342	1244.040	1007.389
-15.677	25.462	1243.011	1007.187
-14.663	25.385	1241.521	1005.509
-13.648	25.426	1240.398	1004.790
-12.633	25.529	1239.070	1004.249
-11.619	25.392	1238.677	1003.122
-10.604	25.450	1237.921	1002.797
-9.590	25.364	1237.044	1001.567
-8.575	25.387	1235.783	1000.635
-7.560	25.461	1234.955	1000.335
-6.546	25.413	1233.957	999.218
-5.531	25.408	1233.183	998.527
-4.517	25.443	1232.484	998.116
-3.502	25.497	1231.649	997.697
-2.487	25.489	1230.751	996.886
-1.473	25.348	1226.348	992.504
-0.458	23.568	1211.734	970.904
0.556	18.169	1195.549	932.577
1.571	14.492	1201.878	917.237
2.586	13.831	1217.141	925.120
3.600	13.618	1205.289	914.857
4.615	10.008	1134.819	842.496
5.629	3.256	1064.456	757.078
6.644	0.298	1046.791	730.131
7.659	0.154	1044.837	728.005
8.673	0.127	1043.667	726.995
9.688	0.101	1042.526	726.011
10.702	0.291	1040.568	725.500
11.717	4.240	1044.833	747.468
12.731	11.561	1054.373	789.733
13.746	16.084	1059.465	815.401
14.761	16.689	1060.718	819.220
15.775	16.131	1058.092	814.427
16.790	15.007	1056.469	807.682
17.804	14.353	1054.900	803.260
18.819	13.976	1054.115	800.773
19.834	13.781	1052.615	798.623
20.848	13.506	1052.309	796.998
21.863	13.368	1050.895	795.193
22.877	13.184	1050.840	794.197
23.892	13.066	1050.314	793.162
24.907	13.153	1049.111	792.599
25.921	13.170	1048.356	792.042
26.936	13.227	1047.436	791.549
27.950	13.164	1046.811	790.705
28.965	13.202	1045.499	789.828
29.980	13.302	1044.138	789.207
30.994	13.376	1043.122	788.721
32.009	13.480	1042.442	788.633
33.023	13.467	1041.068	787.463
34.038	13.375	1040.065	786.194
35.053	13.324	1039.460	785.426
36.067	13.383	1038.376	784.818
37.082	13.331	1037.833	784.091
38.096	13.478	1036.850	783.977
39.111	13.383	1036.064	782.864
40.126	13.219	1035.183	781.353
41.140	13.222	1034.054	780.446
42.155	13.081	1033.358	779.185
43.169	13.141	1031.795	778.222
44.184	13.056	1030.897	777.075
45.199	13.129	1030.069	776.724
46.213	13.022	1029.313	775.582
47.228	13.183	1028.083	775.345
48.242	13.163	1027.123	774.458
49.257	13.223	1025.994	773.817
50.271	13.330	1025.057	773.543
51.286	13.222	1024.522	772.566
52.301	13.284	1023.438	771.971
53.315	13.260	1022.178	770.840
54.330	13.282	1021.126	770.083
55.344	13.147	1020.515	768.921
56.359	13.207	1020.022	768.762
57.374	13.139	1019.083	767.669
58.388	13.118	1018.010	766.699
59.403	13.205	1016.964	766.245
60.417	13.084	1016.618	765.357
61.432	13.083	1015.582	764.505
62.447	13.158	1014.037	763.620
63.461	13.063	1013.921	763.025
64.476	12.991	1013.021	761.949
65.490	13.090	1012.046	761.606
66.505	13.134	1011.208	761.108
67.520	13.148	1010.933	760.901
68.534	13.172	1010.036	760.266
69.549	13.089	1009.174	759.170
70.563	13.115	1008.769	758.918
71.578	13.129	1007.626	758.054
72.593	13.054	1007.003	757.176
73.607	13.011	1006.792	756.753
74.622	13.109	1005.511	756.173
75.636	13.107	1004.827	755.581
76.651	13.085	1004.264	754.990
77.666	13.034	1003.743	754.297
78.680	13.044	1003.091	753.786
79.695	13.136	1002.113	753.406
80.709	13.040	1001.863	752.711
81.724	13.130	1001.143	752.513
82.739	13.183	1000.633	752.307
83.753	13.212	999.711	751.679
84.768	13.322	998.724	751.371
85.782	13.255	997.784	750.291
86.797	13.309	996.919	749.818
87.812	13.315	996.014	749.099
88.826	13.319	995.212	748.450
89.841	13.340	994.049	747.602
90.855	13.333	993.158	746.836
91.870	13.319	992.523	746.231
92.884	13.306	991.778	745.542
93.899	13.378	991.081	745.280
94.914	13.404	990.227	744.687
95.928	13.499	989.090	744.193
96.943	13.339	988.203	742.742
97.957	13.328	987.581	742.158
98.972	13.314	986.886	741.510
99.987	13.390	985.963	741.089
101.001	13.460	984.809	740.469
102.016	13.341	984.004	739.269
103.030	13.434	983.281	739.072
104.045	13.342	982.743	738.195
105.060	13.404	981.753	737.663
106.074	13.321	980.992	736.654
107.089	13.183	980.191	735.372
108.103	13.323	978.904	734.965
109.118	13.182	978.440	733.927
110.133	13.259	977.238	733.302
111.147	13.284	976.404	732.722
112.162	13.343	975.671	732.366
113.176	13.334	974.621	731.475
114.191	13.287	974.068	730.789
115.206	13.231	973.746	730.233
116.220	13.297	972.726	729.693
117.235	13.367	971.403	728.948
118.249	13.444	970.288	728.386
119.264	13.348	970.157	727.797
120.279	13.346	969.354	727.123
121.293	13.244	968.607	726.051
122.308	13.300	967.720	725.568
123.322	13.296	966.667	724.695
124.337	13.279	965.544	723.716
125.352	13.242	964.467	722.681
126.366	13.155	964.001	721.891
127.381	13.238	962.584	721.127
128.395	13.344	961.788	720.930
129.410	13.373	960.955	720.367
130.424	13.255	960.232	719.247
131.439	13.363	959.294	718.952
132.454	13.204	958.878	717.885
133.468	13.390	957.600	717.671
134.483	13.281	957.244	716.867
135.497	13.234	956.528	716.065
136.512	13.266	955.501	715.370
137.527	13.286	954.855	714.910
138.541	13.285	954.141	714.310
139.556	13.398	953.200	714.027
140.570	13.473	952.402	713.691
141.585	13.463	951.423	712.852
142.600	13.391	951.157	712.279
143.614	13.435	950.223	711.707
144.629	13.496	949.170	711.115
145.643	13.595	948.284	710.814
146.658	13.479	947.646	709.777
147.673	13.434	947.020	709.052
148.687	13.528	945.727	708.423
149.702	13.411	945.075	707.372
150.716	13.317	944.582	706.537
151.731	13.458	943.629	706.366
152.746	13.450	942.924	705.738
153.760	13.474	942.409	705.394
154.775	13.458	941.941	704.913
155.789	13.481	940.916	704.181
156.804	13.506	940.458	703.885
157.819	13.675	939.381	703.731
158.833	13.574	938.913	702.891
159.848	13.641	938.174	702.558
160.862	13.755	937.038	702.128
161.877	13.662	936.238	701.076
162.892	13.602	935.156	699.951
163.906	13.426	934.545	698.688
164.921	13.529	933.614	698.361
165.935	13.575	932.749	697.849
166.950	13.687	931.931	697.646
167.964	13.662	930.905	696.712
168.979	13.591	930.118	695.763
169.994	13.668	929.020	695.201
171.008	13.674	928.843	695.034
172.023	13.738	927.942	694.565
173.037	13.724	927.634	694.216
174.052	13.844	926.515	693.819
175.067	13.758	926.133	693.112
176.081	13.689	925.531	692.311
177.096	13.609	925.435	691.844
178.110	13.675	924.513	691.368
179.125	13.723	923.572	690.805
180.140	13.768	923.205	690.657
181.154	13.915	922.624	690.771
182.169	13.758	922.503	689.965
183.183	13.862	921.827	689.830
184.198	13.891	920.597	688.969
185.213	13.984	920.049	688.885
186.227	13.767	919.632	687.612
187.242	13.918	918.866	687.605
188.256	14.002	918.381	687.528
189.271	13.805	917.794	686.212
190.286	13.831	916.460	685.261
191.300	13.774	915.929	684.569
192.315	13.880	915.734	684.800
193.329	13.781	915.079	683.841
194.344	13.741	914.443	683.143
195.359	13.980	913.467	683.336
196.373	14.028	912.975	683.104
197.388	13.986	912.906	682.820
198.402	13.973	912.414	682.339
199.417	13.995	911.636	681.785
200.432	14.082	910.686	681.373
201.446	14.228	910.549	681.807
202.461	14.214	909.743	681.087
203.475	14.319	909.064	680.946
204.490	14.205	908.610	680.078
205.504	14.145	908.049	679.356
206.519	14.143	907.370	678.777
207.534	14.287	906.287	678.494
208.548	14.036	905.612	676.909
209.563	14.205	905.293	677.299
210.577	14.152	904.436	676.381
211.592	14.310	903.641	676.368
212.607	14.471	902.674	676.240
213.621	14.097	902.538	674.561
214.636	14.228	901.815	674.491
215.650	14.327	900.529	673.871
216.665	14.441	900.214	674.037
217.680	14.354	899.444	673.046
218.694	14.387	898.954	672.754
219.709	14.231	898.758	671.919
220.723	14.481	897.381	671.838
221.738	14.423	896.905	671.190
222.753	14.503	896.073	670.828
223.767	14.534	895.483	670.452
224.782	14.504	895.038	669.937
225.796	14.461	894.741	669.483
226.811	14.484	894.022	668.981
227.826	14.463	893.349	668.332
228.840	14.522	892.340	667.754
229.855	14.336	891.888	666.611
230.869	14.482	890.549	666.136
231.884	14.357	890.599	665.616
232.899	14.440	889.542	665.097
233.913	14.449	888.891	664.588
234.928	14.386	888.147	663.721
235.942	14.436	887.538	663.408
236.957	14.317	887.318	662.712
237.972	14.350	886.683	662.309
238.986	14.484	886.157	662.389
240.001	14.622	885.264	662.210
241.015	14.508	884.941	661.458
242.030	14.522	884.383	661.038
243.045	14.660	883.056	660.535
244.059	14.773	882.978	660.862
245.074	14.640	882.423	659.866
246.088	14.747	881.660	659.659
247.103	14.703	881.391	659.226
248.117	14.765	880.658	658.861
249.132	14.826	880.057	658.596
250.147	14.907	879.187	658.205
251.161	14.852	878.474	657.396
252.176	14.749	878.083	656.639
253.190	14.872	877.264	656.454
254.205	14.902	877.013	656.326
255.220	14.934	876.269	655.836
256.234	15.008	875.297	655.342
257.249	14.907	874.902	654.592
258.263	15.009	873.976	654.239
259.278	15.032	873.529	653.936
260.293	15.214	872.490	653.811
261.307	15.062	871.996	652.790
262.322	15.143	871.540	652.708
263.336	15.148	870.932	652.212
264.351	15.135	870.221	651.574
265.366	15.256	869.552	651.483
266.380	15.182	868.954	650.689
267.395	15.213	868.367	650.315
268.409	15.337	867.443	650.046
269.424	15.183	866.673	648.815
270.439	15.196	866.141	648.411
271.453	15.323	865.452	648.327
272.468	15.108	865.362	647.371
273.482	15.288	864.576	647.420
274.497	15.357	863.963	647.171
275.512	15.169	863.556	646.084
276.526	15.260	863.099	646.034
277.541	15.344	862.659	645.971
278.555	15.372	861.788	645.372
279.570	15.356	861.297	644.885
280.585	15.454	860.339	644.486
281.599	15.427	859.601	643.775
282.614	15.335	859.122	643.003
283.628	15.399	858.366	642.626
284.643	15.521	858.021	642.780
285.657	15.449	857.171	641.810
286.672	15.368	856.734	641.117
287.687	15.294	856.272	640.430
288.701	15.588	855.500	640.920
289.716	15.483	854.931	640.035
290.730	15.509	854.245	639.567
291.745	15.529	853.940	639.354
292.760	15.511	853.517	638.915
293.774	15.581	852.813	638.599
294.789	15.651	851.754	638.012
295.803	15.477	851.497	637.104
296.818	15.685	850.519	637.106
297.833	15.650	850.033	636.552
298.847	15.506	849.574	635.608
299.862	15.603	849.043	635.520
300.876	15.839	848.214	635.733
301.891	15.796	847.525	634.997
302.906	15.741	847.431	634.666
303.920	15.763	846.510	634.002
304.935	15.888	846.117	634.124
305.949	15.650	845.806	632.936
306.964	15.796	844.839	632.706
307.979	15.778	844.307	632.186
308.993	15.945	843.525	632.172
310.008	15.868	843.181	631.569
311.022	15.854	842.554	630.988
312.037	15.880	841.944	630.576
313.052	15.825	841.584	630.043
314.066	15.884	841.020	629.785
315.081	15.817	840.320	628.956
316.095	15.781	840.290	628.742
317.110	15.910	839.079	628.264
318.125	15.827	838.752	627.651
319.139	15.890	838.225	627.437
320.154	15.977	837.674	627.294
321.168	15.989	837.288	626.992
322.183	15.998	836.570	626.432
323.197	15.805	836.538	625.635
324.212	15.849	835.815	625.203
325.227	16.049	835.009	625.289
326.241	15.912	834.722	624.508
327.256	16.052	833.692	624.204
328.270	16.102	833.193	623.957
329.285	16.033	833.332	623.753
330.300	16.003	832.620	623.054
331.314	15.971	831.957	622.384
332.329	16.149	830.933	622.219
333.343	16.060	830.984	621.873
334.358	16.133	830.343	621.607
335.373	16.144	829.995	621.334
336.387	16.147	829.895	621.213
337.402	16.237	829.545	621.229
338.416	16.124	829.385	620.636
339.431	16.367	828.347	620.699
340.446	16.132	828.520	619.911
341.460	16.218	828.220	619.946
342.475	16.378	827.264	619.763
343.489	16.493	826.996	619.928
344.504	16.583	826.264	619.654
345.519	16.452	826.102	619.002
346.533	16.399	825.817	618.537
347.548	16.492	825.087	618.275
348.562	16.268	824.693	617.107
349.577	16.210	824.317	616.560
350.592	16.412	823.351	616.518
351.606	16.362	822.635	615.745
352.621	16.392	821.850	615.215
353.635	16.482	821.220	615.015
354.650	16.525	820.429	614.522
355.665	16.571	820.178	614.448
356.679	16.470	819.384	613.432
357.694	16.580	819.002	613.493
358.708	16.588	818.159	612.834
359.723	16.523	817.993	612.423
360.738	16.480	817.110	611.552
361.752	16.488	816.877	611.351
362.767	16.565	815.807	610.776
363.781	16.636	815.780	610.958
364.796	16.795	815.026	610.911
365.810	16.763	814.798	610.570
366.825	16.732	814.443	610.138
367.840	16.763	814.008	609.869
368.854	16.760	813.403	609.353
369.869	16.834	812.865	609.163
370.883	16.834	812.635	608.935
371.898	16.898	812.304	608.863
372.913	16.816	812.050	608.326
373.927	16.915	811.128	607.934
374.942	16.842	811.107	607.606
375.956	16.809	810.704	607.129
376.971	16.845	810.158	606.795
377.986	16.995	809.738	606.965
379.000	16.921	809.103	606.169
380.015	16.896	808.506	605.581
381.029	17.235	807.774	606.186
382.044	17.030	807.416	605.134
383.059	17.130	806.830	605.000
384.073	17.071	806.522	604.504
385.088	17.106	805.606	603.888
386.102	17.085	805.123	603.396
387.117	16.973	804.723	602.646
388.132	16.944	804.506	602.327
389.146	16.999	803.951	602.055
390.161	17.162	803.286	602.079
391.175	17.184	802.450	601.479
392.190	17.004	802.180	600.587
393.205	17.017	801.869	600.347
394.219	16.996	801.972	600.297
395.234	16.907	801.309	599.433
396.248	17.086	800.500	599.406
397.263	17.070	800.230	599.095
398.278	16.985	799.839	598.448
399.292	16.990	799.538	598.187
400.307	17.196	798.885	598.373
401.321	17.030	798.759	597.641
402.336	17.159	797.974	597.453
403.350	17.235	797.665	597.436
404.365	17.251	796.990	596.936
405.380	17.276	796.498	596.599
406.394	17.337	795.854	596.280
407.409	17.425	795.582	596.330
408.423	17.388	795.686	596.228
409.438	17.456	794.965	595.872
410.453	17.288	794.604	594.960
411.467	17.510	794.200	595.382
412.482	17.568	793.483	594.995
413.496	17.592	793.150	594.777
414.511	17.514	792.923	594.281
415.526	17.551	792.232	593.839
416.540	17.499	792.227	593.603
417.555	17.453	791.967	593.195
418.569	17.577	791.283	593.062
419.584	17.758	790.473	593.032
420.599	17.504	790.496	592.113
421.613	113.422	1296.570	1483.316
422.628	97.501	1370.263	1483.399
