DTS Sentinel unit serial number:	SN413079Multiplexer serial number:	ORYXHardware model number:	OX4-SRSoftware version number:	ORYX F/W v4.00 Oryx Data Collector v3.7.2.0data status	okinstallation	princeton_trtdifferential loss correction	single-endedforward channel	channel 1reverse channel	N/Adate	2019/09/12time	19:06:34forward acquisition time	15.00reverse acquisition time	0.00gamma	496.2192k internal	0.2320k external	0.2320temperature offset calibration	1.0108default loss term (dB/km)	0.3790temperature slope calibration	1.0000multiplexer offset coefficient	1.0000multiplexer slope coefficient	1.0000fibre end	0.00T internal ref (°C)	32.62T ext. ref 1 (°C)	3.07T ext. ref 2 (°C)	27.17length (m)	temperature (°C)	Stokes	anti-Stokes-747.200	-102.989	0.417	-0.100
-746.185	-26.161	-0.228	0.136
-745.171	55.558	0.570	0.558
-744.156	1.572	-0.234	-0.170
-743.142	-139.124	-1.013	0.111
-742.127	129.506	0.510	-0.659
-741.112	800.000	0.236	0.740
-740.098	-44.202	-0.158	0.080
-739.083	-14.199	-0.692	0.451
-738.069	114.774	-0.469	-0.579
-737.054	-71.292	0.093	-0.035
-736.039	-162.719	-1.007	0.050
-735.025	-109.005	0.170	0.037
-734.010	86.014	0.041	0.046
-732.996	181.535	0.329	-0.489
-731.981	613.980	0.231	-0.586
-730.966	-11.804	0.244	-0.162
-729.952	159.720	0.168	-0.236
-728.937	277.258	0.219	0.394
-727.923	-100.587	0.217	0.054
-726.908	-200.000	0.144	-1.104
-725.894	238.699	-0.241	-0.404
-724.879	197.523	0.137	0.211
-723.864	-100.781	0.353	-0.088
-722.850	-107.159	-0.473	0.105
-721.835	-200.000	-0.683	0.000
-720.821	398.013	0.324	0.685
-719.806	13.958	0.328	-0.258
-718.791	-200.000	0.050	0.457
-717.777	-200.000	0.154	-1.068
-716.762	223.874	-0.342	-0.557
-715.748	-85.883	0.283	-0.089
-714.733	-118.013	-1.430	0.258
-713.718	29.724	-0.269	-0.231
-712.704	800.000	-0.089	-0.249
-711.689	-133.616	-0.768	0.097
-710.675	-200.000	-0.244	1.175
-709.660	800.000	-0.146	0.451
-708.645	-139.439	0.062	-0.007
-707.631	-35.047	-0.806	-0.444
-706.616	25.463	0.462	0.388
-705.602	-44.756	-0.280	0.141
-704.587	-89.769	-0.655	0.194
-703.572	-200.000	-0.049	0.580
-702.558	-97.241	-0.488	0.129
-701.543	-118.184	-0.506	-0.091
-700.529	800.000	-0.004	0.014
-699.514	-19.365	-0.987	-0.618
-698.499	-127.453	-0.263	0.039
-697.485	-100.796	0.902	-0.224
-696.470	49.626	0.075	0.072
-695.456	-43.140	-0.477	0.244
-694.441	800.000	-0.180	0.699
-693.426	800.000	-0.160	-0.583
-692.412	800.000	0.087	0.243
-691.397	5.946	-0.220	0.164
-690.383	57.923	-0.494	0.488
-689.368	-200.000	0.013	-0.501
-688.354	42.269	-0.699	0.641
-687.339	4.893	-0.636	-0.472
-686.324	128.273	-0.457	-0.587
-685.310	30.656	0.340	0.294
-684.295	0.827	0.233	0.169
-683.281	-3.723	0.112	-0.079
-682.266	-200.000	0.050	-0.438
-681.251	-103.304	-0.544	-0.129
-680.237	-200.000	-0.154	-1.352
-679.222	-68.837	-1.247	-0.486
-678.208	17.134	1.187	-0.949
-677.193	0.682	0.542	-0.391
-676.178	687.414	0.206	0.544
-675.164	20.498	0.487	0.397
-674.149	-200.000	0.030	-0.872
-673.135	-155.917	0.187	-0.012
-672.120	461.335	0.420	0.944
-671.105	-53.396	-0.301	0.139
-670.091	800.000	-0.185	-0.582
-669.076	362.389	-0.309	0.625
-668.062	129.662	-0.630	0.812
-667.047	-96.560	0.839	0.223
-666.032	-71.534	0.991	0.374
-665.018	-200.000	-0.013	-0.242
-664.003	-24.247	0.196	0.118
-662.989	-200.000	-0.050	0.244
-661.974	-118.080	-0.230	0.041
-660.959	329.484	-0.248	-0.480
-659.945	-200.000	0.046	-0.654
-658.930	-200.000	-0.019	-0.126
-657.916	-171.855	-0.790	-0.026
-656.901	-200.000	-0.041	0.237
-655.886	-200.000	0.057	0.870
-654.872	-134.912	-0.518	-0.063
-653.857	-200.000	0.011	-0.154
-652.843	-13.276	0.479	0.313
-651.828	-200.000	-0.149	0.734
-650.814	-71.685	-0.435	-0.164
-649.799	-163.676	0.442	-0.021
-648.784	800.000	-0.203	-0.873
-647.770	-200.000	0.085	0.905
-646.755	-159.305	0.736	0.042
-645.741	-27.300	-0.483	0.284
-644.726	-200.000	-0.037	0.267
-643.711	-117.120	0.267	0.049
-642.697	223.890	0.150	-0.244
-641.682	-85.695	-0.810	0.253
-640.668	71.098	-0.270	-0.282
-639.653	-170.194	0.306	0.011
-638.638	-6.342	-0.275	0.189
-637.624	117.364	0.021	-0.026
-636.609	-14.659	0.357	0.231
-635.595	121.252	0.223	-0.279
-634.580	187.651	0.311	0.468
-633.565	800.000	-0.167	0.618
-632.551	-79.481	-0.690	-0.235
-631.536	800.000	-0.135	0.405
-630.522	161.012	-0.099	0.140
-629.507	-200.000	0.145	-0.954
-628.492	-14.303	0.341	0.221
-627.478	-3.300	-0.557	0.391
-626.463	-45.880	-0.425	-0.211
-625.449	-9.489	0.738	-0.496
-624.434	77.306	0.219	0.234
-623.419	494.839	-0.225	-0.520
-622.405	193.681	0.058	0.088
-621.390	426.236	-0.127	0.275
-620.376	24.378	-0.357	0.297
-619.361	-200.000	0.003	-1.101
-618.346	6.642	-0.241	0.180
-617.332	-36.808	-0.470	0.254
-616.317	-85.860	-0.798	0.249
-615.303	324.697	0.074	-0.141
-614.288	-61.203	-0.328	0.139
-613.273	476.433	0.263	0.599
-612.259	594.260	0.175	0.435
-611.244	800.000	0.097	0.381
-610.230	54.328	0.192	-0.186
-609.215	800.000	-0.046	0.172
-608.201	-200.000	-0.088	-0.585
-607.186	-97.504	0.701	0.183
-606.171	-73.734	-0.341	-0.125
-605.157	95.416	-0.253	-0.291
-604.142	31.538	0.165	0.143
-603.128	-90.334	-0.697	0.203
-602.113	-76.339	0.381	0.135
-601.098	-200.000	0.157	0.000
-600.084	569.078	0.130	-0.319
-599.069	-200.000	0.018	0.804
-598.055	-44.763	-0.468	0.235
-597.040	632.113	0.213	-0.542
-596.025	800.000	0.384	-1.206
-595.011	-30.170	-0.257	-0.147
-593.996	-108.979	-0.056	0.012
-592.982	-23.183	0.080	-0.048
-591.967	59.841	-0.231	0.230
-590.952	222.805	-0.220	0.356
-589.938	-41.747	-0.918	-0.474
-588.923	-112.688	-0.469	0.094
-587.909	-1.036	-0.389	0.277
-586.894	19.318	0.403	-0.325
-585.879	-137.029	0.203	-0.023
-584.865	271.920	-0.418	-0.741
-583.850	-93.350	0.403	-0.112
-582.836	290.587	0.184	-0.336
-581.821	370.914	-0.377	-0.767
-580.806	-200.000	-0.046	-0.256
-579.792	14.987	0.577	-0.454
-578.777	-71.472	0.533	0.200
-577.763	-154.799	-1.019	0.068
-576.748	-200.000	0.101	-0.776
-575.733	800.000	-0.050	-0.203
-574.719	-39.677	-0.777	0.408
-573.704	-70.144	0.507	-0.194
-572.690	-23.510	-0.636	-0.384
-571.675	-105.482	-0.702	0.160
-570.661	-62.974	-0.443	0.184
-569.646	-78.606	-0.844	-0.290
-568.631	-200.000	0.078	-0.847
-567.617	-200.000	-0.014	-0.390
-566.602	28.471	0.415	0.352
-565.588	18.550	-0.062	0.049
-564.573	-54.371	-0.245	-0.112
-563.558	160.752	-0.431	0.604
-562.544	295.536	-0.166	0.306
-561.529	615.976	0.271	-0.681
-560.515	61.670	0.245	0.245
-559.500	800.000	-0.284	-0.996
-558.485	-39.168	0.225	0.119
-557.471	-200.000	-0.017	-0.444
-556.456	115.743	-0.014	0.018
-555.442	440.019	0.025	-0.054
-554.427	-119.948	0.666	-0.115
-553.412	800.000	0.233	0.763
-552.398	800.000	-0.173	0.630
-551.383	66.031	-0.242	0.247
-550.369	800.000	-0.289	-1.164
-549.354	-155.441	0.554	-0.036
-548.339	-82.320	-0.403	-0.132
-547.325	800.000	0.124	-0.528
-546.310	-84.726	-0.050	0.016
-545.296	78.408	-0.612	-0.656
-544.281	-153.000	-0.487	-0.034
-543.266	-64.021	0.244	0.100
-542.252	54.591	-0.444	-0.429
-541.237	-133.533	0.890	0.112
-540.223	-171.446	0.376	-0.013
-539.208	743.917	-0.085	-0.229
-538.193	429.748	-0.102	0.221
-537.179	174.101	-0.460	0.667
-536.164	123.136	0.186	0.233
-535.150	-169.840	-0.750	0.027
-534.135	-38.508	-0.897	0.476
-533.121	-178.459	0.655	-0.015
-532.106	-200.000	-0.275	-1.354
-531.091	-133.236	0.583	0.074
-530.077	613.679	0.201	-0.506
-529.062	22.510	-0.286	-0.235
-528.048	39.124	-0.255	-0.229
-527.033	189.145	-0.229	0.344
-526.018	56.824	0.393	0.384
-525.004	118.558	-0.424	0.525
-523.989	-151.334	0.601	0.045
-522.975	800.000	-0.206	-0.656
-521.960	32.908	0.437	-0.379
-520.945	154.676	-0.417	0.574
-519.931	315.779	-0.619	-1.172
-518.916	-39.938	-0.570	-0.298
-517.902	-148.563	0.307	0.025
-516.887	50.340	0.392	-0.371
-515.872	188.636	-0.376	0.564
-514.858	-98.278	0.422	0.108
-513.843	800.000	-0.230	-0.867
-512.829	106.271	-0.298	-0.354
-511.814	137.364	0.128	0.167
-510.799	106.326	0.184	-0.218
-509.785	-90.902	0.965	-0.278
-508.770	-78.473	0.310	-0.107
-507.756	80.436	-0.451	-0.486
-506.741	665.222	0.290	0.751
-505.726	800.000	0.426	1.627
-504.712	-200.000	-0.030	0.651
-503.697	-200.000	-0.027	0.408
-502.683	86.766	-0.438	-0.485
-501.668	-200.000	0.025	0.305
-500.653	506.392	0.314	0.729
-499.639	-18.601	-0.280	-0.175
-498.624	519.927	0.087	-0.204
-497.610	736.267	-0.060	0.160
-496.595	69.836	-0.715	-0.738
-495.581	640.214	-0.196	0.500
-494.566	-37.363	0.561	0.300
-493.551	-86.865	1.005	0.307
-492.537	-200.000	-0.053	-0.245
-491.522	-200.000	0.018	-0.104
-490.508	-200.000	-0.007	0.034
-489.493	357.200	0.272	-0.543
-488.478	-36.498	-0.726	-0.392
-487.464	34.311	-0.345	0.301
-486.449	43.784	0.350	-0.320
-485.435	800.000	-0.210	0.911
-484.420	-73.576	-0.225	0.082
-483.405	-88.850	-0.508	0.151
-482.391	2.143	0.494	-0.357
-481.376	800.000	-0.171	-0.603
-480.362	158.750	-0.010	-0.014
-479.347	-102.738	-0.580	0.138
-478.332	-35.001	-0.317	0.173
-477.318	800.000	0.091	-0.357
-476.303	-45.874	0.467	0.231
-475.289	495.287	-0.232	-0.534
-474.274	8.764	0.665	0.501
-473.259	-200.000	-0.001	-0.133
-472.245	136.966	-0.691	-0.903
-471.230	212.466	0.282	-0.446
-470.216	-8.844	0.251	0.168
-469.201	-200.000	-0.027	-0.250
-468.186	-40.675	0.275	0.142
-467.172	10.459	-0.604	0.461
-466.157	-106.413	0.718	0.160
-465.143	-200.000	0.084	0.523
-464.128	690.552	0.348	0.911
-463.113	-70.740	0.518	0.196
-462.099	173.521	-0.106	0.153
-461.084	-125.715	-0.564	0.085
-460.070	369.346	0.238	0.481
-459.055	38.152	0.543	-0.483
-458.040	-132.534	0.764	0.098
-457.026	285.867	0.416	-0.750
-456.011	-81.474	0.289	-0.095
-454.997	422.000	-0.216	0.462
-453.982	80.251	-0.740	0.797
-452.968	-200.000	0.047	-0.259
-451.953	23.046	0.262	0.215
-450.938	70.745	0.689	0.713
-449.924	-65.904	0.457	-0.183
-448.909	161.312	0.147	-0.205
-447.895	-21.445	0.287	-0.175
-446.880	-29.198	-0.374	0.214
-445.865	-200.000	0.043	0.398
-444.851	353.166	-0.273	0.541
-443.836	-20.751	0.393	-0.241
-442.822	-76.601	0.884	0.310
-441.807	-50.118	0.910	-0.431
-440.792	199.851	0.331	0.508
-439.778	-77.239	0.456	-0.159
-438.763	-200.000	-0.159	0.856
-437.749	232.961	0.213	0.350
-436.734	-148.251	-0.552	0.045
-435.719	-90.326	-0.711	-0.206
-434.705	-49.373	0.170	0.081
-433.690	-109.061	0.390	-0.083
-432.676	800.000	0.187	0.567
-431.661	161.440	0.602	0.841
-430.646	-126.103	0.684	0.102
-429.632	-38.886	-0.081	0.043
-428.617	108.520	-0.234	-0.279
-427.603	-135.434	-0.828	-0.099
-426.588	26.241	0.315	-0.263
-425.573	42.493	0.293	0.266
-424.559	94.695	-0.378	-0.429
-423.544	219.596	-0.564	0.901
-422.530	-101.149	-0.126	0.031
-421.515	-49.072	0.085	0.041
-420.500	-50.085	-0.372	-0.176
-419.486	-200.000	0.155	0.856
-418.471	20.658	0.862	0.697
-417.457	-179.998	-0.281	-0.006
-416.442	95.786	0.530	0.604
-415.428	-8.870	0.244	0.163
-414.413	625.174	0.083	0.209
-413.398	-49.684	-0.597	0.283
-412.384	-103.335	0.730	-0.172
-411.369	-108.876	-0.761	-0.162
-410.355	-200.000	0.128	1.141
-409.340	-200.000	-0.012	-0.711
-408.325	-200.000	0.078	-0.689
-407.311	-15.287	0.357	0.228
-406.296	-86.889	0.067	-0.020
-405.282	-37.146	0.539	0.288
-404.267	-104.240	0.548	-0.127
-403.252	-149.452	-0.903	0.071
-402.238	43.186	-0.581	-0.529
-401.223	486.851	-0.323	-0.735
-400.209	-52.649	0.831	-0.383
-399.194	-200.000	0.002	-0.314
-398.179	65.389	0.258	-0.261
-397.165	22.275	-0.585	-0.476
-396.150	-200.000	0.042	0.249
-395.136	90.562	0.350	0.391
-394.121	-109.870	-0.109	0.023
-393.106	-30.674	-0.115	-0.065
-392.092	-50.907	0.373	0.175
-391.077	800.000	0.231	0.658
-390.063	-159.993	0.227	0.012
-389.048	173.168	-0.261	0.375
-388.033	-154.312	-0.364	0.024
-387.019	274.158	-0.193	-0.341
-386.004	-176.271	0.157	-0.004
-384.990	221.597	-0.348	0.558
-383.975	117.967	-0.224	0.275
-382.960	90.732	0.275	0.308
-381.946	-17.285	0.540	-0.339
-380.931	-200.000	-0.029	-0.468
-379.917	10.431	0.250	-0.190
-378.902	800.000	-0.175	-0.705
-377.888	-89.469	-0.503	0.148
-376.873	192.773	-0.445	-0.670
-375.858	192.897	0.337	-0.507
-374.844	-66.053	-0.676	0.269
-373.829	-107.877	0.480	0.104
-372.815	-200.000	0.058	0.484
-371.800	409.575	-0.106	0.223
-370.785	-55.479	-0.234	0.105
-369.771	800.000	-0.220	0.674
-368.756	-84.869	0.365	0.114
-367.742	-200.000	0.034	-0.366
-366.727	-123.269	0.482	-0.077
-365.712	-158.023	-0.449	0.026
-364.698	-200.000	-0.021	-0.254
-363.683	-1.534	-1.152	-0.809
-362.669	-85.093	-0.971	-0.303
-361.654	22.392	-0.114	-0.093
-360.639	-115.024	-0.310	-0.059
-359.625	-151.602	0.288	-0.021
-358.610	-200.000	-0.155	-0.947
-357.596	-74.416	-0.320	0.115
-356.581	-200.000	0.106	-0.698
-355.566	31.551	0.670	-0.574
-354.552	315.767	0.541	-1.016
-353.537	-31.905	0.340	0.190
-352.523	-15.439	0.431	0.274
-351.508	-200.000	-0.038	0.950
-350.493	333.210	0.305	-0.588
-349.479	-200.000	-0.055	0.396
-348.464	-148.585	-0.490	0.040
-347.450	53.603	0.461	0.441
-346.435	-57.815	0.440	0.192
-345.420	36.040	-0.633	-0.555
-344.406	-200.000	-0.003	0.124
-343.391	15.573	0.469	-0.367
-342.377	-42.206	0.284	-0.145
-341.362	-200.000	0.075	0.339
-340.348	-17.817	-0.385	-0.241
-339.333	-90.946	-0.979	0.280
-338.318	-200.000	0.107	0.614
-337.304	800.000	-0.050	-0.218
-336.289	167.613	-0.502	-0.711
-335.275	800.000	-0.146	0.613
-334.260	-200.000	0.030	-1.089
-333.245	9.049	0.196	0.148
-332.231	-159.782	0.712	0.039
-331.216	-106.930	0.259	-0.057
-330.202	17.929	-0.396	0.314
-329.187	-96.455	-0.793	-0.209
-328.172	-140.133	0.798	0.083
-327.158	-42.725	0.391	-0.198
-326.143	-183.282	1.228	-0.021
-325.129	-165.925	0.810	0.035
-324.114	196.956	0.498	-0.755
-323.099	-41.675	0.621	0.317
-322.085	206.197	0.204	-0.315
-321.070	43.434	-0.239	-0.217
-320.056	459.431	-0.206	-0.457
-319.041	-95.535	0.697	-0.186
-318.026	-55.925	-0.273	-0.121
-317.012	65.586	0.297	0.299
-315.997	-32.026	-0.476	0.265
-314.983	50.458	-0.448	-0.421
-313.968	139.919	0.189	-0.248
-312.953	-63.246	0.427	0.175
-311.939	-200.000	-0.002	0.137
-310.924	57.030	-0.539	0.523
-309.910	-173.853	0.599	0.018
-308.895	677.155	-0.113	0.292
-307.880	281.692	-0.252	0.448
-306.866	-32.426	0.110	0.061
-305.851	-48.894	-0.190	0.091
-304.837	-133.925	-0.529	0.065
-303.822	218.890	0.351	-0.557
-302.807	-200.000	-0.066	-0.557
-301.793	-200.000	-0.049	0.222
-300.778	94.749	-0.162	-0.184
-299.764	387.128	0.140	-0.287
-298.749	800.000	-0.121	-0.502
-297.735	-164.592	-0.332	0.015
-296.720	-74.180	0.497	0.179
-295.705	-19.025	0.174	-0.108
-294.691	-36.519	-0.228	-0.122
-293.676	-129.380	-0.371	0.051
-292.662	800.000	0.104	-0.446
-291.647	16.006	0.123	0.096
-290.632	-135.526	-0.231	0.027
-289.618	112.142	0.495	-0.594
-288.603	-125.753	0.455	-0.068
-287.589	18.192	-0.725	0.575
-286.574	-155.759	-0.388	0.025
-285.559	-119.670	-0.652	0.112
-284.545	-142.828	0.321	-0.031
-283.530	-66.075	0.499	-0.198
-282.516	-113.658	-0.572	-0.111
-281.501	-81.913	1.014	0.329
-280.486	-154.510	0.589	0.039
-279.472	-92.729	-0.587	0.163
-278.457	-19.235	0.735	0.453
-277.443	-200.000	0.197	0.901
-276.428	60.864	0.187	-0.184
-275.413	-28.388	0.372	0.213
-274.399	-58.278	-0.589	-0.255
-273.384	43.445	-0.533	-0.484
-272.370	246.604	0.750	1.255
-271.355	126.068	-0.300	0.376
-270.340	34.610	0.403	0.349
-269.326	39.803	-0.141	-0.126
-268.311	346.720	0.103	0.201
-267.297	-131.287	0.432	0.057
-266.282	-52.746	-0.190	-0.087
-265.267	-38.108	0.684	-0.360
-264.253	-200.000	0.034	0.233
-263.238	-200.000	-0.076	0.709
-262.224	-51.243	-0.465	-0.216
-261.209	501.908	-0.293	-0.671
-260.195	65.556	-0.410	0.412
-259.180	-154.701	0.357	-0.024
-258.165	188.210	0.360	0.534
-257.151	800.000	-0.290	0.826
-256.136	800.000	-0.152	0.456
-255.122	-118.428	-0.802	0.141
-254.107	238.490	-0.366	0.603
-253.092	-200.000	0.091	-0.431
-252.078	281.257	-0.062	0.111
-251.063	-177.634	0.420	-0.010
-250.049	-110.391	0.399	-0.082
-249.034	44.229	0.953	-0.867
-248.019	61.549	-0.531	0.524
-247.005	-109.303	0.632	0.133
-245.990	-16.257	0.489	-0.308
-244.976	8.747	-0.212	-0.158
-243.961	-200.000	0.085	-0.717
-242.946	162.490	-0.099	0.138
-241.932	-200.000	-0.017	0.260
-240.917	117.545	-0.386	0.471
-239.903	408.829	0.074	-0.155
-238.888	-200.000	0.112	-0.754
-237.873	800.000	0.111	-0.345
-236.859	-200.000	0.045	-0.264
-235.844	800.000	0.418	-1.172
-234.830	17.799	0.266	0.210
-233.815	-33.529	0.342	0.187
-232.800	800.000	0.042	0.149
-231.786	-32.401	0.291	-0.161
-230.771	-65.608	0.860	0.342
-229.757	-200.000	-0.107	0.574
-228.742	-200.000	0.133	0.809
-227.727	683.553	-0.154	0.398
-226.713	-17.680	-0.337	-0.210
-225.698	33.934	-0.103	-0.089
-224.684	-103.363	0.606	-0.141
-223.669	-43.020	0.991	-0.498
-222.655	275.945	0.179	0.315
-221.640	88.298	0.303	-0.333
-220.625	371.328	0.169	-0.339
-219.611	-200.000	0.052	-0.891
-218.596	-63.519	-0.074	0.030
-217.582	-98.462	-1.234	0.313
-216.567	315.169	-0.316	-0.591
-215.552	-56.354	0.218	0.096
-214.538	117.637	-0.720	0.877
-213.523	-29.771	-0.517	0.292
-212.509	55.710	0.689	-0.662
-211.494	-200.000	0.101	-0.448
-210.479	22.902	0.241	-0.196
-209.465	-200.000	0.004	0.235
-208.450	-115.146	-0.314	-0.059
-207.436	-147.794	1.056	0.087
-206.421	-200.000	-0.029	0.802
-205.406	-85.119	-0.508	0.157
-204.392	800.000	-0.076	0.226
-203.377	255.075	-0.065	-0.111
-202.363	63.097	0.127	0.126
-201.348	-45.772	-0.527	-0.258
-200.333	-164.642	-0.699	0.031
-199.319	-89.200	-0.766	0.224
-198.304	-67.674	0.464	-0.180
-197.290	800.000	0.319	-1.057
-196.275	-116.084	-0.548	0.101
-195.260	-174.148	0.405	0.012
-194.246	356.107	-0.141	0.277
-193.231	205.175	-0.224	0.344
-192.217	-200.000	0.004	-1.030
-191.202	88.399	0.132	0.145
-190.187	374.856	-0.300	0.605
-189.173	-200.000	0.121	0.661
-188.158	18.107	0.691	0.545
-187.144	100.067	0.225	0.258
-186.129	-89.397	-0.991	0.289
-185.114	67.301	0.225	-0.227
-184.100	58.469	-0.147	0.143
-183.085	-169.343	-0.776	-0.028
-182.071	149.628	-0.221	0.296
-181.056	-104.579	-0.665	-0.152
-180.042	-21.258	0.407	-0.246
-179.027	-92.103	-1.095	-0.306
-178.012	-60.702	0.262	0.110
-176.998	101.714	-0.608	-0.702
-175.983	30.840	-0.101	-0.086
-174.969	-200.000	0.135	-0.698
-173.954	800.000	-0.300	1.124
-172.939	-196.497	-0.794	-0.005
-171.925	274.454	0.178	0.312
-170.910	-200.000	-0.018	0.286
-169.896	-180.784	-0.408	-0.008
-168.881	-52.930	-0.207	0.094
-167.866	-135.942	0.212	0.025
-166.852	531.809	-0.297	-0.694
-165.837	-200.000	-0.041	-0.265
-164.823	228.985	0.323	-0.521
-163.808	-8.244	-0.418	0.278
-162.793	-200.000	-0.015	1.258
-161.779	93.763	0.526	0.589
-160.764	-107.697	-0.441	-0.095
-159.750	182.952	0.250	0.365
-158.735	800.000	-0.253	-0.896
-157.720	200.777	-0.256	0.388
-156.706	49.850	0.371	0.346
-155.691	637.089	-0.160	0.403
-154.677	800.000	0.091	-0.318
-153.662	7.755	-0.475	0.351
-152.647	800.000	-0.065	0.237
-151.633	-2.086	0.729	-0.506
-150.618	-72.628	0.777	-0.283
-149.604	256.415	-0.460	-0.780
-148.589	-46.991	-0.926	0.447
-147.574	-200.000	-0.059	0.696
-146.560	-7.232	0.951	0.637
-145.545	292.248	-0.377	-0.678
-144.531	800.000	0.190	-0.614
-143.516	-200.000	0.030	-0.129
-142.502	800.000	0.086	0.340
-141.487	298.109	0.247	-0.448
-140.472	800.000	0.169	0.558
-139.458	800.000	-0.251	-0.831
-138.443	-200.000	-0.005	0.104
-137.429	800.000	-0.039	0.134
-136.414	800.000	-0.062	-0.199
-135.399	748.450	0.066	0.175
-134.385	-200.000	0.006	-0.263
-133.370	88.805	0.210	-0.230
-132.356	-17.866	-0.588	-0.364
-131.341	-55.766	0.812	0.358
-130.326	-115.327	0.717	-0.134
-129.312	-78.172	0.651	0.221
-128.297	83.957	-0.486	0.524
-127.283	-200.000	0.010	-0.431
-126.268	70.362	0.343	0.350
-125.253	-47.823	0.253	0.121
-124.239	-134.111	0.682	-0.083
-123.224	-3.672	0.595	0.408
-122.210	85.503	-0.031	0.034
-121.195	800.000	0.100	-0.425
-120.180	42.089	-0.424	0.379
-119.166	36.949	0.191	-0.166
-118.151	117.578	0.175	0.213
-117.137	-8.427	0.346	0.229
-116.122	24.571	-0.152	0.124
-115.107	-75.741	-0.285	-0.100
-114.093	8.167	-0.240	-0.178
-113.078	217.282	0.286	0.450
-112.064	-109.851	-0.207	0.043
-111.049	94.341	0.546	0.612
-110.034	-16.880	-1.057	0.659
-109.020	-200.000	0.046	-0.368
-108.005	-74.127	-1.243	0.444
-106.991	-78.023	0.213	-0.072
-105.976	-200.000	-0.019	0.781
-104.962	-77.362	-0.460	-0.158
-103.947	-200.000	-0.071	0.306
-102.932	0.692	-1.012	0.714
-101.918	64.358	-0.717	0.712
-100.903	13.659	-0.493	-0.378
-99.889	-83.245	-0.078	0.025
-98.874	-77.139	-0.507	-0.174
-97.859	-31.780	0.668	0.369
-96.845	133.440	0.188	-0.239
-95.830	110.167	-0.379	-0.448
-94.816	-84.411	-0.685	0.213
-93.801	-18.472	-0.347	-0.214
-92.786	122.784	0.067	-0.083
-91.772	-200.000	-0.243	-1.070
-90.757	-200.000	0.004	0.332
-89.743	-23.386	0.971	0.575
-88.728	-49.294	0.482	0.227
-87.713	-200.000	-0.008	-0.371
-86.699	-10.744	-0.295	0.193
-85.684	-200.000	0.049	0.872
-84.670	11.517	0.504	-0.381
-83.655	77.186	0.532	-0.557
-82.640	-200.000	0.026	0.260
-81.626	-145.127	1.208	-0.108
-80.611	-117.221	-1.277	0.229
-79.597	800.000	-0.128	0.413
-78.582	600.389	-0.171	0.417
-77.567	-105.088	-0.380	0.086
-76.553	-200.000	0.145	1.006
-75.538	-175.683	0.301	0.008
-74.524	800.000	-0.140	-0.477
-73.509	-107.133	-1.320	0.287
-72.494	-79.077	0.295	0.099
-71.480	234.811	0.383	-0.622
-70.465	-67.278	0.801	0.310
-69.451	70.291	0.304	0.310
-68.436	800.000	-0.023	-0.075
-67.422	71.715	0.464	-0.475
-66.407	140.948	0.114	0.148
-65.392	112.778	-0.169	0.202
-64.378	800.000	-0.206	-0.606
-63.363	-174.106	1.094	0.031
-62.349	-48.558	-0.426	-0.202
-61.334	50.864	-0.853	-0.795
-60.319	-200.000	0.051	0.868
-59.305	21.010	-0.399	-0.318
-58.290	40.810	1.331	1.182
-57.276	800.000	0.640	1.772
-56.261	-200.000	96.579	589.601
-55.246	671.052	1356.727	3459.949
-54.232	203.961	2518.957	3840.021
-53.217	119.444	2119.966	2583.361
-52.203	44.590	1591.985	1440.323
-51.188	36.293	1333.430	1156.883
-50.173	33.177	1292.216	1102.942
-49.159	56.318	1342.339	1283.738
-48.144	57.182	1358.647	1304.410
-47.130	36.191	1317.159	1141.983
-46.115	32.688	1299.137	1105.808
-45.100	32.672	1293.766	1101.094
-44.086	32.519	1291.470	1098.204
-43.071	32.362	1290.040	1096.031
-42.057	32.389	1287.822	1094.260
-41.042	32.604	1285.421	1093.426
-40.027	32.672	1283.622	1092.247
-39.013	32.207	1284.023	1089.850
-37.998	32.646	1280.205	1089.105
-36.984	32.598	1279.945	1088.562
-35.969	32.828	1276.288	1086.732
-34.954	32.880	1275.145	1086.014
-33.940	32.653	1273.987	1083.679
-32.925	32.528	1273.667	1082.644
-31.911	32.562	1271.208	1080.707
-30.896	32.569	1269.644	1079.379
-29.881	32.763	1269.111	1079.993
-28.867	32.800	1267.153	1078.492
-27.852	32.680	1265.575	1076.425
-26.838	32.803	1264.433	1076.113
-25.823	32.799	1262.587	1074.474
-24.809	32.570	1262.740	1073.258
-23.794	32.642	1260.438	1071.666
-22.779	32.688	1259.724	1071.277
-21.765	32.741	1257.666	1069.787
-20.750	32.474	1256.035	1066.846
-19.736	32.634	1255.855	1067.554
-18.721	32.417	1254.670	1065.280
-17.706	32.625	1254.227	1066.038
-16.692	32.625	1251.867	1063.988
-15.677	32.537	1250.475	1062.266
-14.663	32.663	1249.763	1062.329
-13.648	32.459	1249.368	1060.803
-12.633	32.849	1247.114	1061.040
-11.619	32.672	1246.316	1059.322
-10.604	32.553	1246.164	1058.481
-9.590	32.667	1245.660	1058.653
-8.575	32.687	1243.384	1056.790
-7.560	32.625	1242.828	1055.925
-6.546	32.552	1242.266	1055.002
-5.531	32.501	1241.261	1053.821
-4.517	32.599	1241.251	1054.319
-3.502	32.406	1240.067	1052.191
-2.487	32.347	1240.164	1051.901
-1.473	32.529	1234.395	1047.981
-0.458	30.770	1220.006	1026.036
0.556	28.221	1201.705	987.659
1.571	24.493	1206.033	970.897
2.586	23.462	1220.599	976.861
3.600	23.042	1208.242	964.594
4.615	16.942	1137.637	876.709
5.629	7.297	1062.871	772.229
6.644	3.632	1041.943	739.427
7.659	3.079	1039.238	734.801
8.673	2.788	1037.704	732.263
9.688	2.784	1037.246	731.855
10.702	3.243	1035.470	732.723
11.717	9.349	1042.943	767.141
12.731	18.912	1056.581	823.113
13.746	23.770	1062.738	851.170
14.761	24.667	1063.161	855.730
15.775	24.267	1062.396	853.124
16.790	23.977	1061.326	850.802
17.804	23.611	1060.881	848.623
18.819	23.683	1059.983	848.170
19.834	23.891	1060.431	849.448
20.848	23.634	1060.708	848.367
21.863	24.021	1059.008	848.780
22.877	23.854	1057.611	846.789
23.892	23.966	1056.224	846.136
24.907	23.691	1056.597	845.052
25.921	23.680	1055.336	843.915
26.936	23.560	1053.672	841.942
27.950	23.411	1052.711	840.392
28.965	23.765	1050.463	840.200
29.980	23.595	1049.697	838.708
30.994	23.785	1048.559	838.623
32.009	23.669	1047.854	837.438
33.023	23.744	1046.588	836.706
34.038	23.648	1046.377	836.008
35.053	23.180	1046.337	833.701
36.067	23.426	1044.898	833.635
37.082	23.357	1044.206	832.686
38.096	23.515	1044.052	833.233
39.111	23.777	1042.364	833.041
40.126	23.504	1041.551	831.038
41.140	22.916	1040.332	827.238
42.155	23.205	1038.881	827.362
43.169	23.323	1037.438	826.690
44.184	22.868	1037.202	824.308
45.199	22.908	1035.766	823.277
46.213	23.327	1034.506	824.153
47.228	23.584	1034.948	825.628
48.242	23.679	1033.861	825.129
49.257	23.666	1033.045	824.345
50.271	23.401	1033.208	823.171
51.286	23.926	1031.871	824.468
52.301	23.780	1030.618	822.719
53.315	23.857	1029.014	821.721
54.330	23.670	1028.739	820.562
55.344	23.288	1028.771	818.751
56.359	23.629	1027.249	819.044
57.374	23.751	1025.906	818.460
58.388	23.226	1026.077	816.103
59.403	23.052	1024.975	814.352
60.417	23.237	1023.239	813.755
61.432	23.191	1023.087	813.352
62.447	23.301	1022.886	813.623
63.461	23.364	1021.007	812.348
64.476	23.020	1021.370	810.982
65.490	23.280	1019.247	810.415
66.505	23.378	1019.958	811.361
67.520	23.183	1018.068	808.893
68.534	23.052	1016.965	807.347
69.549	22.836	1016.187	805.671
70.563	22.715	1015.838	804.773
71.578	22.560	1015.004	803.333
72.593	22.516	1013.535	801.898
73.607	22.487	1013.527	801.689
74.622	22.857	1013.071	802.939
75.636	22.588	1012.384	801.104
76.651	22.593	1011.297	800.197
77.666	22.694	1010.673	800.087
78.680	22.457	1010.433	798.755
79.695	22.537	1010.345	798.974
80.709	23.095	1008.832	800.235
81.724	23.206	1008.503	800.404
82.739	23.232	1007.656	799.778
83.753	23.417	1008.341	801.089
84.768	23.821	1007.648	802.292
85.782	24.117	1005.952	802.205
86.797	24.358	1004.317	801.911
87.812	23.969	1004.075	799.901
88.826	24.009	1003.027	799.175
89.841	23.804	1002.964	798.132
90.855	23.957	1002.487	798.369
91.870	23.928	1001.308	797.229
92.884	23.847	999.913	795.686
93.899	23.806	999.449	795.063
94.914	24.083	997.749	794.874
95.928	23.401	997.659	791.690
96.943	23.495	997.347	791.792
97.957	23.678	995.639	791.179
98.972	23.467	995.088	789.731
99.987	23.935	994.405	791.201
101.001	24.005	992.509	789.933
102.016	23.776	992.104	788.529
103.030	23.945	990.998	788.327
104.045	23.636	990.783	786.715
105.060	23.722	989.047	785.649
106.074	23.745	989.132	785.750
107.089	23.656	987.570	784.045
108.103	23.560	986.332	782.570
109.118	23.035	985.326	779.389
110.133	23.012	983.699	777.931
111.147	23.291	981.827	777.610
112.162	22.865	982.048	775.844
113.176	23.447	980.577	777.164
114.191	23.321	980.426	776.423
115.206	23.087	980.071	775.048
116.220	22.625	980.173	773.037
117.235	23.087	978.492	773.663
118.249	22.979	976.395	771.467
119.264	22.833	976.639	770.953
120.279	22.606	975.593	769.068
121.293	22.748	974.595	768.832
122.308	22.777	973.731	768.207
123.322	22.763	972.756	767.310
124.337	22.613	972.193	766.148
125.352	22.856	970.855	766.080
126.366	22.390	970.866	763.997
127.381	22.885	970.014	765.405
128.395	23.286	968.349	765.759
129.410	23.197	968.939	765.772
130.424	23.122	968.096	764.715
131.439	23.212	967.254	764.369
132.454	23.294	965.749	763.465
133.468	23.159	964.995	762.223
134.483	23.473	963.517	762.335
135.497	23.469	963.544	762.273
136.512	23.514	962.828	761.831
137.527	23.810	960.921	761.525
138.541	23.661	961.566	761.331
139.556	23.339	960.505	759.045
140.570	23.640	960.585	760.328
141.585	24.087	958.786	760.749
142.600	23.972	958.701	760.121
143.614	24.161	957.666	760.041
144.629	24.090	958.165	760.066
145.643	24.097	955.627	758.016
146.658	23.736	955.014	755.926
147.673	23.991	952.615	755.040
148.687	23.641	952.320	753.256
149.702	23.165	952.014	750.930
150.716	23.323	951.137	750.839
151.731	23.091	950.719	749.462
152.746	23.635	949.003	750.344
153.760	23.764	948.136	750.133
154.775	23.730	949.221	750.785
155.789	23.803	947.319	749.520
156.804	23.799	945.767	748.208
157.819	23.869	945.790	748.457
158.833	23.982	945.143	748.353
159.848	24.070	944.505	748.151
160.862	24.127	943.035	747.161
161.877	23.495	942.270	743.839
162.892	23.443	941.663	743.074
163.906	23.338	940.053	741.300
164.921	23.693	938.266	741.308
165.935	23.570	937.800	740.361
166.950	23.676	937.302	740.343
167.964	23.625	937.372	740.120
168.979	23.488	936.198	738.559
169.994	23.184	935.136	736.388
171.008	23.891	933.310	737.819
172.023	24.234	932.935	738.882
173.037	23.838	933.788	737.849
174.052	23.664	932.452	736.006
175.067	23.676	931.484	735.227
176.081	23.043	930.718	731.938
177.096	23.172	929.362	731.338
178.110	23.352	929.359	732.016
179.125	22.942	929.000	729.977
180.140	23.399	927.138	730.331
181.154	23.524	928.260	731.668
182.169	23.662	928.203	732.126
183.183	23.728	926.746	731.182
184.198	23.751	926.310	730.871
185.213	24.055	924.873	730.918
186.227	23.667	925.586	729.826
187.242	23.863	924.739	729.895
188.256	24.206	923.897	730.574
189.271	24.274	923.467	730.448
190.286	23.593	922.681	726.974
191.300	23.054	921.064	723.428
192.315	22.592	920.606	721.117
193.329	22.604	919.422	720.172
194.344	23.125	919.558	722.343
195.359	23.733	918.564	723.979
196.373	23.695	918.897	724.023
197.388	23.937	918.145	724.351
198.402	24.244	918.623	725.917
199.417	24.505	918.041	726.454
200.432	24.132	917.434	724.392
201.446	24.436	916.268	724.642
202.461	24.316	915.398	723.402
203.475	23.668	914.990	720.387
204.490	23.373	913.594	718.030
205.504	23.729	912.713	718.712
206.519	23.848	912.468	718.941
207.534	23.829	911.672	718.174
208.548	23.693	911.594	717.497
209.563	24.055	910.273	717.856
210.577	23.931	909.962	717.047
211.592	24.028	910.874	718.092
212.607	24.398	908.709	717.812
213.621	24.081	909.121	716.795
214.636	24.148	907.755	715.927
215.650	24.175	906.573	715.037
216.665	23.858	907.051	714.077
217.680	24.064	905.562	713.670
218.694	23.689	904.734	711.451
219.709	23.906	904.900	712.390
220.723	24.105	902.548	711.270
221.738	23.650	903.633	710.242
222.753	23.460	902.716	708.699
223.767	24.149	901.491	710.424
224.782	24.548	900.745	711.362
225.796	24.279	901.133	710.532
226.811	24.217	899.939	709.282
227.826	23.360	900.593	706.320
228.840	23.265	899.033	704.657
229.855	23.743	897.723	705.467
230.869	23.497	897.288	704.084
231.884	23.483	897.019	703.757
232.899	23.916	895.869	704.507
233.913	23.908	893.925	702.885
234.928	23.757	894.267	702.495
235.942	23.607	893.339	701.108
236.957	23.328	893.009	699.686
237.972	23.254	892.512	698.943
238.986	23.049	892.560	698.109
240.001	23.044	892.195	697.745
241.015	23.302	890.789	697.598
242.030	23.947	890.324	699.713
243.045	23.627	890.698	698.682
244.059	23.725	889.599	698.146
245.074	24.044	888.694	698.625
246.088	23.700	888.795	697.291
247.103	24.261	888.481	699.187
248.117	24.508	888.189	699.864
249.132	24.889	888.549	701.578
250.147	25.003	887.795	701.364
251.161	25.133	886.968	701.157
252.176	24.926	886.524	699.938
253.190	25.323	885.345	700.494
254.205	25.290	884.522	699.650
255.220	24.813	884.262	697.525
256.234	24.439	884.222	695.973
257.249	24.542	883.401	695.667
258.263	24.574	882.448	694.980
259.278	24.743	881.717	695.000
260.293	24.744	881.199	694.533
261.307	24.628	881.562	694.309
262.322	24.907	881.367	695.175
263.336	24.769	878.819	692.569
264.351	24.383	878.638	690.872
265.366	24.497	878.561	691.191
266.380	24.855	877.046	691.323
267.395	24.866	876.889	691.178
268.409	24.837	876.325	690.563
269.424	24.699	875.488	689.309
270.439	24.355	874.870	687.436
271.453	24.500	874.226	687.429
272.468	25.005	873.800	688.974
273.482	24.859	873.577	688.175
274.497	24.872	872.294	687.156
275.512	24.576	871.275	685.156
276.526	24.967	871.212	686.545
277.541	25.244	870.872	687.275
278.555	24.999	871.277	686.596
279.570	25.019	870.546	686.039
280.585	24.859	870.246	685.127
281.599	25.205	867.767	684.434
282.614	24.312	867.540	680.789
283.628	24.151	867.325	679.943
284.643	24.173	866.367	679.217
285.657	24.486	865.409	679.599
286.672	24.769	865.205	680.455
287.687	24.637	864.961	679.699
288.701	24.620	864.570	679.270
289.716	24.620	863.855	678.648
290.730	24.683	863.895	678.857
291.745	24.652	862.100	677.270
292.760	24.794	862.238	677.855
293.774	25.212	862.511	679.592
294.789	25.235	861.816	679.074
295.803	25.044	860.361	677.144
296.818	24.899	859.323	675.721
297.833	24.657	859.006	674.500
298.847	24.877	857.526	674.104
299.862	24.856	858.049	674.376
300.876	24.603	858.919	674.049
301.891	25.271	856.967	674.971
302.906	25.424	855.700	674.487
303.920	25.191	856.095	673.862
304.935	25.182	856.492	674.080
305.949	25.239	855.077	673.123
306.964	24.656	855.260	671.018
307.979	24.454	854.430	669.551
308.993	24.997	853.538	670.825
310.008	25.274	853.144	671.493
311.022	25.014	852.404	669.878
312.037	24.923	852.131	669.265
313.052	24.614	850.659	666.896
314.066	24.529	850.477	666.378
315.081	24.360	849.767	665.131
316.095	24.681	848.675	665.416
317.110	24.438	848.579	664.376
318.125	24.696	847.117	664.133
319.139	24.297	846.893	662.413
320.154	23.842	846.363	660.251
321.168	24.511	845.807	662.241
322.183	24.781	845.358	662.833
323.197	24.427	845.216	661.349
324.212	24.786	844.081	661.733
325.227	24.653	844.082	661.181
326.241	24.425	843.772	660.040
327.256	24.486	842.236	659.005
328.270	24.430	841.792	658.391
329.285	24.217	841.447	657.276
330.300	24.041	841.660	656.737
331.314	24.039	840.666	655.894
332.329	24.774	840.344	658.294
333.343	24.786	840.432	658.347
334.358	24.931	839.087	657.766
335.373	24.688	840.066	657.583
336.387	25.146	838.571	658.036
337.402	24.871	839.141	657.416
338.416	25.333	839.562	659.386
339.431	25.510	838.893	659.448
340.446	25.377	838.803	658.834
341.460	25.436	837.279	657.793
342.475	25.305	838.357	658.101
343.489	25.463	837.896	658.261
344.504	25.746	837.166	658.666
345.519	25.251	837.730	657.239
346.533	26.024	836.064	658.696
347.548	25.441	834.793	655.512
348.562	25.529	834.039	655.183
349.577	25.430	832.988	653.937
350.592	25.354	833.036	653.639
351.606	25.395	831.921	652.858
352.621	25.204	831.597	651.852
353.635	25.224	830.823	651.261
354.650	24.819	830.746	649.672
355.665	24.815	829.078	648.293
356.679	25.220	828.989	649.635
357.694	25.399	827.841	649.323
358.708	25.144	827.238	647.874
359.723	25.089	827.425	647.763
360.738	25.086	827.164	647.489
361.752	25.180	826.608	647.338
362.767	25.449	825.440	647.333
363.781	25.349	825.547	646.999
364.796	25.734	824.925	647.842
365.810	25.954	824.176	647.986
366.825	25.726	824.252	647.169
367.840	25.499	823.580	645.770
368.854	25.193	823.468	644.526
369.869	25.315	823.079	644.601
370.883	25.470	822.533	644.671
371.898	25.471	821.805	644.048
372.913	25.200	821.862	643.066
373.927	25.235	821.553	642.892
374.942	25.585	820.487	643.253
375.956	25.602	820.980	643.643
376.971	25.452	820.118	642.375
377.986	25.994	819.359	643.657
379.000	25.819	819.104	642.775
380.015	26.091	817.819	642.680
381.029	25.905	817.455	641.676
382.044	25.955	817.090	641.511
383.059	25.910	816.990	641.214
384.073	25.991	815.819	640.527
385.088	25.188	815.247	637.172
386.102	25.093	814.053	635.845
387.117	25.214	813.367	635.681
388.132	25.316	812.828	635.564
389.146	25.474	812.446	635.769
390.161	25.537	812.621	636.070
391.175	25.765	812.907	637.046
392.190	25.802	811.531	636.040
393.205	24.942	810.464	632.115
394.219	24.342	809.461	629.160
395.234	24.248	808.960	628.384
396.248	24.723	809.820	630.674
397.263	25.055	808.904	631.072
398.278	25.074	808.351	630.651
399.292	24.799	806.816	628.434
400.307	24.797	807.069	628.567
401.321	24.789	806.542	628.073
402.336	24.756	806.772	628.082
403.350	25.281	806.726	629.833
404.365	26.115	806.019	632.147
405.380	26.191	805.921	632.279
406.394	26.187	804.998	631.485
407.409	26.275	805.116	631.830
408.423	25.793	805.280	630.217
409.438	25.852	804.818	630.007
410.453	26.093	803.468	629.734
411.467	25.528	803.285	627.563
412.482	26.309	802.402	629.540
413.496	26.323	802.318	629.466
414.511	26.073	802.997	629.072
415.526	26.164	801.939	628.504
416.540	26.119	800.982	627.545
417.555	26.295	799.855	627.215
418.569	26.121	800.251	626.866
419.584	26.402	799.625	627.294
420.599	25.977	799.214	625.443
421.613	160.443	1370.375	1793.708
422.628	139.236	1453.582	1793.716
