DTS Sentinel unit serial number:	SN413079Multiplexer serial number:	ORYXHardware model number:	OX4-SRSoftware version number:	ORYX F/W v4.00 Oryx Data Collector v3.7.2.0data status	okinstallation	princeton_trtdifferential loss correction	single-endedforward channel	channel 1reverse channel	N/Adate	2019/09/18time	20:34:35forward acquisition time	60.00reverse acquisition time	0.00gamma	496.2192k internal	0.2336k external	0.2336temperature offset calibration	1.0030default loss term (dB/km)	0.3790temperature slope calibration	1.0000multiplexer offset coefficient	1.0000multiplexer slope coefficient	1.0000fibre end	0.00T internal ref (°C)	28.00T ext. ref 1 (°C)	0.93T ext. ref 2 (°C)	19.01length (m)	temperature (°C)	Stokes	anti-Stokes-747.200	-82.222	0.281	0.092
-746.185	31.765	-0.121	0.105
-745.171	-200.000	-0.042	0.235
-744.156	800.000	0.009	0.031
-743.142	-123.921	0.105	-0.017
-742.127	475.701	0.057	0.128
-741.112	800.000	-0.077	0.281
-740.098	800.000	0.123	0.461
-739.083	287.762	-0.057	0.103
-738.069	163.690	-0.186	0.262
-737.054	-133.840	-0.214	-0.027
-736.039	607.320	0.100	-0.250
-735.025	414.544	0.127	0.272
-734.010	208.991	-0.271	-0.426
-732.996	61.344	0.313	-0.312
-731.981	-200.000	-0.038	0.221
-730.966	-137.629	-0.095	0.011
-729.952	-200.000	0.018	0.178
-728.937	5.919	-0.036	-0.027
-727.923	-172.296	-0.197	-0.006
-726.908	800.000	-0.057	0.210
-725.894	32.289	-0.206	-0.179
-724.879	-156.495	0.233	-0.015
-723.864	28.873	-0.082	-0.070
-722.850	-28.160	-0.107	-0.062
-721.835	430.659	0.123	0.266
-720.821	-154.496	0.276	-0.019
-719.806	800.000	-0.097	-0.424
-718.791	544.541	-0.036	-0.085
-717.777	-200.000	-0.012	-0.262
-716.762	-40.588	-0.113	0.059
-715.748	321.966	-0.233	0.444
-714.733	-176.741	-0.249	0.006
-713.718	5.060	0.022	-0.016
-712.704	-87.073	-0.247	0.076
-711.689	404.211	-0.124	-0.262
-710.675	395.743	0.103	0.215
-709.660	0.145	-0.180	-0.129
-708.645	89.264	-0.152	0.169
-707.631	-7.921	0.179	-0.121
-706.616	-99.748	0.404	0.101
-705.602	-25.779	0.090	-0.053
-704.587	-200.000	0.040	-0.188
-703.572	-22.602	0.074	0.045
-702.558	184.474	-0.187	-0.277
-701.543	14.527	-0.252	0.197
-700.529	-49.964	0.315	0.150
-699.514	-52.024	-0.259	-0.120
-698.499	323.360	0.069	-0.131
-697.485	-67.249	-0.134	0.053
-696.470	70.962	-0.247	-0.257
-695.456	320.432	0.042	-0.081
-694.441	151.123	-0.087	-0.119
-693.426	12.043	0.209	0.161
-692.412	-200.000	-0.012	0.369
-691.397	119.510	0.130	0.161
-690.383	-65.089	0.286	0.116
-689.368	-200.000	-0.019	0.099
-688.354	-170.425	0.093	0.003
-687.339	73.816	0.062	0.066
-686.324	-173.311	-0.316	0.010
-685.310	800.000	-0.039	0.119
-684.295	-76.959	0.250	0.088
-683.281	118.739	-0.097	0.120
-682.266	-200.000	0.062	0.276
-681.251	19.313	-0.171	-0.138
-680.237	330.197	0.157	-0.303
-679.222	800.000	-0.048	0.153
-678.208	-156.827	0.340	0.021
-677.193	251.538	0.028	-0.048
-676.178	471.883	-0.051	-0.114
-675.164	-200.000	0.000	0.043
-674.149	-2.301	-0.165	0.116
-673.135	-20.840	-0.188	0.115
-672.120	629.121	0.022	-0.054
-671.105	-200.000	-0.004	0.078
-670.091	-70.554	-0.179	-0.068
-669.076	93.512	0.033	-0.037
-668.062	186.203	-0.063	0.094
-667.047	1.255	-0.262	0.188
-666.032	-22.091	-0.127	-0.077
-665.018	-85.612	0.270	-0.084
-664.003	541.705	0.033	0.079
-662.989	-200.000	0.044	-0.316
-661.974	-169.019	-0.270	0.010
-660.959	369.056	0.184	0.372
-659.945	448.379	-0.123	-0.270
-658.930	99.383	-0.143	-0.166
-657.916	-157.937	-0.384	0.023
-656.901	-129.771	-0.240	0.033
-655.886	-130.828	0.179	0.024
-654.872	-15.254	0.142	-0.091
-653.857	-68.414	0.434	0.168
-652.843	-180.526	0.182	0.004
-651.828	-200.000	0.013	-0.102
-650.814	-104.991	-0.591	0.135
-649.799	-47.018	0.295	-0.144
-648.784	-61.468	-0.150	-0.063
-647.770	176.933	0.176	-0.257
-646.755	-200.000	-0.002	0.078
-645.741	-73.588	-0.475	0.173
-644.726	-10.575	-0.154	-0.102
-643.711	-132.804	0.266	0.034
-642.697	7.595	0.152	-0.114
-641.682	351.786	0.170	-0.337
-640.668	-200.000	-0.015	-0.211
-639.653	563.359	0.159	0.386
-638.638	-32.904	0.184	0.102
-637.624	-200.000	0.009	0.311
-636.609	800.000	-0.183	-0.532
-635.595	8.232	0.162	0.122
-634.580	-78.788	0.051	0.017
-633.565	-33.657	-0.277	0.153
-632.551	49.223	0.051	0.048
-631.536	-31.434	0.105	0.059
-630.522	-46.500	0.050	0.025
-629.507	-109.694	-0.233	0.049
-628.492	-106.697	0.148	0.033
-627.478	-48.231	0.084	0.041
-626.463	-129.590	-0.338	-0.047
-625.449	800.000	-0.033	-0.125
-624.434	-51.473	0.174	0.081
-623.419	5.155	0.443	0.326
-622.405	680.002	0.026	-0.068
-621.390	90.286	-0.053	0.059
-620.376	76.165	0.306	0.324
-619.361	59.150	-0.172	0.169
-618.346	-83.686	0.274	-0.087
-617.332	800.000	-0.109	0.357
-616.317	402.719	-0.145	-0.305
-615.303	3.206	-0.231	0.168
-614.288	-61.965	-0.318	-0.133
-613.273	-3.497	0.331	0.230
-612.259	104.231	-0.189	-0.222
-611.244	23.227	-0.126	-0.104
-610.230	256.639	0.123	0.211
-609.215	173.682	0.193	0.279
-608.201	-124.880	-0.217	0.033
-607.186	3.466	0.114	0.083
-606.171	-200.000	0.031	-0.142
-605.157	-200.000	0.025	-0.255
-604.142	-96.808	0.483	-0.127
-603.128	509.785	0.114	0.265
-602.113	452.128	-0.006	-0.014
-601.098	-74.820	-0.291	0.104
-600.084	719.701	0.064	-0.169
-599.069	-200.000	0.015	0.076
-598.055	81.265	-0.080	0.086
-597.040	249.307	-0.110	-0.187
-596.025	354.151	0.017	0.033
-595.011	-128.225	-0.142	0.020
-593.996	81.482	0.230	0.248
-592.982	-17.274	-0.328	0.207
-591.967	-31.177	-0.053	0.030
-590.952	-20.993	-0.116	0.071
-589.938	-56.824	0.256	-0.113
-588.923	-200.000	-0.055	-0.286
-587.909	511.921	-0.110	-0.255
-586.894	-3.999	-0.248	0.172
-585.879	102.703	-0.108	0.126
-584.865	175.935	0.096	-0.139
-583.850	-200.000	0.049	-0.268
-582.836	-200.000	-0.018	0.098
-581.821	62.533	-0.075	0.075
-580.806	-200.000	0.016	0.343
-579.792	72.223	0.157	-0.164
-578.777	-85.656	-0.342	-0.106
-577.763	495.235	0.088	0.201
-576.748	-200.000	-0.041	-0.459
-575.733	-97.710	-0.385	-0.100
-574.719	-111.941	0.192	-0.039
-573.704	214.941	0.086	0.136
-572.690	-74.498	0.089	0.032
-571.675	13.910	-0.191	-0.148
-570.661	800.000	-0.047	0.187
-569.646	800.000	0.056	0.208
-568.631	26.062	-0.197	0.164
-567.617	-14.565	-0.225	0.144
-566.602	146.209	-0.061	-0.082
-565.588	168.743	-0.146	-0.207
-564.573	-200.000	0.025	0.180
-563.558	376.249	-0.118	0.240
-562.544	165.241	-0.173	0.243
-561.529	265.421	0.154	-0.267
-560.515	-200.000	0.051	0.331
-559.500	-115.695	-0.186	0.035
-558.485	-177.311	0.319	-0.008
-557.471	-132.040	-0.215	0.028
-556.456	335.002	-0.111	0.214
-555.442	95.492	-0.084	0.096
-554.427	130.020	-0.094	0.120
-553.412	-84.493	0.064	0.020
-552.398	-173.733	-0.080	-0.002
-551.383	-200.000	0.060	-0.421
-550.369	145.731	-0.177	-0.237
-549.354	800.000	0.121	-0.407
-548.339	62.198	0.281	-0.279
-547.325	-171.576	0.187	-0.006
-546.310	-53.625	-0.311	0.142
-545.296	-200.000	0.044	-0.385
-544.281	104.347	-0.079	-0.093
-543.266	24.313	0.278	-0.228
-542.252	-97.021	-0.156	0.041
-541.237	-113.120	0.160	-0.031
-540.223	581.389	0.096	0.235
-539.208	-200.000	0.008	-0.445
-538.193	-95.896	-0.306	-0.081
-537.179	-172.941	-0.205	-0.006
-536.164	-159.522	0.115	0.006
-535.150	-170.858	-0.177	-0.006
-534.135	-26.660	-0.388	0.226
-533.121	-70.514	0.146	-0.055
-532.106	-200.000	0.020	-0.388
-531.091	-4.969	-0.155	-0.106
-530.077	187.586	0.165	-0.246
-529.062	36.855	0.071	-0.063
-528.048	164.006	-0.166	-0.233
-527.033	133.843	0.113	0.146
-526.018	-200.000	0.031	-0.174
-525.004	87.540	0.057	0.063
-523.989	-200.000	0.041	0.292
-522.975	5.753	0.228	0.168
-521.960	-103.522	-0.306	-0.072
-520.945	800.000	0.050	-0.195
-519.931	-76.880	-0.343	0.119
-518.916	-47.230	-0.070	0.034
-517.902	-133.804	-0.315	-0.039
-516.887	-15.704	0.045	0.029
-515.872	278.304	-0.029	-0.051
-514.858	78.207	-0.126	-0.134
-513.843	800.000	-0.089	-0.307
-512.829	352.392	-0.108	-0.213
-511.814	-90.336	-0.299	-0.086
-510.799	-136.608	-0.293	0.034
-509.785	147.215	-0.060	0.080
-508.770	16.391	0.299	-0.235
-507.756	74.444	-0.120	-0.126
-506.741	325.662	0.027	0.052
-505.726	-137.904	0.240	0.027
-504.712	-139.197	0.058	-0.006
-503.697	-89.328	0.198	0.058
-502.683	-84.401	-0.204	0.064
-501.668	38.812	0.088	-0.078
-500.653	546.150	0.132	0.314
-499.639	443.376	-0.086	0.188
-498.624	18.832	-0.223	-0.178
-497.610	-136.221	0.285	0.033
-496.595	28.115	-0.131	-0.110
-495.581	282.948	-0.095	0.169
-494.566	-200.000	-0.031	-0.424
-493.551	558.222	0.102	-0.246
-492.537	-53.902	-0.254	0.115
-491.522	800.000	0.090	0.307
-490.508	52.917	-0.170	-0.162
-489.493	46.363	0.055	0.051
-488.478	-172.896	0.128	-0.004
-487.464	-128.924	0.018	-0.003
-486.449	76.907	-0.079	0.083
-485.435	-150.250	0.170	0.013
-484.420	732.057	-0.085	-0.226
-483.405	-196.436	0.264	-0.002
-482.391	59.223	0.177	-0.173
-481.376	24.733	0.266	-0.219
-480.362	-200.000	-0.022	-0.109
-479.347	462.123	-0.038	-0.083
-478.332	-2.185	-0.256	-0.179
-477.318	-106.503	0.159	0.035
-476.303	170.497	-0.238	-0.338
-475.289	-64.056	0.271	-0.110
-474.274	-6.407	-0.101	0.069
-473.259	800.000	0.097	-0.287
-472.245	403.025	-0.172	-0.359
-471.230	16.154	0.194	-0.152
-470.216	-66.468	-0.095	-0.038
-469.201	370.551	-0.043	0.087
-468.186	-200.000	0.077	0.536
-467.172	183.446	-0.079	0.116
-466.157	800.000	-0.084	-0.302
-465.143	-138.319	0.315	0.035
-464.128	203.530	-0.123	-0.189
-463.113	-200.000	-0.016	-0.139
-462.099	387.538	0.101	-0.208
-461.084	800.000	-0.069	0.253
-460.070	123.329	-0.104	-0.129
-459.055	-200.000	-0.032	-0.307
-458.040	-155.799	0.144	-0.009
-457.026	-180.853	0.457	0.009
-456.011	52.563	-0.164	-0.155
-454.997	192.856	-0.114	0.170
-453.982	209.344	-0.179	0.279
-452.968	-200.000	-0.023	0.143
-451.953	-58.011	0.086	0.037
-450.938	-75.668	0.093	0.033
-449.924	-40.625	-0.330	0.170
-448.909	-122.495	0.185	0.030
-447.895	-200.000	0.024	-0.278
-446.880	-100.274	0.160	0.039
-445.865	-48.306	0.279	-0.134
-444.851	-156.124	-0.237	0.015
-443.836	218.707	-0.097	0.154
-442.822	-102.765	0.149	0.035
-441.807	-30.948	0.318	-0.178
-440.792	-113.718	-0.212	-0.041
-439.778	-143.157	0.143	0.014
-438.763	96.904	-0.399	-0.453
-437.749	36.987	0.326	0.286
-436.734	-200.000	0.280	0.001
-435.719	-200.000	-0.026	0.268
-434.705	189.491	-0.128	0.190
-433.690	-154.909	0.037	0.002
-432.676	-28.019	-0.072	-0.041
-431.661	133.975	0.156	0.200
-430.646	-22.225	-0.021	-0.013
-429.632	-9.008	-0.262	0.174
-428.617	800.000	0.097	-0.389
-427.603	717.971	0.155	-0.408
-426.588	-4.730	0.135	0.093
-425.573	248.366	-0.029	0.049
-424.559	800.000	-0.085	0.292
-423.544	800.000	-0.075	0.253
-422.530	445.299	-0.127	-0.276
-421.515	645.032	-0.075	-0.189
-420.500	3.979	-0.228	0.165
-419.486	-200.000	-0.022	0.239
-418.471	-200.000	-0.014	-0.258
-417.457	223.013	-0.282	0.451
-416.442	112.598	0.116	-0.139
-415.428	155.869	0.232	0.317
-414.413	-170.023	0.319	-0.011
-413.398	270.811	0.108	0.189
-412.384	-51.185	-0.112	-0.052
-411.369	-7.976	0.182	-0.122
-410.355	-89.673	0.243	-0.070
-409.340	800.000	-0.008	-0.030
-408.325	18.724	-0.210	0.167
-407.311	-172.719	-0.207	0.006
-406.296	65.425	0.107	0.108
-405.282	-22.903	-0.286	0.171
-404.267	555.631	-0.201	-0.479
-403.252	-81.870	0.067	-0.022
-402.238	-18.507	-0.245	0.152
-401.223	191.441	0.231	-0.345
-400.209	-150.895	0.311	0.023
-399.194	-200.000	-0.003	0.224
-398.179	245.414	0.097	0.162
-397.165	140.214	0.059	-0.077
-396.150	-80.964	-0.135	-0.044
-395.136	-200.000	-0.046	0.241
-394.121	-170.728	0.043	0.001
-393.106	10.503	-0.185	-0.139
-392.092	204.519	-0.366	-0.562
-391.077	-54.191	-0.099	-0.044
-390.063	-200.000	-0.021	0.311
-389.048	-23.273	0.258	-0.154
-388.033	-4.511	-0.237	0.162
-387.019	-19.540	0.176	0.108
-386.004	-153.211	-0.253	0.018
-384.990	85.002	0.217	0.236
-383.975	143.473	-0.185	-0.245
-382.960	41.528	0.224	-0.201
-381.946	-200.000	0.017	-0.271
-380.931	137.101	-0.050	0.064
-379.917	286.304	0.064	-0.114
-378.902	-47.225	0.103	0.049
-377.888	-61.981	-0.260	0.107
-376.873	2.966	-0.182	-0.131
-375.858	56.804	0.152	0.147
-374.844	-66.870	-0.162	0.064
-373.829	-200.000	0.001	-0.208
-372.815	4.264	0.155	0.113
-371.800	80.077	-0.180	-0.192
-370.785	-155.014	0.027	-0.002
-369.771	-56.576	0.396	-0.174
-368.756	800.000	-0.074	0.229
-367.742	593.780	-0.058	0.142
-366.727	413.936	0.148	-0.312
-365.712	511.530	0.140	0.323
-364.698	731.072	-0.020	0.053
-363.683	800.000	0.072	0.288
-362.669	-200.000	-0.009	0.258
-361.654	-41.648	0.208	0.105
-360.639	800.000	-0.021	0.063
-359.625	-200.000	0.015	-0.098
-358.610	800.000	-0.074	-0.232
-357.596	-200.000	0.018	-0.426
-356.581	527.234	-0.029	-0.068
-355.566	-200.000	0.006	0.060
-354.552	-200.000	0.022	0.420
-353.537	-200.000	0.082	0.376
-352.523	-136.713	0.352	-0.040
-351.508	-153.811	-0.350	0.024
-350.493	-200.000	0.015	-0.408
-349.479	355.449	-0.069	0.135
-348.464	265.303	0.187	0.323
-347.450	-124.259	-0.078	-0.012
-346.435	-89.774	-0.166	0.048
-345.420	-171.763	0.128	-0.004
-344.406	287.986	0.207	0.371
-343.391	94.911	0.200	0.225
-342.377	-157.949	0.182	-0.011
-341.362	461.567	0.123	0.272
-340.348	-177.104	0.358	-0.009
-339.333	-200.000	-0.013	0.097
-338.318	-200.000	0.009	-0.050
-337.304	-141.261	0.196	0.020
-336.289	-101.118	-0.154	-0.037
-335.275	777.218	-0.085	0.230
-334.260	-200.000	0.002	0.120
-333.245	-200.000	-0.008	-0.225
-332.231	239.502	-0.066	0.108
-331.216	-94.094	-0.048	0.013
-330.202	-126.726	-0.070	-0.010
-329.187	-108.164	0.201	-0.043
-328.172	179.845	0.035	0.051
-327.158	800.000	0.037	-0.123
-326.143	59.955	-0.038	-0.037
-325.129	800.000	0.034	-0.123
-324.114	297.402	0.051	0.092
-323.099	-15.227	-0.196	-0.124
-322.085	800.000	0.056	0.216
-321.070	-200.000	-0.351	0.001
-320.056	-200.000	0.039	0.304
-319.041	-200.000	-0.026	-0.247
-318.026	160.559	0.108	0.148
-317.012	-200.000	-0.085	0.465
-315.997	-200.000	0.082	0.419
-314.983	215.965	-0.054	-0.085
-313.968	160.844	-0.159	0.219
-312.953	-200.000	-0.027	0.273
-311.939	-200.000	-0.226	-0.001
-310.924	218.770	-0.145	-0.229
-309.910	-200.000	-0.002	-0.070
-308.895	-96.717	0.312	-0.081
-307.880	800.000	0.144	0.404
-306.866	-121.950	-0.364	0.059
-305.851	-104.044	-0.045	-0.010
-304.837	-162.303	-0.323	0.016
-303.822	11.569	-0.288	0.218
-302.807	-200.000	0.002	-0.176
-301.793	263.376	0.126	0.217
-300.778	-96.563	0.180	-0.047
-299.764	370.353	-0.089	-0.178
-298.749	373.720	-0.114	-0.230
-297.735	800.000	-0.005	-0.023
-296.720	-200.000	-0.011	-0.284
-295.705	800.000	-0.036	0.109
-294.691	-61.488	0.164	0.068
-293.676	-86.001	0.173	-0.053
-292.662	118.521	-0.387	-0.471
-291.647	-200.000	0.049	0.295
-290.632	-53.221	-0.199	-0.090
-289.618	-200.000	-0.048	0.277
-288.603	800.000	0.017	-0.048
-287.589	129.366	0.083	0.105
-286.574	70.548	0.148	-0.151
-285.559	800.000	0.066	-0.225
-284.545	120.490	-0.204	-0.250
-283.530	-31.708	-0.149	-0.083
-282.516	-40.963	-0.143	-0.073
-281.501	-168.816	0.253	0.009
-280.486	-200.000	-0.014	-0.250
-279.472	-128.152	-0.177	-0.025
-278.457	-200.000	-0.019	-0.156
-277.443	141.039	0.173	0.226
-276.428	800.000	0.012	-0.039
-275.413	-200.000	0.038	0.171
-274.399	-200.000	0.007	0.241
-273.384	16.695	0.150	0.117
-272.370	-104.814	-0.181	0.041
-271.355	79.372	-0.282	0.298
-270.340	-57.000	0.423	0.184
-269.326	-200.000	0.017	-0.216
-268.311	800.000	0.026	-0.077
-267.297	14.202	-0.438	0.337
-266.282	331.055	0.105	-0.199
-265.267	-200.000	-0.030	0.147
-264.253	111.353	-0.202	-0.240
-263.238	207.535	-0.130	-0.201
-262.224	11.774	0.252	-0.191
-261.209	-74.775	-0.289	-0.102
-260.195	210.795	0.136	-0.211
-259.180	-200.000	-0.055	-0.249
-258.165	128.855	0.023	0.029
-257.151	-9.955	-0.034	-0.022
-256.136	299.790	0.143	0.260
-255.122	55.857	0.208	0.199
-254.107	100.386	-0.249	0.285
-253.092	39.109	-0.075	-0.066
-252.078	210.022	0.124	0.192
-251.063	-116.815	-0.198	0.036
-250.049	-200.000	0.050	0.254
-249.034	-172.895	-0.176	0.005
-248.019	-62.417	-0.139	-0.057
-247.005	30.173	0.314	-0.264
-245.990	-6.045	-0.128	0.086
-244.976	301.132	0.031	-0.056
-243.961	328.492	-0.209	0.395
-242.946	-70.965	-0.047	0.017
-241.932	71.692	0.121	0.124
-240.917	114.653	-0.108	-0.130
-239.903	66.751	-0.077	-0.078
-238.888	-200.000	0.008	0.229
-237.873	-61.076	-0.175	0.073
-236.859	-122.424	0.359	0.058
-235.844	20.905	-0.155	0.124
-234.830	283.691	-0.078	0.138
-233.815	34.488	-0.204	0.175
-232.800	-200.000	0.053	-0.457
-231.786	-102.444	0.482	0.114
-230.771	-79.505	-0.172	0.057
-229.757	778.358	-0.112	-0.303
-228.742	98.987	-0.142	-0.162
-227.727	227.406	0.206	-0.329
-226.713	177.354	0.104	0.149
-225.698	733.306	-0.049	-0.129
-224.684	800.000	-0.147	0.401
-223.669	-200.000	-0.007	0.198
-222.655	624.319	-0.121	0.300
-221.640	-134.788	-0.271	-0.032
-220.625	107.076	-0.076	-0.089
-219.611	274.296	0.111	0.193
-218.596	800.000	0.075	-0.268
-217.582	-193.545	0.350	0.003
-216.567	-19.636	0.102	-0.062
-215.552	273.420	0.057	-0.100
-214.538	-200.000	0.035	0.174
-213.523	-200.000	-0.024	-0.112
-212.509	-50.949	0.160	0.074
-211.494	800.000	-0.089	-0.321
-210.479	12.513	-0.078	-0.059
-209.465	-46.747	-0.123	-0.059
-208.450	-36.505	0.462	-0.244
-207.436	-200.000	-0.005	0.044
-206.421	-200.000	-0.023	-0.161
-205.406	-138.454	-0.162	0.018
-204.392	-200.000	0.022	0.203
-203.377	-13.344	0.181	0.115
-202.363	124.144	0.261	-0.323
-201.348	237.626	-0.065	-0.107
-200.333	-30.128	0.125	-0.070
-199.319	-100.282	-0.225	-0.055
-198.304	-1.343	0.147	0.102
-197.290	63.221	0.129	-0.127
-196.275	-125.182	0.194	-0.029
-195.260	65.298	0.171	-0.170
-194.246	-149.109	-0.070	0.006
-193.231	800.000	-0.078	0.266
-192.217	621.935	0.099	-0.244
-191.202	365.923	0.015	0.031
-190.187	73.979	-0.233	0.240
-189.173	158.006	-0.053	0.073
-188.158	-120.141	-0.104	-0.017
-187.144	80.766	0.135	0.143
-186.129	-139.877	-0.376	0.039
-185.114	61.283	0.087	-0.085
-184.100	-1.003	0.377	-0.262
-183.085	-150.262	0.385	-0.029
-182.071	-96.291	0.081	-0.021
-181.056	-2.735	0.176	-0.121
-180.042	-16.278	-0.251	-0.157
-179.027	-16.552	-0.165	0.103
-178.012	755.175	-0.098	0.260
-176.998	-80.911	0.368	0.120
-175.983	-130.182	0.221	0.030
-174.969	-34.672	0.307	0.165
-173.954	-200.000	0.022	0.436
-172.939	377.375	0.205	-0.411
-171.925	26.342	-0.244	-0.200
-170.910	-21.033	-0.051	0.031
-169.896	-179.573	-0.053	-0.001
-168.881	800.000	-0.009	-0.036
-167.866	800.000	-0.024	-0.095
-166.852	12.563	0.169	0.128
-165.837	-200.000	-0.011	0.078
-164.823	-107.676	0.212	-0.046
-163.808	243.984	-0.112	0.185
-162.793	-98.639	-0.170	0.043
-161.779	-200.000	-0.009	-0.106
-160.764	-14.195	0.198	0.125
-159.750	-152.706	0.116	-0.008
-158.735	-122.585	0.127	-0.020
-157.720	-200.000	0.020	0.154
-156.706	-166.157	0.157	-0.007
-155.691	308.072	0.053	0.096
-154.677	594.816	-0.052	-0.126
-153.662	51.768	-0.182	0.170
-152.647	-160.882	0.267	-0.014
-151.633	800.000	0.059	-0.168
-150.618	19.759	0.138	-0.109
-149.604	-126.573	-0.122	-0.018
-148.589	-55.586	-0.155	0.068
-147.574	14.580	-0.071	0.054
-146.560	800.000	0.062	-0.234
-145.545	-78.625	-0.052	-0.017
-144.531	-79.440	0.238	-0.079
-143.516	-60.098	-0.093	0.039
-142.502	-129.408	0.097	-0.013
-141.487	223.802	0.076	-0.120
-140.472	800.000	-0.041	-0.128
-139.458	-110.337	0.178	0.036
-138.443	231.956	-0.209	0.337
-137.429	-44.049	0.314	0.155
-136.414	-50.615	-0.072	-0.033
-135.399	237.884	-0.128	-0.208
-134.385	-200.000	0.007	0.055
-133.370	601.632	-0.119	0.291
-132.356	-200.000	-0.020	-0.260
-131.341	739.373	-0.058	-0.151
-130.326	-45.640	-0.486	0.236
-129.312	394.874	0.024	0.049
-128.297	62.870	0.241	-0.236
-127.283	-99.353	0.335	0.083
-126.268	-200.000	-0.012	-0.291
-125.253	800.000	0.068	-0.266
-124.239	800.000	0.047	-0.136
-123.224	-79.335	0.137	0.046
-122.210	-118.492	-0.301	0.052
-121.195	-133.132	0.066	0.008
-120.180	-120.087	0.103	0.017
-119.166	124.884	0.118	0.146
-118.151	15.966	-0.101	-0.078
-117.137	-73.357	-0.265	0.095
-116.122	-41.604	-0.147	-0.074
-115.107	198.332	0.106	-0.159
-114.093	217.856	-0.104	-0.163
-113.078	-93.031	-0.054	0.015
-112.064	-141.161	0.341	0.034
-111.049	-200.000	-0.019	0.238
-110.034	430.055	-0.088	-0.187
-109.020	-34.053	-0.129	-0.070
-108.005	-110.454	-0.266	-0.054
-106.991	-153.316	-0.356	-0.024
-105.976	216.170	-0.089	0.139
-104.962	188.967	0.070	0.102
-103.947	800.000	0.031	-0.114
-102.932	6.779	0.148	-0.108
-101.918	-176.959	-0.258	0.006
-100.903	-38.971	-0.243	0.125
-99.889	-200.000	-0.002	-0.406
-98.874	-113.307	-0.368	0.071
-97.859	-200.000	0.006	-0.141
-96.845	53.449	-0.067	0.063
-95.830	111.184	-0.188	0.222
-94.816	-155.641	-0.235	-0.015
-93.801	-200.000	-0.021	0.110
-92.786	310.088	0.051	0.094
-91.772	790.175	-0.036	0.098
-90.757	-44.666	-0.130	-0.063
-89.743	75.360	0.064	-0.066
-88.728	-59.574	0.416	0.175
-87.713	608.075	-0.215	-0.524
-86.699	101.078	-0.220	-0.251
-85.684	345.134	-0.076	-0.146
-84.670	317.067	0.086	0.159
-83.655	73.492	-0.049	-0.050
-82.640	-168.426	0.204	-0.008
-81.626	39.721	-0.072	0.063
-80.611	-43.348	-0.157	0.078
-79.597	38.222	0.234	0.203
-78.582	-34.712	-0.220	-0.117
-77.567	-97.276	-0.152	-0.039
-76.553	-74.994	-0.079	0.028
-75.538	-37.538	-0.106	0.055
-74.524	-200.000	0.016	-0.095
-73.509	143.033	0.050	0.065
-72.494	800.000	0.022	-0.063
-71.480	800.000	-0.098	0.279
-70.465	-28.815	0.121	0.068
-69.451	-200.000	-0.020	0.175
-68.436	-49.889	-0.071	0.033
-67.422	-118.633	-0.054	-0.009
-66.407	295.034	0.050	0.089
-65.392	-150.510	-0.107	-0.008
-64.378	-87.669	-0.110	0.032
-63.363	-0.436	0.146	-0.102
-62.349	-109.081	0.132	-0.027
-61.334	64.384	-1.174	-1.156
-60.319	163.007	0.704	0.967
-59.305	529.322	-0.282	-0.650
-58.290	418.686	0.805	1.684
-57.276	617.814	0.609	1.494
-56.261	-200.000	113.668	650.488
-55.246	491.889	1479.139	3311.663
-54.232	153.502	2636.334	3528.616
-53.217	102.427	2132.644	2436.775
-52.203	39.039	1588.161	1387.614
-51.188	31.335	1335.332	1120.672
-50.173	28.569	1297.072	1072.381
-49.159	53.360	1354.469	1268.728
-48.144	52.360	1368.250	1275.615
-47.130	31.431	1323.475	1111.116
-46.115	28.202	1305.328	1076.873
-45.100	27.865	1301.370	1071.589
-44.086	27.773	1298.673	1068.788
-43.071	27.896	1295.812	1067.113
-42.057	27.847	1293.883	1065.194
-41.042	27.760	1292.667	1063.645
-40.027	27.771	1291.309	1062.549
-39.013	27.861	1288.758	1060.927
-37.998	27.893	1286.940	1059.578
-36.984	27.979	1285.466	1058.820
-35.969	27.980	1283.732	1057.353
-34.954	28.007	1281.989	1056.031
-33.940	27.935	1280.789	1054.587
-32.925	28.139	1278.901	1054.166
-31.911	28.015	1277.906	1052.592
-30.896	28.137	1276.090	1051.754
-29.881	28.036	1275.592	1050.721
-28.867	28.110	1273.402	1049.301
-27.852	28.112	1272.345	1048.398
-26.838	28.085	1270.678	1046.828
-25.823	28.026	1269.886	1045.797
-24.809	28.082	1268.644	1045.055
-23.794	28.168	1266.931	1044.093
-22.779	28.071	1265.726	1042.506
-21.765	28.161	1264.431	1041.907
-20.750	28.075	1263.001	1040.200
-19.736	28.085	1261.916	1039.324
-18.721	28.002	1260.853	1037.936
-17.706	27.995	1259.725	1036.925
-16.692	28.091	1258.001	1036.009
-15.677	27.854	1257.837	1034.491
-14.663	27.999	1256.230	1033.945
-13.648	27.957	1255.360	1032.950
-12.633	27.924	1254.321	1031.869
-11.619	27.880	1253.603	1030.990
-10.604	28.040	1252.241	1030.732
-9.590	27.917	1251.923	1029.737
-8.575	27.795	1250.945	1028.204
-7.560	27.986	1249.614	1028.140
-6.546	27.905	1248.848	1027.014
-5.531	27.934	1247.856	1026.324
-4.517	27.989	1247.375	1026.195
-3.502	27.858	1246.727	1024.885
-2.487	27.904	1245.444	1024.050
-1.473	27.809	1241.133	1019.933
-0.458	25.591	1224.582	994.050
0.556	20.249	1207.096	949.235
1.571	15.655	1212.335	927.964
2.586	14.638	1226.743	933.228
3.600	14.229	1215.332	922.197
4.615	10.830	1145.266	851.181
5.629	4.298	1074.519	766.347
6.644	1.140	1056.504	738.075
7.659	0.830	1054.545	735.134
8.673	0.828	1053.593	734.394
9.688	0.903	1052.440	733.892
10.702	1.142	1050.163	733.396
11.717	4.913	1054.560	754.692
12.731	11.950	1063.834	795.543
13.746	16.639	1069.175	822.298
14.761	17.526	1070.826	827.811
15.775	16.860	1068.576	822.763
16.790	15.940	1066.540	816.665
17.804	15.226	1065.062	812.004
18.819	14.847	1063.820	809.150
19.834	14.566	1062.766	806.917
20.848	14.327	1062.307	805.345
21.863	13.979	1061.467	802.952
22.877	14.030	1060.415	802.331
23.892	13.847	1059.896	800.985
24.907	13.940	1059.110	800.770
25.921	13.979	1058.134	800.150
26.936	13.992	1057.519	799.677
27.950	14.112	1056.533	799.438
28.965	14.023	1055.489	798.149
29.980	14.052	1054.289	797.311
30.994	14.124	1052.986	796.599
32.009	14.141	1052.036	795.890
33.023	14.235	1050.829	795.356
34.038	14.158	1049.887	794.208
35.053	14.093	1049.381	793.440
36.067	14.064	1048.258	792.384
37.082	14.134	1047.405	792.003
38.096	14.201	1046.424	791.509
39.111	14.079	1045.936	790.489
40.126	14.094	1044.825	789.653
41.140	13.985	1043.480	788.047
42.155	13.954	1042.303	786.946
43.169	13.968	1041.413	786.268
44.184	13.843	1040.207	784.696
45.199	13.979	1039.167	784.485
46.213	13.910	1038.351	783.477
47.228	13.958	1037.397	782.913
48.242	14.090	1035.843	782.289
49.257	14.141	1034.744	781.632
50.271	14.017	1034.055	780.459
51.286	14.079	1033.453	780.227
52.301	14.001	1032.403	778.999
53.315	13.962	1031.620	778.156
54.330	14.029	1030.316	777.419
55.344	13.987	1029.362	776.432
56.359	14.058	1028.377	775.951
57.374	13.947	1027.620	774.797
58.388	13.983	1026.678	774.186
59.403	13.905	1026.454	773.585
60.417	14.055	1024.951	773.082
61.432	13.925	1025.005	772.448
62.447	13.937	1023.871	771.579
63.461	13.937	1022.750	770.670
64.476	13.941	1021.876	769.957
65.490	13.982	1021.372	769.701
66.505	13.891	1020.802	768.781
67.520	13.839	1020.435	768.198
68.534	13.864	1019.438	767.496
69.549	13.944	1018.307	766.947
70.563	13.924	1017.801	766.403
71.578	13.898	1017.074	765.667
72.593	13.812	1016.286	764.611
73.607	13.954	1015.676	764.739
74.622	13.924	1015.032	764.048
75.636	13.870	1014.560	763.376
76.651	13.875	1013.425	762.477
77.666	13.848	1012.933	761.918
78.680	13.828	1012.587	761.496
79.695	13.793	1012.151	760.941
80.709	13.995	1011.275	761.141
81.724	13.949	1010.627	760.376
82.739	13.991	1010.079	760.089
83.753	14.000	1009.222	759.415
84.768	14.108	1007.996	758.919
85.782	14.148	1006.950	758.247
86.797	14.147	1005.756	757.276
87.812	14.163	1005.215	756.874
88.826	14.052	1004.207	755.543
89.841	14.178	1003.575	755.576
90.855	14.209	1002.145	754.572
91.870	14.154	1001.824	754.013
92.884	14.135	1001.335	753.493
93.899	14.141	1000.234	752.624
94.914	14.182	999.629	752.290
95.928	14.149	998.754	751.414
96.943	14.335	997.665	751.370
97.957	14.193	997.320	750.402
98.972	14.149	996.180	749.279
99.987	14.075	995.475	748.348
101.001	14.123	994.386	747.682
102.016	14.130	993.443	746.939
103.030	14.077	993.112	746.383
104.045	14.165	991.725	745.671
105.060	14.186	991.587	745.593
106.074	14.103	990.346	744.226
107.089	14.051	989.376	743.195
108.103	14.109	988.398	742.656
109.118	13.988	987.910	741.681
110.133	14.017	986.646	740.797
111.147	14.081	986.029	740.555
112.162	14.047	985.224	739.732
113.176	14.073	984.509	739.247
114.191	14.144	983.794	738.959
115.206	14.152	983.334	738.581
116.220	14.067	982.419	737.452
117.235	14.048	981.195	736.386
118.249	14.225	980.029	736.230
119.264	14.100	979.719	735.378
120.279	14.047	978.955	734.506
121.293	14.087	977.980	733.887
122.308	14.045	977.307	733.130
123.322	14.046	976.190	732.232
124.337	14.048	975.234	731.457
125.352	14.114	973.912	730.694
126.366	14.039	973.274	729.821
127.381	14.208	971.757	729.358
128.395	14.149	971.153	728.580
129.410	14.152	970.682	728.178
130.424	14.155	969.430	727.186
131.439	14.168	968.676	726.615
132.454	14.133	968.106	725.970
133.468	14.175	967.131	725.356
134.483	14.136	966.262	724.470
135.497	14.304	965.191	724.335
136.512	14.184	964.348	723.119
137.527	14.184	963.730	722.590
138.541	14.159	963.099	721.943
139.556	14.172	962.185	721.251
140.570	14.162	961.401	720.557
141.585	14.207	960.837	720.262
142.600	14.258	959.791	719.638
143.614	14.374	958.588	719.171
144.629	14.281	958.233	718.440
145.643	14.440	957.123	718.231
146.658	14.223	956.193	716.535
147.673	14.312	955.199	716.110
148.687	14.283	954.912	715.706
149.702	14.187	954.054	714.587
150.716	14.307	952.913	714.184
151.731	14.310	952.683	713.962
152.746	14.306	951.625	713.089
153.760	14.329	950.970	712.632
154.775	14.323	950.782	712.405
155.789	14.290	949.468	711.214
156.804	14.419	948.747	711.162
157.819	14.457	948.174	710.834
158.833	14.419	947.817	710.341
159.848	14.496	946.416	709.554
160.862	14.504	945.855	709.103
161.877	14.516	944.558	708.121
162.892	14.448	943.872	707.254
163.906	14.476	942.844	706.542
164.921	14.413	942.565	706.002
165.935	14.367	941.593	705.016
166.950	14.427	940.486	704.381
167.964	14.438	939.903	703.927
168.979	14.463	939.128	703.389
169.994	14.528	938.104	702.837
171.008	14.407	937.730	701.984
172.023	14.540	936.731	701.734
173.037	14.568	935.938	701.192
174.052	14.511	935.407	700.496
175.067	14.499	934.513	699.714
176.081	14.513	934.235	699.501
177.096	14.601	933.518	699.273
178.110	14.545	933.010	698.593
179.125	14.631	932.058	698.179
180.140	14.607	931.639	697.702
181.154	14.671	931.293	697.649
182.169	14.633	931.005	697.216
183.183	14.691	929.985	696.631
184.198	14.667	929.475	696.089
185.213	14.775	928.640	695.851
186.227	14.732	928.035	695.154
187.242	14.681	927.763	694.678
188.256	14.764	926.635	694.116
189.271	14.711	926.257	693.553
190.286	14.576	925.063	692.036
191.300	14.553	924.984	691.820
192.315	14.540	923.903	690.897
193.329	14.673	923.283	690.923
194.344	14.711	922.713	690.593
195.359	14.620	922.382	689.910
196.373	14.859	921.393	690.096
197.388	14.756	920.962	689.284
198.402	14.948	920.083	689.359
199.417	14.825	920.043	688.760
200.432	14.860	919.367	688.339
201.446	15.005	918.796	688.444
202.461	15.071	918.185	688.196
203.475	15.016	917.593	687.469
204.490	15.073	916.525	686.840
205.504	14.850	916.076	685.526
206.519	14.876	915.488	685.134
207.534	14.926	914.903	684.841
208.548	14.880	914.170	684.044
209.563	15.007	913.432	683.949
210.577	15.039	912.614	683.408
211.592	15.118	911.953	683.176
212.607	14.994	911.692	682.411
213.621	15.130	910.607	682.094
214.636	15.008	910.044	681.114
215.650	15.275	908.964	681.330
216.665	15.306	908.427	680.994
217.680	15.226	907.689	680.058
218.694	15.211	906.906	679.348
219.709	15.151	906.519	678.755
220.723	15.184	905.836	678.318
221.738	15.100	905.594	677.737
222.753	15.191	904.445	677.183
223.767	15.333	903.708	677.146
224.782	15.360	903.074	676.722
225.796	15.405	902.775	676.619
226.811	15.345	902.107	675.817
227.826	15.378	900.844	674.941
228.840	15.299	900.655	674.425
229.855	15.181	899.659	673.144
230.869	15.325	899.250	673.357
231.884	15.448	898.499	673.229
232.899	15.299	897.815	672.057
233.913	15.400	896.901	671.720
234.928	15.301	896.548	670.999
235.942	15.342	896.224	670.860
236.957	15.341	895.324	670.127
237.972	15.369	894.585	669.623
238.986	15.394	894.195	669.372
240.001	15.292	894.089	668.827
241.015	15.275	892.888	667.803
242.030	15.433	892.370	667.986
243.045	15.487	891.677	667.620
244.059	15.404	891.172	666.854
245.074	15.534	890.476	666.792
246.088	15.511	889.563	665.955
247.103	15.498	889.131	665.524
248.117	15.587	888.912	665.655
249.132	15.561	888.134	664.908
250.147	15.780	887.089	664.934
251.161	15.734	886.484	664.238
252.176	15.709	886.176	663.851
253.190	15.643	885.445	662.982
254.205	15.912	884.376	663.184
255.220	15.753	884.142	662.324
256.234	15.770	883.443	661.810
257.249	15.793	882.906	661.440
258.263	15.868	881.996	660.991
259.278	15.818	881.366	660.265
260.293	15.962	880.737	660.302
261.307	15.876	880.270	659.556
262.322	15.978	879.649	659.430
263.336	15.928	879.099	658.765
264.351	16.078	878.192	658.612
265.366	15.991	877.428	657.642
266.380	16.076	876.846	657.479
267.395	16.113	876.318	657.169
268.409	16.055	875.477	656.255
269.424	16.012	874.666	655.422
270.439	16.160	873.916	655.377
271.453	16.013	873.680	654.572
272.468	16.121	872.953	654.387
273.482	16.082	872.659	653.957
274.497	16.112	871.731	653.319
275.512	16.231	871.381	653.461
276.526	16.033	871.186	652.491
277.541	16.079	870.505	652.101
278.555	16.295	869.420	652.064
279.570	16.308	869.023	651.760
280.585	16.111	868.694	650.694
281.599	16.150	867.539	649.921
282.614	16.237	866.680	649.555
283.628	16.210	866.663	649.381
284.643	16.378	865.871	649.378
285.657	16.085	865.677	648.048
286.672	16.276	864.264	647.668
287.687	16.334	864.138	647.735
288.701	16.380	863.404	647.305
289.716	16.175	862.989	646.152
290.730	16.324	862.414	646.233
291.745	16.388	861.330	645.610
292.760	16.334	861.211	645.258
293.774	16.511	860.370	645.246
294.789	16.468	859.787	644.585
295.803	16.454	858.648	643.624
296.818	16.402	858.433	643.206
297.833	16.370	857.740	642.510
298.847	16.523	857.162	642.600
299.862	16.422	856.606	641.744
300.876	16.490	856.142	641.598
301.891	16.589	855.342	641.314
302.906	16.548	854.754	640.665
303.920	16.702	854.196	640.771
304.935	16.607	853.913	640.143
305.949	16.699	852.804	639.601
306.964	16.569	852.273	638.657
307.979	16.659	852.231	638.909
308.993	16.656	851.380	638.202
310.008	16.733	850.414	637.711
311.022	16.632	850.243	637.147
312.037	16.718	849.416	636.796
313.052	16.724	848.936	636.401
314.066	16.754	848.440	636.085
315.081	16.573	848.201	635.170
316.095	16.722	847.282	634.984
317.110	16.725	846.511	634.361
318.125	16.663	846.339	633.943
319.139	16.736	845.623	633.627
320.154	16.718	845.152	633.150
321.168	16.743	844.770	632.902
322.183	16.937	843.920	632.933
323.197	16.773	844.215	632.483
324.212	16.835	843.192	631.895
325.227	16.793	842.667	631.289
326.241	16.826	841.835	630.730
327.256	16.805	841.536	630.372
328.270	16.999	840.471	630.240
329.285	16.858	839.989	629.299
330.300	16.863	839.713	629.055
331.314	16.775	839.179	628.273
332.329	16.806	838.795	628.044
333.343	16.842	838.271	627.732
334.358	16.866	838.009	627.568
335.373	17.111	837.429	627.985
336.387	17.065	836.969	627.415
337.402	17.120	836.561	627.254
338.416	17.051	836.622	626.990
339.431	17.147	835.907	626.753
340.446	17.203	835.496	626.596
341.460	17.204	834.766	625.996
342.475	17.199	834.495	625.721
343.489	17.180	834.258	625.416
344.504	17.315	833.673	625.420
345.519	17.347	832.952	624.943
346.533	17.172	832.963	624.253
347.548	17.166	832.508	623.833
348.562	17.284	831.284	623.295
349.577	17.221	831.358	623.064
350.592	17.169	830.500	622.175
351.606	17.181	830.096	621.861
352.621	17.189	829.236	621.192
353.635	17.244	828.708	620.939
354.650	17.185	828.057	620.182
355.665	17.239	827.364	619.807
356.679	17.265	826.352	619.087
357.694	17.462	825.901	619.414
358.708	17.392	825.473	618.780
359.723	17.300	825.107	618.118
360.738	17.297	824.282	617.433
361.752	17.428	823.939	617.597
362.767	17.335	823.381	616.787
363.781	17.282	823.192	616.400
364.796	17.412	822.624	616.392
365.810	17.363	822.057	615.736
366.825	17.554	821.366	615.854
367.840	17.492	821.170	615.427
368.854	17.567	820.357	615.034
369.869	17.600	820.078	614.891
370.883	17.499	819.722	614.204
371.898	17.653	819.272	614.368
372.913	17.589	818.858	613.771
373.927	17.655	818.287	613.527
374.942	17.750	817.828	613.471
375.956	17.772	817.475	613.229
376.971	17.780	817.160	612.970
377.986	17.879	816.469	612.754
379.000	17.788	816.176	612.150
380.015	18.009	815.473	612.361
381.029	17.891	814.697	611.301
382.044	17.786	814.427	610.670
383.059	17.805	813.633	610.088
384.073	17.950	813.098	610.153
385.088	17.817	812.990	609.543
386.102	17.880	812.381	609.256
387.117	17.906	811.805	608.863
388.132	17.898	811.025	608.194
389.146	17.934	810.579	607.937
390.161	17.865	810.303	607.430
391.175	17.979	809.827	607.424
392.190	17.915	809.287	606.737
393.205	17.948	808.475	606.192
394.219	17.962	808.328	606.079
395.234	17.820	808.256	605.467
396.248	17.872	807.784	605.245
397.263	17.882	807.334	604.887
398.278	17.992	806.765	604.797
399.292	17.960	806.578	604.493
400.307	17.999	805.572	603.823
401.321	17.989	805.416	603.617
402.336	18.055	804.901	603.409
403.350	17.963	804.615	602.818
404.365	18.051	804.177	602.746
405.380	18.077	803.505	602.279
406.394	18.091	803.153	602.014
407.409	18.277	802.431	602.071
408.423	18.243	802.115	601.661
409.438	18.239	801.719	601.299
410.453	18.319	801.317	601.225
411.467	18.235	801.108	600.721
412.482	18.333	800.519	600.569
413.496	18.256	800.328	600.102
414.511	18.365	799.690	599.954
415.526	18.258	799.723	599.548
416.540	18.310	799.115	599.224
417.555	18.322	798.642	598.858
418.569	18.359	797.936	598.405
419.584	18.442	797.276	598.146
420.599	18.551	797.022	598.282
421.613	114.460	1295.509	1481.296
422.628	98.668	1368.123	1481.404
