DTS Sentinel unit serial number:	SN413079Multiplexer serial number:	ORYXHardware model number:	OX4-SRSoftware version number:	ORYX F/W v4.00 Oryx Data Collector v3.7.2.0data status	okinstallation	princeton_trtdifferential loss correction	single-endedforward channel	channel 1reverse channel	N/Adate	2019/09/16time	13:26:35forward acquisition time	60.00reverse acquisition time	0.00gamma	496.2192k internal	0.2294k external	0.2294temperature offset calibration	0.9951default loss term (dB/km)	0.3790temperature slope calibration	1.0000multiplexer offset coefficient	1.0000multiplexer slope coefficient	1.0000fibre end	0.00T internal ref (°C)	41.59T ext. ref 1 (°C)	13.79T ext. ref 2 (°C)	39.40length (m)	temperature (°C)	Stokes	anti-Stokes-747.200	273.800	0.201	0.363
-746.185	-115.347	0.052	-0.010
-745.171	-45.078	-0.116	-0.059
-744.156	75.781	0.167	0.180
-743.142	427.059	0.205	0.451
-742.127	-134.877	-0.256	0.032
-741.112	-85.157	-0.222	0.071
-740.098	-200.000	0.008	0.471
-739.083	141.404	-0.070	-0.094
-738.069	-127.483	-0.232	0.035
-737.054	-30.636	-0.238	0.138
-736.039	495.176	-0.167	-0.392
-735.025	800.000	0.102	0.359
-734.010	-110.031	-0.389	-0.083
-732.996	-113.176	0.302	-0.061
-731.981	-28.007	-0.241	0.142
-730.966	-200.000	0.002	0.090
-729.952	42.739	-0.025	0.023
-728.937	-50.112	-0.226	0.109
-727.923	-56.445	-0.218	0.099
-726.908	-101.976	-0.253	-0.062
-725.894	-171.410	-0.242	0.008
-724.879	800.000	0.075	-0.223
-723.864	19.265	-0.228	-0.187
-722.850	-189.331	-0.183	-0.002
-721.835	-200.000	0.006	-0.045
-720.821	-109.499	0.308	-0.067
-719.806	157.562	0.171	-0.242
-718.791	125.970	-0.163	-0.210
-717.777	-173.840	0.169	0.005
-716.762	800.000	-0.086	-0.291
-715.748	-37.209	0.339	-0.185
-714.733	478.506	0.106	-0.245
-713.718	657.529	0.096	-0.251
-712.704	-38.840	0.110	-0.059
-711.689	-174.772	-0.059	0.002
-710.675	-103.209	-0.111	-0.027
-709.660	-200.000	-0.044	-0.447
-708.645	3.127	-0.252	-0.187
-707.631	-114.840	-0.408	-0.079
-706.616	108.146	-0.109	0.133
-705.602	13.459	0.352	0.279
-704.587	350.151	0.086	0.173
-703.572	223.129	-0.148	-0.244
-702.558	-40.544	0.111	0.059
-701.543	-200.000	0.092	-0.515
-700.529	731.478	-0.115	0.315
-699.514	800.000	-0.108	-0.470
-698.499	800.000	-0.043	-0.140
-697.485	-118.634	0.175	0.032
-696.470	-0.672	-0.271	0.196
-695.456	-200.000	-0.056	0.251
-694.441	-58.525	-0.070	-0.031
-693.426	-200.000	0.049	-0.223
-692.412	-200.000	-0.111	-0.542
-691.397	-150.100	0.348	-0.028
-690.383	-200.000	-0.014	-0.078
-689.368	-200.000	0.018	-0.084
-688.354	794.105	0.014	0.040
-687.339	195.541	0.138	-0.214
-686.324	360.476	-0.070	0.142
-685.310	800.000	-0.068	0.237
-684.295	-85.185	0.143	0.045
-683.281	-73.653	-0.172	0.064
-682.266	123.700	0.165	-0.211
-681.251	800.000	0.046	0.159
-680.237	-157.414	0.198	-0.012
-679.222	381.420	-0.142	-0.298
-678.208	-200.000	-0.001	-0.106
-677.193	-200.000	0.015	0.367
-676.178	-28.850	-0.334	-0.196
-675.164	-200.000	0.024	-0.280
-674.149	149.606	-0.236	-0.326
-673.135	800.000	0.043	-0.134
-672.120	701.414	-0.061	-0.164
-671.105	-55.072	0.385	0.177
-670.091	-147.730	0.264	-0.023
-669.076	-39.435	0.179	-0.096
-668.062	-200.000	0.009	-0.246
-667.047	-92.899	-0.110	0.031
-666.032	-200.000	0.010	-0.137
-665.018	800.000	0.044	-0.136
-664.003	-172.004	0.392	0.013
-662.989	141.654	-0.234	-0.316
-661.974	769.633	0.102	-0.284
-660.959	-200.000	-0.043	-0.317
-659.945	-126.119	-0.137	0.021
-658.930	-200.000	0.050	0.291
-657.916	-148.428	0.193	-0.016
-656.901	-133.567	-0.110	0.014
-655.886	101.335	0.039	0.047
-654.872	34.431	0.191	0.170
-653.857	-200.000	0.013	0.153
-652.843	652.184	0.010	-0.026
-651.828	8.787	0.240	-0.184
-650.814	61.446	-0.129	-0.130
-649.799	-96.416	0.165	-0.045
-648.784	-200.000	-0.056	0.297
-647.770	-43.795	-0.151	0.078
-646.755	-200.000	0.024	-0.241
-645.741	66.406	0.060	0.063
-644.726	-91.348	-0.305	-0.089
-643.711	-200.000	0.019	0.166
-642.697	21.085	0.129	0.107
-641.682	-141.632	0.127	-0.013
-640.668	-35.851	0.039	0.022
-639.653	-53.254	-0.114	-0.053
-638.638	-129.405	0.156	-0.022
-637.624	-200.000	0.017	-0.208
-636.609	-130.430	-0.202	-0.028
-635.595	-189.412	0.646	-0.008
-634.580	-200.000	0.094	0.555
-633.565	800.000	-0.076	0.292
-632.551	714.538	-0.052	0.140
-631.536	-22.532	-0.093	0.057
-630.522	800.000	0.116	0.340
-629.507	39.474	-0.176	-0.161
-628.492	290.061	0.047	-0.087
-627.478	-80.865	0.106	-0.036
-626.463	-200.000	0.035	0.359
-625.449	277.396	0.051	-0.092
-624.434	-69.474	-0.087	0.034
-623.419	-53.222	-0.105	-0.049
-622.405	-151.735	0.082	-0.006
-621.390	-148.789	0.297	-0.024
-620.376	-100.083	0.232	0.059
-619.361	-21.793	0.107	-0.066
-618.346	-36.784	0.156	-0.085
-617.332	-135.266	-0.191	0.023
-616.317	-200.000	0.030	-0.174
-615.303	63.121	0.203	0.207
-614.288	-200.000	0.038	-0.171
-613.273	58.226	0.142	0.142
-612.259	75.931	0.170	-0.183
-611.244	-200.000	-0.007	0.211
-610.230	501.455	0.080	-0.187
-609.215	-96.837	-0.052	-0.014
-608.201	-116.271	0.150	-0.028
-607.186	57.144	-0.221	0.220
-606.171	-3.156	-0.097	-0.069
-605.157	120.471	-0.125	0.158
-604.142	-200.000	-0.023	0.347
-603.128	-94.992	0.256	0.070
-602.113	-165.739	-0.232	0.010
-601.098	-102.046	-0.243	-0.060
-600.084	404.559	0.053	0.114
-599.069	-17.415	0.090	-0.058
-598.055	-200.000	-0.065	0.317
-597.040	607.008	-0.043	-0.109
-596.025	-200.000	0.024	0.502
-595.011	-132.744	-0.062	0.008
-593.996	-35.835	0.049	-0.027
-592.982	-200.000	-0.030	0.201
-591.967	-28.299	-0.190	-0.112
-590.952	-27.978	0.038	-0.023
-589.938	112.970	0.057	-0.071
-588.923	-200.000	0.015	0.266
-587.909	-94.836	-0.130	-0.036
-586.894	169.788	-0.115	-0.167
-585.879	-200.000	0.010	0.089
-584.865	254.806	0.063	0.109
-583.850	800.000	-0.045	-0.178
-582.836	-200.000	0.001	0.301
-581.821	-101.663	-0.225	-0.055
-580.806	-200.000	-0.017	0.158
-579.792	-58.590	0.134	-0.059
-578.777	-87.368	-0.180	0.056
-577.763	800.000	-0.025	0.073
-576.748	-8.185	-0.108	-0.074
-575.733	-191.622	-0.199	-0.002
-574.719	-138.388	-0.073	-0.008
-573.704	-127.231	0.232	-0.034
-572.690	-131.369	-0.310	-0.042
-571.675	-172.990	-0.239	-0.008
-570.661	197.217	-0.083	0.128
-569.646	56.932	-0.153	0.152
-568.631	-29.066	-0.189	-0.110
-567.617	191.176	0.080	-0.123
-566.602	24.886	-0.111	0.093
-565.588	-86.930	-0.256	0.079
-564.573	-200.000	0.031	-0.296
-563.558	-200.000	0.009	0.406
-562.544	-200.000	-0.000	0.184
-561.529	-200.000	-0.028	0.206
-560.515	-125.179	-0.245	-0.038
-559.500	378.258	0.060	0.124
-558.485	-4.644	0.426	-0.299
-557.471	-63.039	-0.180	0.076
-556.456	-64.944	-0.095	-0.039
-555.442	163.890	0.197	-0.281
-554.427	-200.000	-0.035	-0.285
-553.412	-66.249	-0.181	0.073
-552.398	-85.614	-0.351	-0.111
-551.383	-139.739	0.089	0.010
-550.369	-140.832	0.086	0.009
-549.354	278.284	-0.286	-0.517
-548.339	381.881	0.025	0.053
-547.325	800.000	-0.028	-0.081
-546.310	-33.604	0.115	0.065
-545.296	800.000	0.083	0.317
-544.281	-34.611	-0.291	0.161
-543.266	-89.109	-0.131	-0.039
-542.252	-200.000	0.000	0.145
-541.237	-200.000	-0.061	0.279
-540.223	193.050	-0.059	-0.090
-539.208	64.184	0.033	-0.034
-538.193	-3.879	0.263	0.185
-537.179	-152.834	-0.125	-0.009
-536.164	-200.000	0.049	-0.307
-535.150	800.000	-0.010	-0.031
-534.135	-124.036	0.233	-0.037
-533.121	-12.382	0.038	-0.025
-532.106	-200.000	0.117	0.579
-531.091	61.986	-0.087	0.088
-530.077	-125.259	0.154	-0.024
-529.062	800.000	0.084	0.235
-528.048	-200.000	0.001	-0.218
-527.033	-21.205	0.217	0.134
-526.018	298.009	0.093	0.174
-525.004	-56.937	-0.124	0.055
-523.989	302.050	0.013	0.024
-522.975	270.703	-0.106	0.188
-521.960	152.984	-0.014	-0.020
-520.945	-63.992	-0.260	0.108
-519.931	-28.085	-0.216	-0.126
-518.916	14.294	0.192	0.152
-517.902	340.261	-0.079	0.157
-516.887	800.000	0.111	0.347
-515.872	-115.917	-0.225	0.043
-514.858	120.185	-0.147	0.185
-513.843	235.421	0.092	0.154
-512.829	-37.611	-0.355	0.192
-511.814	368.500	-0.060	-0.122
-510.799	800.000	0.069	0.194
-509.785	-166.096	0.210	-0.009
-508.770	268.647	0.067	0.119
-507.756	-161.092	0.221	-0.012
-506.741	-8.768	-0.133	-0.090
-505.726	-3.569	0.147	-0.104
-504.712	-127.935	0.226	0.033
-503.697	-20.239	-0.262	-0.163
-502.683	123.916	-0.041	-0.052
-501.668	22.461	-0.210	-0.174
-500.653	188.074	0.069	0.104
-499.639	-17.339	0.152	0.097
-498.624	150.418	0.138	0.190
-497.610	-200.000	0.034	0.359
-496.595	605.100	-0.096	-0.241
-495.581	48.027	0.280	0.265
-494.566	-171.931	-0.164	0.005
-493.551	-72.137	0.181	0.068
-492.537	147.260	-0.257	-0.350
-491.522	800.000	-0.048	0.202
-490.508	53.530	0.151	-0.147
-489.493	-71.788	-0.276	-0.104
-488.478	-200.000	0.008	0.096
-487.464	-200.000	-0.029	-0.145
-486.449	14.436	-0.015	-0.012
-485.435	597.344	-0.073	0.184
-484.420	-30.373	-0.382	-0.219
-483.405	174.029	-0.019	-0.028
-482.391	-56.619	0.262	0.117
-481.376	433.471	0.120	0.264
-480.362	417.531	0.131	-0.283
-479.347	-144.238	-0.450	0.043
-478.332	-108.434	0.109	-0.024
-477.318	-69.502	-0.090	-0.035
-476.303	-162.666	0.118	-0.006
-475.289	123.440	-0.319	-0.405
-474.274	42.280	0.104	-0.095
-473.259	358.822	-0.148	-0.300
-472.245	5.784	-0.119	-0.089
-471.230	800.000	0.021	-0.076
-470.216	-129.759	0.135	-0.019
-469.201	-67.412	0.278	0.111
-468.186	132.870	-0.087	0.113
-467.172	-95.245	-0.119	-0.032
-466.157	-41.645	-0.128	-0.067
-465.143	81.505	-0.088	-0.097
-464.128	148.231	0.152	0.207
-463.113	-14.750	-0.152	-0.099
-462.099	259.785	-0.149	0.261
-461.084	245.932	0.076	-0.130
-460.070	185.424	-0.169	-0.254
-459.055	800.000	0.065	-0.265
-458.040	-104.180	-0.228	0.054
-457.026	155.004	-0.237	-0.330
-456.011	142.921	-0.221	0.298
-454.997	80.807	-0.100	-0.109
-453.982	5.227	0.286	-0.213
-452.968	-20.564	-0.118	0.073
-451.953	-108.985	-0.180	-0.039
-450.938	195.700	0.102	-0.156
-449.924	-200.000	0.003	-0.091
-448.909	91.891	-0.138	0.157
-447.895	495.525	0.106	0.246
-446.880	220.629	-0.011	0.017
-445.865	-126.249	-0.188	0.028
-444.851	800.000	-0.044	-0.188
-443.836	40.035	-0.138	-0.126
-442.822	-77.507	0.336	-0.118
-441.807	525.058	-0.029	0.069
-440.792	716.417	0.073	-0.195
-439.778	-158.887	-0.202	0.012
-438.763	-54.296	0.083	-0.038
-437.749	-172.349	-0.274	0.009
-436.734	422.927	0.121	0.262
-435.719	119.631	0.093	0.117
-434.705	-69.400	-0.067	0.026
-433.690	800.000	0.159	-0.470
-432.676	352.105	0.090	-0.180
-431.661	-137.470	0.215	0.025
-430.646	-200.000	0.068	0.306
-429.632	-29.560	0.154	-0.089
-428.617	-162.830	-0.088	0.004
-427.603	-200.000	0.022	0.147
-426.588	77.929	0.087	-0.094
-425.573	39.026	0.112	-0.101
-424.559	205.906	0.085	-0.134
-423.544	92.844	-0.044	0.050
-422.530	-80.423	0.140	-0.047
-421.515	22.657	0.142	0.117
-420.500	20.481	0.082	0.067
-419.486	-200.000	-0.069	-0.326
-418.471	-56.407	0.434	-0.194
-417.457	-21.975	-0.084	-0.052
-416.442	-113.111	0.274	0.055
-415.428	-6.247	0.143	0.098
-414.413	5.032	0.148	-0.110
-413.398	-114.960	-0.145	0.028
-412.384	52.594	-0.162	-0.157
-411.369	559.342	-0.042	-0.102
-410.355	-30.219	-0.145	0.083
-409.340	-200.000	-0.027	-0.298
-408.325	-200.000	0.015	-0.204
-407.311	-23.273	0.334	-0.203
-406.296	-86.661	-0.120	-0.037
-405.282	12.946	-0.062	-0.048
-404.267	-200.000	-0.012	0.174
-403.252	59.930	-0.074	0.074
-402.238	800.000	0.114	0.362
-401.223	-200.000	-0.015	0.153
-400.209	696.401	-0.085	-0.226
-399.194	-200.000	-0.113	-0.640
-398.179	24.182	-0.196	-0.163
-397.165	41.803	0.044	-0.040
-396.150	602.789	0.124	-0.312
-395.136	-159.516	0.136	-0.008
-394.121	195.989	0.025	-0.039
-393.106	364.525	-0.161	0.328
-392.092	142.291	-0.120	0.160
-391.077	273.602	0.046	0.082
-390.063	-169.224	-0.405	-0.015
-389.048	-102.881	0.420	0.101
-388.033	-85.729	0.265	0.083
-387.019	2.202	-0.184	-0.134
-386.004	-200.000	0.029	0.203
-384.990	800.000	-0.109	-0.388
-383.975	-3.899	0.367	0.257
-382.960	70.029	0.010	0.010
-381.946	800.000	0.031	-0.106
-380.931	-114.827	0.125	0.024
-379.917	-77.867	-0.389	-0.135
-378.902	-200.000	-0.038	-0.275
-377.888	-132.588	-0.058	0.007
-376.873	764.321	0.025	0.068
-375.858	-133.336	0.366	0.047
-374.844	49.315	-0.224	0.212
-373.829	27.587	0.122	0.103
-372.815	490.065	-0.012	0.027
-371.800	-22.896	-0.142	0.086
-370.785	296.437	-0.053	0.099
-369.771	101.875	0.024	0.028
-368.756	-200.000	-0.039	0.208
-367.742	567.839	-0.032	0.079
-366.727	147.816	0.064	-0.087
-365.712	-136.615	0.362	-0.042
-364.698	49.588	0.340	-0.322
-363.683	-200.000	-0.017	-0.294
-362.669	-60.120	0.264	0.114
-361.654	-68.050	-0.233	0.092
-360.639	625.367	0.027	-0.069
-359.625	25.639	-0.204	0.171
-358.610	-11.500	0.213	0.141
-357.596	221.399	0.100	0.161
-356.581	800.000	0.097	0.400
-355.566	-135.540	-0.200	0.024
-354.552	-200.000	-0.014	-0.148
-353.537	50.168	-0.081	0.077
-352.523	93.603	-0.235	0.268
-351.508	800.000	-0.093	-0.326
-350.493	-50.684	0.103	0.049
-349.479	-200.000	0.031	0.226
-348.464	-200.000	-0.037	-0.372
-347.450	-200.000	-0.036	-0.172
-346.435	100.857	0.094	-0.110
-345.420	-27.534	-0.091	0.053
-344.406	200.786	0.154	-0.238
-343.391	-38.012	0.255	0.136
-342.377	167.901	-0.090	0.129
-341.362	-200.000	0.014	0.075
-340.348	116.437	-0.196	-0.242
-339.333	-133.667	-0.402	0.051
-338.318	225.112	0.069	0.113
-337.304	800.000	0.082	0.234
-336.289	-54.132	-0.100	-0.046
-335.275	-200.000	0.115	0.580
-334.260	-152.617	0.094	-0.007
-333.245	90.962	-0.182	-0.206
-332.231	-61.826	-0.259	0.109
-331.216	-123.635	0.142	0.023
-330.202	-16.915	0.076	0.048
-329.187	-99.338	0.300	-0.076
-328.172	50.250	0.181	0.172
-327.158	-200.000	0.006	0.212
-326.143	-57.168	0.191	-0.085
-325.129	-130.056	-0.210	-0.029
-324.114	199.949	-0.250	-0.387
-323.099	800.000	0.033	-0.110
-322.085	40.700	-0.347	0.314
-321.070	31.781	-0.318	-0.275
-320.056	-83.338	0.378	0.122
-319.041	230.194	0.053	0.087
-318.026	-20.589	-0.363	0.224
-317.012	-5.355	-0.216	-0.149
-315.997	-121.011	-0.417	-0.070
-314.983	-7.625	-0.249	-0.169
-313.968	410.797	-0.103	-0.220
-312.953	-27.285	-0.141	-0.083
-311.939	-200.000	0.026	-0.218
-310.924	-35.804	0.141	0.077
-309.910	-127.919	-0.112	0.016
-308.895	26.426	-0.364	0.306
-307.880	-42.338	0.216	-0.111
-306.866	800.000	0.083	0.234
-305.851	389.614	-0.140	-0.291
-304.837	198.211	0.056	-0.086
-303.822	69.191	0.118	-0.122
-302.807	-200.000	0.023	-0.132
-301.793	142.489	-0.204	0.272
-300.778	-200.000	0.062	-0.288
-299.764	219.974	-0.136	-0.219
-298.749	22.768	-0.229	0.189
-297.735	-200.000	0.014	-0.155
-296.720	42.694	-0.103	0.094
-295.705	212.572	-0.170	0.269
-294.691	195.298	-0.089	-0.135
-293.676	-120.322	-0.221	0.038
-292.662	69.320	0.275	0.284
-291.647	-200.000	-0.003	0.075
-290.632	-184.167	-0.091	0.002
-289.618	471.327	0.082	0.186
-288.603	-200.000	0.004	0.059
-287.589	386.380	-0.033	-0.068
-286.574	112.096	-0.113	0.138
-285.559	86.006	0.070	-0.077
-284.545	800.000	-0.025	-0.100
-283.530	23.856	0.219	0.182
-282.516	-200.000	0.019	-0.092
-281.501	478.054	0.172	0.392
-280.486	50.897	0.181	-0.172
-279.472	614.124	0.137	0.345
-278.457	-146.581	0.229	-0.020
-277.443	-82.635	0.246	-0.080
-276.428	128.467	0.136	-0.174
-275.413	27.845	-0.149	-0.126
-274.399	84.976	0.123	0.135
-273.384	-136.679	-0.099	0.012
-272.370	332.983	-0.049	0.095
-271.355	-200.000	-0.044	0.249
-270.340	-20.380	-0.147	0.091
-269.326	-18.554	0.214	-0.134
-268.311	488.426	0.028	-0.064
-267.297	410.623	-0.108	-0.230
-266.282	-88.124	0.080	-0.024
-265.267	-200.000	-0.040	-0.291
-264.253	81.465	-0.090	-0.098
-263.238	-59.834	-0.392	0.168
-262.224	77.392	-0.225	0.240
-261.209	-133.375	0.489	-0.062
-260.195	-95.286	-0.109	-0.030
-259.180	-200.000	0.050	-0.325
-258.165	-132.937	-0.189	-0.024
-257.151	-44.034	-0.368	-0.185
-256.136	-145.883	0.412	-0.037
-255.122	800.000	-0.074	0.226
-254.107	-168.451	0.096	-0.004
-253.092	300.329	0.116	0.215
-252.078	130.788	0.168	-0.216
-251.063	402.968	0.053	0.111
-250.049	5.384	-0.146	0.108
-249.034	800.000	0.031	-0.090
-248.019	-8.444	0.393	-0.265
-247.005	-106.960	-0.219	-0.049
-245.990	-200.000	0.012	0.077
-244.976	165.584	0.207	0.293
-243.961	-134.281	0.395	0.049
-242.946	170.569	0.046	0.066
-241.932	25.486	-0.168	-0.140
-240.917	80.598	0.221	-0.239
-239.903	135.265	-0.135	0.176
-238.888	800.000	0.083	-0.250
-237.873	-126.769	-0.193	0.029
-236.859	-200.000	0.006	-0.077
-235.844	-200.000	0.033	0.197
-234.830	329.601	0.180	-0.347
-233.815	800.000	-0.101	-0.297
-232.800	390.888	0.122	-0.254
-231.786	-82.675	-0.075	0.024
-230.771	-52.363	-0.093	-0.043
-229.757	478.765	-0.042	0.095
-228.742	-177.937	0.146	0.003
-227.727	-41.680	-0.347	-0.179
-226.713	165.060	-0.096	0.135
-225.698	-136.357	0.219	-0.026
-224.684	800.000	-0.100	-0.326
-223.669	-200.000	-0.047	0.388
-222.655	265.039	-0.085	0.149
-221.640	800.000	0.074	-0.268
-220.625	35.136	0.160	0.140
-219.611	-87.690	0.301	-0.091
-218.596	-153.626	0.386	0.027
-217.582	800.000	0.090	-0.266
-216.567	-118.458	0.316	-0.056
-215.552	-13.928	0.203	0.131
-214.538	-200.000	-0.014	-0.330
-213.523	9.052	0.090	0.068
-212.509	323.846	0.029	0.055
-211.494	800.000	-0.086	0.262
-210.479	-123.678	0.084	0.013
-209.465	-200.000	0.032	-0.409
-208.450	9.137	0.048	0.036
-207.436	34.327	-0.430	-0.376
-206.421	-200.000	0.042	-0.267
-205.406	241.076	0.060	-0.100
-204.392	800.000	-0.025	0.092
-203.377	2.724	-0.013	0.009
-202.363	142.721	-0.051	0.068
-201.348	800.000	0.091	0.389
-200.333	-103.406	-0.113	0.027
-199.319	-146.489	0.345	-0.030
-198.304	641.383	-0.082	0.208
-197.290	-14.213	0.098	-0.064
-196.275	7.362	-0.137	-0.102
-195.260	-125.386	-0.164	-0.025
-194.246	-87.599	0.250	-0.076
-193.231	-200.000	0.030	-0.193
-192.217	-200.000	0.023	-0.107
-191.202	194.549	-0.124	-0.188
-190.187	-200.000	-0.013	-0.114
-189.173	-16.220	-0.112	0.071
-188.158	98.695	-0.092	-0.106
-187.144	93.668	0.156	-0.177
-186.129	-36.815	0.109	0.058
-185.114	-200.000	0.074	0.403
-184.100	-48.260	0.212	-0.102
-183.085	-200.000	0.013	0.077
-182.071	-54.212	-0.272	0.124
-181.056	-112.962	0.125	0.025
-180.042	-37.852	-0.179	0.095
-179.027	488.881	-0.023	-0.052
-178.012	-4.516	0.126	-0.087
-176.998	369.197	0.232	0.470
-175.983	800.000	-0.060	0.174
-174.969	-81.304	0.165	-0.054
-173.954	-200.000	0.055	-0.456
-172.939	-115.343	0.127	-0.024
-171.925	-13.374	-0.055	0.036
-170.910	-59.797	-0.270	0.116
-169.896	73.979	0.169	-0.177
-168.881	79.026	-0.188	0.201
-167.866	6.820	-0.101	-0.075
-166.852	-200.000	0.039	-0.245
-165.837	129.981	0.043	0.055
-164.823	504.054	-0.079	-0.182
-163.808	-200.000	0.006	0.184
-162.793	800.000	0.128	-0.394
-161.779	800.000	0.091	-0.390
-160.764	354.804	-0.108	-0.214
-159.750	-46.267	0.271	0.133
-158.735	55.677	0.230	-0.223
-157.720	-200.000	0.003	-0.100
-156.706	-106.112	-0.138	-0.031
-155.691	800.000	0.087	-0.300
-154.677	-96.695	0.160	-0.042
-153.662	800.000	0.116	0.336
-152.647	-200.000	-0.028	0.393
-151.633	-200.000	0.000	-0.055
-150.618	112.238	-0.204	-0.247
-149.604	800.000	-0.056	-0.159
-148.589	442.545	-0.095	-0.208
-147.574	800.000	-0.056	0.195
-146.560	800.000	0.044	-0.149
-145.545	-200.000	0.008	0.043
-144.531	403.952	0.075	0.159
-143.516	-2.448	-0.305	-0.213
-142.502	40.627	0.127	0.115
-141.487	-121.181	-0.288	-0.048
-140.472	-200.000	0.006	-0.027
-139.458	-200.000	0.011	0.336
-138.443	76.265	0.131	-0.139
-137.429	-79.080	-0.143	0.049
-136.414	314.117	0.097	-0.183
-135.399	119.110	-0.253	0.313
-134.385	326.048	0.173	0.331
-133.370	263.274	-0.094	-0.163
-132.356	-43.055	0.161	0.082
-131.341	-151.684	0.211	0.016
-130.326	511.635	0.126	-0.294
-129.312	-73.162	-0.107	0.039
-128.297	98.324	0.254	0.292
-127.283	-93.166	-0.064	-0.018
-126.268	750.013	0.044	-0.117
-125.253	-200.000	-0.050	-0.263
-124.239	-55.140	0.260	0.117
-123.224	321.765	-0.069	-0.131
-122.210	-200.000	-0.000	-0.008
-121.195	216.871	-0.063	-0.100
-120.180	281.521	0.108	0.193
-119.166	800.000	-0.066	-0.206
-118.151	-104.495	0.120	-0.028
-117.137	329.842	0.214	0.410
-116.122	108.447	-0.169	0.201
-115.107	-122.986	-0.150	0.024
-114.093	1.653	0.254	0.183
-113.078	-52.616	0.174	0.080
-112.064	-18.579	-0.218	-0.135
-111.049	437.229	-0.151	0.327
-110.034	232.343	-0.086	0.142
-109.020	800.000	-0.053	-0.174
-108.005	800.000	0.040	0.159
-106.991	51.179	-0.129	-0.122
-105.976	-112.473	-0.222	-0.044
-104.962	-200.000	0.019	-0.083
-103.947	263.352	0.058	0.100
-102.932	800.000	-0.040	-0.160
-101.918	800.000	-0.133	-0.562
-100.903	-131.681	0.143	0.019
-99.889	800.000	0.041	0.131
-98.874	68.958	0.248	0.254
-97.859	-200.000	0.015	-0.111
-96.845	47.635	0.139	0.129
-95.830	-200.000	-0.002	0.072
-94.816	-200.000	0.021	-0.103
-93.801	-43.470	-0.203	-0.102
-92.786	800.000	0.064	0.186
-91.772	-200.000	-0.005	-0.226
-90.757	800.000	-0.098	-0.313
-89.743	-50.213	0.171	-0.080
-88.728	113.728	-0.066	0.080
-87.713	800.000	-0.095	-0.349
-86.699	287.244	0.095	-0.171
-85.684	-53.425	-0.205	0.094
-84.670	61.486	0.038	-0.038
-83.655	345.556	0.059	0.115
-82.640	-15.935	0.156	0.099
-81.626	800.000	-0.081	-0.225
-80.611	144.528	-0.170	-0.227
-79.597	592.085	-0.059	0.146
-78.582	-49.472	0.150	0.071
-77.567	-200.000	0.011	0.243
-76.553	-93.523	-0.206	-0.057
-75.538	88.840	-0.044	0.049
-74.524	471.750	-0.145	-0.325
-73.509	-200.000	0.036	-0.199
-72.494	800.000	0.007	0.031
-71.480	-155.277	0.107	-0.007
-70.465	-200.000	-0.034	0.271
-69.451	32.881	0.098	-0.085
-68.436	790.407	0.056	0.154
-67.422	-26.841	-0.142	0.082
-66.407	39.269	-0.200	0.179
-65.392	-61.072	0.063	-0.026
-64.378	124.111	0.169	-0.211
-63.363	-200.000	0.005	-0.320
-62.349	-119.685	-0.131	-0.023
-61.334	58.378	-0.919	-0.897
-60.319	-116.209	0.275	0.051
-59.305	-200.000	0.029	-0.704
-58.290	552.112	0.303	0.725
-57.276	393.986	0.667	1.383
-56.261	-200.000	76.557	527.030
-55.246	511.278	1349.627	3126.778
-54.232	139.148	2599.055	3401.871
-53.217	117.867	2255.603	2765.036
-52.203	53.800	1685.556	1611.262
-51.188	45.309	1402.410	1287.379
-50.173	41.707	1355.247	1222.055
-49.159	60.030	1391.126	1367.922
-48.144	67.432	1409.152	1431.180
-47.130	45.936	1371.218	1262.402
-46.115	41.703	1355.069	1221.676
-45.100	41.493	1350.427	1216.160
-44.086	41.421	1347.628	1213.155
-43.071	41.417	1345.170	1210.870
-42.057	41.292	1343.192	1208.285
-41.042	41.419	1341.176	1207.188
-40.027	41.450	1339.542	1205.860
-39.013	41.634	1337.517	1205.099
-37.998	41.489	1335.844	1202.672
-36.984	41.564	1333.900	1201.321
-35.969	41.599	1332.118	1199.881
-34.954	41.784	1329.881	1198.930
-33.940	41.704	1328.764	1197.394
-32.925	41.656	1327.672	1196.074
-31.911	41.705	1325.947	1194.765
-30.896	41.690	1324.635	1193.449
-29.881	41.621	1323.550	1192.012
-28.867	41.595	1321.941	1190.359
-27.852	41.680	1319.994	1189.063
-26.838	41.582	1318.766	1187.328
-25.823	41.657	1317.304	1186.412
-24.809	41.711	1315.720	1185.255
-23.794	41.697	1314.472	1184.002
-22.779	41.711	1312.942	1182.660
-21.765	41.676	1311.951	1181.515
-20.750	41.594	1310.460	1179.643
-19.736	41.597	1309.077	1178.365
-18.721	41.546	1307.658	1176.741
-17.706	41.563	1306.792	1176.013
-16.692	41.626	1304.874	1174.612
-15.677	41.579	1304.014	1173.517
-14.663	41.599	1302.818	1172.514
-13.648	41.635	1301.873	1171.823
-12.633	41.629	1301.039	1170.991
-11.619	41.518	1300.129	1169.474
-10.604	41.466	1299.500	1168.561
-9.590	41.465	1298.632	1167.726
-8.575	41.522	1296.810	1166.373
-7.560	41.517	1296.273	1165.819
-6.546	41.375	1295.820	1164.535
-5.531	41.446	1294.750	1163.943
-4.517	41.409	1294.280	1163.256
-3.502	41.587	1292.671	1162.798
-2.487	41.502	1292.088	1161.734
-1.473	41.639	1288.184	1158.974
-0.458	40.838	1273.564	1141.177
0.556	35.710	1254.784	1102.298
1.571	31.483	1259.079	1081.586
2.586	29.976	1273.287	1084.873
3.600	27.936	1262.215	1063.484
4.615	23.673	1190.286	979.335
5.629	17.323	1115.553	884.832
6.644	14.098	1093.575	850.846
7.659	13.752	1090.450	846.572
8.673	13.692	1089.053	845.105
9.688	13.629	1087.770	843.715
10.702	14.046	1086.610	844.864
11.717	18.107	1092.422	870.016
12.731	22.400	1097.241	895.667
13.746	20.738	1093.208	883.864
14.761	17.868	1089.013	865.855
15.775	16.559	1086.691	857.304
16.790	15.367	1084.679	849.607
17.804	14.713	1082.718	844.686
18.819	14.275	1081.817	841.699
19.834	13.828	1081.159	838.849
20.848	13.625	1079.656	836.589
21.863	13.413	1078.923	834.875
22.877	13.237	1078.254	833.397
23.892	13.153	1077.406	832.242
24.907	13.297	1076.437	832.147
25.921	13.356	1075.509	831.653
26.936	13.384	1073.861	830.446
27.950	13.267	1072.989	829.109
28.965	13.430	1071.308	828.556
29.980	13.357	1069.874	827.009
30.994	13.471	1068.451	826.403
32.009	13.515	1067.145	825.537
33.023	13.507	1066.435	824.879
34.038	13.483	1064.659	823.311
35.053	13.414	1064.090	822.457
36.067	13.356	1063.125	821.350
37.082	13.437	1062.521	821.212
38.096	13.294	1062.272	820.237
39.111	13.447	1061.121	820.033
40.126	13.397	1059.675	818.595
41.140	13.303	1058.460	817.121
42.155	13.183	1057.451	815.677
43.169	13.242	1056.353	815.050
44.184	13.151	1055.218	813.654
45.199	13.137	1054.450	812.919
46.213	13.253	1052.852	812.187
47.228	13.270	1052.198	811.693
48.242	13.352	1051.239	811.286
49.257	13.269	1049.853	809.737
50.271	13.300	1049.377	809.449
51.286	13.397	1048.043	808.821
52.301	13.356	1046.963	807.719
53.315	13.257	1045.871	806.320
54.330	13.384	1044.566	805.862
55.344	13.228	1044.250	804.785
56.359	13.204	1043.400	803.946
57.374	13.140	1042.284	802.700
58.388	13.141	1041.655	802.152
59.403	13.115	1040.595	801.137
60.417	13.109	1040.206	800.740
61.432	13.253	1038.798	800.282
62.447	13.148	1038.325	799.337
63.461	13.102	1037.554	798.450
64.476	13.040	1036.882	797.566
65.490	13.091	1035.511	796.683
66.505	13.066	1035.470	796.462
67.520	13.170	1034.182	795.902
68.534	13.210	1033.645	795.611
69.549	13.130	1032.977	794.642
70.563	13.207	1031.780	794.021
71.578	13.113	1031.253	793.095
72.593	12.990	1030.760	792.053
73.607	12.996	1029.728	791.218
74.622	13.036	1028.965	790.754
75.636	13.038	1028.310	790.191
76.651	13.150	1027.466	790.009
77.666	13.018	1026.943	788.907
78.680	13.033	1026.230	788.360
79.695	13.013	1025.838	787.892
80.709	13.115	1024.937	787.618
81.724	13.234	1024.232	787.571
82.739	13.061	1024.131	786.602
83.753	13.373	1022.310	786.615
84.768	13.532	1021.478	786.664
85.782	13.406	1020.542	785.273
86.797	13.523	1019.831	785.214
87.812	13.379	1018.770	783.642
88.826	13.308	1017.921	782.583
89.841	13.310	1017.213	781.982
90.855	13.353	1016.279	781.397
91.870	13.378	1015.533	780.872
92.884	13.465	1014.342	780.299
93.899	13.491	1013.465	779.678
94.914	13.608	1012.452	779.378
95.928	13.571	1011.925	778.729
96.943	13.469	1010.902	777.396
97.957	13.465	1009.966	776.585
98.972	13.369	1009.478	775.696
99.987	13.440	1008.654	775.324
101.001	13.367	1007.610	774.111
102.016	13.528	1006.498	773.942
103.030	13.369	1005.867	772.644
104.045	13.463	1005.233	772.527
105.060	13.411	1003.652	771.002
106.074	13.310	1003.266	770.167
107.089	13.307	1001.908	769.043
108.103	13.247	1001.325	768.248
109.118	13.272	1000.295	767.506
110.133	13.253	999.414	766.673
111.147	13.344	997.932	765.890
112.162	13.185	997.706	764.912
113.176	13.344	996.668	764.785
114.191	13.320	996.370	764.380
115.206	13.389	994.916	763.513
116.220	13.336	994.206	762.656
117.235	13.372	993.711	762.377
118.249	13.397	992.195	761.261
119.264	13.268	991.974	760.430
120.279	13.336	991.058	759.973
121.293	13.268	990.286	759.003
122.308	13.322	989.111	758.280
123.322	13.238	988.427	757.306
124.337	13.349	987.172	756.784
125.352	13.290	986.204	755.706
126.366	13.292	985.101	754.801
127.381	13.387	984.070	754.378
128.395	13.352	983.143	753.442
129.410	13.443	982.242	753.100
130.424	13.369	981.630	752.229
131.439	13.463	980.646	751.831
132.454	13.469	980.099	751.375
133.468	13.511	979.144	750.766
134.483	13.488	978.391	750.019
135.497	13.507	977.335	749.229
136.512	13.286	977.068	747.959
137.527	13.637	975.621	748.367
138.541	13.393	975.246	746.914
139.556	13.423	975.012	746.802
140.570	13.595	974.034	746.763
141.585	13.619	972.857	745.903
142.600	13.693	972.013	745.525
143.614	13.648	971.200	744.631
144.629	13.850	970.071	744.608
145.643	13.725	969.119	743.250
146.658	13.558	968.426	741.907
147.673	13.650	967.687	741.686
148.687	13.462	966.755	740.063
149.702	13.506	965.722	739.403
150.716	13.409	964.921	738.291
151.731	13.468	964.455	738.136
152.746	13.556	963.619	737.820
153.760	13.500	963.113	737.118
154.775	13.710	962.039	737.167
155.789	13.675	961.463	736.502
156.804	13.637	961.372	736.202
157.819	13.610	960.506	735.353
158.833	13.611	959.717	734.687
159.848	13.810	958.517	734.583
160.862	13.784	957.159	733.366
161.877	13.529	956.503	731.669
162.892	13.518	955.935	731.121
163.906	13.581	954.850	730.506
164.921	13.502	954.160	729.564
165.935	13.518	953.212	728.844
166.950	13.554	952.083	728.077
167.964	13.668	950.952	727.650
168.979	13.587	950.347	726.767
169.994	13.649	949.157	726.063
171.008	13.618	948.825	725.609
172.023	13.761	948.231	725.715
173.037	13.821	947.329	725.225
174.052	13.805	946.611	724.538
175.067	13.703	946.170	723.691
176.081	13.691	945.298	722.908
177.096	13.656	944.926	722.407
178.110	13.747	943.977	722.017
179.125	13.669	943.257	721.061
180.140	13.733	942.943	721.038
181.154	13.763	942.949	721.107
182.169	13.818	942.093	720.628
183.183	13.889	941.606	720.497
184.198	13.893	940.492	719.601
185.213	13.876	940.029	719.109
186.227	13.911	939.233	718.588
187.242	13.925	939.063	718.455
188.256	14.105	937.838	718.231
189.271	13.934	937.613	717.256
190.286	13.791	936.403	715.652
191.300	13.702	935.572	714.571
192.315	13.740	934.942	714.188
193.329	13.676	934.566	713.563
194.344	13.764	934.102	713.523
195.359	13.906	932.936	713.178
196.373	13.907	932.867	713.068
197.388	13.972	932.559	713.051
198.402	14.164	931.837	713.256
199.417	14.108	931.192	712.460
200.432	14.094	930.891	712.106
201.446	14.036	930.390	711.413
202.461	14.259	929.594	711.693
203.475	14.308	929.021	711.402
204.490	14.072	928.476	709.913
205.504	14.281	927.308	709.849
206.519	14.083	926.475	708.307
207.534	14.179	925.935	708.240
208.548	14.197	925.363	707.814
209.563	14.021	925.299	706.956
210.577	14.172	923.920	706.479
211.592	14.189	923.335	706.043
212.607	14.270	922.571	705.740
213.621	14.267	921.624	704.940
214.636	14.195	920.812	703.951
215.650	14.324	920.450	704.156
216.665	14.421	919.486	703.767
217.680	14.355	918.977	703.036
218.694	14.210	918.702	702.153
219.709	14.352	917.710	701.933
220.723	14.363	916.991	701.367
221.738	14.290	916.466	700.595
222.753	14.398	915.657	700.367
223.767	14.260	915.215	699.388
224.782	14.487	914.296	699.575
225.796	14.602	914.076	699.830
226.811	14.469	913.464	698.741
227.826	14.360	912.849	697.754
228.840	14.374	912.076	697.159
229.855	14.288	911.176	696.049
230.869	14.485	910.417	696.233
231.884	14.398	910.033	695.510
232.899	14.409	909.003	694.711
233.913	14.403	908.347	694.119
234.928	14.565	907.232	693.881
235.942	14.369	907.010	692.836
236.957	14.479	906.484	692.831
237.972	14.414	906.106	692.209
238.986	14.502	904.898	691.589
240.001	14.422	904.509	690.902
241.015	14.504	903.625	690.502
242.030	14.504	903.125	690.059
243.045	14.513	902.673	689.692
244.059	14.593	901.957	689.415
245.074	14.652	901.478	689.230
246.088	14.720	900.566	688.754
247.103	14.718	900.031	688.273
248.117	14.715	899.648	687.910
249.132	14.812	899.058	687.795
250.147	14.981	898.389	687.917
251.161	14.893	897.886	687.108
252.176	14.881	897.358	686.594
253.190	14.948	896.301	686.000
254.205	14.932	895.956	685.611
255.220	14.929	895.496	685.185
256.234	15.012	894.475	684.684
257.249	14.951	894.121	684.104
258.263	14.936	893.368	683.404
259.278	15.073	892.244	683.044
260.293	15.093	891.988	682.867
261.307	15.188	891.468	682.798
262.322	15.246	890.263	682.050
263.336	15.239	889.962	681.729
264.351	15.154	889.400	680.895
265.366	15.290	888.635	680.800
266.380	15.105	888.229	679.677
267.395	15.177	887.556	679.393
268.409	15.120	886.783	678.514
269.424	15.243	885.725	678.140
270.439	15.168	884.951	677.186
271.453	15.142	884.634	676.779
272.468	15.257	883.862	676.592
273.482	15.230	883.279	675.975
274.497	15.139	882.822	675.199
275.512	15.219	882.083	674.898
276.526	15.436	881.334	675.139
277.541	15.329	880.984	674.381
278.555	15.291	880.370	673.695
279.570	15.457	879.688	673.780
280.585	15.470	878.867	673.144
281.599	15.439	878.403	672.607
282.614	15.361	877.723	671.714
283.628	15.368	877.115	671.216
284.643	15.397	876.525	670.821
285.657	15.379	876.103	670.367
286.672	15.455	875.488	670.140
287.687	15.485	874.964	669.799
288.701	15.488	874.307	669.250
289.716	15.460	873.711	668.621
290.730	15.563	872.980	668.414
291.745	15.532	872.241	667.665
292.760	15.625	871.836	667.667
293.774	15.586	871.090	666.880
294.789	15.501	870.513	666.044
295.803	15.503	869.867	665.500
296.818	15.474	869.411	664.974
297.833	15.478	868.417	664.173
298.847	15.603	867.710	664.066
299.862	15.541	867.633	663.706
300.876	15.686	866.538	663.381
301.891	15.715	865.948	662.986
302.906	15.772	865.712	662.968
303.920	15.916	864.891	662.849
304.935	15.823	864.377	662.031
305.949	15.827	863.638	661.423
306.964	15.748	863.597	661.020
307.979	15.815	862.686	660.529
308.993	15.917	862.085	660.409
310.008	15.902	861.535	659.870
311.022	15.869	860.866	659.173
312.037	15.886	860.102	658.594
313.052	15.771	859.772	657.833
314.066	15.792	859.087	657.334
315.081	15.720	858.654	656.664
316.095	15.856	857.858	656.526
317.110	15.850	857.293	656.013
318.125	15.861	856.959	655.741
319.139	15.980	856.417	655.733
320.154	15.884	856.231	655.158
321.168	15.792	855.615	654.269
322.183	15.924	855.044	654.289
323.197	16.124	853.923	654.148
324.212	15.833	854.123	653.114
325.227	15.898	853.254	652.647
326.241	15.897	852.885	652.304
327.256	16.034	851.919	652.034
328.270	15.856	851.592	651.039
329.285	16.056	850.769	651.126
330.300	15.943	850.479	650.410
331.314	16.064	849.630	650.168
332.329	16.063	849.311	649.864
333.343	16.036	848.767	649.286
334.358	16.028	848.501	648.995
335.373	16.029	848.350	648.824
336.387	16.026	847.886	648.400
337.402	16.127	847.686	648.579
338.416	16.087	847.608	648.308
339.431	16.164	846.667	647.828
340.446	16.321	846.545	648.278
341.460	16.206	846.247	647.552
342.475	16.297	845.715	647.435
343.489	16.330	845.119	647.048
344.504	16.342	844.261	646.380
345.519	16.336	844.024	646.118
346.533	16.516	843.296	646.194
347.548	16.264	843.327	645.198
348.562	16.302	842.438	644.605
349.577	16.354	841.956	644.378
350.592	16.265	841.201	643.402
351.606	16.357	840.257	642.973
352.621	16.425	839.677	642.733
353.635	16.299	839.420	641.999
354.650	16.503	838.492	642.007
355.665	16.397	838.285	641.389
356.679	16.499	837.205	640.892
357.694	16.463	836.898	640.467
358.708	16.479	836.009	639.791
359.723	16.518	835.691	639.636
360.738	16.340	835.114	638.466
361.752	16.409	834.377	638.106
362.767	16.637	833.766	638.443
363.781	16.585	833.359	637.879
364.796	16.671	832.985	637.861
365.810	16.713	832.680	637.726
366.825	16.563	832.335	636.842
367.840	16.751	831.493	636.849
368.854	16.780	830.909	636.455
369.869	16.733	830.523	635.925
370.883	16.706	829.982	635.354
371.898	16.848	829.538	635.490
372.913	16.790	829.015	634.818
373.927	16.905	828.763	634.999
374.942	16.758	828.285	634.025
375.956	16.857	828.153	634.238
376.971	16.937	827.754	634.176
377.986	16.967	827.488	634.029
379.000	17.054	826.919	633.860
380.015	16.883	826.776	633.055
381.029	16.907	825.594	632.186
382.044	17.075	824.793	632.141
383.059	17.121	824.240	631.835
384.073	17.147	823.688	631.450
385.088	17.019	823.253	630.586
386.102	16.831	822.607	629.338
387.117	16.925	822.354	629.437
388.132	16.851	821.765	628.656
389.146	16.962	820.891	628.344
390.161	17.015	820.576	628.241
391.175	17.039	820.134	627.938
392.190	17.057	819.703	627.619
393.205	17.083	819.062	627.167
394.219	17.018	818.940	626.779
395.234	16.953	818.555	626.190
396.248	16.978	817.704	625.575
397.263	16.992	817.434	625.364
398.278	16.893	817.312	624.851
399.292	16.977	816.893	624.784
400.307	16.907	816.398	624.092
401.321	16.942	815.928	623.809
402.336	16.990	815.444	623.557
403.350	16.965	815.212	623.234
404.365	17.045	814.590	622.996
405.380	17.183	814.137	623.100
406.394	17.211	813.621	622.754
407.409	17.430	813.073	623.083
408.423	17.387	812.638	622.534
409.438	17.447	812.349	622.477
410.453	17.376	812.028	621.918
411.467	17.382	811.392	621.397
412.482	17.422	810.990	621.182
413.496	17.524	810.612	621.210
414.511	17.550	810.197	620.930
415.526	17.508	809.421	620.129
416.540	17.537	809.156	619.977
417.555	17.495	808.794	619.489
418.569	17.504	808.468	619.217
419.584	17.683	807.716	619.239
420.599	17.631	807.121	618.540
421.613	89.429	1260.075	1353.767
422.628	76.431	1326.095	1353.891
