DTS Sentinel unit serial number:	SN413079Multiplexer serial number:	ORYXHardware model number:	OX4-SRSoftware version number:	ORYX F/W v4.00 Oryx Data Collector v3.7.2.0data status	okinstallation	princeton_trtdifferential loss correction	single-endedforward channel	channel 1reverse channel	N/Adate	2019/09/19time	14:58:35forward acquisition time	60.00reverse acquisition time	0.00gamma	496.2192k internal	0.2316k external	0.2316temperature offset calibration	1.0025default loss term (dB/km)	0.3790temperature slope calibration	1.0000multiplexer offset coefficient	1.0000multiplexer slope coefficient	1.0000fibre end	0.00T internal ref (°C)	33.06T ext. ref 1 (°C)	1.10T ext. ref 2 (°C)	30.02length (m)	temperature (°C)	Stokes	anti-Stokes-747.200	29.403	0.273	-0.235
-746.185	-200.000	0.004	0.060
-745.171	775.804	0.131	-0.363
-744.156	117.505	0.057	0.071
-743.142	800.000	0.075	-0.236
-742.127	-147.136	0.210	0.018
-741.112	800.000	0.012	0.048
-740.098	-151.390	-0.098	-0.007
-739.083	-6.582	-0.131	-0.091
-738.069	800.000	0.077	0.227
-737.054	32.228	-0.284	-0.248
-736.039	517.985	-0.183	-0.433
-735.025	181.626	0.068	-0.101
-734.010	85.158	-0.284	0.316
-732.996	800.000	-0.004	-0.017
-731.981	218.652	-0.125	-0.202
-730.966	-200.000	0.075	-0.344
-729.952	-18.946	-0.349	-0.220
-728.937	-34.537	-0.131	-0.072
-727.923	126.851	-0.263	0.338
-726.908	-12.232	0.082	0.054
-725.894	-200.000	-0.053	-0.294
-724.879	-31.122	-0.139	-0.079
-723.864	190.249	0.198	-0.300
-722.850	77.727	-0.290	0.313
-721.835	72.680	-0.299	0.316
-720.821	60.340	0.110	-0.110
-719.806	800.000	-0.135	0.484
-718.791	21.540	0.111	-0.091
-717.777	90.737	-0.249	-0.282
-716.762	-200.000	0.030	0.175
-715.748	314.585	-0.043	-0.081
-714.733	-200.000	0.019	-0.479
-713.718	-48.236	-0.261	0.127
-712.704	-176.866	0.309	-0.008
-711.689	-200.000	-0.031	-0.141
-710.675	800.000	0.028	0.120
-709.660	-137.490	0.395	0.045
-708.645	-38.777	0.197	0.105
-707.631	800.000	0.086	-0.315
-706.616	-112.900	0.272	0.054
-705.602	-27.726	0.263	-0.154
-704.587	143.742	-0.303	-0.408
-703.572	-200.000	-0.013	-0.068
-702.558	-92.812	0.071	0.020
-701.543	-21.250	-0.236	-0.146
-700.529	-82.794	0.116	0.038
-699.514	636.294	-0.064	-0.165
-698.499	-161.068	-0.287	-0.015
-697.485	-200.000	0.023	0.300
-696.470	163.206	-0.057	-0.081
-695.456	-166.816	-0.380	-0.016
-694.441	31.063	-0.118	-0.102
-693.426	159.152	0.192	-0.270
-692.412	52.073	-0.022	-0.021
-691.397	90.796	0.149	0.169
-690.383	-78.301	-0.102	-0.035
-689.368	-200.000	0.009	-0.195
-688.354	77.961	0.152	0.164
-687.339	48.495	-0.147	-0.139
-686.324	-115.712	-0.085	-0.016
-685.310	141.101	-0.026	0.035
-684.295	267.716	0.122	0.216
-683.281	210.815	0.224	0.355
-682.266	466.302	0.102	0.231
-681.251	800.000	0.041	-0.121
-680.237	41.910	-0.114	0.104
-679.222	-200.000	-0.013	-0.090
-678.208	-72.240	0.397	-0.149
-677.193	-15.715	0.225	0.145
-676.178	313.976	0.166	-0.315
-675.164	-200.000	-0.007	-0.035
-674.149	-45.650	-0.472	0.236
-673.135	800.000	0.082	0.277
-672.120	-38.032	0.234	-0.125
-671.105	-91.382	-0.337	0.097
-670.091	-83.170	-0.191	-0.062
-669.076	-200.000	-0.021	-0.168
-668.062	-200.000	0.006	-0.203
-667.047	-14.096	-0.264	-0.172
-666.032	626.978	0.142	0.362
-665.018	-118.726	-0.242	-0.043
-664.003	148.560	-0.074	-0.100
-662.989	-80.453	-0.261	0.088
-661.974	-12.460	0.175	-0.115
-660.959	-89.250	-0.416	-0.124
-659.945	-105.214	0.058	0.013
-658.930	498.821	-0.120	-0.279
-657.916	181.842	0.192	0.286
-656.901	60.145	-0.212	-0.211
-655.886	-200.000	0.018	-0.317
-654.872	9.590	0.172	-0.132
-653.857	-93.893	-0.277	-0.077
-652.843	-160.495	-0.158	-0.009
-651.828	-67.733	-0.060	0.024
-650.814	59.106	-0.103	-0.103
-649.799	-200.000	0.017	-0.256
-648.784	-200.000	0.023	0.351
-647.770	-106.598	-0.067	-0.015
-646.755	7.468	-0.238	0.180
-645.741	-23.285	-0.196	-0.119
-644.726	-188.387	-0.183	-0.002
-643.711	-200.000	-0.006	-0.154
-642.697	-115.577	0.119	-0.023
-641.682	-93.731	0.351	-0.098
-640.668	800.000	-0.087	-0.347
-639.653	-200.000	-0.008	0.066
-638.638	-200.000	0.013	0.258
-637.624	195.938	0.104	0.160
-636.609	16.562	0.290	-0.231
-635.595	164.649	-0.044	0.063
-634.580	-4.896	0.121	-0.084
-633.565	104.477	0.132	0.156
-632.551	-200.000	0.066	0.496
-631.536	233.773	-0.156	0.259
-630.522	54.308	0.093	0.091
-629.507	-30.424	-0.136	-0.078
-628.492	-125.751	0.312	-0.048
-627.478	-173.783	-0.246	0.007
-626.463	225.217	0.071	-0.116
-625.449	-19.677	-0.231	-0.144
-624.434	6.036	0.239	-0.178
-623.419	-188.740	-0.244	-0.003
-622.405	-163.231	-0.136	0.007
-621.390	25.694	0.367	-0.308
-620.376	-200.000	0.009	0.151
-619.361	-200.000	-0.001	-0.376
-618.346	63.956	-0.234	-0.237
-617.332	-158.403	-0.115	-0.007
-616.317	76.719	-0.272	0.291
-615.303	-200.000	0.052	-0.412
-614.288	88.111	-0.119	0.134
-613.273	-77.654	-0.153	-0.053
-612.259	-8.198	0.197	-0.134
-611.244	-24.741	-0.267	-0.160
-610.230	-74.696	-0.503	-0.182
-609.215	129.211	-0.203	0.261
-608.201	800.000	-0.069	-0.271
-607.186	-200.000	0.046	0.249
-606.171	-42.227	-0.132	0.068
-605.157	197.298	0.127	-0.195
-604.142	-200.000	0.003	0.162
-603.128	-127.953	-0.127	-0.018
-602.113	-55.050	0.125	0.057
-601.098	52.984	-0.244	-0.236
-600.084	-185.132	0.185	-0.003
-599.069	-200.000	0.016	-0.165
-598.055	76.910	0.207	0.221
-597.040	69.170	-0.016	0.017
-596.025	-36.804	0.106	0.057
-595.011	563.688	0.139	-0.339
-593.996	228.193	-0.112	0.184
-592.982	84.868	0.129	-0.143
-591.967	604.174	-0.108	0.271
-590.952	157.248	0.080	-0.111
-589.938	155.560	-0.082	-0.114
-588.923	-77.070	0.304	-0.107
-587.909	-101.134	-0.124	-0.031
-586.894	53.457	0.140	0.135
-585.879	-121.147	-0.168	0.028
-584.865	480.383	-0.124	0.283
-583.850	70.573	-0.162	0.169
-582.836	177.431	-0.258	0.378
-581.821	129.380	0.117	-0.150
-580.806	-200.000	0.058	-0.392
-579.792	800.000	-0.055	0.221
-578.777	-200.000	-0.049	-0.300
-577.763	-97.895	0.345	-0.090
-576.748	3.011	-0.186	-0.136
-575.733	64.233	0.159	-0.161
-574.719	-200.000	0.005	-0.086
-573.704	83.292	-0.169	-0.186
-572.690	121.894	-0.090	-0.113
-571.675	115.840	0.202	0.249
-570.661	211.504	-0.076	0.120
-569.646	-64.631	0.084	-0.034
-568.631	-91.575	-0.094	0.027
-567.617	-168.828	-0.393	0.015
-566.602	3.913	-0.186	-0.137
-565.588	-64.804	0.204	-0.083
-564.573	-200.000	0.030	-0.205
-563.558	387.611	0.074	0.155
-562.544	194.650	-0.024	-0.036
-561.529	334.560	0.221	-0.430
-560.515	-149.729	0.126	-0.010
-559.500	9.176	-0.091	-0.069
-558.485	-112.466	0.349	0.070
-557.471	473.075	0.054	-0.123
-556.456	-200.000	0.013	0.108
-555.442	-200.000	-0.008	-0.188
-554.427	330.609	0.126	0.244
-553.412	67.220	-0.282	0.289
-552.398	-45.500	-0.253	0.126
-551.383	318.186	-0.121	-0.231
-550.369	-96.525	0.085	-0.022
-549.354	-90.357	-0.168	-0.049
-548.339	-23.666	-0.308	0.185
-547.325	-200.000	-0.030	-0.365
-546.310	21.340	-0.205	-0.167
-545.296	-25.420	-0.056	-0.033
-544.281	-200.000	0.014	0.083
-543.266	-25.077	0.129	0.077
-542.252	9.209	-0.251	-0.191
-541.237	73.046	-0.257	0.270
-540.223	-26.878	-0.211	-0.124
-539.208	-62.895	-0.261	0.109
-538.193	-65.797	0.137	-0.055
-537.179	-128.989	0.602	-0.085
-536.164	165.448	-0.192	-0.273
-535.150	69.149	0.189	-0.195
-534.135	252.180	-0.030	0.051
-533.121	264.197	0.152	0.265
-532.106	-200.000	-0.026	0.243
-531.091	800.000	-0.091	-0.310
-530.077	-200.000	-0.025	0.354
-529.062	112.398	0.055	-0.067
-528.048	-0.126	-0.216	-0.154
-527.033	59.888	0.202	-0.200
-526.018	-94.440	-0.269	-0.074
-525.004	-200.000	0.019	-0.105
-523.989	-200.000	-0.028	-0.142
-522.975	-197.238	0.340	-0.002
-521.960	-200.000	0.014	0.102
-520.945	236.921	-0.098	-0.163
-519.931	-200.000	-0.006	-0.209
-518.916	-99.211	-0.179	0.045
-517.902	46.516	-0.042	-0.039
-516.887	-155.421	0.083	0.005
-515.872	-200.000	-0.003	-0.332
-514.858	-138.755	0.055	-0.006
-513.843	780.795	-0.078	-0.214
-512.829	-106.130	0.154	0.035
-511.814	-42.545	0.042	-0.021
-510.799	-200.000	0.004	0.214
-509.785	-26.737	0.345	-0.202
-508.770	227.191	0.043	-0.069
-507.756	-84.780	0.151	0.048
-506.741	680.510	-0.146	-0.382
-505.726	-106.099	0.168	-0.038
-504.712	-200.000	0.007	0.389
-503.697	-200.000	-0.015	0.258
-502.683	-10.426	0.107	-0.071
-501.668	-136.541	-0.252	0.029
-500.653	-115.164	-0.103	-0.020
-499.639	668.882	0.102	0.265
-498.624	10.141	-0.042	-0.032
-497.610	298.774	-0.092	-0.170
-496.595	-157.370	-0.052	0.003
-495.581	-200.000	-0.022	-0.339
-494.566	47.027	-0.044	0.041
-493.551	-65.487	-0.193	-0.078
-492.537	29.238	-0.216	0.184
-491.522	-83.945	-0.107	0.034
-490.508	4.756	0.218	-0.161
-489.493	800.000	0.076	0.222
-488.478	224.696	-0.110	0.178
-487.464	72.903	-0.065	0.069
-486.449	-50.102	0.210	0.100
-485.435	-68.275	0.244	-0.095
-484.420	39.418	-0.076	0.068
-483.405	46.111	-0.259	-0.240
-482.391	800.000	0.081	-0.268
-481.376	-200.000	0.007	0.088
-480.362	800.000	0.036	0.104
-479.347	-30.126	0.017	0.010
-478.332	10.826	-0.304	-0.233
-477.318	-129.553	0.071	-0.010
-476.303	-52.726	0.093	0.043
-475.289	-200.000	0.031	0.243
-474.274	-83.266	0.184	0.059
-473.259	204.491	0.233	0.362
-472.245	411.333	-0.074	0.158
-471.230	-80.929	0.197	-0.066
-470.216	-200.000	0.001	0.121
-469.201	-47.429	0.140	0.068
-468.186	800.000	0.023	-0.071
-467.172	230.112	0.062	0.102
-466.157	241.535	0.183	0.306
-465.143	-59.582	0.312	-0.134
-464.128	158.049	-0.130	-0.181
-463.113	-96.776	0.227	-0.060
-462.099	97.092	0.132	0.152
-461.084	-200.000	0.029	-0.180
-460.070	246.946	0.138	0.233
-459.055	-111.221	0.195	0.040
-458.040	-117.142	0.154	-0.028
-457.026	697.583	-0.087	-0.230
-456.011	-200.000	0.020	-0.195
-454.997	120.324	-0.216	0.269
-453.982	800.000	0.091	-0.367
-452.968	110.902	-0.146	-0.176
-451.953	-174.795	-0.317	0.009
-450.938	199.736	0.026	0.040
-449.924	30.789	0.190	0.163
-448.909	-59.868	0.179	0.077
-447.895	520.547	0.140	-0.328
-446.880	800.000	0.069	-0.227
-445.865	2.846	-0.249	-0.181
-444.851	800.000	-0.019	-0.081
-443.836	-142.480	-0.267	-0.026
-442.822	-59.088	0.352	0.152
-441.807	-92.181	-0.579	-0.164
-440.792	139.479	-0.067	-0.088
-439.778	-76.420	-0.047	0.017
-438.763	162.095	-0.128	0.179
-437.749	157.927	-0.178	-0.247
-436.734	-147.618	0.223	-0.019
-435.719	713.859	-0.055	0.145
-434.705	-61.210	0.128	-0.054
-433.690	34.479	-0.118	0.103
-432.676	-200.000	0.008	0.105
-431.661	-200.000	0.067	0.299
-430.646	-103.558	-0.379	-0.089
-429.632	353.777	-0.116	0.230
-428.617	11.591	0.109	0.084
-427.603	55.360	0.196	0.190
-426.588	-6.627	0.183	0.125
-425.573	-35.105	-0.085	0.046
-424.559	-47.630	0.317	0.154
-423.544	271.998	0.207	0.366
-422.530	-200.000	-0.012	-0.068
-421.515	-128.742	0.356	0.050
-420.500	-131.505	-0.329	0.043
-419.486	-200.000	-0.014	-0.142
-418.471	-200.000	0.049	-0.305
-417.457	62.389	-0.080	-0.080
-416.442	-200.000	0.045	0.258
-415.428	800.000	0.115	-0.322
-414.413	21.945	-0.227	0.185
-413.398	-200.000	0.012	-0.081
-412.384	46.778	0.040	-0.037
-411.369	352.400	-0.082	-0.163
-410.355	713.953	0.053	0.139
-409.340	371.463	-0.081	0.164
-408.325	-200.000	0.007	-0.050
-407.311	20.409	0.310	-0.251
-406.296	-109.869	0.147	-0.031
-405.282	-103.447	0.207	0.049
-404.267	-200.000	-0.022	0.177
-403.252	46.758	-0.062	0.058
-402.238	-61.375	0.139	-0.058
-401.223	-175.805	0.192	-0.005
-400.209	115.636	-0.086	-0.105
-399.194	126.000	0.043	0.054
-398.179	-200.000	0.002	0.184
-397.165	-13.270	-0.206	0.134
-396.150	58.331	0.174	0.171
-395.136	-200.000	-0.019	0.226
-394.121	-200.000	-0.073	-0.437
-393.106	171.047	0.104	-0.149
-392.092	800.000	-0.030	0.113
-391.077	-120.423	-0.195	-0.033
-390.063	-135.813	-0.212	-0.025
-389.048	800.000	-0.041	-0.142
-388.033	-86.132	-0.169	-0.052
-387.019	-133.977	-0.345	0.043
-386.004	-81.914	0.288	0.094
-384.990	-200.000	-0.021	0.186
-383.975	-200.000	-0.045	-0.309
-382.960	-19.798	-0.103	0.063
-381.946	-151.822	-0.324	0.024
-380.931	17.738	-0.080	-0.064
-379.917	-90.621	-0.062	-0.018
-378.902	68.932	0.188	0.193
-377.888	310.202	-0.098	0.184
-376.873	559.403	-0.097	-0.233
-375.858	800.000	-0.026	-0.102
-374.844	44.330	-0.030	0.028
-373.829	-106.777	0.286	0.063
-372.815	32.954	-0.079	-0.068
-371.800	272.899	-0.262	-0.462
-370.785	347.096	0.175	-0.343
-369.771	-150.562	-0.161	0.012
-368.756	352.209	-0.163	-0.323
-367.742	-144.298	0.237	-0.022
-366.727	682.967	-0.027	0.070
-365.712	174.106	0.117	-0.168
-364.698	5.384	0.243	-0.179
-363.683	-141.255	-0.122	0.012
-362.669	800.000	0.025	0.081
-361.654	-117.292	0.303	-0.055
-360.639	-200.000	0.033	-0.340
-359.625	-5.293	-0.019	-0.013
-358.610	-200.000	-0.029	-0.269
-357.596	-78.456	-0.130	0.044
-356.581	113.811	-0.117	-0.142
-355.566	-78.687	0.393	0.134
-354.552	-200.000	0.030	-0.245
-353.537	-16.638	-0.340	-0.215
-352.523	13.998	-0.216	0.168
-351.508	-200.000	-0.026	-0.163
-350.493	-48.137	0.162	0.078
-349.479	482.592	-0.037	0.085
-348.464	683.981	0.109	-0.283
-347.450	-200.000	0.033	-0.219
-346.435	413.735	-0.158	-0.336
-345.420	132.114	-0.181	0.233
-344.406	-26.271	-0.387	0.227
-343.391	108.281	0.037	-0.044
-342.377	-128.848	0.191	-0.027
-341.362	126.459	0.065	-0.082
-340.348	28.221	-0.374	0.315
-339.333	-72.443	-0.149	0.055
-338.318	800.000	0.189	0.791
-337.304	-89.210	-0.277	-0.082
-336.289	55.857	-0.183	0.177
-335.275	244.552	-0.179	0.299
-334.260	-22.952	0.079	0.047
-333.245	-200.000	0.064	0.369
-332.231	-200.000	0.020	0.119
-331.216	-47.442	0.259	-0.126
-330.202	-65.142	-0.313	-0.126
-329.187	-130.815	-0.194	-0.026
-328.172	268.300	0.085	-0.149
-327.158	-35.316	0.284	0.154
-326.143	72.134	0.071	-0.074
-325.129	800.000	0.088	0.278
-324.114	-7.152	0.226	-0.153
-323.099	66.444	-0.174	0.176
-322.085	218.595	0.078	-0.124
-321.070	235.405	-0.086	-0.142
-320.056	-173.395	-0.239	-0.007
-319.041	-101.115	-0.351	0.086
-318.026	47.405	0.067	0.062
-317.012	800.000	-0.040	0.157
-315.997	800.000	-0.009	0.029
-314.983	-91.724	0.222	-0.063
-313.968	-136.724	-0.258	0.030
-312.953	-200.000	0.001	-0.183
-311.939	-200.000	0.050	0.401
-310.924	-103.755	0.192	-0.045
-309.910	-200.000	0.012	-0.197
-308.895	-200.000	0.033	-0.296
-307.880	150.960	0.224	0.303
-306.866	-83.940	0.513	0.163
-305.851	173.182	-0.051	0.073
-304.837	-112.329	0.084	-0.017
-303.822	-45.534	-0.104	0.051
-302.807	-30.667	0.237	0.134
-301.793	687.922	-0.091	0.236
-300.778	-30.854	-0.280	0.158
-299.764	208.751	-0.158	-0.247
-298.749	-137.594	0.078	0.009
-297.735	363.073	-0.016	-0.032
-296.720	-134.037	-0.216	-0.027
-295.705	-118.350	-0.144	0.025
-294.691	134.343	-0.262	0.338
-293.676	537.590	0.050	0.117
-292.662	800.000	-0.038	-0.116
-291.647	-35.544	-0.057	-0.031
-290.632	-127.894	-0.152	-0.022
-289.618	36.823	0.115	-0.101
-288.603	-200.000	-0.032	0.154
-287.589	800.000	0.039	-0.165
-286.574	239.585	0.078	-0.129
-285.559	376.910	0.076	-0.153
-284.545	-155.129	-0.213	-0.014
-283.530	-200.000	-0.062	-0.296
-282.516	-92.851	-0.109	-0.030
-281.501	91.379	0.180	-0.201
-280.486	-200.000	0.065	0.337
-279.472	178.126	0.146	0.211
-278.457	-104.250	0.336	-0.078
-277.443	800.000	-0.054	0.228
-276.428	-156.442	-0.119	0.007
-275.413	157.047	-0.061	-0.084
-274.399	330.814	0.154	0.294
-273.384	-72.731	-0.106	0.039
-272.370	1.928	-0.274	0.197
-271.355	494.921	0.061	0.140
-270.340	-114.367	-0.284	-0.054
-269.326	-34.625	0.280	-0.153
-268.311	-95.728	-0.395	0.105
-267.297	93.187	0.075	0.084
-266.282	-55.133	-0.313	0.140
-265.267	103.216	-0.055	-0.064
-264.253	-2.635	0.050	-0.035
-263.238	-62.931	-0.089	0.037
-262.224	443.955	-0.114	0.248
-261.209	-50.246	-0.163	0.077
-260.195	-81.255	-0.063	0.021
-259.180	800.000	-0.127	0.396
-258.165	-117.147	0.141	-0.026
-257.151	-157.946	-0.208	0.012
-256.136	123.138	0.090	0.112
-255.122	-144.524	-0.128	0.012
-254.107	463.549	0.053	-0.118
-253.092	-200.000	-0.049	-0.436
-252.078	65.124	0.039	-0.039
-251.063	-1.074	0.480	0.337
-250.049	-200.000	-0.020	0.135
-249.034	-107.354	0.213	0.047
-248.019	-196.456	0.337	-0.002
-247.005	-39.876	0.176	-0.092
-245.990	81.506	-0.131	-0.141
-244.976	-200.000	0.041	0.431
-243.961	91.539	0.106	0.119
-242.946	-99.356	0.234	-0.059
-241.932	784.412	-0.029	0.080
-240.917	-152.892	0.121	0.009
-239.903	-200.000	-0.016	0.215
-238.888	-28.962	0.196	-0.112
-237.873	29.504	-0.024	-0.021
-236.859	-137.455	-0.072	-0.008
-235.844	-132.682	0.241	-0.031
-234.830	31.865	-0.274	-0.235
-233.815	-200.000	-0.046	-0.204
-232.800	-200.000	-0.038	-0.358
-231.786	714.855	0.112	0.295
-230.771	-6.013	-0.070	-0.047
-229.757	-200.000	-0.028	0.213
-228.742	306.264	-0.125	-0.232
-227.727	345.955	0.162	0.315
-226.713	774.732	-0.090	0.243
-225.698	-200.000	0.059	0.437
-224.684	-39.137	-0.150	-0.078
-223.669	-25.438	0.096	-0.056
-222.655	-200.000	0.019	0.132
-221.640	-126.273	-0.059	0.009
-220.625	25.893	0.292	-0.242
-219.611	99.967	0.179	-0.206
-218.596	-140.839	0.188	0.019
-217.582	37.316	0.128	-0.112
-216.567	757.175	0.035	0.095
-215.552	-177.890	0.267	0.006
-214.538	-30.698	0.262	0.147
-213.523	33.171	-0.105	0.091
-212.509	283.758	-0.100	0.179
-211.494	-178.447	0.288	0.007
-210.479	464.593	-0.054	-0.119
-209.465	-55.187	-0.146	-0.065
-208.450	38.696	-0.205	-0.182
-207.436	669.532	-0.054	-0.138
-206.421	-200.000	0.020	-0.126
-205.406	144.155	-0.119	0.157
-204.392	-129.788	0.467	0.064
-203.377	465.189	-0.065	0.145
-202.363	-200.000	-0.005	-0.159
-201.348	165.746	0.031	0.043
-200.333	-200.000	-0.050	0.331
-199.319	-80.393	0.315	0.104
-198.304	21.994	-0.271	0.219
-197.290	-200.000	0.047	-0.255
-196.275	-26.088	-0.103	-0.060
-195.260	-200.000	0.003	-0.033
-194.246	-90.124	0.358	0.103
-193.231	282.130	0.133	0.237
-192.217	197.481	-0.328	-0.496
-191.202	-126.514	-0.160	-0.024
-190.187	-200.000	0.007	0.162
-189.173	150.790	0.163	-0.219
-188.158	-55.463	0.129	-0.057
-187.144	488.249	-0.084	-0.191
-186.129	268.553	0.152	0.264
-185.114	293.875	0.194	0.352
-184.100	212.262	-0.193	-0.302
-183.085	169.183	0.065	-0.092
-182.071	-60.184	0.185	0.078
-181.056	-152.199	0.255	-0.018
-180.042	181.488	0.138	-0.201
-179.027	-15.001	-0.251	0.160
-178.012	-77.766	-0.102	0.035
-176.998	-24.624	0.235	0.138
-175.983	511.804	-0.083	0.192
-174.969	22.559	0.280	-0.227
-173.954	-200.000	0.060	0.000
-172.939	-105.811	0.169	-0.038
-171.925	115.752	0.089	0.108
-170.910	-200.000	0.001	0.081
-169.896	221.494	-0.068	-0.109
-168.881	-200.000	-0.033	0.262
-167.866	22.904	-0.338	-0.274
-166.852	-41.030	0.231	-0.118
-165.837	589.540	0.150	0.366
-164.823	800.000	0.055	-0.188
-163.808	800.000	0.108	-0.354
-162.793	-20.546	-0.187	0.114
-161.779	205.824	-0.168	0.259
-160.764	-200.000	0.079	-0.365
-159.750	-166.694	0.187	-0.008
-158.735	153.716	-0.057	0.078
-157.720	-143.093	-0.231	-0.022
-156.706	-200.000	-0.033	0.262
-155.691	461.550	-0.098	0.217
-154.677	-73.990	0.051	-0.018
-153.662	196.169	0.253	0.381
-152.647	-193.194	-0.266	0.002
-151.633	469.811	-0.076	0.169
-150.618	-25.076	0.206	0.121
-149.604	-54.170	0.188	-0.085
-148.589	800.000	-0.068	0.236
-147.574	-17.315	0.231	0.144
-146.560	197.108	-0.063	0.095
-145.545	101.955	-0.033	-0.038
-144.531	661.594	-0.120	-0.307
-143.516	-6.796	-0.169	-0.114
-142.502	-11.970	0.230	0.149
-141.487	800.000	-0.067	0.202
-140.472	-59.556	0.270	0.115
-139.458	-50.646	-0.185	0.086
-138.443	-98.997	0.229	0.057
-137.429	701.705	0.130	-0.339
-136.414	800.000	0.114	0.448
-135.399	-200.000	0.008	-0.202
-134.385	800.000	0.023	-0.100
-133.370	-77.227	0.295	-0.101
-132.356	204.767	-0.193	0.295
-131.341	-56.588	0.043	-0.019
-130.326	800.000	0.065	0.259
-129.312	-79.954	-0.258	0.086
-128.297	-133.747	0.201	0.025
-127.283	-200.000	0.017	0.115
-126.268	312.801	-0.077	0.143
-125.253	265.438	0.042	0.072
-124.239	-75.708	0.404	-0.142
-123.224	-87.306	-0.156	0.047
-122.210	-114.594	-0.184	-0.035
-121.195	-200.000	-0.008	0.238
-120.180	13.973	0.390	-0.300
-119.166	324.770	0.235	-0.443
-118.151	-77.437	0.332	-0.114
-117.137	49.752	-0.153	-0.143
-116.122	-93.444	-0.384	0.105
-115.107	486.930	0.124	-0.279
-114.093	-106.475	0.067	-0.015
-113.078	-200.000	0.013	-0.199
-112.064	145.426	0.039	-0.052
-111.049	-156.884	-0.128	0.008
-110.034	-159.832	-0.035	0.002
-109.020	10.595	-0.188	0.141
-108.005	150.135	-0.135	0.182
-106.991	336.126	-0.065	0.125
-105.976	186.359	-0.099	-0.146
-104.962	330.302	-0.143	0.272
-103.947	312.664	-0.195	-0.361
-102.932	99.815	-0.164	0.187
-101.918	-117.259	0.130	0.023
-100.903	-112.286	0.333	-0.066
-99.889	91.562	-0.174	0.193
-98.874	-200.000	-0.031	0.321
-97.859	767.578	-0.107	0.287
-96.845	-151.354	-0.557	0.041
-95.830	88.671	0.169	0.185
-94.816	72.329	-0.104	-0.107
-93.801	53.783	-0.144	0.137
-92.786	-200.000	0.294	-0.000
-91.772	329.537	0.061	-0.115
-90.757	327.603	0.076	0.143
-89.743	-11.868	-0.274	-0.178
-88.728	135.494	0.182	0.234
-87.713	-88.296	0.097	-0.029
-86.699	800.000	0.039	0.119
-85.684	264.652	0.131	-0.225
-84.670	502.226	-0.031	-0.070
-83.655	-200.000	-0.053	-0.361
-82.640	322.487	-0.223	-0.419
-81.626	-200.000	0.037	0.216
-80.611	242.501	-0.111	0.183
-79.597	-200.000	0.067	0.396
-78.582	158.497	-0.078	-0.107
-77.567	229.797	-0.161	-0.259
-76.553	52.237	0.101	-0.095
-75.538	-143.832	0.273	0.025
-74.524	-200.000	0.016	0.100
-73.509	-200.000	0.012	0.073
-72.494	205.872	-0.219	0.337
-71.480	-29.799	0.379	0.213
-70.465	-48.837	-0.215	0.102
-69.451	17.686	-0.172	0.135
-68.436	15.406	-0.170	-0.132
-67.422	570.379	0.089	0.214
-66.407	253.522	-0.130	0.218
-65.392	-61.527	0.327	-0.136
-64.378	95.449	-0.061	0.068
-63.363	-46.751	0.155	0.075
-62.349	-159.323	-0.222	-0.012
-61.334	84.631	-0.970	-1.047
-60.319	279.218	0.139	0.245
-59.305	-200.000	-0.094	-0.865
-58.290	83.606	0.721	0.776
-57.276	516.015	0.670	1.543
-56.261	-200.000	95.642	544.916
-55.246	475.052	1438.757	3202.514
-54.232	145.179	2655.006	3502.878
-53.217	109.260	2220.364	2620.472
-52.203	44.729	1657.848	1503.422
-51.188	36.527	1388.343	1207.975
-50.173	33.367	1344.706	1150.791
-49.159	54.619	1391.150	1322.252
-48.144	56.804	1408.300	1351.985
-47.130	36.583	1367.114	1189.664
-46.115	33.323	1348.497	1153.585
-45.100	32.981	1344.358	1147.925
-44.086	32.973	1341.965	1145.788
-43.071	32.879	1339.804	1143.326
-42.057	32.822	1337.895	1141.306
-41.042	32.948	1336.063	1140.457
-40.027	32.979	1334.741	1139.470
-39.013	32.949	1332.895	1137.667
-37.998	32.968	1330.680	1135.847
-36.984	33.096	1328.738	1134.917
-35.969	33.083	1327.346	1133.606
-34.954	33.097	1325.420	1131.995
-33.940	33.094	1324.067	1130.780
-32.925	33.193	1322.456	1129.948
-31.911	33.118	1321.299	1128.471
-30.896	33.227	1319.358	1127.414
-29.881	33.172	1318.354	1126.182
-28.867	33.185	1316.415	1124.563
-27.852	33.179	1315.339	1123.560
-26.838	33.191	1313.834	1122.301
-25.823	33.189	1312.795	1121.362
-24.809	33.271	1310.663	1119.977
-23.794	33.090	1309.661	1118.010
-22.779	33.120	1308.480	1117.132
-21.765	33.144	1307.217	1116.150
-20.750	33.088	1306.351	1115.040
-19.736	33.010	1304.850	1113.251
-18.721	33.005	1303.453	1111.990
-17.706	33.066	1302.420	1111.419
-16.692	32.936	1301.198	1109.571
-15.677	32.985	1300.147	1108.919
-14.663	32.969	1299.136	1107.914
-13.648	32.960	1298.236	1107.056
-12.633	33.073	1296.856	1106.494
-11.619	32.968	1296.034	1105.136
-10.604	32.977	1295.189	1104.424
-9.590	33.002	1294.008	1103.518
-8.575	32.971	1293.199	1102.604
-7.560	33.043	1292.108	1102.049
-6.546	32.927	1291.448	1100.765
-5.531	33.000	1290.397	1100.251
-4.517	32.983	1289.524	1099.362
-3.502	32.987	1288.735	1098.669
-2.487	32.999	1287.946	1098.022
-1.473	32.986	1284.472	1094.942
-0.458	32.070	1269.340	1076.751
0.556	28.086	1251.744	1038.204
1.571	23.758	1257.383	1018.046
2.586	22.035	1271.484	1019.375
3.600	20.428	1259.056	1000.081
4.615	14.788	1182.499	908.600
5.629	5.788	1103.307	801.827
6.644	1.435	1082.609	764.842
7.659	1.030	1080.430	761.200
8.673	0.986	1079.448	760.220
9.688	0.949	1078.424	759.245
10.702	1.389	1076.254	759.849
11.717	6.000	1082.156	787.103
12.731	13.534	1092.366	832.454
13.746	17.240	1096.590	854.262
14.761	17.651	1096.478	856.163
15.775	16.993	1094.783	851.464
16.790	15.906	1092.847	844.435
17.804	15.198	1091.322	839.632
18.819	14.840	1090.162	836.874
19.834	14.515	1089.191	834.428
20.848	14.376	1088.034	832.771
21.863	14.115	1087.001	830.607
22.877	13.984	1086.294	829.340
23.892	13.851	1085.778	828.206
24.907	13.924	1084.718	827.688
25.921	13.980	1084.476	827.711
26.936	13.912	1083.280	826.389
27.950	13.841	1082.471	825.342
28.965	13.973	1081.482	825.173
29.980	14.000	1079.921	824.041
30.994	14.058	1078.988	823.543
32.009	14.102	1077.731	822.728
33.023	14.163	1076.978	822.386
34.038	14.187	1075.544	821.332
35.053	14.011	1075.284	820.194
36.067	14.016	1074.019	819.180
37.082	14.188	1072.771	819.003
38.096	14.046	1072.237	817.825
39.111	14.036	1071.500	817.141
40.126	13.958	1070.578	815.983
41.140	13.919	1069.635	815.000
42.155	13.919	1068.018	813.696
43.169	13.800	1067.364	812.544
44.184	13.759	1066.337	811.491
45.199	13.944	1064.589	810.993
46.213	13.869	1063.714	809.886
47.228	14.092	1062.595	810.052
48.242	13.949	1061.789	808.666
49.257	13.912	1061.086	807.881
50.271	13.888	1060.050	806.904
51.286	14.003	1059.101	806.670
52.301	14.030	1058.030	805.912
53.315	14.086	1057.040	805.359
54.330	13.920	1055.838	803.569
55.344	13.961	1055.388	803.353
56.359	13.905	1054.688	802.480
57.374	14.027	1053.530	802.113
58.388	13.899	1052.707	800.801
59.403	13.837	1052.212	800.053
60.417	13.794	1051.272	799.061
61.432	13.825	1050.235	798.350
62.447	13.771	1049.494	797.460
63.461	13.765	1048.524	796.621
64.476	13.712	1047.811	795.755
65.490	13.758	1047.062	795.336
66.505	13.827	1046.083	794.853
67.520	14.013	1045.103	794.927
68.534	13.985	1044.382	794.176
69.549	13.894	1043.918	793.316
70.563	13.861	1043.432	792.721
71.578	13.803	1042.627	791.759
72.593	13.788	1041.727	790.939
73.607	13.842	1040.733	790.368
74.622	13.817	1040.221	789.792
75.636	13.835	1039.339	789.138
76.651	13.777	1039.173	788.666
77.666	13.787	1038.311	787.989
78.680	13.784	1037.504	787.292
79.695	13.772	1037.165	786.909
80.709	13.827	1035.832	786.088
81.724	13.810	1035.575	785.746
82.739	13.933	1034.804	785.673
83.753	14.067	1034.158	785.742
84.768	14.022	1032.741	784.388
85.782	14.033	1032.227	783.980
86.797	13.989	1031.444	783.108
87.812	13.992	1030.133	782.057
88.826	14.022	1029.418	781.587
89.841	14.087	1028.020	780.762
90.855	14.073	1027.435	780.183
91.870	13.970	1027.016	779.311
92.884	14.070	1025.842	778.820
93.899	14.112	1024.861	778.201
94.914	14.145	1023.678	777.389
95.928	14.131	1023.023	776.758
96.943	14.066	1022.361	775.880
97.957	14.116	1021.264	775.217
98.972	14.154	1020.459	774.711
99.987	14.014	1020.016	773.657
101.001	14.176	1018.612	773.276
102.016	14.037	1017.696	771.866
103.030	14.059	1017.432	771.702
104.045	14.078	1016.311	770.869
105.060	14.047	1015.504	770.044
106.074	14.030	1014.732	769.313
107.089	13.933	1013.819	768.106
108.103	14.028	1012.445	767.433
109.118	14.041	1012.000	767.090
110.133	13.965	1011.142	766.018
111.147	13.936	1009.918	764.892
112.162	14.041	1009.076	764.669
113.176	13.955	1008.919	764.085
114.191	14.023	1007.556	763.297
115.206	14.101	1006.859	763.064
116.220	14.111	1005.779	762.220
117.235	14.019	1005.185	761.283
118.249	13.874	1004.680	760.170
119.264	14.072	1003.349	759.998
120.279	14.101	1002.678	759.555
121.293	14.063	1001.807	758.654
122.308	14.051	1001.142	758.031
123.322	14.083	999.994	757.239
124.337	14.075	998.951	756.350
125.352	14.048	997.623	755.154
126.366	14.085	996.612	754.486
127.381	14.148	995.420	753.805
128.395	14.095	994.613	752.887
129.410	14.111	994.008	752.435
130.424	14.092	992.736	751.321
131.439	14.213	992.111	751.328
132.454	14.110	991.489	750.325
133.468	14.194	990.469	749.864
134.483	14.094	989.539	748.644
135.497	14.234	988.598	748.495
136.512	14.088	987.918	747.257
137.527	14.128	987.248	746.866
138.541	14.133	986.477	746.237
139.556	14.094	985.952	745.599
140.570	14.200	984.871	745.192
141.585	14.173	984.415	744.660
142.600	14.271	982.876	743.869
143.614	14.204	982.169	742.967
144.629	14.398	981.341	743.139
145.643	14.165	980.787	741.615
146.658	14.221	979.833	741.079
147.673	14.126	978.870	739.861
148.687	14.246	977.816	739.534
149.702	14.172	977.269	738.725
150.716	14.095	976.671	737.868
151.731	14.178	975.842	737.544
152.746	14.302	974.966	737.363
153.760	14.246	974.323	736.565
154.775	14.299	973.783	736.325
155.789	14.342	972.956	735.825
156.804	14.280	972.165	734.891
157.819	14.345	971.354	734.497
158.833	14.369	970.924	734.213
159.848	14.448	969.810	733.652
160.862	14.382	968.987	732.677
161.877	14.405	968.153	732.083
162.892	14.277	967.363	730.858
163.906	14.207	966.467	729.810
164.921	14.382	965.719	729.947
165.935	14.347	964.584	728.871
166.950	14.393	963.441	728.145
167.964	14.465	962.934	728.012
168.979	14.318	961.988	726.589
169.994	14.419	961.303	726.450
171.008	14.446	960.787	726.112
172.023	14.439	959.751	725.231
173.037	14.479	959.037	724.802
174.052	14.458	958.383	724.153
175.067	14.467	957.725	723.633
176.081	14.441	957.205	723.065
177.096	14.456	956.672	722.661
178.110	14.447	955.971	722.028
179.125	14.331	955.554	721.147
180.140	14.410	954.940	720.963
181.154	14.498	954.599	721.023
182.169	14.615	953.938	720.966
183.183	14.615	953.008	720.197
184.198	14.712	952.112	719.872
185.213	14.725	951.364	719.301
186.227	14.606	950.659	718.191
187.242	14.670	949.967	717.880
188.256	14.746	949.382	717.703
189.271	14.656	948.359	716.479
190.286	14.532	947.903	715.539
191.300	14.623	947.027	715.203
192.315	14.502	946.532	714.249
193.329	14.546	945.751	713.783
194.344	14.633	945.365	713.801
195.359	14.488	944.792	712.687
196.373	14.759	943.770	713.010
197.388	14.788	943.647	712.978
198.402	14.682	943.041	712.006
199.417	14.917	941.944	712.115
200.432	14.851	941.724	711.605
201.446	14.903	941.171	711.346
202.461	14.893	941.015	711.121
203.475	14.915	940.356	710.653
204.490	14.910	939.370	709.823
205.504	14.921	938.353	709.041
206.519	14.897	937.763	708.429
207.534	14.900	937.133	707.905
208.548	14.961	936.028	707.265
209.563	14.930	935.460	706.640
210.577	14.882	935.261	706.226
211.592	14.958	934.526	705.928
212.607	15.099	933.335	705.561
213.621	15.020	932.537	704.562
214.636	15.029	932.161	704.253
215.650	15.084	931.282	703.757
216.665	15.080	930.462	703.060
217.680	15.032	929.815	702.309
218.694	15.194	929.250	702.497
219.709	15.146	928.420	701.609
220.723	15.166	927.495	700.929
221.738	15.110	927.481	700.623
222.753	15.135	926.639	700.030
223.767	15.306	925.574	699.876
224.782	15.318	925.228	699.602
225.796	15.309	924.724	699.122
226.811	15.262	924.023	698.335
227.826	15.260	923.449	697.832
228.840	15.176	922.911	697.013
229.855	15.204	921.850	696.266
230.869	15.143	921.250	695.501
231.884	15.254	920.406	695.260
232.899	15.266	919.280	694.397
233.913	15.283	918.612	693.904
234.928	15.394	917.842	693.718
235.942	15.163	917.654	692.561
236.957	15.235	917.174	692.433
237.972	15.372	916.437	692.383
238.986	15.285	916.002	691.633
240.001	15.211	915.729	691.059
241.015	15.391	914.465	690.785
242.030	15.293	913.982	689.959
243.045	15.407	913.319	689.867
244.059	15.463	912.355	689.307
245.074	15.469	911.875	688.904
246.088	15.454	911.458	688.468
247.103	15.481	910.829	688.042
248.117	15.508	910.219	687.632
249.132	15.531	909.658	687.240
250.147	15.661	908.723	687.004
251.161	15.634	908.292	686.511
252.176	15.585	907.399	685.576
253.190	15.588	906.425	684.791
254.205	15.642	905.984	684.614
255.220	15.672	905.551	684.348
256.234	15.767	904.466	683.856
257.249	15.821	903.948	683.622
258.263	15.772	903.111	682.732
259.278	15.740	902.712	682.238
260.293	15.790	901.810	681.698
261.307	15.729	901.767	681.360
262.322	15.908	900.892	681.363
263.336	15.840	900.290	680.572
264.351	15.835	899.257	679.709
265.366	15.878	898.675	679.384
266.380	15.764	898.247	678.541
267.395	15.847	897.445	678.210
268.409	16.013	896.458	678.073
269.424	15.947	895.548	677.056
270.439	16.021	894.886	676.796
271.453	15.972	894.500	676.247
272.468	16.035	893.815	675.920
273.482	16.112	893.068	675.606
274.497	16.007	892.456	674.660
275.512	15.919	892.364	674.180
276.526	16.177	891.454	674.465
277.541	16.015	891.330	673.665
278.555	16.139	890.137	673.199
279.570	16.130	889.652	672.736
280.585	16.030	889.376	672.067
281.599	16.041	888.351	671.279
282.614	16.261	887.156	671.191
283.628	16.164	886.815	670.489
284.643	16.166	886.457	670.165
285.657	16.215	886.110	670.039
286.672	16.334	885.259	669.807
287.687	16.172	884.670	668.659
288.701	16.204	884.182	668.358
289.716	16.314	883.137	667.944
290.730	16.126	882.976	667.019
291.745	16.319	882.328	667.235
292.760	16.355	881.982	667.058
293.774	16.251	881.340	666.101
294.789	16.456	880.034	665.864
295.803	16.394	879.496	665.154
296.818	16.390	878.828	664.572
297.833	16.346	878.125	663.811
298.847	16.311	877.695	663.287
299.862	16.287	877.090	662.680
300.876	16.413	876.417	662.607
301.891	16.458	875.713	662.190
302.906	16.421	875.386	661.741
303.920	16.531	874.848	661.706
304.935	16.637	874.059	661.465
305.949	16.694	873.098	660.901
306.964	16.526	872.707	659.893
307.979	16.784	872.071	660.356
308.993	16.562	871.750	659.191
310.008	16.683	870.462	658.631
311.022	16.660	870.658	658.629
312.037	16.670	869.998	658.111
313.052	16.629	869.355	657.406
314.066	16.564	868.600	656.528
315.081	16.623	868.380	656.530
316.095	16.708	867.982	656.500
317.110	16.667	866.998	655.541
318.125	16.681	866.532	655.186
319.139	16.608	866.397	654.741
320.154	16.726	865.673	654.594
321.168	16.577	865.307	653.683
322.183	16.766	864.342	653.626
323.197	16.669	864.256	653.128
324.212	16.696	863.324	652.470
325.227	16.836	862.568	652.379
326.241	16.694	862.404	651.653
327.256	16.776	861.655	651.345
328.270	16.699	861.060	650.539
329.285	16.753	860.425	650.211
330.300	16.793	859.850	649.872
331.314	16.852	859.099	649.472
332.329	16.816	858.781	649.035
333.343	16.782	858.238	648.439
334.358	16.933	857.879	648.688
335.373	16.893	857.668	648.316
336.387	17.057	856.967	648.358
337.402	16.916	856.957	647.755
338.416	16.897	857.000	647.658
339.431	16.914	856.012	646.916
340.446	17.008	855.661	646.953
341.460	16.959	855.350	646.473
342.475	16.995	854.968	646.263
343.489	16.999	854.566	645.918
344.504	17.050	854.144	645.736
345.519	17.236	853.320	645.764
346.533	17.087	853.252	645.087
347.548	17.237	852.297	644.880
348.562	17.165	851.661	644.067
349.577	17.086	851.313	643.448
350.592	17.001	850.564	642.502
351.606	17.205	849.566	642.463
352.621	17.148	849.105	641.844
353.635	17.143	848.643	641.418
354.650	17.280	847.817	641.255
355.665	17.275	847.083	640.623
356.679	17.114	846.526	639.538
357.694	17.331	845.949	639.863
358.708	17.295	845.259	639.149
359.723	17.364	844.736	638.956
360.738	17.391	844.071	638.500
361.752	17.313	843.852	637.984
362.767	17.490	842.781	637.781
363.781	17.333	842.730	637.097
364.796	17.473	841.952	636.975
365.810	17.470	841.568	636.619
366.825	17.499	841.258	636.436
367.840	17.464	841.152	636.170
368.854	17.537	840.546	635.926
369.869	17.547	839.726	635.288
370.883	17.572	839.650	635.268
371.898	17.440	839.398	634.527
372.913	17.575	838.869	634.575
373.927	17.433	838.672	633.840
374.942	17.433	837.987	633.268
375.956	17.626	836.992	633.176
376.971	17.635	837.154	633.275
377.986	17.743	836.289	632.965
379.000	17.852	835.757	632.911
380.015	17.667	835.425	631.920
381.029	17.868	834.690	632.053
382.044	17.848	833.990	631.393
383.059	17.798	833.416	630.716
384.073	17.795	833.067	630.384
385.088	17.765	832.472	629.769
386.102	17.746	832.179	629.422
387.117	17.777	831.450	628.927
388.132	17.870	830.827	628.743
389.146	17.937	830.118	628.398
390.161	18.008	829.288	627.977
391.175	17.844	829.623	627.570
392.190	17.849	828.626	626.780
393.205	17.849	828.414	626.562
394.219	17.856	827.702	625.997
395.234	17.934	827.399	625.996
396.248	17.741	827.251	625.123
397.263	17.893	826.532	625.081
398.278	17.931	826.379	625.049
399.292	17.988	825.780	624.747
400.307	17.913	825.615	624.293
401.321	17.875	824.872	623.538
402.336	18.076	824.510	623.944
403.350	17.926	823.931	622.901
404.365	18.057	823.273	622.825
405.380	18.058	822.938	622.523
406.394	17.987	822.441	621.833
407.409	18.052	822.213	621.843
408.423	18.242	821.528	621.959
409.438	18.165	821.365	621.503
410.453	18.088	821.096	620.963
411.467	18.188	820.541	620.850
412.482	18.136	820.352	620.463
413.496	18.210	819.673	620.164
414.511	18.290	819.153	620.005
415.526	18.356	818.898	619.996
416.540	18.405	818.184	619.580
417.555	18.436	817.697	619.268
418.569	18.357	817.386	618.692
419.584	18.401	817.023	618.520
420.599	18.523	816.146	618.241
421.613	107.999	1288.332	1454.890
422.628	93.400	1357.103	1454.982
