DTS Sentinel unit serial number:	SN413079Multiplexer serial number:	ORYXHardware model number:	OX4-SRSoftware version number:	ORYX F/W v4.00 Oryx Data Collector v3.7.2.0data status	okinstallation	princeton_trtdifferential loss correction	single-endedforward channel	channel 1reverse channel	N/Adate	2019/09/10time	19:44:11forward acquisition time	60.00reverse acquisition time	0.00gamma	496.2192k internal	0.2322k external	0.2322temperature offset calibration	0.9931default loss term (dB/km)	0.3790temperature slope calibration	1.0000multiplexer offset coefficient	1.0000multiplexer slope coefficient	1.0000fibre end	0.00T internal ref (°C)	33.06T ext. ref 1 (°C)	-0.31T ext. ref 2 (°C)	25.94length (m)	temperature (°C)	Stokes	anti-Stokes-747.200	-109.551	-0.199	0.043
-746.185	128.786	-0.094	0.121
-745.171	-200.000	-0.003	0.502
-744.156	72.437	-0.083	0.087
-743.142	24.109	0.104	0.086
-742.127	-32.297	-0.115	0.065
-741.112	45.761	-0.021	0.020
-740.098	-85.552	-0.227	0.071
-739.083	456.466	-0.032	0.071
-738.069	-200.000	0.037	0.248
-737.054	170.512	-0.075	0.109
-736.039	-200.000	-0.014	-0.309
-735.025	162.928	0.066	0.093
-734.010	218.533	-0.151	-0.244
-732.996	70.434	-0.294	-0.307
-731.981	-2.854	0.148	0.104
-730.966	-106.792	0.080	0.018
-729.952	-129.650	0.324	0.045
-728.937	-4.428	-0.284	-0.198
-727.923	52.073	-0.111	0.106
-726.908	46.480	-0.054	-0.050
-725.894	800.000	-0.079	0.322
-724.879	-79.859	0.230	0.078
-723.864	-177.565	-0.155	-0.004
-722.850	-6.484	-0.317	-0.218
-721.835	-77.059	-0.377	-0.133
-720.821	-88.703	-0.238	0.071
-719.806	-80.450	-0.482	0.162
-718.791	717.827	-0.100	-0.268
-717.777	-200.000	0.007	0.190
-716.762	-51.042	-0.115	0.055
-715.748	-64.218	-0.393	0.162
-714.733	-200.000	-0.066	-0.431
-713.718	-200.000	-0.005	-0.106
-712.704	215.062	-0.011	-0.018
-711.689	-102.092	-0.113	-0.027
-710.675	385.846	-0.032	0.068
-709.660	800.000	-0.084	0.248
-708.645	24.703	-0.167	-0.140
-707.631	-200.000	-0.000	0.137
-706.616	-70.170	-0.316	0.121
-705.602	212.660	-0.175	0.278
-704.587	-78.547	0.283	0.098
-703.572	20.313	-0.179	0.146
-702.558	-58.752	0.111	-0.049
-701.543	-47.958	-0.095	-0.046
-700.529	284.572	0.022	-0.041
-699.514	127.114	-0.092	-0.118
-698.499	-200.000	-0.019	0.221
-697.485	-200.000	0.014	-0.166
-696.470	800.000	-0.047	0.160
-695.456	87.464	-0.331	0.370
-694.441	-53.854	0.256	0.118
-693.426	-200.000	0.012	-0.353
-692.412	-91.477	-0.377	0.109
-691.397	89.489	0.061	-0.069
-690.383	-12.557	-0.190	0.125
-689.368	-83.558	-0.458	0.148
-688.354	800.000	0.029	-0.090
-687.339	800.000	-0.089	0.374
-686.324	-55.152	-0.259	-0.117
-685.310	-58.964	-0.421	-0.183
-684.295	3.451	0.124	-0.091
-683.281	-11.415	-0.061	0.041
-682.266	194.000	-0.217	0.331
-681.251	99.542	-0.079	0.092
-680.237	-200.000	0.016	-0.105
-679.222	-99.763	0.343	0.087
-678.208	47.644	0.168	-0.158
-677.193	-115.082	-0.442	-0.085
-676.178	190.703	0.084	0.127
-675.164	800.000	0.054	0.169
-674.149	-151.492	-0.019	-0.001
-673.135	800.000	-0.125	0.352
-672.120	33.956	0.018	0.016
-671.105	-51.248	-0.347	-0.164
-670.091	-58.300	0.398	-0.175
-669.076	-200.000	-0.012	-0.210
-668.062	-74.934	-0.136	-0.049
-667.047	800.000	-0.054	-0.173
-666.032	137.208	0.283	-0.373
-665.018	-140.223	0.219	-0.023
-664.003	212.159	0.164	-0.261
-662.989	14.781	-0.178	0.140
-661.974	74.772	-0.144	-0.152
-660.959	188.933	0.041	-0.062
-659.945	218.863	-0.197	0.317
-658.930	-62.537	-0.376	-0.157
-657.916	297.276	-0.181	0.335
-656.901	800.000	-0.061	0.256
-655.886	292.530	0.113	0.207
-654.872	-104.312	-0.106	0.025
-653.857	629.502	-0.021	0.055
-652.843	-200.000	-0.030	0.132
-651.828	-200.000	-0.041	0.263
-650.814	-30.874	-0.083	0.047
-649.799	100.507	0.181	0.212
-648.784	-56.042	0.165	-0.074
-647.770	-80.001	-0.091	0.031
-646.755	-83.007	0.256	0.083
-645.741	800.000	0.055	0.184
-644.726	154.965	-0.282	-0.390
-643.711	-116.427	-0.175	-0.033
-642.697	761.906	-0.081	0.222
-641.682	62.836	-0.153	-0.154
-640.668	-126.446	-0.123	-0.018
-639.653	800.000	0.019	0.067
-638.638	-48.529	-0.181	0.088
-637.624	-200.000	0.052	-0.319
-636.609	660.893	-0.138	0.356
-635.595	-107.608	0.129	-0.028
-634.580	-200.000	-0.006	-0.099
-633.565	-200.000	-0.032	0.150
-632.551	136.065	-0.169	-0.222
-631.536	-95.467	0.130	0.035
-630.522	-31.306	-0.217	-0.123
-629.507	-101.478	0.143	0.035
-628.492	-103.461	-0.078	-0.019
-627.478	120.926	-0.187	0.234
-626.463	-67.066	-0.268	0.106
-625.449	419.117	0.134	0.288
-624.434	800.000	-0.050	0.212
-623.419	105.572	-0.257	0.306
-622.405	-200.000	0.006	0.136
-621.390	-63.048	0.111	0.046
-620.376	118.017	-0.150	-0.186
-619.361	-200.000	0.042	0.288
-618.346	601.510	-0.054	0.134
-617.332	-73.992	-0.132	0.048
-616.317	180.287	-0.033	0.048
-615.303	-15.914	-0.045	-0.029
-614.288	-34.971	-0.194	-0.107
-613.273	-67.750	-0.312	-0.123
-612.259	-200.000	0.003	-0.295
-611.244	-200.000	0.019	-0.126
-610.230	147.102	0.102	0.138
-609.215	-130.589	-0.304	0.041
-608.201	-35.399	0.200	0.109
-607.186	800.000	0.140	0.471
-606.171	-105.182	0.390	0.090
-605.157	35.619	-0.177	-0.156
-604.142	-34.487	0.406	-0.223
-603.128	315.683	-0.074	0.140
-602.113	-96.597	-0.045	-0.012
-601.098	109.189	-0.123	0.148
-600.084	-19.211	0.110	-0.069
-599.069	72.182	-0.150	0.157
-598.055	110.069	-0.038	-0.045
-597.040	68.158	0.232	-0.238
-596.025	-200.000	0.003	-0.437
-595.011	-71.965	-0.319	0.119
-593.996	-200.000	0.053	-0.518
-592.982	800.000	-0.057	0.187
-591.967	-200.000	0.028	-0.199
-590.952	126.330	-0.218	-0.277
-589.938	610.756	-0.033	0.083
-588.923	24.145	-0.278	0.231
-587.909	-47.627	-0.117	0.057
-586.894	800.000	-0.055	-0.196
-585.879	800.000	0.047	-0.207
-584.865	294.719	0.197	-0.362
-583.850	50.355	0.057	-0.054
-582.836	-200.000	0.006	-0.044
-581.821	-56.950	0.191	0.085
-580.806	-95.856	0.222	-0.059
-579.792	592.963	0.076	-0.189
-578.777	422.171	-0.055	0.118
-577.763	6.143	0.161	-0.120
-576.748	-36.648	-0.108	-0.058
-575.733	-70.810	-0.315	0.119
-574.719	-60.155	-0.175	0.075
-573.704	-200.000	-0.007	-0.260
-572.690	137.421	0.223	-0.292
-571.675	-92.560	0.447	-0.126
-570.661	-68.507	-0.027	-0.010
-569.646	-100.782	-0.129	-0.032
-568.631	-38.407	-0.216	0.115
-567.617	-29.413	0.379	-0.218
-566.602	39.801	0.141	-0.127
-565.588	-1.971	-0.115	-0.081
-564.573	206.534	-0.054	0.085
-563.558	-90.703	-0.300	-0.087
-562.544	-18.585	-0.211	-0.132
-561.529	-90.846	-0.189	-0.055
-560.515	-94.091	0.252	0.069
-559.500	12.014	-0.153	-0.118
-558.485	-56.952	-0.201	0.089
-557.471	-143.060	-0.494	0.048
-556.456	523.224	-0.096	-0.227
-555.442	-143.251	0.190	0.018
-554.427	-47.072	-0.217	0.106
-553.412	-65.239	-0.097	-0.039
-552.398	93.523	-0.118	0.134
-551.383	-158.894	-0.069	0.004
-550.369	50.364	-0.077	-0.073
-549.354	-200.000	0.006	-0.054
-548.339	800.000	-0.069	0.221
-547.325	150.087	0.133	0.181
-546.310	-132.877	-0.261	0.033
-545.296	-200.000	0.031	-0.202
-544.281	46.595	-0.290	-0.270
-543.266	-7.617	0.153	0.104
-542.252	800.000	-0.018	0.072
-541.237	-167.144	-0.455	-0.019
-540.223	800.000	0.022	-0.066
-539.208	-36.656	0.228	-0.123
-538.193	119.460	0.086	0.106
-537.179	-39.405	-0.377	-0.198
-536.164	-102.833	0.024	-0.006
-535.150	800.000	0.077	0.261
-534.135	800.000	-0.106	0.427
-533.121	131.315	0.257	0.331
-532.106	676.490	0.148	-0.386
-531.091	800.000	0.029	0.097
-530.077	-119.685	0.251	-0.043
-529.062	-200.000	-0.041	0.292
-528.048	227.382	-0.224	0.365
-527.033	-118.231	-0.291	0.052
-526.018	-200.000	-0.016	-0.174
-525.004	129.517	0.187	0.240
-523.989	44.398	0.062	-0.057
-522.975	-172.341	-0.039	0.001
-521.960	-8.982	-0.240	0.161
-520.945	-51.819	0.372	-0.173
-519.931	626.391	0.065	0.163
-518.916	-200.000	0.005	0.053
-517.902	-34.493	0.187	0.102
-516.887	-18.909	0.158	0.098
-515.872	324.207	-0.040	0.077
-514.858	-7.281	-0.297	-0.201
-513.843	-200.000	0.043	-0.274
-512.829	482.983	-0.041	-0.093
-511.814	800.000	-0.065	-0.241
-510.799	150.877	-0.259	0.353
-509.785	78.953	-0.216	-0.231
-508.770	62.922	0.100	-0.100
-507.756	-200.000	0.061	0.406
-506.741	-200.000	0.024	0.211
-505.726	-170.360	-0.124	0.004
-504.712	-120.734	-0.026	0.004
-503.697	160.570	0.118	-0.164
-502.683	-133.658	-0.203	-0.025
-501.668	800.000	-0.096	-0.328
-500.653	-181.296	0.042	-0.001
-499.639	-200.000	-0.023	-0.181
-498.624	-91.405	0.401	-0.115
-497.610	18.849	-0.286	-0.229
-496.595	-100.522	0.216	-0.053
-495.581	-200.000	-0.078	-0.445
-494.566	-38.003	0.419	-0.223
-493.551	123.622	-0.100	0.126
-492.537	78.203	0.323	-0.345
-491.522	16.126	0.186	-0.146
-490.508	-26.412	-0.226	-0.133
-489.493	471.705	0.053	-0.120
-488.478	-59.786	-0.035	-0.015
-487.464	-85.241	0.239	0.075
-486.449	-200.000	-0.065	0.302
-485.435	-19.660	-0.221	0.136
-484.420	-200.000	-0.010	0.411
-483.405	-195.300	0.153	-0.001
-482.391	-47.169	0.149	-0.073
-481.376	377.212	-0.072	0.148
-480.362	132.066	-0.109	0.140
-479.347	177.514	-0.124	0.181
-478.332	-67.414	-0.243	0.095
-477.318	-21.689	-0.119	0.072
-476.303	-45.014	0.113	0.056
-475.289	-41.549	-0.179	0.092
-474.274	-180.094	-0.332	0.007
-473.259	504.282	0.096	0.222
-472.245	-200.000	-0.041	0.252
-471.230	243.969	-0.115	-0.194
-470.216	-153.071	0.350	-0.025
-469.201	-200.000	-0.026	0.150
-468.186	160.280	-0.159	-0.222
-467.172	-150.502	-0.207	-0.016
-466.157	-138.282	0.227	0.025
-465.143	800.000	0.024	0.082
-464.128	800.000	0.069	-0.256
-463.113	-200.000	-0.054	-0.294
-462.099	-200.000	0.016	0.185
-461.084	717.348	-0.059	0.156
-460.070	407.344	0.129	-0.273
-459.055	28.747	0.075	-0.063
-458.040	-22.563	0.127	-0.077
-457.026	-200.000	-0.022	0.286
-456.011	45.231	-0.117	0.108
-454.997	-200.000	0.008	-0.071
-453.982	-124.900	0.080	0.012
-452.968	-11.804	0.307	-0.201
-451.953	-49.199	-0.329	-0.157
-450.938	-67.839	0.148	-0.058
-449.924	-11.327	0.130	-0.086
-448.909	-128.910	0.289	0.041
-447.895	440.476	0.096	-0.209
-446.880	187.732	-0.152	-0.226
-445.865	-34.761	0.169	-0.092
-444.851	-200.000	0.013	0.283
-443.836	-7.372	0.115	0.078
-442.822	800.000	-0.034	-0.117
-441.807	95.870	0.079	0.091
-440.792	800.000	-0.055	0.224
-439.778	-48.628	0.098	0.047
-438.763	800.000	-0.008	-0.030
-437.749	-166.533	-0.412	-0.017
-436.734	389.001	0.059	0.122
-435.719	-5.834	-0.035	0.024
-434.705	800.000	-0.150	0.456
-433.690	-120.196	0.347	-0.059
-432.676	330.726	-0.070	-0.135
-431.661	-200.000	0.025	0.236
-430.646	162.404	0.042	0.059
-429.632	800.000	0.007	0.026
-428.617	260.192	0.148	-0.255
-427.603	0.008	-0.183	-0.130
-426.588	-112.888	0.344	0.068
-425.573	-153.072	-0.219	0.015
-424.559	-200.000	0.007	-0.051
-423.544	74.587	0.079	-0.083
-422.530	-102.670	0.165	-0.039
-421.515	75.860	-0.087	-0.092
-420.500	-133.469	-0.138	0.017
-419.486	-86.882	0.193	0.059
-418.471	-141.540	0.140	0.014
-417.457	800.000	0.069	-0.195
-416.442	205.643	-0.092	-0.143
-415.428	800.000	-0.081	0.244
-414.413	-43.500	0.187	-0.094
-413.398	-58.218	0.227	-0.099
-412.384	-127.971	0.086	-0.012
-411.369	800.000	0.081	-0.232
-410.355	143.860	0.091	0.120
-409.340	231.911	-0.224	0.367
-408.325	-4.919	0.352	-0.242
-407.311	-10.748	-0.191	-0.126
-406.296	-200.000	0.064	0.286
-405.282	251.405	0.141	-0.239
-404.267	800.000	-0.085	-0.239
-403.252	-31.147	0.199	0.112
-402.238	-62.275	-0.059	0.024
-401.223	293.679	-0.104	-0.190
-400.209	-105.667	0.153	0.034
-399.194	-200.000	0.019	0.095
-398.179	-123.838	-0.031	0.005
-397.165	800.000	0.088	-0.303
-396.150	-93.357	-0.072	-0.020
-395.136	192.382	-0.118	-0.178
-394.121	718.818	-0.048	-0.128
-393.106	-200.000	-0.004	0.059
-392.092	-129.892	0.194	0.026
-391.077	27.487	0.022	-0.018
-390.063	250.301	0.081	-0.138
-389.048	52.712	-0.314	0.299
-388.033	38.093	0.005	0.005
-387.019	-200.000	0.049	-0.266
-386.004	800.000	-0.102	-0.282
-384.990	-57.800	0.151	-0.066
-383.975	-159.488	-0.258	0.014
-382.960	53.137	0.237	-0.226
-381.946	-200.000	-0.019	0.182
-380.931	-0.614	0.147	0.104
-379.917	122.005	0.059	-0.073
-378.902	-83.294	0.365	-0.117
-377.888	11.110	0.015	-0.012
-376.873	36.684	0.476	0.419
-375.858	657.993	-0.095	-0.244
-374.844	8.822	-0.250	0.188
-373.829	205.315	0.198	-0.306
-372.815	-45.531	-0.206	0.101
-371.800	800.000	-0.141	0.481
-370.785	800.000	-0.044	0.127
-369.771	7.149	-0.092	0.068
-368.756	117.541	-0.129	0.157
-367.742	-200.000	-0.018	-0.117
-366.727	92.167	0.032	0.036
-365.712	347.351	0.124	-0.242
-364.698	-200.000	-0.036	0.209
-363.683	-144.664	-0.235	0.022
-362.669	55.775	-0.177	-0.171
-361.654	-118.526	-0.296	-0.052
-360.639	282.108	0.247	0.441
-359.625	298.631	-0.105	0.193
-358.610	41.916	-0.037	0.033
-357.596	-82.383	-0.159	-0.051
-356.581	-43.078	0.183	-0.092
-355.566	505.179	-0.095	0.218
-354.552	-79.089	-0.150	-0.051
-353.537	64.127	-0.082	0.082
-352.523	-20.184	0.171	-0.105
-351.508	-7.819	0.131	-0.088
-350.493	-93.954	0.143	0.039
-349.479	-145.224	-0.136	-0.012
-348.464	-105.721	-0.112	0.025
-347.450	755.139	0.125	0.337
-346.435	706.398	-0.115	-0.303
-345.420	-9.390	0.092	0.061
-344.406	800.000	0.012	0.037
-343.391	-200.000	-0.012	-0.097
-342.377	-200.000	0.032	-0.338
-341.362	753.241	0.103	0.276
-340.348	-30.102	-0.250	0.141
-339.333	269.308	-0.083	-0.145
-338.318	616.082	0.064	-0.159
-337.304	-126.291	0.299	-0.044
-336.289	-99.227	-0.359	-0.090
-335.275	-123.248	0.225	0.036
-334.260	279.421	0.152	-0.270
-333.245	-200.000	-0.073	-0.358
-332.231	800.000	-0.077	-0.254
-331.216	800.000	0.044	-0.168
-330.202	-169.502	0.178	-0.006
-329.187	-109.012	0.223	0.047
-328.172	147.063	0.138	-0.184
-327.158	115.759	-0.074	0.090
-326.143	-165.142	0.342	0.015
-325.129	-79.624	-0.112	-0.038
-324.114	108.842	-0.315	0.374
-323.099	-40.438	0.371	0.192
-322.085	400.332	-0.136	0.283
-321.070	-87.135	0.166	0.050
-320.056	-200.000	-0.005	0.224
-319.041	-137.668	-0.146	-0.016
-318.026	726.427	-0.158	0.419
-317.012	-82.893	-0.355	-0.114
-315.997	800.000	-0.019	-0.052
-314.983	-200.000	-0.010	-0.112
-313.968	32.080	-0.250	0.214
-312.953	0.837	0.223	-0.159
-311.939	341.291	-0.088	0.170
-310.924	-112.084	-0.246	0.049
-309.910	17.083	0.008	0.007
-308.895	-11.879	0.268	0.175
-307.880	538.547	-0.068	0.160
-306.866	153.305	-0.201	-0.273
-305.851	800.000	0.068	-0.231
-304.837	-144.543	0.209	0.019
-303.822	-200.000	0.010	0.127
-302.807	37.282	-0.100	-0.088
-301.793	-158.713	-0.423	0.024
-300.778	139.607	0.259	-0.339
-299.764	258.913	0.088	0.150
-298.749	-32.886	-0.354	0.195
-297.735	-200.000	-0.035	-0.191
-296.720	69.632	0.048	-0.049
-295.705	-54.736	0.127	-0.057
-294.691	-175.182	-0.101	-0.003
-293.676	-200.000	-0.014	-0.065
-292.662	-15.273	-0.152	-0.096
-291.647	-34.701	-0.247	0.134
-290.632	-158.597	0.124	-0.007
-289.618	497.594	-0.137	-0.313
-288.603	198.223	-0.171	0.260
-287.589	-22.828	-0.257	-0.154
-286.574	-200.000	0.003	0.171
-285.559	13.714	-0.059	0.046
-284.545	204.435	0.090	0.139
-283.530	800.000	-0.045	0.140
-282.516	-200.000	0.058	0.258
-281.501	98.734	-0.167	0.191
-280.486	-96.771	-0.207	0.054
-279.472	106.841	0.151	0.178
-278.457	-200.000	-0.025	0.194
-277.443	133.842	0.080	0.103
-276.428	-200.000	0.002	0.170
-275.413	-127.791	0.019	0.003
-274.399	-147.758	-0.093	0.008
-273.384	800.000	-0.062	-0.186
-272.370	44.909	0.256	-0.233
-271.355	-78.047	0.352	-0.120
-270.340	-81.265	0.166	-0.054
-269.326	-200.000	-0.034	-0.274
-268.311	-141.968	-0.157	0.015
-267.297	-112.297	0.334	0.066
-266.282	-152.700	0.358	0.025
-265.267	265.645	-0.081	-0.139
-264.253	289.837	0.078	-0.141
-263.238	800.000	0.043	0.181
-262.224	247.745	0.235	-0.393
-261.209	18.329	-0.216	0.171
-260.195	800.000	0.082	-0.311
-259.180	249.712	0.168	-0.283
-258.165	-48.573	0.238	-0.114
-257.151	-73.499	-0.354	0.128
-256.136	-117.541	-0.229	-0.041
-255.122	115.277	0.145	-0.175
-254.107	-50.132	0.205	0.096
-253.092	-200.000	0.042	-0.278
-252.078	319.470	-0.237	0.445
-251.063	-200.000	-0.004	-0.070
-250.049	-55.017	0.217	-0.097
-249.034	249.530	0.020	0.033
-248.019	-83.806	0.272	-0.086
-247.005	-200.000	0.022	0.168
-245.990	249.088	0.092	0.155
-244.976	-200.000	-0.009	0.203
-243.961	-14.357	-0.199	-0.127
-242.946	-8.992	-0.168	0.112
-241.932	179.524	0.189	-0.275
-240.917	250.944	-0.077	0.129
-239.903	60.446	0.258	-0.253
-238.888	-100.040	0.289	-0.071
-237.873	261.645	0.079	0.135
-236.859	-125.177	0.213	-0.032
-235.844	-200.000	-0.017	0.177
-234.830	503.901	-0.071	0.164
-233.815	496.926	0.098	-0.223
-232.800	-200.000	-0.011	0.310
-231.786	-120.778	0.299	0.050
-230.771	-200.000	0.023	0.225
-229.757	-200.000	-0.002	0.014
-228.742	2.286	-0.139	0.100
-227.727	412.535	0.116	-0.244
-226.713	107.505	0.165	-0.194
-225.698	-131.221	0.258	-0.034
-224.684	-146.970	-0.043	0.004
-223.669	519.966	-0.112	0.260
-222.655	-148.491	0.210	-0.017
-221.640	-200.000	-0.024	-0.124
-220.625	724.116	0.053	0.139
-219.611	-149.202	-0.262	-0.021
-218.596	-200.000	0.048	-0.303
-217.582	800.000	0.029	-0.083
-216.567	238.736	-0.243	0.399
-215.552	-200.000	-0.018	0.232
-214.538	-140.799	0.247	-0.025
-213.523	35.247	0.250	0.217
-212.509	-200.000	-0.079	0.381
-211.494	121.244	0.036	0.044
-210.479	162.206	-0.113	-0.157
-209.465	-20.903	-0.059	0.036
-208.450	-200.000	0.056	0.500
-207.436	701.811	-0.040	0.105
-206.421	-200.000	0.019	-0.094
-205.406	123.995	0.232	-0.288
-204.392	142.977	-0.076	0.100
-203.377	-200.000	0.060	-0.266
-202.363	648.604	-0.096	0.242
-201.348	-171.285	-0.216	0.007
-200.333	65.251	0.126	0.126
-199.319	-200.000	-0.020	-0.170
-198.304	-200.000	-0.095	-0.730
-197.290	95.129	-0.157	0.177
-196.275	231.086	-0.094	0.152
-195.260	-135.570	0.057	0.007
-194.246	686.860	-0.131	0.340
-193.231	-76.473	0.212	-0.074
-192.217	800.000	-0.240	-0.661
-191.202	552.414	0.132	-0.313
-190.187	755.199	-0.061	-0.163
-189.173	-123.324	0.271	0.043
-188.158	800.000	0.044	0.168
-187.144	520.431	-0.041	0.094
-186.129	-83.829	-0.369	-0.116
-185.114	1.121	-0.142	0.101
-184.100	-137.114	0.081	-0.009
-183.085	109.803	0.222	0.263
-182.071	-140.869	0.306	0.031
-181.056	207.637	0.004	-0.006
-180.042	36.016	-0.093	0.081
-179.027	24.513	-0.110	-0.090
-178.012	106.270	-0.075	0.088
-176.998	711.040	0.032	-0.084
-175.983	-178.091	0.410	-0.010
-174.969	138.763	0.133	0.173
-173.954	-25.242	0.165	-0.097
-172.939	398.379	-0.069	-0.142
-171.925	-137.400	0.342	-0.038
-170.910	-87.242	0.137	0.041
-169.896	-189.219	0.071	-0.001
-168.881	-139.050	0.172	-0.018
-167.866	-200.000	0.075	0.414
-166.852	19.062	-0.110	-0.087
-165.837	49.302	-0.203	0.188
-164.823	532.179	0.120	0.281
-163.808	787.788	-0.110	-0.297
-162.793	16.186	-0.053	0.041
-161.779	-200.000	-0.001	-0.093
-160.764	-152.888	-0.297	-0.021
-159.750	15.268	-0.036	0.028
-158.735	800.000	0.020	0.071
-157.720	21.835	-0.066	0.053
-156.706	296.056	-0.156	0.282
-155.691	149.840	0.142	0.190
-154.677	-200.000	0.042	-0.245
-153.662	-200.000	-0.012	0.148
-152.647	-46.196	-0.101	-0.049
-151.633	-114.233	-0.145	-0.028
-150.618	-200.000	0.004	0.030
-149.604	249.430	-0.093	-0.156
-148.589	-29.834	-0.246	0.139
-147.574	-200.000	0.011	-0.085
-146.560	800.000	-0.058	0.220
-145.545	-40.206	0.124	-0.063
-144.531	-117.684	-0.121	0.022
-143.516	414.411	-0.134	0.281
-142.502	-60.858	-0.095	-0.040
-141.487	421.524	-0.195	0.413
-140.472	-137.377	0.079	0.009
-139.458	800.000	0.066	-0.231
-138.443	17.691	0.424	0.333
-137.429	-200.000	-0.011	-0.100
-136.414	529.501	0.147	0.342
-135.399	41.194	-0.128	0.114
-134.385	-79.017	0.317	0.106
-133.370	-117.136	-0.113	-0.020
-132.356	61.479	-0.120	0.118
-131.341	-36.061	-0.385	0.205
-130.326	-59.239	0.057	-0.024
-129.312	-57.733	-0.264	0.114
-128.297	800.000	0.071	0.226
-127.283	-200.000	-0.024	0.332
-126.268	-107.656	0.119	0.026
-125.253	-113.761	0.184	-0.035
-124.239	800.000	0.025	-0.104
-123.224	800.000	0.096	0.329
-122.210	9.912	0.164	0.123
-121.195	90.248	0.032	0.035
-120.180	-49.888	0.389	0.182
-119.166	-98.549	-0.116	-0.029
-118.151	421.416	0.036	-0.077
-117.137	-97.354	-0.109	-0.028
-116.122	-200.000	0.008	-0.084
-115.107	-24.994	0.061	0.036
-114.093	-200.000	-0.025	0.321
-113.078	-58.260	-0.161	0.069
-112.064	472.004	0.011	-0.024
-111.049	-133.889	-0.285	0.035
-110.034	200.034	-0.077	0.116
-109.020	-200.000	-0.001	0.024
-108.005	-36.010	0.200	-0.106
-106.991	183.443	0.182	-0.264
-105.976	277.624	-0.084	0.148
-104.962	-76.698	0.378	0.131
-103.947	-151.945	-0.329	-0.024
-102.932	-200.000	0.068	0.360
-101.918	-200.000	0.055	-0.273
-100.903	-126.736	0.276	-0.040
-99.889	-200.000	-0.020	0.225
-98.874	-106.515	0.403	0.089
-97.859	-153.818	0.195	-0.013
-96.845	499.426	-0.136	-0.309
-95.830	-114.821	0.093	-0.017
-94.816	395.807	0.181	0.373
-93.801	346.003	-0.191	0.370
-92.786	704.128	-0.046	-0.119
-91.772	-66.846	0.180	-0.070
-90.757	-200.000	0.055	0.270
-89.743	-133.855	0.078	0.010
-88.728	287.113	0.190	0.338
-87.713	16.001	-0.132	-0.102
-86.699	112.062	0.174	-0.207
-85.684	321.412	-0.172	0.323
-84.670	243.862	-0.090	-0.149
-83.655	99.801	-0.152	0.173
-82.640	-200.000	0.029	0.271
-81.626	69.576	0.064	0.064
-80.611	-43.523	-0.217	0.108
-79.597	-80.025	0.151	-0.050
-78.582	12.406	0.138	0.105
-77.567	-65.690	-0.058	0.023
-76.553	43.619	0.022	0.020
-75.538	225.603	0.093	-0.148
-74.524	-116.015	0.181	0.033
-73.509	494.265	-0.160	-0.361
-72.494	32.330	-0.088	0.075
-71.480	-26.729	0.140	-0.081
-70.465	-200.000	0.022	0.158
-69.451	76.222	-0.208	0.217
-68.436	-105.660	0.016	0.004
-67.422	403.174	-0.030	0.061
-66.407	-103.852	0.283	0.065
-65.392	-200.000	-0.023	-0.359
-64.378	-200.000	-0.005	0.045
-63.363	-200.000	-0.026	-0.232
-62.349	171.596	0.090	0.127
-61.334	52.794	-1.138	-1.070
-60.319	-200.000	0.068	0.498
-59.305	800.000	-0.173	-0.650
-58.290	330.215	0.629	1.191
-57.276	334.155	0.701	1.334
-56.261	-200.000	101.531	618.443
-55.246	596.879	1434.203	3493.729
-54.232	184.433	2635.609	3839.524
-53.217	116.270	2169.328	2613.774
-52.203	44.594	1619.928	1464.150
-51.188	36.597	1357.340	1178.288
-50.173	33.350	1315.365	1122.592
-49.159	55.209	1365.813	1298.241
-48.144	57.066	1382.413	1325.180
-47.130	36.619	1337.932	1161.388
-46.115	33.192	1319.895	1125.337
-45.100	32.983	1315.248	1120.091
-44.086	32.983	1312.600	1117.789
-43.071	32.826	1310.485	1115.017
-42.057	32.907	1308.647	1113.890
-41.042	32.960	1306.532	1112.354
-40.027	32.965	1305.530	1111.490
-39.013	32.974	1303.563	1109.821
-37.998	32.976	1301.796	1108.286
-36.984	33.154	1299.626	1107.435
-35.969	32.992	1298.336	1105.348
-34.954	33.064	1296.384	1104.064
-33.940	33.031	1295.751	1103.285
-32.925	33.161	1294.098	1102.593
-31.911	33.169	1292.346	1101.103
-30.896	33.171	1291.326	1100.198
-29.881	33.241	1289.819	1099.280
-28.867	33.289	1288.079	1098.030
-27.852	33.136	1286.952	1096.140
-26.838	33.148	1285.535	1094.957
-25.823	33.194	1284.016	1093.889
-24.809	33.062	1282.602	1091.880
-23.794	33.110	1281.325	1091.024
-22.779	33.204	1279.972	1090.374
-21.765	33.170	1278.617	1088.981
-20.750	33.117	1277.687	1087.837
-19.736	33.019	1276.070	1085.855
-18.721	33.049	1275.038	1085.107
-17.706	32.978	1273.850	1083.645
-16.692	33.024	1272.482	1082.704
-15.677	33.068	1271.655	1082.204
-14.663	32.923	1270.844	1080.644
-13.648	32.964	1269.224	1079.459
-12.633	33.033	1268.317	1079.037
-11.619	33.090	1267.638	1078.745
-10.604	32.991	1267.043	1077.629
-9.590	32.962	1265.782	1076.348
-8.575	32.957	1264.732	1075.385
-7.560	33.020	1263.878	1074.975
-6.546	32.946	1262.740	1073.540
-5.531	32.958	1262.495	1073.360
-4.517	33.037	1261.015	1072.506
-3.502	33.041	1260.115	1071.724
-2.487	32.997	1259.675	1071.053
-1.473	33.003	1255.531	1067.525
-0.458	31.339	1239.929	1044.917
0.556	24.997	1221.570	1002.787
1.571	21.057	1226.551	984.592
2.586	20.157	1241.669	991.495
3.600	19.872	1231.327	981.534
4.615	14.430	1158.258	894.091
5.629	4.606	1081.401	785.273
6.644	-0.064	1060.236	746.671
7.659	-0.311	1057.656	743.564
8.673	-0.442	1056.264	741.867
9.688	-0.402	1054.463	740.735
10.702	-0.017	1053.713	742.046
11.717	6.149	1062.433	778.736
12.731	15.149	1075.529	833.217
13.746	18.498	1079.304	852.760
14.761	18.230	1078.619	850.808
15.775	18.211	1077.493	849.753
16.790	17.827	1076.763	847.193
17.804	17.762	1076.448	846.549
18.819	17.946	1075.276	846.466
19.834	17.778	1075.142	845.453
20.848	17.886	1074.629	845.510
21.863	17.880	1073.846	844.786
22.877	17.875	1072.894	843.940
23.892	17.831	1072.540	843.368
24.907	17.884	1072.192	843.280
25.921	17.894	1070.798	842.159
26.936	17.977	1069.363	841.367
27.950	17.745	1068.070	839.134
28.965	17.719	1065.838	837.180
29.980	17.662	1064.397	835.694
30.994	17.975	1062.913	835.984
32.009	17.953	1061.679	834.836
33.023	17.709	1060.208	832.414
34.038	17.843	1059.163	832.172
35.053	17.934	1058.554	832.065
36.067	17.973	1057.832	831.611
37.082	18.089	1056.662	831.185
38.096	18.067	1056.724	831.050
39.111	18.169	1055.337	830.380
40.126	18.053	1054.039	828.722
41.140	17.729	1052.177	825.620
42.155	17.692	1050.349	823.930
43.169	17.726	1049.752	823.554
44.184	17.699	1048.853	822.647
45.199	17.586	1047.678	821.110
46.213	17.650	1046.920	820.751
47.228	17.742	1045.512	820.017
48.242	17.601	1044.628	818.570
49.257	17.733	1043.938	818.594
50.271	17.972	1042.601	818.616
51.286	17.808	1042.021	817.306
52.301	17.929	1040.735	816.801
53.315	17.817	1040.136	815.723
54.330	17.888	1038.924	815.042
55.344	17.946	1038.134	814.625
56.359	17.920	1037.316	813.790
57.374	17.664	1036.489	811.846
58.388	17.729	1036.052	811.741
59.403	17.815	1034.682	811.007
60.417	17.712	1033.272	809.342
61.432	17.593	1033.349	808.765
62.447	17.707	1032.938	808.914
63.461	17.947	1031.142	808.569
64.476	17.788	1030.384	807.153
65.490	17.697	1029.629	806.057
66.505	17.698	1029.203	805.660
67.520	17.878	1028.039	805.525
68.534	17.649	1026.937	803.511
69.549	17.449	1025.704	801.535
70.563	17.519	1024.833	801.114
71.578	17.463	1024.464	800.488
72.593	17.298	1023.678	799.028
73.607	17.453	1022.872	799.057
74.622	17.668	1022.865	799.988
75.636	17.660	1021.753	799.011
76.651	17.608	1020.750	797.912
77.666	17.439	1020.331	796.723
78.680	17.546	1019.678	796.646
79.695	17.632	1018.584	796.120
80.709	17.809	1017.848	796.301
81.724	17.596	1017.439	794.918
82.739	17.661	1016.748	794.610
83.753	17.948	1015.591	794.974
84.768	18.039	1014.851	794.746
85.782	18.195	1013.056	793.995
86.797	18.032	1012.467	792.707
87.812	17.917	1011.683	791.489
88.826	17.998	1010.479	790.851
89.841	18.135	1009.513	790.658
90.855	18.177	1008.692	790.138
91.870	18.153	1007.621	789.119
92.884	17.905	1006.553	787.073
93.899	17.899	1006.029	786.563
94.914	18.152	1004.976	786.836
95.928	18.062	1003.700	785.354
96.943	17.825	1002.593	783.328
97.957	17.537	1001.572	781.143
98.972	17.385	1000.337	779.413
99.987	17.604	999.745	779.884
101.001	17.960	998.627	780.573
102.016	17.992	997.996	780.156
103.030	17.778	996.902	778.257
104.045	17.525	995.939	776.280
105.060	17.380	994.998	774.821
106.074	17.632	994.432	775.455
107.089	18.218	993.249	777.127
108.103	17.988	992.536	775.458
109.118	17.895	991.368	774.053
110.133	17.908	990.300	773.210
111.147	17.820	988.693	771.489
112.162	17.555	988.111	769.773
113.176	17.809	987.362	770.267
114.191	17.670	986.200	768.666
115.206	17.473	985.195	766.926
116.220	17.447	984.599	766.278
117.235	17.706	983.374	766.420
118.249	17.551	982.954	765.329
119.264	17.553	982.127	764.625
120.279	17.655	981.104	764.218
121.293	17.601	980.824	763.689
122.308	17.704	979.557	763.097
123.322	17.552	978.457	761.494
124.337	17.466	977.025	759.931
125.352	17.114	975.041	756.748
126.366	16.977	973.845	755.144
127.381	17.771	973.363	758.234
128.395	18.012	972.474	758.547
129.410	18.203	971.845	758.834
130.424	17.975	970.846	756.979
131.439	18.046	969.876	756.470
132.454	17.984	968.990	755.436
133.468	18.074	967.761	754.809
134.483	18.150	967.188	754.629
135.497	18.208	966.247	754.087
136.512	18.353	965.647	754.189
137.527	18.206	964.975	752.951
138.541	18.249	964.078	752.372
139.556	18.170	963.034	751.144
140.570	18.173	961.958	750.250
141.585	18.169	961.386	749.720
142.600	18.115	959.765	748.154
143.614	18.284	958.754	748.039
144.629	18.498	958.238	748.505
145.643	18.316	957.102	746.760
146.658	18.134	956.020	745.057
147.673	18.121	955.022	744.157
148.687	18.009	954.353	743.079
149.702	18.077	952.821	742.119
150.716	18.022	952.134	741.279
151.731	18.256	951.339	741.608
152.746	18.334	950.576	741.284
153.760	18.463	949.862	741.219
154.775	18.331	949.705	740.462
155.789	18.329	948.614	739.537
156.804	18.330	947.489	738.598
157.819	18.344	946.665	737.949
158.833	18.532	945.986	738.168
159.848	18.469	944.739	736.859
160.862	18.200	943.908	734.988
161.877	18.397	942.904	734.985
162.892	18.480	942.183	734.715
163.906	18.412	941.596	733.901
164.921	18.440	940.131	732.814
165.935	18.492	939.109	732.177
166.950	18.468	937.967	731.117
167.964	18.369	937.048	729.914
168.979	18.306	936.257	728.967
169.994	18.114	935.758	727.695
171.008	18.409	935.161	728.422
172.023	18.307	933.834	726.891
173.037	18.101	932.820	725.162
174.052	18.096	931.681	724.193
175.067	18.265	930.952	724.279
176.081	18.343	930.766	724.397
177.096	18.226	930.268	723.453
178.110	17.990	929.436	721.744
179.125	17.952	928.254	720.602
180.140	17.972	927.803	720.274
181.154	18.121	927.484	720.588
182.169	18.385	927.273	721.473
183.183	18.429	926.673	721.126
184.198	18.339	925.636	719.877
185.213	18.344	924.811	719.194
186.227	18.532	923.743	719.090
187.242	18.278	923.777	717.986
188.256	18.461	922.298	717.538
189.271	18.582	921.657	717.485
190.286	18.261	920.704	715.338
191.300	17.795	919.202	712.161
192.315	17.145	918.487	708.833
193.329	17.065	918.036	708.090
194.344	17.964	918.128	711.845
195.359	18.332	917.782	713.047
196.373	18.396	916.763	712.458
197.388	18.101	916.388	710.876
198.402	18.144	915.681	710.442
199.417	18.209	914.811	709.974
200.432	17.760	913.700	707.190
201.446	17.592	913.165	706.016
202.461	17.739	912.403	705.972
203.475	16.896	910.703	701.112
204.490	16.414	909.517	698.146
205.504	17.324	909.856	702.103
206.519	17.935	909.575	704.347
207.534	17.990	909.218	704.233
208.548	18.358	908.504	705.132
209.563	18.154	907.776	703.668
210.577	18.106	907.251	703.001
211.592	18.370	906.663	703.566
212.607	18.372	905.613	702.696
213.621	18.445	905.238	702.645
214.636	18.528	904.402	702.273
215.650	18.504	903.976	701.780
216.665	18.693	902.950	701.696
217.680	18.497	902.026	700.114
218.694	17.983	901.044	697.193
219.709	17.958	900.509	696.615
220.723	18.201	900.281	697.369
221.738	18.478	899.220	697.613
222.753	18.280	898.854	696.460
223.767	18.467	897.967	696.474
224.782	18.633	897.401	696.645
225.796	18.570	897.030	696.042
226.811	17.995	895.136	692.182
227.826	17.380	894.624	689.232
228.840	17.507	894.290	689.430
229.855	17.669	892.861	688.922
230.869	17.407	891.908	687.066
231.884	17.681	892.149	688.297
232.899	18.272	892.000	690.505
233.913	18.410	891.101	690.305
234.928	18.418	890.478	689.794
235.942	18.423	890.126	689.482
236.957	18.019	889.385	687.220
237.972	18.071	888.394	686.602
238.986	18.392	887.612	687.227
240.001	18.314	887.076	686.439
241.015	18.302	886.227	685.671
242.030	18.482	885.591	685.840
243.045	18.551	885.270	685.809
244.059	18.478	885.344	685.513
245.074	18.279	884.294	683.842
246.088	18.046	882.523	681.484
247.103	18.184	882.507	681.960
248.117	18.606	882.188	683.336
249.132	18.802	881.683	683.665
250.147	18.891	880.551	683.081
251.161	19.055	879.754	683.054
252.176	18.888	879.803	682.366
253.190	18.894	878.945	681.664
254.205	19.088	878.588	682.098
255.220	19.038	877.958	681.351
256.234	19.263	876.730	681.225
257.249	18.940	875.965	679.294
258.263	19.049	875.513	679.316
259.278	19.072	874.520	678.574
260.293	19.134	874.026	678.377
261.307	19.065	873.188	677.393
262.322	18.773	872.127	675.363
263.336	18.131	869.991	671.128
264.351	17.150	868.446	666.035
265.366	17.177	868.157	665.859
266.380	18.211	869.155	670.621
267.395	18.779	868.340	672.155
268.409	18.671	867.854	671.296
269.424	19.023	867.259	672.154
270.439	19.075	866.471	671.686
271.453	19.014	866.452	671.373
272.468	19.198	865.680	671.434
273.482	19.210	864.892	670.811
274.497	18.806	863.770	668.310
275.512	18.494	862.709	666.217
276.526	18.963	862.411	667.750
277.541	19.106	862.172	668.059
278.555	18.587	861.354	665.354
279.570	18.576	860.186	664.350
280.585	18.733	859.622	664.466
281.599	18.870	858.651	664.186
282.614	18.329	857.622	661.240
283.628	18.359	857.468	661.181
284.643	18.844	856.792	662.472
285.657	18.187	856.391	659.569
286.672	17.966	855.330	657.843
287.687	18.589	854.758	659.740
288.701	18.567	854.112	659.100
289.716	18.312	853.288	657.428
290.730	18.204	852.721	656.519
291.745	17.946	851.993	654.910
292.760	18.224	851.855	655.811
293.774	19.110	852.059	659.306
294.789	19.470	851.536	660.221
295.803	19.492	851.193	659.978
296.818	19.649	850.173	659.731
297.833	19.150	849.325	657.110
298.847	18.987	848.603	655.871
299.862	19.422	848.457	657.357
300.876	19.387	848.149	656.928
301.891	19.346	846.720	655.607
302.906	18.906	845.935	653.269
303.920	19.259	845.292	654.057
304.935	19.310	845.340	654.228
305.949	19.427	844.694	654.115
306.964	19.147	844.233	652.640
307.979	19.267	843.922	652.793
308.993	19.672	843.091	653.626
310.008	19.581	842.720	652.937
311.022	19.314	841.985	651.299
312.037	19.268	841.497	650.692
313.052	19.166	840.153	649.210
314.066	18.429	839.241	645.673
315.081	18.157	838.504	644.022
316.095	18.926	838.662	646.983
317.110	19.304	838.428	648.167
318.125	18.648	836.874	644.446
319.139	17.735	836.122	640.383
320.154	17.789	835.254	639.864
321.168	18.368	835.710	642.330
322.183	19.075	835.821	645.009
323.197	19.172	835.101	644.757
324.212	19.360	834.865	645.222
325.227	19.471	834.077	644.971
326.241	19.431	833.339	644.193
327.256	19.291	832.966	643.325
328.270	19.262	832.383	642.709
329.285	19.090	831.433	641.280
330.300	18.975	830.586	640.141
331.314	19.113	830.229	640.322
332.329	19.314	830.374	641.125
333.343	19.457	829.607	641.009
334.358	19.380	829.251	640.389
335.373	19.596	828.767	640.760
336.387	19.909	828.643	641.770
337.402	19.871	828.611	641.548
338.416	19.684	827.770	640.146
339.431	19.732	827.522	640.078
340.446	19.937	827.135	640.478
341.460	19.628	826.724	638.960
342.475	19.521	826.081	638.014
343.489	19.620	825.743	638.062
344.504	19.933	825.266	638.793
345.519	19.899	824.947	638.362
346.533	19.959	824.693	638.329
347.548	20.140	824.491	638.782
348.562	20.142	823.532	637.992
349.577	20.067	822.799	637.093
350.592	20.133	821.804	636.508
351.606	20.163	821.449	636.285
352.621	20.157	820.565	635.525
353.635	19.966	819.716	634.109
354.650	19.469	818.614	631.383
355.665	18.394	817.252	626.349
356.679	18.828	816.890	627.600
357.694	19.188	816.636	628.665
358.708	19.183	816.045	628.134
359.723	19.655	815.606	629.463
360.738	20.093	814.848	630.416
361.752	20.009	814.704	629.943
362.767	20.193	814.355	630.285
363.781	20.372	813.953	630.571
364.796	20.246	813.594	629.778
365.810	20.572	812.806	630.294
366.825	20.251	812.881	629.134
367.840	20.201	811.561	627.873
368.854	19.822	811.078	626.074
369.869	19.862	811.081	626.165
370.883	19.872	810.151	625.429
371.898	19.794	809.712	624.754
372.913	19.807	809.676	624.717
373.927	19.965	808.969	624.684
374.942	20.269	808.414	625.296
375.956	20.180	808.249	624.795
376.971	20.290	807.978	624.927
377.986	20.497	806.838	624.731
379.000	20.329	807.061	624.247
380.015	20.205	806.362	623.203
381.029	20.200	806.136	622.956
382.044	20.537	804.893	623.150
383.059	20.343	804.635	622.198
384.073	20.393	804.399	622.142
385.088	20.375	803.775	621.540
386.102	20.334	803.372	621.026
387.117	20.309	802.431	620.152
388.132	20.059	801.280	618.316
389.146	19.537	800.590	615.868
390.161	19.808	800.478	616.693
391.175	20.237	800.036	617.826
392.190	19.865	798.945	615.606
393.205	18.870	797.095	610.594
394.219	17.784	795.597	605.537
395.234	17.763	795.570	605.390
396.248	19.120	796.886	611.159
397.263	20.419	797.226	615.975
398.278	20.406	797.049	615.737
399.292	20.208	796.274	614.385
400.307	20.137	796.021	613.883
401.321	20.033	795.711	613.222
402.336	20.397	795.402	614.216
403.350	20.736	795.106	615.130
404.365	20.889	794.919	615.475
405.380	21.006	794.978	615.878
406.394	20.982	793.892	614.898
407.409	20.871	793.224	613.933
408.423	20.946	792.739	613.769
409.438	20.943	792.541	613.549
410.453	21.065	792.034	613.534
411.467	21.104	791.481	613.189
412.482	21.059	791.428	612.936
413.496	21.185	790.759	612.805
414.511	20.995	790.976	612.252
415.526	21.056	790.385	611.953
416.540	20.911	789.499	610.705
417.555	20.644	788.613	609.032
418.569	20.776	788.311	609.207
419.584	20.668	787.664	608.273
420.599	20.567	787.189	607.501
421.613	156.538	1361.338	1792.973
422.628	135.491	1444.985	1793.087
