DTS Sentinel unit serial number:	SN413079Multiplexer serial number:	ORYXHardware model number:	OX4-SRSoftware version number:	ORYX F/W v4.00 Oryx Data Collector v3.7.2.0data status	okinstallation	princeton_trtdifferential loss correction	single-endedforward channel	channel 1reverse channel	N/Adate	2019/09/16time	03:50:35forward acquisition time	60.00reverse acquisition time	0.00gamma	496.2192k internal	0.2331k external	0.2331temperature offset calibration	0.9980default loss term (dB/km)	0.3790temperature slope calibration	1.0000multiplexer offset coefficient	1.0000multiplexer slope coefficient	1.0000fibre end	0.00T internal ref (°C)	27.56T ext. ref 1 (°C)	10.67T ext. ref 2 (°C)	21.62length (m)	temperature (°C)	Stokes	anti-Stokes-747.200	-48.659	-0.156	-0.075
-746.185	3.539	-0.183	0.134
-745.171	-63.266	0.257	0.107
-744.156	-200.000	0.057	0.361
-743.142	120.425	-0.099	0.124
-742.127	-3.130	0.081	-0.057
-741.112	642.876	0.058	-0.149
-740.098	-184.949	-0.273	0.004
-739.083	18.653	-0.132	0.106
-738.069	-200.000	-0.014	0.219
-737.054	-61.250	0.069	0.029
-736.039	800.000	-0.104	-0.314
-735.025	521.204	0.194	0.457
-734.010	-98.384	-0.117	-0.030
-732.996	-103.119	-0.211	-0.050
-731.981	-129.633	-0.183	-0.025
-730.966	-32.019	-0.256	0.144
-729.952	-200.000	-0.004	-0.390
-728.937	-200.000	0.069	0.343
-727.923	754.308	0.107	-0.290
-726.908	-79.668	0.484	0.164
-725.894	-39.261	-0.208	0.110
-724.879	659.990	0.044	-0.114
-723.864	47.686	-0.054	0.051
-722.850	274.763	-0.087	-0.155
-721.835	141.164	-0.203	-0.270
-720.821	777.215	-0.091	-0.250
-719.806	-200.000	-0.006	-0.195
-718.791	-146.539	-0.206	0.018
-717.777	800.000	-0.048	-0.187
-716.762	800.000	-0.092	0.324
-715.748	-200.000	0.072	-0.448
-714.733	26.400	0.019	-0.016
-713.718	313.657	-0.105	0.198
-712.704	800.000	0.043	0.154
-711.689	800.000	-0.127	0.454
-710.675	494.331	0.151	-0.348
-709.660	-46.238	-0.095	-0.047
-708.645	-99.718	-0.161	0.041
-707.631	800.000	-0.054	-0.161
-706.616	800.000	-0.038	-0.107
-705.602	800.000	0.116	-0.359
-704.587	31.340	-0.158	0.136
-703.572	-115.604	-0.136	0.026
-702.558	800.000	-0.119	-0.364
-701.543	307.879	0.077	-0.143
-700.529	186.271	0.123	-0.183
-699.514	147.210	-0.264	-0.357
-698.499	-200.000	0.196	-0.001
-697.485	76.118	-0.124	0.131
-696.470	800.000	0.138	0.522
-695.456	-200.000	0.007	0.110
-694.441	-140.737	0.099	-0.010
-693.426	462.234	0.081	0.181
-692.412	-189.134	0.265	-0.003
-691.397	-83.886	-0.230	0.074
-690.383	-132.493	-0.341	0.044
-689.368	89.939	-0.243	0.273
-688.354	-200.000	0.003	0.047
-687.339	39.300	0.195	-0.175
-686.324	506.996	-0.077	0.180
-685.310	-55.563	0.245	0.110
-684.295	155.234	-0.042	0.058
-683.281	800.000	-0.078	-0.317
-682.266	199.581	-0.295	-0.454
-681.251	-123.343	0.331	0.053
-680.237	-200.000	-0.005	0.160
-679.222	-89.596	-0.087	0.026
-678.208	800.000	0.105	-0.369
-677.193	368.158	-0.090	-0.183
-676.178	-200.000	-0.057	-0.263
-675.164	157.827	-0.068	0.094
-674.149	-200.000	0.001	0.098
-673.135	800.000	-0.099	-0.286
-672.120	447.858	-0.119	0.262
-671.105	-81.978	0.145	0.048
-670.091	-200.000	0.012	-0.370
-669.076	-119.271	0.134	0.023
-668.062	-98.098	-0.128	-0.033
-667.047	-108.952	0.197	-0.042
-666.032	34.453	-0.227	-0.199
-665.018	218.005	0.197	-0.316
-664.003	177.422	-0.046	-0.067
-662.989	25.559	-0.345	0.288
-661.974	-7.787	0.140	-0.095
-660.959	-200.000	0.000	-0.205
-659.945	76.594	-0.194	-0.206
-658.930	800.000	-0.053	-0.210
-657.916	-45.680	0.113	-0.056
-656.901	-92.611	-0.319	0.090
-655.886	800.000	0.030	0.112
-654.872	-23.030	-0.077	0.046
-653.857	-68.056	0.353	-0.138
-652.843	-200.000	0.013	0.167
-651.828	-23.059	0.069	0.042
-650.814	-200.000	0.070	0.309
-649.799	-122.831	-0.210	-0.034
-648.784	-200.000	-0.001	0.083
-647.770	224.952	0.236	-0.383
-646.755	-200.000	-0.037	-0.281
-645.741	73.805	-0.199	-0.209
-644.726	-138.238	-0.281	-0.031
-643.711	386.473	-0.028	-0.057
-642.697	-200.000	-0.007	0.138
-641.682	92.258	0.097	0.110
-640.668	-200.000	-0.030	0.151
-639.653	542.166	0.092	0.220
-638.638	-119.410	-0.301	0.052
-637.624	53.662	-0.160	-0.153
-636.609	2.285	0.217	-0.157
-635.595	54.473	-0.103	-0.099
-634.580	-170.622	-0.072	-0.002
-633.565	-200.000	-0.013	-0.065
-632.551	-67.010	0.038	-0.015
-631.536	177.718	0.219	0.319
-630.522	67.195	0.323	0.330
-629.507	-10.303	0.043	0.028
-628.492	-111.970	0.286	-0.058
-627.478	-100.846	-0.183	-0.045
-626.463	-8.258	0.186	-0.125
-625.449	101.921	0.115	-0.134
-624.434	-200.000	-0.042	-0.325
-623.419	-131.112	-0.093	-0.012
-622.405	714.451	0.052	0.139
-621.390	-117.776	0.209	0.038
-620.376	595.032	-0.177	-0.438
-619.361	237.786	0.107	0.177
-618.346	267.641	-0.056	-0.098
-617.332	-200.000	-0.018	-0.210
-616.317	-200.000	-0.010	0.262
-615.303	-200.000	0.013	-0.178
-614.288	-69.639	-0.177	0.068
-613.273	800.000	0.072	-0.302
-612.259	-200.000	-0.097	-0.430
-611.244	363.741	-0.154	0.311
-610.230	-175.844	0.184	0.005
-609.215	-113.004	-0.074	-0.015
-608.201	560.167	0.051	0.123
-607.186	72.760	-0.087	0.091
-606.171	51.779	-0.234	-0.223
-605.157	157.817	0.037	-0.051
-604.142	126.908	0.096	0.122
-603.128	225.991	0.109	-0.177
-602.113	166.531	0.087	-0.124
-601.098	94.725	-0.240	0.273
-600.084	-70.608	0.268	-0.101
-599.069	-138.805	-0.186	-0.020
-598.055	-75.994	-0.169	0.060
-597.040	95.106	0.175	0.200
-596.025	189.953	-0.072	0.108
-595.011	800.000	-0.029	-0.115
-593.996	-95.782	0.284	0.076
-592.982	89.181	-0.358	-0.399
-591.967	800.000	-0.115	-0.406
-590.952	-42.990	-0.094	-0.048
-589.938	-136.103	0.044	-0.005
-588.923	212.700	-0.061	0.097
-587.909	-110.718	-0.200	-0.041
-586.894	6.375	-0.302	-0.224
-585.879	239.438	0.206	0.344
-584.865	-178.399	0.201	0.005
-583.850	235.268	0.043	-0.071
-582.836	-91.370	-0.377	-0.108
-581.821	81.155	-0.170	0.184
-580.806	-177.694	0.113	-0.003
-579.792	127.467	0.088	0.111
-578.777	-200.000	-0.011	0.083
-577.763	-143.358	0.153	-0.015
-576.748	800.000	-0.040	-0.148
-575.733	-200.000	-0.036	-0.161
-574.719	-144.369	-0.158	0.015
-573.704	-132.113	-0.085	-0.011
-572.690	1.659	0.174	0.125
-571.675	800.000	0.066	-0.237
-570.661	-143.373	-0.114	0.011
-569.646	324.682	-0.017	0.032
-568.631	-200.000	0.018	0.385
-567.617	80.258	-0.251	0.270
-566.602	-42.252	-0.063	0.032
-565.588	564.239	0.115	-0.278
-564.573	530.715	-0.079	-0.187
-563.558	-59.819	0.188	-0.080
-562.544	16.989	0.179	0.142
-561.529	800.000	-0.121	0.400
-560.515	381.850	-0.060	0.123
-559.500	-91.264	0.173	-0.049
-558.485	15.265	0.035	-0.027
-557.471	0.220	0.173	0.123
-556.456	-200.000	-0.023	-0.385
-555.442	800.000	0.051	-0.194
-554.427	110.628	0.237	-0.285
-553.412	-100.156	-0.067	-0.017
-552.398	788.691	0.124	-0.340
-551.383	-15.105	-0.463	-0.296
-550.369	140.623	0.209	-0.275
-549.354	-107.815	0.219	0.048
-548.339	374.946	0.149	0.303
-547.325	441.759	0.143	0.314
-546.310	-200.000	0.058	0.316
-545.296	21.684	-0.136	0.111
-544.281	-200.000	0.026	-0.119
-543.266	753.727	0.017	0.046
-542.252	38.306	-0.200	-0.178
-541.237	800.000	0.051	-0.172
-540.223	-25.981	0.161	0.094
-539.208	-200.000	-0.057	0.366
-538.193	-8.752	-0.309	0.207
-537.179	103.183	-0.035	-0.041
-536.164	-200.000	0.000	0.062
-535.150	111.899	-0.166	-0.200
-534.135	-78.545	-0.374	-0.128
-533.121	45.836	-0.025	-0.023
-532.106	-172.900	0.246	-0.008
-531.091	-115.676	-0.122	0.023
-530.077	10.735	-0.123	-0.094
-529.062	291.991	-0.141	0.257
-528.048	-26.714	0.370	-0.216
-527.033	137.332	-0.154	-0.201
-526.018	-134.532	0.090	0.011
-525.004	741.352	0.108	-0.288
-523.989	-200.000	-0.025	-0.158
-522.975	-200.000	0.054	-0.260
-521.960	17.828	0.064	0.051
-520.945	45.800	-0.235	-0.217
-519.931	-200.000	-0.041	0.196
-518.916	61.520	0.175	0.174
-517.902	-1.472	-0.127	0.089
-516.887	800.000	-0.071	-0.220
-515.872	-125.244	-0.407	-0.062
-514.858	421.719	-0.053	-0.112
-513.843	-118.034	-0.081	-0.014
-512.829	121.678	0.141	-0.175
-511.814	-126.093	-0.450	-0.067
-510.799	517.000	-0.064	0.148
-509.785	-200.000	0.002	-0.337
-508.770	-200.000	-0.015	-0.165
-507.756	-200.000	0.032	0.374
-506.741	-12.255	0.133	0.087
-505.726	-159.179	-0.107	-0.006
-504.712	-52.283	-0.051	-0.024
-503.697	-90.494	-0.225	0.065
-502.683	-200.000	-0.012	-0.121
-501.668	-200.000	0.058	-0.267
-500.653	-112.400	-0.254	0.051
-499.639	249.427	-0.074	0.125
-498.624	-130.167	0.241	0.033
-497.610	688.710	-0.051	-0.133
-496.595	-52.608	0.237	0.109
-495.581	116.420	0.047	0.057
-494.566	-200.000	0.016	-0.136
-493.551	713.247	-0.095	-0.251
-492.537	800.000	0.148	-0.469
-491.522	46.614	0.248	-0.230
-490.508	183.233	-0.099	-0.146
-489.493	621.301	0.052	-0.130
-488.478	-1.091	-0.181	0.127
-487.464	-71.130	0.218	0.082
-486.449	105.240	0.138	-0.162
-485.435	-97.021	0.105	0.027
-484.420	-116.128	0.040	0.007
-483.405	-200.000	0.057	0.347
-482.391	-23.357	0.227	0.136
-481.376	173.720	0.078	-0.112
-480.362	49.177	-0.268	0.251
-479.347	31.679	0.179	-0.153
-478.332	548.798	-0.079	0.188
-477.318	-13.312	0.082	0.053
-476.303	436.353	0.003	-0.006
-475.289	-71.956	-0.028	0.010
-474.274	99.595	0.249	-0.287
-473.259	626.212	-0.039	-0.097
-472.245	22.539	0.056	-0.045
-471.230	212.889	0.112	0.175
-470.216	-3.323	-0.296	-0.206
-469.201	32.836	-0.108	0.093
-468.186	220.386	0.113	-0.181
-467.172	-200.000	0.012	0.340
-466.157	16.297	0.003	-0.002
-465.143	-71.110	-0.306	-0.114
-464.128	-9.725	0.233	0.154
-463.113	-56.514	0.309	0.136
-462.099	158.695	-0.105	-0.145
-461.084	-200.000	-0.032	-0.321
-460.070	-200.000	-0.071	-0.411
-459.055	-102.292	0.333	0.080
-458.040	800.000	0.073	-0.280
-457.026	6.574	0.054	0.040
-456.011	-114.123	0.162	0.031
-454.997	16.445	0.069	0.055
-453.982	61.266	-0.235	-0.232
-452.968	-45.771	0.160	-0.079
-451.953	-8.004	-0.250	0.168
-450.938	-90.407	0.443	-0.128
-449.924	-24.386	0.142	-0.084
-448.909	-179.285	-0.253	0.006
-447.895	-200.000	0.017	0.311
-446.880	14.488	0.153	0.119
-445.865	-84.924	0.285	0.089
-444.851	22.067	-0.180	0.146
-443.836	-23.094	-0.101	-0.061
-442.822	-200.000	0.024	0.297
-441.807	263.141	0.126	0.218
-440.792	38.426	0.037	-0.033
-439.778	85.765	0.137	0.149
-438.763	800.000	-0.036	-0.113
-437.749	-9.445	-0.211	0.140
-436.734	-30.352	0.066	0.037
-435.719	-81.506	0.214	-0.070
-434.705	249.463	-0.088	0.148
-433.690	218.232	-0.159	0.253
-432.676	114.735	0.166	-0.201
-431.661	-80.242	0.043	0.014
-430.646	-113.825	-0.181	0.035
-429.632	-45.740	-0.113	0.056
-428.617	54.313	-0.199	0.191
-427.603	-57.540	0.266	-0.116
-426.588	-95.684	0.149	0.040
-425.573	-168.566	0.275	0.010
-424.559	-134.941	-0.105	0.013
-423.544	222.016	-0.065	0.104
-422.530	800.000	0.161	-0.475
-421.515	143.068	0.135	0.179
-420.500	516.766	-0.047	0.109
-419.486	-33.459	-0.185	-0.102
-418.471	-154.618	-0.228	0.015
-417.457	800.000	-0.081	-0.282
-416.442	-85.116	-0.222	0.069
-415.428	56.397	0.113	0.109
-414.413	-153.825	-0.259	0.018
-413.398	-170.902	0.143	-0.005
-412.384	36.092	-0.266	0.233
-411.369	-103.432	-0.229	0.054
-410.355	76.516	-0.149	-0.157
-409.340	-200.000	0.043	0.260
-408.325	-52.136	-0.149	-0.069
-407.311	401.614	-0.040	0.083
-406.296	85.334	0.243	0.265
-405.282	800.000	0.030	0.119
-404.267	-200.000	-0.002	-0.192
-403.252	-82.227	-0.138	-0.045
-402.238	174.701	0.038	-0.055
-401.223	-92.532	-0.157	0.044
-400.209	611.369	0.076	0.189
-399.194	800.000	0.071	0.219
-398.179	-170.890	0.422	0.014
-397.165	151.637	-0.205	0.278
-396.150	349.598	0.141	-0.276
-395.136	262.163	0.125	-0.216
-394.121	-103.454	-0.237	0.055
-393.106	146.448	-0.148	0.198
-392.092	-88.681	-0.158	0.047
-391.077	303.989	-0.104	-0.192
-390.063	29.682	0.369	0.311
-389.048	16.311	-0.141	-0.110
-388.033	55.130	0.186	0.178
-387.019	-71.674	0.207	-0.077
-386.004	280.800	0.048	-0.086
-384.990	-200.000	0.020	-0.195
-383.975	175.472	0.205	-0.295
-382.960	-126.583	-0.088	0.013
-381.946	-200.000	0.017	0.182
-380.931	-24.117	0.155	0.092
-379.917	242.180	0.204	-0.338
-378.902	-0.565	0.066	0.047
-377.888	-200.000	-0.020	0.153
-376.873	22.337	-0.234	-0.190
-375.858	72.054	-0.244	-0.251
-374.844	-22.762	0.206	0.124
-373.829	-200.000	0.022	-0.313
-372.815	193.506	0.056	-0.085
-371.800	20.452	-0.200	0.161
-370.785	-126.796	-0.383	0.056
-369.771	-132.959	-0.344	-0.043
-368.756	800.000	0.048	-0.185
-367.742	-110.831	0.029	-0.006
-366.727	135.862	-0.069	0.089
-365.712	-90.372	0.023	-0.007
-364.698	-200.000	-0.034	0.225
-363.683	-59.940	0.219	0.093
-362.669	800.000	-0.024	0.082
-361.654	-31.365	-0.017	0.009
-360.639	32.760	0.158	-0.136
-359.625	-64.850	0.195	-0.078
-358.610	97.753	0.210	-0.239
-357.596	-25.863	-0.090	-0.052
-356.581	800.000	-0.068	0.199
-355.566	-96.013	0.218	0.057
-354.552	132.529	0.201	0.257
-353.537	-68.145	-0.356	-0.138
-352.523	-135.282	-0.085	0.010
-351.508	-200.000	0.038	-0.282
-350.493	800.000	-0.017	-0.052
-349.479	800.000	-0.108	0.396
-348.464	97.762	0.067	0.076
-347.450	-200.000	-0.038	0.179
-346.435	-46.552	-0.059	-0.029
-345.420	57.582	-0.045	0.044
-344.406	-2.704	0.158	0.109
-343.391	-79.195	-0.064	0.022
-342.377	-200.000	0.054	0.326
-341.362	144.295	-0.232	0.307
-340.348	-200.000	0.012	0.054
-339.333	-200.000	0.001	0.273
-338.318	2.511	-0.141	0.101
-337.304	800.000	0.124	-0.417
-336.289	-200.000	0.023	0.123
-335.275	353.223	0.146	-0.287
-334.260	42.854	0.132	-0.119
-333.245	55.971	0.089	-0.085
-332.231	-108.252	-0.146	-0.031
-331.216	-93.100	-0.217	0.060
-330.202	297.746	0.051	0.093
-329.187	-30.391	-0.158	0.089
-328.172	-85.602	-0.265	0.082
-327.158	243.155	0.065	-0.109
-326.143	17.002	0.205	0.161
-325.129	-39.554	0.052	-0.027
-324.114	-65.352	0.135	-0.054
-323.099	-0.191	0.225	-0.158
-322.085	237.637	-0.157	-0.258
-321.070	800.000	-0.076	0.222
-320.056	-200.000	0.021	0.102
-319.041	10.070	0.448	-0.337
-318.026	-42.909	-0.172	-0.086
-317.012	-200.000	-0.007	-0.099
-315.997	-200.000	-0.000	-0.150
-314.983	-200.000	-0.029	-0.269
-313.968	-47.204	0.125	-0.060
-312.953	-161.334	-0.476	-0.024
-311.939	-120.393	-0.158	-0.027
-310.924	-200.000	-0.021	0.119
-309.910	800.000	0.055	0.225
-308.895	-99.420	0.202	0.050
-307.880	-101.313	-0.129	0.031
-306.866	-200.000	-0.194	0.000
-305.851	668.119	0.062	0.158
-304.837	-115.955	-0.075	-0.014
-303.822	800.000	-0.047	-0.143
-302.807	-159.645	0.099	0.005
-301.793	278.505	0.074	0.130
-300.778	-200.000	-0.004	-0.223
-299.764	32.786	-0.145	0.124
-298.749	-2.644	0.102	-0.071
-297.735	-200.000	0.010	0.154
-296.720	-200.000	0.027	-0.128
-295.705	7.001	0.110	0.081
-294.691	-173.204	-0.149	-0.005
-293.676	119.101	0.137	0.168
-292.662	768.180	0.079	0.212
-291.647	-82.142	-0.147	-0.047
-290.632	78.574	0.384	0.406
-289.618	-200.000	0.028	0.151
-288.603	323.647	0.070	0.133
-287.589	35.132	0.185	0.161
-286.574	-200.000	-0.005	0.057
-285.559	-45.839	-0.233	0.114
-284.545	240.062	-0.181	0.298
-283.530	-184.785	0.228	0.004
-282.516	-200.000	0.010	0.056
-281.501	178.619	-0.065	0.094
-280.486	-72.651	0.040	0.014
-279.472	220.955	0.106	0.169
-278.457	-200.000	-0.222	0.000
-277.443	192.488	0.111	0.165
-276.428	174.152	-0.117	-0.167
-275.413	261.155	-0.167	-0.286
-274.399	-123.586	-0.244	0.038
-273.384	-34.619	-0.120	-0.065
-272.370	-184.739	-0.250	0.004
-271.355	200.719	0.266	0.404
-270.340	800.000	0.114	0.378
-269.326	92.875	-0.212	0.237
-268.311	-161.253	0.285	-0.015
-267.297	98.436	-0.071	0.081
-266.282	-91.412	0.073	0.021
-265.267	267.009	-0.066	-0.113
-264.253	309.975	-0.058	0.108
-263.238	-140.960	-0.223	0.023
-262.224	-83.185	-0.332	-0.105
-261.209	-155.920	-0.177	-0.011
-260.195	276.893	0.117	-0.205
-259.180	-57.667	-0.272	-0.118
-258.165	268.235	-0.140	0.243
-257.151	800.000	0.094	0.405
-256.136	-45.556	0.198	0.097
-255.122	43.496	-0.190	0.171
-254.107	-95.654	-0.071	0.019
-253.092	238.145	-0.075	-0.123
-252.078	62.633	-0.289	0.285
-251.063	800.000	0.143	-0.403
-250.049	-67.773	0.023	0.009
-249.034	-3.226	0.111	0.077
-248.019	-84.825	-0.297	-0.092
-247.005	170.130	0.074	-0.104
-245.990	-200.000	0.014	-0.139
-244.976	632.511	-0.106	-0.264
-243.961	146.231	-0.039	0.052
-242.946	241.314	0.143	-0.235
-241.932	-172.100	-0.179	-0.006
-240.917	-82.184	0.290	0.093
-239.903	-132.986	-0.273	-0.034
-238.888	800.000	-0.051	-0.163
-237.873	271.760	0.133	0.231
-236.859	-9.225	-0.077	-0.051
-235.844	-99.454	0.143	0.036
-234.830	-142.327	0.140	-0.014
-233.815	-124.467	0.235	0.036
-232.800	266.372	-0.148	-0.254
-231.786	141.547	-0.132	0.172
-230.771	-108.965	0.232	-0.049
-229.757	-200.000	0.055	-0.293
-228.742	-200.000	-0.015	0.068
-227.727	54.517	0.295	-0.280
-226.713	-157.260	0.164	-0.010
-225.698	-76.831	-0.034	-0.012
-224.684	800.000	0.190	-0.598
-223.669	50.893	-0.228	0.213
-222.655	800.000	0.103	0.400
-221.640	465.127	-0.048	0.105
-220.625	-151.071	0.230	-0.017
-219.611	-116.491	0.157	0.029
-218.596	379.569	-0.082	0.165
-217.582	-200.000	0.019	0.305
-216.567	-200.000	0.007	-0.053
-215.552	-64.831	0.214	0.085
-214.538	-152.591	0.032	0.002
-213.523	607.155	0.123	0.303
-212.509	-170.841	0.146	0.005
-211.494	-200.000	-0.034	-0.469
-210.479	-27.428	-0.384	0.220
-209.465	-200.000	0.040	-0.210
-208.450	-200.000	0.002	-0.223
-207.436	-130.097	0.227	-0.030
-206.421	81.931	-0.140	0.149
-205.406	546.264	0.108	0.254
-204.392	47.828	-0.266	0.245
-203.377	-200.000	-0.041	0.336
-202.363	800.000	0.044	0.186
-201.348	-28.869	0.187	0.106
-200.333	-65.613	-0.320	0.126
-199.319	375.813	0.044	-0.089
-198.304	-200.000	-0.020	-0.120
-197.290	127.954	-0.118	0.148
-196.275	800.000	-0.077	-0.295
-195.260	128.656	0.166	0.208
-194.246	-42.691	-0.054	0.027
-193.231	259.671	-0.104	0.176
-192.217	-22.541	0.423	0.252
-191.202	40.747	-0.273	0.242
-190.187	-200.000	0.022	-0.325
-189.173	-200.000	0.013	-0.318
-188.158	800.000	0.065	-0.192
-187.144	-1.827	0.253	0.176
-186.129	-200.000	-0.004	0.083
-185.114	-152.929	0.477	-0.033
-184.100	-78.333	0.092	0.031
-183.085	-29.834	-0.132	-0.074
-182.071	422.623	-0.114	-0.241
-181.056	-200.000	-0.031	-0.475
-180.042	59.696	-0.261	0.253
-179.027	-147.142	0.068	-0.006
-178.012	12.071	-0.186	0.141
-176.998	23.382	0.143	-0.115
-175.983	-200.000	-0.046	-0.301
-174.969	-200.000	0.051	0.227
-173.954	-68.099	-0.154	-0.059
-172.939	39.300	0.154	-0.136
-171.925	-200.000	0.009	-0.062
-170.910	800.000	0.036	0.114
-169.896	-80.668	-0.144	-0.047
-168.881	259.477	0.022	-0.038
-167.866	83.701	0.235	0.252
-166.852	181.454	0.108	-0.156
-165.837	-200.000	0.018	0.316
-164.823	-200.000	0.034	0.215
-163.808	142.125	0.187	-0.244
-162.793	-200.000	0.028	-0.181
-161.779	-200.000	0.016	0.239
-160.764	800.000	0.046	0.141
-159.750	-200.000	-0.001	0.203
-158.735	-200.000	-0.020	0.379
-157.720	-40.792	-0.031	-0.016
-156.706	-200.000	0.000	-0.130
-155.691	259.562	-0.107	-0.181
-154.677	35.853	-0.144	-0.124
-153.662	-200.000	0.061	-0.265
-152.647	214.816	0.036	-0.056
-151.633	-124.036	0.296	0.046
-150.618	-82.668	0.298	0.095
-149.604	-1.324	-0.251	-0.175
-148.589	26.166	0.032	0.027
-147.574	613.979	0.154	-0.379
-146.560	56.966	-0.106	-0.101
-145.545	-200.000	0.032	-0.198
-144.531	565.850	-0.041	-0.097
-143.516	46.167	0.223	-0.203
-142.502	-4.875	0.194	0.131
-141.487	800.000	0.020	0.069
-140.472	-200.000	-0.041	0.225
-139.458	460.508	-0.104	0.228
-138.443	800.000	-0.061	-0.200
-137.429	20.160	0.022	0.018
-136.414	0.149	0.216	-0.151
-135.399	-200.000	-0.014	0.330
-134.385	-55.876	-0.191	-0.084
-133.370	21.642	-0.269	-0.215
-132.356	-104.681	0.414	0.094
-131.341	-147.843	-0.513	-0.042
-130.326	-77.158	-0.224	0.077
-129.312	128.260	-0.124	0.155
-128.297	800.000	0.092	0.355
-127.283	-200.000	0.055	0.265
-126.268	162.436	0.175	-0.241
-125.253	-200.000	0.009	0.518
-124.239	-200.000	0.050	0.360
-123.224	-23.647	0.043	0.025
-122.210	-200.000	0.002	0.160
-121.195	-94.859	-0.038	0.010
-120.180	223.902	-0.043	0.068
-119.166	-185.143	0.221	-0.003
-118.151	-13.880	-0.389	-0.247
-117.137	-200.000	-0.002	-0.110
-116.122	-200.000	-0.011	0.329
-115.107	411.062	0.088	0.184
-114.093	800.000	-0.102	0.283
-113.078	-144.784	0.322	0.029
-112.064	-83.700	0.044	-0.014
-111.049	-85.842	0.201	0.061
-110.034	99.416	0.143	-0.163
-109.020	-130.467	0.137	-0.018
-108.005	-200.000	-0.049	0.270
-106.991	-200.000	-0.038	0.316
-105.976	521.940	0.035	0.081
-104.962	-69.812	0.203	0.076
-103.947	-159.769	-0.007	0.000
-102.932	65.647	0.064	-0.064
-101.918	-96.725	0.505	0.130
-100.903	304.160	0.188	-0.343
-99.889	-200.000	0.018	0.225
-98.874	-161.911	-0.259	-0.013
-97.859	-56.532	0.114	0.050
-96.845	90.722	0.074	-0.081
-95.830	-56.998	0.061	-0.026
-94.816	800.000	0.110	0.314
-93.801	65.769	0.237	0.235
-92.786	-200.000	0.009	-0.111
-91.772	9.191	-0.258	-0.191
-90.757	-200.000	-0.047	0.274
-89.743	-200.000	-0.057	0.368
-88.728	29.929	0.303	0.254
-87.713	284.985	-0.148	-0.262
-86.699	-16.911	0.101	0.063
-85.684	208.525	-0.056	0.086
-84.670	-200.000	-0.024	-0.208
-83.655	-37.499	0.051	-0.027
-82.640	674.273	-0.071	-0.181
-81.626	-27.775	0.286	0.163
-80.611	61.613	-0.125	0.122
-79.597	472.248	-0.077	-0.170
-78.582	800.000	-0.080	0.267
-77.567	296.917	0.126	0.226
-76.553	-200.000	0.006	0.053
-75.538	52.469	-0.115	0.107
-74.524	-200.000	0.003	0.058
-73.509	-23.019	0.037	-0.022
-72.494	71.275	-0.124	-0.126
-71.480	800.000	0.047	-0.152
-70.465	61.532	-0.113	-0.110
-69.451	9.098	-0.092	-0.068
-68.436	185.883	0.220	-0.320
-67.422	-200.000	-0.022	0.149
-66.407	-50.810	0.072	0.033
-65.392	-96.490	-0.242	-0.063
-64.378	-200.000	-0.027	-0.216
-63.363	30.462	0.125	-0.104
-62.349	540.602	-0.090	0.211
-61.334	8.141	-1.203	-0.885
-60.319	-13.423	0.650	0.413
-59.305	-200.000	-0.152	-1.380
-58.290	278.741	0.668	1.168
-57.276	505.767	0.750	1.703
-56.261	-200.000	113.236	651.795
-55.246	476.908	1505.903	3335.587
-54.232	147.594	2670.982	3524.900
-53.217	104.789	2153.068	2486.027
-52.203	38.989	1601.732	1402.227
-51.188	30.815	1348.451	1131.046
-50.173	27.985	1310.978	1082.825
-49.159	56.306	1366.444	1300.343
-48.144	54.559	1381.197	1303.820
-47.130	31.161	1336.937	1123.292
-46.115	27.782	1318.833	1087.934
-45.100	27.473	1314.476	1082.458
-44.086	27.388	1311.856	1079.752
-43.071	27.411	1309.211	1077.671
-42.057	27.341	1307.388	1075.711
-41.042	27.384	1305.865	1074.673
-40.027	27.396	1304.416	1073.507
-39.013	27.453	1302.257	1072.020
-37.998	27.418	1300.496	1070.325
-36.984	27.533	1298.495	1069.309
-35.969	27.555	1296.816	1068.012
-34.954	27.554	1295.176	1066.619
-33.940	27.567	1293.883	1065.588
-32.925	27.526	1292.961	1064.546
-31.911	27.593	1290.944	1063.231
-30.896	27.611	1289.551	1062.148
-29.881	27.679	1288.271	1061.445
-28.867	27.643	1287.092	1060.222
-27.852	27.812	1285.073	1059.502
-26.838	27.528	1284.499	1057.338
-25.823	27.714	1282.850	1057.015
-24.809	27.617	1281.400	1055.216
-23.794	27.657	1279.896	1054.165
-22.779	27.668	1278.656	1053.169
-21.765	27.659	1277.495	1052.121
-20.750	27.725	1276.394	1051.549
-19.736	27.608	1274.865	1049.575
-18.721	27.505	1273.884	1048.133
-17.706	27.530	1273.158	1047.640
-16.692	27.640	1271.365	1046.750
-15.677	27.447	1270.704	1045.059
-14.663	27.439	1269.476	1043.961
-13.648	27.562	1268.015	1043.425
-12.633	27.514	1267.202	1042.439
-11.619	27.468	1266.303	1041.394
-10.604	27.525	1265.257	1040.816
-9.590	27.538	1264.356	1040.111
-8.575	27.542	1262.926	1038.916
-7.560	27.547	1262.420	1038.486
-6.546	27.535	1261.885	1037.934
-5.531	27.435	1260.928	1036.538
-4.517	27.593	1259.707	1036.395
-3.502	27.559	1259.418	1035.922
-2.487	27.472	1258.656	1034.757
-1.473	27.600	1253.798	1031.449
-0.458	25.986	1239.109	1010.290
0.556	20.946	1223.195	972.751
1.571	17.302	1229.556	957.241
2.586	16.663	1244.359	965.042
3.600	16.722	1233.403	956.794
4.615	15.313	1167.144	897.777
5.629	12.302	1100.195	830.986
6.644	10.799	1083.325	810.678
7.659	10.735	1081.222	808.712
8.673	10.522	1080.300	806.894
9.688	10.624	1078.679	806.119
10.702	10.871	1076.649	805.755
11.717	12.619	1078.268	815.563
12.731	15.713	1082.478	834.043
13.746	17.567	1084.514	844.742
14.761	17.526	1084.127	844.161
15.775	16.555	1081.806	837.477
16.790	15.543	1079.990	830.992
17.804	14.822	1078.245	826.013
18.819	14.494	1076.516	822.997
19.834	14.151	1076.196	820.983
20.848	13.867	1075.525	818.999
21.863	13.735	1074.448	817.459
22.877	13.487	1073.598	815.517
23.892	13.495	1073.372	815.311
24.907	13.577	1071.997	814.602
25.921	13.557	1071.215	813.834
26.936	13.588	1069.747	812.800
27.950	13.641	1068.254	811.851
28.965	13.716	1066.998	811.195
29.980	13.742	1065.275	809.938
30.994	13.914	1063.941	809.692
32.009	13.769	1063.193	808.345
33.023	13.825	1062.083	807.701
34.038	13.704	1061.257	806.416
35.053	13.582	1060.556	805.217
36.067	13.708	1059.181	804.713
37.082	13.682	1058.457	803.968
38.096	13.694	1057.666	803.353
39.111	13.787	1057.272	803.430
40.126	13.561	1055.726	801.091
41.140	13.406	1054.831	799.596
42.155	13.503	1053.438	798.937
43.169	13.470	1052.206	797.772
44.184	13.554	1050.967	797.164
45.199	13.489	1050.168	796.177
46.213	13.608	1049.075	795.849
47.228	13.632	1048.041	795.107
48.242	13.675	1047.211	794.618
49.257	13.565	1046.414	793.413
50.271	13.710	1045.251	793.157
51.286	13.633	1044.389	792.061
52.301	13.650	1043.682	791.540
53.315	13.607	1042.061	790.034
54.330	13.617	1041.164	789.330
55.344	13.641	1040.752	789.062
56.359	13.599	1039.681	787.983
57.374	13.466	1039.093	786.835
58.388	13.435	1038.191	785.934
59.403	13.351	1037.565	784.992
60.417	13.404	1036.503	784.372
61.432	13.459	1035.713	783.966
62.447	13.395	1034.743	782.856
63.461	13.423	1033.960	782.329
64.476	13.271	1033.763	781.392
65.490	13.300	1032.423	780.449
66.505	13.487	1031.346	780.445
67.520	13.558	1030.688	780.214
68.534	13.473	1030.006	779.229
69.549	13.510	1028.786	778.408
70.563	13.361	1028.673	777.556
71.578	13.363	1028.044	777.020
72.593	13.333	1026.897	775.944
73.607	13.452	1026.167	775.882
74.622	13.448	1025.599	775.362
75.636	13.399	1025.120	774.704
76.651	13.472	1023.572	773.806
77.666	13.381	1023.607	773.338
78.680	13.253	1023.388	772.507
79.695	13.357	1022.629	772.353
80.709	13.479	1021.618	772.086
81.724	13.421	1021.159	771.403
82.739	13.527	1020.273	771.158
83.753	13.650	1019.426	771.025
84.768	13.790	1018.382	770.815
85.782	13.738	1017.441	769.793
86.797	13.669	1017.113	769.160
87.812	13.685	1015.902	768.246
88.826	13.623	1015.171	767.340
89.841	13.751	1013.804	766.833
90.855	13.739	1013.184	766.237
91.870	13.876	1012.014	765.920
92.884	13.770	1011.560	765.020
93.899	13.795	1010.630	764.362
94.914	13.870	1009.645	763.896
95.928	13.775	1009.347	763.164
96.943	13.681	1008.256	761.838
97.957	13.685	1007.331	761.093
98.972	13.747	1006.273	760.512
99.987	13.701	1005.552	759.689
101.001	13.781	1004.727	759.363
102.016	13.832	1003.567	758.652
103.030	13.773	1002.975	757.866
104.045	13.793	1002.289	757.375
105.060	13.664	1001.314	755.982
106.074	13.673	1000.034	754.990
107.089	13.545	999.286	753.776
108.103	13.512	998.366	752.864
109.118	13.632	997.122	752.404
110.133	13.516	996.593	751.412
111.147	13.489	995.598	750.475
112.162	13.559	994.851	750.163
113.176	13.554	993.886	749.344
114.191	13.618	993.556	749.316
115.206	13.751	992.227	748.850
116.220	13.553	991.681	747.481
117.235	13.668	990.801	747.266
118.249	13.592	989.711	746.037
119.264	13.608	988.806	745.361
120.279	13.502	988.276	744.420
121.293	13.479	987.241	743.469
122.308	13.469	986.360	742.696
123.322	13.599	984.892	742.108
124.337	13.403	984.620	740.960
125.352	13.490	983.271	740.269
126.366	13.503	981.700	739.078
127.381	13.631	980.802	738.907
128.395	13.566	980.417	738.260
129.410	13.598	979.115	737.358
130.424	13.676	978.580	737.239
131.439	13.788	977.315	736.715
132.454	13.552	977.405	735.673
133.468	13.679	976.267	735.314
134.483	13.618	975.228	734.196
135.497	13.727	974.209	733.847
136.512	13.698	973.652	733.233
137.527	13.681	972.823	732.466
138.541	13.673	972.220	731.916
139.556	13.618	971.806	731.296
140.570	13.723	971.171	731.216
141.585	13.995	969.932	731.416
142.600	13.822	969.126	729.982
143.614	13.974	968.123	729.828
144.629	14.024	967.451	729.478
145.643	13.919	966.490	728.230
146.658	13.755	966.335	727.328
147.673	13.697	964.621	725.721
148.687	13.716	964.206	725.426
149.702	13.718	963.072	724.519
150.716	13.753	962.578	724.234
151.731	13.742	961.731	723.483
152.746	13.765	960.978	722.957
153.760	13.778	960.439	722.544
154.775	13.936	959.808	722.692
155.789	13.922	959.242	722.142
156.804	13.974	958.083	721.429
157.819	14.004	957.216	720.842
158.833	13.931	957.243	720.482
159.848	14.169	955.982	720.501
160.862	14.054	955.178	719.332
161.877	13.781	954.741	717.759
162.892	13.948	953.369	717.385
163.906	14.059	951.958	716.740
164.921	13.891	951.980	715.970
165.935	13.929	950.766	715.157
166.950	13.759	950.043	713.820
167.964	13.912	949.181	713.764
168.979	13.854	948.637	713.042
169.994	13.926	947.298	712.282
171.008	13.920	946.672	711.723
172.023	13.984	945.810	711.287
173.037	14.209	944.902	711.501
174.052	14.122	944.094	710.460
175.067	13.895	943.972	709.337
176.081	13.858	943.427	708.707
177.096	13.949	942.833	708.583
178.110	13.922	942.265	707.981
179.125	14.016	941.477	707.725
180.140	14.093	940.779	707.467
181.154	14.012	940.650	706.963
182.169	14.103	939.701	706.570
183.183	14.184	939.552	706.743
184.198	14.150	938.417	705.683
185.213	14.356	937.093	705.496
186.227	14.263	937.165	705.093
187.242	14.324	936.344	704.669
188.256	14.308	935.536	703.932
189.271	14.193	935.355	703.249
190.286	14.134	934.456	702.260
191.300	14.130	933.225	701.259
192.315	13.949	933.099	700.337
193.329	13.942	932.730	699.968
194.344	14.064	932.082	699.933
195.359	14.203	931.281	699.857
196.373	14.286	930.601	699.632
197.388	14.211	930.750	699.364
198.402	14.437	929.733	699.487
199.417	14.335	929.183	698.587
200.432	14.486	928.741	698.825
201.446	14.575	928.082	698.641
202.461	14.713	927.218	698.506
203.475	14.360	927.176	696.935
204.490	14.551	926.131	696.883
205.504	14.459	925.329	695.836
206.519	14.333	924.881	694.910
207.534	14.534	923.565	694.699
208.548	14.422	923.578	694.183
209.563	14.417	922.795	693.508
210.577	14.470	921.892	692.991
211.592	14.536	921.167	692.657
212.607	14.613	920.386	692.328
213.621	14.654	919.791	691.989
214.636	14.675	918.692	691.187
215.650	14.720	918.033	690.819
216.665	14.721	917.658	690.479
217.680	14.836	916.529	690.042
218.694	14.779	916.338	689.603
219.709	14.779	915.560	688.958
220.723	14.658	915.057	688.019
221.738	14.677	913.988	687.231
222.753	14.579	913.850	686.667
223.767	14.742	913.250	686.823
224.782	14.879	912.598	686.834
225.796	14.832	912.313	686.365
226.811	14.674	911.673	685.177
227.826	14.828	910.527	684.885
228.840	14.942	909.666	684.644
229.855	14.713	909.303	683.373
230.869	14.803	908.197	682.849
231.884	14.690	907.682	681.939
232.899	14.768	906.881	681.595
233.913	14.775	906.066	680.951
234.928	14.508	906.103	679.832
235.942	14.829	905.315	680.486
236.957	14.804	904.640	679.816
237.972	14.684	904.374	679.070
238.986	14.762	903.252	678.485
240.001	14.824	902.528	678.133
241.015	14.880	901.986	677.890
242.030	14.749	901.509	676.944
243.045	14.794	901.093	676.752
244.059	14.785	900.395	676.132
245.074	14.975	899.695	676.314
246.088	14.908	898.820	675.326
247.103	15.093	897.952	675.360
248.117	15.098	897.830	675.229
249.132	15.109	897.371	674.869
250.147	15.121	896.886	674.491
251.161	15.208	895.945	674.074
252.176	15.268	895.626	674.016
253.190	15.350	894.191	673.207
254.205	15.477	893.955	673.480
255.220	15.398	893.233	672.557
256.234	15.427	892.949	672.399
257.249	15.356	892.106	671.423
258.263	15.438	890.814	670.717
259.278	15.357	890.839	670.354
260.293	15.479	890.137	670.253
261.307	15.457	889.598	669.703
262.322	15.482	889.022	669.306
263.336	15.495	888.121	668.620
264.351	15.466	887.258	667.798
265.366	15.631	886.628	667.920
266.380	15.562	886.050	667.151
267.395	15.441	885.521	666.215
268.409	15.571	884.894	666.200
269.424	15.432	884.184	665.054
270.439	15.453	883.256	664.382
271.453	15.671	882.256	664.430
272.468	15.554	882.144	663.825
273.482	15.633	881.506	663.599
274.497	15.581	881.039	662.985
275.512	15.622	880.573	662.737
276.526	15.571	879.796	661.892
277.541	15.668	878.979	661.602
278.555	15.629	878.761	661.224
279.570	15.638	878.373	660.911
280.585	15.862	877.069	660.750
281.599	15.823	875.924	659.676
282.614	15.744	875.589	659.056
283.628	15.608	875.174	658.153
284.643	15.718	874.917	658.333
285.657	15.728	874.237	657.801
286.672	15.761	873.123	657.032
287.687	15.806	872.398	656.606
288.701	15.785	872.346	656.426
289.716	15.902	871.720	656.350
290.730	15.761	871.404	655.505
291.745	15.783	870.625	654.947
292.760	15.864	869.958	654.702
293.774	15.972	869.264	654.543
294.789	15.935	868.796	653.991
295.803	15.999	867.779	653.415
296.818	15.965	867.387	652.928
297.833	15.964	866.830	652.447
298.847	15.928	865.863	651.524
299.862	16.007	865.446	651.459
300.876	16.005	865.196	651.205
301.891	15.972	864.356	650.386
302.906	16.048	863.974	650.336
303.920	16.155	863.499	650.333
304.935	16.241	862.934	650.180
305.949	16.222	862.159	649.465
306.964	16.199	861.536	648.851
307.979	16.177	861.021	648.322
308.993	16.270	860.688	648.372
310.008	16.256	859.983	647.726
311.022	16.152	859.163	646.656
312.037	16.203	858.430	646.241
313.052	16.206	858.161	645.994
314.066	16.077	857.590	645.010
315.081	16.066	857.005	644.471
316.095	16.200	856.526	644.568
317.110	16.118	855.840	643.683
318.125	16.192	855.253	643.467
319.139	16.096	854.748	642.662
320.154	16.189	854.560	642.817
321.168	16.175	853.842	642.170
322.183	16.221	853.439	641.985
323.197	16.196	852.650	641.239
324.212	16.372	852.110	641.445
325.227	16.299	851.571	640.703
326.241	16.364	850.881	640.375
327.256	16.250	850.192	639.367
328.270	16.275	849.838	639.138
329.285	16.387	849.514	639.265
330.300	16.289	848.784	638.286
331.314	16.213	848.387	637.643
332.329	16.291	848.267	637.791
333.343	16.344	847.302	637.211
334.358	16.302	847.072	636.823
335.373	16.479	846.604	637.080
336.387	16.383	846.445	636.545
337.402	16.355	846.353	636.313
338.416	16.455	845.940	636.323
339.431	16.530	845.255	636.032
340.446	16.558	844.927	635.834
341.460	16.667	844.673	635.998
342.475	16.713	844.253	635.798
343.489	16.772	843.633	635.496
344.504	16.735	843.055	634.866
345.519	16.824	842.814	634.963
346.533	16.690	842.207	633.947
347.548	16.696	841.563	633.427
348.562	16.615	841.042	632.677
349.577	16.704	840.363	632.442
350.592	16.596	839.685	631.475
351.606	16.543	839.163	630.828
352.621	16.624	838.315	630.433
353.635	16.579	837.913	629.908
354.650	16.668	837.303	629.725
355.665	16.661	836.681	629.177
356.679	16.748	835.841	628.812
357.694	16.778	835.176	628.368
358.708	16.852	834.661	628.199
359.723	16.883	833.658	627.502
360.738	16.829	833.328	626.999
361.752	17.034	832.315	626.940
362.767	16.763	832.367	625.921
363.781	16.962	831.339	625.829
364.796	16.965	831.777	626.114
365.810	17.033	830.895	625.647
366.825	17.140	830.488	625.678
367.840	17.055	830.028	624.963
368.854	16.978	829.822	624.470
369.869	17.007	829.378	624.185
370.883	17.157	828.615	624.108
371.898	17.097	828.449	623.708
372.913	17.075	828.063	623.280
373.927	17.120	827.334	622.842
374.942	17.213	826.972	622.856
375.956	17.056	826.962	622.218
376.971	17.242	826.068	622.171
377.986	17.328	825.357	621.892
379.000	17.451	825.018	622.034
380.015	17.307	824.571	621.114
381.029	17.339	823.887	620.662
382.044	17.272	823.697	620.219
383.059	17.417	822.893	620.087
384.073	17.365	822.203	619.324
385.088	17.362	821.835	618.981
386.102	17.193	821.127	617.780
387.117	17.349	820.755	618.010
388.132	17.323	820.109	617.373
389.146	17.363	819.391	616.926
390.161	17.558	818.928	617.229
391.175	17.350	818.602	616.174
392.190	17.471	817.992	616.101
393.205	17.399	817.346	615.297
394.219	17.350	817.314	615.043
395.234	17.269	816.695	614.229
396.248	17.437	816.468	614.612
397.263	17.316	815.766	613.592
398.278	17.191	815.712	613.043
399.292	17.275	815.092	612.828
400.307	17.359	815.047	613.043
401.321	17.426	813.900	612.365
402.336	17.544	813.331	612.309
403.350	17.445	813.354	611.916
404.365	17.473	812.831	611.567
405.380	17.610	812.447	611.716
406.394	17.556	812.126	611.229
407.409	17.714	811.626	611.363
408.423	17.716	811.178	610.979
409.438	17.702	810.591	610.435
410.453	17.844	810.206	610.598
411.467	17.813	809.659	610.022
412.482	17.983	809.066	610.129
413.496	17.891	809.091	609.762
414.511	17.742	808.922	609.050
415.526	17.914	808.158	609.032
416.540	17.908	807.697	608.611
417.555	17.732	807.405	607.710
418.569	17.926	806.675	607.797
419.584	18.035	806.075	607.679
420.599	17.790	806.185	606.838
421.613	111.505	1295.281	1477.161
422.628	96.213	1366.517	1477.221
