DTS Sentinel unit serial number:	SN413079Multiplexer serial number:	ORYXHardware model number:	OX4-SRSoftware version number:	ORYX F/W v4.00 Oryx Data Collector v3.7.2.0data status	okinstallation	princeton_trtdifferential loss correction	single-endedforward channel	channel 1reverse channel	N/Adate	2019/09/11time	18:28:11forward acquisition time	60.00reverse acquisition time	0.00gamma	496.2192k internal	0.2290k external	0.2290temperature offset calibration	1.0003default loss term (dB/km)	0.3790temperature slope calibration	1.0000multiplexer offset coefficient	1.0000multiplexer slope coefficient	1.0000fibre end	0.00T internal ref (°C)	43.87T ext. ref 1 (°C)	1.17T ext. ref 2 (°C)	37.71length (m)	temperature (°C)	Stokes	anti-Stokes-747.200	-56.479	-0.222	0.101
-746.185	-200.000	-0.006	0.310
-745.171	424.363	-0.089	0.195
-744.156	-33.336	0.400	0.227
-743.142	-49.522	-0.242	0.118
-742.127	-200.000	-0.016	0.414
-741.112	-87.047	-0.120	0.037
-740.098	107.857	-0.149	0.182
-739.083	-62.169	0.270	0.115
-738.069	420.478	0.061	0.134
-737.054	187.545	-0.093	0.142
-736.039	-40.091	-0.422	-0.225
-735.025	574.440	0.089	-0.223
-734.010	76.029	0.049	0.053
-732.996	-27.386	0.299	-0.178
-731.981	337.867	-0.089	-0.177
-730.966	-74.237	-0.248	-0.092
-729.952	99.015	0.087	-0.102
-728.937	-90.476	-0.203	-0.060
-727.923	-200.000	-0.012	-0.078
-726.908	-200.000	0.000	-0.087
-725.894	101.949	-0.192	-0.229
-724.879	659.137	-0.053	-0.139
-723.864	618.877	-0.090	-0.232
-722.850	-80.631	0.286	0.097
-721.835	20.960	-0.038	-0.032
-720.821	-109.736	-0.186	0.040
-719.806	-70.924	-0.112	0.043
-718.791	-200.000	0.006	0.131
-717.777	316.284	-0.037	0.071
-716.762	642.137	-0.204	-0.533
-715.748	94.515	-0.267	-0.311
-714.733	2.634	-0.432	0.320
-713.718	65.991	-0.045	0.047
-712.704	5.685	0.214	-0.162
-711.689	800.000	0.035	-0.100
-710.675	-200.000	-0.016	-0.109
-709.660	-20.496	0.372	0.234
-708.645	-87.596	-0.237	0.073
-707.631	-65.702	-0.149	-0.061
-706.616	-34.299	0.064	0.036
-705.602	-82.722	-0.091	0.030
-704.587	-200.000	-0.021	-0.465
-703.572	185.176	-0.123	0.187
-702.558	274.044	0.093	0.169
-701.543	409.140	0.102	0.221
-700.529	-43.687	-0.129	0.067
-699.514	61.539	0.482	0.491
-698.499	-95.693	0.177	0.048
-697.485	115.936	-0.257	-0.322
-696.470	-17.419	0.050	-0.032
-695.456	-7.618	0.094	0.065
-694.441	72.680	0.158	0.169
-693.426	-122.666	-0.260	0.043
-692.412	-6.248	0.156	0.109
-691.397	78.520	0.099	-0.108
-690.383	-168.090	-0.448	0.018
-689.368	29.170	0.322	-0.279
-688.354	-27.745	0.043	-0.026
-687.339	-92.492	0.261	0.075
-686.324	-4.938	-0.239	-0.168
-685.310	-200.000	0.008	0.079
-684.295	16.169	-0.260	0.210
-683.281	-200.000	0.076	0.468
-682.266	334.562	-0.112	-0.222
-681.251	14.238	0.214	-0.171
-680.237	305.970	-0.114	0.218
-679.222	-33.786	-0.140	-0.079
-678.208	-148.499	-0.323	-0.027
-677.193	117.188	-0.070	-0.088
-676.178	46.606	-0.166	-0.157
-675.164	510.730	-0.046	0.110
-674.149	268.088	-0.106	0.190
-673.135	-7.111	0.105	-0.073
-672.120	-200.000	0.028	0.251
-671.105	-161.975	0.033	-0.002
-670.091	35.695	0.028	0.026
-669.076	-200.000	0.010	-0.204
-668.062	162.648	0.071	0.102
-667.047	199.273	0.127	0.199
-666.032	-27.731	0.180	-0.107
-665.018	59.535	-0.052	0.053
-664.003	58.221	0.146	-0.146
-662.989	-200.000	-0.014	0.127
-661.974	-200.000	-0.027	-0.164
-660.959	-51.967	-0.177	-0.084
-659.945	76.538	-0.100	-0.108
-658.930	800.000	-0.071	-0.271
-657.916	-200.000	-0.008	-0.131
-656.901	95.275	-0.102	0.119
-655.886	800.000	0.069	-0.265
-654.872	90.994	0.203	-0.233
-653.857	-154.228	-0.196	0.014
-652.843	-118.302	-0.391	-0.071
-651.828	-35.149	-0.170	0.094
-650.814	800.000	0.093	0.299
-649.799	-200.000	0.003	-0.108
-648.784	-124.841	0.246	0.039
-647.770	-133.892	0.058	0.007
-646.755	-200.000	-0.001	0.343
-645.741	-105.198	0.193	0.045
-644.726	-200.000	-0.043	0.191
-643.711	0.636	0.201	-0.147
-642.697	-93.449	0.103	-0.029
-641.682	-76.137	-0.395	-0.142
-640.668	188.426	0.105	0.160
-639.653	-146.600	0.273	-0.024
-638.638	69.267	0.289	-0.303
-637.624	19.149	-0.197	0.162
-636.609	157.492	0.072	-0.102
-635.595	-200.000	0.003	0.121
-634.580	-7.803	0.050	-0.034
-633.565	248.142	0.083	-0.143
-632.551	800.000	0.159	-0.537
-631.536	-200.000	-0.054	0.292
-630.522	374.353	0.061	-0.127
-629.507	90.677	-0.084	-0.096
-628.492	24.318	-0.292	0.246
-627.478	-103.857	0.313	0.075
-626.463	155.077	0.090	0.126
-625.449	210.472	0.111	-0.178
-624.434	146.856	-0.089	-0.122
-623.419	-200.000	0.017	-0.505
-622.405	-200.000	0.015	0.183
-621.390	800.000	0.017	0.074
-620.376	74.391	-0.132	0.141
-619.361	390.312	-0.076	-0.160
-618.346	800.000	0.142	-0.447
-617.332	43.832	0.174	0.162
-616.317	134.741	-0.204	-0.270
-615.303	-145.088	-0.183	0.017
-614.288	800.000	-0.099	0.336
-613.273	800.000	-0.070	0.225
-612.259	-200.000	-0.072	-0.327
-611.244	800.000	0.069	0.200
-610.230	547.076	0.142	0.347
-609.215	-20.290	0.256	0.160
-608.201	-200.000	-0.028	-0.129
-607.186	211.911	0.095	-0.152
-606.171	19.385	0.110	0.090
-605.157	34.864	-0.084	0.075
-604.142	-131.178	-0.342	0.046
-603.128	506.221	-0.090	0.212
-602.113	800.000	0.087	-0.264
-601.098	-45.952	-0.203	0.102
-600.084	60.435	0.064	0.065
-599.069	-200.000	-0.043	-0.284
-598.055	142.652	0.147	0.198
-597.040	-153.907	0.382	-0.027
-596.025	-105.223	0.098	-0.023
-595.011	325.894	-0.061	-0.118
-593.996	-200.000	-0.040	-0.353
-592.982	33.140	0.048	0.042
-591.967	800.000	-0.077	-0.221
-590.952	-97.544	-0.298	-0.079
-589.938	-24.273	0.242	-0.147
-588.923	-200.000	-0.022	-0.111
-587.909	148.986	-0.154	0.212
-586.894	-143.413	0.385	0.037
-585.879	-200.000	-0.060	-0.354
-584.865	-106.506	0.202	0.046
-583.850	-12.325	0.074	-0.049
-582.836	-200.000	-0.062	-0.341
-581.821	401.506	-0.105	0.224
-580.806	164.641	0.142	0.203
-579.792	-200.000	0.002	-0.069
-578.777	64.114	-0.262	-0.268
-577.763	-121.736	0.179	0.030
-576.748	4.308	0.115	-0.085
-575.733	800.000	0.037	-0.160
-574.719	77.649	0.213	-0.231
-573.704	-46.125	0.081	0.041
-572.690	77.565	-0.157	0.170
-571.675	-200.000	0.009	0.396
-570.661	66.117	-0.117	0.121
-569.646	-200.000	-0.038	-0.279
-568.631	638.613	0.102	-0.264
-567.617	800.000	-0.099	-0.356
-566.602	-200.000	-0.039	-0.275
-565.588	-139.364	0.187	-0.020
-564.573	-94.811	-0.139	-0.038
-563.558	151.067	-0.077	-0.107
-562.544	171.566	-0.114	0.166
-561.529	275.354	-0.166	-0.299
-560.515	-81.234	0.290	-0.097
-559.500	-80.549	0.250	-0.085
-558.485	43.577	-0.320	0.297
-557.471	-108.023	0.251	-0.055
-556.456	-200.000	0.068	0.339
-555.442	-200.000	0.038	0.374
-554.427	229.324	-0.150	0.249
-553.412	800.000	0.039	0.135
-552.398	12.802	0.116	-0.091
-551.383	584.823	-0.105	-0.263
-550.369	71.703	0.210	0.222
-549.354	29.415	0.042	0.036
-548.339	-200.000	-0.055	-0.391
-547.325	560.962	-0.122	-0.299
-546.310	-82.386	-0.272	0.090
-545.296	123.301	-0.046	-0.059
-544.281	-106.179	-0.242	-0.055
-543.266	-11.415	-0.252	0.168
-542.252	-3.026	0.075	-0.053
-541.237	55.767	0.116	-0.114
-540.223	-139.333	0.262	-0.029
-539.208	-97.271	0.073	-0.019
-538.193	-105.453	0.196	0.045
-537.179	-84.174	-0.283	-0.091
-536.164	122.821	0.021	-0.027
-535.150	-28.342	0.101	-0.059
-534.135	-139.591	-0.260	-0.028
-533.121	-200.000	0.026	0.201
-532.106	800.000	0.053	0.184
-531.091	241.312	-0.261	0.442
-530.077	-200.000	-0.014	-0.068
-529.062	59.058	0.101	0.101
-528.048	-128.716	0.140	0.020
-527.033	800.000	-0.052	-0.156
-526.018	35.926	-0.094	0.084
-525.004	-112.757	0.171	0.034
-523.989	276.809	-0.135	0.244
-522.975	179.940	-0.134	-0.200
-521.960	-83.775	0.117	-0.038
-520.945	-81.246	-0.222	0.074
-519.931	-133.589	0.140	-0.018
-518.916	244.841	0.319	-0.545
-517.902	-15.411	-0.153	-0.100
-516.887	-0.268	-0.084	0.060
-515.872	-151.000	-0.037	0.003
-514.858	-83.594	-0.318	-0.103
-513.843	-124.494	-0.245	-0.039
-512.829	-22.923	-0.328	-0.201
-511.814	224.990	0.113	0.186
-510.799	-34.366	-0.237	0.132
-509.785	-36.393	-0.057	0.031
-508.770	-102.502	0.412	0.100
-507.756	540.421	0.059	0.142
-506.741	-200.000	-0.016	-0.079
-505.726	-94.347	-0.174	0.048
-504.712	-80.077	-0.219	-0.075
-503.697	734.097	-0.102	-0.278
-502.683	-51.534	-0.068	0.032
-501.668	-82.380	-0.011	0.004
-500.653	59.055	-0.049	0.049
-499.639	-123.307	-0.180	-0.029
-498.624	-110.357	-0.233	0.049
-497.610	-188.981	-0.172	0.002
-496.595	-97.625	-0.038	-0.010
-495.581	-40.743	0.179	-0.094
-494.566	194.396	-0.097	0.149
-493.551	13.885	-0.068	0.054
-492.537	202.858	-0.136	0.212
-491.522	-167.064	0.252	0.010
-490.508	-59.947	0.204	-0.088
-489.493	-121.678	-0.093	0.016
-488.478	635.588	0.127	0.328
-487.464	65.557	-0.126	0.130
-486.449	244.843	0.112	0.192
-485.435	382.627	-0.118	0.246
-484.420	-200.000	0.026	0.284
-483.405	221.328	-0.140	0.229
-482.391	-159.593	0.260	-0.015
-481.376	-200.000	0.060	-0.413
-480.362	-174.603	-0.269	-0.008
-479.347	800.000	0.086	-0.256
-478.332	-49.680	-0.314	0.151
-477.318	-9.811	-0.268	0.181
-476.303	-200.000	-0.020	-0.155
-475.289	-200.000	0.033	-0.346
-474.274	-200.000	-0.014	-0.087
-473.259	107.518	-0.054	0.065
-472.245	-200.000	0.041	0.206
-471.230	-200.000	-0.001	-0.273
-470.216	-51.693	0.115	0.054
-469.201	-103.020	-0.029	0.007
-468.186	363.116	-0.175	0.356
-467.172	-10.090	-0.185	0.125
-466.157	-200.000	0.051	0.323
-465.143	765.014	0.080	0.221
-464.128	-58.017	0.160	0.071
-463.113	800.000	0.061	0.231
-462.099	-64.508	-0.181	-0.074
-461.084	253.905	-0.140	0.243
-460.070	800.000	0.093	-0.300
-459.055	800.000	-0.132	0.394
-458.040	78.841	-0.085	-0.092
-457.026	-161.119	0.112	-0.006
-456.011	-44.566	0.178	0.090
-454.997	-200.000	0.025	-0.180
-453.982	-41.509	-0.141	0.074
-452.968	-200.000	-0.011	0.421
-451.953	-95.762	-0.112	0.030
-450.938	800.000	-0.042	-0.147
-449.924	-83.792	-0.234	0.076
-448.909	72.190	0.036	0.038
-447.895	800.000	-0.066	-0.284
-446.880	83.821	-0.127	-0.140
-445.865	179.968	0.101	0.150
-444.851	40.440	0.074	-0.067
-443.836	-200.000	0.030	-0.172
-442.822	-131.427	0.044	-0.006
-441.807	-200.000	-0.005	0.243
-440.792	-200.000	0.001	-0.032
-439.778	-34.579	-0.188	0.104
-438.763	800.000	-0.044	-0.164
-437.749	183.678	-0.213	-0.319
-436.734	-95.563	-0.112	0.030
-435.719	456.173	0.094	0.211
-434.705	258.909	-0.143	0.250
-433.690	68.489	-0.262	0.271
-432.676	800.000	-0.038	0.150
-431.661	-96.319	-0.172	-0.046
-430.646	-119.023	0.477	0.085
-429.632	131.169	-0.105	-0.136
-428.617	138.586	0.176	0.233
-427.603	-200.000	-0.003	0.443
-426.588	590.218	-0.115	0.286
-425.573	77.352	0.062	0.067
-424.559	800.000	-0.105	-0.301
-423.544	22.141	-0.269	0.222
-422.530	204.344	-0.080	0.126
-421.515	-144.860	0.230	0.021
-420.500	-69.374	-0.154	0.060
-419.486	146.492	0.122	0.165
-418.471	65.020	0.055	-0.056
-417.457	335.158	0.238	-0.467
-416.442	266.975	0.063	0.111
-415.428	153.263	0.081	-0.113
-414.413	-115.824	0.262	0.050
-413.398	-200.000	-0.002	-0.165
-412.384	800.000	-0.074	0.298
-411.369	-6.161	-0.350	0.242
-410.355	36.748	-0.209	0.187
-409.340	0.796	0.283	-0.205
-408.325	37.410	-0.130	-0.116
-407.311	-74.661	-0.253	-0.092
-406.296	-56.963	0.068	-0.030
-405.282	232.357	0.160	0.266
-404.267	-80.065	0.093	-0.031
-403.252	36.778	-0.090	0.080
-402.238	-65.720	-0.157	0.064
-401.223	1.755	-0.252	0.184
-400.209	568.936	-0.052	0.127
-399.194	-101.720	0.249	-0.061
-398.179	-100.095	0.222	-0.056
-397.165	-8.317	0.115	0.078
-396.150	37.497	0.103	-0.093
-395.136	-68.942	-0.068	0.027
-394.121	33.398	0.154	-0.135
-393.106	47.532	0.097	-0.091
-392.092	-145.382	-0.251	0.023
-391.077	-80.843	0.417	-0.140
-390.063	-200.000	-0.003	0.246
-389.048	213.529	0.073	0.117
-388.033	770.131	0.106	0.291
-387.019	800.000	-0.083	0.256
-386.004	800.000	0.057	-0.197
-384.990	4.613	-0.173	-0.128
-383.975	-129.053	-0.108	-0.015
-382.960	314.332	-0.095	-0.181
-381.946	-200.000	0.004	0.214
-380.931	98.554	0.165	-0.193
-379.917	-200.000	0.003	-0.116
-378.902	-200.000	-0.074	-0.340
-377.888	58.432	-0.186	-0.184
-376.873	345.170	0.028	0.056
-375.858	-125.310	-0.098	-0.015
-374.844	-102.546	0.165	-0.040
-373.829	23.019	-0.106	-0.088
-372.815	56.509	-0.039	-0.038
-371.800	19.026	0.174	-0.141
-370.785	55.044	-0.162	-0.158
-369.771	20.734	0.122	-0.100
-368.756	800.000	-0.067	0.211
-367.742	-47.519	0.364	0.179
-366.727	-200.000	0.053	0.346
-365.712	149.991	0.086	0.118
-364.698	-49.409	0.151	0.073
-363.683	95.216	0.110	0.127
-362.669	-64.999	0.085	-0.035
-361.654	60.392	-0.159	0.159
-360.639	-200.000	-0.015	-0.424
-359.625	-114.489	0.362	-0.070
-358.610	-200.000	-0.023	0.190
-357.596	-200.000	0.018	-0.083
-356.581	-67.524	-0.188	0.075
-355.566	762.669	0.068	0.185
-354.552	610.015	-0.081	0.204
-353.537	53.706	0.393	0.381
-352.523	79.685	-0.037	0.040
-351.508	-61.073	-0.125	0.053
-350.493	-157.225	-0.241	-0.015
-349.479	64.204	0.212	-0.215
-348.464	-200.000	0.020	0.228
-347.450	-132.123	0.346	-0.045
-346.435	128.271	-0.108	0.139
-345.420	-135.055	0.244	-0.030
-344.406	93.749	-0.120	0.137
-343.391	-200.000	0.001	0.220
-342.377	115.482	0.109	0.134
-341.362	-200.000	-0.015	-0.135
-340.348	243.416	0.079	-0.134
-339.333	-151.486	-0.429	0.032
-338.318	-9.938	0.135	0.091
-337.304	21.666	-0.203	0.167
-336.289	143.198	0.174	0.234
-335.275	42.390	-0.077	-0.071
-334.260	-6.352	-0.426	-0.293
-333.245	-6.698	0.356	-0.245
-332.231	-151.577	0.252	0.019
-331.216	263.203	0.120	0.210
-330.202	-200.000	0.015	0.220
-329.187	-200.000	-0.089	0.413
-328.172	-114.994	-0.231	0.044
-327.158	-200.000	0.039	-0.268
-326.143	433.813	0.091	0.199
-325.129	-127.265	-0.275	0.040
-324.114	-176.021	-0.347	-0.009
-323.099	71.695	-0.069	0.072
-322.085	-168.739	-0.126	-0.005
-321.070	-21.425	-0.260	0.160
-320.056	81.189	-0.310	-0.337
-319.041	-200.000	-0.075	-0.372
-318.026	-60.194	-0.261	-0.112
-317.012	-200.000	-0.043	-0.342
-315.997	38.909	-0.114	0.102
-314.983	-176.031	0.330	0.009
-313.968	39.807	0.106	-0.096
-312.953	-12.346	-0.211	0.139
-311.939	578.494	-0.092	-0.228
-310.924	37.200	0.185	0.165
-309.910	252.543	-0.080	-0.137
-308.895	118.979	0.040	0.049
-307.880	72.012	0.163	0.171
-306.866	-56.553	-0.242	-0.108
-305.851	-200.000	-0.032	-0.241
-304.837	-76.202	-0.123	-0.044
-303.822	-0.631	-0.081	-0.058
-302.807	-28.330	0.304	-0.177
-301.793	-15.003	0.081	-0.052
-300.778	134.466	0.416	-0.543
-299.764	-200.000	0.022	-0.163
-298.749	-200.000	-0.003	0.143
-297.735	-66.207	-0.272	-0.109
-296.720	41.647	0.226	-0.206
-295.705	72.289	0.099	-0.104
-294.691	-27.094	-0.569	-0.334
-293.676	-75.345	0.018	-0.006
-292.662	-108.442	-0.155	-0.034
-291.647	83.896	-0.161	-0.177
-290.632	10.123	0.087	0.067
-289.618	1.486	0.206	0.149
-288.603	364.555	-0.098	0.198
-287.589	379.474	0.250	-0.515
-286.574	401.927	0.149	-0.314
-285.559	85.770	0.123	-0.137
-284.545	-200.000	0.024	0.210
-283.530	800.000	-0.051	0.197
-282.516	66.015	0.029	-0.030
-281.501	-185.469	0.267	0.004
-280.486	10.065	0.072	-0.055
-279.472	-200.000	0.001	0.212
-278.457	-16.376	-0.127	-0.081
-277.443	800.000	0.035	0.104
-276.428	-10.988	0.133	-0.088
-275.413	-74.096	0.139	-0.051
-274.399	149.423	0.211	0.287
-273.384	-77.153	-0.294	0.103
-272.370	-8.415	0.263	-0.178
-271.355	-60.903	0.053	-0.022
-270.340	274.175	-0.166	0.295
-269.326	151.531	-0.100	-0.137
-268.311	51.226	-0.179	0.171
-267.297	122.337	0.245	0.308
-266.282	800.000	0.060	0.233
-265.267	-200.000	-0.061	0.281
-264.253	-200.000	-0.018	-0.135
-263.238	190.135	0.196	-0.296
-262.224	-78.011	-0.504	-0.175
-261.209	-153.547	0.136	0.009
-260.195	-200.000	-0.000	0.184
-259.180	2.629	0.134	-0.098
-258.165	-58.318	0.237	-0.104
-257.151	800.000	0.055	-0.154
-256.136	-112.601	-0.184	0.037
-255.122	-120.751	0.399	-0.068
-254.107	232.659	0.068	0.113
-253.092	146.522	0.038	-0.051
-252.078	-66.623	-0.107	0.043
-251.063	800.000	0.082	-0.299
-250.049	509.754	0.138	-0.323
-249.034	-123.793	-0.241	0.038
-248.019	-200.000	-0.010	-0.151
-247.005	265.155	-0.070	0.122
-245.990	-170.386	-0.122	-0.004
-244.976	405.908	0.172	0.364
-243.961	41.753	-0.054	-0.049
-242.946	-134.485	-0.152	0.019
-241.932	-200.000	0.090	-0.415
-240.917	738.071	0.138	-0.371
-239.903	-110.523	-0.311	0.065
-238.888	-179.275	0.357	0.008
-237.873	-23.068	-0.239	0.145
-236.859	-21.353	0.199	-0.122
-235.844	604.053	0.095	0.238
-234.830	363.391	0.056	0.112
-233.815	-25.036	0.249	-0.148
-232.800	-117.340	0.204	-0.037
-231.786	-200.000	-0.019	-0.105
-230.771	51.251	0.188	0.179
-229.757	-99.003	0.117	-0.030
-228.742	-127.374	0.356	-0.052
-227.727	268.263	-0.019	-0.033
-226.713	-88.280	0.015	0.005
-225.698	-36.975	-0.194	-0.104
-224.684	443.640	-0.038	-0.083
-223.669	-135.505	0.233	-0.028
-222.655	55.000	-0.149	0.145
-221.640	800.000	0.019	-0.078
-220.625	274.334	0.068	0.121
-219.611	8.565	-0.184	-0.139
-218.596	38.488	-0.091	0.082
-217.582	-122.970	0.221	0.036
-216.567	-200.000	0.039	-0.211
-215.552	228.322	-0.232	-0.379
-214.538	-200.000	0.025	0.160
-213.523	-200.000	-0.080	0.366
-212.509	-58.613	0.073	0.032
-211.494	-159.749	-0.295	-0.016
-210.479	-160.135	0.138	0.008
-209.465	436.394	-0.182	0.399
-208.450	-200.000	-0.001	0.111
-207.436	-86.503	0.141	-0.043
-206.421	-104.307	-0.177	-0.041
-205.406	65.276	-0.119	-0.121
-204.392	174.032	-0.072	0.104
-203.377	-200.000	0.044	0.198
-202.363	48.491	0.166	-0.156
-201.348	-104.635	-0.168	-0.039
-200.333	48.877	0.163	0.153
-199.319	-200.000	-0.019	0.207
-198.304	339.616	0.114	-0.223
-197.290	-115.559	-0.259	-0.049
-196.275	-132.893	0.276	0.035
-195.260	800.000	0.109	-0.322
-194.246	700.390	-0.103	0.271
-193.231	-36.266	0.239	0.129
-192.217	-200.000	-0.012	-0.093
-191.202	168.203	0.121	0.173
-190.187	57.060	0.108	0.105
-189.173	-29.091	0.149	-0.086
-188.158	-200.000	0.024	0.239
-187.144	-200.000	-0.010	0.072
-186.129	-160.188	-0.113	-0.006
-185.114	332.320	0.031	-0.061
-184.100	67.561	-0.102	-0.105
-183.085	-85.141	-0.145	-0.045
-182.071	57.496	-0.046	0.045
-181.056	39.908	-0.153	0.138
-180.042	800.000	-0.051	-0.190
-179.027	37.553	0.151	0.134
-178.012	275.816	-0.135	-0.240
-176.998	800.000	0.159	-0.550
-175.983	-47.132	-0.265	-0.129
-174.969	-200.000	-0.008	0.095
-173.954	-79.108	0.134	0.046
-172.939	-19.156	0.201	-0.125
-171.925	-140.166	-0.508	0.053
-170.910	-200.000	0.003	-0.157
-169.896	-200.000	0.018	0.146
-168.881	522.106	-0.096	-0.226
-167.866	162.798	0.128	-0.180
-166.852	20.404	0.162	-0.131
-165.837	-81.749	-0.180	-0.059
-164.823	-0.261	-0.249	-0.177
-163.808	558.085	-0.013	0.031
-162.793	57.674	0.147	0.144
-161.779	-145.434	0.289	-0.026
-160.764	497.975	-0.156	0.359
-159.750	-44.827	0.185	0.092
-158.735	-200.000	0.002	-0.241
-157.720	228.576	-0.223	0.364
-156.706	339.403	0.162	-0.315
-155.691	-123.323	0.196	-0.031
-154.677	-86.208	-0.054	0.017
-153.662	26.442	0.169	0.142
-152.647	67.082	-0.026	-0.027
-151.633	-67.546	-0.274	-0.108
-150.618	-200.000	-0.009	0.396
-149.604	-59.219	-0.219	-0.094
-148.589	248.900	0.053	-0.090
-147.574	-87.602	0.107	-0.032
-146.560	-200.000	-0.012	-0.118
-145.545	4.616	0.166	-0.122
-144.531	-76.501	0.210	-0.074
-143.516	-200.000	-0.001	-0.043
-142.502	-4.671	-0.118	0.081
-141.487	-53.635	0.068	-0.031
-140.472	-200.000	-0.066	0.372
-139.458	703.870	0.024	-0.064
-138.443	259.036	0.286	-0.494
-137.429	169.852	0.302	0.432
-136.414	-200.000	0.015	0.164
-135.399	-114.339	-0.110	0.021
-134.385	-94.394	0.232	0.063
-133.370	-200.000	-0.017	0.159
-132.356	-134.371	0.102	0.013
-131.341	800.000	-0.091	0.332
-130.326	-82.166	-0.252	0.082
-129.312	800.000	-0.082	0.264
-128.297	-200.000	-0.007	0.209
-127.283	124.514	0.081	0.102
-126.268	-72.064	0.338	-0.126
-125.253	63.474	-0.242	0.243
-124.239	117.842	-0.158	0.195
-123.224	56.539	0.034	0.033
-122.210	-200.000	-0.002	0.124
-121.195	14.106	-0.086	-0.067
-120.180	-41.878	-0.361	0.185
-119.166	494.803	0.097	0.222
-118.151	-72.424	-0.032	-0.012
-117.137	800.000	-0.077	0.256
-116.122	-200.000	0.000	0.220
-115.107	164.294	0.111	0.157
-114.093	-200.000	0.043	-0.207
-113.078	-108.949	-0.346	0.074
-112.064	-137.125	-0.382	0.044
-111.049	379.248	0.132	-0.270
-110.034	-200.000	-0.007	0.063
-109.020	-129.811	0.231	0.032
-108.005	-200.000	0.034	0.219
-106.991	181.639	0.180	0.265
-105.976	-102.466	-0.127	-0.030
-104.962	-43.887	-0.292	-0.147
-103.947	-31.725	-0.135	-0.076
-102.932	-111.428	0.234	-0.048
-101.918	-65.297	-0.288	0.116
-100.903	143.167	0.113	-0.150
-99.889	-113.261	-0.213	-0.042
-98.874	105.066	0.312	-0.368
-97.859	-18.651	-0.078	0.049
-96.845	800.000	-0.036	-0.115
-95.830	-53.009	-0.100	-0.046
-94.816	-75.355	0.281	-0.100
-93.801	72.519	0.276	-0.287
-92.786	90.374	-0.065	-0.072
-91.772	-28.323	-0.107	-0.062
-90.757	271.728	0.059	0.104
-89.743	-55.146	-0.309	0.139
-88.728	59.882	-0.115	-0.113
-87.713	133.787	0.059	-0.076
-86.699	423.149	0.126	0.269
-85.684	-34.983	0.310	0.169
-84.670	-39.525	0.420	0.220
-83.655	2.122	0.248	-0.179
-82.640	-200.000	-0.015	-0.308
-81.626	-200.000	-0.022	0.194
-80.611	-49.231	0.138	0.066
-79.597	-15.328	-0.085	0.055
-78.582	129.604	-0.053	0.068
-77.567	-105.927	0.150	-0.034
-76.553	161.801	0.303	0.424
-75.538	125.696	-0.249	0.314
-74.524	-25.020	0.142	0.084
-73.509	86.619	-0.014	-0.016
-72.494	-182.462	-0.070	0.001
-71.480	-1.070	-0.241	-0.170
-70.465	221.917	0.148	0.237
-69.451	116.466	-0.309	-0.378
-68.436	-47.290	0.309	0.150
-67.422	200.072	-0.217	0.332
-66.407	-149.133	-0.243	0.019
-65.392	-200.000	0.043	0.190
-64.378	-117.895	-0.094	0.017
-63.363	-63.338	0.249	0.102
-62.349	-84.966	-0.304	0.095
-61.334	-15.570	-0.935	-0.595
-60.319	-28.920	-0.171	0.098
-59.305	27.487	-0.462	-0.388
-58.290	72.300	0.458	0.476
-57.276	396.758	0.732	1.525
-56.261	-200.000	72.201	532.129
-55.246	602.381	1275.930	3163.399
-54.232	147.664	2494.551	3352.190
-53.217	122.776	2222.343	2772.928
-52.203	56.920	1666.190	1618.952
-51.188	48.133	1383.867	1290.418
-50.173	44.191	1335.756	1221.838
-49.159	61.653	1366.993	1356.605
-48.144	70.186	1386.433	1427.473
-47.130	48.209	1349.926	1259.028
-46.115	44.008	1333.231	1218.235
-45.100	43.753	1328.719	1212.536
-44.086	43.748	1326.274	1210.227
-43.071	43.623	1324.048	1207.403
-42.057	43.652	1321.660	1205.346
-41.042	43.684	1320.073	1204.043
-40.027	43.625	1318.966	1202.633
-39.013	43.733	1316.759	1201.214
-37.998	43.791	1314.412	1199.370
-36.984	43.883	1312.581	1198.198
-35.969	43.905	1310.973	1196.810
-34.954	43.972	1309.309	1195.640
-33.940	43.909	1308.139	1194.153
-32.925	43.943	1306.863	1193.143
-31.911	43.968	1305.156	1191.680
-30.896	43.876	1303.586	1189.662
-29.881	43.932	1302.272	1188.741
-28.867	43.900	1301.033	1187.381
-27.852	44.064	1298.771	1186.226
-26.838	44.076	1297.831	1185.388
-25.823	43.939	1296.670	1183.485
-24.809	43.962	1295.351	1182.369
-23.794	43.894	1294.128	1180.809
-22.779	43.985	1292.304	1179.626
-21.765	44.021	1291.139	1178.726
-20.750	43.932	1289.871	1177.006
-19.736	43.930	1288.607	1175.792
-18.721	43.854	1287.477	1174.273
-17.706	43.793	1286.569	1173.047
-16.692	43.846	1285.054	1171.922
-15.677	43.884	1283.332	1170.530
-14.663	43.877	1282.587	1169.758
-13.648	43.717	1281.587	1167.879
-12.633	43.711	1280.584	1166.883
-11.619	43.827	1279.867	1166.849
-10.604	43.816	1278.707	1165.687
-9.590	43.885	1277.662	1165.085
-8.575	43.778	1277.050	1163.865
-7.560	43.790	1275.646	1162.604
-6.546	43.811	1274.718	1161.838
-5.531	43.804	1273.683	1160.805
-4.517	43.681	1273.326	1159.731
-3.502	43.814	1272.431	1159.629
-2.487	43.769	1271.770	1158.724
-1.473	43.857	1267.681	1155.455
-0.458	42.489	1252.000	1133.404
0.556	37.431	1231.384	1087.867
1.571	32.747	1233.133	1062.990
2.586	31.392	1247.266	1067.347
3.600	29.708	1236.678	1048.645
4.615	21.215	1159.500	937.724
5.629	7.822	1074.754	802.008
6.644	1.697	1049.597	752.938
7.659	1.068	1046.612	747.628
8.673	0.995	1045.369	746.315
9.688	0.943	1044.137	745.116
10.702	1.410	1043.166	746.652
11.717	8.909	1053.746	791.281
12.731	19.583	1069.602	856.323
13.746	23.711	1073.681	880.014
14.761	23.643	1073.563	879.499
15.775	23.674	1072.972	879.091
16.790	23.427	1072.374	877.304
17.804	23.309	1071.856	876.219
18.819	23.441	1071.054	876.135
19.834	23.401	1071.204	875.982
20.848	23.620	1070.371	876.309
21.863	23.481	1069.746	875.031
22.877	23.601	1068.970	874.908
23.892	23.501	1067.987	873.535
24.907	23.601	1067.344	873.423
25.921	23.428	1066.477	871.789
26.936	23.574	1064.742	871.012
27.950	23.604	1063.106	869.740
28.965	23.373	1061.803	867.465
29.980	23.335	1060.497	866.136
30.994	23.611	1059.015	866.200
32.009	23.581	1058.504	865.555
33.023	23.369	1056.696	862.970
34.038	23.363	1056.462	862.674
35.053	23.533	1055.794	862.879
36.067	23.570	1054.835	862.196
37.082	23.654	1054.375	862.153
38.096	23.738	1054.016	862.193
39.111	23.898	1052.934	862.005
40.126	23.803	1051.256	860.094
41.140	23.348	1049.716	856.561
42.155	22.998	1048.783	854.034
43.169	23.218	1047.317	853.824
44.184	23.147	1046.369	852.636
45.199	23.080	1045.568	851.585
46.213	23.155	1044.800	851.245
47.228	23.269	1044.075	851.126
48.242	23.353	1043.545	851.024
49.257	23.480	1042.134	850.407
50.271	23.573	1041.400	850.177
51.286	23.616	1040.608	849.659
52.301	23.600	1039.813	848.860
53.315	23.498	1038.699	847.390
54.330	23.570	1038.017	847.100
55.344	23.507	1037.229	846.081
56.359	23.580	1035.980	845.334
57.374	23.261	1035.234	843.131
58.388	23.297	1034.779	842.861
59.403	23.253	1033.657	841.663
60.417	23.088	1032.986	840.256
61.432	23.115	1032.514	839.926
62.447	23.332	1031.485	840.046
63.461	23.356	1030.795	839.521
64.476	23.234	1029.906	838.148
65.490	23.148	1029.128	837.032
66.505	23.261	1028.035	836.603
67.520	23.354	1027.323	836.389
68.534	23.159	1026.295	834.559
69.549	22.862	1024.934	831.978
70.563	22.866	1024.229	831.351
71.578	22.872	1023.407	830.638
72.593	22.684	1022.363	828.834
73.607	22.829	1021.916	829.078
74.622	23.157	1021.849	830.494
75.636	23.010	1020.869	828.934
76.651	23.012	1020.246	828.364
77.666	22.915	1019.504	827.234
78.680	23.058	1018.371	826.907
79.695	23.037	1018.206	826.604
80.709	23.201	1017.268	826.533
81.724	23.208	1016.328	825.732
82.739	23.224	1015.735	825.252
83.753	23.513	1015.309	826.177
84.768	23.855	1014.146	826.750
85.782	23.892	1013.688	826.475
86.797	23.896	1012.368	825.345
87.812	23.782	1011.555	824.081
88.826	23.715	1010.885	823.153
89.841	23.763	1010.305	822.827
90.855	23.988	1008.680	822.474
91.870	23.864	1007.783	821.096
92.884	23.632	1007.306	819.565
93.899	23.640	1006.204	818.631
94.914	23.792	1005.222	818.461
95.928	23.738	1003.764	816.951
96.943	23.421	1003.275	815.023
97.957	23.258	1001.918	813.102
98.972	23.187	1000.575	811.614
99.987	23.310	1000.465	812.016
101.001	23.552	999.488	812.258
102.016	23.610	998.733	811.842
103.030	23.478	997.776	810.388
104.045	23.355	996.892	809.037
105.060	23.075	996.162	807.094
106.074	23.364	995.072	807.457
107.089	23.697	994.433	808.384
108.103	23.594	993.365	806.977
109.118	23.307	992.173	804.633
110.133	23.260	991.303	803.641
111.147	23.149	989.867	801.901
112.162	22.875	989.379	800.193
113.176	23.136	988.951	800.958
114.191	23.100	987.740	799.747
115.206	22.870	986.658	797.762
116.220	22.823	986.251	797.148
117.235	23.110	985.287	797.593
118.249	23.097	984.256	796.630
119.264	22.876	983.701	795.113
120.279	23.053	982.735	795.060
121.293	23.095	981.785	794.409
122.308	23.147	980.946	793.894
123.322	22.991	979.688	792.108
124.337	22.841	978.732	790.591
125.352	22.263	977.354	786.824
126.366	22.351	976.168	786.193
127.381	23.045	976.011	789.094
128.395	23.486	975.584	790.645
129.410	23.674	974.686	790.685
130.424	23.533	973.971	789.407
131.439	23.584	972.907	788.705
132.454	23.585	971.849	787.778
133.468	23.526	971.167	786.897
134.483	23.613	970.618	786.769
135.497	23.782	969.852	786.823
136.512	23.949	968.928	786.743
137.527	23.956	968.025	785.972
138.541	23.847	967.726	785.179
139.556	23.891	966.527	784.331
140.570	23.879	966.232	783.968
141.585	23.977	964.754	783.132
142.600	23.832	964.146	781.932
143.614	24.049	963.435	782.238
144.629	24.169	962.517	781.949
145.643	24.059	961.252	780.373
146.658	23.914	960.015	778.663
147.673	23.687	958.963	776.750
148.687	23.656	958.243	775.964
149.702	23.692	956.493	774.635
150.716	23.632	956.063	773.953
151.731	23.825	955.214	774.040
152.746	23.866	955.080	774.042
153.760	24.080	954.154	774.151
154.775	24.057	953.619	773.548
155.789	24.010	952.716	772.545
156.804	23.851	951.827	771.065
157.819	24.044	950.957	771.128
158.833	24.121	950.106	770.707
159.848	24.090	949.389	769.921
160.862	23.819	948.416	767.891
161.877	23.904	947.264	767.259
162.892	24.029	946.360	766.996
163.906	23.893	945.477	765.629
164.921	23.959	944.642	765.168
165.935	24.025	943.318	764.311
166.950	23.905	942.856	763.356
167.964	23.938	941.942	762.688
168.979	23.855	940.359	760.982
169.994	23.826	939.368	759.990
171.008	23.914	939.522	760.425
172.023	24.030	938.434	759.970
173.037	23.772	937.456	758.012
174.052	23.721	936.346	756.831
175.067	23.846	935.948	756.974
176.081	23.926	935.001	756.481
177.096	23.744	934.707	755.403
178.110	23.434	934.043	753.484
179.125	23.196	932.793	751.399
180.140	23.438	932.587	752.193
181.154	23.631	932.352	752.755
182.169	23.885	932.187	753.633
183.183	23.850	932.061	753.315
184.198	23.842	930.866	752.247
185.213	23.800	930.237	751.496
186.227	24.013	929.417	751.665
187.242	23.947	928.689	750.731
188.256	23.980	928.047	750.284
189.271	24.138	927.305	750.284
190.286	23.860	925.871	747.887
191.300	23.224	924.895	744.360
192.315	22.343	923.803	739.714
193.329	22.304	922.876	738.742
194.344	23.298	923.076	743.009
195.359	23.825	923.310	745.342
196.373	23.932	922.663	745.203
197.388	23.753	922.070	743.910
198.402	23.811	921.679	743.771
199.417	23.882	920.793	743.288
200.432	23.666	919.569	741.333
201.446	23.445	919.014	739.897
202.461	23.520	918.588	739.801
203.475	22.545	917.045	734.429
204.490	21.908	915.138	730.189
205.504	22.699	915.654	733.829
206.519	23.326	915.671	736.384
207.534	23.466	915.328	736.626
208.548	23.875	914.944	737.949
209.563	23.815	913.694	736.627
210.577	23.638	913.396	735.586
211.592	24.049	913.034	736.934
212.607	23.911	912.272	735.680
213.621	24.034	911.333	735.369
214.636	24.140	910.863	735.360
215.650	23.976	910.385	734.231
216.665	23.961	910.082	733.861
217.680	24.073	908.749	733.182
218.694	23.572	907.490	730.041
219.709	23.532	906.591	729.089
220.723	23.757	906.513	729.887
221.738	23.833	906.001	729.721
222.753	23.850	905.146	729.039
223.767	24.048	905.017	729.680
224.782	24.235	904.559	730.013
225.796	24.158	904.031	729.207
226.811	23.511	902.797	725.504
227.826	22.901	901.272	721.722
228.840	23.005	900.927	721.805
229.855	23.180	900.201	721.875
230.869	22.647	899.066	718.728
231.884	23.045	899.048	720.274
232.899	23.867	898.770	723.333
233.913	23.936	898.349	723.208
234.928	23.848	898.006	722.513
235.942	23.705	897.375	721.358
236.957	23.531	896.653	720.008
237.972	23.471	895.348	718.652
238.986	23.683	894.650	718.889
240.001	23.651	894.563	718.624
241.015	23.585	894.141	717.954
242.030	23.759	893.960	718.449
243.045	24.039	893.002	718.746
244.059	24.003	892.760	718.344
245.074	23.770	892.190	716.883
246.088	23.356	891.243	714.387
247.103	23.693	890.717	715.262
248.117	24.225	891.113	717.660
249.132	24.547	890.412	718.328
250.147	24.503	889.986	717.743
251.161	24.790	889.155	718.161
252.176	24.598	888.694	716.956
253.190	24.785	888.172	717.220
254.205	24.966	887.381	717.243
255.220	24.816	886.974	716.248
256.234	24.864	885.553	715.231
257.249	24.596	885.748	714.256
258.263	24.689	884.416	713.490
259.278	24.688	884.010	713.095
260.293	24.840	883.572	713.283
261.307	24.663	882.721	711.826
262.322	24.595	881.602	710.592
263.336	23.721	880.041	705.800
264.351	22.784	878.063	700.433
265.366	22.971	877.510	700.671
266.380	23.871	878.433	704.918
267.395	24.292	878.529	706.600
268.409	24.310	877.609	705.871
269.424	24.407	877.098	705.779
270.439	24.707	876.312	706.269
271.453	24.713	876.100	706.062
272.468	24.783	875.889	706.103
273.482	24.782	875.078	705.383
274.497	24.425	874.288	703.277
275.512	23.955	873.288	700.562
276.526	24.500	873.167	702.547
277.541	24.582	872.969	702.650
278.555	24.444	871.706	701.026
279.570	24.108	871.250	699.281
280.585	24.514	870.496	700.204
281.599	24.414	869.812	699.199
282.614	23.861	868.285	695.750
283.628	23.766	868.042	695.122
284.643	24.210	867.847	696.639
285.657	23.787	866.457	693.810
286.672	23.691	865.387	692.517
287.687	24.134	865.427	694.215
288.701	24.263	864.739	694.107
289.716	23.754	864.266	691.681
290.730	23.775	863.684	691.237
291.745	23.607	862.830	689.838
292.760	23.776	862.325	690.031
293.774	24.752	863.282	694.528
294.789	25.019	863.065	695.328
295.803	25.161	862.177	695.103
296.818	25.143	861.416	694.357
297.833	24.574	860.618	691.451
298.847	24.405	859.895	690.156
299.862	24.905	859.655	691.835
300.876	25.066	859.223	692.047
301.891	25.061	858.651	691.504
302.906	24.545	857.505	688.535
303.920	24.716	857.356	689.013
304.935	25.143	857.056	690.354
305.949	25.092	855.812	689.095
306.964	24.854	855.362	687.755
307.979	24.800	855.337	687.468
308.993	25.227	854.821	688.633
310.008	25.235	854.320	688.200
311.022	25.033	853.398	686.621
312.037	24.845	852.720	685.293
313.052	24.612	852.036	683.794
314.066	23.671	850.764	679.114
315.081	23.376	849.652	677.041
316.095	24.130	849.865	680.028
317.110	24.639	849.973	681.998
318.125	23.978	848.221	678.016
319.139	22.986	846.812	673.051
320.154	22.875	846.591	672.394
321.168	23.719	846.766	675.685
322.183	24.531	846.610	678.590
323.197	24.651	846.795	679.132
324.212	24.846	846.516	679.590
325.227	24.897	845.556	678.954
326.241	24.781	845.074	678.064
327.256	24.598	844.489	676.845
328.270	24.585	843.963	676.312
329.285	24.274	842.977	674.285
330.300	24.181	841.896	673.010
331.314	24.404	841.842	673.749
332.329	24.906	841.538	675.340
333.343	25.052	841.289	675.632
334.358	24.908	840.948	674.756
335.373	24.908	841.188	674.889
336.387	25.219	840.835	675.717
337.402	25.436	840.433	676.152
338.416	25.320	839.811	675.155
339.431	25.417	839.388	675.119
340.446	25.542	839.396	675.537
341.460	25.503	838.846	674.886
342.475	25.225	838.104	673.187
343.489	25.411	837.793	673.577
344.504	25.623	837.224	673.851
345.519	25.663	837.292	673.999
346.533	25.894	836.627	674.267
347.548	25.825	836.039	673.475
348.562	25.776	835.551	672.842
349.577	25.778	834.850	672.223
350.592	25.814	833.982	671.601
351.606	25.715	833.687	670.934
352.621	25.571	832.632	669.488
353.635	25.558	831.931	668.818
354.650	25.056	830.249	665.544
355.665	23.994	828.546	660.180
356.679	24.290	828.579	661.247
357.694	24.656	828.499	662.481
358.708	24.709	827.826	662.083
359.723	25.048	828.117	663.510
360.738	25.425	827.300	664.190
361.752	25.537	827.318	664.559
362.767	25.664	826.817	664.570
363.781	26.080	826.460	665.757
364.796	26.073	826.229	665.488
365.810	26.194	825.630	665.392
366.825	26.243	825.032	665.032
367.840	25.906	824.248	663.101
368.854	25.477	823.229	660.645
369.869	25.531	823.252	660.804
370.883	25.547	822.867	660.494
371.898	25.442	822.435	659.703
372.913	25.580	822.027	659.825
373.927	25.663	821.401	659.570
374.942	25.826	821.150	659.905
375.956	25.808	820.881	659.566
376.971	26.005	820.513	659.933
377.986	26.199	820.026	660.192
379.000	26.061	819.241	658.997
380.015	26.002	818.807	658.375
381.029	26.112	818.091	658.141
382.044	26.152	817.988	658.146
383.059	26.001	817.383	657.053
384.073	26.144	816.651	656.926
385.088	26.017	816.157	656.006
386.102	25.914	815.379	654.951
387.117	25.730	814.975	653.898
388.132	25.495	813.550	651.846
389.146	24.914	812.692	648.994
390.161	25.357	812.953	650.751
391.175	25.695	812.552	651.596
392.190	25.603	811.370	650.261
393.205	24.320	808.938	643.627
394.219	22.794	807.647	637.039
395.234	22.566	807.563	636.093
396.248	24.120	808.774	642.603
397.263	25.519	809.803	648.415
398.278	25.699	809.091	648.436
399.292	25.368	808.717	646.885
400.307	25.285	808.290	646.190
401.321	25.558	808.033	646.908
402.336	25.716	807.760	647.200
403.350	26.179	807.795	648.833
404.365	26.554	807.916	650.220
405.380	26.862	807.251	650.733
406.394	26.779	806.624	649.875
407.409	26.826	806.040	649.513
408.423	26.722	805.729	648.834
409.438	26.832	805.458	648.950
410.453	26.944	804.634	648.631
411.467	26.706	804.474	647.595
412.482	26.761	803.882	647.257
413.496	26.801	803.885	647.346
414.511	26.864	803.221	646.977
415.526	26.778	802.811	646.283
416.540	26.533	802.272	644.920
417.555	26.711	800.977	644.454
418.569	26.603	800.856	643.917
419.584	26.583	800.102	643.181
420.599	26.286	799.895	641.903
421.613	84.361	1241.651	1304.094
422.628	71.841	1306.057	1304.235
