DTS Sentinel unit serial number:	SN413079Multiplexer serial number:	ORYXHardware model number:	OX4-SRSoftware version number:	ORYX F/W v4.00 Oryx Data Collector v3.7.2.0data status	okinstallation	princeton_trtdifferential loss correction	single-endedforward channel	channel 1reverse channel	N/Adate	2019/09/10time	19:00:11forward acquisition time	60.00reverse acquisition time	0.00gamma	496.2192k internal	0.2314k external	0.2314temperature offset calibration	0.9921default loss term (dB/km)	0.3790temperature slope calibration	1.0000multiplexer offset coefficient	1.0000multiplexer slope coefficient	1.0000fibre end	0.00T internal ref (°C)	34.56T ext. ref 1 (°C)	-0.41T ext. ref 2 (°C)	26.78length (m)	temperature (°C)	Stokes	anti-Stokes-747.200	231.172	-0.024	-0.039
-746.185	800.000	-0.090	-0.294
-745.171	21.775	0.134	-0.111
-744.156	-18.593	0.045	0.028
-743.142	-154.388	-0.251	-0.017
-742.127	-197.743	-0.235	-0.001
-741.112	800.000	0.094	-0.334
-740.098	89.618	-0.027	0.031
-739.083	-174.953	0.268	-0.008
-738.069	523.874	-0.161	0.383
-737.054	19.347	-0.151	0.123
-736.039	-108.091	-0.218	-0.048
-735.025	281.273	-0.132	0.239
-734.010	40.906	-0.112	-0.103
-732.996	83.353	-0.049	0.054
-731.981	534.238	-0.162	-0.388
-730.966	-200.000	-0.083	-0.381
-729.952	-36.580	-0.231	-0.126
-728.937	-81.355	-0.413	0.138
-727.923	144.338	0.228	-0.308
-726.908	800.000	-0.064	-0.237
-725.894	479.477	0.142	-0.326
-724.879	-200.000	0.021	-0.419
-723.864	-94.607	0.097	-0.027
-722.850	-200.000	0.025	-0.219
-721.835	-200.000	-0.078	0.485
-720.821	131.560	0.092	0.119
-719.806	53.121	0.042	0.041
-718.791	800.000	0.042	-0.172
-717.777	-200.000	0.005	-0.314
-716.762	-200.000	0.080	-0.393
-715.748	-200.000	0.005	-0.057
-714.733	38.709	0.122	-0.111
-713.718	-200.000	-0.121	0.544
-712.704	-200.000	-0.031	-0.199
-711.689	132.041	0.235	0.306
-710.675	-200.000	0.022	-0.370
-709.660	-102.162	0.284	0.069
-708.645	-17.981	-0.049	0.031
-707.631	102.467	-0.080	-0.095
-706.616	-200.000	-0.020	-0.092
-705.602	-120.128	-0.245	0.043
-704.587	-36.023	-0.333	-0.182
-703.572	-39.542	0.056	0.030
-702.558	35.665	-0.222	-0.198
-701.543	800.000	-0.059	-0.168
-700.529	-147.660	-0.061	-0.005
-699.514	207.285	0.080	0.127
-698.499	428.392	0.058	0.127
-697.485	800.000	-0.030	0.108
-696.470	-146.358	0.472	-0.042
-695.456	-144.579	0.160	-0.015
-694.441	-146.647	0.165	-0.014
-693.426	-82.459	0.157	0.052
-692.412	55.912	0.034	-0.033
-691.397	-200.000	-0.014	0.182
-690.383	-79.961	0.246	-0.084
-689.368	800.000	-0.024	-0.084
-688.354	44.954	0.109	-0.102
-687.339	-200.000	-0.014	0.121
-686.324	360.947	0.052	-0.106
-685.310	-69.049	0.284	-0.111
-684.295	-141.734	0.197	0.020
-683.281	32.949	-0.147	-0.129
-682.266	-32.948	-0.323	-0.181
-681.251	54.316	-0.159	0.155
-680.237	-200.000	-0.028	-0.202
-679.222	-3.977	-0.185	0.129
-678.208	771.706	-0.045	0.123
-677.193	61.552	-0.291	0.293
-676.178	69.717	0.121	0.126
-675.164	-200.000	0.013	0.092
-674.149	-29.972	-0.016	0.009
-673.135	800.000	0.102	-0.318
-672.120	-124.521	-0.198	0.031
-671.105	800.000	0.064	0.190
-670.091	103.247	0.194	0.229
-669.076	-200.000	0.035	-0.230
-668.062	140.138	-0.118	-0.157
-667.047	44.587	-0.317	0.294
-666.032	-108.302	-0.184	0.040
-665.018	-108.678	0.288	-0.063
-664.003	14.583	-0.180	-0.142
-662.989	-15.378	0.094	-0.061
-661.974	-62.211	-0.044	0.019
-660.959	674.260	0.104	-0.274
-659.945	-200.000	0.005	0.056
-658.930	-77.102	-0.292	-0.103
-657.916	-8.700	-0.166	-0.113
-656.901	2.004	-0.054	-0.039
-655.886	9.510	-0.149	-0.114
-654.872	-23.061	0.339	0.207
-653.857	-65.441	0.236	-0.096
-652.843	-25.800	-0.081	0.048
-651.828	90.673	-0.117	-0.132
-650.814	-196.837	-0.319	0.002
-649.799	58.032	-0.095	0.094
-648.784	139.976	-0.140	-0.186
-647.770	-200.000	-0.037	-0.222
-646.755	-200.000	0.036	-0.206
-645.741	395.763	-0.112	-0.235
-644.726	-143.816	0.252	-0.024
-643.711	-96.218	0.064	0.017
-642.697	281.762	-0.104	-0.189
-641.682	346.610	0.125	0.248
-640.668	-53.949	0.160	0.074
-639.653	107.389	-0.225	0.270
-638.638	790.205	-0.054	0.149
-637.624	800.000	-0.141	0.469
-636.609	190.348	-0.160	0.243
-635.595	-59.438	0.105	0.046
-634.580	-127.481	-0.222	-0.033
-633.565	-79.136	-0.099	0.034
-632.551	-93.624	0.098	0.027
-631.536	-200.000	0.002	0.220
-630.522	379.979	0.051	0.105
-629.507	-27.230	-0.102	-0.060
-628.492	109.355	0.126	0.152
-627.478	35.114	-0.142	-0.125
-626.463	-63.533	-0.328	0.136
-625.449	800.000	-0.109	-0.402
-624.434	-200.000	0.001	-0.114
-623.419	-50.841	0.267	0.127
-622.405	88.496	-0.074	-0.083
-621.390	10.973	0.081	0.063
-620.376	-200.000	-0.011	0.131
-619.361	-101.377	0.155	-0.038
-618.346	-65.584	0.244	0.099
-617.332	224.333	-0.139	0.227
-616.317	-154.894	0.218	-0.015
-615.303	-42.231	-0.225	0.116
-614.288	323.232	0.184	-0.355
-613.273	2.033	-0.404	-0.295
-612.259	-32.207	-0.115	0.065
-611.244	-100.655	0.486	0.121
-610.230	35.813	-0.118	-0.104
-609.215	-53.341	-0.487	0.225
-608.201	18.579	-0.302	-0.244
-607.186	-64.251	0.145	-0.060
-606.171	440.893	-0.123	0.271
-605.157	29.660	0.293	0.252
-604.142	-200.000	0.045	-0.223
-603.128	-147.863	0.394	-0.033
-602.113	-96.465	0.114	-0.030
-601.098	-8.771	-0.281	-0.190
-600.084	134.768	0.230	0.301
-599.069	575.038	0.114	-0.280
-598.055	229.743	-0.163	0.269
-597.040	82.592	0.154	0.169
-596.025	-145.946	0.350	0.031
-595.011	-107.469	0.234	-0.052
-593.996	-73.248	-0.021	-0.008
-592.982	-104.792	-0.096	-0.022
-591.967	-29.226	-0.367	0.212
-590.952	-30.973	-0.172	0.098
-589.938	9.944	-0.025	0.019
-588.923	800.000	-0.060	0.177
-587.909	-200.000	0.056	0.412
-586.894	-200.000	-0.034	-0.171
-585.879	-200.000	-0.132	-0.001
-584.865	-56.488	0.311	0.139
-583.850	100.598	0.059	-0.069
-582.836	-200.000	-0.019	0.131
-581.821	77.518	0.117	-0.125
-580.806	-195.140	-0.094	0.001
-579.792	-117.054	-0.203	0.037
-578.777	-106.917	0.074	-0.017
-577.763	-110.104	-0.292	-0.061
-576.748	-200.000	-0.057	-0.372
-575.733	-11.051	0.214	0.142
-574.719	-25.255	0.242	-0.144
-573.704	-200.000	-0.050	-0.270
-572.690	-60.035	-0.090	-0.039
-571.675	-159.704	0.137	0.008
-570.661	648.946	0.095	0.245
-569.646	15.326	-0.120	-0.095
-568.631	-111.351	0.113	0.023
-567.617	-160.319	0.534	0.029
-566.602	-110.598	0.133	-0.028
-565.588	-44.995	-0.017	0.009
-564.573	-200.000	-0.004	-0.161
-563.558	1.132	-0.239	0.173
-562.544	54.333	0.171	-0.166
-561.529	117.497	0.184	-0.228
-560.515	-138.527	-0.135	0.015
-559.500	-34.388	-0.263	0.145
-558.485	-83.171	0.071	-0.023
-557.471	800.000	-0.113	0.329
-556.456	37.773	0.168	0.150
-555.442	-97.898	0.358	0.093
-554.427	-95.177	-0.169	-0.046
-553.412	800.000	-0.064	-0.275
-552.398	26.479	-0.224	-0.188
-551.383	-123.932	-0.301	0.048
-550.369	-46.802	0.078	-0.038
-549.354	-89.704	-0.378	-0.112
-548.339	200.850	-0.043	-0.066
-547.325	-102.698	-0.409	-0.098
-546.310	376.243	-0.152	0.312
-545.296	660.671	0.049	-0.128
-544.281	251.287	-0.028	0.048
-543.266	260.588	0.056	0.098
-542.252	800.000	0.025	0.082
-541.237	42.641	-0.102	0.094
-540.223	-200.000	0.015	0.271
-539.208	-96.427	-0.275	0.073
-538.193	-151.029	-0.296	0.022
-537.179	-59.961	0.228	0.098
-536.164	-200.000	-0.086	-0.522
-535.150	-200.000	0.026	-0.187
-534.135	-200.000	-0.017	0.251
-533.121	25.421	0.084	0.070
-532.106	170.341	0.166	-0.239
-531.091	614.590	-0.009	-0.023
-530.077	10.467	-0.156	-0.119
-529.062	-200.000	-0.006	0.147
-528.048	-137.498	0.180	0.020
-527.033	145.807	-0.203	0.274
-526.018	-200.000	0.008	-0.118
-525.004	231.583	-0.201	0.331
-523.989	-200.000	0.015	0.080
-522.975	-200.000	0.019	-0.205
-521.960	-47.700	-0.169	-0.082
-520.945	395.709	-0.063	-0.132
-519.931	318.873	-0.114	-0.217
-518.916	160.026	0.120	0.169
-517.902	-200.000	0.006	0.172
-516.887	-136.242	-0.493	0.058
-515.872	-43.537	-0.284	-0.144
-514.858	-27.883	0.097	0.057
-513.843	115.178	-0.343	-0.421
-512.829	-2.159	0.216	-0.153
-511.814	-102.076	-0.449	0.109
-510.799	-171.612	-0.144	0.005
-509.785	-72.134	0.344	-0.128
-508.770	-200.000	0.028	-0.146
-507.756	135.720	0.162	-0.211
-506.741	-40.682	-0.213	-0.111
-505.726	-144.101	-0.309	0.029
-504.712	-154.922	0.187	0.012
-503.697	-170.499	-0.209	-0.007
-502.683	-200.000	-0.028	0.131
-501.668	-200.000	-0.015	0.215
-500.653	63.966	0.150	-0.151
-499.639	-24.846	0.443	-0.264
-498.624	-200.000	0.085	0.405
-497.610	148.734	-0.035	-0.048
-496.595	422.208	0.108	0.232
-495.581	-28.664	0.015	-0.009
-494.566	402.603	-0.112	0.237
-493.551	-200.000	0.001	0.135
-492.537	-200.000	-0.007	0.082
-491.522	-60.943	0.288	-0.122
-490.508	800.000	0.059	-0.249
-489.493	-53.150	-0.210	-0.097
-488.478	146.243	0.160	-0.215
-487.464	63.233	0.205	0.206
-486.449	-114.181	-0.058	0.011
-485.435	191.745	0.068	0.103
-484.420	800.000	0.090	-0.256
-483.405	-200.000	-0.010	0.159
-482.391	-47.025	-0.131	0.064
-481.376	-200.000	0.064	0.303
-480.362	260.786	-0.103	-0.179
-479.347	-53.715	-0.219	-0.100
-478.332	79.319	0.178	-0.192
-477.318	800.000	0.036	-0.117
-476.303	-16.191	-0.246	-0.157
-475.289	-54.678	0.270	0.123
-474.274	800.000	0.043	-0.178
-473.259	430.343	0.039	-0.084
-472.245	-200.000	-0.004	0.049
-471.230	267.951	0.076	-0.133
-470.216	-149.333	0.219	-0.017
-469.201	164.678	-0.091	-0.129
-468.186	-181.715	0.121	-0.002
-467.172	800.000	-0.045	0.173
-466.157	74.779	-0.209	-0.221
-465.143	24.612	0.109	-0.090
-464.128	-39.375	-0.152	0.080
-463.113	-116.288	-0.050	-0.009
-462.099	800.000	-0.109	-0.324
-461.084	-200.000	0.011	-0.166
-460.070	325.984	0.158	-0.303
-459.055	-55.216	-0.140	0.063
-458.040	95.272	0.288	0.329
-457.026	81.218	0.252	-0.273
-456.011	-163.140	-0.065	0.003
-454.997	84.999	0.178	0.195
-453.982	140.203	-0.067	-0.088
-452.968	438.488	0.065	-0.143
-451.953	-19.954	0.087	0.054
-450.938	66.964	-0.166	-0.169
-449.924	-22.737	-0.129	0.078
-448.909	-184.355	0.219	-0.004
-447.895	800.000	0.022	0.068
-446.880	217.946	0.217	0.347
-445.865	-54.581	-0.080	-0.036
-444.851	714.361	0.057	0.152
-443.836	-20.911	0.093	0.057
-442.822	33.901	-0.160	0.140
-441.807	-200.000	-0.058	0.261
-440.792	117.599	0.110	-0.136
-439.778	69.961	0.271	0.280
-438.763	-7.378	-0.188	0.127
-437.749	800.000	-0.015	0.044
-436.734	800.000	-0.091	-0.302
-435.719	-73.130	0.136	0.050
-434.705	333.078	0.162	-0.313
-433.690	-200.000	-0.027	0.197
-432.676	40.549	-0.249	-0.225
-431.661	171.059	0.051	-0.073
-430.646	-74.234	0.295	-0.107
-429.632	-59.289	-0.284	-0.122
-428.617	85.357	-0.050	0.055
-427.603	-200.000	0.006	-0.303
-426.588	132.967	0.169	0.218
-425.573	-200.000	0.021	-0.255
-424.559	213.608	-0.143	-0.226
-423.544	-50.597	0.319	-0.150
-422.530	800.000	0.030	-0.093
-421.515	-200.000	0.019	0.269
-420.500	-200.000	0.010	0.290
-419.486	-86.054	0.288	0.089
-418.471	7.914	0.212	0.159
-417.457	228.984	0.104	0.170
-416.442	-143.509	-0.379	-0.036
-415.428	-75.720	-0.161	-0.057
-414.413	-200.000	-0.014	0.243
-413.398	-77.851	0.161	0.056
-412.384	800.000	0.033	-0.139
-411.369	4.387	-0.207	-0.152
-410.355	-200.000	-0.008	-0.061
-409.340	37.375	0.191	-0.169
-408.325	512.313	-0.096	0.223
-407.311	800.000	0.016	-0.054
-406.296	-200.000	-0.005	0.047
-405.282	168.498	0.066	-0.094
-404.267	-56.228	-0.345	-0.154
-403.252	40.961	-0.099	-0.089
-402.238	140.277	0.153	0.202
-401.223	-25.236	0.437	-0.259
-400.209	-200.000	-0.011	0.131
-399.194	72.485	-0.178	-0.186
-398.179	-154.231	0.161	-0.011
-397.165	66.736	0.153	0.156
-396.150	-5.053	0.416	0.287
-395.136	708.731	-0.063	0.167
-394.121	800.000	0.088	0.298
-393.106	-200.000	0.026	-0.264
-392.092	-200.000	-0.006	0.208
-391.077	-200.000	-0.031	0.179
-390.063	39.231	0.252	-0.225
-389.048	178.780	0.285	0.416
-388.033	-200.000	0.018	-0.216
-387.019	-78.126	0.160	-0.055
-386.004	-5.661	0.108	0.074
-384.990	117.657	0.105	0.130
-383.975	80.700	-0.227	-0.244
-382.960	-39.144	-0.408	0.215
-381.946	800.000	0.066	0.238
-380.931	439.811	0.111	0.243
-379.917	-200.000	0.003	0.074
-378.902	65.959	-0.140	0.142
-377.888	800.000	-0.060	0.204
-376.873	-142.324	0.037	-0.004
-375.858	110.642	0.101	-0.121
-374.844	-24.749	-0.319	-0.190
-373.829	-103.294	0.152	0.036
-372.815	-171.729	-0.291	0.010
-371.800	-43.896	0.247	-0.124
-370.785	800.000	0.062	0.258
-369.771	100.297	-0.110	-0.128
-368.756	800.000	0.061	-0.207
-367.742	-200.000	-0.007	-0.128
-366.727	147.232	-0.150	-0.202
-365.712	800.000	0.078	-0.243
-364.698	310.344	-0.009	-0.016
-363.683	200.939	0.062	0.095
-362.669	-200.000	-0.038	-0.176
-361.654	116.726	-0.136	0.167
-360.639	-119.547	-0.184	-0.032
-359.625	170.607	-0.205	-0.293
-358.610	-200.000	-0.006	-0.411
-357.596	800.000	0.042	-0.149
-356.581	-83.135	-0.278	0.089
-355.566	-19.459	0.088	0.055
-354.552	-29.065	-0.114	-0.065
-353.537	-102.835	-0.379	0.090
-352.523	-125.381	0.074	0.011
-351.508	800.000	-0.037	0.131
-350.493	-17.902	-0.352	-0.221
-349.479	68.649	0.285	-0.292
-348.464	800.000	-0.088	-0.282
-347.450	-140.768	0.241	-0.025
-346.435	-200.000	-0.005	0.300
-345.420	800.000	0.057	-0.243
-344.406	-41.063	0.041	-0.021
-343.391	117.387	-0.234	-0.287
-342.377	-88.393	-0.144	0.043
-341.362	708.921	-0.073	-0.194
-340.348	-20.212	-0.094	-0.058
-339.333	626.916	0.033	0.084
-338.318	-94.470	-0.099	0.027
-337.304	-69.689	-0.132	0.050
-336.289	143.171	0.096	-0.127
-335.275	-81.986	0.116	-0.038
-334.260	-56.221	-0.034	-0.015
-333.245	-97.124	0.097	-0.025
-332.231	-121.579	-0.252	0.042
-331.216	33.785	-0.300	0.261
-330.202	135.225	0.125	-0.162
-329.187	443.880	0.070	0.152
-328.172	-200.000	0.038	0.320
-327.158	-163.377	0.116	-0.006
-326.143	313.017	0.138	-0.260
-325.129	-200.000	0.043	-0.316
-324.114	800.000	0.062	0.194
-323.099	92.018	-0.101	0.113
-322.085	16.400	0.227	0.179
-321.070	-150.947	0.213	0.016
-320.056	85.028	-0.228	-0.250
-319.041	-144.166	-0.301	-0.028
-318.026	2.801	0.131	-0.095
-317.012	31.695	0.065	0.056
-315.997	-61.846	0.128	0.053
-314.983	-67.169	-0.235	0.092
-313.968	800.000	0.052	0.194
-312.953	176.132	-0.276	-0.400
-311.939	256.338	0.068	0.116
-310.924	800.000	0.059	0.172
-309.910	218.158	-0.021	0.034
-308.895	800.000	-0.072	-0.308
-307.880	-200.000	-0.037	0.398
-306.866	800.000	0.094	-0.289
-305.851	79.800	0.161	0.172
-304.837	800.000	0.131	-0.448
-303.822	-138.037	-0.330	0.037
-302.807	302.808	0.091	0.168
-301.793	-109.517	0.298	-0.063
-300.778	-77.290	-0.317	0.110
-299.764	146.704	0.248	-0.331
-298.749	-53.992	0.139	0.063
-297.735	-133.326	0.379	0.048
-296.720	-169.259	-0.667	-0.025
-295.705	-173.741	-0.061	0.002
-294.691	800.000	0.082	0.302
-293.676	258.246	0.081	-0.139
-292.662	-142.545	0.202	0.020
-291.647	-53.431	-0.074	-0.034
-290.632	-200.000	-0.008	0.164
-289.618	-155.285	-0.251	0.016
-288.603	-36.643	0.281	0.151
-287.589	800.000	0.087	0.288
-286.574	-154.427	-0.163	-0.011
-285.559	212.517	-0.140	0.220
-284.545	800.000	0.044	-0.180
-283.530	386.785	-0.149	-0.306
-282.516	-200.000	-0.041	0.347
-281.501	-200.000	0.024	-0.340
-280.486	101.782	-0.021	0.025
-279.472	585.278	0.035	-0.085
-278.457	149.680	-0.034	-0.046
-277.443	800.000	-0.058	-0.182
-276.428	-200.000	0.024	0.196
-275.413	-105.072	0.164	-0.037
-274.399	392.973	-0.102	0.211
-273.384	800.000	0.113	-0.392
-272.370	800.000	0.058	0.223
-271.355	-200.000	-0.004	-0.174
-270.340	-200.000	-0.057	-0.325
-269.326	-38.606	-0.301	-0.158
-268.311	-200.000	-0.029	-0.362
-267.297	-89.589	0.207	0.060
-266.282	141.834	0.072	0.096
-265.267	435.711	0.085	-0.183
-264.253	142.148	0.112	-0.148
-263.238	-200.000	-0.009	0.137
-262.224	423.178	-0.079	-0.168
-261.209	-200.000	-0.014	-0.080
-260.195	94.411	0.055	0.063
-259.180	57.890	0.028	-0.028
-258.165	118.171	-0.176	0.216
-257.151	-107.573	0.340	0.074
-256.136	-200.000	0.020	-0.227
-255.122	258.672	-0.220	0.378
-254.107	-124.878	-0.259	0.040
-253.092	183.022	0.123	-0.180
-252.078	17.509	-0.123	0.097
-251.063	-127.622	0.135	-0.019
-250.049	-200.000	0.006	0.069
-249.034	-24.175	0.179	0.107
-248.019	-15.895	-0.264	0.167
-247.005	35.271	0.009	-0.008
-245.990	-15.946	-0.180	0.114
-244.976	-151.181	0.188	0.014
-243.961	-138.345	-0.125	-0.014
-242.946	-131.653	-0.276	0.036
-241.932	-200.000	-0.003	-0.015
-240.917	171.507	0.118	0.169
-239.903	-200.000	0.035	0.401
-238.888	-200.000	-0.053	0.236
-237.873	150.351	-0.082	-0.111
-236.859	264.452	0.094	0.163
-235.844	-86.033	-0.106	-0.033
-234.830	-31.691	-0.157	-0.088
-233.815	-14.177	0.174	-0.111
-232.800	-164.028	-0.395	-0.018
-231.786	-122.569	0.496	-0.080
-230.771	6.640	-0.135	-0.100
-229.757	74.385	0.149	0.156
-228.742	-200.000	-0.003	0.255
-227.727	800.000	-0.067	0.213
-226.713	193.973	-0.073	0.109
-225.698	71.220	0.203	-0.210
-224.684	-53.160	-0.290	-0.132
-223.669	90.150	-0.260	0.289
-222.655	-115.092	-0.489	0.092
-221.640	119.172	-0.066	0.082
-220.625	279.180	-0.075	-0.133
-219.611	26.730	0.106	-0.088
-218.596	-49.370	0.311	0.148
-217.582	-65.079	0.325	0.130
-216.567	-131.956	-0.163	-0.021
-215.552	-67.046	0.060	0.024
-214.538	488.164	0.182	0.412
-213.523	-147.633	-0.395	-0.033
-212.509	-59.046	0.290	-0.124
-211.494	11.963	0.120	0.091
-210.479	43.902	-0.179	0.163
-209.465	-80.172	0.115	-0.038
-208.450	-200.000	-0.011	0.165
-207.436	-98.339	-0.275	0.070
-206.421	502.543	-0.053	0.122
-205.406	-200.000	-0.029	-0.214
-204.392	-200.000	-0.001	0.450
-203.377	-200.000	-0.036	-0.198
-202.363	95.464	-0.054	-0.061
-201.348	567.208	-0.080	0.192
-200.333	45.133	-0.064	-0.058
-199.319	-11.290	-0.195	0.128
-198.304	-200.000	0.016	-0.103
-197.290	-73.223	0.272	-0.099
-196.275	209.251	0.146	-0.227
-195.260	9.772	-0.271	-0.204
-194.246	-200.000	-0.025	-0.199
-193.231	800.000	-0.047	0.195
-192.217	76.551	0.260	-0.273
-191.202	-88.728	-0.062	-0.018
-190.187	-93.476	-0.100	-0.028
-189.173	-166.992	0.272	-0.011
-188.158	-200.000	-0.047	0.225
-187.144	29.063	-0.260	0.219
-186.129	117.045	0.148	-0.180
-185.114	406.306	0.015	-0.031
-184.100	10.431	0.229	0.173
-183.085	-124.243	0.254	0.039
-182.071	-84.371	-0.258	-0.081
-181.056	61.759	0.196	-0.193
-180.042	-3.836	-0.227	-0.156
-179.027	361.978	-0.177	0.352
-178.012	106.945	0.347	0.409
-176.998	312.558	-0.034	0.063
-175.983	-95.210	0.571	-0.153
-174.969	-98.143	0.261	-0.067
-173.954	-45.882	0.129	-0.063
-172.939	-61.005	-0.226	-0.095
-171.925	-45.543	0.334	-0.164
-170.910	248.812	-0.065	0.110
-169.896	-193.574	0.275	-0.002
-168.881	-200.000	-0.022	-0.123
-167.866	-63.876	-0.171	-0.069
-166.852	295.662	0.116	-0.211
-165.837	234.717	-0.179	-0.293
-164.823	231.931	0.115	0.187
-163.808	-200.000	0.107	0.000
-162.793	-63.549	0.353	0.144
-161.779	-139.497	0.194	-0.021
-160.764	-64.510	-0.102	0.041
-159.750	-200.000	0.002	-0.206
-158.735	32.274	0.139	-0.119
-157.720	-200.000	0.033	-0.162
-156.706	-200.000	0.021	0.149
-155.691	-200.000	-0.019	0.699
-154.677	35.686	0.104	-0.090
-153.662	-200.000	-0.027	-0.220
-152.647	-97.065	0.154	-0.040
-151.633	800.000	-0.008	-0.029
-150.618	-4.996	0.143	-0.097
-149.604	800.000	0.046	-0.156
-148.589	312.865	0.132	-0.246
-147.574	-19.442	0.176	-0.108
-146.560	-63.209	-0.184	-0.075
-145.545	-163.135	0.065	-0.003
-144.531	84.108	0.137	0.148
-143.516	-89.658	0.062	-0.018
-142.502	-200.000	0.039	-0.293
-141.487	-106.050	-0.345	-0.077
-140.472	14.786	-0.180	0.140
-139.458	116.413	-0.211	0.256
-138.443	800.000	0.036	0.147
-137.429	800.000	-0.019	0.069
-136.414	800.000	-0.050	0.206
-135.399	-51.524	0.117	-0.054
-134.385	89.550	0.289	0.320
-133.370	66.149	0.225	0.226
-132.356	-3.553	-0.214	0.147
-131.341	-143.103	0.297	-0.028
-130.326	-169.895	0.054	0.002
-129.312	66.387	0.268	0.269
-128.297	-200.000	0.009	-0.180
-127.283	-41.678	0.157	-0.080
-126.268	-0.061	-0.081	0.057
-125.253	-41.932	-0.128	0.065
-124.239	66.073	-0.077	0.077
-123.224	-33.396	0.161	-0.088
-122.210	23.417	0.036	0.030
-121.195	-124.848	-0.080	-0.012
-120.180	110.824	-0.041	0.048
-119.166	-85.882	-0.167	-0.051
-118.151	-28.976	-0.117	-0.067
-117.137	-200.000	0.003	0.126
-116.122	117.126	0.283	0.344
-115.107	-200.000	-0.016	-0.195
-114.093	514.581	0.139	-0.322
-113.078	18.329	-0.129	0.102
-112.064	-168.086	-0.259	-0.010
-111.049	4.873	0.160	0.116
-110.034	-81.089	0.249	-0.082
-109.020	-50.648	-0.368	-0.171
-108.005	-153.597	0.080	0.005
-106.991	-200.000	-0.019	0.161
-105.976	-200.000	0.028	-0.256
-104.962	28.818	-0.186	0.156
-103.947	-200.000	0.001	-0.224
-102.932	191.618	0.107	-0.159
-101.918	339.190	-0.181	-0.348
-100.903	636.957	0.042	0.106
-99.889	-200.000	-0.013	-0.062
-98.874	-200.000	0.038	-0.226
-97.859	-200.000	-0.019	0.090
-96.845	-43.444	-0.232	-0.116
-95.830	800.000	0.047	-0.171
-94.816	-12.508	-0.176	0.114
-93.801	4.324	-0.042	-0.031
-92.786	800.000	-0.059	0.218
-91.772	371.970	0.117	-0.235
-90.757	-200.000	0.057	0.343
-89.743	-5.521	0.237	-0.161
-88.728	800.000	0.107	0.355
-87.713	1.303	0.221	0.157
-86.699	4.317	-0.252	0.182
-85.684	75.417	0.048	-0.050
-84.670	-200.000	0.022	0.115
-83.655	-64.412	-0.096	0.039
-82.640	493.247	-0.113	-0.255
-81.626	-67.756	-0.093	0.036
-80.611	60.848	-0.299	-0.293
-79.597	-102.456	-0.392	0.093
-78.582	337.359	-0.172	0.330
-77.567	34.009	0.080	0.069
-76.553	800.000	0.006	0.022
-75.538	174.367	-0.065	0.093
-74.524	132.123	-0.143	0.181
-73.509	114.694	0.191	-0.230
-72.494	-200.000	0.044	0.221
-71.480	204.579	0.267	0.409
-70.465	10.832	-0.219	0.165
-69.451	-129.442	0.035	0.005
-68.436	229.531	0.070	0.112
-67.422	-5.081	-0.108	-0.074
-66.407	85.702	-0.130	0.142
-65.392	-52.028	-0.305	-0.140
-64.378	77.981	0.041	0.043
-63.363	136.485	-0.084	0.108
-62.349	104.482	0.191	0.223
-61.334	123.527	-0.832	-1.030
-60.319	373.138	0.261	0.524
-59.305	-200.000	0.099	-1.081
-58.290	800.000	0.274	0.785
-57.276	278.915	0.874	1.539
-56.261	-200.000	101.814	594.720
-55.246	601.448	1424.690	3493.620
-54.232	181.792	2642.113	3838.799
-53.217	120.637	2186.168	2681.304
-52.203	46.330	1632.833	1493.830
-51.188	38.135	1366.687	1200.192
-50.173	34.792	1323.684	1142.439
-49.159	56.986	1375.667	1323.098
-48.144	60.666	1393.136	1362.232
-47.130	38.325	1346.069	1183.050
-46.115	34.641	1327.653	1144.782
-45.100	34.457	1323.704	1140.232
-44.086	34.359	1320.611	1136.936
-43.071	34.347	1318.404	1134.916
-42.057	34.315	1316.196	1132.780
-41.042	34.446	1314.609	1132.152
-40.027	34.541	1312.835	1131.139
-39.013	34.433	1311.039	1128.907
-37.998	34.543	1308.608	1127.424
-36.984	34.572	1306.760	1125.956
-35.969	34.582	1305.444	1124.833
-34.954	34.475	1303.980	1122.901
-33.940	34.501	1302.507	1121.741
-32.925	34.692	1300.979	1121.500
-31.911	34.641	1299.396	1119.792
-30.896	34.632	1298.296	1118.750
-29.881	34.769	1296.392	1117.862
-28.867	34.671	1295.338	1116.339
-27.852	34.766	1293.618	1115.365
-26.838	34.642	1292.573	1113.696
-25.823	34.634	1291.311	1112.516
-24.809	34.570	1289.601	1110.631
-23.794	34.625	1288.367	1109.844
-22.779	34.670	1287.085	1108.952
-21.765	34.679	1285.787	1107.847
-20.750	34.680	1284.732	1106.900
-19.736	34.556	1283.522	1105.094
-18.721	34.446	1282.484	1103.519
-17.706	34.469	1281.392	1102.671
-16.692	34.491	1279.937	1101.502
-15.677	34.582	1278.098	1100.400
-14.663	34.588	1277.454	1099.834
-13.648	34.469	1276.500	1098.284
-12.633	34.569	1275.096	1097.607
-11.619	34.496	1274.708	1096.809
-10.604	34.461	1273.758	1095.747
-9.590	34.560	1272.280	1095.000
-8.575	34.498	1271.890	1094.267
-7.560	34.483	1270.514	1092.956
-6.546	34.501	1269.984	1092.558
-5.531	34.404	1269.339	1091.401
-4.517	34.521	1268.233	1091.078
-3.502	34.493	1267.177	1089.967
-2.487	34.510	1266.324	1089.287
-1.473	34.342	1262.649	1085.128
-0.458	32.711	1246.325	1061.875
0.556	25.917	1227.015	1017.109
1.571	21.654	1230.504	995.730
2.586	20.467	1246.005	1001.348
3.600	19.981	1235.938	990.392
4.615	14.483	1162.882	902.101
5.629	4.662	1084.646	791.556
6.644	-0.011	1062.608	752.067
7.659	-0.444	1060.423	748.291
8.673	-0.526	1058.817	746.685
9.688	-0.647	1057.258	744.920
10.702	-0.304	1055.973	745.653
11.717	5.569	1064.426	780.913
12.731	14.594	1077.202	835.599
13.746	17.870	1080.758	854.715
14.761	17.661	1080.257	853.195
15.775	17.442	1079.504	851.433
16.790	17.166	1078.826	849.441
17.804	16.983	1077.937	847.753
18.819	17.099	1077.730	848.092
19.834	17.110	1077.344	847.766
20.848	17.155	1076.147	846.976
21.863	17.077	1075.743	846.194
22.877	16.929	1075.140	844.910
23.892	16.920	1074.524	844.304
24.907	17.153	1073.536	844.614
25.921	17.106	1072.284	843.317
26.936	17.186	1070.919	842.569
27.950	17.144	1068.945	840.734
28.965	16.936	1067.561	838.542
29.980	17.002	1065.512	837.183
30.994	17.296	1064.406	837.687
32.009	17.144	1063.382	836.060
33.023	17.025	1061.686	834.069
34.038	17.025	1061.218	833.629
35.053	17.091	1060.777	833.531
36.067	17.258	1059.299	833.114
37.082	17.218	1058.898	832.530
38.096	17.434	1057.972	832.786
39.111	17.373	1057.218	831.817
40.126	17.318	1055.430	830.071
41.140	17.130	1053.555	827.607
42.155	16.845	1052.332	825.187
43.169	16.955	1051.268	824.814
44.184	16.889	1050.381	823.721
45.199	16.764	1049.412	822.284
46.213	16.967	1047.818	821.947
47.228	16.887	1047.217	821.015
48.242	17.046	1045.915	820.691
49.257	17.128	1045.238	820.483
50.271	17.105	1044.468	819.696
51.286	17.035	1043.524	818.543
52.301	17.182	1042.045	818.020
53.315	16.955	1041.796	816.656
54.330	16.967	1040.634	815.733
55.344	17.151	1039.390	815.568
56.359	17.217	1038.124	814.819
57.374	17.032	1036.885	812.889
58.388	17.033	1036.363	812.411
59.403	17.029	1035.543	811.681
60.417	16.876	1034.784	810.282
61.432	16.998	1033.815	810.032
62.447	17.144	1032.790	809.857
63.461	17.073	1032.694	809.368
64.476	17.007	1031.759	808.252
65.490	17.011	1030.540	807.243
66.505	16.972	1030.124	806.659
67.520	17.060	1029.189	806.273
68.534	16.999	1027.783	804.811
69.549	16.639	1027.046	802.458
70.563	16.831	1025.868	802.373
71.578	16.792	1025.136	801.548
72.593	16.640	1024.161	799.996
73.607	16.678	1023.783	799.808
74.622	17.031	1023.119	800.886
75.636	17.031	1022.521	800.348
76.651	16.979	1020.984	798.828
77.666	16.787	1020.522	797.490
78.680	16.920	1019.896	797.560
79.695	16.921	1019.503	797.187
80.709	16.944	1018.200	796.202
81.724	16.993	1017.624	795.913
82.739	17.031	1016.665	795.270
83.753	17.311	1015.892	795.906
84.768	17.264	1015.342	795.187
85.782	17.310	1014.139	794.387
86.797	17.305	1012.881	793.310
87.812	17.227	1011.826	792.048
88.826	17.240	1011.154	791.514
89.841	17.175	1010.328	790.495
90.855	17.243	1009.186	789.844
91.870	17.149	1008.393	788.720
92.884	17.274	1006.979	788.123
93.899	17.184	1006.318	787.120
94.914	17.350	1005.210	786.951
95.928	17.241	1004.079	785.494
96.943	17.051	1002.838	783.574
97.957	16.811	1001.703	781.512
98.972	16.669	1000.168	779.591
99.987	16.930	999.980	780.579
101.001	17.063	999.235	780.540
102.016	17.090	998.421	779.959
103.030	16.987	997.259	778.508
104.045	16.862	995.613	776.582
105.060	16.751	994.580	775.201
106.074	16.868	994.392	775.521
107.089	17.334	993.770	777.097
108.103	17.276	992.220	775.551
109.118	17.065	990.957	773.534
110.133	17.199	990.236	773.513
111.147	16.890	989.032	771.097
112.162	16.816	988.084	769.956
113.176	16.888	987.553	769.802
114.191	16.849	986.483	768.721
115.206	16.734	985.072	767.030
116.220	16.837	984.505	766.990
117.235	16.843	983.485	766.155
118.249	16.954	982.318	765.676
119.264	16.726	982.124	764.430
120.279	16.930	980.920	764.344
121.293	16.963	980.356	763.988
122.308	16.977	979.516	763.326
123.322	16.865	977.996	761.573
124.337	16.822	976.394	760.063
125.352	16.524	974.587	757.255
126.366	16.395	973.877	756.061
127.381	17.013	973.624	758.562
128.395	17.248	972.766	758.875
129.410	17.447	971.790	758.933
130.424	17.153	970.891	756.856
131.439	17.280	969.334	756.137
132.454	17.183	968.667	755.121
133.468	17.123	967.654	753.997
134.483	17.370	967.189	754.663
135.497	17.539	966.120	754.510
136.512	17.472	965.252	753.472
137.527	17.504	963.772	752.391
138.541	17.472	963.535	751.996
139.556	17.480	962.735	751.340
140.570	17.368	961.769	750.025
141.585	17.385	960.727	749.223
142.600	17.399	959.564	748.311
143.614	17.640	958.960	748.833
144.629	17.534	958.463	747.914
145.643	17.507	957.135	746.695
146.658	17.408	956.043	745.339
147.673	17.306	955.239	744.201
148.687	17.361	953.811	743.266
149.702	17.412	952.777	742.615
150.716	17.247	952.122	741.320
151.731	17.398	951.639	741.535
152.746	17.666	950.622	741.846
153.760	17.563	950.244	741.034
154.775	17.703	949.574	741.057
155.789	17.659	948.534	739.987
156.804	17.542	947.963	738.967
157.819	17.595	947.199	738.538
158.833	17.714	945.989	738.047
159.848	17.701	945.372	737.444
160.862	17.561	943.719	735.485
161.877	17.650	943.269	735.452
162.892	17.584	942.357	734.389
163.906	17.546	940.921	733.044
164.921	17.669	939.951	732.751
165.935	17.714	939.509	732.536
166.950	17.660	938.196	731.215
167.964	17.475	937.696	729.965
168.979	17.460	936.537	728.937
169.994	17.492	935.030	727.835
171.008	17.746	934.634	728.548
172.023	17.540	933.785	726.945
173.037	17.381	932.565	725.251
174.052	17.249	931.932	724.134
175.067	17.381	931.565	724.346
176.081	17.522	930.998	724.440
177.096	17.448	930.052	723.327
178.110	17.326	929.099	722.003
179.125	17.068	928.538	720.410
180.140	17.269	928.125	720.877
181.154	17.313	927.681	720.652
182.169	17.518	927.609	721.401
183.183	17.608	926.652	720.976
184.198	17.689	925.429	720.304
185.213	17.543	924.985	719.276
186.227	17.729	924.157	719.355
187.242	17.681	923.707	718.738
188.256	17.590	922.566	717.403
189.271	17.716	921.954	717.395
190.286	17.525	920.860	715.676
191.300	17.057	920.119	713.071
192.315	16.475	918.483	709.301
193.329	16.521	918.091	709.126
194.344	17.103	918.829	712.073
195.359	17.558	918.091	713.345
196.373	17.628	917.494	713.113
197.388	17.362	916.514	711.175
198.402	17.395	915.762	710.666
199.417	17.310	915.096	709.735
200.432	17.088	913.783	707.724
201.446	16.899	913.703	706.813
202.461	16.920	912.903	706.221
203.475	16.284	910.938	701.993
204.490	15.875	909.838	699.384
205.504	16.678	910.212	702.946
206.519	17.256	909.937	705.072
207.534	17.184	909.722	704.544
208.548	17.622	909.419	706.061
209.563	17.322	908.232	703.837
210.577	17.406	907.215	703.332
211.592	17.885	906.725	704.869
212.607	17.528	906.186	702.913
213.621	17.732	905.629	703.261
214.636	17.689	904.880	702.441
215.650	17.784	903.864	701.980
216.665	17.869	903.437	701.935
217.680	17.793	902.475	700.813
218.694	17.416	901.228	698.235
219.709	17.203	900.489	696.728
220.723	17.537	900.355	697.931
221.738	17.741	899.631	698.145
222.753	17.604	898.811	696.887
223.767	17.588	898.491	696.513
224.782	17.739	898.161	696.811
225.796	17.781	897.510	696.418
226.811	17.300	896.083	693.286
227.826	16.857	894.870	690.483
228.840	17.074	894.083	690.697
229.855	16.882	893.443	689.361
230.869	16.689	892.069	687.455
231.884	17.150	892.062	689.262
232.899	17.754	891.748	691.406
233.913	17.742	891.427	691.047
234.928	17.684	891.207	690.581
235.942	17.693	890.249	689.814
236.957	17.342	889.251	687.563
237.972	17.498	888.473	687.527
238.986	17.562	887.779	687.189
240.001	17.561	887.357	686.796
241.015	17.572	886.775	686.329
242.030	17.629	886.220	686.070
243.045	17.758	885.378	685.878
244.059	17.977	884.756	686.214
245.074	17.662	883.819	684.162
246.088	17.358	882.691	682.008
247.103	17.553	882.428	682.528
248.117	17.934	882.119	683.753
249.132	17.976	881.735	683.564
250.147	18.030	880.556	682.807
251.161	18.189	880.263	683.154
252.176	18.091	879.775	682.323
253.190	18.238	879.341	682.511
254.205	18.446	878.632	682.729
255.220	18.401	877.728	681.787
256.234	18.303	877.072	680.829
257.249	18.231	876.296	679.880
258.263	18.120	875.570	678.817
259.278	18.398	874.782	679.248
260.293	18.356	873.892	678.331
261.307	18.141	873.380	677.021
262.322	17.997	872.082	675.386
263.336	17.211	870.432	670.944
264.351	16.373	868.469	666.072
265.366	16.573	868.260	666.641
266.380	17.453	868.943	670.573
267.395	17.984	868.397	672.185
268.409	17.886	867.842	671.309
269.424	18.090	867.254	671.595
270.439	18.349	866.245	671.772
271.453	18.249	866.353	671.404
272.468	18.445	865.581	671.513
273.482	18.411	864.827	670.735
274.497	18.145	863.375	668.510
275.512	17.771	862.760	666.513
276.526	18.068	862.708	667.575
277.541	18.039	862.562	667.291
278.555	17.892	860.802	665.295
279.570	17.701	860.398	664.182
280.585	17.793	860.216	664.341
281.599	18.012	858.814	664.049
282.614	17.676	857.732	661.850
283.628	17.701	857.370	661.608
284.643	17.884	857.291	662.203
285.657	17.539	855.902	659.732
286.672	17.283	855.099	658.064
287.687	17.886	854.607	659.959
288.701	17.802	854.322	659.356
289.716	17.494	853.604	657.555
290.730	17.630	852.537	657.201
291.745	17.268	851.699	655.101
292.760	17.498	851.610	655.859
293.774	18.290	851.933	659.101
294.789	18.614	851.475	659.934
295.803	18.717	850.209	659.292
296.818	18.911	849.826	659.679
297.833	18.391	848.978	656.972
298.847	18.377	848.183	656.243
299.862	18.523	847.778	656.432
300.876	18.716	847.152	656.626
301.891	18.504	846.864	655.535
302.906	18.044	845.855	652.937
303.920	18.201	845.346	653.086
304.935	18.548	844.920	654.024
305.949	18.470	844.402	653.267
306.964	18.348	844.064	652.484
307.979	18.681	843.198	653.025
308.993	18.849	843.221	653.622
310.008	18.877	842.433	653.061
311.022	18.518	841.487	650.906
312.037	18.406	841.284	650.264
313.052	18.407	840.371	649.507
314.066	17.597	839.019	645.339
315.081	17.450	838.343	644.203
316.095	18.096	838.372	646.612
317.110	18.563	838.074	648.092
318.125	17.958	836.676	644.670
319.139	17.142	835.030	640.272
320.154	17.169	834.723	640.081
321.168	17.783	835.251	642.744
322.183	18.465	834.701	644.829
323.197	18.465	834.708	644.779
324.212	18.652	834.192	645.026
325.227	18.639	833.727	644.561
326.241	18.486	833.261	643.568
327.256	18.572	832.362	643.140
328.270	18.405	831.432	641.737
329.285	18.400	830.559	640.991
330.300	18.164	829.970	639.594
331.314	18.354	829.638	639.994
332.329	18.659	829.520	640.985
333.343	18.680	829.032	640.629
334.358	18.700	828.619	640.326
335.373	18.681	828.146	639.836
336.387	18.951	828.000	640.673
337.402	19.104	827.600	640.876
338.416	18.952	827.212	639.953
339.431	18.873	826.744	639.238
340.446	19.057	826.475	639.657
341.460	18.887	826.237	638.788
342.475	18.790	825.617	637.889
343.489	18.786	824.785	637.178
344.504	19.078	824.561	638.032
345.519	19.210	824.663	638.541
346.533	19.308	823.613	638.034
347.548	19.413	823.519	638.294
348.562	19.403	822.737	637.596
349.577	19.156	822.356	636.331
350.592	19.387	821.478	636.449
351.606	19.507	820.761	636.279
352.621	19.302	820.000	634.876
353.635	19.213	819.228	633.896
354.650	18.537	818.080	630.466
355.665	17.911	816.333	626.768
356.679	18.226	815.728	627.400
357.694	18.527	815.855	628.547
358.708	18.383	815.065	627.354
359.723	18.936	815.163	629.402
360.738	19.182	814.679	629.872
361.752	19.080	814.150	629.033
362.767	19.399	813.622	629.735
363.781	19.637	813.227	630.242
364.796	19.653	812.725	629.855
365.810	19.585	812.563	629.427
366.825	19.545	812.338	629.051
367.840	19.414	811.190	627.628
368.854	19.025	810.491	625.620
369.869	19.162	809.925	625.622
370.883	19.169	809.526	625.286
371.898	18.787	809.347	623.706
372.913	19.167	808.819	624.621
373.927	19.341	808.323	624.814
374.942	19.297	808.101	624.430
375.956	19.458	807.245	624.292
376.971	19.384	807.409	624.099
377.986	19.389	807.170	623.877
379.000	19.548	806.145	623.602
380.015	19.346	805.659	622.441
381.029	19.578	804.903	622.640
382.044	19.626	804.413	622.378
383.059	19.593	803.901	621.809
384.073	19.690	803.414	621.724
385.088	19.635	803.116	621.244
386.102	19.572	801.981	620.081
387.117	19.539	801.868	619.822
388.132	19.335	800.618	618.069
389.146	18.990	799.751	616.111
390.161	19.187	799.073	616.238
391.175	19.401	798.964	616.864
392.190	19.136	798.166	615.246
393.205	18.085	796.795	610.387
394.219	17.096	795.460	605.782
395.234	16.969	795.514	605.315
396.248	18.336	796.294	610.735
397.263	19.555	796.762	615.387
398.278	19.561	796.357	615.044
399.292	19.379	795.748	613.868
400.307	19.482	795.025	613.625
401.321	19.387	795.002	613.215
402.336	19.706	794.767	614.113
403.350	19.951	794.369	614.620
404.365	19.958	793.996	614.302
405.380	20.349	793.326	615.116
406.394	20.269	793.277	614.739
407.409	20.172	792.374	613.639
408.423	20.065	792.255	613.115
409.438	20.170	791.628	612.947
410.453	20.501	791.070	613.629
411.467	20.281	790.735	612.540
412.482	20.330	790.504	612.480
413.496	20.372	789.948	612.145
414.511	20.122	790.126	611.344
415.526	20.370	789.017	611.307
416.540	20.166	788.778	610.349
417.555	19.957	787.985	608.947
418.569	20.068	787.511	608.916
419.584	19.944	787.021	608.048
420.599	19.727	786.453	606.793
421.613	154.824	1360.254	1791.532
422.628	133.933	1443.877	1791.654
