DTS Sentinel unit serial number:	SN413079Multiplexer serial number:	ORYXHardware model number:	OX4-SRSoftware version number:	ORYX F/W v4.00 Oryx Data Collector v3.7.2.0data status	okinstallation	princeton_trtdifferential loss correction	single-endedforward channel	channel 1reverse channel	N/Adate	2019/09/14time	07:22:35forward acquisition time	60.00reverse acquisition time	0.00gamma	496.2192k internal	0.2336k external	0.2336temperature offset calibration	1.0078default loss term (dB/km)	0.3790temperature slope calibration	1.0000multiplexer offset coefficient	1.0000multiplexer slope coefficient	1.0000fibre end	0.00T internal ref (°C)	26.19T ext. ref 1 (°C)	3.46T ext. ref 2 (°C)	20.97length (m)	temperature (°C)	Stokes	anti-Stokes-747.200	119.256	0.049	0.061
-746.185	-108.097	0.352	-0.077
-745.171	37.131	-0.074	0.066
-744.156	192.169	-0.065	-0.099
-743.142	728.513	-0.071	0.191
-742.127	721.680	-0.041	0.109
-741.112	158.593	-0.066	0.092
-740.098	207.512	0.139	0.218
-739.083	-124.102	-0.177	0.028
-738.069	140.462	-0.022	0.030
-737.054	800.000	-0.063	0.201
-736.039	115.004	-0.336	-0.412
-735.025	14.830	0.109	0.085
-734.010	-133.886	0.078	0.010
-732.996	-56.549	-0.182	0.081
-731.981	12.632	0.125	-0.096
-730.966	20.044	-0.030	0.024
-729.952	732.400	-0.050	-0.133
-728.937	357.020	0.097	0.194
-727.923	-79.898	-0.419	-0.141
-726.908	441.903	0.057	0.125
-725.894	-114.526	-0.173	0.033
-724.879	-148.297	-0.186	0.015
-723.864	-200.000	-0.026	-0.188
-722.850	-97.256	-0.192	-0.050
-721.835	-200.000	-0.008	-0.495
-720.821	114.770	-0.158	0.193
-719.806	-141.063	0.256	-0.026
-718.791	-102.450	-0.026	0.006
-717.777	-200.000	0.049	-0.293
-716.762	26.134	-0.271	-0.227
-715.748	-164.204	0.350	-0.016
-714.733	266.341	0.062	-0.108
-713.718	28.391	0.160	-0.135
-712.704	-200.000	-0.033	0.168
-711.689	-200.000	0.071	-0.484
-710.675	359.222	0.198	-0.398
-709.660	193.383	0.175	-0.266
-708.645	-21.104	-0.416	-0.255
-707.631	-200.000	-0.014	-0.071
-706.616	283.100	0.168	-0.302
-705.602	646.201	0.111	0.284
-704.587	127.807	-0.079	0.101
-703.572	34.085	-0.277	0.242
-702.558	182.346	-0.257	-0.380
-701.543	145.027	0.071	0.096
-700.529	374.059	-0.149	-0.303
-699.514	-200.000	-0.025	-0.220
-698.499	-59.152	-0.109	-0.047
-697.485	-137.619	0.080	0.009
-696.470	242.230	0.115	-0.192
-695.456	800.000	-0.039	-0.134
-694.441	800.000	0.005	0.020
-693.426	-54.518	0.398	0.180
-692.412	26.059	-0.292	-0.244
-691.397	103.937	-0.129	0.151
-690.383	-200.000	0.013	-0.428
-689.368	-79.133	-0.306	-0.104
-688.354	-41.582	-0.108	0.056
-687.339	172.596	-0.080	-0.115
-686.324	-51.816	-0.504	-0.235
-685.310	-67.590	0.303	-0.119
-684.295	-200.000	-0.008	0.131
-683.281	-120.303	0.328	-0.056
-682.266	-200.000	-0.042	-0.315
-681.251	220.117	0.102	-0.163
-680.237	-44.823	-0.144	-0.072
-679.222	-200.000	-0.016	0.251
-678.208	800.000	-0.061	-0.184
-677.193	-200.000	-0.041	-0.240
-676.178	-157.250	0.187	-0.011
-675.164	-131.920	0.240	-0.031
-674.149	256.322	-0.202	-0.348
-673.135	-200.000	0.023	-0.119
-672.120	-62.703	-0.226	-0.094
-671.105	-200.000	-0.053	-0.383
-670.091	168.832	-0.135	0.193
-669.076	-82.293	0.143	0.047
-668.062	800.000	-0.102	-0.349
-667.047	-101.415	-0.124	-0.030
-666.032	-171.430	-0.038	0.001
-665.018	-36.762	0.225	-0.121
-664.003	-94.938	-0.240	0.065
-662.989	-63.749	-0.426	-0.175
-661.974	-168.256	-0.171	-0.007
-660.959	800.000	0.065	-0.187
-659.945	342.159	0.030	0.058
-658.930	-174.643	0.359	0.010
-657.916	-200.000	-0.017	-0.311
-656.901	711.318	0.072	-0.192
-655.886	800.000	-0.059	-0.164
-654.872	163.272	0.089	-0.125
-653.857	-40.070	0.175	-0.091
-652.843	147.208	0.112	0.150
-651.828	-89.690	-0.140	0.041
-650.814	417.618	0.061	-0.131
-649.799	-200.000	-0.032	-0.238
-648.784	220.433	-0.073	0.117
-647.770	60.741	0.009	-0.009
-646.755	-114.734	0.331	-0.063
-645.741	-88.440	-0.230	-0.069
-644.726	-73.402	-0.090	-0.033
-643.711	800.000	-0.037	0.124
-642.697	-200.000	0.037	0.215
-641.682	-35.055	-0.215	-0.117
-640.668	251.858	0.152	0.259
-639.653	69.805	0.088	0.091
-638.638	-125.131	-0.347	-0.053
-637.624	398.194	0.094	0.197
-636.609	800.000	0.053	-0.180
-635.595	-15.368	0.188	0.120
-634.580	194.624	-0.037	0.056
-633.565	2.928	-0.139	-0.101
-632.551	-200.000	0.021	-0.254
-631.536	-8.565	0.057	0.038
-630.522	-101.305	0.457	-0.112
-629.507	211.470	-0.027	-0.043
-628.492	-200.000	0.011	0.135
-627.478	-200.000	0.019	0.101
-626.463	135.761	-0.085	0.110
-625.449	-200.000	-0.028	0.203
-624.434	-200.000	-0.026	-0.172
-623.419	-96.377	-0.288	-0.076
-622.405	297.928	-0.061	-0.112
-621.390	-75.834	-0.396	-0.140
-620.376	400.876	0.099	-0.208
-619.361	227.748	0.047	0.076
-618.346	-20.565	-0.515	-0.316
-617.332	631.806	-0.037	-0.093
-616.317	-200.000	0.024	-0.291
-615.303	497.982	0.158	0.363
-614.288	-81.928	-0.190	0.062
-613.273	-82.783	-0.169	0.055
-612.259	-30.866	0.281	0.159
-611.244	331.814	0.128	-0.246
-610.230	72.761	-0.116	-0.121
-609.215	214.402	-0.131	0.207
-608.201	332.189	0.133	-0.256
-607.186	-200.000	0.017	0.392
-606.171	47.348	-0.065	-0.061
-605.157	800.000	-0.024	0.084
-604.142	-180.470	-0.365	0.008
-603.128	35.234	-0.080	-0.070
-602.113	-10.992	-0.138	0.091
-601.098	47.315	0.105	0.098
-600.084	800.000	0.056	0.227
-599.069	93.300	0.177	-0.200
-598.055	138.381	-0.097	-0.127
-597.040	-12.139	0.104	-0.068
-596.025	100.178	0.139	0.161
-595.011	-79.296	0.066	0.022
-593.996	-2.721	0.066	-0.046
-592.982	-51.168	-0.267	-0.125
-591.967	44.578	-0.163	0.150
-590.952	436.528	0.065	-0.140
-589.938	-40.553	-0.262	-0.136
-588.923	155.353	-0.126	-0.173
-587.909	160.169	-0.218	0.304
-586.894	555.505	-0.081	-0.194
-585.879	-119.036	0.082	-0.014
-584.865	261.775	-0.090	-0.155
-583.850	-0.978	-0.201	0.142
-582.836	-131.849	0.396	0.052
-581.821	343.713	0.207	0.404
-580.806	26.509	-0.172	0.143
-579.792	-124.251	-0.273	-0.043
-578.777	-105.582	0.047	-0.011
-577.763	297.988	0.091	-0.167
-576.748	720.060	0.033	-0.087
-575.733	108.966	-0.219	0.262
-574.719	-179.013	-0.228	0.005
-573.704	11.733	0.127	-0.098
-572.690	-112.799	0.137	0.027
-571.675	-99.749	0.163	-0.041
-570.661	-200.000	-0.019	-0.235
-569.646	225.055	-0.082	0.133
-568.631	-152.917	0.024	-0.002
-567.617	-48.228	-0.483	-0.232
-566.602	28.905	-0.100	0.085
-565.588	46.555	-0.042	0.039
-564.573	10.247	0.196	-0.149
-563.558	-185.382	-0.292	-0.004
-562.544	8.921	-0.250	-0.188
-561.529	-200.000	-0.025	-0.179
-560.515	-200.000	-0.009	0.183
-559.500	-46.870	-0.178	0.087
-558.485	7.941	0.104	-0.078
-557.471	27.621	-0.079	0.066
-556.456	275.684	-0.410	0.726
-555.442	132.981	0.176	0.226
-554.427	6.808	-0.117	-0.087
-553.412	-200.000	0.176	0.001
-552.398	118.688	-0.058	-0.072
-551.383	8.098	0.134	0.101
-550.369	-72.104	0.060	-0.022
-549.354	234.409	-0.024	-0.039
-548.339	-122.907	-0.281	-0.045
-547.325	92.437	-0.015	-0.017
-546.310	-200.000	0.095	-0.515
-545.296	800.000	0.035	-0.131
-544.281	-117.829	0.006	0.001
-543.266	-128.601	-0.144	-0.020
-542.252	-200.000	-0.068	-0.371
-541.237	-200.000	-0.004	-0.154
-540.223	249.936	0.128	-0.217
-539.208	-103.274	-0.298	-0.070
-538.193	-200.000	0.017	0.081
-537.179	-176.620	-0.349	-0.009
-536.164	-74.108	0.115	-0.041
-535.150	-107.623	-0.427	0.093
-534.135	-96.107	0.079	0.021
-533.121	248.811	0.144	-0.242
-532.106	-200.000	0.019	0.407
-531.091	800.000	0.037	-0.147
-530.077	-78.437	-0.129	0.044
-529.062	-200.000	0.008	-0.174
-528.048	-80.353	-0.255	-0.085
-527.033	-26.951	-0.169	0.098
-526.018	81.835	-0.075	0.081
-525.004	-200.000	0.026	0.140
-523.989	-101.219	-0.392	-0.095
-522.975	-7.664	-0.024	0.016
-521.960	-200.000	0.028	-0.344
-520.945	-32.983	0.223	0.123
-519.931	-38.590	-0.175	0.092
-518.916	-133.238	-0.089	-0.011
-517.902	-200.000	0.017	-0.392
-516.887	89.045	0.215	0.238
-515.872	800.000	0.097	-0.369
-514.858	-200.000	-0.044	-0.259
-513.843	241.651	-0.145	-0.241
-512.829	-200.000	0.017	0.458
-511.814	146.719	0.056	-0.075
-510.799	515.010	0.090	0.209
-509.785	-65.399	0.204	-0.082
-508.770	-114.529	0.331	-0.063
-507.756	-121.899	-0.349	0.057
-506.741	-200.000	-0.066	0.373
-505.726	-15.775	0.308	-0.195
-504.712	-200.000	-0.025	-0.129
-503.697	18.710	0.248	-0.197
-502.683	-46.422	-0.071	0.035
-501.668	-145.667	0.143	0.013
-500.653	671.625	-0.131	0.337
-499.639	342.501	0.043	0.083
-498.624	800.000	-0.078	0.310
-497.610	-121.818	0.214	0.035
-496.595	-31.028	0.098	0.055
-495.581	-200.000	-0.009	-0.080
-494.566	-200.000	0.060	-0.277
-493.551	49.372	0.040	-0.038
-492.537	513.857	-0.088	-0.204
-491.522	-200.000	-0.008	-0.126
-490.508	97.116	-0.203	-0.232
-489.493	-87.475	-0.130	0.039
-488.478	188.670	0.165	0.246
-487.464	800.000	0.085	-0.292
-486.449	-200.000	-0.015	0.452
-485.435	-84.946	0.241	-0.075
-484.420	-70.415	0.217	0.082
-483.405	-109.333	0.158	0.033
-482.391	800.000	0.035	0.116
-481.376	79.997	-0.164	0.175
-480.362	-200.000	-0.020	0.203
-479.347	-200.000	-0.086	-0.423
-478.332	-27.496	0.175	-0.101
-477.318	158.508	0.247	0.341
-476.303	48.518	0.305	-0.284
-475.289	7.728	0.206	0.153
-474.274	32.217	0.263	-0.226
-473.259	44.102	-0.079	0.072
-472.245	59.170	0.108	-0.106
-471.230	-79.799	0.214	-0.071
-470.216	233.477	-0.198	-0.324
-469.201	-200.000	0.014	-0.205
-468.186	-22.170	-0.301	-0.181
-467.172	-110.662	-0.287	-0.059
-466.157	82.842	0.154	-0.167
-465.143	711.635	0.055	0.145
-464.128	188.765	0.087	0.129
-463.113	410.709	0.070	0.148
-462.099	-156.046	-0.361	0.023
-461.084	55.675	0.131	0.126
-460.070	30.649	0.199	0.169
-459.055	-200.000	-0.007	-0.160
-458.040	150.392	-0.283	-0.382
-457.026	4.050	0.191	-0.139
-456.011	-139.672	-0.161	0.017
-454.997	-154.669	-0.201	0.013
-453.982	95.593	0.127	0.144
-452.968	32.907	-0.218	0.188
-451.953	626.950	0.096	-0.241
-450.938	65.854	-0.221	-0.222
-449.924	58.230	0.176	-0.171
-448.909	800.000	0.058	-0.216
-447.895	-53.252	0.343	0.156
-446.880	-85.347	-0.172	0.053
-445.865	800.000	0.042	0.143
-444.851	800.000	-0.059	0.169
-443.836	-200.000	-0.014	-0.218
-442.822	-132.722	-0.359	0.046
-441.807	143.628	0.045	-0.060
-440.792	118.588	-0.195	0.239
-439.778	-72.946	0.038	-0.014
-438.763	301.524	-0.040	0.073
-437.749	-112.584	0.360	-0.071
-436.734	-48.508	-0.289	0.138
-435.719	800.000	-0.128	0.404
-434.705	-85.703	0.410	0.126
-433.690	21.915	-0.330	0.267
-432.676	667.717	-0.098	0.252
-431.661	-89.477	0.239	0.070
-430.646	-65.524	-0.095	-0.038
-429.632	-88.664	-0.308	-0.091
-428.617	386.432	0.045	0.092
-427.603	-124.483	0.312	-0.048
-426.588	49.696	0.173	-0.162
-425.573	800.000	0.001	-0.005
-424.559	389.016	-0.092	0.190
-423.544	-200.000	-0.054	-0.284
-422.530	-23.412	0.184	-0.110
-421.515	-200.000	-0.133	0.582
-420.500	800.000	-0.061	0.255
-419.486	162.253	-0.073	-0.101
-418.471	353.611	0.091	-0.179
-417.457	-5.451	-0.278	0.189
-416.442	135.507	0.106	-0.137
-415.428	-7.348	-0.140	-0.094
-414.413	395.416	0.124	-0.256
-413.398	-50.498	-0.053	0.025
-412.384	-10.344	-0.130	0.085
-411.369	599.149	-0.087	0.214
-410.355	-73.424	0.240	0.087
-409.340	-200.000	-0.042	0.229
-408.325	-200.000	0.040	0.172
-407.311	-94.674	-0.086	-0.023
-406.296	249.479	0.189	0.318
-405.282	-28.014	0.174	-0.100
-404.267	-109.974	0.291	-0.060
-403.252	-200.000	0.035	0.186
-402.238	233.572	0.073	-0.120
-401.223	-200.000	0.021	0.118
-400.209	121.060	0.080	0.099
-399.194	800.000	0.018	-0.050
-398.179	713.309	0.076	0.200
-397.165	-200.000	-0.012	0.157
-396.150	-153.863	-0.043	0.003
-395.136	36.494	0.068	0.059
-394.121	22.654	-0.056	0.045
-393.106	46.494	0.233	0.214
-392.092	-200.000	-0.016	0.093
-391.077	-44.492	-0.147	0.073
-390.063	149.774	-0.190	0.255
-389.048	195.352	0.213	0.320
-388.033	-200.000	-0.005	0.078
-387.019	-52.644	0.158	0.072
-386.004	326.239	0.112	-0.212
-384.990	-107.655	-0.147	-0.032
-383.975	-82.572	-0.030	-0.010
-382.960	800.000	0.054	-0.234
-381.946	128.172	-0.148	-0.186
-380.931	-100.710	-0.246	-0.060
-379.917	-200.000	0.069	0.524
-378.902	800.000	-0.092	-0.256
-377.888	378.745	0.214	-0.434
-376.873	57.531	0.280	-0.271
-375.858	-95.412	-0.224	-0.060
-374.844	160.180	-0.133	0.184
-373.829	65.741	-0.183	0.184
-372.815	-147.883	-0.671	-0.055
-371.800	-200.000	-0.003	-0.063
-370.785	555.264	-0.050	-0.118
-369.771	-200.000	-0.019	0.084
-368.756	88.161	0.205	0.226
-367.742	-60.531	-0.318	0.134
-366.727	69.826	-0.149	-0.152
-365.712	-136.327	0.069	0.008
-364.698	-200.000	0.025	0.120
-363.683	-89.935	-0.283	-0.082
-362.669	800.000	0.034	0.121
-361.654	349.002	-0.051	0.100
-360.639	-200.000	-0.098	-0.491
-359.625	-200.000	-0.066	0.458
-358.610	-94.723	0.346	0.093
-357.596	-127.688	-0.085	0.012
-356.581	243.931	0.084	-0.140
-355.566	-129.967	0.187	0.025
-354.552	20.803	-0.040	-0.032
-353.537	-200.000	0.006	-0.055
-352.523	88.170	-0.075	-0.083
-351.508	-130.760	-0.130	-0.017
-350.493	99.270	0.121	0.138
-349.479	-200.000	-0.091	-0.418
-348.464	-21.472	0.226	-0.136
-347.450	-156.924	0.312	0.019
-346.435	-166.134	0.357	0.015
-345.420	-200.000	0.080	-0.417
-344.406	1.477	-0.193	0.137
-343.391	-92.291	0.215	-0.060
-342.377	-163.819	-0.073	0.003
-341.362	-200.000	0.038	-0.269
-340.348	185.847	0.134	0.197
-339.333	800.000	-0.107	-0.334
-338.318	193.642	0.174	0.260
-337.304	43.298	-0.202	-0.182
-336.289	391.301	0.087	0.178
-335.275	800.000	-0.051	-0.181
-334.260	-50.919	-0.048	0.022
-333.245	-153.973	-0.266	0.018
-332.231	80.688	0.239	-0.255
-331.216	-200.000	-0.012	0.160
-330.202	392.869	-0.114	0.234
-329.187	800.000	-0.073	0.254
-328.172	-100.865	0.162	0.039
-327.158	-190.366	0.213	-0.002
-326.143	692.464	-0.106	-0.274
-325.129	96.031	0.231	0.261
-324.114	42.578	-0.054	-0.048
-323.099	-42.543	0.276	0.139
-322.085	465.184	-0.029	-0.065
-321.070	-75.076	-0.053	0.019
-320.056	-91.113	0.195	-0.055
-319.041	178.184	-0.125	0.180
-318.026	-5.957	-0.234	0.158
-317.012	-13.056	0.283	0.182
-315.997	225.486	-0.095	-0.151
-314.983	-74.724	-0.286	-0.101
-313.968	-200.000	0.034	-0.193
-312.953	-128.266	0.244	0.034
-311.939	-151.306	0.407	-0.030
-310.924	-82.264	0.302	-0.097
-309.910	-36.221	0.167	0.089
-308.895	250.907	0.050	0.084
-307.880	-29.016	0.105	-0.059
-306.866	87.649	-0.068	0.074
-305.851	-200.000	0.023	-0.248
-304.837	-165.263	-0.268	0.012
-303.822	-200.000	-0.009	-0.141
-302.807	174.434	-0.078	0.112
-301.793	-200.000	0.032	-0.508
-300.778	-30.694	0.328	0.183
-299.764	92.822	0.067	-0.075
-298.749	49.616	0.190	0.177
-297.735	48.062	0.112	0.103
-296.720	-24.671	-0.231	0.136
-295.705	61.089	0.374	0.366
-294.691	271.362	-0.068	-0.118
-293.676	614.841	-0.149	-0.369
-292.662	-73.717	0.170	-0.061
-291.647	-2.349	-0.349	-0.241
-290.632	175.315	-0.031	-0.044
-289.618	-200.000	-0.006	-0.027
-288.603	-200.000	0.055	-0.274
-287.589	-66.702	-0.319	0.125
-286.574	364.408	-0.167	0.332
-285.559	-200.000	0.008	0.054
-284.545	116.877	-0.102	-0.124
-283.530	152.131	0.060	-0.080
-282.516	800.000	0.038	-0.104
-281.501	-156.839	0.328	-0.020
-280.486	-159.173	0.239	0.013
-279.472	288.461	0.105	0.187
-278.457	-137.131	-0.468	-0.053
-277.443	149.398	0.106	-0.141
-276.428	167.896	-0.218	0.306
-275.413	-165.433	-0.151	0.007
-274.399	125.424	0.222	0.277
-273.384	800.000	0.140	-0.397
-272.370	-141.931	0.290	0.029
-271.355	-122.441	-0.160	-0.026
-270.340	-0.200	0.147	-0.103
-269.326	800.000	0.084	-0.274
-268.311	31.797	-0.443	-0.376
-267.297	-200.000	-0.036	0.182
-266.282	190.257	0.056	-0.083
-265.267	-200.000	-0.031	-0.234
-264.253	8.072	0.106	0.079
-263.238	-200.000	-0.014	0.241
-262.224	12.502	-0.141	-0.107
-261.209	366.939	0.150	0.299
-260.195	800.000	0.091	0.313
-259.180	218.589	-0.235	-0.370
-258.165	-74.679	0.096	0.034
-257.151	-131.646	0.178	-0.023
-256.136	-200.000	-0.031	-0.381
-255.122	106.248	-0.126	-0.146
-254.107	-51.809	-0.133	-0.061
-253.092	27.652	-0.228	-0.189
-252.078	620.604	-0.136	0.338
-251.063	-119.435	-0.138	0.024
-250.049	-60.724	0.259	0.108
-249.034	-200.000	-0.024	0.163
-248.019	-59.863	0.083	0.035
-247.005	-24.371	0.187	-0.110
-245.990	343.445	-0.018	-0.035
-244.976	-200.000	0.031	0.223
-243.961	-151.588	0.068	-0.005
-242.946	-59.551	-0.113	-0.048
-241.932	188.271	-0.039	0.058
-240.917	-200.000	0.059	0.258
-239.903	-200.000	-0.009	0.052
-238.888	800.000	-0.086	0.255
-237.873	-117.116	-0.216	-0.039
-236.859	401.206	-0.068	-0.141
-235.844	164.047	0.175	0.243
-234.830	-115.374	-0.269	-0.050
-233.815	-74.718	-0.045	-0.016
-232.800	-200.000	-0.017	-0.083
-231.786	-45.017	0.161	0.079
-230.771	225.058	-0.140	0.223
-229.757	64.560	-0.254	0.252
-228.742	-121.993	0.137	0.022
-227.727	-190.048	-0.371	0.004
-226.713	-200.000	-0.009	-0.267
-225.698	-40.786	0.334	-0.170
-224.684	800.000	-0.064	-0.265
-223.669	231.839	0.072	0.117
-222.655	6.438	0.131	-0.096
-221.640	-101.560	0.304	-0.073
-220.625	-27.323	0.126	-0.072
-219.611	-15.051	-0.293	-0.185
-218.596	-200.000	0.004	0.044
-217.582	-200.000	0.032	0.204
-216.567	70.739	0.136	0.139
-215.552	-100.701	0.114	0.028
-214.538	-167.043	-0.410	0.016
-213.523	50.624	-0.085	0.079
-212.509	47.998	-0.234	-0.215
-211.494	-200.000	-0.013	-0.146
-210.479	-82.807	0.318	-0.101
-209.465	-127.530	-0.221	-0.032
-208.450	-93.826	0.103	-0.028
-207.436	-48.399	-0.062	0.029
-206.421	267.210	-0.135	0.233
-205.406	-200.000	-0.055	-0.277
-204.392	-200.000	0.027	-0.189
-203.377	228.257	0.061	-0.097
-202.363	448.746	-0.034	-0.075
-201.348	267.842	-0.095	-0.163
-200.333	-104.072	0.172	0.039
-199.319	276.216	-0.016	0.028
-198.304	-184.450	-0.381	-0.006
-197.290	511.768	-0.139	0.318
-196.275	549.919	-0.034	0.080
-195.260	-200.000	0.062	-0.288
-194.246	-31.583	0.232	0.128
-193.231	123.412	0.145	0.178
-192.217	-141.962	0.149	-0.015
-191.202	-43.967	0.260	-0.128
-190.187	800.000	-0.026	-0.090
-189.173	68.949	0.388	0.391
-188.158	-73.868	0.246	0.088
-187.144	-49.328	0.153	-0.072
-186.129	-12.156	-0.097	-0.062
-185.114	-132.820	-0.150	0.019
-184.100	-200.000	-0.027	0.148
-183.085	-50.215	0.320	-0.149
-182.071	-200.000	0.017	0.164
-181.056	452.504	0.073	0.158
-180.042	800.000	0.062	-0.233
-179.027	800.000	-0.045	0.141
-178.012	-140.619	0.150	-0.015
-176.998	-102.409	-0.331	-0.078
-175.983	2.883	0.301	-0.215
-174.969	-200.000	-0.076	-0.350
-173.954	-77.890	0.324	0.110
-172.939	-80.372	-0.226	-0.074
-171.925	184.719	0.209	-0.305
-170.910	-200.000	-0.009	0.114
-169.896	81.823	-0.108	0.115
-168.881	-120.294	-0.463	0.078
-167.866	-82.472	0.067	0.021
-166.852	-18.036	0.112	-0.069
-165.837	-115.351	-0.173	0.032
-164.823	-80.282	0.483	0.158
-163.808	460.380	-0.117	0.256
-162.793	-105.909	0.224	-0.049
-161.779	-157.480	0.161	-0.010
-160.764	-123.815	0.215	-0.033
-159.750	24.305	-0.206	0.167
-158.735	-105.404	0.413	0.092
-157.720	-120.106	0.091	0.015
-156.706	-77.592	-0.249	-0.085
-155.691	-65.416	0.237	0.094
-154.677	-88.758	0.147	-0.043
-153.662	-19.006	-0.046	0.028
-152.647	93.198	0.251	0.279
-151.633	-200.000	0.030	0.306
-150.618	-154.816	0.113	0.007
-149.604	800.000	-0.079	-0.261
-148.589	543.580	0.091	0.212
-147.574	130.772	0.204	0.257
-146.560	359.255	0.155	0.303
-145.545	800.000	0.126	0.405
-144.531	-200.000	-0.046	0.324
-143.516	34.249	0.197	-0.169
-142.502	-53.092	-0.044	0.020
-141.487	435.554	-0.041	0.088
-140.472	-200.000	0.031	0.259
-139.458	-98.066	0.359	-0.091
-138.443	-12.909	-0.182	0.116
-137.429	800.000	0.145	0.531
-136.414	800.000	-0.071	0.208
-135.399	-18.092	0.121	-0.074
-134.385	-32.902	-0.150	-0.082
-133.370	-107.042	0.481	0.104
-132.356	-132.615	-0.094	-0.012
-131.341	218.411	-0.034	0.054
-130.326	-103.382	0.172	-0.040
-129.312	-200.000	0.006	-0.165
-128.297	593.585	0.098	0.238
-127.283	137.417	-0.180	-0.231
-126.268	800.000	0.067	0.233
-125.253	-200.000	-0.015	-0.097
-124.239	472.411	0.035	-0.077
-123.224	-170.320	0.431	-0.015
-122.210	-200.000	-0.019	-0.120
-121.195	159.670	0.100	-0.136
-120.180	-200.000	0.027	0.213
-119.166	-62.245	-0.266	0.109
-118.151	47.900	0.237	0.217
-117.137	-139.071	-0.137	0.015
-116.122	68.153	-0.167	-0.167
-115.107	-44.432	0.184	-0.090
-114.093	434.996	-0.064	-0.137
-113.078	800.000	-0.100	0.347
-112.064	800.000	-0.122	0.394
-111.049	-200.000	0.026	0.193
-110.034	218.766	-0.097	0.151
-109.020	-131.058	-0.268	0.035
-108.005	-28.736	-0.312	0.176
-106.991	-66.156	-0.077	-0.030
-105.976	-200.000	0.058	0.269
-104.962	-30.648	-0.083	0.046
-103.947	189.585	0.089	-0.131
-102.932	-200.000	0.006	0.037
-101.918	-60.783	-0.322	0.133
-100.903	-23.320	0.253	0.149
-99.889	-43.597	0.111	-0.055
-98.874	-111.948	-0.222	0.044
-97.859	624.850	0.038	0.093
-96.845	-165.655	-0.234	0.010
-95.830	800.000	0.062	-0.233
-94.816	631.352	-0.062	0.155
-93.801	3.680	0.206	0.147
-92.786	360.771	-0.119	-0.233
-91.772	339.998	0.088	-0.167
-90.757	-200.000	-0.071	0.311
-89.743	-36.402	-0.245	-0.129
-88.728	-200.000	-0.009	-0.216
-87.713	635.632	0.060	0.149
-86.699	-107.643	0.304	0.065
-85.684	-9.794	0.410	0.267
-84.670	-200.000	-0.020	0.162
-83.655	484.190	0.046	-0.103
-82.640	-72.734	0.448	-0.162
-81.626	26.889	-0.136	-0.111
-80.611	559.054	0.037	0.088
-79.597	141.484	0.100	-0.129
-78.582	161.652	-0.267	-0.366
-77.567	-69.535	0.346	-0.130
-76.553	-111.495	-0.066	-0.013
-75.538	157.457	0.092	0.125
-74.524	780.054	-0.006	0.017
-73.509	-35.778	-0.122	-0.064
-72.494	-164.729	0.317	-0.014
-71.480	16.843	-0.123	0.095
-70.465	110.414	-0.093	-0.109
-69.451	224.248	0.079	-0.124
-68.436	-200.000	0.019	0.134
-67.422	-157.078	-0.327	-0.020
-66.407	-200.000	-0.002	-0.337
-65.392	-111.468	0.205	0.041
-64.378	-59.083	0.056	0.023
-63.363	-104.693	-0.280	0.063
-62.349	-182.284	0.197	-0.004
-61.334	79.436	-1.204	-1.262
-60.319	-50.331	0.922	0.426
-59.305	800.000	-0.414	-1.467
-58.290	102.880	0.854	0.978
-57.276	516.031	0.563	1.285
-56.261	-200.000	117.243	638.616
-55.246	481.706	1552.506	3445.652
-54.232	173.827	2723.055	3842.638
-53.217	105.369	2160.220	2493.767
-52.203	38.078	1590.721	1383.045
-51.188	29.629	1332.346	1107.953
-50.173	26.685	1293.657	1058.563
-49.159	52.364	1353.059	1261.532
-48.144	50.718	1365.730	1263.468
-47.130	29.647	1319.653	1097.329
-46.115	26.295	1301.848	1062.804
-45.100	26.047	1296.512	1056.954
-44.086	25.999	1293.960	1054.551
-43.071	25.965	1291.603	1052.391
-42.057	25.910	1290.013	1050.729
-41.042	26.059	1287.839	1049.787
-40.027	26.073	1286.641	1048.847
-39.013	26.030	1284.393	1046.726
-37.998	26.125	1282.752	1045.896
-36.984	26.227	1280.639	1044.721
-35.969	26.134	1279.087	1042.876
-34.954	26.144	1277.449	1041.558
-33.940	26.325	1275.469	1040.945
-32.925	26.228	1274.542	1039.586
-31.911	26.224	1273.073	1038.327
-30.896	26.218	1271.859	1037.260
-29.881	26.224	1270.688	1036.296
-28.867	26.419	1268.950	1035.954
-27.852	26.259	1267.615	1033.913
-26.838	26.303	1265.938	1032.754
-25.823	26.282	1265.082	1031.893
-24.809	26.295	1263.658	1030.765
-23.794	26.184	1262.725	1029.330
-22.779	26.224	1260.951	1028.072
-21.765	26.316	1259.405	1027.294
-20.750	26.346	1258.441	1026.637
-19.736	26.185	1257.426	1024.851
-18.721	26.183	1255.668	1023.370
-17.706	26.120	1254.965	1022.398
-16.692	26.168	1253.505	1021.437
-15.677	26.162	1252.677	1020.688
-14.663	26.131	1251.264	1019.327
-13.648	26.035	1250.804	1018.367
-12.633	26.205	1249.152	1017.939
-11.619	26.149	1248.376	1016.951
-10.604	26.089	1247.879	1016.167
-9.590	26.132	1246.815	1015.504
-8.575	26.071	1246.024	1014.478
-7.560	26.155	1244.854	1013.954
-6.546	26.148	1244.013	1013.188
-5.531	26.152	1242.962	1012.320
-4.517	26.124	1242.230	1011.522
-3.502	26.210	1240.980	1010.949
-2.487	26.110	1240.300	1009.792
-1.473	26.126	1236.398	1006.668
-0.458	24.747	1221.110	986.575
0.556	21.395	1205.057	949.338
1.571	17.940	1211.492	935.434
2.586	17.173	1226.723	942.851
3.600	16.855	1214.065	931.295
4.615	12.714	1142.719	855.029
5.629	6.246	1072.674	770.935
6.644	3.556	1055.356	745.441
7.659	3.418	1052.997	743.041
8.673	3.459	1052.024	742.489
9.688	3.427	1051.132	741.638
10.702	3.678	1048.286	740.769
11.717	7.093	1053.675	760.955
12.731	14.401	1063.329	803.201
13.746	18.754	1068.722	828.246
14.761	19.398	1069.308	831.734
15.775	18.615	1067.583	826.545
16.790	17.750	1065.674	820.832
17.804	17.048	1063.958	816.067
18.819	16.633	1063.308	813.502
19.834	16.503	1062.336	812.061
20.848	16.365	1061.428	810.630
21.863	16.191	1060.675	809.150
22.877	16.052	1059.880	807.805
23.892	15.969	1059.319	806.908
24.907	15.939	1058.433	806.021
25.921	15.990	1057.287	805.322
26.936	16.033	1056.209	804.632
27.950	16.096	1055.229	804.115
28.965	16.228	1053.398	803.279
29.980	16.246	1052.210	802.388
30.994	16.292	1050.800	801.456
32.009	16.323	1049.422	800.484
33.023	16.204	1048.787	799.365
34.038	16.141	1048.124	798.491
35.053	16.067	1047.137	797.317
36.067	16.090	1046.005	796.494
37.082	16.102	1045.097	795.791
38.096	16.228	1044.494	795.855
39.111	16.114	1044.150	794.981
40.126	16.147	1042.188	793.572
41.140	16.012	1040.741	791.768
42.155	15.797	1039.863	790.021
43.169	15.787	1038.364	788.767
44.184	15.816	1037.570	788.227
45.199	15.837	1036.382	787.352
46.213	15.994	1035.435	787.297
47.228	16.010	1034.858	786.866
48.242	16.080	1033.783	786.306
49.257	16.028	1033.081	785.457
50.271	16.114	1032.056	785.008
51.286	16.127	1031.337	784.455
52.301	16.261	1029.514	783.622
53.315	16.073	1029.345	782.551
54.330	15.818	1028.213	780.435
55.344	15.973	1026.839	780.045
56.359	16.003	1026.284	779.690
57.374	15.871	1025.458	778.387
58.388	15.869	1024.319	777.443
59.403	15.871	1023.655	776.880
60.417	15.872	1022.681	776.075
61.432	15.749	1022.198	775.075
62.447	15.767	1021.199	774.330
63.461	15.630	1020.943	773.437
64.476	15.669	1019.923	772.776
65.490	15.620	1018.995	771.780
66.505	15.748	1017.994	771.539
67.520	15.660	1018.007	771.077
68.534	15.737	1016.733	770.398
69.549	15.690	1016.253	769.752
70.563	15.644	1015.327	768.770
71.578	15.575	1014.593	767.832
72.593	15.552	1013.489	766.823
73.607	15.567	1013.064	766.501
74.622	15.676	1012.119	766.216
75.636	15.691	1011.587	765.815
76.651	15.566	1010.934	764.682
77.666	15.576	1010.413	764.266
78.680	15.564	1009.906	763.760
79.695	15.666	1008.892	763.389
80.709	15.854	1008.690	764.022
81.724	15.786	1008.303	763.354
82.739	15.860	1007.257	762.827
83.753	16.021	1006.412	762.849
84.768	16.315	1005.046	763.078
85.782	16.309	1004.985	762.935
86.797	16.211	1003.902	761.604
87.812	16.058	1002.809	760.018
88.826	16.217	1001.968	760.030
89.841	16.272	1000.813	759.330
90.855	16.288	1000.478	759.081
91.870	16.382	999.398	758.618
92.884	16.387	998.183	757.653
93.899	16.232	997.706	756.527
94.914	16.290	997.235	756.364
95.928	16.346	996.167	755.736
96.943	16.201	995.015	754.149
97.957	16.080	994.881	753.439
98.972	16.274	993.151	752.929
99.987	16.208	992.533	752.098
101.001	16.193	992.212	751.720
102.016	16.214	990.602	750.531
103.030	16.342	989.787	750.415
104.045	16.228	989.613	749.712
105.060	16.247	988.452	748.846
106.074	15.912	987.712	746.735
107.089	15.826	986.397	745.295
108.103	15.867	985.367	744.633
109.118	15.826	984.978	744.090
110.133	15.735	983.737	742.685
111.147	15.827	982.826	742.335
112.162	15.848	982.192	741.884
113.176	15.977	981.288	741.707
114.191	15.971	980.702	741.171
115.206	15.943	979.959	740.419
116.220	15.945	978.902	739.565
117.235	15.991	978.125	739.115
118.249	15.899	977.334	738.048
119.264	15.832	976.805	737.292
120.279	15.816	975.628	736.266
121.293	15.735	974.739	735.176
122.308	15.712	973.862	734.350
123.322	15.680	973.080	733.553
124.337	15.813	971.814	733.113
125.352	15.790	970.699	732.108
126.366	15.747	969.612	731.039
127.381	15.832	968.622	730.596
128.395	15.773	967.864	729.701
129.410	15.736	967.285	729.041
130.424	15.901	966.076	728.781
131.439	15.841	965.745	728.205
132.454	15.898	964.495	727.447
133.468	16.027	963.762	727.383
134.483	16.022	963.079	726.782
135.497	15.960	962.266	725.840
136.512	15.852	961.868	725.008
137.527	15.988	960.254	724.311
138.541	16.095	959.635	724.241
139.556	15.980	959.183	723.342
140.570	16.072	958.780	723.372
141.585	16.327	957.628	723.529
142.600	16.190	957.468	722.757
143.614	16.343	956.097	722.315
144.629	16.275	955.827	721.755
145.643	16.330	954.229	720.717
146.658	16.308	953.062	719.682
147.673	16.054	952.772	718.315
148.687	16.091	951.852	717.717
149.702	15.988	951.361	716.845
150.716	16.034	950.273	716.157
151.731	16.079	949.185	715.462
152.746	16.015	948.871	714.892
153.760	16.155	948.007	714.769
154.775	16.173	947.742	714.583
155.789	16.272	946.922	714.322
156.804	16.207	946.346	713.551
157.819	16.354	945.613	713.552
158.833	16.371	945.019	713.113
159.848	16.514	943.993	712.879
160.862	16.436	942.857	711.630
161.877	16.390	941.682	710.488
162.892	16.252	940.488	708.945
163.906	16.299	939.490	708.325
164.921	16.138	939.026	707.239
165.935	16.063	938.391	706.383
166.950	16.284	937.808	706.810
167.964	16.372	936.710	706.285
168.979	16.093	935.806	704.376
169.994	16.407	934.588	704.708
171.008	16.234	934.152	703.594
172.023	16.298	933.773	703.513
173.037	16.413	932.863	703.246
174.052	16.385	932.073	702.472
175.067	16.093	932.054	701.180
176.081	16.279	930.896	701.019
177.096	16.173	930.469	700.194
178.110	16.251	929.849	699.991
179.125	16.156	929.475	699.252
180.140	16.117	929.260	698.869
181.154	16.421	928.285	699.330
182.169	16.559	928.072	699.678
183.183	16.623	927.180	699.208
184.198	16.618	926.214	698.399
185.213	16.567	925.869	697.867
186.227	16.469	925.288	696.965
187.242	16.592	924.921	697.131
188.256	16.737	923.762	696.791
189.271	16.651	923.262	696.001
190.286	16.451	922.279	694.376
191.300	16.139	921.447	692.407
192.315	16.215	920.303	691.798
193.329	16.260	920.086	691.760
194.344	16.354	919.769	691.844
195.359	16.374	918.941	691.240
196.373	16.504	918.658	691.500
197.388	16.536	918.266	691.275
198.402	16.712	917.958	691.700
199.417	16.828	917.230	691.565
200.432	16.889	916.479	691.184
201.446	16.972	916.298	691.324
202.461	17.040	915.765	691.140
203.475	16.911	915.067	690.027
204.490	16.764	913.876	688.469
205.504	16.733	913.235	687.800
206.519	16.779	912.426	687.314
207.534	16.702	911.683	686.382
208.548	16.761	911.199	686.196
209.563	16.679	910.589	685.347
210.577	16.822	909.903	685.345
211.592	16.964	909.487	685.545
212.607	16.960	908.665	684.851
213.621	17.006	907.718	684.262
214.636	16.844	907.140	683.111
215.650	16.847	906.705	682.735
216.665	17.073	906.109	683.138
217.680	17.036	905.185	682.232
218.694	17.091	904.550	681.914
219.709	17.022	904.258	681.354
220.723	17.097	903.348	680.909
221.738	17.049	902.756	680.213
222.753	17.054	901.944	679.561
223.767	17.051	901.557	679.195
224.782	17.237	900.667	679.210
225.796	17.353	900.280	679.319
226.811	17.166	899.660	678.046
227.826	17.086	898.937	677.122
228.840	17.046	898.037	676.224
229.855	16.932	897.261	675.126
230.869	17.048	896.526	674.976
231.884	17.088	895.689	674.444
232.899	17.008	895.159	673.669
233.913	16.921	894.549	672.804
234.928	17.063	893.657	672.636
235.942	16.922	893.162	671.646
236.957	16.947	892.572	671.243
237.972	16.842	892.142	670.443
238.986	16.932	891.306	670.114
240.001	16.880	890.916	669.553
241.015	17.167	890.036	669.967
242.030	17.150	889.573	669.490
243.045	17.156	889.166	669.148
244.059	17.200	888.321	668.628
245.074	17.103	887.938	667.897
246.088	17.227	887.068	667.671
247.103	17.309	886.757	667.702
248.117	17.406	886.301	667.679
249.132	17.640	885.694	668.079
250.147	17.661	885.230	667.753
251.161	17.648	884.564	667.142
252.176	17.710	884.112	666.985
253.190	17.757	883.319	666.510
254.205	17.829	882.911	666.425
255.220	17.889	882.244	666.095
256.234	17.804	881.586	665.210
257.249	17.756	880.872	664.423
258.263	17.764	879.880	663.648
259.278	17.790	879.233	663.202
260.293	17.859	878.885	663.150
261.307	17.905	878.355	662.868
262.322	17.909	877.860	662.453
263.336	17.990	877.108	662.142
264.351	17.935	876.359	661.304
265.366	17.976	876.003	661.134
266.380	17.945	875.138	660.305
267.395	17.829	874.472	659.295
268.409	17.879	873.506	658.702
269.424	17.800	872.999	657.956
270.439	17.807	871.996	657.171
271.453	17.619	871.531	656.036
272.468	17.727	871.169	656.120
273.482	17.779	870.471	655.738
274.497	17.816	870.054	655.506
275.512	17.741	869.357	654.637
276.526	17.760	869.062	654.429
277.541	17.898	868.282	654.314
278.555	18.035	867.800	654.416
279.570	18.111	867.358	654.315
280.585	18.165	866.032	653.464
281.599	18.021	865.311	652.313
282.614	17.895	865.074	651.595
283.628	18.012	864.005	651.181
284.643	18.071	864.096	651.413
285.657	18.063	863.079	650.562
286.672	18.071	862.638	650.202
287.687	18.029	861.982	649.488
288.701	18.005	861.409	648.910
289.716	18.191	860.677	649.004
290.730	18.129	860.353	648.468
291.745	18.020	860.055	647.774
292.760	18.049	859.774	647.613
293.774	18.291	858.981	647.874
294.789	18.151	858.057	646.592
295.803	18.156	856.859	645.650
296.818	18.095	856.390	645.010
297.833	18.121	855.926	644.703
298.847	18.044	855.523	644.051
299.862	18.163	854.818	643.912
300.876	18.206	854.504	643.780
301.891	18.340	853.835	643.721
302.906	18.447	853.339	643.693
303.920	18.585	852.674	643.654
304.935	18.458	852.224	642.781
305.949	18.368	851.680	641.976
306.964	18.478	850.961	641.789
307.979	18.338	850.392	640.781
308.993	18.541	849.722	640.977
310.008	18.491	849.129	640.287
311.022	18.480	848.328	639.586
312.037	18.404	847.742	638.803
313.052	18.183	847.125	637.458
314.066	18.284	846.320	637.173
315.081	18.256	845.717	636.558
316.095	18.080	845.554	635.724
317.110	18.228	844.792	635.645
318.125	18.278	844.509	635.559
319.139	18.312	843.763	635.067
320.154	18.333	843.624	634.986
321.168	18.303	843.014	634.358
322.183	18.437	842.119	634.127
323.197	18.325	841.768	633.391
324.212	18.415	841.494	633.461
325.227	18.412	840.514	632.657
326.241	18.408	839.885	632.113
327.256	18.332	839.481	631.471
328.270	18.434	839.189	631.573
329.285	18.345	838.446	630.631
330.300	18.346	837.749	630.053
331.314	18.339	837.424	629.727
332.329	18.530	837.170	630.181
333.343	18.577	836.739	629.975
334.358	18.635	835.916	629.514
335.373	18.678	835.688	629.444
336.387	18.690	835.446	629.251
337.402	18.689	835.641	629.338
338.416	18.744	834.871	628.902
339.431	18.866	834.592	629.084
340.446	18.813	834.355	628.656
341.460	18.861	833.952	628.470
342.475	19.024	833.081	628.355
343.489	18.942	832.750	627.748
344.504	19.005	832.262	627.555
345.519	18.951	832.024	627.125
346.533	19.025	831.170	626.693
347.548	18.850	831.006	625.879
348.562	18.786	830.497	625.209
349.577	18.821	829.621	624.619
350.592	18.751	828.940	623.797
351.606	18.701	828.259	623.047
352.621	18.838	827.597	622.993
353.635	18.895	827.059	622.739
354.650	18.917	826.304	622.194
355.665	18.887	825.834	621.678
356.679	18.989	825.188	621.504
357.694	19.072	824.488	621.221
358.708	18.915	823.940	620.187
359.723	18.884	823.524	619.707
360.738	18.923	822.878	619.307
361.752	19.074	822.314	619.372
362.767	19.256	821.782	619.569
363.781	19.105	821.491	618.754
364.796	19.417	820.799	619.296
365.810	19.415	820.657	619.128
366.825	19.426	820.096	618.691
367.840	19.205	819.889	617.686
368.854	19.296	819.003	617.289
369.869	19.201	818.784	616.730
370.883	19.340	818.175	616.716
371.898	19.236	818.359	616.425
372.913	19.628	817.371	617.027
373.927	19.365	817.154	615.870
374.942	19.410	816.559	615.527
375.956	19.496	816.168	615.485
376.971	19.559	815.742	615.333
377.986	19.544	815.471	615.022
379.000	19.512	814.879	614.408
380.015	19.630	814.221	614.276
381.029	19.642	813.646	613.832
382.044	19.734	813.114	613.702
383.059	19.617	812.671	612.897
384.073	19.375	812.243	611.664
385.088	19.474	810.905	610.952
386.102	19.486	810.699	610.785
387.117	19.535	809.999	610.376
388.132	19.332	809.753	609.420
389.146	19.524	809.244	609.660
390.161	19.582	808.665	609.376
391.175	19.655	808.013	609.090
392.190	19.715	807.338	608.737
393.205	19.480	807.056	607.642
394.219	19.481	806.919	607.488
395.234	19.493	806.442	607.118
396.248	19.379	806.059	606.375
397.263	19.366	805.513	605.866
398.278	19.252	805.291	605.245
399.292	19.301	804.516	604.779
400.307	19.448	804.072	604.910
401.321	19.349	803.744	604.262
402.336	19.358	803.079	603.738
403.350	19.527	803.076	604.275
404.365	19.634	802.527	604.182
405.380	19.776	802.213	604.388
406.394	19.821	801.429	603.903
407.409	19.897	801.077	603.848
408.423	19.935	800.798	603.716
409.438	19.954	800.758	603.702
410.453	19.963	800.377	603.390
411.467	19.871	799.915	602.671
412.482	20.071	799.242	602.804
413.496	20.148	799.109	602.920
414.511	20.146	798.360	602.292
415.526	19.963	798.257	601.525
416.540	19.939	798.100	601.271
417.555	19.978	797.292	600.744
418.569	20.028	796.891	600.563
419.584	20.295	796.222	600.931
420.599	20.087	795.877	599.896
421.613	162.546	1371.514	1797.580
422.628	141.003	1455.398	1797.637
