DTS Sentinel unit serial number:	SN413079Multiplexer serial number:	ORYXHardware model number:	OX4-SRSoftware version number:	ORYX F/W v4.00 Oryx Data Collector v3.7.2.0data status	okinstallation	princeton_trtdifferential loss correction	single-endedforward channel	channel 1reverse channel	N/Adate	2019/09/16time	07:34:35forward acquisition time	60.00reverse acquisition time	0.00gamma	496.2192k internal	0.2329k external	0.2329temperature offset calibration	0.9984default loss term (dB/km)	0.3790temperature slope calibration	1.0000multiplexer offset coefficient	1.0000multiplexer slope coefficient	1.0000fibre end	0.00T internal ref (°C)	27.69T ext. ref 1 (°C)	11.65T ext. ref 2 (°C)	24.20length (m)	temperature (°C)	Stokes	anti-Stokes-747.200	-23.358	0.249	-0.150
-746.185	800.000	-0.132	0.442
-745.171	-152.886	0.297	0.021
-744.156	202.876	-0.188	0.292
-743.142	-200.000	-0.013	0.117
-742.127	205.088	-0.150	0.234
-741.112	-179.092	-0.312	0.007
-740.098	-71.377	-0.065	0.025
-739.083	-58.649	0.138	-0.060
-738.069	261.121	-0.105	-0.183
-737.054	7.440	-0.077	0.058
-736.039	14.263	-0.192	-0.151
-735.025	-200.000	-0.036	0.273
-734.010	-200.000	-0.010	0.145
-732.996	-22.035	-0.210	-0.129
-731.981	-101.307	-0.268	-0.066
-730.966	-200.000	0.023	-0.120
-729.952	575.004	-0.188	0.461
-728.937	80.022	-0.108	0.117
-727.923	-8.801	-0.244	-0.165
-726.908	-84.854	0.180	-0.057
-725.894	362.780	0.069	-0.140
-724.879	800.000	0.051	-0.204
-723.864	34.400	-0.338	-0.297
-722.850	11.637	-0.145	-0.112
-721.835	558.463	0.070	0.171
-720.821	-200.000	0.012	0.184
-719.806	800.000	-0.017	0.071
-718.791	110.646	0.033	0.040
-717.777	-200.000	-0.064	-0.329
-716.762	-76.156	0.197	-0.070
-715.748	-33.765	0.050	0.028
-714.733	206.464	0.174	0.273
-713.718	800.000	0.028	0.102
-712.704	221.017	0.155	-0.250
-711.689	-200.000	0.065	0.336
-710.675	-106.360	0.145	-0.033
-709.660	40.957	-0.159	0.144
-708.645	99.126	0.225	0.262
-707.631	95.275	-0.417	0.477
-706.616	-70.406	0.228	0.087
-705.602	88.009	0.187	-0.209
-704.587	800.000	-0.075	-0.284
-703.572	800.000	-0.079	0.277
-702.558	-68.761	0.341	0.133
-701.543	354.347	-0.052	0.104
-700.529	-145.864	-0.300	0.027
-699.514	371.312	0.120	0.245
-698.499	-93.657	-0.191	0.053
-697.485	-95.608	-0.401	0.108
-696.470	-200.000	0.033	-0.156
-695.456	37.846	0.155	-0.138
-694.441	61.761	0.207	-0.207
-693.426	63.170	-0.251	-0.253
-692.412	-200.000	0.003	0.080
-691.397	448.512	0.163	0.361
-690.383	-161.991	-0.282	0.014
-689.368	-200.000	-0.389	-0.001
-688.354	10.322	-0.204	-0.156
-687.339	68.366	-0.115	-0.119
-686.324	103.718	0.062	-0.073
-685.310	800.000	-0.066	-0.193
-684.295	800.000	-0.067	0.263
-683.281	-200.000	-0.044	-0.238
-682.266	-93.187	0.060	0.017
-681.251	450.693	-0.047	-0.104
-680.237	-200.000	-0.004	-0.163
-679.222	40.469	0.174	-0.157
-678.208	682.097	-0.071	0.186
-677.193	184.777	-0.090	-0.134
-676.178	56.467	0.215	-0.210
-675.164	800.000	-0.017	-0.048
-674.149	-159.256	-0.378	-0.021
-673.135	-200.000	0.001	-0.063
-672.120	427.694	0.104	0.226
-671.105	17.936	0.084	0.067
-670.091	648.063	0.014	0.035
-669.076	-48.871	-0.227	-0.109
-668.062	117.258	0.254	-0.313
-667.047	-28.165	-0.135	-0.078
-666.032	800.000	0.072	0.311
-665.018	-200.000	0.030	0.145
-664.003	-130.910	-0.090	0.012
-662.989	93.572	0.289	-0.329
-661.974	-200.000	-0.019	-0.124
-660.959	-68.367	-0.185	0.072
-659.945	-200.000	-0.032	-0.164
-658.930	-200.000	0.005	-0.290
-657.916	-153.235	-0.405	0.028
-656.901	376.800	0.119	-0.244
-655.886	-171.443	0.366	0.012
-654.872	-99.048	-0.300	-0.076
-653.857	137.598	0.137	0.180
-652.843	83.240	-0.191	0.209
-651.828	-105.813	0.509	-0.115
-650.814	252.712	-0.081	-0.138
-649.799	3.360	-0.188	-0.137
-648.784	-124.312	-0.167	0.026
-647.770	-8.385	0.179	-0.121
-646.755	-191.914	0.309	-0.003
-645.741	-106.117	-0.232	0.052
-644.726	-200.000	0.067	-0.390
-643.711	-200.000	-0.032	0.148
-642.697	620.175	-0.041	0.104
-641.682	84.951	-0.164	-0.180
-640.668	108.270	-0.114	0.136
-639.653	-3.582	-0.233	0.162
-638.638	387.263	-0.086	0.178
-637.624	76.505	-0.160	-0.170
-636.609	-47.046	-0.155	0.076
-635.595	396.116	0.145	-0.303
-634.580	-43.064	-0.188	-0.096
-633.565	316.262	-0.068	0.129
-632.551	-29.626	-0.111	-0.063
-631.536	-151.692	-0.055	0.004
-630.522	18.745	0.210	-0.169
-629.507	67.912	-0.296	0.303
-628.492	-77.091	-0.167	0.058
-627.478	8.993	-0.206	-0.156
-626.463	800.000	0.039	0.147
-625.449	800.000	-0.081	-0.236
-624.434	277.639	-0.134	-0.238
-623.419	-154.322	0.160	-0.011
-622.405	-200.000	0.008	-0.125
-621.390	287.506	-0.082	0.149
-620.376	38.918	-0.099	0.088
-619.361	12.721	0.108	0.083
-618.346	-200.000	0.049	-0.374
-617.332	-135.896	-0.191	0.023
-616.317	-200.000	-0.022	-0.151
-615.303	54.508	-0.075	0.072
-614.288	296.568	0.135	0.249
-613.273	-85.053	0.195	-0.061
-612.259	-173.460	-0.146	0.004
-611.244	-47.541	-0.184	0.089
-610.230	37.802	0.080	-0.071
-609.215	59.558	-0.148	-0.146
-608.201	13.834	0.228	0.177
-607.186	800.000	0.067	0.206
-606.171	800.000	0.055	-0.236
-605.157	-127.184	0.190	-0.028
-604.142	222.592	-0.027	0.043
-603.128	-31.842	0.161	0.091
-602.113	-200.000	-0.011	0.055
-601.098	-200.000	-0.007	-0.143
-600.084	139.361	0.055	-0.072
-599.069	-94.146	0.363	0.100
-598.055	453.677	-0.053	0.117
-597.040	-200.000	0.249	-0.000
-596.025	-146.050	-0.278	-0.025
-595.011	31.249	-0.083	-0.071
-593.996	-7.861	-0.106	0.072
-592.982	-76.728	-0.243	0.085
-591.967	37.746	0.257	0.229
-590.952	-88.787	-0.325	-0.097
-589.938	-52.490	-0.169	-0.078
-588.923	173.051	0.103	-0.148
-587.909	67.236	-0.129	-0.132
-586.894	-162.375	0.193	-0.010
-585.879	-200.000	0.022	-0.306
-584.865	175.262	-0.115	0.167
-583.850	0.285	-0.457	0.326
-582.836	-156.729	-0.176	0.011
-581.821	-168.747	-0.288	-0.011
-580.806	224.595	0.060	0.098
-579.792	-157.803	0.183	-0.011
-578.777	-200.000	0.022	0.138
-577.763	-200.000	0.041	0.248
-576.748	-177.967	-0.259	-0.006
-575.733	-8.826	-0.153	0.103
-574.719	59.121	0.192	0.189
-573.704	21.481	-0.106	0.087
-572.690	-87.364	-0.329	0.100
-571.675	140.758	0.017	0.023
-570.661	-22.044	-0.110	0.067
-569.646	152.353	0.288	0.393
-568.631	-106.755	-0.336	0.075
-567.617	84.383	0.018	-0.020
-566.602	52.327	-0.053	0.050
-565.588	-45.736	-0.127	-0.063
-564.573	-126.592	-0.077	0.011
-563.558	-49.402	-0.074	0.035
-562.544	800.000	0.116	-0.366
-561.529	6.494	0.205	0.152
-560.515	97.520	-0.100	-0.115
-559.500	-200.000	0.003	-0.193
-558.485	302.300	0.051	0.093
-557.471	-200.000	-0.010	0.369
-556.456	700.716	0.016	-0.043
-555.442	93.575	0.064	0.072
-554.427	278.242	-0.143	0.255
-553.412	93.616	-0.116	-0.131
-552.398	-116.431	0.332	0.061
-551.383	-200.000	-0.000	0.031
-550.369	48.354	0.298	0.278
-549.354	-200.000	-0.038	0.311
-548.339	-58.149	-0.164	-0.072
-547.325	-200.000	-0.042	-0.225
-546.310	23.764	-0.304	0.250
-545.296	316.568	-0.112	-0.212
-544.281	15.057	0.082	-0.065
-543.266	-24.151	0.128	-0.076
-542.252	800.000	0.025	0.101
-541.237	-101.984	0.107	-0.026
-540.223	800.000	-0.169	-0.632
-539.208	100.730	-0.125	-0.146
-538.193	-200.000	0.077	0.396
-537.179	298.853	-0.057	0.104
-536.164	49.466	0.173	-0.163
-535.150	-87.065	-0.277	0.084
-534.135	23.585	0.081	-0.066
-533.121	61.280	-0.197	-0.195
-532.106	36.967	0.229	-0.202
-531.091	-53.678	0.077	-0.035
-530.077	534.348	0.151	-0.357
-529.062	800.000	-0.080	0.235
-528.048	61.604	0.164	0.163
-527.033	-109.183	-0.067	-0.014
-526.018	-200.000	-0.028	-0.226
-525.004	-3.719	0.235	-0.163
-523.989	-85.956	0.157	-0.048
-522.975	800.000	0.059	-0.233
-521.960	-7.577	-0.221	-0.149
-520.945	-5.349	-0.180	0.123
-519.931	-169.227	0.216	-0.008
-518.916	308.744	-0.137	0.255
-517.902	-40.796	-0.022	0.011
-516.887	665.518	-0.019	0.050
-515.872	-32.298	-0.207	0.116
-514.858	65.137	0.321	0.323
-513.843	-123.064	-0.173	0.028
-512.829	-200.000	0.018	0.108
-511.814	-142.593	-0.215	-0.021
-510.799	229.080	0.111	-0.181
-509.785	-161.772	0.084	-0.004
-508.770	32.077	-0.105	-0.090
-507.756	43.006	-0.162	-0.147
-506.741	138.465	0.167	-0.219
-505.726	-200.000	-0.021	-0.108
-504.712	403.528	-0.111	-0.234
-503.697	-116.811	0.134	0.025
-502.683	19.331	-0.125	0.100
-501.668	-82.052	-0.352	-0.115
-500.653	-103.938	0.496	-0.115
-499.639	-90.046	-0.122	0.035
-498.624	-49.185	-0.207	-0.098
-497.610	-200.000	0.102	-0.459
-496.595	800.000	-0.015	0.047
-495.581	272.863	-0.048	-0.084
-494.566	-131.897	0.211	0.027
-493.551	78.682	-0.131	0.140
-492.537	481.554	-0.047	0.106
-491.522	-200.000	-0.010	0.089
-490.508	215.769	0.112	0.177
-489.493	-4.376	0.204	0.141
-488.478	-92.680	0.299	0.084
-487.464	-200.000	-0.085	-0.415
-486.449	369.238	-0.074	-0.150
-485.435	23.501	-0.083	0.068
-484.420	587.344	-0.029	0.070
-483.405	-87.837	-0.231	0.069
-482.391	-86.234	0.226	-0.070
-481.376	-126.356	0.144	0.021
-480.362	-74.207	0.267	-0.096
-479.347	-200.000	0.030	-0.205
-478.332	211.444	-0.041	0.064
-477.318	-46.326	0.136	0.067
-476.303	3.510	-0.242	-0.176
-475.289	-200.000	-0.045	-0.247
-474.274	172.362	0.055	0.078
-473.259	-139.910	0.209	0.022
-472.245	33.041	-0.201	0.173
-471.230	-77.534	0.198	-0.068
-470.216	10.257	-0.328	-0.249
-469.201	411.967	-0.109	-0.231
-468.186	18.765	-0.140	-0.112
-467.172	800.000	0.061	0.181
-466.157	251.828	0.090	0.153
-465.143	24.517	0.147	-0.122
-464.128	-2.477	0.124	0.087
-463.113	-129.851	-0.367	0.050
-462.099	-32.754	0.122	0.068
-461.084	-132.170	-0.380	-0.049
-460.070	143.078	-0.208	-0.275
-459.055	521.784	0.112	-0.262
-458.040	-72.960	0.241	0.088
-457.026	247.735	0.122	0.206
-456.011	66.359	-0.031	0.032
-454.997	-200.000	-0.097	0.518
-453.982	-108.977	-0.102	-0.022
-452.968	-107.854	-0.230	0.050
-451.953	348.995	0.213	-0.419
-450.938	410.775	0.155	-0.328
-449.924	93.229	0.143	-0.161
-448.909	-7.827	0.210	-0.141
-447.895	-102.647	-0.100	0.024
-446.880	-2.881	0.166	0.115
-445.865	53.030	-0.086	0.082
-444.851	-175.633	0.499	0.013
-443.836	800.000	-0.039	-0.154
-442.822	800.000	-0.106	-0.350
-441.807	-200.000	0.018	0.283
-440.792	-115.500	0.399	0.075
-439.778	12.732	-0.124	0.095
-438.763	105.869	-0.079	-0.093
-437.749	103.902	0.068	0.080
-436.734	2.639	0.091	-0.066
-435.719	800.000	-0.020	0.074
-434.705	-33.356	0.157	0.086
-433.690	-33.602	0.443	0.244
-432.676	-200.000	0.027	-0.233
-431.661	-30.624	0.099	0.056
-430.646	-14.265	0.170	0.109
-429.632	-200.000	-0.005	0.025
-428.617	602.571	0.082	0.204
-427.603	-149.991	-0.146	-0.011
-426.588	-7.333	0.113	0.076
-425.573	-200.000	-0.008	0.071
-424.559	-59.472	-0.310	0.133
-423.544	252.616	0.268	0.454
-422.530	662.746	-0.080	0.204
-421.515	114.228	0.185	-0.224
-420.500	-101.059	0.100	0.024
-419.486	-135.889	0.250	0.029
-418.471	-163.560	-0.187	0.009
-417.457	463.904	0.159	-0.353
-416.442	89.710	-0.238	-0.264
-415.428	-55.430	0.147	-0.066
-414.413	42.151	0.099	0.090
-413.398	25.072	-0.137	0.113
-412.384	-125.994	0.340	0.051
-411.369	-200.000	-0.011	0.061
-410.355	-56.454	-0.180	0.079
-409.340	800.000	-0.055	0.154
-408.325	0.614	-0.246	0.175
-407.311	-7.603	-0.204	-0.137
-406.296	-200.000	-0.017	-0.171
-405.282	800.000	0.048	0.140
-404.267	-34.055	0.170	0.093
-403.252	82.588	-0.199	-0.214
-402.238	-200.000	-0.004	-0.066
-401.223	-76.665	0.224	0.078
-400.209	69.462	-0.121	0.123
-399.194	-186.388	0.284	-0.004
-398.179	-43.724	0.173	0.087
-397.165	-29.652	0.107	-0.061
-396.150	-100.123	0.110	-0.027
-395.136	800.000	0.099	0.367
-394.121	-60.846	-0.406	-0.171
-393.106	203.157	-0.035	0.053
-392.092	-200.000	-0.011	0.124
-391.077	166.777	0.094	-0.133
-390.063	-60.589	0.098	-0.042
-389.048	-200.000	0.133	0.000
-388.033	-61.229	0.132	0.055
-387.019	3.396	0.073	-0.053
-386.004	240.564	0.140	0.231
-384.990	291.463	0.131	-0.237
-383.975	800.000	-0.044	-0.138
-382.960	302.902	-0.191	-0.352
-381.946	800.000	-0.059	0.219
-380.931	-200.000	-0.023	-0.219
-379.917	-178.019	-0.191	0.005
-378.902	800.000	0.105	-0.393
-377.888	800.000	0.063	-0.236
-376.873	-155.956	0.349	-0.022
-375.858	-17.375	-0.202	0.127
-374.844	-2.526	-0.070	0.049
-373.829	-84.320	-0.240	-0.075
-372.815	46.456	0.104	-0.096
-371.800	-141.117	0.233	0.024
-370.785	170.039	-0.087	0.123
-369.771	-200.000	-0.033	0.244
-368.756	800.000	-0.074	-0.205
-367.742	800.000	0.044	0.181
-366.727	171.773	-0.070	0.100
-365.712	-65.458	-0.292	0.116
-364.698	-69.160	0.118	0.045
-363.683	156.881	-0.159	-0.218
-362.669	-200.000	-0.014	-0.255
-361.654	244.598	0.128	-0.213
-360.639	308.041	-0.106	-0.196
-359.625	-54.752	0.179	-0.080
-358.610	-86.517	0.102	0.031
-357.596	31.311	-0.170	-0.145
-356.581	-7.838	-0.305	0.205
-355.566	328.453	-0.081	-0.154
-354.552	-200.000	-0.006	0.182
-353.537	800.000	-0.051	-0.178
-352.523	68.363	0.063	0.064
-351.508	-39.844	-0.229	-0.118
-350.493	86.620	0.208	-0.227
-349.479	-164.242	0.047	0.002
-348.464	23.468	-0.188	0.153
-347.450	800.000	0.069	0.220
-346.435	800.000	0.065	-0.223
-345.420	-200.000	0.025	-0.139
-344.406	-74.835	-0.257	-0.091
-343.391	334.742	-0.052	-0.100
-342.377	-148.040	0.221	0.018
-341.362	-200.000	0.035	0.220
-340.348	800.000	-0.068	0.243
-339.333	-123.692	0.067	0.010
-338.318	-81.562	0.309	-0.101
-337.304	-33.054	-0.297	-0.163
-336.289	303.694	0.135	-0.249
-335.275	258.968	-0.074	0.127
-334.260	77.155	-0.185	0.195
-333.245	-25.160	-0.164	-0.096
-332.231	-24.661	0.236	-0.139
-331.216	206.084	0.197	0.304
-330.202	-130.555	0.116	-0.015
-329.187	-178.098	0.186	0.004
-328.172	-146.819	-0.230	-0.020
-327.158	337.610	0.207	0.398
-326.143	73.964	-0.205	0.213
-325.129	368.052	0.137	-0.274
-324.114	800.000	-0.027	-0.075
-323.099	-19.060	0.164	-0.101
-322.085	699.728	0.113	-0.294
-321.070	-190.215	-0.222	0.002
-320.056	-63.454	0.226	0.092
-319.041	-81.096	0.204	-0.067
-318.026	-110.877	0.240	0.049
-317.012	-200.000	-0.006	0.105
-315.997	-107.139	0.238	-0.052
-314.983	-200.000	0.014	0.277
-313.968	800.000	-0.047	0.154
-312.953	-55.711	0.081	-0.036
-311.939	-56.550	-0.274	0.120
-310.924	522.116	0.047	-0.110
-309.910	392.333	-0.089	-0.183
-308.895	-200.000	0.019	-0.177
-307.880	-200.000	0.099	-0.551
-306.866	-200.000	0.031	-0.204
-305.851	-200.000	0.008	0.071
-304.837	193.658	-0.061	0.091
-303.822	800.000	0.085	-0.251
-302.807	-67.155	-0.194	-0.076
-301.793	-94.246	0.249	-0.067
-300.778	-200.000	-0.016	-0.169
-299.764	-126.643	0.129	0.019
-298.749	112.688	0.149	0.179
-297.735	47.405	0.260	0.240
-296.720	-23.942	0.134	0.079
-295.705	0.605	-0.130	-0.092
-294.691	-151.264	0.298	0.022
-293.676	628.215	-0.090	0.224
-292.662	-181.721	0.245	0.005
-291.647	-52.363	-0.150	-0.069
-290.632	-106.124	0.107	-0.024
-289.618	-71.484	-0.093	0.034
-288.603	382.148	-0.050	-0.103
-287.589	180.231	0.127	-0.184
-286.574	-65.354	-0.110	0.044
-285.559	-117.293	-0.281	-0.051
-284.545	-117.309	-0.260	-0.047
-283.530	186.700	-0.109	0.160
-282.516	-34.405	-0.141	0.076
-281.501	155.528	-0.106	0.144
-280.486	-25.075	0.221	-0.130
-279.472	15.791	-0.263	0.204
-278.457	41.784	0.081	-0.073
-277.443	-50.357	0.188	-0.088
-276.428	714.815	0.057	0.149
-275.413	59.118	-0.241	0.234
-274.399	136.461	0.223	0.288
-273.384	155.060	-0.165	0.225
-272.370	-185.016	-0.350	-0.005
-271.355	177.322	-0.148	-0.213
-270.340	800.000	0.065	-0.234
-269.326	-200.000	0.028	-0.260
-268.311	318.060	-0.028	0.052
-267.297	800.000	0.085	-0.284
-266.282	-182.047	0.108	-0.002
-265.267	86.867	-0.158	0.173
-264.253	-200.000	-0.000	-0.196
-263.238	615.658	-0.144	0.356
-262.224	800.000	-0.134	0.430
-261.209	-192.394	0.117	-0.001
-260.195	-200.000	-0.006	0.251
-259.180	-33.124	-0.058	-0.032
-258.165	-121.673	-0.113	-0.019
-257.151	-11.473	-0.126	-0.082
-256.136	-114.770	-0.070	0.013
-255.122	-200.000	-0.008	0.428
-254.107	-6.709	-0.112	0.075
-253.092	83.186	-0.111	0.119
-252.078	-200.000	-0.024	-0.164
-251.063	2.910	0.302	0.216
-250.049	205.227	0.051	-0.078
-249.034	59.216	-0.149	0.145
-248.019	265.754	-0.012	0.020
-247.005	-200.000	0.066	-0.310
-245.990	-35.564	-0.217	-0.116
-244.976	-97.409	0.153	0.039
-243.961	90.552	0.086	0.095
-242.946	-200.000	0.019	0.106
-241.932	-200.000	-0.000	-0.401
-240.917	-134.089	0.146	0.018
-239.903	-200.000	-0.018	-0.180
-238.888	34.677	-0.148	0.128
-237.873	35.429	-0.141	-0.122
-236.859	-142.630	-0.368	0.036
-235.844	800.000	0.047	0.158
-234.830	800.000	-0.111	-0.434
-233.815	-27.321	0.162	0.093
-232.800	427.631	0.085	0.182
-231.786	-173.791	0.316	0.009
-230.771	-54.115	0.103	-0.046
-229.757	-100.002	0.096	0.024
-228.742	-16.300	0.129	-0.081
-227.727	34.450	0.238	0.205
-226.713	46.201	-0.145	0.132
-225.698	-200.000	-0.007	0.248
-224.684	-98.560	-0.419	0.106
-223.669	538.268	0.055	-0.129
-222.655	800.000	0.056	0.239
-221.640	49.960	0.172	0.160
-220.625	-117.569	-0.134	0.024
-219.611	800.000	0.096	0.374
-218.596	528.056	-0.084	-0.195
-217.582	203.879	0.019	0.028
-216.567	-89.416	-0.131	0.038
-215.552	231.042	0.151	-0.243
-214.538	-28.003	-0.182	-0.104
-213.523	-200.000	-0.007	-0.540
-212.509	-200.000	0.002	0.157
-211.494	-200.000	-0.010	-0.193
-210.479	91.919	-0.187	0.207
-209.465	705.233	0.065	0.169
-208.450	-84.140	0.329	-0.103
-207.436	-55.463	-0.069	0.031
-206.421	280.906	0.063	-0.112
-205.406	98.424	-0.295	-0.335
-204.392	77.443	0.183	-0.192
-203.377	-200.000	-0.053	-0.310
-202.363	-34.171	-0.246	0.133
-201.348	-200.000	0.014	0.301
-200.333	-152.596	-0.126	0.009
-199.319	327.028	0.072	0.135
-198.304	172.589	-0.055	-0.078
-197.290	46.857	-0.359	0.328
-196.275	-113.871	0.128	-0.025
-195.260	36.834	-0.217	0.189
-194.246	-63.538	-0.443	0.179
-193.231	65.123	0.101	-0.100
-192.217	-54.402	-0.089	-0.040
-191.202	-200.000	-0.020	-0.191
-190.187	-200.000	0.023	-0.310
-189.173	800.000	-0.097	0.278
-188.158	-139.506	0.167	-0.018
-187.144	196.381	-0.236	-0.354
-186.129	218.487	0.208	-0.327
-185.114	-150.045	0.287	0.022
-184.100	0.645	0.164	-0.115
-183.085	47.163	0.399	0.366
-182.071	-53.690	0.202	0.091
-181.056	-87.596	-0.211	-0.063
-180.042	-174.300	0.134	0.004
-179.027	800.000	-0.078	0.247
-178.012	-23.439	0.375	0.222
-176.998	-86.532	0.063	-0.019
-175.983	70.448	-0.126	0.128
-174.969	-53.205	0.399	0.180
-173.954	-166.877	-0.284	-0.011
-172.939	-52.680	0.384	0.175
-171.925	800.000	0.007	-0.028
-170.910	-30.012	0.161	0.090
-169.896	45.337	0.119	0.108
-168.881	38.237	0.087	0.076
-167.866	87.453	-0.012	-0.013
-166.852	-88.819	-0.190	-0.056
-165.837	82.850	-0.287	-0.307
-164.823	-200.000	-0.035	0.215
-163.808	-18.555	0.199	0.122
-162.793	100.132	0.284	0.324
-161.779	-148.650	0.140	-0.011
-160.764	-200.000	-0.022	-0.266
-159.750	-200.000	-0.043	0.325
-158.735	-102.772	-0.031	0.007
-157.720	-161.653	-0.025	-0.001
-156.706	-74.633	-0.162	-0.057
-155.691	-134.548	-0.323	0.039
-154.677	-50.553	0.179	0.083
-153.662	13.204	0.246	0.188
-152.647	259.296	-0.073	-0.124
-151.633	-200.000	-0.011	0.070
-150.618	800.000	-0.045	-0.122
-149.604	24.414	-0.098	0.079
-148.589	137.720	0.148	-0.191
-147.574	-124.259	-0.219	-0.034
-146.560	243.560	0.043	0.070
-145.545	116.054	-0.207	0.250
-144.531	-99.202	0.217	0.054
-143.516	-100.111	0.137	-0.033
-142.502	543.520	0.192	0.450
-141.487	366.302	-0.146	-0.290
-140.472	-132.853	0.156	-0.020
-139.458	-153.389	0.060	0.004
-138.443	162.154	0.082	0.114
-137.429	314.194	0.096	-0.178
-136.414	-167.501	0.399	-0.016
-135.399	-200.000	-0.019	0.251
-134.385	13.348	-0.319	-0.243
-133.370	-200.000	-0.018	0.086
-132.356	-200.000	0.002	-0.053
-131.341	80.629	0.249	0.263
-130.326	130.252	0.106	0.134
-129.312	475.492	-0.168	-0.374
-128.297	207.601	-0.163	-0.251
-127.283	800.000	0.036	-0.134
-126.268	-39.730	0.071	0.037
-125.253	-200.000	-0.014	0.254
-124.239	58.409	0.266	0.256
-123.224	800.000	0.044	0.164
-122.210	177.206	0.166	0.237
-121.195	800.000	0.040	-0.169
-120.180	37.385	0.312	-0.272
-119.166	22.398	-0.162	0.130
-118.151	15.337	0.065	0.050
-117.137	-59.296	0.119	-0.050
-116.122	15.516	-0.299	-0.231
-115.107	-7.957	0.381	0.252
-114.093	-9.934	0.271	-0.177
-113.078	-200.000	-0.026	-0.187
-112.064	260.712	-0.112	-0.190
-111.049	800.000	-0.056	0.237
-110.034	561.588	0.020	0.048
-109.020	-48.372	-0.185	-0.088
-108.005	62.292	0.228	0.224
-106.991	-41.625	-0.189	0.096
-105.976	-53.558	-0.270	-0.121
-104.962	-200.000	-0.009	0.184
-103.947	217.570	0.107	0.168
-102.932	161.297	-0.270	0.371
-101.918	-21.605	-0.267	0.160
-100.903	-74.676	0.225	0.080
-99.889	-111.528	-0.065	-0.013
-98.874	-28.769	-0.108	-0.061
-97.859	101.804	-0.206	-0.236
-96.845	510.205	-0.046	0.106
-95.830	313.403	0.104	0.191
-94.816	85.205	-0.248	-0.267
-93.801	287.393	-0.091	-0.161
-92.786	509.521	0.079	0.179
-91.772	62.792	0.163	-0.160
-90.757	-200.000	0.002	0.141
-89.743	-20.503	0.332	-0.201
-88.728	-120.085	0.292	0.049
-87.713	164.061	-0.080	0.110
-86.699	-71.777	-0.188	0.069
-85.684	-85.607	0.119	0.036
-84.670	542.671	-0.103	-0.241
-83.655	155.119	-0.003	-0.004
-82.640	-200.000	-0.017	0.123
-81.626	160.414	0.115	0.158
-80.611	-200.000	-0.001	0.116
-79.597	-27.772	0.112	0.064
-78.582	-68.269	0.176	0.067
-77.567	800.000	0.027	0.074
-76.553	15.466	-0.290	0.223
-75.538	-88.474	0.079	0.023
-74.524	-79.536	-0.378	0.125
-73.509	342.030	0.124	-0.238
-72.494	-101.517	0.324	-0.077
-71.480	-175.248	0.108	-0.003
-70.465	434.050	-0.156	0.332
-69.451	-124.795	-0.163	0.025
-68.436	-200.000	0.028	-0.349
-67.422	800.000	0.079	0.312
-66.407	243.932	0.175	-0.288
-65.392	-93.563	-0.351	-0.095
-64.378	-200.000	0.006	0.050
-63.363	-62.999	0.031	-0.013
-62.349	-120.521	-0.225	-0.037
-61.334	29.137	-1.178	-0.981
-60.319	38.026	0.673	0.587
-59.305	-200.000	-0.284	-1.348
-58.290	174.062	0.916	1.298
-57.276	274.627	0.751	1.305
-56.261	-200.000	112.165	629.058
-55.246	458.036	1512.274	3295.454
-54.232	145.971	2680.355	3523.784
-53.217	104.247	2160.367	2491.620
-52.203	39.245	1607.827	1410.449
-51.188	30.983	1353.693	1137.315
-50.173	28.083	1315.741	1088.162
-49.159	54.349	1370.659	1293.634
-48.144	53.553	1385.679	1302.938
-47.130	31.278	1341.156	1128.387
-46.115	27.898	1323.627	1093.399
-45.100	27.721	1318.634	1088.174
-44.086	27.616	1316.095	1085.415
-43.071	27.521	1314.188	1083.233
-42.057	27.431	1312.328	1081.119
-41.042	27.490	1310.449	1079.883
-40.027	27.533	1308.887	1078.808
-39.013	27.525	1307.225	1077.346
-37.998	27.502	1305.350	1075.618
-36.984	27.653	1303.534	1074.970
-35.969	27.641	1301.646	1073.304
-34.954	27.806	1299.499	1072.461
-33.940	27.713	1298.208	1070.804
-32.925	27.783	1296.704	1069.935
-31.911	27.737	1295.928	1068.979
-30.896	27.746	1294.437	1067.761
-29.881	27.840	1292.931	1067.023
-28.867	27.885	1291.374	1065.961
-27.852	27.758	1290.098	1064.127
-26.838	27.812	1288.791	1063.318
-25.823	27.760	1287.641	1062.025
-24.809	27.700	1286.780	1060.924
-23.794	27.776	1284.709	1059.617
-22.779	27.855	1283.123	1058.722
-21.765	27.756	1282.101	1057.264
-20.750	27.694	1280.805	1055.796
-19.736	27.604	1279.505	1054.163
-18.721	27.606	1278.400	1053.219
-17.706	27.759	1277.181	1053.059
-16.692	27.785	1275.528	1051.802
-15.677	27.634	1275.030	1050.482
-14.663	27.780	1273.708	1050.189
-13.648	27.634	1272.844	1048.597
-12.633	27.594	1272.149	1047.750
-11.619	27.593	1271.174	1046.899
-10.604	27.617	1269.910	1045.954
-9.590	27.637	1268.831	1045.144
-8.575	27.710	1267.848	1044.707
-7.560	27.576	1267.513	1043.621
-6.546	27.529	1266.744	1042.680
-5.531	27.595	1265.290	1041.821
-4.517	27.708	1264.337	1041.639
-3.502	27.714	1263.705	1041.108
-2.487	27.527	1263.128	1039.527
-1.473	27.668	1258.558	1036.528
-0.458	26.483	1244.474	1018.224
0.556	22.303	1227.736	984.359
1.571	19.035	1234.959	971.641
2.586	18.302	1250.554	979.627
3.600	18.427	1239.319	971.450
4.615	16.732	1173.044	910.316
5.629	13.492	1105.591	841.452
6.644	11.714	1088.852	819.736
7.659	11.601	1086.721	817.494
8.673	11.657	1085.479	816.767
9.688	11.618	1084.074	815.441
10.702	11.831	1082.048	814.908
11.717	13.861	1084.506	826.805
12.731	16.908	1088.084	844.665
13.746	18.113	1089.071	851.357
14.761	17.773	1087.812	848.607
15.775	16.707	1085.690	841.580
16.790	15.756	1083.654	835.212
17.804	14.938	1082.028	829.824
18.819	14.621	1080.746	827.196
19.834	14.207	1079.875	824.409
20.848	14.036	1079.260	823.020
21.863	13.768	1078.100	820.737
22.877	13.684	1077.009	819.415
23.892	13.494	1077.015	818.411
24.907	13.640	1075.798	818.131
25.921	13.528	1075.033	816.928
26.936	13.634	1073.523	816.230
27.950	13.672	1072.404	815.493
28.965	13.733	1070.902	814.580
29.980	13.915	1069.142	814.059
30.994	13.789	1068.110	812.587
32.009	13.896	1066.843	812.072
33.023	13.798	1065.671	810.630
34.038	13.695	1064.947	809.505
35.053	13.822	1064.006	809.339
36.067	13.816	1062.762	808.291
37.082	13.701	1062.195	807.225
38.096	13.735	1061.421	806.733
39.111	13.831	1060.779	806.641
40.126	13.740	1059.329	805.024
41.140	13.650	1057.958	803.475
42.155	13.545	1056.895	802.090
43.169	13.618	1056.154	801.808
44.184	13.570	1054.968	800.605
45.199	13.586	1054.350	800.142
46.213	13.608	1053.139	799.259
47.228	13.676	1051.565	798.323
48.242	13.715	1050.687	797.772
49.257	13.702	1049.870	797.017
50.271	13.617	1048.917	795.817
51.286	13.767	1048.018	795.783
52.301	13.672	1047.193	794.634
53.315	13.582	1045.999	793.225
54.330	13.591	1045.167	792.568
55.344	13.705	1043.836	792.031
56.359	13.518	1043.520	790.829
57.374	13.566	1042.564	790.263
58.388	13.484	1041.647	789.108
59.403	13.555	1040.548	788.544
60.417	13.496	1039.653	787.513
61.432	13.504	1038.893	786.905
62.447	13.469	1038.415	786.307
63.461	13.453	1037.751	785.658
64.476	13.441	1036.778	784.799
65.490	13.427	1036.005	784.078
66.505	13.420	1035.112	783.298
67.520	13.472	1034.445	782.970
68.534	13.490	1033.717	782.436
69.549	13.535	1032.973	782.017
70.563	13.537	1031.766	781.040
71.578	13.303	1031.601	779.742
72.593	13.389	1030.393	779.168
73.607	13.415	1029.251	778.359
74.622	13.395	1029.597	778.457
75.636	13.405	1028.184	777.364
76.651	13.372	1027.630	776.722
77.666	13.437	1026.614	776.192
78.680	13.370	1026.756	775.917
79.695	13.539	1025.683	775.829
80.709	13.487	1025.220	775.167
81.724	13.596	1024.613	775.149
82.739	13.640	1024.047	774.858
83.753	13.735	1022.820	774.305
84.768	13.811	1021.972	773.947
85.782	13.775	1021.418	773.293
86.797	13.863	1020.036	772.587
87.812	13.725	1019.455	771.434
88.826	13.677	1018.519	770.439
89.841	13.723	1017.316	769.670
90.855	13.703	1016.507	768.898
91.870	13.883	1015.435	768.854
92.884	13.813	1014.659	767.873
93.899	13.924	1013.797	767.667
94.914	13.925	1013.123	767.094
95.928	13.821	1012.111	765.781
96.943	13.879	1011.179	765.274
97.957	13.833	1010.430	764.427
98.972	13.768	1009.743	763.539
99.987	13.875	1008.667	763.154
101.001	13.672	1007.966	761.623
102.016	13.717	1006.748	760.841
103.030	13.834	1006.038	760.774
104.045	13.886	1005.194	760.306
105.060	13.706	1004.641	758.997
106.074	13.669	1003.444	757.855
107.089	13.569	1002.426	756.562
108.103	13.575	1001.216	755.609
109.118	13.576	1000.593	755.075
110.133	13.569	999.741	754.334
111.147	13.513	999.196	753.601
112.162	13.604	997.900	752.972
113.176	13.595	997.369	752.465
114.191	13.671	996.219	751.877
115.206	13.701	995.595	751.474
116.220	13.768	994.594	750.955
117.235	13.628	993.541	749.461
118.249	13.650	992.825	748.953
119.264	13.692	992.073	748.508
120.279	13.571	991.559	747.508
121.293	13.647	990.409	746.917
122.308	13.557	989.843	746.019
123.322	13.542	988.908	745.180
124.337	13.542	987.528	744.075
125.352	13.649	986.607	743.798
126.366	13.628	985.413	742.737
127.381	13.641	984.524	742.058
128.395	13.566	983.593	740.957
129.410	13.585	982.817	740.393
130.424	13.665	982.081	740.126
131.439	13.704	981.100	739.495
132.454	13.652	980.625	738.842
133.468	13.721	979.505	738.239
134.483	13.770	978.670	737.765
135.497	13.775	977.820	737.080
136.512	13.816	977.059	736.623
137.527	13.731	976.038	735.412
138.541	13.731	975.706	735.094
139.556	13.736	975.177	734.655
140.570	13.957	973.530	734.327
141.585	13.810	973.134	733.310
142.600	13.870	972.366	732.934
143.614	13.961	971.228	732.413
144.629	13.984	971.005	732.282
145.643	13.939	969.885	731.175
146.658	13.875	968.551	729.823
147.673	13.896	967.884	729.347
148.687	13.717	967.507	728.211
149.702	13.927	966.118	728.023
150.716	13.821	965.255	726.846
151.731	13.782	964.660	726.160
152.746	13.814	964.259	725.933
153.760	13.873	963.356	725.450
154.775	13.817	962.970	724.851
155.789	13.911	962.134	724.565
156.804	13.838	961.571	723.758
157.819	14.061	960.529	723.883
158.833	14.085	960.138	723.630
159.848	14.136	959.012	722.936
160.862	13.983	958.794	722.044
161.877	13.949	957.493	720.854
162.892	13.965	956.003	719.735
163.906	13.795	955.554	718.600
164.921	13.973	954.464	718.485
165.935	14.122	953.465	718.315
166.950	14.045	952.512	717.198
167.964	13.944	952.328	716.561
168.979	13.913	951.059	715.412
169.994	14.036	950.311	715.312
171.008	13.994	949.666	714.582
172.023	14.045	949.407	714.545
173.037	14.121	947.932	713.699
174.052	14.186	947.353	713.475
175.067	14.106	946.713	712.591
176.081	13.972	946.524	711.812
177.096	13.974	945.836	711.240
178.110	13.956	945.408	710.778
179.125	14.030	944.799	710.574
180.140	14.180	943.990	710.541
181.154	14.244	943.740	710.565
182.169	14.130	943.563	709.882
183.183	14.188	943.047	709.679
184.198	14.241	941.678	708.812
185.213	14.279	940.826	708.269
186.227	14.256	940.409	707.793
187.242	14.365	939.693	707.656
188.256	14.254	938.980	706.584
189.271	14.272	938.061	705.905
190.286	14.226	937.203	705.004
191.300	14.090	936.655	703.954
192.315	14.000	936.269	703.221
193.329	14.023	935.831	702.925
194.344	14.177	935.006	702.893
195.359	14.256	934.532	702.812
196.373	14.342	934.069	702.764
197.388	14.341	933.260	702.087
198.402	14.442	932.971	702.233
199.417	14.395	932.197	701.389
200.432	14.483	931.843	701.433
201.446	14.373	931.505	700.654
202.461	14.619	930.535	700.896
203.475	14.679	930.151	700.796
204.490	14.525	928.949	699.181
205.504	14.505	928.424	698.643
206.519	14.458	927.870	697.968
207.534	14.495	926.817	697.267
208.548	14.507	926.442	696.975
209.563	14.444	925.618	696.030
210.577	14.601	925.172	696.286
211.592	14.747	924.334	696.203
212.607	14.764	923.780	695.794
213.621	14.658	923.463	695.054
214.636	14.559	922.453	693.821
215.650	14.812	921.559	694.138
216.665	14.801	920.600	693.309
217.680	14.786	920.032	692.759
218.694	14.794	919.786	692.545
219.709	14.791	918.633	691.600
220.723	14.740	918.569	691.283
221.738	14.807	917.237	690.493
222.753	14.788	916.821	690.044
223.767	14.814	916.119	689.560
224.782	14.756	916.092	689.237
225.796	14.906	914.913	688.910
226.811	14.708	914.846	687.984
227.826	14.820	913.779	687.581
228.840	14.749	913.341	686.898
229.855	14.936	911.929	686.544
230.869	14.910	911.528	686.072
231.884	14.852	910.549	685.039
232.899	14.834	909.907	684.421
233.913	14.793	909.344	683.768
234.928	14.684	908.913	682.940
235.942	14.695	908.448	682.575
236.957	14.715	908.039	682.286
237.972	14.859	907.257	682.225
238.986	14.822	906.567	681.496
240.001	14.831	906.107	681.126
241.015	14.814	905.106	680.246
242.030	14.912	904.441	680.085
243.045	14.962	904.156	680.011
244.059	14.847	903.611	679.076
245.074	14.924	902.839	678.747
246.088	15.017	901.834	678.309
247.103	14.972	901.846	678.075
248.117	15.018	901.094	677.638
249.132	15.174	900.586	677.825
250.147	15.206	900.003	677.458
251.161	15.316	899.089	677.153
252.176	15.316	898.390	676.565
253.190	15.353	897.756	676.178
254.205	15.331	897.227	675.631
255.220	15.429	896.144	675.150
256.234	15.387	896.011	674.822
257.249	15.275	895.416	673.864
258.263	15.352	894.371	673.328
259.278	15.330	893.887	672.814
260.293	15.296	893.631	672.426
261.307	15.553	892.588	672.611
262.322	15.563	892.038	672.178
263.336	15.558	891.048	671.353
264.351	15.571	890.077	670.615
265.366	15.532	889.803	670.193
266.380	15.588	889.599	670.200
267.395	15.532	888.197	668.862
268.409	15.549	887.590	668.415
269.424	15.555	886.959	667.905
270.439	15.585	885.914	667.176
271.453	15.566	885.834	666.983
272.468	15.521	885.540	666.523
273.482	15.434	885.007	665.720
274.497	15.600	884.145	665.670
275.512	15.550	883.573	664.982
276.526	15.654	882.929	664.851
277.541	15.627	882.665	664.485
278.555	15.743	881.766	664.207
279.570	15.785	881.162	663.858
280.585	15.673	880.546	662.893
281.599	15.620	879.676	661.973
282.614	15.610	879.040	661.396
283.628	15.683	877.979	660.828
284.643	15.768	877.949	661.078
285.657	15.802	877.049	660.478
286.672	15.749	876.519	659.812
287.687	15.788	875.492	659.133
288.701	15.891	875.036	659.134
289.716	15.942	874.241	658.674
290.730	15.925	873.569	658.043
291.745	15.889	873.209	657.573
292.760	16.023	872.660	657.625
293.774	15.939	872.331	656.993
294.789	15.930	871.331	656.146
295.803	15.928	870.762	655.654
296.818	15.868	870.281	655.000
297.833	15.779	870.182	654.518
298.847	15.921	869.055	654.165
299.862	15.928	868.907	654.022
300.876	16.045	867.910	653.668
301.891	15.899	867.534	652.763
302.906	16.074	866.816	652.842
303.920	16.193	866.167	652.755
304.935	16.243	865.673	652.517
305.949	16.081	865.313	651.563
306.964	16.162	864.657	651.325
307.979	16.205	863.843	650.821
308.993	16.089	863.331	649.929
310.008	16.218	862.716	649.905
311.022	16.293	861.875	649.502
312.037	16.048	861.696	648.367
313.052	16.305	860.744	648.581
314.066	16.030	860.561	647.333
315.081	16.035	860.154	646.987
316.095	16.117	858.985	646.364
317.110	16.210	858.518	646.310
318.125	16.174	858.037	645.755
319.139	16.280	857.768	645.899
320.154	16.167	857.369	645.112
321.168	16.246	856.399	644.626
322.183	16.166	855.893	643.882
323.197	16.234	855.322	643.656
324.212	16.242	855.086	643.451
325.227	16.308	854.324	643.073
326.241	16.361	853.404	642.526
327.256	16.415	853.214	642.528
328.270	16.246	852.776	641.500
329.285	16.279	851.957	640.956
330.300	16.233	851.692	640.524
331.314	16.317	850.684	640.027
332.329	16.414	850.470	640.175
333.343	16.415	850.232	639.945
334.358	16.274	849.986	639.167
335.373	16.388	849.366	639.079
336.387	16.300	849.091	638.483
337.402	16.505	848.460	638.725
338.416	16.546	848.133	638.577
339.431	16.604	847.821	638.506
340.446	16.656	847.267	638.228
341.460	16.760	846.945	638.317
342.475	16.810	846.719	638.280
343.489	16.789	846.385	637.895
344.504	16.714	845.980	637.250
345.519	16.708	845.421	636.751
346.533	16.719	844.964	636.391
347.548	16.744	844.176	635.834
348.562	16.587	843.744	634.863
349.577	16.529	843.665	634.531
350.592	16.495	842.837	633.725
351.606	16.610	841.822	633.336
352.621	16.759	840.992	633.211
353.635	16.674	840.435	632.417
354.650	16.702	840.071	632.194
355.665	16.772	838.945	631.552
356.679	16.743	838.763	631.251
357.694	16.944	838.133	631.468
358.708	16.678	837.580	630.008
359.723	16.827	836.733	629.866
360.738	16.770	836.412	629.359
361.752	16.847	835.511	628.911
362.767	16.900	834.950	628.630
363.781	16.985	834.330	628.422
364.796	17.080	834.091	628.537
365.810	17.042	833.919	628.211
366.825	17.178	833.061	628.013
367.840	17.071	832.981	627.501
368.854	17.195	832.150	627.277
369.869	17.197	831.447	626.699
370.883	17.090	831.446	626.248
371.898	17.183	831.137	626.303
372.913	17.117	830.919	625.841
373.927	17.153	830.385	625.515
374.942	17.105	829.980	624.978
375.956	17.250	829.083	624.783
376.971	17.383	828.570	624.828
377.986	17.311	828.327	624.325
379.000	17.307	827.967	623.985
380.015	17.372	827.142	623.545
381.029	17.376	826.823	623.265
382.044	17.415	826.243	622.914
383.059	17.394	825.471	622.198
384.073	17.307	825.315	621.711
385.088	17.354	824.318	621.074
386.102	17.438	823.315	620.572
387.117	17.382	823.411	620.385
388.132	17.318	822.628	619.504
389.146	17.412	822.177	619.454
390.161	17.378	821.709	618.922
391.175	17.459	821.284	618.842
392.190	17.538	820.852	618.750
393.205	17.372	820.607	617.905
394.219	17.393	819.876	617.378
395.234	17.425	819.852	617.421
396.248	17.462	819.057	616.904
397.263	17.188	819.047	615.847
398.278	17.331	818.233	615.698
399.292	17.378	818.051	615.676
400.307	17.467	817.595	615.602
401.321	17.539	816.674	615.114
402.336	17.518	816.109	614.557
403.350	17.481	816.224	614.454
404.365	17.407	815.588	613.655
405.380	17.675	814.946	614.083
406.394	17.647	814.290	613.435
407.409	17.710	814.286	613.605
408.423	17.630	814.124	613.141
409.438	17.779	813.309	613.010
410.453	17.796	812.760	612.602
411.467	17.792	812.648	612.447
412.482	17.771	811.946	611.789
413.496	17.936	811.713	612.152
414.511	17.881	811.499	611.739
415.526	17.841	810.984	611.154
416.540	17.717	810.494	610.286
417.555	17.822	810.116	610.321
418.569	17.745	809.701	609.680
419.584	17.857	809.174	609.629
420.599	17.887	808.531	609.200
421.613	111.245	1294.828	1475.958
422.628	96.066	1365.624	1476.071
