DTS Sentinel unit serial number:	SN413079Multiplexer serial number:	ORYXHardware model number:	OX4-SRSoftware version number:	ORYX F/W v4.00 Oryx Data Collector v3.7.2.0data status	okinstallation	princeton_trtdifferential loss correction	single-endedforward channel	channel 1reverse channel	N/Adate	2019/09/18time	09:30:35forward acquisition time	60.00reverse acquisition time	0.00gamma	496.2192k internal	0.2335k external	0.2335temperature offset calibration	0.9967default loss term (dB/km)	0.3790temperature slope calibration	1.0000multiplexer offset coefficient	1.0000multiplexer slope coefficient	1.0000fibre end	0.00T internal ref (°C)	26.37T ext. ref 1 (°C)	0.26T ext. ref 2 (°C)	23.39length (m)	temperature (°C)	Stokes	anti-Stokes-747.200	103.143	-0.136	0.160
-746.185	-200.000	0.020	-0.209
-745.171	-21.813	0.149	-0.091
-744.156	66.723	-0.289	0.295
-743.142	-200.000	-0.025	0.265
-742.127	-200.000	0.033	0.309
-741.112	-131.797	-0.190	0.025
-740.098	113.123	-0.136	0.166
-739.083	-34.166	0.230	0.127
-738.069	800.000	-0.043	-0.182
-737.054	-40.484	0.258	-0.135
-736.039	124.529	-0.168	-0.213
-735.025	26.389	0.296	0.249
-734.010	61.036	0.142	0.141
-732.996	306.458	-0.238	-0.445
-731.981	59.794	-0.212	0.210
-730.966	13.400	0.148	-0.115
-729.952	388.050	-0.094	-0.194
-728.937	45.609	-0.118	0.109
-727.923	313.605	0.086	0.163
-726.908	490.269	0.114	-0.262
-725.894	163.947	0.131	-0.185
-724.879	28.971	-0.283	-0.241
-723.864	42.059	0.135	0.123
-722.850	51.290	0.149	-0.142
-721.835	800.000	-0.014	0.039
-720.821	800.000	-0.073	0.229
-719.806	-200.000	-0.011	0.151
-718.791	-49.705	-0.046	-0.022
-717.777	37.416	-0.183	-0.163
-716.762	-200.000	0.014	0.169
-715.748	-76.529	0.003	-0.001
-714.733	-127.265	-0.170	0.025
-713.718	8.921	-0.463	0.350
-712.704	-48.375	0.179	-0.087
-711.689	-200.000	0.014	0.134
-710.675	93.579	0.167	-0.190
-709.660	98.618	0.130	-0.150
-708.645	7.965	0.282	-0.212
-707.631	-7.276	-0.120	-0.082
-706.616	-89.691	0.301	-0.088
-705.602	-80.928	-0.456	0.152
-704.587	-94.528	-0.276	-0.075
-703.572	181.230	-0.115	0.169
-702.558	-102.646	0.236	-0.057
-701.543	-159.369	0.362	0.020
-700.529	-85.843	0.132	0.041
-699.514	-200.000	-0.025	-0.151
-698.499	412.014	0.050	0.106
-697.485	-20.357	0.244	-0.151
-696.470	800.000	0.059	-0.164
-695.456	-155.383	-0.115	-0.007
-694.441	-200.000	0.021	-0.490
-693.426	95.744	-0.064	-0.073
-692.412	79.811	-0.076	-0.082
-691.397	-200.000	-0.007	-0.123
-690.383	42.802	-0.104	0.095
-689.368	-147.090	-0.215	-0.018
-688.354	-50.682	0.191	0.090
-687.339	53.673	0.120	-0.115
-686.324	609.918	0.085	0.214
-685.310	172.460	-0.041	0.060
-684.295	13.087	-0.330	0.256
-683.281	-3.753	-0.130	-0.090
-682.266	800.000	-0.091	-0.253
-681.251	156.909	0.065	0.090
-680.237	-60.551	0.090	0.038
-679.222	252.775	0.088	0.150
-678.208	-200.000	-0.016	0.357
-677.193	-80.475	-0.309	-0.103
-676.178	180.689	0.069	-0.101
-675.164	78.613	0.229	0.246
-674.149	39.539	-0.186	0.167
-673.135	84.190	0.043	-0.047
-672.120	-200.000	0.037	0.209
-671.105	-12.508	0.148	-0.097
-670.091	29.430	-0.286	-0.244
-669.076	-6.678	0.038	0.026
-668.062	586.697	0.122	-0.301
-667.047	-20.143	0.318	0.196
-666.032	113.700	-0.201	0.245
-665.018	123.805	0.016	0.020
-664.003	-189.319	-0.044	-0.001
-662.989	35.510	-0.028	-0.025
-661.974	-17.791	-0.279	-0.175
-660.959	22.103	0.057	-0.047
-659.945	800.000	0.042	-0.175
-658.930	800.000	-0.076	-0.333
-657.916	534.761	-0.054	0.129
-656.901	-200.000	-0.008	0.037
-655.886	308.878	-0.140	-0.262
-654.872	-96.730	-0.163	0.043
-653.857	-165.703	0.197	-0.009
-652.843	-86.857	0.198	0.060
-651.828	-200.000	0.010	0.323
-650.814	150.693	0.126	-0.172
-649.799	-4.076	-0.213	-0.148
-648.784	-4.858	-0.352	-0.243
-647.770	69.734	-0.171	-0.176
-646.755	145.559	-0.080	-0.107
-645.741	-55.055	-0.238	-0.107
-644.726	-95.046	-0.314	0.085
-643.711	202.546	0.096	0.149
-642.697	-60.452	0.134	-0.057
-641.682	-57.472	0.477	-0.210
-640.668	-56.753	-0.111	0.049
-639.653	-153.095	-0.113	-0.008
-638.638	263.185	-0.105	0.182
-637.624	394.997	-0.106	-0.220
-636.609	248.334	-0.115	-0.195
-635.595	-200.000	-0.010	0.170
-634.580	278.490	-0.171	0.306
-633.565	-75.805	-0.201	-0.071
-632.551	32.503	-0.083	-0.072
-631.536	85.908	0.197	0.217
-630.522	31.927	0.245	-0.211
-629.507	669.908	-0.028	-0.074
-628.492	-200.000	-0.021	0.273
-627.478	-118.803	0.070	0.012
-626.463	-171.676	0.125	0.004
-625.449	-10.421	-0.228	-0.151
-624.434	28.377	-0.135	-0.114
-623.419	18.507	-0.213	0.171
-622.405	800.000	-0.077	0.326
-621.390	427.273	0.127	-0.274
-620.376	-132.558	-0.375	0.048
-619.361	-78.423	-0.347	0.119
-618.346	-93.039	0.064	0.018
-617.332	240.034	-0.147	-0.245
-616.317	-200.000	-0.039	-0.238
-615.303	800.000	-0.075	-0.266
-614.288	800.000	-0.047	-0.165
-613.273	-9.469	-0.037	0.025
-612.259	-200.000	0.090	-0.507
-611.244	99.232	0.194	-0.224
-610.230	36.971	-0.193	-0.171
-609.215	-134.254	0.292	-0.036
-608.201	-200.000	-0.021	-0.104
-607.186	-15.585	0.023	-0.014
-606.171	-15.844	0.369	0.235
-605.157	305.299	0.090	0.168
-604.142	271.690	0.212	0.373
-603.128	-200.000	-0.003	-0.447
-602.113	-75.099	-0.067	-0.024
-601.098	-9.248	0.080	0.053
-600.084	124.283	-0.266	0.334
-599.069	-35.105	0.156	0.085
-598.055	-50.442	-0.169	-0.080
-597.040	155.324	0.041	-0.056
-596.025	-87.091	-0.562	-0.171
-595.011	-78.126	-0.117	-0.040
-593.996	-12.558	0.172	-0.112
-592.982	-200.000	-0.033	0.175
-591.967	-109.530	-0.315	-0.066
-590.952	253.645	-0.173	0.296
-589.938	-200.000	0.011	-0.106
-588.923	-143.796	-0.221	-0.021
-587.909	-200.000	0.210	-0.000
-586.894	27.676	0.357	-0.300
-585.879	-200.000	0.051	-0.259
-584.865	800.000	0.030	-0.106
-583.850	-200.000	0.018	0.101
-582.836	-18.305	-0.168	-0.105
-581.821	-115.915	-0.189	-0.035
-580.806	-173.686	0.211	-0.006
-579.792	302.510	0.124	-0.228
-578.777	-51.316	0.322	-0.150
-577.763	-133.719	0.065	-0.008
-576.748	-200.000	0.009	-0.151
-575.733	-3.902	0.102	-0.071
-574.719	4.808	0.139	0.102
-573.704	377.670	-0.034	0.070
-572.690	800.000	-0.020	-0.082
-571.675	800.000	-0.031	-0.100
-570.661	-49.378	0.074	-0.035
-569.646	-200.000	0.062	0.271
-568.631	-49.926	-0.268	0.127
-567.617	572.587	-0.054	0.131
-566.602	358.870	-0.136	0.272
-565.588	95.936	-0.039	-0.045
-564.573	-89.633	0.192	-0.056
-563.558	112.632	0.077	0.093
-562.544	46.351	-0.110	0.102
-561.529	-200.000	0.132	0.000
-560.515	800.000	0.041	-0.177
-559.500	514.114	0.140	0.326
-558.485	-200.000	-0.009	0.432
-557.471	-200.000	0.016	0.083
-556.456	141.276	0.185	0.243
-555.442	-84.449	-0.157	0.050
-554.427	783.260	-0.131	-0.358
-553.412	-200.000	-0.031	-0.302
-552.398	0.067	-0.203	0.144
-551.383	320.974	-0.134	0.254
-550.369	-78.812	0.369	0.126
-549.354	-133.906	0.212	0.026
-548.339	800.000	-0.060	-0.169
-547.325	-200.000	0.041	0.315
-546.310	259.860	0.045	-0.077
-545.296	-200.000	0.033	-0.280
-544.281	17.673	-0.286	0.227
-543.266	800.000	-0.048	-0.181
-542.252	92.294	0.205	-0.230
-541.237	11.875	0.194	0.148
-540.223	-56.570	-0.322	0.142
-539.208	-143.283	0.200	0.019
-538.193	-65.194	-0.094	0.038
-537.179	19.403	-0.067	0.053
-536.164	454.101	-0.085	0.189
-535.150	-5.746	-0.070	0.048
-534.135	301.284	0.156	-0.288
-533.121	136.494	-0.114	0.149
-532.106	-111.459	-0.210	0.043
-531.091	-130.483	-0.228	-0.031
-530.077	57.117	-0.029	0.029
-529.062	-54.044	0.212	0.096
-528.048	800.000	-0.033	-0.101
-527.033	284.970	-0.163	0.293
-526.018	318.317	-0.066	0.125
-525.004	-35.941	-0.226	0.122
-523.989	20.881	0.115	-0.093
-522.975	800.000	-0.023	-0.076
-521.960	26.963	-0.147	-0.123
-520.945	94.353	-0.120	-0.136
-519.931	-200.000	-0.012	-0.094
-518.916	-89.247	-0.362	-0.106
-517.902	-83.665	0.173	-0.055
-516.887	-200.000	0.021	0.143
-515.872	-85.036	-0.259	0.081
-514.858	16.935	-0.259	0.204
-513.843	-117.198	0.223	0.040
-512.829	66.405	-0.183	0.186
-511.814	-137.273	0.294	-0.033
-510.799	-151.120	0.171	-0.013
-509.785	210.115	-0.150	-0.234
-508.770	94.382	-0.072	0.082
-507.756	-200.000	-0.006	-0.089
-506.741	336.409	-0.082	-0.158
-505.726	800.000	-0.073	0.224
-504.712	-200.000	-0.021	0.203
-503.697	263.016	-0.158	-0.273
-502.683	-105.758	-0.211	0.047
-501.668	56.860	-0.183	-0.177
-500.653	374.805	-0.123	-0.250
-499.639	80.244	0.211	-0.226
-498.624	-144.895	0.469	0.043
-497.610	99.285	0.021	0.025
-496.595	224.243	-0.091	-0.146
-495.581	-200.000	0.032	-0.293
-494.566	-200.000	-0.021	-0.243
-493.551	-200.000	-0.017	-0.161
-492.537	-94.358	-0.174	0.047
-491.522	91.383	0.242	-0.271
-490.508	-200.000	0.042	-0.376
-489.493	-151.209	-0.284	-0.021
-488.478	-200.000	0.053	-0.234
-487.464	-49.952	0.152	-0.072
-486.449	-9.302	0.109	-0.072
-485.435	13.990	-0.237	0.184
-484.420	42.838	-0.295	0.267
-483.405	256.703	-0.119	0.204
-482.391	-200.000	0.017	0.528
-481.376	-200.000	0.014	-0.173
-480.362	800.000	-0.017	-0.056
-479.347	71.481	0.140	0.145
-478.332	800.000	-0.043	0.133
-477.318	-29.479	-0.259	0.147
-476.303	-153.309	0.188	0.013
-475.289	91.638	0.155	0.173
-474.274	-200.000	0.015	0.155
-473.259	800.000	-0.084	-0.262
-472.245	-48.691	0.300	0.143
-471.230	-52.527	-0.148	-0.068
-470.216	243.302	-0.152	-0.253
-469.201	61.037	-0.250	0.246
-468.186	-7.836	-0.054	0.036
-467.172	-95.385	0.144	0.038
-466.157	105.929	-0.102	-0.120
-465.143	318.201	-0.075	-0.141
-464.128	-46.033	0.235	-0.115
-463.113	203.414	-0.007	0.011
-462.099	458.775	-0.102	0.225
-461.084	511.559	0.080	-0.186
-460.070	176.000	0.108	-0.155
-459.055	-13.807	0.266	0.171
-458.040	436.741	-0.022	-0.049
-457.026	-10.939	0.136	0.089
-456.011	363.604	-0.171	0.341
-454.997	381.397	-0.110	0.224
-453.982	-200.000	-0.064	0.406
-452.968	-200.000	-0.014	-0.163
-451.953	-138.524	0.211	-0.023
-450.938	-142.764	0.258	0.025
-449.924	145.755	-0.128	0.170
-448.909	-139.708	0.381	-0.040
-447.895	-56.501	0.296	0.130
-446.880	703.655	0.133	0.348
-445.865	-36.640	0.352	-0.188
-444.851	-39.187	0.270	-0.141
-443.836	-47.306	-0.379	0.183
-442.822	800.000	-0.050	0.199
-441.807	441.345	-0.077	0.167
-440.792	38.091	-0.116	-0.103
-439.778	116.323	0.142	-0.173
-438.763	-161.675	-0.051	0.003
-437.749	800.000	-0.031	-0.127
-436.734	-200.000	0.006	-0.039
-435.719	-93.946	-0.198	-0.054
-434.705	-132.342	-0.323	0.041
-433.690	-200.000	0.039	0.202
-432.676	0.818	0.256	0.182
-431.661	-73.859	0.318	-0.115
-430.646	-35.390	0.111	0.060
-429.632	-200.000	-0.076	-0.385
-428.617	-79.689	-0.235	0.079
-427.603	-120.599	-0.057	-0.010
-426.588	14.479	-0.490	-0.379
-425.573	-57.160	0.232	-0.101
-424.559	70.160	-0.172	0.176
-423.544	26.448	0.252	0.209
-422.530	94.706	-0.206	-0.233
-421.515	-200.000	-0.004	-0.220
-420.500	15.749	0.151	-0.118
-419.486	-16.807	0.165	-0.104
-418.471	248.212	0.093	0.156
-417.457	655.441	-0.106	0.270
-416.442	5.188	0.189	-0.138
-415.428	103.070	-0.165	-0.191
-414.413	-169.337	0.112	0.004
-413.398	464.207	-0.043	-0.095
-412.384	800.000	0.066	-0.185
-411.369	-152.754	-0.132	0.009
-410.355	466.061	0.058	0.128
-409.340	464.183	0.085	-0.189
-408.325	91.941	-0.118	0.132
-407.311	-26.147	0.231	0.135
-406.296	70.028	0.062	-0.063
-405.282	-200.000	0.030	0.142
-404.267	-43.590	-0.402	0.201
-403.252	-124.260	-0.268	0.041
-402.238	-171.464	0.218	0.007
-401.223	-200.000	0.020	-0.421
-400.209	-70.475	0.237	-0.089
-399.194	-122.369	0.045	-0.007
-398.179	-165.095	0.231	-0.010
-397.165	800.000	-0.115	0.465
-396.150	204.960	0.043	-0.067
-395.136	-200.000	0.018	-0.151
-394.121	-80.383	0.152	0.050
-393.106	-76.495	-0.203	0.071
-392.092	-65.383	0.143	0.057
-391.077	85.193	0.180	0.196
-390.063	-24.553	0.264	-0.156
-389.048	-30.398	0.142	0.080
-388.033	800.000	0.028	-0.106
-387.019	-68.399	0.232	0.089
-386.004	252.411	-0.029	-0.049
-384.990	-34.573	-0.247	0.134
-383.975	112.288	-0.444	0.532
-382.960	-124.574	0.147	-0.023
-381.946	53.630	0.058	-0.055
-380.931	28.102	0.085	0.071
-379.917	426.905	0.075	-0.160
-378.902	-166.321	0.250	-0.010
-377.888	-200.000	0.048	0.271
-376.873	-70.902	-0.158	0.059
-375.858	-98.112	-0.454	0.116
-374.844	104.041	0.202	-0.235
-373.829	-200.000	0.067	0.316
-372.815	800.000	0.050	0.138
-371.800	212.652	-0.226	0.353
-370.785	-200.000	0.048	-0.233
-369.771	-38.439	0.397	0.208
-368.756	-61.922	0.136	0.056
-367.742	-187.773	-0.154	0.002
-366.727	800.000	0.068	-0.189
-365.712	63.755	0.276	0.274
-364.698	643.811	-0.025	0.063
-363.683	-200.000	0.039	-0.196
-362.669	755.662	0.167	0.446
-361.654	-54.372	-0.138	0.062
-360.639	-183.040	0.137	-0.002
-359.625	-171.616	-0.188	0.006
-358.610	-0.966	0.084	-0.059
-357.596	-28.364	0.132	-0.075
-356.581	800.000	0.035	-0.146
-355.566	-55.916	-0.386	0.171
-354.552	800.000	-0.058	-0.172
-353.537	800.000	-0.047	0.198
-352.523	-200.000	-0.025	0.289
-351.508	-200.000	0.007	0.121
-350.493	-60.523	0.215	0.090
-349.479	1.001	0.085	0.061
-348.464	-30.937	-0.215	0.120
-347.450	-200.000	0.019	-0.337
-346.435	26.036	-0.060	-0.050
-345.420	-200.000	0.019	0.096
-344.406	-73.699	0.252	0.091
-343.391	-47.098	0.305	0.147
-342.377	800.000	-0.077	0.212
-341.362	182.455	0.132	0.193
-340.348	20.928	0.238	-0.191
-339.333	14.932	0.304	0.235
-338.318	-60.603	0.245	-0.103
-337.304	800.000	-0.048	-0.196
-336.289	33.202	0.126	0.108
-335.275	-139.240	0.112	0.012
-334.260	93.180	-0.026	-0.030
-333.245	217.315	-0.036	0.057
-332.231	118.145	-0.153	-0.187
-331.216	246.704	0.109	-0.183
-330.202	-126.473	0.307	0.045
-329.187	58.501	-0.221	0.215
-328.172	-147.407	0.179	-0.015
-327.158	-72.797	0.063	0.023
-326.143	800.000	-0.127	-0.404
-325.129	342.662	-0.147	-0.284
-324.114	800.000	-0.080	-0.329
-323.099	136.546	-0.113	0.146
-322.085	-55.005	0.221	0.098
-321.070	222.419	0.072	0.115
-320.056	627.622	-0.189	-0.472
-319.041	442.637	-0.123	0.266
-318.026	-200.000	-0.027	-0.197
-317.012	800.000	-0.053	0.194
-315.997	-200.000	0.020	-0.108
-314.983	-28.945	-0.289	0.164
-313.968	-200.000	0.034	-0.285
-312.953	291.269	0.089	-0.160
-311.939	-178.316	0.111	-0.003
-310.924	86.528	-0.100	-0.109
-309.910	-30.736	0.185	0.103
-308.895	800.000	0.053	-0.151
-307.880	-99.368	-0.152	-0.038
-306.866	-84.809	-0.094	-0.029
-305.851	800.000	0.035	-0.112
-304.837	-200.000	-0.021	0.131
-303.822	54.790	-0.200	0.190
-302.807	-200.000	0.046	0.225
-301.793	-95.558	-0.093	-0.025
-300.778	-25.398	0.099	0.058
-299.764	-200.000	0.035	0.207
-298.749	-200.000	0.285	0.000
-297.735	301.212	0.054	-0.098
-296.720	6.024	-0.204	-0.149
-295.705	-200.000	0.002	-0.076
-294.691	-78.180	-0.338	-0.115
-293.676	130.853	0.188	0.238
-292.662	112.114	0.100	0.119
-291.647	-200.000	-0.000	0.044
-290.632	-87.864	0.332	0.099
-289.618	-28.998	-0.196	0.111
-288.603	30.184	-0.147	0.124
-287.589	33.391	-0.141	0.121
-286.574	-200.000	0.013	0.090
-285.559	708.702	-0.113	-0.295
-284.545	198.497	0.116	0.175
-283.530	107.477	0.405	-0.475
-282.516	-112.067	0.304	-0.060
-281.501	-200.000	0.007	-0.230
-280.486	-66.690	-0.261	-0.102
-279.472	-78.644	-0.358	-0.121
-278.457	800.000	-0.047	-0.185
-277.443	-50.038	-0.159	-0.074
-276.428	-200.000	-0.035	0.164
-275.413	417.602	-0.073	-0.154
-274.399	-200.000	0.003	-0.060
-273.384	-58.139	-0.146	-0.063
-272.370	800.000	0.036	-0.113
-271.355	31.646	0.032	0.027
-270.340	-200.000	0.059	0.264
-269.326	-39.980	-0.114	-0.059
-268.311	12.666	0.165	0.126
-267.297	35.786	-0.211	-0.183
-266.282	364.840	-0.037	0.073
-265.267	148.863	0.056	-0.075
-264.253	-117.586	0.073	0.013
-263.238	-200.000	-0.005	-0.023
-262.224	-8.263	-0.092	0.061
-261.209	145.855	-0.149	-0.197
-260.195	-200.000	0.073	0.417
-259.180	-200.000	0.038	-0.322
-258.165	45.682	-0.076	0.069
-257.151	118.444	0.064	0.078
-256.136	-90.842	-0.179	0.051
-255.122	-51.035	0.155	0.072
-254.107	127.661	-0.091	-0.114
-253.092	-200.000	0.011	0.131
-252.078	-79.994	-0.169	0.056
-251.063	22.900	0.084	-0.068
-250.049	-40.602	0.213	-0.109
-249.034	383.337	-0.125	0.254
-248.019	-142.263	-0.255	0.025
-247.005	-136.647	-0.252	0.029
-245.990	-2.450	0.120	0.083
-244.976	68.676	0.156	-0.158
-243.961	-200.000	-0.027	-0.212
-242.946	-200.000	0.042	-0.240
-241.932	283.885	-0.148	-0.261
-240.917	196.402	0.086	-0.128
-239.903	800.000	0.060	0.241
-238.888	151.489	0.111	0.149
-237.873	-53.587	0.086	-0.039
-236.859	226.844	0.206	0.329
-235.844	141.277	-0.103	0.135
-234.830	90.111	-0.225	-0.248
-233.815	-200.000	-0.045	-0.296
-232.800	-200.000	0.070	0.327
-231.786	-200.000	-0.004	0.067
-230.771	-200.000	0.008	0.137
-229.757	-163.683	0.606	0.028
-228.742	-80.104	0.165	-0.054
-227.727	179.047	0.150	-0.216
-226.713	800.000	-0.075	-0.321
-225.698	-200.000	-0.010	-0.294
-224.684	137.659	-0.013	0.017
-223.669	106.711	-0.271	-0.317
-222.655	11.129	0.255	-0.192
-221.640	-51.217	-0.172	-0.079
-220.625	127.662	0.151	0.189
-219.611	-190.900	0.251	0.003
-218.596	245.866	0.202	0.335
-217.582	-20.996	0.067	0.040
-216.567	40.871	-0.237	-0.211
-215.552	-200.000	0.018	0.131
-214.538	97.205	0.172	0.194
-213.523	61.478	-0.234	-0.229
-212.509	-9.922	0.260	-0.170
-211.494	-55.025	-0.055	-0.024
-210.479	-155.586	0.126	0.008
-209.465	28.653	-0.157	-0.130
-208.450	681.092	-0.065	-0.167
-207.436	452.750	0.134	-0.291
-206.421	800.000	-0.080	0.314
-205.406	800.000	-0.054	-0.154
-204.392	-200.000	0.041	-0.179
-203.377	-44.095	0.132	0.065
-202.363	15.305	-0.140	0.108
-201.348	-200.000	0.030	-0.229
-200.333	393.490	0.034	-0.069
-199.319	49.339	-0.306	-0.283
-198.304	-0.349	0.093	0.065
-197.290	247.738	0.106	-0.176
-196.275	750.722	-0.072	0.191
-195.260	-90.917	0.079	0.022
-194.246	58.189	-0.014	0.014
-193.231	488.399	-0.092	0.207
-192.217	-153.000	-0.240	-0.017
-191.202	-200.000	0.020	0.281
-190.187	-96.315	0.309	-0.080
-189.173	-84.255	0.082	-0.026
-188.158	-178.631	-0.156	0.004
-187.144	-89.854	-0.231	0.066
-186.129	-14.124	0.233	0.148
-185.114	685.431	-0.016	0.041
-184.100	-31.375	-0.227	-0.125
-183.085	-83.929	0.061	0.019
-182.071	-41.374	0.117	0.059
-181.056	-100.398	0.241	-0.059
-180.042	25.205	0.163	0.133
-179.027	-168.074	0.327	0.013
-178.012	800.000	-0.076	-0.250
-176.998	-94.395	-0.142	-0.038
-175.983	86.971	0.074	-0.080
-174.969	362.239	-0.051	0.100
-173.954	-200.000	0.003	-0.118
-172.939	303.783	0.116	0.211
-171.925	243.269	0.287	0.473
-170.910	159.821	-0.137	-0.188
-169.896	642.465	0.079	0.199
-168.881	-16.439	0.135	-0.084
-167.866	-64.189	-0.407	0.163
-166.852	-56.741	-0.210	-0.091
-165.837	83.611	-0.203	-0.217
-164.823	124.541	-0.098	0.121
-163.808	-200.000	-0.036	0.172
-162.793	-200.000	-0.011	-0.046
-161.779	563.177	0.140	0.334
-160.764	-112.445	0.466	0.091
-159.750	346.388	-0.063	-0.122
-158.735	800.000	-0.097	0.278
-157.720	-200.000	-0.001	-0.079
-156.706	72.935	0.114	-0.117
-155.691	386.779	-0.043	0.088
-154.677	615.322	-0.075	0.185
-153.662	-38.381	-0.194	0.101
-152.647	-124.702	-0.167	-0.025
-151.633	179.612	0.158	0.227
-150.618	688.629	0.055	0.140
-149.604	45.502	-0.108	-0.097
-148.589	-200.000	-0.037	-0.418
-147.574	800.000	-0.079	0.280
-146.560	33.874	0.124	-0.106
-145.545	-6.823	0.135	0.090
-144.531	-77.306	0.129	0.044
-143.516	-170.176	-0.091	-0.003
-142.502	-47.808	0.256	-0.122
-141.487	-200.000	0.094	0.462
-140.472	-42.812	0.213	0.106
-139.458	-200.000	-0.022	-0.154
-138.443	-23.303	-0.251	0.148
-137.429	90.347	-0.097	-0.107
-136.414	151.302	0.169	0.225
-135.399	-200.000	0.057	0.356
-134.385	-191.783	-0.361	-0.003
-133.370	99.464	0.323	0.367
-132.356	-29.105	0.271	0.153
-131.341	-98.894	-0.287	0.072
-130.326	-48.101	0.309	-0.146
-129.312	24.709	0.122	0.099
-128.297	-138.427	0.098	0.011
-127.283	-173.283	0.326	0.010
-126.268	800.000	0.144	0.420
-125.253	35.389	0.216	0.186
-124.239	-200.000	0.011	0.317
-123.224	9.642	0.228	0.169
-122.210	-97.392	0.334	0.085
-121.195	60.603	-0.065	0.063
-120.180	528.271	-0.059	0.136
-119.166	800.000	-0.061	-0.203
-118.151	-200.000	0.023	0.169
-117.137	-200.000	0.020	-0.253
-116.122	373.952	-0.053	-0.106
-115.107	118.698	-0.160	0.194
-114.093	-167.987	-0.045	0.002
-113.078	460.666	-0.092	-0.200
-112.064	800.000	0.029	-0.087
-111.049	-140.512	-0.152	-0.015
-110.034	-200.000	-0.006	0.037
-109.020	-59.337	-0.039	-0.017
-108.005	-13.288	0.144	0.092
-106.991	-117.261	0.281	-0.050
-105.976	-103.137	-0.250	-0.058
-104.962	-200.000	0.023	0.221
-103.947	-179.534	0.273	-0.006
-102.932	800.000	0.060	0.197
-101.918	304.862	0.049	0.088
-100.903	-200.000	0.056	-0.319
-99.889	-48.043	-0.264	0.125
-98.874	86.389	0.119	0.129
-97.859	-200.000	0.025	0.206
-96.845	-200.000	0.004	-0.188
-95.830	-1.512	0.302	-0.208
-94.816	-122.056	0.199	-0.032
-93.801	-200.000	0.004	0.180
-92.786	-200.000	-0.026	-0.125
-91.772	4.627	0.121	-0.087
-90.757	235.531	0.241	-0.391
-89.743	17.082	0.346	-0.269
-88.728	800.000	0.075	-0.286
-87.713	108.723	0.134	-0.157
-86.699	151.341	-0.148	-0.197
-85.684	-65.667	0.336	0.132
-84.670	-200.000	0.017	-0.301
-83.655	-200.000	-0.011	-0.059
-82.640	-6.994	0.075	-0.050
-81.626	331.268	-0.221	0.417
-80.611	21.133	0.299	-0.238
-79.597	-93.182	0.501	-0.136
-78.582	-19.018	-0.202	-0.123
-77.567	-61.178	-0.134	0.055
-76.553	-30.095	-0.153	-0.085
-75.538	165.232	0.127	0.176
-74.524	-149.298	-0.280	-0.022
-73.509	27.301	0.246	0.202
-72.494	-121.363	0.230	-0.038
-71.480	-200.000	-0.041	0.495
-70.465	800.000	0.060	-0.177
-69.451	560.299	0.093	-0.219
-68.436	314.680	-0.158	0.291
-67.422	-80.939	-0.272	-0.088
-66.407	-7.620	-0.214	0.141
-65.392	-200.000	-0.046	-0.238
-64.378	390.551	0.109	-0.221
-63.363	157.351	0.158	0.214
-62.349	-122.649	0.153	0.024
-61.334	17.219	-0.949	-0.737
-60.319	658.930	0.305	0.767
-59.305	708.730	-0.460	-1.190
-58.290	505.227	0.629	1.426
-57.276	800.000	0.531	1.748
-56.261	-200.000	113.053	611.170
-55.246	444.709	1518.789	3260.219
-54.232	143.935	2705.817	3528.109
-53.217	100.876	2178.569	2476.930
-52.203	38.057	1609.180	1399.671
-51.188	29.498	1347.940	1120.703
-50.173	26.778	1308.422	1071.748
-49.159	52.539	1363.437	1272.906
-48.144	51.311	1377.918	1278.978
-47.130	29.880	1334.298	1111.478
-46.115	26.464	1315.942	1075.869
-45.100	26.339	1310.867	1070.938
-44.086	26.130	1308.553	1067.767
-43.071	26.207	1305.506	1065.696
-42.057	26.269	1303.609	1064.468
-41.042	26.301	1302.039	1063.333
-40.027	26.180	1300.684	1061.476
-39.013	26.230	1298.855	1060.233
-37.998	26.257	1296.851	1058.715
-36.984	26.213	1295.490	1057.304
-35.969	26.276	1293.574	1056.062
-34.954	26.467	1291.178	1055.180
-33.940	26.477	1289.736	1054.019
-32.925	26.523	1288.459	1053.202
-31.911	26.471	1286.743	1051.456
-30.896	26.443	1285.679	1050.379
-29.881	26.427	1284.356	1049.167
-28.867	26.437	1283.040	1048.104
-27.852	26.564	1281.108	1047.219
-26.838	26.477	1280.322	1046.035
-25.823	26.456	1278.776	1044.607
-24.809	26.390	1277.684	1043.297
-23.794	26.416	1276.317	1042.285
-22.779	26.504	1274.767	1041.488
-21.765	26.514	1273.819	1040.730
-20.750	26.524	1271.944	1039.209
-19.736	26.423	1271.100	1037.901
-18.721	26.361	1269.953	1036.570
-17.706	26.321	1269.001	1035.520
-16.692	26.307	1267.724	1034.356
-15.677	26.407	1266.661	1034.020
-14.663	26.354	1265.430	1032.672
-13.648	26.409	1263.692	1031.526
-12.633	26.292	1263.265	1030.468
-11.619	26.365	1262.353	1030.099
-10.604	26.284	1261.999	1029.312
-9.590	26.344	1260.363	1028.275
-8.575	26.275	1259.804	1027.384
-7.560	26.234	1259.023	1026.478
-6.546	26.320	1257.827	1025.947
-5.531	26.221	1257.200	1024.836
-4.517	26.245	1256.395	1024.271
-3.502	26.413	1255.305	1024.297
-2.487	26.406	1254.549	1023.598
-1.473	26.399	1250.602	1020.299
-0.458	25.452	1236.103	1003.145
0.556	20.732	1221.481	969.803
1.571	17.678	1229.313	958.784
2.586	16.976	1244.889	966.843
3.600	16.621	1232.752	955.331
4.615	12.128	1159.159	874.316
5.629	4.154	1084.245	777.844
6.644	0.568	1065.279	746.465
7.659	0.083	1063.583	742.814
8.673	0.236	1062.464	742.723
9.688	0.164	1060.840	741.167
10.702	0.370	1059.089	740.891
11.717	4.918	1065.089	767.457
12.731	12.424	1074.727	811.522
13.746	16.158	1079.000	833.153
14.761	16.692	1079.567	836.154
15.775	15.913	1077.747	830.828
16.790	15.001	1075.259	824.346
17.804	14.334	1074.238	820.207
18.819	14.059	1072.487	817.445
19.834	13.688	1072.235	815.359
20.848	13.475	1070.707	813.076
21.863	13.154	1070.277	811.104
22.877	13.029	1069.191	809.595
23.892	13.014	1068.584	808.992
24.907	13.012	1068.182	808.604
25.921	13.044	1067.135	807.898
26.936	13.097	1066.372	807.505
27.950	13.154	1065.169	806.803
28.965	13.212	1063.634	805.852
29.980	13.338	1062.468	805.509
30.994	13.300	1061.330	804.392
32.009	13.338	1060.672	804.008
33.023	13.258	1059.849	802.923
34.038	13.306	1058.546	802.098
35.053	13.182	1058.058	801.058
36.067	13.308	1056.909	800.726
37.082	13.250	1055.784	799.520
38.096	13.301	1055.378	799.390
39.111	13.363	1054.608	799.037
40.126	13.386	1053.298	798.081
41.140	13.006	1052.764	795.775
42.155	13.137	1050.909	794.931
43.169	13.131	1050.066	794.195
44.184	13.023	1049.502	793.181
45.199	13.161	1048.093	792.706
46.213	12.996	1047.502	791.400
47.228	13.221	1045.963	791.244
48.242	13.207	1044.743	790.187
49.257	13.136	1044.176	789.347
50.271	13.227	1043.390	789.117
51.286	13.174	1042.332	787.996
52.301	13.175	1041.132	787.020
53.315	13.206	1040.301	786.470
54.330	13.123	1039.479	785.386
55.344	13.160	1038.417	784.689
56.359	13.075	1038.107	783.982
57.374	13.064	1037.028	783.044
58.388	13.128	1035.837	782.379
59.403	13.138	1034.808	781.583
60.417	13.026	1034.373	780.657
61.432	13.049	1033.548	780.072
62.447	13.049	1032.858	779.482
63.461	12.956	1032.083	778.388
64.476	12.955	1031.079	777.558
65.490	13.003	1030.436	777.231
66.505	13.011	1029.751	776.683
67.520	13.021	1028.621	775.809
68.534	13.132	1028.103	775.869
69.549	13.108	1027.113	774.941
70.563	13.009	1026.137	773.673
71.578	13.076	1025.200	773.214
72.593	12.911	1024.886	772.136
73.607	12.957	1024.589	772.056
74.622	13.018	1023.787	771.671
75.636	12.967	1022.855	770.661
76.651	13.077	1022.093	770.532
77.666	13.028	1021.588	769.856
78.680	13.027	1020.811	769.197
79.695	12.864	1020.549	768.174
80.709	13.045	1019.598	768.231
81.724	13.258	1018.617	768.411
82.739	13.129	1018.247	767.465
83.753	13.143	1017.533	766.924
84.768	13.142	1016.569	766.128
85.782	13.187	1015.962	765.811
86.797	13.217	1014.523	764.796
87.812	13.272	1013.297	764.059
88.826	13.138	1012.689	762.915
89.841	13.161	1011.531	762.082
90.855	13.224	1010.783	761.738
91.870	13.314	1009.755	761.310
92.884	13.347	1008.664	760.572
93.899	13.293	1008.229	759.929
94.914	13.396	1006.939	759.363
95.928	13.383	1006.354	758.793
96.943	13.344	1005.831	758.158
97.957	13.239	1005.251	757.170
98.972	13.247	1004.110	756.280
99.987	13.271	1003.121	755.576
101.001	13.266	1002.126	754.738
102.016	13.451	1000.920	754.610
103.030	13.322	1000.221	753.425
104.045	13.255	999.913	752.822
105.060	13.308	998.329	751.803
106.074	13.210	997.512	750.679
107.089	13.163	996.984	750.001
108.103	13.178	995.916	749.197
109.118	13.214	994.632	748.331
110.133	13.161	994.028	747.568
111.147	13.099	993.226	746.620
112.162	13.240	992.180	746.403
113.176	13.213	991.350	745.589
114.191	13.271	990.901	745.448
115.206	13.149	989.917	744.095
116.220	13.150	989.011	743.349
117.235	13.119	988.467	742.737
118.249	13.277	987.017	742.291
119.264	13.222	986.765	741.789
120.279	13.210	986.025	741.112
121.293	13.190	985.171	740.316
122.308	13.350	983.687	739.850
123.322	13.136	982.961	738.282
124.337	13.123	982.025	737.456
125.352	13.097	981.023	736.523
126.366	13.241	979.831	736.202
127.381	13.224	979.096	735.514
128.395	13.225	978.037	734.656
129.410	13.216	977.036	733.797
130.424	13.330	976.299	733.688
131.439	13.244	976.112	733.099
132.454	13.320	975.255	732.728
133.468	13.256	974.218	731.602
134.483	13.208	973.368	730.684
135.497	13.242	972.353	730.008
136.512	13.339	971.244	729.540
137.527	13.305	970.719	728.930
138.541	13.244	970.383	728.346
139.556	13.255	969.291	727.509
140.570	13.393	968.592	727.528
141.585	13.493	967.821	727.325
142.600	13.415	966.981	726.285
143.614	13.435	966.133	725.672
144.629	13.407	965.390	724.926
145.643	13.388	964.536	724.138
146.658	13.367	963.244	723.011
147.673	13.257	962.985	722.275
148.687	13.402	961.857	721.996
149.702	13.384	960.645	720.943
150.716	13.360	960.388	720.582
151.731	13.248	959.897	719.663
152.746	13.354	959.080	719.449
153.760	13.392	958.337	718.992
154.775	13.455	958.070	719.003
155.789	13.570	957.078	718.693
156.804	13.508	956.477	717.907
157.819	13.505	955.800	717.326
158.833	13.599	955.104	717.143
159.848	13.523	953.671	715.676
160.862	13.592	952.928	715.352
161.877	13.697	951.849	714.935
162.892	13.555	951.135	713.722
163.906	13.454	950.411	712.679
164.921	13.430	949.823	712.076
165.935	13.481	948.792	711.458
166.950	13.490	948.045	710.875
167.964	13.633	946.848	710.527
168.979	13.553	945.940	709.439
169.994	13.607	944.463	708.498
171.008	13.676	944.475	708.742
172.023	13.614	943.856	707.946
173.037	13.746	943.177	707.942
174.052	13.642	942.080	706.611
175.067	13.533	941.836	705.901
176.081	13.579	941.296	705.631
177.096	13.645	940.276	705.082
178.110	13.585	940.296	704.781
179.125	13.561	939.646	704.130
180.140	13.717	938.498	703.869
181.154	13.782	938.287	703.923
182.169	13.730	937.758	703.245
183.183	13.868	937.133	703.296
184.198	13.792	936.323	702.306
185.213	13.816	935.532	701.754
186.227	13.780	935.244	701.320
187.242	13.812	934.748	701.022
188.256	13.958	933.728	700.813
189.271	13.828	933.167	699.781
190.286	13.815	931.922	698.732
191.300	13.650	931.566	697.709
192.315	13.814	930.615	697.621
193.329	13.680	930.418	696.851
194.344	13.802	929.620	696.702
195.359	13.805	929.014	696.202
196.373	13.838	928.642	695.996
197.388	13.888	928.223	695.831
198.402	14.012	927.521	695.762
199.417	13.981	927.094	695.253
200.432	14.125	926.299	695.197
201.446	14.041	925.982	694.545
202.461	14.050	925.337	694.037
203.475	14.134	924.557	693.740
204.490	14.139	923.534	692.933
205.504	13.943	923.547	692.065
206.519	13.971	922.596	691.408
207.534	14.008	921.939	691.010
208.548	13.998	921.348	690.462
209.563	14.064	920.862	690.312
210.577	14.243	919.599	690.044
211.592	14.143	919.299	689.347
212.607	14.190	918.512	688.888
213.621	14.176	917.620	688.099
214.636	14.241	916.901	687.770
215.650	14.256	915.861	686.992
216.665	14.289	915.314	686.656
217.680	14.364	914.621	686.385
218.694	14.349	914.271	686.000
219.709	14.301	913.567	685.212
220.723	14.186	913.013	684.264
221.738	14.382	911.847	684.132
222.753	14.307	911.515	683.517
223.767	14.448	910.563	683.320
224.782	14.375	910.071	682.591
225.796	14.516	909.525	682.697
226.811	14.408	909.109	681.884
227.826	14.381	908.518	681.272
228.840	14.461	907.589	680.840
229.855	14.392	906.901	679.982
230.869	14.465	906.011	679.554
231.884	14.511	905.347	679.180
232.899	14.281	905.104	678.002
233.913	14.448	904.127	677.890
234.928	14.594	903.236	677.757
235.942	14.548	902.648	677.067
236.957	14.494	902.179	676.437
237.972	14.430	901.639	675.713
238.986	14.429	901.210	675.328
240.001	14.412	900.458	674.635
241.015	14.542	899.507	674.388
242.030	14.549	898.972	673.956
243.045	14.485	898.325	673.152
244.059	14.536	897.699	672.832
245.074	14.531	897.301	672.450
246.088	14.596	896.650	672.167
247.103	14.707	895.770	671.893
248.117	14.699	895.495	671.594
249.132	14.736	894.932	671.261
250.147	14.756	894.041	670.615
251.161	14.683	893.461	669.830
252.176	14.740	892.812	669.509
253.190	14.880	891.903	669.330
254.205	14.796	891.760	668.829
255.220	14.902	891.161	668.741
256.234	15.067	890.076	668.527
257.249	14.928	889.740	667.661
258.263	14.911	889.174	667.110
259.278	14.839	888.215	666.045
260.293	14.951	887.756	666.086
261.307	14.986	887.172	665.730
262.322	15.058	886.209	665.237
263.336	15.222	885.369	665.195
264.351	15.243	884.773	664.775
265.366	15.213	884.001	664.016
266.380	15.207	883.452	663.519
267.395	15.151	882.726	662.697
268.409	15.117	882.023	661.976
269.424	15.074	881.625	661.445
270.439	15.135	880.761	660.979
271.453	15.194	880.082	660.645
272.468	15.180	879.825	660.340
273.482	15.230	879.070	659.911
274.497	15.051	878.722	658.885
275.512	15.050	878.321	658.524
276.526	15.273	876.895	658.271
277.541	15.240	877.040	658.195
278.555	15.402	876.035	658.015
279.570	15.370	875.432	657.378
280.585	15.407	874.484	656.752
281.599	15.338	873.835	655.941
282.614	15.370	873.137	655.484
283.628	15.277	873.012	654.965
284.643	15.286	872.466	654.534
285.657	15.440	871.651	654.466
286.672	15.504	870.659	653.913
287.687	15.427	870.203	653.213
288.701	15.391	869.690	652.627
289.716	15.380	869.100	652.085
290.730	15.463	868.695	652.047
291.745	15.437	867.878	651.274
292.760	15.470	867.097	650.760
293.774	15.574	866.999	651.032
294.789	15.510	866.393	650.272
295.803	15.495	865.407	649.416
296.818	15.483	864.575	648.687
297.833	15.670	863.763	648.740
298.847	15.621	863.550	648.335
299.862	15.473	863.142	647.400
300.876	15.550	862.371	647.062
301.891	15.672	861.718	646.985
302.906	15.619	861.159	646.304
303.920	15.799	860.546	646.478
304.935	15.871	859.836	646.163
305.949	15.746	859.310	645.231
306.964	15.857	858.822	645.234
307.979	15.764	858.149	644.315
308.993	15.833	857.888	644.324
310.008	15.832	857.217	643.762
311.022	15.842	856.667	643.329
312.037	15.816	856.161	642.794
313.052	15.916	855.436	642.573
314.066	15.809	854.688	641.547
315.081	15.776	853.986	640.839
316.095	15.821	853.759	640.783
317.110	15.768	853.127	640.050
318.125	15.923	852.642	640.219
319.139	15.854	852.223	639.584
320.154	15.799	851.782	638.987
321.168	15.798	851.377	638.624
322.183	15.783	851.053	638.270
323.197	15.642	850.375	637.170
324.212	15.765	849.574	636.977
325.227	15.795	849.283	636.817
326.241	15.954	848.500	636.773
327.256	15.957	847.764	636.175
328.270	16.034	846.791	635.683
329.285	15.907	846.357	634.819
330.300	15.782	846.188	634.166
331.314	16.059	845.418	634.576
332.329	15.880	845.535	633.935
333.343	16.013	844.742	633.784
334.358	15.972	844.412	633.327
335.373	16.072	844.327	633.583
336.387	16.084	843.441	632.905
337.402	16.104	843.105	632.671
338.416	16.205	842.755	632.734
339.431	16.232	842.475	632.567
340.446	16.170	842.077	631.979
341.460	16.260	841.632	631.929
342.475	16.306	840.956	631.535
343.489	16.455	840.395	631.614
344.504	16.180	840.828	630.859
345.519	16.289	839.965	630.559
346.533	16.435	838.958	630.295
347.548	16.241	838.845	629.428
348.562	16.409	838.021	629.383
349.577	16.382	837.612	628.917
350.592	16.410	837.062	628.554
351.606	16.348	836.283	627.683
352.621	16.420	835.872	627.586
353.635	16.288	835.144	626.495
354.650	16.279	834.448	625.882
355.665	16.359	833.755	625.605
356.679	16.445	833.285	625.514
357.694	16.557	832.528	625.306
358.708	16.524	831.896	624.654
359.723	16.475	831.656	624.236
360.738	16.649	830.437	623.907
361.752	16.456	830.162	622.934
362.767	16.628	829.772	623.219
363.781	16.573	829.305	622.612
364.796	16.564	828.765	622.118
365.810	16.673	828.030	621.913
366.825	16.654	827.947	621.724
367.840	16.731	827.618	621.705
368.854	16.578	827.376	620.909
369.869	16.654	826.686	620.614
370.883	16.766	826.048	620.490
371.898	16.722	825.972	620.217
372.913	16.819	825.426	620.107
373.927	16.857	824.837	619.749
374.942	16.817	824.118	619.009
375.956	16.787	823.865	618.655
376.971	16.887	823.263	618.511
377.986	16.899	822.972	618.282
379.000	16.896	822.827	618.106
380.015	16.852	822.106	617.351
381.029	16.972	821.635	617.379
382.044	16.919	821.118	616.744
383.059	17.037	820.377	616.559
384.073	16.922	820.116	615.893
385.088	17.022	819.002	615.363
386.102	17.025	818.845	615.201
387.117	16.965	818.150	614.406
388.132	16.933	817.590	613.816
389.146	16.795	817.486	613.187
390.161	17.012	816.838	613.431
391.175	17.038	816.233	613.014
392.190	17.145	815.303	612.648
393.205	17.001	815.301	612.075
394.219	17.132	814.992	612.260
395.234	16.995	814.574	611.397
396.248	17.108	814.095	611.389
397.263	17.017	813.458	610.531
398.278	17.078	813.228	610.523
399.292	17.089	812.640	610.067
400.307	17.105	811.927	609.537
401.321	17.142	811.691	609.437
402.336	17.095	811.053	608.736
403.350	16.989	811.214	608.423
404.365	17.182	810.514	608.536
405.380	17.163	809.983	608.015
406.394	17.230	809.561	607.886
407.409	17.276	809.161	607.693
408.423	17.260	808.537	607.114
409.438	17.326	808.034	606.919
410.453	17.409	807.960	607.106
411.467	17.309	807.351	606.240
412.482	17.473	806.693	606.274
413.496	17.526	806.454	606.231
414.511	17.468	806.244	605.813
415.526	17.442	805.828	605.353
416.540	17.365	805.353	604.670
417.555	17.420	804.797	604.395
418.569	17.401	804.514	604.062
419.584	17.647	804.027	604.514
420.599	17.543	803.657	603.815
421.613	111.941	1296.893	1480.558
422.628	96.520	1368.714	1480.645
