DTS Sentinel unit serial number:	SN413079Multiplexer serial number:	ORYXHardware model number:	OX4-SRSoftware version number:	ORYX F/W v4.00 Oryx Data Collector v3.7.2.0data status	okinstallation	princeton_trtdifferential loss correction	single-endedforward channel	channel 1reverse channel	N/Adate	2019/09/17time	15:34:35forward acquisition time	60.00reverse acquisition time	0.00gamma	496.2192k internal	0.2294k external	0.2294temperature offset calibration	0.9967default loss term (dB/km)	0.3790temperature slope calibration	1.0000multiplexer offset coefficient	1.0000multiplexer slope coefficient	1.0000fibre end	0.00T internal ref (°C)	38.45T ext. ref 1 (°C)	0.39T ext. ref 2 (°C)	35.84length (m)	temperature (°C)	Stokes	anti-Stokes-747.200	800.000	-0.012	-0.047
-746.185	800.000	0.126	0.391
-745.171	195.592	0.181	-0.282
-744.156	287.139	0.143	0.265
-743.142	800.000	-0.062	0.255
-742.127	47.558	0.316	0.301
-741.112	-58.547	0.451	0.200
-740.098	-200.000	0.054	0.494
-739.083	-83.327	0.149	-0.049
-738.069	120.944	-0.029	-0.037
-737.054	-184.318	-0.284	-0.005
-736.039	-57.225	0.081	-0.037
-735.025	42.387	-0.182	0.169
-734.010	-62.949	0.251	0.106
-732.996	-113.584	0.146	0.029
-731.981	-31.514	-0.466	-0.268
-730.966	-200.000	-0.046	0.239
-729.952	102.487	-0.063	0.075
-728.937	-39.298	-0.099	0.053
-727.923	281.272	-0.119	-0.217
-726.908	-80.148	-0.260	0.089
-725.894	263.040	-0.072	-0.129
-724.879	800.000	-0.081	-0.257
-723.864	-200.000	0.010	-0.079
-722.850	235.038	-0.101	-0.171
-721.835	40.788	-0.180	-0.165
-720.821	71.999	-0.097	-0.103
-719.806	-200.000	0.039	-0.199
-718.791	230.629	0.093	-0.155
-717.777	-200.000	-0.004	-0.086
-716.762	442.550	0.103	0.231
-715.748	-200.000	-0.017	0.229
-714.733	-6.039	0.309	0.216
-713.718	411.008	-0.104	-0.225
-712.704	-134.788	-0.198	-0.025
-711.689	-31.522	-0.284	-0.163
-710.675	338.631	-0.050	-0.099
-709.660	-117.656	-0.246	-0.045
-708.645	-75.526	0.202	0.073
-707.631	-200.000	-0.049	-0.328
-706.616	100.904	-0.151	-0.179
-705.602	800.000	-0.080	-0.245
-704.587	256.920	0.094	-0.165
-703.572	-174.850	0.054	0.002
-702.558	192.147	0.144	-0.222
-701.543	154.484	-0.150	-0.210
-700.529	-64.358	0.018	-0.008
-699.514	-200.000	-0.101	-0.584
-698.499	63.182	0.166	0.170
-697.485	131.692	0.236	0.310
-696.470	-145.580	-0.203	0.019
-695.456	-47.541	-0.201	-0.100
-694.441	555.783	0.141	-0.346
-693.426	166.331	0.128	0.185
-692.412	-34.140	-0.183	-0.103
-691.397	-33.943	-0.408	-0.229
-690.383	82.745	0.175	-0.195
-689.368	149.396	0.129	-0.178
-688.354	111.024	0.222	0.273
-687.339	507.454	0.074	-0.175
-686.324	-27.343	-0.080	0.048
-685.310	202.599	0.144	-0.227
-684.295	-200.000	-0.045	0.258
-683.281	800.000	-0.039	0.134
-682.266	13.667	0.210	-0.166
-681.251	-118.815	0.444	0.080
-680.237	771.043	0.095	-0.264
-679.222	-200.000	0.007	-0.129
-678.208	-200.000	0.011	-0.074
-677.193	-174.146	-0.347	0.010
-676.178	-200.000	0.001	-0.204
-675.164	-166.268	-0.343	0.015
-674.149	28.539	-0.054	-0.046
-673.135	19.820	-0.272	0.223
-672.120	275.906	0.186	0.336
-671.105	800.000	0.071	0.234
-670.091	800.000	-0.084	-0.257
-669.076	-44.646	0.184	-0.094
-668.062	-200.000	-0.008	-0.160
-667.047	587.604	-0.071	0.177
-666.032	-200.000	0.012	-0.155
-665.018	241.358	-0.040	-0.069
-664.003	-200.000	0.009	-0.167
-662.989	137.971	-0.217	0.290
-661.974	180.882	0.030	-0.045
-660.959	800.000	-0.049	0.196
-659.945	396.220	0.127	0.270
-658.930	-116.206	-0.115	0.022
-657.916	47.033	-0.026	0.025
-656.901	239.586	0.084	0.142
-655.886	800.000	-0.059	-0.222
-654.872	152.364	-0.127	-0.176
-653.857	-200.000	-0.007	-0.286
-652.843	388.923	0.051	-0.107
-651.828	40.776	0.052	0.048
-650.814	-28.622	-0.067	-0.040
-649.799	-200.000	-0.019	-0.200
-648.784	-200.000	0.015	-0.296
-647.770	800.000	0.091	0.337
-646.755	132.451	-0.101	-0.132
-645.741	7.943	0.120	0.091
-644.726	-11.154	-0.100	-0.067
-643.711	-200.000	-0.049	-0.310
-642.697	198.193	0.181	-0.281
-641.682	-138.782	0.108	-0.012
-640.668	-149.305	-0.143	0.012
-639.653	688.874	0.032	-0.085
-638.638	51.627	-0.154	-0.149
-637.624	167.136	-0.094	0.135
-636.609	-143.319	0.440	0.043
-635.595	220.779	-0.079	-0.130
-634.580	-200.000	0.000	-0.431
-633.565	-200.000	0.065	-0.347
-632.551	624.243	-0.056	0.143
-631.536	109.772	-0.155	-0.190
-630.522	351.542	0.062	0.126
-629.507	147.202	0.241	0.331
-628.492	-94.208	0.024	-0.007
-627.478	8.314	-0.119	-0.091
-626.463	-96.406	0.048	0.013
-625.449	159.424	0.197	-0.280
-624.434	-193.158	-0.238	0.002
-623.419	-200.000	0.040	-0.223
-622.405	-200.000	0.005	0.158
-621.390	-200.000	-0.028	-0.125
-620.376	800.000	0.029	-0.093
-619.361	12.357	0.231	0.182
-618.346	-165.048	-0.258	-0.012
-617.332	-47.874	-0.192	-0.095
-616.317	22.700	-0.199	-0.166
-615.303	-200.000	0.001	0.126
-614.288	-200.000	-0.023	0.212
-613.273	12.548	0.145	0.114
-612.259	-82.646	-0.169	0.056
-611.244	658.690	-0.059	0.155
-610.230	-200.000	-0.089	0.470
-609.215	-115.782	0.291	0.055
-608.201	-25.095	0.246	-0.148
-607.186	-200.000	-0.016	0.153
-606.171	42.512	0.214	0.198
-605.157	-77.793	-0.344	-0.121
-604.142	7.254	-0.044	0.034
-603.128	175.557	0.102	0.151
-602.113	800.000	-0.087	-0.250
-601.098	-65.521	0.172	-0.070
-600.084	800.000	-0.046	0.199
-599.069	-200.000	-0.027	-0.210
-598.055	-157.765	0.195	0.012
-597.040	379.950	-0.154	-0.320
-596.025	-66.389	-0.161	0.065
-595.011	-200.000	-0.051	-0.285
-593.996	-200.000	-0.023	0.397
-592.982	-90.748	0.180	0.053
-591.967	98.071	0.093	0.109
-590.952	-13.522	-0.079	-0.052
-589.938	-66.453	-0.173	-0.070
-588.923	-200.000	0.017	0.116
-587.909	70.723	0.204	0.214
-586.894	94.453	0.052	-0.060
-585.879	-200.000	-0.033	0.332
-584.865	346.656	-0.078	0.156
-583.850	51.818	0.224	0.217
-582.836	111.624	-0.080	-0.098
-581.821	338.081	0.021	0.042
-580.806	-153.434	-0.255	-0.018
-579.792	-53.009	-0.182	-0.085
-578.777	713.629	0.084	0.227
-577.763	-156.263	0.169	-0.011
-576.748	404.253	-0.079	0.170
-575.733	324.766	-0.076	-0.147
-574.719	-200.000	-0.048	-0.436
-573.704	-200.000	-0.047	0.227
-572.690	300.003	0.122	0.228
-571.675	324.115	0.008	0.015
-570.661	800.000	-0.038	-0.168
-569.646	-134.305	0.137	0.017
-568.631	123.649	-0.251	-0.320
-567.617	0.479	0.257	-0.187
-566.602	-200.000	0.008	-0.169
-565.588	89.586	-0.052	-0.059
-564.573	-200.000	0.062	-0.278
-563.558	-125.112	0.169	0.026
-562.544	32.299	0.128	0.112
-561.529	132.103	-0.267	0.349
-560.515	-113.006	0.130	0.026
-559.500	-51.914	-0.263	0.124
-558.485	45.817	-0.323	-0.303
-557.471	-200.000	0.034	-0.196
-556.456	-200.000	-0.010	-0.068
-555.442	800.000	-0.034	-0.104
-554.427	800.000	-0.020	0.069
-553.412	-73.646	-0.223	-0.082
-552.398	687.795	-0.146	-0.387
-551.383	-48.810	-0.218	-0.106
-550.369	-200.000	0.059	-0.265
-549.354	776.082	0.034	0.094
-548.339	28.052	-0.191	0.164
-547.325	-105.574	-0.169	0.039
-546.310	664.123	0.046	-0.121
-545.296	-90.627	-0.063	-0.018
-544.281	800.000	-0.058	-0.190
-543.266	-9.314	0.280	-0.190
-542.252	499.107	-0.077	0.179
-541.237	800.000	0.084	-0.239
-540.223	800.000	0.068	-0.226
-539.208	-62.400	-0.091	-0.038
-538.193	24.763	-0.316	-0.266
-537.179	-14.854	-0.269	0.175
-536.164	-126.239	-0.259	0.039
-535.150	800.000	-0.076	-0.255
-534.135	-200.000	-0.027	-0.227
-533.121	111.822	0.186	0.228
-532.106	21.218	-0.124	0.102
-531.091	-3.711	0.183	0.129
-530.077	-200.000	0.001	0.016
-529.062	-69.822	-0.197	0.076
-528.048	800.000	0.087	0.309
-527.033	39.931	-0.058	0.053
-526.018	540.539	-0.043	0.103
-525.004	55.132	0.189	0.185
-523.989	-80.696	-0.351	0.118
-522.975	800.000	-0.012	0.049
-521.960	46.128	0.266	0.250
-520.945	116.443	-0.186	-0.231
-519.931	-200.000	0.024	-0.237
-518.916	-200.000	-0.047	0.212
-517.902	183.973	0.147	0.220
-516.887	-200.000	0.008	0.230
-515.872	1.045	0.102	-0.074
-514.858	-200.000	-0.011	-0.159
-513.843	163.412	-0.109	0.156
-512.829	-92.685	-0.244	-0.069
-511.814	-181.374	0.267	0.005
-510.799	524.958	0.026	-0.062
-509.785	-200.000	0.031	0.153
-508.770	69.316	0.260	-0.271
-507.756	480.326	0.171	0.393
-506.741	-200.000	-0.197	0.000
-505.726	-85.642	0.285	-0.090
-504.712	-96.681	0.447	0.119
-503.697	-173.059	-0.162	-0.005
-502.683	-95.414	0.230	-0.063
-501.668	-60.297	-0.296	-0.128
-500.653	88.370	0.148	-0.167
-499.639	-126.096	0.067	0.010
-498.624	213.175	0.046	-0.074
-497.610	-200.000	-0.039	-0.196
-496.595	-153.946	0.403	-0.028
-495.581	-200.000	0.041	-0.306
-494.566	-200.000	-0.429	0.002
-493.551	-200.000	-0.026	-0.264
-492.537	-200.000	0.006	-0.152
-491.522	155.140	-0.176	0.246
-490.508	-132.849	0.101	-0.013
-489.493	800.000	-0.045	0.128
-488.478	268.207	-0.120	0.213
-487.464	13.904	0.351	0.277
-486.449	301.037	0.034	-0.064
-485.435	-21.885	-0.344	-0.212
-484.420	-24.683	0.164	0.099
-483.405	110.073	0.039	-0.048
-482.391	-135.337	0.175	-0.021
-481.376	253.450	-0.135	0.233
-480.362	-200.000	-0.001	-0.372
-479.347	-18.371	0.336	-0.213
-478.332	147.872	-0.134	-0.182
-477.318	-200.000	0.012	-0.225
-476.303	54.608	-0.145	-0.142
-475.289	-58.663	-0.131	0.057
-474.274	-200.000	-0.015	-0.226
-473.259	-200.000	-0.017	0.129
-472.245	-50.968	-0.180	-0.085
-471.230	57.168	0.118	0.117
-470.216	43.499	0.189	-0.175
-469.201	-76.354	0.356	0.127
-468.186	-200.000	0.007	-0.115
-467.172	-12.109	0.245	-0.163
-466.157	800.000	0.054	-0.188
-465.143	-25.165	-0.230	-0.138
-464.128	-200.000	0.023	0.247
-463.113	-200.000	-0.013	-0.061
-462.099	-200.000	-0.014	-0.328
-461.084	-59.607	-0.288	-0.125
-460.070	238.338	-0.196	0.330
-459.055	62.219	0.173	0.174
-458.040	66.576	-0.147	-0.152
-457.026	-200.000	-0.001	-0.088
-456.011	-193.467	0.162	-0.001
-454.997	522.556	0.061	-0.146
-453.982	89.257	-0.068	-0.077
-452.968	58.718	-0.040	-0.040
-451.953	11.896	-0.052	-0.040
-450.938	-200.000	0.032	0.155
-449.924	-200.000	0.020	-0.248
-448.909	-200.000	-0.024	0.114
-447.895	-56.814	-0.193	-0.086
-446.880	-170.957	0.233	-0.008
-445.865	638.079	-0.028	-0.072
-444.851	-200.000	-0.010	0.268
-443.836	800.000	-0.113	-0.433
-442.822	-64.745	-0.061	0.025
-441.807	-69.200	-0.361	0.140
-440.792	800.000	-0.055	0.192
-439.778	-104.780	-0.351	-0.082
-438.763	180.841	0.038	-0.056
-437.749	55.995	-0.028	-0.027
-436.734	800.000	0.039	0.150
-435.719	800.000	-0.065	0.268
-434.705	-177.770	0.196	-0.005
-433.690	-137.651	0.186	-0.021
-432.676	-99.743	-0.349	-0.088
-431.661	-120.719	-0.031	-0.005
-430.646	-14.948	0.096	0.062
-429.632	137.263	0.147	-0.194
-428.617	182.537	-0.136	-0.202
-427.603	2.667	-0.110	-0.081
-426.588	-119.049	-0.109	-0.019
-425.573	69.430	-0.150	0.156
-424.559	-93.403	-0.334	0.094
-423.544	-115.697	0.138	0.026
-422.530	551.239	-0.153	-0.371
-421.515	-39.145	-0.209	-0.111
-420.500	-108.099	0.233	-0.051
-419.486	88.230	-0.146	0.164
-418.471	-60.631	0.159	0.068
-417.457	800.000	-0.038	-0.121
-416.442	-99.212	0.303	-0.077
-415.428	84.312	0.082	-0.091
-414.413	-88.002	0.342	-0.104
-413.398	433.250	0.031	0.068
-412.384	-200.000	0.003	0.059
-411.369	-70.474	0.169	0.065
-410.355	502.801	-0.142	-0.332
-409.340	-153.563	0.086	0.006
-408.325	-115.777	0.464	0.088
-407.311	800.000	-0.089	-0.272
-406.296	-180.174	-0.522	0.011
-405.282	-133.759	-0.217	-0.027
-404.267	800.000	-0.067	-0.227
-403.252	-74.221	-0.314	0.115
-402.238	210.021	-0.079	0.125
-401.223	-123.928	0.076	-0.012
-400.209	-12.125	-0.118	0.078
-399.194	-9.363	-0.095	0.064
-398.179	800.000	0.033	-0.114
-397.165	-200.000	0.012	-0.240
-396.150	116.278	0.166	0.205
-395.136	-78.950	-0.178	0.061
-394.121	125.714	0.043	0.055
-393.106	24.038	0.234	-0.195
-392.092	184.587	0.104	-0.156
-391.077	-200.000	0.021	0.208
-390.063	119.833	-0.190	-0.238
-389.048	800.000	-0.070	-0.243
-388.033	487.658	0.136	0.314
-387.019	-113.155	-0.097	0.019
-386.004	433.903	-0.093	-0.204
-384.990	51.523	-0.138	-0.132
-383.975	465.013	-0.092	-0.207
-382.960	-107.557	-0.161	-0.036
-381.946	-104.111	0.436	0.102
-380.931	800.000	0.041	0.170
-379.917	-200.000	-0.025	-0.128
-378.902	-185.076	0.174	0.003
-377.888	49.052	-0.187	-0.177
-376.873	-200.000	-0.004	-0.201
-375.858	-35.133	-0.495	-0.272
-374.844	-84.288	0.086	0.027
-373.829	308.482	0.057	0.107
-372.815	-80.329	0.248	-0.084
-371.800	44.731	-0.224	-0.208
-370.785	-200.000	-0.018	-0.273
-369.771	58.048	-0.044	-0.043
-368.756	347.010	-0.018	0.035
-367.742	133.104	0.215	0.280
-366.727	92.524	-0.215	0.245
-365.712	-151.249	0.321	0.024
-364.698	98.431	0.108	-0.126
-363.683	800.000	-0.052	0.152
-362.669	-60.679	0.043	-0.018
-361.654	-157.027	0.133	-0.008
-360.639	-89.314	-0.184	-0.055
-359.625	-24.159	0.163	-0.098
-358.610	293.920	0.091	-0.168
-357.596	-200.000	0.000	0.128
-356.581	-107.987	-0.104	-0.023
-355.566	451.443	0.102	0.227
-354.552	800.000	0.022	0.097
-353.537	-47.528	0.114	0.056
-352.523	-120.251	0.388	-0.067
-351.508	73.732	0.128	-0.135
-350.493	2.852	-0.052	0.038
-349.479	-31.546	-0.057	-0.032
-348.464	-130.830	0.243	0.033
-347.450	-70.684	0.346	0.132
-346.435	-18.736	-0.139	0.087
-345.420	-99.572	-0.242	0.061
-344.406	-9.470	-0.112	0.075
-343.391	-4.259	-0.387	0.270
-342.377	348.740	-0.064	-0.127
-341.362	50.563	0.248	0.236
-340.348	56.426	-0.144	-0.141
-339.333	117.458	0.296	0.367
-338.318	-65.620	0.116	0.047
-337.304	-27.580	-0.311	-0.182
-336.289	-13.767	0.412	0.268
-335.275	-141.311	-0.293	-0.030
-334.260	-53.858	-0.074	-0.034
-333.245	-118.651	0.281	0.050
-332.231	-200.000	-0.009	-0.055
-331.216	-57.213	0.227	0.101
-330.202	536.584	-0.080	0.191
-329.187	-53.521	-0.179	0.082
-328.172	-130.418	-0.405	0.055
-327.158	100.943	-0.134	-0.156
-326.143	-7.101	0.143	0.098
-325.129	1.301	-0.261	0.189
-324.114	-70.706	0.134	0.051
-323.099	-101.878	-0.419	-0.102
-322.085	-200.000	0.056	0.338
-321.070	-73.571	-0.160	-0.059
-320.056	13.281	-0.229	0.178
-319.041	-105.475	0.067	0.015
-318.026	74.050	0.071	0.075
-317.012	390.544	0.080	0.167
-315.997	58.022	-0.215	0.212
-314.983	21.162	-0.137	0.112
-313.968	-55.558	-0.147	0.066
-312.953	-164.318	0.099	0.005
-311.939	159.986	0.194	-0.273
-310.924	-96.027	0.041	0.011
-309.910	-140.472	-0.374	0.039
-308.895	-200.000	-0.008	0.208
-307.880	-148.647	-0.242	0.020
-306.866	39.614	-0.108	-0.098
-305.851	292.047	0.128	-0.235
-304.837	85.134	0.261	0.288
-303.822	118.516	0.228	-0.283
-302.807	-78.883	0.164	-0.056
-301.793	-63.398	-0.261	0.108
-300.778	149.816	-0.018	-0.025
-299.764	-81.162	0.226	-0.075
-298.749	529.226	-0.205	0.486
-297.735	-116.656	0.037	-0.007
-296.720	148.286	-0.012	-0.016
-295.705	292.443	-0.009	-0.016
-294.691	10.424	-0.062	-0.048
-293.676	-200.000	0.000	0.006
-292.662	284.394	-0.154	-0.278
-291.647	0.655	0.074	0.053
-290.632	59.587	0.152	0.150
-289.618	-21.024	0.119	0.073
-288.603	123.679	0.152	0.191
-287.589	800.000	-0.061	-0.215
-286.574	-105.394	0.164	-0.037
-285.559	55.142	-0.331	-0.321
-284.545	170.797	-0.107	0.154
-283.530	-60.563	0.195	0.083
-282.516	-200.000	-0.003	-0.308
-281.501	800.000	-0.027	-0.105
-280.486	-68.574	-0.206	-0.080
-279.472	800.000	0.142	0.456
-278.457	800.000	0.044	0.133
-277.443	-27.726	-0.088	0.051
-276.428	380.713	-0.151	0.310
-275.413	56.109	0.191	0.187
-274.399	233.833	0.112	0.184
-273.384	37.117	0.266	0.237
-272.370	181.696	0.100	-0.148
-271.355	-200.000	0.003	-0.110
-270.340	-43.816	-0.399	-0.202
-269.326	-46.049	0.182	-0.090
-268.311	-2.428	-0.178	-0.125
-267.297	-84.121	0.096	0.031
-266.282	18.917	-0.278	-0.224
-265.267	161.347	0.197	0.277
-264.253	96.174	0.124	0.142
-263.238	41.903	-0.094	0.086
-262.224	-113.721	-0.244	0.048
-261.209	126.380	0.039	-0.049
-260.195	13.128	-0.103	0.080
-259.180	-14.570	-0.274	0.177
-258.165	-129.124	0.342	-0.048
-257.151	800.000	0.082	0.302
-256.136	-102.377	0.226	-0.054
-255.122	405.241	0.187	0.396
-254.107	222.960	0.031	0.050
-253.092	-76.044	0.190	-0.067
-252.078	1.107	-0.350	0.252
-251.063	-65.412	-0.159	0.064
-250.049	66.677	-0.143	0.146
-249.034	339.839	0.117	0.228
-248.019	85.937	-0.029	-0.032
-247.005	6.987	0.068	-0.051
-245.990	-10.063	-0.191	-0.128
-244.976	800.000	-0.042	0.159
-243.961	28.682	-0.096	-0.082
-242.946	-32.869	-0.148	-0.082
-241.932	-167.153	0.153	0.006
-240.917	-107.086	-0.285	0.063
-239.903	58.844	-0.042	0.042
-238.888	237.677	-0.018	-0.031
-237.873	-53.029	0.446	-0.206
-236.859	-30.973	0.180	-0.102
-235.844	337.022	0.190	0.370
-234.830	-75.745	0.176	0.063
-233.815	-27.568	0.545	-0.317
-232.800	476.913	0.069	0.156
-231.786	299.602	-0.075	-0.139
-230.771	-184.966	0.202	-0.003
-229.757	-147.340	-0.324	0.028
-228.742	-76.507	0.259	-0.091
-227.727	-200.000	0.006	-0.169
-226.713	-134.526	0.156	0.019
-225.698	-55.059	-0.076	-0.034
-224.684	276.077	-0.080	-0.142
-223.669	217.594	-0.178	-0.285
-222.655	-94.994	0.065	0.018
-221.640	145.642	0.118	0.158
-220.625	63.229	0.090	0.090
-219.611	249.284	-0.108	0.183
-218.596	-13.235	0.026	0.017
-217.582	-144.090	-0.259	-0.024
-216.567	8.292	0.211	-0.159
-215.552	-200.000	-0.009	-0.149
-214.538	-200.000	-0.007	-0.236
-213.523	231.596	0.189	-0.311
-212.509	-27.016	0.373	-0.218
-211.494	158.031	0.214	-0.297
-210.479	-11.930	0.249	-0.163
-209.465	800.000	-0.119	-0.333
-208.450	-115.369	0.173	-0.033
-207.436	40.334	-0.129	0.117
-206.421	161.882	-0.086	-0.121
-205.406	9.841	-0.059	0.045
-204.392	348.717	-0.122	0.240
-203.377	-86.304	-0.119	0.037
-202.363	-200.000	0.024	-0.140
-201.348	800.000	0.136	0.385
-200.333	-94.592	0.120	-0.033
-199.319	53.798	0.159	-0.153
-198.304	-101.771	0.316	0.077
-197.290	800.000	-0.051	-0.205
-196.275	-100.147	-0.234	0.058
-195.260	-97.094	0.183	-0.048
-194.246	-200.000	0.069	0.569
-193.231	93.142	0.180	0.204
-192.217	-38.487	-0.261	-0.138
-191.202	-200.000	0.053	0.482
-190.187	-22.761	0.142	-0.086
-189.173	-200.000	0.017	0.317
-188.158	196.846	-0.094	0.143
-187.144	5.543	-0.182	0.134
-186.129	800.000	-0.067	-0.188
-185.114	269.419	0.209	0.367
-184.100	75.704	0.061	0.065
-183.085	16.541	0.088	-0.070
-182.071	800.000	-0.075	0.256
-181.056	220.273	0.215	0.345
-180.042	173.242	-0.114	0.165
-179.027	20.868	0.103	-0.084
-178.012	-145.013	0.382	0.035
-176.998	-92.822	-0.385	0.108
-175.983	-62.561	-0.339	-0.141
-174.969	114.848	0.164	-0.200
-173.954	-65.455	-0.245	0.099
-172.939	-22.158	0.185	0.112
-171.925	383.113	-0.080	0.165
-170.910	9.601	0.317	0.240
-169.896	799.023	0.135	-0.371
-168.881	200.145	0.193	-0.296
-167.866	800.000	-0.085	-0.317
-166.852	29.492	0.254	0.216
-165.837	290.172	0.124	0.226
-164.823	10.292	-0.188	-0.143
-163.808	-39.657	-0.237	0.124
-162.793	772.205	0.067	0.182
-161.779	154.719	0.037	-0.051
-160.764	-50.016	-0.702	-0.333
-159.750	27.486	-0.038	-0.032
-158.735	552.048	-0.097	0.233
-157.720	416.074	0.152	0.323
-156.706	62.640	0.241	0.240
-155.691	800.000	-0.044	-0.134
-154.677	-200.000	-0.043	0.228
-153.662	-168.199	0.351	-0.014
-152.647	24.510	0.178	0.148
-151.633	28.123	-0.308	0.260
-150.618	229.312	-0.081	-0.132
-149.604	376.329	0.079	-0.160
-148.589	295.392	-0.096	0.177
-147.574	-17.347	-0.103	0.065
-146.560	621.846	-0.091	0.229
-145.545	-148.612	0.322	-0.026
-144.531	-1.146	0.102	-0.072
-143.516	331.312	0.182	0.350
-142.502	64.090	-0.145	0.146
-141.487	-200.000	0.030	0.289
-140.472	-147.933	0.132	-0.011
-139.458	739.394	-0.147	-0.395
-138.443	-172.138	0.161	0.005
-137.429	800.000	0.065	0.255
-136.414	800.000	-0.008	-0.027
-135.399	30.914	0.149	0.127
-134.385	-70.644	-0.399	0.151
-133.370	800.000	0.115	-0.405
-132.356	341.400	-0.046	0.090
-131.341	105.980	-0.149	-0.176
-130.326	518.699	0.019	-0.045
-129.312	57.219	-0.217	-0.211
-128.297	307.397	0.064	-0.119
-127.283	-123.859	0.296	0.047
-126.268	-200.000	0.028	-0.151
-125.253	3.825	0.183	0.134
-124.239	-6.354	0.318	-0.217
-123.224	-200.000	0.005	0.217
-122.210	16.302	-0.357	0.281
-121.195	-52.334	-0.060	0.028
-120.180	-200.000	-0.045	-0.212
-119.166	49.446	-0.116	-0.109
-118.151	-96.125	0.352	-0.093
-117.137	-0.600	-0.276	0.195
-116.122	-200.000	0.043	0.193
-115.107	800.000	-0.025	-0.109
-114.093	546.739	0.083	0.197
-113.078	-200.000	0.006	-0.183
-112.064	-200.000	0.002	0.154
-111.049	-154.992	0.198	-0.013
-110.034	147.022	0.092	0.124
-109.020	186.073	0.131	0.194
-108.005	409.498	-0.097	0.205
-106.991	53.913	0.224	0.215
-105.976	-199.094	-0.272	0.001
-104.962	-134.521	0.301	0.037
-103.947	-200.000	0.013	0.149
-102.932	-134.026	-0.143	-0.018
-101.918	-63.568	-0.301	0.123
-100.903	-21.806	-0.113	-0.069
-99.889	-200.000	-0.009	-0.124
-98.874	-137.779	0.240	0.027
-97.859	-35.132	0.069	-0.037
-96.845	398.684	0.034	-0.070
-95.830	41.449	-0.119	0.107
-94.816	-200.000	-0.014	0.121
-93.801	435.873	-0.098	-0.213
-92.786	-54.193	0.199	-0.090
-91.772	133.650	0.154	0.199
-90.757	800.000	-0.052	-0.159
-89.743	-29.159	-0.201	0.115
-88.728	-168.568	-0.194	-0.007
-87.713	276.268	0.144	0.255
-86.699	390.051	0.173	0.357
-85.684	-104.805	0.211	0.048
-84.670	800.000	-0.132	-0.412
-83.655	-135.393	0.269	-0.032
-82.640	91.483	0.029	-0.033
-81.626	800.000	0.079	-0.281
-80.611	-200.000	-0.016	0.276
-79.597	800.000	0.055	-0.167
-78.582	306.716	0.117	0.218
-77.567	-172.248	-0.145	-0.005
-76.553	120.552	0.057	0.070
-75.538	5.926	0.349	-0.257
-74.524	-200.000	-0.040	-0.234
-73.509	161.167	0.068	-0.095
-72.494	800.000	0.115	-0.329
-71.480	239.726	0.140	-0.233
-70.465	-200.000	-0.038	-0.371
-69.451	514.688	0.109	-0.253
-68.436	73.240	-0.171	0.178
-67.422	-200.000	-0.017	-0.404
-66.407	-168.084	-0.285	0.011
-65.392	800.000	-0.043	-0.138
-64.378	191.921	-0.174	0.262
-63.363	-31.494	-0.104	0.058
-62.349	58.664	-0.167	0.164
-61.334	96.482	-0.645	-0.735
-60.319	41.142	0.193	0.174
-59.305	-200.000	0.143	-0.903
-58.290	450.601	0.380	0.835
-57.276	800.000	0.361	1.516
-56.261	-200.000	80.215	496.399
-55.246	461.654	1376.081	3055.594
-54.232	142.360	2612.386	3452.249
-53.217	109.809	2258.929	2696.904
-52.203	49.171	1704.889	1595.046
-51.188	41.776	1432.801	1292.844
-50.173	38.562	1388.303	1232.459
-49.159	56.097	1428.137	1379.941
-48.144	60.984	1446.228	1428.511
-47.130	42.325	1407.217	1273.044
-46.115	38.528	1389.913	1233.476
-45.100	38.309	1385.309	1227.965
-44.086	38.210	1383.242	1225.462
-43.071	38.347	1380.197	1223.577
-42.057	38.137	1378.725	1220.908
-41.042	38.396	1376.408	1220.425
-40.027	38.250	1375.281	1218.467
-39.013	38.390	1373.032	1217.297
-37.998	38.166	1372.037	1214.976
-36.984	38.524	1369.363	1214.782
-35.969	38.471	1367.430	1212.689
-34.954	38.629	1365.535	1211.939
-33.940	38.535	1364.023	1209.967
-32.925	38.607	1362.715	1209.200
-31.911	38.550	1361.574	1207.795
-30.896	38.575	1359.889	1206.406
-29.881	38.564	1358.503	1205.056
-28.867	38.521	1357.575	1203.925
-27.852	38.534	1355.617	1202.220
-26.838	38.572	1354.144	1201.097
-25.823	38.504	1353.012	1199.628
-24.809	38.588	1351.288	1198.569
-23.794	38.668	1349.538	1197.453
-22.779	38.451	1348.791	1195.418
-21.765	38.585	1347.046	1194.645
-20.750	38.507	1345.573	1192.817
-19.736	38.373	1344.450	1190.957
-18.721	38.336	1343.419	1189.770
-17.706	38.462	1342.092	1189.315
-16.692	38.386	1340.844	1187.699
-15.677	38.410	1339.756	1186.834
-14.663	38.434	1338.694	1185.993
-13.648	38.457	1337.505	1185.033
-12.633	38.307	1337.002	1183.627
-11.619	38.435	1335.849	1183.338
-10.604	38.361	1335.043	1182.129
-9.590	38.384	1333.947	1181.247
-8.575	38.374	1332.947	1180.258
-7.560	38.347	1332.029	1179.232
-6.546	38.356	1331.142	1178.456
-5.531	38.276	1330.470	1177.331
-4.517	38.328	1329.625	1176.850
-3.502	38.318	1328.493	1175.743
-2.487	38.425	1327.267	1175.254
-1.473	38.429	1324.276	1172.582
-0.458	37.830	1309.452	1155.858
0.556	33.068	1290.817	1116.836
1.571	28.370	1293.627	1091.267
2.586	26.123	1307.581	1089.397
3.600	24.708	1295.154	1070.483
4.615	17.872	1215.742	966.195
5.629	6.519	1130.343	838.175
6.644	0.907	1105.831	790.671
7.659	0.365	1103.133	785.846
8.673	0.217	1102.072	784.249
9.688	0.084	1100.875	782.639
10.702	0.494	1099.175	783.489
11.717	6.341	1107.755	820.062
12.731	15.584	1120.590	878.001
13.746	18.453	1123.113	894.903
14.761	17.264	1120.604	886.627
15.775	16.336	1117.998	879.654
16.790	15.101	1116.537	872.001
17.804	14.383	1114.867	866.887
18.819	14.078	1113.610	864.247
19.834	13.793	1112.572	861.881
20.848	13.515	1111.792	859.762
21.863	13.299	1110.400	857.485
22.877	13.170	1109.586	856.114
23.892	13.106	1109.245	855.441
24.907	13.035	1108.352	854.312
25.921	13.142	1107.870	854.418
26.936	12.966	1107.025	852.782
27.950	13.157	1105.885	852.813
28.965	13.249	1104.360	852.039
29.980	13.278	1102.949	851.022
30.994	13.268	1101.953	850.128
32.009	13.375	1100.875	849.767
33.023	13.370	1099.967	848.968
34.038	13.291	1098.988	847.733
35.053	13.212	1098.239	846.676
36.067	13.251	1097.143	845.956
37.082	13.297	1096.106	845.318
38.096	13.229	1095.806	844.663
39.111	13.326	1094.571	844.130
40.126	13.310	1093.916	843.467
41.140	13.055	1092.228	840.793
42.155	13.093	1090.975	839.950
43.169	13.193	1089.657	839.366
44.184	12.963	1089.116	837.708
45.199	13.068	1088.022	837.323
46.213	13.157	1086.499	836.528
47.228	13.048	1085.851	835.403
48.242	13.222	1084.477	835.154
49.257	13.049	1083.976	833.818
50.271	13.214	1082.852	833.716
51.286	13.255	1081.867	833.090
52.301	13.265	1080.892	832.313
53.315	13.115	1079.764	830.616
54.330	13.129	1078.761	829.845
55.344	13.187	1077.408	829.018
56.359	12.994	1077.099	827.742
57.374	13.079	1075.865	827.146
58.388	13.199	1074.528	826.643
59.403	13.076	1073.674	825.297
60.417	13.029	1073.488	824.851
61.432	13.046	1072.323	823.967
62.447	12.956	1071.620	822.905
63.461	12.978	1070.599	822.157
64.476	12.923	1070.025	821.370
65.490	13.090	1068.925	821.281
66.505	13.003	1068.653	820.570
67.520	13.115	1067.423	820.109
68.534	13.114	1066.912	819.637
69.549	13.116	1066.120	818.967
70.563	13.115	1064.970	818.007
71.578	13.047	1064.220	817.020
72.593	12.949	1063.457	815.877
73.607	12.880	1062.843	814.996
74.622	13.039	1061.862	814.955
75.636	12.850	1061.644	813.780
76.651	12.956	1060.289	813.195
77.666	12.938	1059.819	812.672
78.680	12.899	1059.320	812.024
79.695	12.954	1058.590	811.665
80.709	13.052	1058.253	811.818
81.724	13.093	1057.242	811.171
82.739	13.044	1056.872	810.576
83.753	13.162	1055.838	810.287
84.768	13.220	1054.872	809.760
85.782	13.365	1053.589	809.415
86.797	13.299	1052.814	808.424
87.812	13.120	1052.400	807.158
88.826	13.304	1051.170	807.044
89.841	13.259	1049.914	805.787
90.855	13.108	1049.374	804.566
91.870	13.205	1048.778	804.510
92.884	13.299	1047.392	803.831
93.899	13.259	1046.630	802.983
94.914	13.495	1045.337	803.062
95.928	13.355	1044.538	801.702
96.943	13.260	1044.098	800.833
97.957	13.281	1043.183	800.162
98.972	13.409	1041.816	799.660
99.987	13.275	1041.340	798.576
101.001	13.344	1040.386	798.107
102.016	13.252	1039.698	797.068
103.030	13.280	1038.841	796.472
104.045	13.323	1038.036	795.991
105.060	13.296	1037.265	795.203
106.074	13.143	1036.384	793.721
107.089	13.089	1035.225	792.501
108.103	13.064	1034.213	791.538
109.118	13.220	1033.088	791.353
110.133	13.100	1032.398	790.179
111.147	13.272	1031.250	790.056
112.162	13.190	1030.589	789.088
113.176	13.221	1030.023	788.733
114.191	13.257	1028.733	787.847
115.206	13.250	1028.350	787.450
116.220	13.220	1027.428	786.529
117.235	13.302	1026.420	786.078
118.249	13.220	1025.259	784.730
119.264	13.226	1025.056	784.536
120.279	13.189	1024.219	783.651
121.293	13.189	1022.633	782.366
122.308	13.273	1022.252	782.406
123.322	13.116	1021.237	780.817
124.337	13.362	1019.895	780.882
125.352	13.117	1019.229	779.145
126.366	13.135	1018.235	778.404
127.381	13.266	1016.665	777.749
128.395	13.187	1016.256	776.998
129.410	13.221	1014.800	775.974
130.424	13.224	1014.379	775.598
131.439	13.350	1013.389	775.364
132.454	13.268	1012.763	774.433
133.468	13.202	1012.216	773.637
134.483	13.294	1010.547	772.723
135.497	13.381	1009.583	772.321
136.512	13.404	1008.830	771.787
137.527	13.442	1007.601	770.954
138.541	13.304	1007.086	769.852
139.556	13.315	1006.791	769.605
140.570	13.331	1005.875	768.913
141.585	13.432	1004.860	768.537
142.600	13.441	1004.011	767.861
143.614	13.345	1003.481	766.942
144.629	13.385	1002.583	766.376
145.643	13.617	1001.112	766.255
146.658	13.465	999.718	764.417
147.673	13.391	999.119	763.554
148.687	13.355	998.610	762.928
149.702	13.365	997.733	762.239
150.716	13.206	997.171	761.010
151.731	13.323	996.381	760.877
152.746	13.372	995.425	760.306
153.760	13.479	994.679	760.159
154.775	13.412	994.274	759.476
155.789	13.362	993.774	758.798
156.804	13.439	992.861	758.387
157.819	13.442	991.994	757.669
158.833	13.540	991.066	757.342
159.848	13.533	990.716	756.977
160.862	13.452	989.574	755.664
161.877	13.305	988.719	754.277
162.892	13.480	987.786	754.296
163.906	13.466	986.292	753.025
164.921	13.567	985.597	752.884
165.935	13.521	984.824	752.018
166.950	13.642	983.589	751.560
167.964	13.592	982.869	750.714
168.979	13.473	981.693	749.210
169.994	13.533	981.080	748.949
171.008	13.593	980.359	748.604
172.023	13.644	979.680	748.250
173.037	13.790	978.915	748.258
174.052	13.681	978.150	747.114
175.067	13.528	977.585	745.928
176.081	13.590	976.785	745.529
177.096	13.472	976.502	744.719
178.110	13.526	975.489	744.122
179.125	13.505	975.062	743.636
180.140	13.589	974.798	743.748
181.154	13.743	973.824	743.627
182.169	13.714	973.176	742.940
183.183	13.754	972.478	742.520
184.198	13.865	971.572	742.256
185.213	13.789	971.415	741.732
186.227	13.785	970.375	740.853
187.242	13.672	969.698	739.767
188.256	13.813	969.141	739.904
189.271	13.738	968.586	739.083
190.286	13.746	967.343	738.103
191.300	13.672	966.656	737.185
192.315	13.711	966.212	736.955
193.329	13.618	965.539	735.964
194.344	13.646	964.649	735.344
195.359	13.796	964.146	735.562
196.373	13.879	963.782	735.583
197.388	13.884	963.110	735.029
198.402	13.908	962.819	734.850
199.417	14.085	961.795	734.784
200.432	13.939	961.757	734.045
201.446	14.030	960.969	733.781
202.461	14.005	960.649	733.362
203.475	14.095	959.850	733.085
204.490	14.030	958.944	732.041
205.504	13.986	958.025	731.081
206.519	14.156	956.955	730.946
207.534	14.103	956.588	730.369
208.548	14.061	955.819	729.534
209.563	14.019	955.055	728.701
210.577	14.008	954.624	728.260
211.592	14.066	953.866	727.870
212.607	14.150	953.164	727.639
213.621	14.133	952.369	726.892
214.636	14.273	951.157	726.515
215.650	14.257	950.619	725.971
216.665	14.284	949.918	725.486
217.680	14.297	949.409	725.091
218.694	14.243	948.566	724.148
219.709	14.205	947.964	723.458
220.723	14.247	947.281	723.056
221.738	14.282	946.346	722.430
222.753	14.398	945.586	722.290
223.767	14.258	945.237	721.353
224.782	14.401	944.507	721.350
225.796	14.310	944.153	720.623
226.811	14.367	943.257	720.120
227.826	14.288	942.929	719.467
228.840	14.269	941.837	718.488
229.855	14.229	941.251	717.802
230.869	14.330	940.492	717.598
231.884	14.269	939.645	716.622
232.899	14.371	939.064	716.557
233.913	14.263	938.062	715.263
234.928	14.360	937.340	715.065
235.942	14.317	936.983	714.546
236.957	14.346	936.442	714.194
237.972	14.312	936.045	713.681
238.986	14.301	935.424	713.101
240.001	14.415	934.485	712.807
241.015	14.466	934.157	712.715
242.030	14.306	933.577	711.523
243.045	14.508	932.731	711.677
244.059	14.559	931.984	711.264
245.074	14.616	931.207	710.850
246.088	14.558	930.633	710.101
247.103	14.601	930.043	709.774
248.117	14.617	929.652	709.478
249.132	14.705	928.824	709.156
250.147	14.686	928.456	708.732
251.161	14.776	927.714	708.485
252.176	14.840	926.898	708.072
253.190	14.966	926.017	707.871
254.205	14.821	925.405	706.723
255.220	14.941	924.734	706.658
256.234	14.865	924.117	705.802
257.249	14.969	923.440	705.661
258.263	14.849	922.807	704.611
259.278	14.887	921.992	704.086
260.293	15.023	921.399	704.143
261.307	15.075	920.735	703.792
262.322	15.069	920.116	703.231
263.336	14.967	919.245	702.074
264.351	15.140	918.385	702.080
265.366	15.047	918.175	701.467
266.380	15.019	917.210	700.551
267.395	15.067	916.619	700.241
268.409	14.998	916.129	699.514
269.424	15.146	914.873	699.109
270.439	15.062	914.348	698.298
271.453	15.076	913.528	697.666
272.468	15.138	913.179	697.597
273.482	15.072	912.486	696.730
274.497	15.126	911.668	696.272
275.512	15.106	911.410	695.927
276.526	15.173	910.781	695.664
277.541	15.262	910.211	695.538
278.555	15.124	909.858	694.633
279.570	15.195	909.304	694.445
280.585	15.223	908.078	693.562
281.599	15.228	907.537	693.106
282.614	15.252	907.008	692.744
283.628	15.351	906.187	692.461
284.643	15.298	905.987	692.029
285.657	15.299	904.809	691.075
286.672	15.258	904.548	690.642
287.687	15.352	903.574	690.224
288.701	15.423	902.917	689.953
289.716	15.385	902.711	689.578
290.730	15.334	902.230	688.943
291.745	15.355	901.014	688.037
292.760	15.460	900.652	688.132
293.774	15.401	900.267	687.534
294.789	15.579	899.209	687.396
295.803	15.509	898.213	686.285
296.818	15.465	897.753	685.694
297.833	15.547	896.854	685.280
298.847	15.610	896.079	684.884
299.862	15.643	895.514	684.529
300.876	15.518	895.391	683.862
301.891	15.605	894.958	683.829
302.906	15.577	894.135	683.025
303.920	15.598	893.608	682.647
304.935	15.652	893.087	682.408
305.949	15.772	892.366	682.282
306.964	15.601	891.918	681.185
307.979	15.627	891.125	680.625
308.993	15.647	890.589	680.238
310.008	15.714	889.744	679.800
311.022	15.681	889.460	679.390
312.037	15.822	888.749	679.357
313.052	15.604	888.585	678.293
314.066	15.588	887.630	677.439
315.081	15.669	886.833	677.097
316.095	15.886	885.945	677.230
317.110	15.709	885.931	676.451
318.125	15.804	885.142	676.169
319.139	15.724	884.883	675.588
320.154	15.804	884.073	675.232
321.168	15.795	883.383	674.610
322.183	15.832	882.814	674.264
323.197	15.779	882.415	673.688
324.212	15.791	882.057	673.401
325.227	15.820	881.401	672.957
326.241	15.794	880.850	672.375
327.256	15.906	879.894	672.033
328.270	15.860	879.379	671.395
329.285	15.821	878.682	670.646
330.300	15.874	878.375	670.566
331.314	15.872	877.774	670.039
332.329	15.917	877.139	669.676
333.343	15.964	876.237	669.112
334.358	16.109	876.131	669.550
335.373	15.970	875.999	668.835
336.387	16.064	875.372	668.672
337.402	16.036	875.112	668.301
338.416	16.133	874.740	668.343
339.431	15.865	874.497	667.036
340.446	15.930	874.296	667.083
341.460	16.126	873.682	667.329
342.475	16.140	873.323	667.051
343.489	16.219	872.283	666.512
344.504	16.099	872.146	665.875
345.519	16.269	871.642	666.101
346.533	16.357	870.816	665.759
347.548	16.310	870.546	665.308
348.562	16.228	869.915	664.442
349.577	16.259	869.304	664.038
350.592	16.167	868.646	663.118
351.606	16.165	867.758	662.371
352.621	16.240	867.001	662.030
353.635	16.238	866.771	661.790
354.650	16.367	865.900	661.570
355.665	16.373	865.071	660.902
356.679	16.372	864.827	660.652
357.694	16.511	863.746	660.310
358.708	16.457	863.137	659.575
359.723	16.375	862.647	658.825
360.738	16.177	862.563	657.931
361.752	16.322	861.524	657.643
362.767	16.548	860.940	658.018
363.781	16.423	860.731	657.313
364.796	16.614	859.914	657.374
365.810	16.638	859.593	657.165
366.825	16.607	859.314	656.772
367.840	16.657	858.561	656.332
368.854	16.507	858.308	655.498
369.869	16.613	857.493	655.230
370.883	16.567	857.288	654.838
371.898	16.649	857.158	654.998
372.913	16.569	856.919	654.445
373.927	16.719	856.047	654.302
374.942	16.709	855.088	653.474
375.956	16.716	855.410	653.690
376.971	16.736	854.889	653.310
377.986	16.740	854.567	653.022
379.000	16.784	853.708	652.476
380.015	16.989	852.688	652.427
381.029	16.801	852.812	651.741
382.044	16.895	852.183	651.566
383.059	16.827	851.275	650.553
384.073	16.864	850.978	650.411
385.088	16.753	850.179	649.315
386.102	17.030	848.970	649.396
387.117	16.807	848.942	648.464
388.132	16.955	848.305	648.483
389.146	16.961	847.504	647.838
390.161	16.986	847.498	647.873
391.175	17.023	847.000	647.574
392.190	17.058	846.410	647.201
393.205	17.019	845.757	646.496
394.219	16.915	845.697	645.996
395.234	17.015	845.199	645.938
396.248	16.956	844.831	645.377
397.263	16.889	844.209	644.590
398.278	16.966	843.735	644.460
399.292	16.871	843.341	643.745
400.307	17.005	842.339	643.429
401.321	17.001	841.887	643.014
402.336	17.145	841.584	643.268
403.350	17.142	841.050	642.793
404.365	17.061	840.519	642.023
405.380	17.070	840.609	642.071
406.394	17.163	839.990	641.892
407.409	17.149	839.471	641.387
408.423	17.198	839.063	641.201
409.438	17.219	838.869	641.077
410.453	17.166	838.220	640.325
411.467	17.309	837.864	640.533
412.482	17.301	837.311	640.025
413.496	17.351	837.069	639.970
414.511	17.401	836.618	639.758
415.526	17.435	836.311	639.594
416.540	17.593	835.354	639.398
417.555	17.474	835.261	638.824
418.569	17.390	834.947	638.213
419.584	17.441	834.076	637.680
420.599	17.532	833.643	637.636
421.613	96.016	1277.237	1404.239
422.628	82.980	1341.867	1404.338
