DTS Sentinel unit serial number:	SN413079Multiplexer serial number:	ORYXHardware model number:	OX4-SRSoftware version number:	ORYX F/W v4.00 Oryx Data Collector v3.7.2.0data status	okinstallation	princeton_trtdifferential loss correction	single-endedforward channel	channel 1reverse channel	N/Adate	2019/09/15time	05:30:35forward acquisition time	60.00reverse acquisition time	0.00gamma	496.2192k internal	0.2324k external	0.2324temperature offset calibration	0.9996default loss term (dB/km)	0.3790temperature slope calibration	1.0000multiplexer offset coefficient	1.0000multiplexer slope coefficient	1.0000fibre end	0.00T internal ref (°C)	30.56T ext. ref 1 (°C)	4.76T ext. ref 2 (°C)	25.72length (m)	temperature (°C)	Stokes	anti-Stokes-747.200	506.695	0.122	-0.286
-746.185	470.879	0.064	0.145
-745.171	-110.501	0.184	0.038
-744.156	60.069	-0.218	0.217
-743.142	-114.550	0.188	0.036
-742.127	800.000	0.076	0.252
-741.112	136.272	-0.081	0.106
-740.098	-58.083	-0.054	-0.024
-739.083	535.096	0.078	0.188
-738.069	800.000	0.151	0.607
-737.054	-62.982	0.169	0.071
-736.039	-192.599	-0.255	0.002
-735.025	-11.373	0.165	-0.110
-734.010	800.000	-0.109	0.421
-732.996	-15.794	-0.064	-0.041
-731.981	52.096	0.426	0.410
-730.966	-200.000	-0.142	0.000
-729.952	-200.000	-0.001	-0.025
-728.937	-123.023	0.245	0.040
-727.923	-115.179	-0.289	-0.055
-726.908	-181.466	-0.241	-0.005
-725.894	291.591	0.057	-0.105
-724.879	-200.000	0.066	-0.341
-723.864	-0.602	0.242	-0.173
-722.850	-200.000	0.032	-0.144
-721.835	-80.625	0.292	-0.098
-720.821	-200.000	0.004	0.065
-719.806	147.086	0.047	-0.064
-718.791	-200.000	0.020	0.184
-717.777	-7.039	0.366	0.250
-716.762	5.813	-0.155	-0.115
-715.748	-200.000	0.006	0.160
-714.733	123.839	-0.241	0.305
-713.718	538.211	-0.021	0.050
-712.704	-0.073	0.066	-0.047
-711.689	-164.265	0.276	0.013
-710.675	-140.934	-0.464	-0.048
-709.660	-122.134	0.302	0.050
-708.645	102.802	0.357	-0.421
-707.631	-88.244	-0.334	0.101
-706.616	43.475	-0.333	0.306
-705.602	-5.546	-0.246	0.170
-704.587	-114.026	-0.131	-0.026
-703.572	1.136	0.262	0.189
-702.558	-200.000	0.013	-0.170
-701.543	394.092	0.064	-0.134
-700.529	-112.662	-0.152	0.030
-699.514	-84.074	0.118	-0.038
-698.499	184.589	-0.100	0.149
-697.485	289.748	-0.100	-0.183
-696.470	-67.576	0.248	0.098
-695.456	-64.702	0.120	0.049
-694.441	-200.000	0.012	-0.134
-693.426	-122.545	0.255	-0.042
-692.412	242.384	0.156	-0.263
-691.397	-100.174	-0.173	0.043
-690.383	-128.122	0.217	0.031
-689.368	165.012	-0.089	0.126
-688.354	-140.009	-0.197	0.021
-687.339	56.913	-0.195	-0.192
-686.324	793.907	0.021	-0.058
-685.310	-2.073	0.169	0.120
-684.295	141.436	0.108	-0.144
-683.281	-123.907	-0.136	-0.022
-682.266	-60.407	0.192	-0.082
-681.251	-76.362	0.319	-0.113
-680.237	63.042	-0.126	-0.127
-679.222	36.949	0.130	-0.116
-678.208	16.284	-0.130	-0.103
-677.193	-96.431	-0.519	0.138
-676.178	5.201	-0.254	0.188
-675.164	-200.000	-0.038	0.203
-674.149	-200.000	0.036	-0.240
-673.135	152.930	0.135	0.186
-672.120	47.615	0.030	0.028
-671.105	779.488	-0.027	0.075
-670.091	188.418	0.238	0.358
-669.076	800.000	0.079	0.247
-668.062	27.053	-0.328	0.277
-667.047	700.579	-0.221	0.585
-666.032	-150.180	-0.221	0.017
-665.018	-109.815	-0.041	0.009
-664.003	11.379	0.043	-0.033
-662.989	-144.043	0.198	0.019
-661.974	136.028	-0.105	0.138
-660.959	151.447	-0.222	-0.304
-659.945	-1.987	-0.190	0.134
-658.930	304.354	0.027	-0.051
-657.916	-135.312	0.202	-0.024
-656.901	-46.591	-0.091	0.045
-655.886	-56.991	0.200	-0.089
-654.872	-200.000	-0.018	-0.109
-653.857	-200.000	-0.029	0.144
-652.843	145.305	0.097	0.130
-651.828	-95.654	0.196	-0.053
-650.814	25.303	-0.282	-0.236
-649.799	-200.000	0.015	0.259
-648.784	119.624	-0.299	0.372
-647.770	-60.850	-0.138	-0.059
-646.755	-120.002	-0.306	0.053
-645.741	56.211	-0.107	-0.105
-644.726	-85.859	-0.254	0.079
-643.711	701.960	0.067	-0.178
-642.697	128.485	0.097	-0.125
-641.682	87.252	0.218	-0.242
-640.668	448.267	0.127	-0.282
-639.653	-22.082	-0.157	0.096
-638.638	-32.033	-0.124	-0.070
-637.624	115.595	0.137	-0.168
-636.609	800.000	0.059	-0.183
-635.595	199.628	0.116	0.179
-634.580	192.451	-0.051	-0.077
-633.565	-200.000	0.056	0.339
-632.551	800.000	-0.038	0.117
-631.536	63.133	0.276	0.278
-630.522	579.470	0.034	0.084
-629.507	59.777	-0.037	0.037
-628.492	-82.161	0.170	0.056
-627.478	-99.341	0.315	-0.080
-626.463	28.679	-0.031	-0.027
-625.449	-42.042	0.088	-0.045
-624.434	-200.000	0.052	-0.597
-623.419	-63.275	-0.179	0.074
-622.405	227.399	-0.200	-0.327
-621.390	726.930	-0.108	-0.291
-620.376	263.918	0.064	-0.112
-619.361	-87.935	-0.358	0.108
-618.346	-29.887	-0.188	0.108
-617.332	56.057	-0.141	-0.138
-616.317	-111.889	0.214	0.043
-615.303	-200.000	0.014	0.182
-614.288	-83.010	-0.089	0.029
-613.273	-200.000	-0.028	-0.506
-612.259	-200.000	0.058	-0.281
-611.244	151.986	-0.245	0.335
-610.230	-74.702	-0.308	-0.111
-609.215	23.881	-0.377	-0.312
-608.201	11.792	0.133	-0.103
-607.186	-150.823	0.271	-0.021
-606.171	-22.207	-0.180	-0.110
-605.157	200.968	-0.092	-0.142
-604.142	-56.845	0.388	0.172
-603.128	160.484	-0.117	0.164
-602.113	553.311	-0.019	-0.045
-601.098	-184.030	-0.159	0.003
-600.084	-200.000	-0.026	0.172
-599.069	-200.000	-0.026	-0.136
-598.055	-126.020	-0.420	-0.063
-597.040	231.710	0.044	0.073
-596.025	520.038	-0.080	-0.189
-595.011	-140.185	0.294	0.031
-593.996	158.870	-0.177	-0.247
-592.982	-57.425	0.249	-0.110
-591.967	800.000	0.028	-0.094
-590.952	800.000	0.025	-0.082
-589.938	-73.769	0.354	0.129
-588.923	-200.000	0.010	0.380
-587.909	268.385	-0.097	-0.171
-586.894	198.294	0.064	0.098
-585.879	-200.000	-0.076	0.451
-584.865	554.735	0.075	-0.182
-583.850	800.000	-0.053	0.228
-582.836	6.109	0.046	-0.034
-581.821	-200.000	-0.032	-0.322
-580.806	800.000	-0.053	-0.160
-579.792	6.861	-0.148	0.111
-578.777	97.828	0.187	-0.215
-577.763	129.494	-0.157	-0.201
-576.748	6.330	0.123	0.091
-575.733	-181.854	0.077	-0.001
-574.719	-124.619	-0.311	0.048
-573.704	-200.000	0.009	-0.082
-572.690	47.618	0.370	0.346
-571.675	-94.736	0.251	-0.068
-570.661	542.832	0.048	-0.115
-569.646	340.435	0.073	0.143
-568.631	-200.000	-0.055	0.273
-567.617	4.431	-0.155	0.114
-566.602	329.686	0.027	0.053
-565.588	800.000	-0.040	0.116
-564.573	316.698	-0.130	-0.246
-563.558	21.396	0.268	-0.218
-562.544	-119.665	-0.232	-0.040
-561.529	28.351	0.412	0.349
-560.515	-70.079	0.287	-0.110
-559.500	-109.614	-0.184	0.039
-558.485	273.595	0.130	-0.231
-557.471	46.742	-0.250	-0.233
-556.456	-144.987	-0.125	-0.011
-555.442	-200.000	0.040	0.393
-554.427	470.441	-0.128	0.289
-553.412	98.780	0.180	0.208
-552.398	258.309	0.084	0.145
-551.383	120.176	-0.243	-0.302
-550.369	-28.877	0.114	0.066
-549.354	35.405	-0.178	0.157
-548.339	-45.390	0.052	0.026
-547.325	246.194	-0.096	-0.162
-546.310	156.341	-0.286	-0.396
-545.296	-33.832	0.261	-0.144
-544.281	-200.000	0.006	0.027
-543.266	-200.000	-0.018	0.137
-542.252	-200.000	-0.038	0.174
-541.237	45.602	0.182	-0.168
-540.223	-200.000	-0.002	-0.122
-539.208	268.767	-0.084	-0.147
-538.193	800.000	0.029	-0.085
-537.179	638.101	0.085	-0.216
-536.164	-8.279	-0.304	-0.205
-535.150	353.282	0.093	0.185
-534.135	800.000	0.033	-0.141
-533.121	19.350	0.274	-0.221
-532.106	-52.728	0.206	0.095
-531.091	-64.904	-0.043	-0.018
-530.077	-43.244	-0.102	-0.052
-529.062	333.091	-0.147	-0.285
-528.048	81.301	-0.224	0.242
-527.033	-1.257	-0.156	-0.110
-526.018	-162.661	0.323	-0.016
-525.004	-124.251	-0.482	-0.075
-523.989	800.000	-0.092	-0.312
-522.975	800.000	0.142	0.441
-521.960	-24.454	0.266	0.159
-520.945	800.000	-0.073	-0.248
-519.931	18.396	-0.244	0.195
-518.916	800.000	0.024	0.073
-517.902	-63.305	0.403	0.166
-516.887	-155.409	-0.353	0.023
-515.872	476.371	-0.041	0.093
-514.858	238.115	0.036	-0.061
-513.843	-200.000	-0.056	-0.408
-512.829	-143.854	-0.135	-0.013
-511.814	-179.936	-0.070	-0.001
-510.799	218.921	0.062	-0.098
-509.785	-200.000	0.054	0.354
-508.770	-70.284	-0.124	-0.047
-507.756	-31.841	0.249	-0.139
-506.741	-80.359	0.394	-0.132
-505.726	-181.629	-0.138	-0.003
-504.712	-140.206	-0.137	0.014
-503.697	-71.831	-0.200	-0.074
-502.683	800.000	-0.038	-0.131
-501.668	-15.607	-0.162	-0.103
-500.653	-200.000	0.041	0.267
-499.639	-123.062	-0.225	0.036
-498.624	-2.555	0.303	-0.212
-497.610	-200.000	0.022	0.101
-496.595	-108.063	-0.255	0.055
-495.581	-106.346	-0.136	-0.030
-494.566	-74.259	0.276	0.100
-493.551	136.413	0.140	0.182
-492.537	-200.000	0.016	-0.095
-491.522	225.234	-0.070	0.114
-490.508	40.193	0.104	0.093
-489.493	800.000	0.113	-0.331
-488.478	-200.000	-0.002	0.047
-487.464	-67.595	0.106	0.041
-486.449	-147.894	-0.166	-0.014
-485.435	57.154	0.088	-0.086
-484.420	800.000	-0.020	0.073
-483.405	-73.954	-0.268	0.097
-482.391	-150.194	-0.178	-0.014
-481.376	115.905	-0.061	0.075
-480.362	127.309	-0.182	0.231
-479.347	-30.781	-0.290	-0.164
-478.332	69.654	0.058	0.059
-477.318	-200.000	-0.014	0.191
-476.303	-100.970	0.143	0.035
-475.289	-64.707	0.325	-0.132
-474.274	-110.175	-0.313	-0.065
-473.259	325.255	-0.103	-0.198
-472.245	146.588	0.212	-0.284
-471.230	43.119	-0.303	0.276
-470.216	11.918	0.292	0.224
-469.201	800.000	-0.128	0.400
-468.186	41.677	0.037	0.033
-467.172	114.774	0.166	0.202
-466.157	97.574	0.027	-0.030
-465.143	-1.495	-0.099	-0.070
-464.128	168.033	0.260	0.370
-463.113	-25.543	0.145	0.086
-462.099	-90.635	-0.177	0.051
-461.084	-200.000	0.018	-0.278
-460.070	-2.712	0.051	-0.036
-459.055	800.000	0.060	0.201
-458.040	-141.629	0.081	-0.008
-457.026	-185.153	-0.191	-0.003
-456.011	-200.000	0.342	0.001
-454.997	-151.095	0.030	0.002
-453.982	114.104	0.173	0.211
-452.968	-200.000	0.050	0.221
-451.953	800.000	-0.023	-0.099
-450.938	372.469	-0.109	-0.221
-449.924	-200.000	-0.019	-0.282
-448.909	168.214	0.194	0.275
-447.895	66.472	0.149	-0.151
-446.880	-20.690	-0.049	-0.030
-445.865	-52.349	-0.384	0.177
-444.851	24.082	-0.150	-0.124
-443.836	-200.000	-0.007	0.308
-442.822	-200.000	-0.005	-0.164
-441.807	336.826	0.120	-0.233
-440.792	619.509	0.018	-0.046
-439.778	-200.000	0.050	0.233
-438.763	-133.669	0.258	0.032
-437.749	-200.000	0.023	-0.194
-436.734	-133.068	-0.179	0.023
-435.719	156.069	0.074	0.101
-434.705	-200.000	0.037	0.179
-433.690	-200.000	0.000	0.071
-432.676	26.565	0.326	0.272
-431.661	53.848	-0.016	-0.015
-430.646	800.000	-0.063	0.215
-429.632	-55.629	-0.027	-0.012
-428.617	579.047	0.048	-0.117
-427.603	90.079	-0.097	0.108
-426.588	-195.655	-0.186	-0.001
-425.573	11.400	-0.078	0.060
-424.559	-91.611	0.090	0.026
-423.544	292.979	0.039	0.070
-422.530	-68.965	0.154	0.059
-421.515	-50.773	-0.190	-0.089
-420.500	-8.032	0.431	0.290
-419.486	800.000	0.077	0.250
-418.471	-112.396	-0.165	-0.033
-417.457	-200.000	-0.032	0.206
-416.442	44.330	0.169	-0.155
-415.428	-200.000	-0.002	-0.117
-414.413	-200.000	-0.029	-0.142
-413.398	-200.000	-0.033	-0.255
-412.384	17.427	-0.173	-0.137
-411.369	-200.000	0.018	0.152
-410.355	216.998	0.051	-0.080
-409.340	800.000	0.127	0.539
-408.325	216.377	0.184	0.291
-407.311	-200.000	-0.262	0.001
-406.296	113.515	0.058	-0.070
-405.282	158.963	0.214	-0.297
-404.267	-190.611	0.181	-0.002
-403.252	256.976	0.052	0.088
-402.238	-200.000	-0.088	-0.403
-401.223	-200.000	0.001	-0.250
-400.209	-59.358	0.122	-0.052
-399.194	131.537	-0.091	-0.117
-398.179	-35.195	-0.181	-0.098
-397.165	-100.448	0.246	0.061
-396.150	-1.132	-0.244	-0.172
-395.136	112.866	0.230	0.277
-394.121	-115.595	0.302	-0.057
-393.106	-200.000	0.027	-0.381
-392.092	-84.963	-0.237	-0.074
-391.077	-139.564	-0.175	0.019
-390.063	-200.000	0.042	-0.332
-389.048	-200.000	-0.011	-0.101
-388.033	209.446	0.148	0.231
-387.019	-47.949	0.035	0.017
-386.004	-200.000	-0.024	0.183
-384.990	19.158	0.076	0.060
-383.975	247.874	0.045	0.075
-382.960	113.666	0.134	0.163
-381.946	54.657	-0.103	-0.099
-380.931	22.483	-0.285	-0.232
-379.917	-128.415	0.250	-0.035
-378.902	34.334	0.152	-0.132
-377.888	16.110	0.105	0.083
-376.873	305.163	0.030	0.055
-375.858	67.698	-0.124	0.126
-374.844	56.185	-0.134	-0.129
-373.829	-3.714	0.372	0.257
-372.815	268.554	-0.108	-0.189
-371.800	-94.281	0.170	0.046
-370.785	-50.176	0.274	0.129
-369.771	-145.827	-0.408	0.036
-368.756	-63.611	-0.072	-0.030
-367.742	-58.877	0.222	0.096
-366.727	-92.770	-0.056	0.016
-365.712	-200.000	-0.040	0.465
-364.698	-153.183	-0.362	0.025
-363.683	-49.366	0.065	0.031
-362.669	800.000	0.049	-0.196
-361.654	296.269	0.070	0.127
-360.639	-27.026	-0.251	0.146
-359.625	-78.756	-0.291	-0.099
-358.610	-197.664	0.072	-0.000
-357.596	800.000	-0.058	0.181
-356.581	-65.183	0.150	0.060
-355.566	-36.111	0.227	-0.122
-354.552	496.331	-0.034	0.077
-353.537	800.000	-0.047	-0.148
-352.523	-200.000	-0.033	-0.377
-351.508	-200.000	-0.056	0.349
-350.493	90.795	0.239	0.266
-349.479	800.000	-0.037	0.101
-348.464	800.000	0.046	0.191
-347.450	-200.000	-0.029	0.242
-346.435	-174.752	-0.090	0.003
-345.420	221.590	-0.088	-0.141
-344.406	502.368	-0.103	0.236
-343.391	-112.847	0.038	-0.007
-342.377	-200.000	-0.026	-0.160
-341.362	800.000	0.048	0.160
-340.348	-116.404	0.207	-0.038
-339.333	-200.000	-0.014	-0.146
-338.318	23.687	0.284	0.232
-337.304	357.558	-0.148	-0.294
-336.289	800.000	-0.129	-0.497
-335.275	-59.343	0.104	0.045
-334.260	402.934	0.063	0.131
-333.245	273.476	-0.101	0.177
-332.231	-200.000	0.020	-0.212
-331.216	309.631	0.128	-0.238
-330.202	-102.396	0.349	0.083
-329.187	-200.000	0.019	-0.372
-328.172	800.000	-0.116	0.384
-327.158	-52.916	-0.121	-0.055
-326.143	33.245	0.175	0.151
-325.129	0.281	-0.202	0.143
-324.114	800.000	-0.022	0.085
-323.099	800.000	-0.023	0.098
-322.085	-65.005	-0.125	0.050
-321.070	165.118	-0.206	-0.288
-320.056	232.530	-0.077	0.125
-319.041	661.951	0.086	0.221
-318.026	-121.769	0.214	-0.035
-317.012	-200.000	-0.026	0.190
-315.997	800.000	0.112	0.340
-314.983	61.312	-0.077	0.076
-313.968	35.864	-0.038	-0.033
-312.953	-124.459	-0.280	0.043
-311.939	800.000	0.026	0.112
-310.924	-200.000	-0.032	0.187
-309.910	-144.258	0.451	0.042
-308.895	611.818	-0.060	-0.150
-307.880	-200.000	-0.029	-0.207
-306.866	60.883	0.125	0.123
-305.851	-138.166	-0.208	-0.023
-304.837	-118.165	-0.180	-0.032
-303.822	-101.341	-0.358	-0.087
-302.807	-200.000	0.027	0.125
-301.793	37.896	-0.167	0.148
-300.778	17.485	-0.153	0.121
-299.764	21.162	-0.024	-0.019
-298.749	44.289	-0.123	0.112
-297.735	-200.000	0.020	-0.280
-296.720	800.000	-0.096	-0.347
-295.705	-73.901	-0.263	0.095
-294.691	-33.337	-0.200	0.110
-293.676	-55.525	0.112	-0.050
-292.662	273.647	0.058	-0.102
-291.647	161.867	-0.270	0.376
-290.632	-28.294	0.206	-0.118
-289.618	800.000	-0.052	-0.209
-288.603	246.226	-0.037	-0.062
-287.589	-200.000	0.021	0.137
-286.574	-157.185	0.081	0.005
-285.559	317.689	0.088	-0.164
-284.545	-7.751	0.398	-0.267
-283.530	-200.000	0.013	0.088
-282.516	-137.489	0.296	-0.033
-281.501	173.560	-0.115	-0.165
-280.486	-200.000	-0.053	-0.509
-279.472	208.915	0.214	-0.332
-278.457	800.000	0.037	0.124
-277.443	800.000	0.146	-0.434
-276.428	800.000	-0.040	0.162
-275.413	209.136	-0.135	-0.209
-274.399	-29.746	0.106	-0.060
-273.384	-32.654	-0.112	0.062
-272.370	-73.172	-0.221	-0.080
-271.355	-51.276	-0.258	-0.120
-270.340	-146.066	0.151	-0.013
-269.326	751.506	0.144	-0.385
-268.311	-147.857	-0.187	-0.015
-267.297	-200.000	-0.013	-0.324
-266.282	-170.580	-0.237	0.008
-265.267	72.189	-0.134	0.138
-264.253	-120.026	0.178	-0.030
-263.238	-200.000	-0.015	0.197
-262.224	800.000	-0.066	-0.202
-261.209	-200.000	0.042	0.459
-260.195	-54.187	-0.346	-0.156
-259.180	237.762	0.083	-0.136
-258.165	-200.000	-0.015	-0.322
-257.151	-143.284	-0.234	-0.022
-256.136	-200.000	-0.013	-0.119
-255.122	-93.218	-0.296	-0.081
-254.107	216.480	-0.103	0.162
-253.092	105.074	-0.105	0.122
-252.078	-106.055	-0.063	-0.014
-251.063	126.099	-0.157	0.197
-250.049	30.900	-0.024	-0.021
-249.034	358.092	-0.126	-0.249
-248.019	-97.806	-0.162	-0.042
-247.005	-21.801	0.500	-0.301
-245.990	-13.501	0.287	-0.184
-244.976	29.686	0.160	0.135
-243.961	-66.407	-0.359	-0.141
-242.946	5.312	0.022	-0.016
-241.932	138.074	0.142	0.184
-240.917	155.442	-0.094	0.128
-239.903	-6.469	0.122	0.082
-238.888	127.949	0.213	0.268
-237.873	340.056	-0.132	-0.255
-236.859	800.000	0.068	0.220
-235.844	-15.549	0.243	-0.154
-234.830	-135.777	0.122	0.014
-233.815	-200.000	-0.006	0.076
-232.800	508.213	0.164	-0.376
-231.786	-136.003	-0.298	0.035
-230.771	-48.658	0.074	0.035
-229.757	-169.002	0.365	0.013
-228.742	-200.000	0.040	0.375
-227.727	142.107	-0.332	0.436
-226.713	29.609	0.095	0.080
-225.698	189.696	0.028	-0.041
-224.684	800.000	0.072	0.297
-223.669	-112.242	0.290	0.058
-222.655	800.000	-0.055	0.172
-221.640	-200.000	0.032	0.140
-220.625	800.000	0.022	0.062
-219.611	127.868	0.124	0.156
-218.596	-159.715	0.147	-0.008
-217.582	-87.845	0.156	0.046
-216.567	601.018	-0.054	0.132
-215.552	143.612	0.251	0.330
-214.538	213.236	0.128	-0.200
-213.523	-43.626	-0.114	0.057
-212.509	-200.000	-0.001	-0.060
-211.494	1.713	0.061	0.044
-210.479	479.720	-0.132	0.296
-209.465	-101.279	-0.150	-0.036
-208.450	12.895	-0.254	-0.194
-207.436	184.336	0.166	0.243
-206.421	800.000	0.150	0.446
-205.406	98.835	0.176	-0.201
-204.392	-78.295	0.168	-0.057
-203.377	-200.000	-0.008	0.314
-202.363	-87.057	0.260	0.078
-201.348	472.470	-0.145	0.323
-200.333	127.928	0.181	0.227
-199.319	463.520	-0.131	-0.289
-198.304	-157.764	-0.134	0.008
-197.290	227.302	-0.100	0.160
-196.275	-103.713	-0.117	0.027
-195.260	-200.000	0.039	-0.360
-194.246	-147.773	-0.215	-0.018
-193.231	257.998	0.021	0.036
-192.217	-28.156	0.223	0.127
-191.202	380.690	-0.157	0.318
-190.187	800.000	-0.059	-0.162
-189.173	-200.000	-0.017	-0.153
-188.158	-173.910	0.259	-0.008
-187.144	-17.508	0.154	-0.095
-186.129	309.731	0.094	0.175
-185.114	-137.090	0.217	0.024
-184.100	-109.359	0.169	-0.035
-183.085	800.000	0.049	-0.163
-182.071	109.664	-0.198	-0.234
-181.056	322.024	0.203	0.381
-180.042	383.245	-0.053	-0.107
-179.027	-200.000	0.007	-0.199
-178.012	171.089	0.093	-0.131
-176.998	176.834	0.092	0.132
-175.983	-7.759	0.128	-0.085
-174.969	-129.642	-0.159	-0.022
-173.954	-112.414	-0.456	0.090
-172.939	516.043	0.083	0.191
-171.925	-200.000	-0.004	-0.063
-170.910	123.516	-0.044	-0.055
-169.896	-46.158	0.267	0.130
-168.881	800.000	-0.029	-0.119
-167.866	68.315	0.284	0.287
-166.852	300.195	0.108	-0.197
-165.837	-129.758	0.253	-0.034
-164.823	-93.432	0.134	-0.037
-163.808	-200.000	-0.011	0.394
-162.793	115.433	0.114	0.137
-161.779	-89.427	-0.312	0.091
-160.764	800.000	0.139	-0.391
-159.750	650.832	-0.163	-0.412
-158.735	-95.074	-0.348	-0.093
-157.720	-42.825	-0.263	0.132
-156.706	-200.000	-0.014	-0.136
-155.691	273.873	-0.205	-0.357
-154.677	74.385	-0.272	-0.282
-153.662	800.000	0.050	0.149
-152.647	125.418	-0.117	-0.146
-151.633	-200.000	-0.003	-0.049
-150.618	183.163	-0.183	-0.267
-149.604	87.400	-0.152	-0.166
-148.589	-35.045	0.175	-0.094
-147.574	-200.000	-0.005	-0.251
-146.560	517.844	0.063	0.145
-145.545	-113.941	0.200	-0.038
-144.531	27.427	-0.208	0.173
-143.516	800.000	-0.028	0.099
-142.502	-200.000	-0.000	-0.234
-141.487	-150.024	-0.073	-0.006
-140.472	-200.000	0.007	0.567
-139.458	-41.419	-0.074	-0.038
-138.443	-32.463	0.114	-0.062
-137.429	-200.000	-0.063	-0.400
-136.414	-200.000	-0.035	0.353
-135.399	216.491	0.122	-0.191
-134.385	151.891	0.270	0.362
-133.370	-77.013	0.118	0.041
-132.356	-47.757	0.384	-0.183
-131.341	800.000	-0.070	-0.194
-130.326	236.850	-0.043	0.070
-129.312	175.105	0.104	0.148
-128.297	-27.108	0.339	0.195
-127.283	800.000	-0.135	0.433
-126.268	-14.706	-0.176	0.112
-125.253	-107.961	0.252	0.054
-124.239	-85.615	0.027	-0.008
-123.224	-95.627	0.076	-0.020
-122.210	117.973	0.033	0.039
-121.195	-200.000	-0.036	-0.310
-120.180	47.134	0.314	-0.288
-119.166	-26.297	-0.190	-0.110
-118.151	-82.597	0.198	0.063
-117.137	800.000	-0.069	-0.239
-116.122	-88.078	0.076	0.023
-115.107	-53.319	0.321	0.145
-114.093	800.000	-0.115	-0.364
-113.078	-21.052	0.275	-0.165
-112.064	119.758	-0.211	0.257
-111.049	2.104	0.240	0.171
-110.034	-42.375	0.150	-0.075
-109.020	-167.719	-0.266	-0.010
-108.005	-183.333	0.181	0.003
-106.991	-132.684	-0.140	-0.018
-105.976	119.144	-0.047	0.057
-104.962	-147.988	0.270	-0.022
-103.947	519.666	-0.192	-0.443
-102.932	-200.000	-0.018	0.168
-101.918	-38.640	0.022	0.011
-100.903	330.357	-0.108	-0.204
-99.889	-111.183	0.205	-0.041
-98.874	406.809	0.071	-0.147
-97.859	-200.000	0.036	-0.180
-96.845	800.000	0.048	0.140
-95.830	115.242	-0.201	-0.241
-94.816	260.515	-0.173	0.294
-93.801	54.598	-0.090	0.085
-92.786	89.199	0.190	-0.208
-91.772	800.000	0.126	-0.393
-90.757	-75.496	0.097	-0.034
-89.743	-163.485	-0.222	0.010
-88.728	337.033	-0.106	-0.202
-87.713	19.109	-0.023	-0.018
-86.699	-200.000	-0.001	-0.104
-85.684	115.745	-0.123	0.148
-84.670	153.958	-0.133	0.179
-83.655	800.000	0.028	-0.117
-82.640	-47.218	-0.314	0.150
-81.626	-143.046	0.506	0.048
-80.611	68.318	0.159	-0.161
-79.597	800.000	-0.026	-0.110
-78.582	460.255	-0.019	0.041
-77.567	355.271	0.133	-0.261
-76.553	13.702	0.220	0.168
-75.538	137.478	0.270	0.348
-74.524	-31.391	-0.040	0.022
-73.509	230.453	0.109	0.175
-72.494	280.913	-0.112	0.197
-71.480	162.499	0.121	0.167
-70.465	52.393	-0.136	-0.127
-69.451	800.000	-0.077	-0.332
-68.436	106.418	-0.110	0.128
-67.422	800.000	-0.060	0.214
-66.407	-200.000	-0.026	-0.128
-65.392	-200.000	-0.001	0.203
-64.378	20.514	-0.137	0.109
-63.363	-72.125	0.043	0.016
-62.349	78.767	-0.155	0.163
-61.334	50.205	-0.749	-0.695
-60.319	111.295	0.295	0.350
-59.305	-200.000	-0.004	-0.952
-58.290	112.397	0.689	0.819
-57.276	295.924	0.745	1.342
-56.261	-200.000	103.135	592.953
-55.246	553.689	1435.826	3392.367
-54.232	187.254	2622.636	3843.091
-53.217	117.170	2145.327	2590.439
-52.203	42.507	1592.531	1423.495
-51.188	34.040	1327.776	1136.469
-50.173	30.939	1286.198	1082.852
-49.159	54.909	1337.954	1269.015
-48.144	56.052	1354.035	1290.980
-47.130	34.266	1310.155	1122.539
-46.115	30.734	1292.445	1086.741
-45.100	30.486	1287.572	1081.157
-44.086	30.537	1285.019	1079.269
-43.071	30.512	1282.552	1077.008
-42.057	30.421	1281.027	1075.159
-41.042	30.393	1278.714	1073.012
-40.027	30.448	1277.357	1072.145
-39.013	30.475	1276.012	1071.133
-37.998	30.525	1274.335	1069.969
-36.984	30.513	1272.732	1068.511
-35.969	30.605	1270.457	1067.089
-34.954	30.569	1269.178	1065.762
-33.940	30.547	1267.984	1064.596
-32.925	30.712	1266.230	1064.024
-31.911	30.792	1264.186	1062.722
-30.896	30.682	1263.306	1061.309
-29.881	30.670	1262.123	1060.204
-28.867	30.677	1260.697	1059.009
-27.852	30.808	1259.179	1058.436
-26.838	30.714	1257.726	1056.639
-25.823	30.630	1256.853	1055.382
-24.809	30.650	1255.201	1054.069
-23.794	30.588	1254.431	1053.027
-22.779	30.681	1252.654	1052.019
-21.765	30.565	1251.830	1050.632
-20.750	30.645	1250.147	1049.631
-19.736	30.654	1248.305	1048.091
-18.721	30.512	1247.786	1046.815
-17.706	30.500	1246.611	1045.717
-16.692	30.468	1245.452	1044.526
-15.677	30.465	1244.985	1044.076
-14.663	30.537	1242.732	1042.552
-13.648	30.488	1242.021	1041.638
-12.633	30.555	1240.968	1041.088
-11.619	30.399	1240.778	1040.015
-10.604	30.566	1239.516	1039.846
-9.590	30.449	1238.649	1038.426
-8.575	30.465	1237.528	1037.534
-7.560	30.411	1236.532	1036.358
-6.546	30.382	1236.206	1035.879
-5.531	30.440	1235.051	1035.196
-4.517	30.504	1234.343	1034.919
-3.502	30.530	1233.268	1034.121
-2.487	30.515	1232.376	1033.248
-1.473	30.552	1227.788	1029.563
-0.458	28.981	1213.907	1009.270
0.556	24.564	1196.491	972.660
1.571	21.142	1202.156	958.425
2.586	20.283	1217.041	965.431
3.600	19.887	1206.377	954.697
4.615	15.403	1136.739	876.148
5.629	8.058	1065.152	784.844
6.644	4.932	1046.756	756.072
7.659	4.807	1043.852	753.305
8.673	4.663	1043.069	751.977
9.688	4.618	1041.918	750.864
10.702	4.884	1039.657	750.447
11.717	9.033	1045.356	774.558
12.731	15.946	1054.699	814.966
13.746	18.668	1057.409	830.175
14.761	18.044	1056.482	826.358
15.775	16.958	1054.720	819.661
16.790	15.920	1052.249	812.663
17.804	15.308	1050.731	808.468
18.819	15.013	1049.004	805.647
19.834	14.571	1048.997	803.446
20.848	14.533	1047.473	802.024
21.863	14.284	1046.979	800.377
22.877	14.080	1046.036	798.603
23.892	13.975	1045.922	797.943
24.907	13.997	1045.203	797.431
25.921	14.043	1044.144	796.771
26.936	14.288	1042.347	796.501
27.950	14.191	1041.259	795.136
28.965	14.294	1039.630	794.314
29.980	14.258	1038.341	793.085
30.994	14.368	1036.940	792.470
32.009	14.333	1036.365	791.792
33.023	14.385	1035.224	791.099
34.038	14.265	1033.999	789.521
35.053	14.246	1033.060	788.645
36.067	14.258	1032.375	788.112
37.082	14.217	1031.354	787.066
38.096	14.364	1030.441	786.997
39.111	14.304	1029.788	786.143
40.126	14.250	1028.740	785.019
41.140	14.070	1027.756	783.353
42.155	13.987	1026.444	781.893
43.169	13.981	1025.065	780.744
44.184	14.080	1024.204	780.483
45.199	13.979	1023.664	779.528
46.213	13.997	1022.280	778.489
47.228	14.197	1020.962	778.356
48.242	14.081	1020.694	777.537
49.257	14.046	1019.702	776.553
50.271	14.169	1018.786	776.360
51.286	14.183	1017.826	775.625
52.301	14.112	1017.092	774.663
53.315	14.191	1015.758	773.948
54.330	14.050	1014.534	772.293
55.344	14.054	1014.118	771.927
56.359	14.098	1012.714	770.991
57.374	14.108	1012.051	770.467
58.388	14.098	1011.175	769.684
59.403	13.912	1010.646	768.356
60.417	13.925	1009.940	767.809
61.432	13.966	1009.098	767.288
62.447	13.944	1008.021	766.300
63.461	13.984	1007.314	765.878
64.476	13.790	1006.679	764.438
65.490	13.805	1005.849	763.808
66.505	13.959	1004.779	763.635
67.520	13.967	1004.559	763.438
68.534	13.890	1003.961	762.560
69.549	13.881	1002.934	761.672
70.563	13.840	1002.422	761.029
71.578	13.833	1001.312	760.086
72.593	13.832	1000.351	759.286
73.607	13.774	1000.182	758.827
74.622	13.848	999.347	758.464
75.636	13.750	998.743	757.489
76.651	13.781	998.016	757.010
77.666	13.698	997.657	756.294
78.680	13.842	996.627	756.104
79.695	13.923	996.035	755.954
80.709	13.904	995.561	755.445
81.724	13.949	995.170	755.283
82.739	14.114	994.212	755.240
83.753	14.141	993.894	755.052
84.768	14.342	992.237	754.636
85.782	14.442	991.666	754.589
86.797	14.298	990.787	753.203
87.812	14.276	989.971	752.419
88.826	14.234	989.020	751.439
89.841	14.210	988.311	750.725
90.855	14.214	987.745	750.247
91.870	14.324	986.545	749.763
92.884	14.291	985.892	749.053
93.899	14.367	985.016	748.660
94.914	14.566	983.881	748.626
95.928	14.364	983.475	747.343
96.943	14.343	982.764	746.643
97.957	14.319	981.899	745.813
98.972	14.399	980.703	745.196
99.987	14.240	980.219	744.052
101.001	14.397	979.028	743.782
102.016	14.409	978.217	743.155
103.030	14.324	977.436	742.118
104.045	14.388	976.945	741.962
105.060	14.128	976.161	740.144
106.074	13.997	974.953	738.582
107.089	14.070	973.841	738.001
108.103	13.971	973.271	737.062
109.118	14.095	971.932	736.534
110.133	14.051	971.019	735.583
111.147	14.037	970.210	734.842
112.162	14.074	969.655	734.518
113.176	14.159	969.080	734.393
114.191	14.132	968.415	733.705
115.206	14.245	967.444	733.403
116.220	14.033	966.473	731.669
117.235	14.084	965.652	731.205
118.249	14.114	964.795	730.623
119.264	14.105	963.960	729.886
120.279	14.047	963.232	729.018
121.293	14.031	962.447	728.291
122.308	14.050	961.698	727.743
123.322	13.924	961.073	726.653
124.337	13.921	959.643	725.493
125.352	13.979	958.618	724.907
126.366	13.997	957.782	724.289
127.381	14.027	956.695	723.536
128.395	14.034	955.995	722.973
129.410	14.078	955.434	722.676
130.424	14.083	954.415	721.863
131.439	14.158	953.471	721.411
132.454	14.232	952.686	721.073
133.468	14.012	952.462	719.886
134.483	14.142	951.499	719.658
135.497	14.028	950.192	718.113
136.512	14.142	950.010	718.404
137.527	14.230	948.881	717.867
138.541	14.165	948.195	717.004
139.556	14.238	947.136	716.454
140.570	14.269	947.009	716.426
141.585	14.304	946.123	715.844
142.600	14.332	945.206	715.208
143.614	14.397	944.853	715.153
144.629	14.551	943.411	714.659
145.643	14.438	942.908	713.732
146.658	14.476	941.384	712.679
147.673	14.255	940.763	711.203
148.687	14.243	940.083	710.572
149.702	14.242	938.855	709.576
150.716	14.297	938.064	709.153
151.731	14.221	937.838	708.594
152.746	14.186	937.366	708.027
153.760	14.304	936.424	707.754
154.775	14.245	936.036	707.146
155.789	14.301	935.403	706.844
156.804	14.448	934.776	706.932
157.819	14.511	933.743	706.354
158.833	14.540	932.955	705.819
159.848	14.566	932.334	705.394
160.862	14.551	931.391	704.557
161.877	14.378	930.709	703.250
162.892	14.263	929.752	701.977
163.906	14.208	929.011	701.122
164.921	14.265	928.427	700.862
165.935	14.457	927.046	700.563
166.950	14.439	926.392	699.934
167.964	14.381	925.337	698.832
168.979	14.340	924.378	697.871
169.994	14.342	923.677	697.290
171.008	14.392	923.098	697.000
172.023	14.463	922.401	696.710
173.037	14.570	921.703	696.566
174.052	14.579	920.816	695.874
175.067	14.428	920.069	694.618
176.081	14.308	919.726	693.796
177.096	14.247	919.315	693.171
178.110	14.447	918.555	693.370
179.125	14.450	917.730	692.698
180.140	14.561	917.174	692.677
181.154	14.567	917.034	692.536
182.169	14.553	916.669	692.139
183.183	14.561	916.236	691.783
184.198	14.644	915.369	691.411
185.213	14.724	914.363	690.923
186.227	14.630	913.818	690.060
187.242	14.805	913.396	690.405
188.256	14.759	912.974	689.835
189.271	14.694	912.170	688.900
190.286	14.563	911.051	687.453
191.300	14.510	910.360	686.654
192.315	14.326	909.441	685.142
193.329	14.330	909.119	684.854
194.344	14.497	908.265	684.835
195.359	14.614	907.729	684.850
196.373	14.630	907.495	684.681
197.388	14.725	906.912	684.571
198.402	14.870	906.507	684.799
199.417	14.917	906.023	684.565
200.432	14.947	905.196	684.000
201.446	14.935	905.093	683.815
202.461	15.090	904.313	683.797
203.475	15.017	903.626	682.917
204.490	14.874	902.943	681.757
205.504	14.836	902.652	681.324
206.519	14.872	901.638	680.644
207.534	14.885	900.628	679.875
208.548	14.992	899.985	679.764
209.563	14.953	899.524	679.197
210.577	14.904	899.093	678.614
211.592	15.015	898.119	678.267
212.607	15.054	897.120	677.613
213.621	15.235	896.372	677.719
214.636	15.123	895.957	676.892
215.650	15.139	895.559	676.595
216.665	15.247	894.473	676.151
217.680	15.156	894.419	675.684
218.694	15.193	893.666	675.204
219.709	15.130	892.820	674.253
220.723	15.153	892.399	673.965
221.738	15.188	891.272	673.196
222.753	15.194	890.894	672.874
223.767	15.310	890.322	672.849
224.782	15.255	889.897	672.250
225.796	15.254	889.185	671.644
226.811	15.301	888.336	671.134
227.826	15.228	887.629	670.247
228.840	15.298	886.715	669.779
229.855	15.205	886.381	669.095
230.869	15.193	885.725	668.492
231.884	15.044	884.913	667.228
232.899	15.172	884.236	667.168
233.913	15.226	883.186	666.532
234.928	15.131	883.019	665.969
235.942	15.106	882.518	665.432
236.957	15.199	881.845	665.237
237.972	15.259	881.345	665.036
238.986	15.251	880.196	664.079
240.001	15.180	879.841	663.471
241.015	15.150	879.734	663.213
242.030	15.188	878.880	662.662
243.045	15.384	878.590	663.161
244.059	15.310	877.966	662.336
245.074	15.364	877.242	661.946
246.088	15.302	876.363	660.978
247.103	15.459	875.785	661.103
248.117	15.593	875.519	661.372
249.132	15.679	874.754	661.072
250.147	15.807	874.088	661.014
251.161	15.870	873.415	660.693
252.176	15.761	872.766	659.717
253.190	15.791	872.267	659.399
254.205	15.807	871.988	659.192
255.220	15.849	871.177	658.687
256.234	15.874	870.451	658.176
257.249	15.832	869.821	657.478
258.263	15.688	869.459	656.585
259.278	15.732	868.672	656.101
260.293	15.983	867.670	656.266
261.307	15.985	867.223	655.878
262.322	15.996	866.553	655.357
263.336	16.047	865.769	654.905
264.351	15.996	865.235	654.245
265.366	16.121	864.468	654.088
266.380	16.072	864.060	653.533
267.395	16.072	863.236	652.851
268.409	16.048	862.480	652.129
269.424	15.958	861.474	650.965
270.439	16.068	860.962	650.943
271.453	15.812	861.054	649.969
272.468	16.025	859.961	649.906
273.482	15.981	859.529	649.352
274.497	15.963	858.551	648.487
275.512	15.961	858.302	648.234
276.526	15.983	857.908	647.962
277.541	15.977	857.615	647.663
278.555	15.992	856.943	647.154
279.570	16.261	856.155	647.535
280.585	16.174	855.469	646.624
281.599	16.131	854.431	645.620
282.614	15.976	854.097	644.717
283.628	16.154	853.220	644.678
284.643	16.139	852.576	644.077
285.657	16.120	852.084	643.577
286.672	16.069	851.652	642.996
287.687	16.257	851.132	643.263
288.701	16.184	850.836	642.707
289.716	16.195	850.129	642.157
290.730	16.220	849.330	641.591
291.745	16.244	848.787	641.217
292.760	16.218	848.256	640.659
293.774	16.331	847.680	640.595
294.789	16.298	846.980	639.886
295.803	16.276	846.107	639.085
296.818	16.271	845.390	638.471
297.833	16.261	845.063	638.130
298.847	16.245	844.458	637.554
299.862	16.340	843.924	637.455
300.876	16.227	843.699	636.801
301.891	16.524	842.698	637.109
302.906	16.599	841.975	636.788
303.920	16.557	841.878	636.501
304.935	16.740	841.093	636.538
305.949	16.616	840.430	635.513
306.964	16.612	839.985	635.107
307.979	16.517	839.316	634.189
308.993	16.693	838.755	634.367
310.008	16.669	838.256	633.844
311.022	16.575	837.794	633.085
312.037	16.505	837.178	632.305
313.052	16.533	836.224	631.630
314.066	16.511	835.641	631.052
315.081	16.467	835.597	630.799
316.095	16.443	834.851	630.091
317.110	16.486	834.500	629.932
318.125	16.400	834.027	629.196
319.139	16.392	833.771	628.919
320.154	16.462	832.895	628.462
321.168	16.453	832.352	627.964
322.183	16.465	831.745	627.495
323.197	16.717	831.311	628.047
324.212	16.653	830.486	627.131
325.227	16.672	829.936	626.732
326.241	16.503	829.672	625.850
327.256	16.556	828.971	625.463
328.270	16.606	828.206	625.016
329.285	16.496	827.990	624.388
330.300	16.584	827.476	624.272
331.314	16.771	826.555	624.210
332.329	16.556	826.731	623.497
333.343	16.639	826.328	623.441
334.358	16.843	825.312	623.370
335.373	16.897	825.396	623.578
336.387	16.756	825.016	622.719
337.402	16.892	824.888	623.067
338.416	16.894	824.405	622.652
339.431	16.958	823.807	622.381
340.446	17.085	823.371	622.463
341.460	16.939	823.537	621.997
342.475	17.073	822.769	621.851
343.489	17.045	822.569	621.545
344.504	17.091	821.669	620.976
345.519	17.113	821.458	620.845
346.533	17.250	820.919	620.883
347.548	16.918	820.210	619.077
348.562	16.920	820.050	618.911
349.577	17.051	818.930	618.487
350.592	16.964	818.512	617.802
351.606	16.979	817.949	617.374
352.621	17.004	817.237	616.875
353.635	17.061	816.761	616.669
354.650	17.087	816.051	616.172
355.665	17.126	815.154	615.582
356.679	17.241	814.584	615.511
357.694	16.979	814.440	614.400
358.708	17.221	813.460	614.482
359.723	17.122	812.768	613.548
360.738	17.231	812.465	613.659
361.752	17.146	812.157	613.065
362.767	17.288	811.428	612.971
363.781	17.470	810.702	613.026
364.796	17.505	810.511	612.952
365.810	17.498	810.310	612.719
366.825	17.510	809.832	612.347
367.840	17.331	809.577	611.459
368.854	17.476	808.813	611.349
369.869	17.606	808.040	611.175
370.883	17.566	807.525	610.589
371.898	17.415	807.669	610.102
372.913	17.511	807.506	610.270
373.927	17.487	806.567	609.417
374.942	17.547	806.088	609.220
375.956	17.527	806.023	609.043
376.971	17.665	805.303	608.940
377.986	17.776	804.858	608.943
379.000	17.652	804.541	608.210
380.015	17.735	803.906	607.969
381.029	17.795	803.258	607.641
382.044	17.861	802.632	607.349
383.059	17.704	802.353	606.524
384.073	17.692	801.622	605.875
385.088	17.681	800.647	605.046
386.102	17.662	800.362	604.709
387.117	17.644	799.587	604.006
388.132	17.377	799.982	603.306
389.146	17.647	798.746	603.277
390.161	17.734	798.751	603.533
391.175	17.709	798.151	602.937
392.190	17.760	797.636	602.676
393.205	17.653	797.023	601.783
394.219	17.653	796.946	601.671
395.234	17.768	795.849	601.196
396.248	17.592	795.758	600.453
397.263	17.557	795.298	599.930
398.278	17.478	795.156	599.492
399.292	17.781	794.150	599.744
400.307	17.648	794.204	599.265
401.321	17.620	793.700	598.731
402.336	17.695	793.232	598.590
403.350	17.969	792.749	599.133
404.365	17.760	792.694	598.304
405.380	17.882	792.081	598.218
406.394	18.039	791.258	598.093
407.409	18.014	791.030	597.781
408.423	18.068	790.798	597.739
409.438	17.947	790.548	597.075
410.453	18.068	790.005	597.034
411.467	18.333	789.350	597.412
412.482	18.039	789.011	596.079
413.496	18.298	788.703	596.694
414.511	18.298	788.043	596.145
415.526	18.253	787.642	595.629
416.540	18.307	787.050	595.317
417.555	18.160	786.828	594.585
418.569	18.178	786.806	594.580
419.584	18.235	786.192	594.262
420.599	18.068	786.244	593.669
421.613	157.428	1370.364	1795.955
422.628	136.096	1455.430	1796.067
