DTS Sentinel unit serial number:	SN413079Multiplexer serial number:	ORYXHardware model number:	OX4-SRSoftware version number:	ORYX F/W v4.00 Oryx Data Collector v3.7.2.0data status	okinstallation	princeton_trtdifferential loss correction	single-endedforward channel	channel 1reverse channel	N/Adate	2019/09/12time	18:43:34forward acquisition time	15.00reverse acquisition time	0.00gamma	496.2192k internal	0.2319k external	0.2319temperature offset calibration	1.0116default loss term (dB/km)	0.3790temperature slope calibration	1.0000multiplexer offset coefficient	1.0000multiplexer slope coefficient	1.0000fibre end	0.00T internal ref (°C)	33.00T ext. ref 1 (°C)	2.99T ext. ref 2 (°C)	27.57length (m)	temperature (°C)	Stokes	anti-Stokes-747.200	688.741	0.313	0.829
-746.185	-55.928	0.130	0.059
-745.171	-200.000	0.043	-0.343
-744.156	-74.283	-0.796	-0.291
-743.142	-85.393	0.617	0.195
-742.127	-140.412	0.191	0.020
-741.112	800.000	-0.362	-1.466
-740.098	-162.905	-0.410	0.020
-739.083	-181.111	-0.409	-0.008
-738.069	800.000	-0.186	-0.596
-737.054	800.000	-0.331	-1.013
-736.039	141.880	-0.444	-0.595
-735.025	-60.075	0.880	0.380
-734.010	-200.000	0.055	0.303
-732.996	447.344	0.481	-1.071
-731.981	800.000	-0.061	0.255
-730.966	324.741	0.191	-0.370
-729.952	-85.738	-0.548	-0.172
-728.937	-200.000	-0.010	0.915
-727.923	-0.207	-0.594	-0.428
-726.908	800.000	0.101	-0.365
-725.894	690.300	0.101	0.268
-724.879	-54.083	0.416	-0.191
-723.864	83.811	0.485	0.535
-722.850	424.905	-0.086	0.186
-721.835	207.045	0.370	-0.583
-720.821	-41.414	0.251	0.131
-719.806	800.000	0.102	0.374
-718.791	-200.000	0.028	-0.303
-717.777	485.066	-0.223	0.513
-716.762	-200.000	-0.053	-0.502
-715.748	-10.371	0.131	0.088
-714.733	-123.611	-0.061	0.010
-713.718	-200.000	0.051	-0.269
-712.704	-100.527	-0.714	-0.178
-711.689	-152.813	0.702	0.050
-710.675	256.533	0.336	0.582
-709.660	-153.943	1.031	0.071
-708.645	446.282	0.254	-0.565
-707.631	272.545	0.017	-0.031
-706.616	800.000	0.078	-0.335
-705.602	53.086	-0.391	0.378
-704.587	-141.401	-0.495	0.051
-703.572	-200.000	-0.087	0.813
-702.558	-98.542	0.300	0.077
-701.543	-200.000	-0.025	-0.136
-700.529	-173.783	0.874	0.026
-699.514	51.548	0.169	0.163
-698.499	171.957	0.112	-0.162
-697.485	-71.586	0.926	0.349
-696.470	-200.000	0.064	0.472
-695.456	-170.024	-0.798	-0.029
-694.441	800.000	-0.105	-0.341
-693.426	-117.855	-0.824	-0.149
-692.412	22.022	-0.097	-0.080
-691.397	556.285	-0.448	-1.090
-690.383	-86.115	-0.468	-0.146
-689.368	-200.000	-0.014	-0.309
-688.354	-200.000	0.127	0.624
-687.339	-200.000	0.142	0.715
-686.324	800.000	-0.101	0.314
-685.310	-166.098	-1.135	-0.049
-684.295	-12.682	0.367	0.242
-683.281	130.125	0.215	-0.278
-682.266	146.216	-0.072	0.098
-681.251	800.000	0.211	-0.608
-680.237	800.000	-0.200	0.596
-679.222	325.940	0.175	-0.338
-678.208	309.531	-0.263	0.497
-677.193	269.663	-0.409	-0.725
-676.178	-125.108	-0.329	0.051
-675.164	800.000	-0.119	0.491
-674.149	569.450	0.116	0.286
-673.135	-141.591	-0.578	0.059
-672.120	-90.222	0.517	-0.152
-671.105	62.922	-0.442	0.446
-670.091	73.764	0.287	-0.304
-669.076	35.049	-0.583	-0.515
-668.062	800.000	-0.171	-0.693
-667.047	-8.817	0.753	0.509
-666.032	-123.728	0.112	-0.018
-665.018	-146.166	-0.311	-0.028
-664.003	137.066	-0.104	-0.138
-662.989	800.000	0.252	0.817
-661.974	24.628	-0.319	-0.266
-660.959	289.454	0.218	0.398
-659.945	-188.134	0.718	-0.009
-658.930	72.045	-0.328	-0.345
-657.916	759.427	-0.283	0.774
-656.901	-200.000	0.119	-0.586
-655.886	-200.000	0.003	0.436
-654.872	-200.000	0.075	-0.622
-653.857	800.000	-0.067	0.201
-652.843	-95.129	-0.210	0.057
-651.828	-162.325	0.605	-0.030
-650.814	-200.000	-0.047	0.953
-649.799	-82.302	0.410	-0.134
-648.784	-102.252	-0.257	0.062
-647.770	164.113	-0.731	-1.038
-646.755	-86.871	0.676	0.208
-645.741	417.971	-0.283	0.611
-644.726	1.599	-0.301	0.218
-643.711	-104.862	0.188	0.043
-642.697	349.159	-0.052	-0.104
-641.682	-13.502	-0.075	-0.049
-640.668	-200.000	-0.015	0.153
-639.653	294.083	0.258	-0.474
-638.638	17.192	0.715	0.571
-637.624	13.972	-0.697	0.547
-636.609	-200.000	0.019	-0.368
-635.595	-200.000	0.075	-0.493
-634.580	26.670	0.190	0.160
-633.565	-89.446	0.216	0.064
-632.551	55.730	-0.133	-0.130
-631.536	136.395	0.572	-0.752
-630.522	574.027	-0.165	-0.405
-629.507	248.576	-0.246	0.419
-628.492	710.322	-0.156	-0.415
-627.478	800.000	0.162	-0.536
-626.463	151.182	-0.328	0.449
-625.449	-200.000	-0.008	0.597
-624.434	-59.230	0.431	0.187
-623.419	-73.201	-0.472	0.174
-622.405	139.644	0.522	0.692
-621.390	208.352	0.012	0.019
-620.376	-7.080	-0.237	-0.162
-619.361	275.440	0.173	0.309
-618.346	277.666	0.441	-0.790
-617.332	-200.000	0.059	-1.274
-616.317	61.812	0.540	0.542
-615.303	-200.000	-0.045	-0.328
-614.288	-99.738	-0.774	-0.195
-613.273	-200.000	0.111	0.505
-612.259	-114.986	-0.734	0.140
-611.244	-200.000	0.008	-0.064
-610.230	800.000	-0.192	-0.561
-609.215	-38.310	0.386	-0.206
-608.201	-78.150	0.509	0.176
-607.186	461.232	0.194	0.435
-606.171	-175.574	0.132	-0.004
-605.157	-107.851	-0.434	0.095
-604.142	-200.000	-0.003	0.385
-603.128	9.525	0.200	0.153
-602.113	285.007	-0.296	0.537
-601.098	-101.937	-0.979	0.238
-600.084	80.264	0.065	-0.070
-599.069	-79.707	-0.787	0.267
-598.055	584.140	-0.245	0.605
-597.040	-89.229	0.696	-0.207
-596.025	-29.338	0.234	0.135
-595.011	800.000	-0.248	-0.721
-593.996	-160.592	-0.760	0.041
-592.982	-79.305	-0.150	-0.051
-591.967	69.385	-0.240	-0.249
-590.952	-200.000	-0.136	-1.140
-589.938	450.805	0.255	-0.566
-588.923	161.593	0.459	-0.646
-587.909	712.197	0.250	0.666
-586.894	480.755	-0.303	0.691
-585.879	-158.026	1.008	-0.060
-584.865	-99.019	0.575	-0.147
-583.850	-200.000	-0.011	-0.121
-582.836	-25.876	0.554	-0.328
-581.821	32.934	-0.141	-0.123
-580.806	176.267	-0.380	0.556
-579.792	-200.000	-0.078	-0.426
-578.777	74.714	0.095	0.100
-577.763	-144.320	-0.650	0.061
-576.748	-83.054	0.436	-0.141
-575.733	173.916	0.268	0.389
-574.719	-14.629	-0.509	0.329
-573.704	-114.351	0.739	-0.143
-572.690	-155.753	0.328	0.021
-571.675	-200.000	-0.007	-0.488
-570.661	-200.000	-0.037	0.775
-569.646	504.083	-0.177	-0.411
-568.631	-57.651	0.935	0.412
-567.617	754.094	0.047	0.127
-566.602	73.372	0.011	-0.011
-565.588	22.392	-0.116	-0.096
-564.573	679.876	0.190	0.496
-563.558	-84.568	-0.698	-0.221
-562.544	35.081	-0.259	-0.228
-561.529	-15.631	0.260	-0.167
-560.515	312.874	-0.121	-0.228
-559.500	366.655	0.427	-0.865
-558.485	235.269	0.213	0.353
-557.471	-32.128	-0.988	0.555
-556.456	-120.165	0.094	-0.016
-555.442	237.928	-0.326	0.544
-554.427	-45.558	0.639	0.318
-553.412	-48.235	-0.245	-0.119
-552.398	273.468	-0.465	-0.826
-551.383	91.660	-0.638	-0.720
-550.369	-200.000	0.071	-0.468
-549.354	247.874	-0.452	-0.768
-548.339	-101.354	-0.510	-0.125
-547.325	-86.279	-0.556	0.172
-546.310	-200.000	0.020	0.374
-545.296	-75.652	0.277	0.099
-544.281	78.431	-0.525	-0.563
-543.266	-17.699	-0.982	0.619
-542.252	60.591	-0.158	0.158
-541.237	203.014	0.427	-0.663
-540.223	254.761	0.072	0.123
-539.208	800.000	-0.133	-0.568
-538.193	-73.975	0.668	-0.243
-537.179	148.152	-0.584	0.790
-536.164	308.316	-0.267	-0.501
-535.150	224.289	-0.165	-0.268
-534.135	-181.537	0.325	-0.006
-533.121	800.000	0.309	-1.148
-532.106	-26.896	-0.704	0.413
-531.091	134.629	0.412	-0.536
-530.077	-59.326	0.889	-0.384
-529.062	761.803	-0.122	0.331
-528.048	-192.324	0.366	0.003
-527.033	27.487	-0.894	-0.754
-526.018	-70.336	-0.234	0.089
-525.004	800.000	0.279	-1.028
-523.989	-4.291	0.314	0.218
-522.975	585.442	-0.126	-0.309
-521.960	78.575	-0.343	-0.368
-520.945	184.228	0.387	-0.575
-519.931	14.118	0.507	-0.396
-518.916	-33.382	0.094	-0.052
-517.902	-54.486	-0.985	-0.448
-516.887	96.908	-0.352	-0.405
-515.872	-168.152	-1.132	-0.044
-514.858	132.690	0.674	-0.872
-513.843	-118.901	1.009	0.178
-512.829	-90.964	0.237	-0.068
-511.814	-90.502	0.468	0.136
-510.799	-200.000	-0.190	1.099
-509.785	-69.529	-0.104	0.040
-508.770	-136.911	0.431	-0.050
-507.756	-113.956	1.157	-0.225
-506.741	446.477	0.345	-0.760
-505.726	-40.497	0.687	0.358
-504.712	-156.091	-1.385	-0.088
-503.697	-42.705	0.288	0.147
-502.683	25.690	0.403	0.337
-501.668	-162.851	-0.884	0.043
-500.653	-101.065	0.203	0.050
-499.639	6.189	0.268	-0.199
-498.624	432.898	-0.453	0.984
-497.610	-200.000	0.141	-0.682
-496.595	282.724	0.335	0.602
-495.581	49.369	-0.715	0.674
-494.566	289.554	0.388	-0.706
-493.551	30.932	-0.650	0.558
-492.537	800.000	-0.157	0.570
-491.522	370.623	0.408	0.829
-490.508	54.980	0.244	-0.236
-489.493	-78.595	-0.451	-0.155
-488.478	-70.840	0.323	0.122
-487.464	229.326	-0.241	-0.394
-486.449	-81.921	-0.863	0.283
-485.435	-48.934	0.551	-0.265
-484.420	-4.591	0.161	0.112
-483.405	-155.167	-0.783	-0.051
-482.391	98.963	-0.067	-0.077
-481.376	-200.000	0.174	0.778
-480.362	5.895	-0.616	0.457
-479.347	142.274	0.177	-0.235
-478.332	320.557	-0.247	-0.471
-477.318	157.755	0.382	-0.530
-476.303	-200.000	-0.046	-0.513
-475.289	-66.208	0.585	0.233
-474.274	-145.162	0.207	-0.019
-473.259	-60.608	-1.035	0.440
-472.245	-75.613	0.304	0.108
-471.230	-82.678	0.291	-0.094
-470.216	72.986	-0.058	-0.060
-469.201	207.735	0.260	0.407
-468.186	-51.475	0.572	0.267
-467.172	172.139	0.337	0.484
-466.157	-65.549	0.225	0.090
-465.143	-9.672	0.407	-0.271
-464.128	-200.000	0.036	-0.444
-463.113	-51.660	-0.226	-0.105
-462.099	135.384	-0.215	0.279
-461.084	477.840	-0.130	0.295
-460.070	171.008	0.702	1.007
-459.055	174.317	-0.185	-0.268
-458.040	800.000	-0.196	-0.843
-457.026	121.162	0.486	-0.605
-456.011	-80.138	0.630	0.211
-454.997	37.676	-0.852	0.757
-453.982	-118.807	-0.967	-0.170
-452.968	-31.095	-1.049	-0.592
-451.953	-172.008	-0.429	0.014
-450.938	-200.000	0.199	1.044
-449.924	106.664	0.295	0.350
-448.909	591.106	0.159	0.393
-447.895	653.025	0.128	-0.328
-446.880	208.624	0.272	-0.426
-445.865	65.921	0.198	-0.201
-444.851	-85.818	0.638	-0.198
-443.836	-109.374	0.466	0.099
-442.822	-32.593	-0.281	0.156
-441.807	-50.182	1.116	-0.528
-440.792	-64.471	-0.630	0.256
-439.778	-191.160	0.775	0.008
-438.763	-200.000	0.064	0.723
-437.749	-75.139	0.774	0.277
-436.734	800.000	0.237	0.728
-435.719	-200.000	-0.076	-0.941
-434.705	-200.000	-0.177	-1.040
-433.690	-110.593	0.501	0.104
-432.676	301.338	0.179	-0.330
-431.661	7.846	0.523	0.392
-430.646	800.000	-0.180	-0.683
-429.632	39.985	0.846	-0.760
-428.617	-107.690	0.701	-0.153
-427.603	-90.561	-0.207	-0.060
-426.588	74.672	-0.450	0.473
-425.573	417.819	-0.284	0.607
-424.559	-115.899	-0.277	0.052
-423.544	-43.131	-0.956	0.484
-422.530	-115.134	0.643	0.122
-421.515	-94.418	-0.318	0.087
-420.500	-107.964	-0.580	-0.126
-419.486	-118.767	-0.398	0.070
-418.471	800.000	0.095	-0.342
-417.457	-200.000	-0.015	-0.520
-416.442	1.750	-0.664	-0.478
-415.428	-200.000	-0.017	0.120
-414.413	462.702	-0.445	-0.992
-413.398	36.123	-0.446	-0.393
-412.384	-90.896	-0.307	-0.088
-411.369	-113.146	0.961	0.189
-410.355	368.979	0.284	0.573
-409.340	228.767	-0.248	-0.404
-408.325	27.163	-0.418	-0.350
-407.311	16.930	-0.390	0.308
-406.296	-58.786	0.284	-0.123
-405.282	-78.597	-0.645	0.220
-404.267	-27.101	-0.182	-0.106
-403.252	-75.769	-0.663	0.235
-402.238	-37.985	-0.709	-0.376
-401.223	-200.000	-0.070	0.830
-400.209	17.050	0.219	-0.173
-399.194	212.097	0.363	-0.571
-398.179	218.414	-0.215	-0.342
-397.165	106.178	-0.405	0.479
-396.150	0.488	0.122	0.087
-395.136	-200.000	0.005	-0.432
-394.121	-87.339	-0.547	-0.166
-393.106	-81.898	0.264	-0.086
-392.092	212.012	-0.429	-0.675
-391.077	-200.000	0.009	-0.108
-390.063	-66.953	0.209	-0.082
-389.048	69.800	0.467	0.480
-388.033	-141.925	0.702	-0.070
-387.019	800.000	0.210	-0.591
-386.004	800.000	-0.097	-0.406
-384.990	800.000	-0.037	-0.156
-383.975	22.466	-0.387	0.315
-382.960	66.970	0.393	-0.399
-381.946	23.890	-0.566	0.465
-380.931	-115.543	0.151	0.028
-379.917	800.000	0.064	0.183
-378.902	800.000	-0.053	0.186
-377.888	-13.590	0.201	0.130
-376.873	-200.000	-0.108	-0.474
-375.858	-200.000	0.135	0.981
-374.844	-33.607	0.435	0.239
-373.829	-200.000	0.054	0.915
-372.815	41.671	0.525	0.475
-371.800	152.983	-0.288	-0.392
-370.785	184.829	0.218	0.322
-369.771	102.608	-0.676	0.789
-368.756	-108.988	0.589	0.125
-367.742	50.384	0.277	-0.261
-366.727	44.419	-0.426	0.390
-365.712	251.027	0.413	0.701
-364.698	175.452	-0.399	-0.576
-363.683	-108.097	-0.626	-0.135
-362.669	-200.000	-0.116	0.568
-361.654	-14.252	-0.308	0.198
-360.639	-32.335	0.476	0.265
-359.625	203.754	0.018	0.028
-358.610	-200.000	-0.636	-0.003
-357.596	-30.374	-0.494	0.280
-356.581	625.745	-0.048	-0.122
-355.566	-200.000	-0.144	-0.773
-354.552	-36.997	0.532	-0.284
-353.537	-200.000	-0.025	0.357
-352.523	-172.105	0.449	-0.014
-351.508	-99.075	-0.531	0.134
-350.493	82.716	-0.623	0.674
-349.479	-177.966	0.174	0.004
-348.464	290.785	-0.153	-0.277
-347.450	-106.159	0.401	0.090
-346.435	568.993	0.331	0.802
-345.420	433.917	0.059	-0.128
-344.406	-112.092	0.148	-0.030
-343.391	-43.944	-0.476	0.238
-342.377	-75.577	0.976	0.346
-341.362	-101.188	0.936	0.228
-340.348	55.687	-0.784	0.757
-339.333	-47.620	0.208	0.101
-338.318	-17.137	0.538	-0.338
-337.304	-150.126	-0.570	0.044
-336.289	-49.550	0.479	0.227
-335.275	800.000	0.197	0.569
-334.260	-171.010	0.525	-0.018
-333.245	-42.569	0.344	0.175
-332.231	-121.605	-0.179	-0.030
-331.216	-56.532	0.786	0.347
-330.202	-200.000	-0.077	0.570
-329.187	-13.534	0.028	-0.018
-328.172	-52.751	-0.516	-0.237
-327.158	-161.728	-0.629	-0.032
-326.143	800.000	-0.204	0.648
-325.129	-168.879	-0.403	-0.015
-324.114	106.685	-0.509	-0.601
-323.099	89.562	-0.384	0.426
-322.085	-50.426	-0.553	0.260
-321.070	-200.000	-0.043	0.221
-320.056	-26.137	-0.483	0.283
-319.041	-29.383	-0.211	0.120
-318.026	192.750	-0.357	-0.537
-317.012	-96.801	-0.635	0.166
-315.997	-122.311	-0.346	-0.056
-314.983	-38.478	0.251	-0.132
-313.968	378.959	-0.164	0.335
-312.953	486.945	-0.170	0.387
-311.939	-200.000	-0.152	-1.155
-310.924	-83.886	-1.095	-0.347
-309.910	800.000	0.015	-0.062
-308.895	274.877	0.438	-0.772
-307.880	340.184	-0.558	1.083
-306.866	-48.350	0.879	-0.421
-305.851	-70.146	-0.517	-0.196
-304.837	133.830	0.538	-0.693
-303.822	-176.271	0.714	-0.019
-302.807	-179.228	-0.711	-0.016
-301.793	96.095	0.519	0.590
-300.778	589.849	-0.106	-0.261
-299.764	-14.735	-0.350	-0.224
-298.749	39.804	0.446	0.398
-297.735	-52.782	0.823	0.377
-296.720	800.000	0.202	-0.616
-295.705	-73.241	0.551	0.201
-294.691	-200.000	0.028	0.201
-293.676	800.000	-0.087	0.300
-292.662	-200.000	-0.005	-0.352
-291.647	171.311	0.324	-0.462
-290.632	-200.000	0.013	-0.500
-289.618	741.799	0.219	-0.584
-288.603	543.808	0.217	-0.515
-287.589	197.907	-0.233	0.353
-286.574	57.511	0.569	0.553
-285.559	-133.329	-0.543	0.068
-284.545	55.517	-0.338	0.326
-283.530	-79.733	-0.409	-0.137
-282.516	-25.861	0.395	-0.231
-281.501	51.265	0.363	-0.342
-280.486	537.638	-0.151	0.356
-279.472	-200.000	0.054	0.430
-278.457	-200.000	0.135	0.698
-277.443	-116.742	0.650	-0.119
-276.428	321.134	-0.454	-0.858
-275.413	-37.180	-0.854	-0.454
-274.399	78.962	-0.493	0.524
-273.384	-122.015	0.320	-0.052
-272.370	10.805	0.614	0.466
-271.355	-0.368	0.879	-0.620
-270.340	-94.421	-0.436	-0.118
-269.326	0.898	-0.154	0.110
-268.311	-68.413	0.470	0.181
-267.297	-25.985	0.408	-0.239
-266.282	180.507	0.173	0.252
-265.267	-78.366	-0.186	0.063
-264.253	77.021	0.188	0.198
-263.238	-116.004	-0.583	0.108
-262.224	-87.385	-0.552	-0.166
-261.209	-59.280	-0.670	-0.286
-260.195	215.830	0.399	0.629
-259.180	122.081	-0.130	0.161
-258.165	-104.225	0.754	-0.174
-257.151	-167.796	0.831	0.033
-256.136	-200.000	0.093	0.682
-255.122	800.000	0.095	0.349
-254.107	134.002	-0.317	-0.408
-253.092	562.051	-0.099	-0.239
-252.078	-200.000	0.059	0.319
-251.063	20.062	-0.398	0.319
-250.049	14.174	0.583	-0.450
-249.034	-3.844	0.446	0.307
-248.019	-122.497	0.743	-0.120
-247.005	-86.138	-0.765	0.234
-245.990	800.000	0.203	-0.805
-244.976	-141.347	0.370	-0.037
-243.961	-60.680	1.027	-0.432
-242.946	-200.000	-0.116	0.968
-241.932	192.837	0.412	-0.618
-240.917	-180.330	-0.337	0.007
-239.903	686.410	-0.180	0.466
-238.888	128.882	-0.146	0.185
-237.873	-32.819	-0.789	-0.435
-236.859	84.382	0.203	0.220
-235.844	-200.000	0.065	0.604
-234.830	40.457	-0.475	0.424
-233.815	52.027	0.352	0.332
-232.800	-135.283	0.312	-0.037
-231.786	136.313	0.337	0.435
-230.771	452.772	-0.218	0.478
-229.757	371.429	-0.276	-0.555
-228.742	94.824	0.630	0.711
-227.727	-200.000	-0.017	-0.133
-226.713	232.590	-0.400	-0.652
-225.698	-21.157	-0.527	-0.319
-224.684	403.109	0.263	0.549
-223.669	177.717	0.517	-0.747
-222.655	68.126	0.241	-0.245
-221.640	-145.362	0.437	0.039
-220.625	-200.000	-0.047	-0.682
-219.611	-99.966	0.383	-0.095
-218.596	-59.262	0.287	0.123
-217.582	351.740	0.054	0.106
-216.567	-40.429	-0.563	0.290
-215.552	-22.347	0.504	-0.303
-214.538	-86.953	0.421	-0.127
-213.523	-169.125	0.246	0.009
-212.509	-200.000	-0.020	0.217
-211.494	800.000	-0.304	0.847
-210.479	-174.471	0.489	0.014
-209.465	-31.099	0.301	0.168
-208.450	-18.070	0.255	-0.158
-207.436	-200.000	0.083	-0.585
-206.421	800.000	0.281	-0.991
-205.406	78.012	-0.304	-0.321
-204.392	68.230	0.437	-0.443
-203.377	48.224	0.395	0.366
-202.363	-200.000	-0.044	0.267
-201.348	-200.000	-0.047	-0.603
-200.333	-14.699	0.286	-0.182
-199.319	-79.590	0.386	-0.129
-198.304	800.000	-0.236	0.740
-197.290	271.386	0.222	-0.388
-196.275	-48.801	-0.854	-0.406
-195.260	-200.000	-0.017	-0.137
-194.246	14.122	0.356	0.275
-193.231	-47.598	-0.683	0.329
-192.217	-19.874	-0.407	-0.249
-191.202	-84.478	-0.400	-0.125
-190.187	-34.223	-0.416	0.226
-189.173	800.000	0.115	0.379
-188.158	415.644	0.322	-0.679
-187.144	-66.334	-0.422	0.166
-186.129	800.000	0.247	-0.851
-185.114	-200.000	0.081	-0.650
-184.100	67.638	-0.477	0.482
-183.085	-121.870	-0.743	0.121
-182.071	469.233	-0.086	-0.190
-181.056	3.557	-0.707	0.510
-180.042	-111.700	0.803	-0.161
-179.027	59.872	-0.579	-0.566
-178.012	38.848	-0.378	0.334
-176.998	-200.000	0.079	-0.489
-175.983	-161.490	0.148	0.008
-174.969	-92.105	-0.522	0.146
-173.954	-118.060	-0.108	-0.019
-172.939	-180.410	0.868	0.018
-171.925	-51.903	-0.585	0.269
-170.910	-122.928	-0.891	0.142
-169.896	-1.103	0.130	-0.091
-168.881	329.356	0.493	0.938
-167.866	800.000	-0.210	0.633
-166.852	800.000	0.188	0.723
-165.837	-120.833	-0.459	0.077
-164.823	-114.526	0.601	0.114
-163.808	800.000	-0.272	0.743
-162.793	29.476	-0.312	-0.262
-161.779	34.161	0.549	-0.473
-160.764	128.686	-0.499	0.629
-159.750	1.122	-0.418	-0.297
-158.735	-118.334	0.584	-0.103
-157.720	800.000	0.110	-0.311
-156.706	103.693	0.661	0.767
-155.691	-200.000	-0.025	0.129
-154.677	-101.451	0.262	0.063
-153.662	-1.455	-0.457	0.319
-152.647	-154.108	-0.338	0.023
-151.633	-0.203	0.216	0.152
-150.618	773.828	-0.395	1.065
-149.604	418.183	0.456	-0.963
-148.589	-5.489	0.295	-0.200
-147.574	-145.816	-0.465	-0.041
-146.560	-25.878	0.495	-0.288
-145.545	800.000	0.066	-0.185
-144.531	-108.514	0.530	0.113
-143.516	-9.542	-0.057	0.038
-142.502	-140.019	-0.197	0.021
-141.487	617.340	-0.113	0.281
-140.472	-200.000	0.035	0.380
-139.458	-120.513	0.284	-0.048
-138.443	-94.758	-0.159	-0.043
-137.429	152.193	0.634	0.854
-136.414	-200.000	0.009	0.329
-135.399	209.890	0.522	-0.809
-134.385	-129.643	-0.832	-0.113
-133.370	270.369	0.047	-0.082
-132.356	94.248	-0.301	-0.337
-131.341	24.689	0.292	0.239
-130.326	-78.100	-1.177	-0.400
-129.312	-71.586	0.553	-0.204
-128.297	-71.808	0.440	-0.162
-127.283	800.000	0.074	-0.313
-126.268	-63.320	0.629	-0.256
-125.253	17.338	-0.191	0.150
-124.239	-14.353	-0.669	0.425
-123.224	-200.000	0.051	0.539
-122.210	55.866	0.579	-0.554
-121.195	61.985	-0.094	-0.093
-120.180	-200.000	-0.020	0.540
-119.166	-111.720	-0.586	-0.117
-118.151	-118.099	0.703	0.124
-117.137	-141.972	-0.401	0.039
-116.122	800.000	0.138	-0.393
-115.107	8.644	0.036	0.027
-114.093	85.031	0.460	0.497
-113.078	-68.440	0.458	0.175
-112.064	-61.123	0.496	0.207
-111.049	-51.851	0.366	-0.168
-110.034	-119.235	0.340	0.058
-109.020	613.473	0.127	-0.313
-108.005	19.569	-0.325	0.258
-106.991	-96.374	-0.570	0.149
-105.976	-47.124	-0.269	-0.130
-104.962	-200.000	-0.068	-0.790
-103.947	-69.462	0.614	-0.232
-102.932	-200.000	-0.035	-0.579
-101.918	-77.279	-0.958	-0.329
-100.903	800.000	-0.093	0.324
-99.889	315.664	0.242	0.450
-98.874	-131.947	0.195	-0.025
-97.859	405.409	-0.394	-0.820
-96.845	43.836	-0.588	-0.531
-95.830	105.718	0.124	0.145
-94.816	21.746	0.574	-0.461
-93.801	504.609	-0.235	0.536
-92.786	-161.115	1.177	0.061
-91.772	-200.000	-0.121	-0.686
-90.757	222.944	-0.028	0.045
-89.743	-67.171	0.240	0.093
-88.728	451.158	0.414	0.901
-87.713	-69.319	-0.668	0.253
-86.699	-100.700	1.635	0.398
-85.684	800.000	-0.011	0.031
-84.670	12.742	-0.706	-0.538
-83.655	146.087	0.383	-0.507
-82.640	230.953	0.479	0.774
-81.626	364.010	0.225	0.446
-80.611	-200.000	-0.013	0.209
-79.597	152.116	-0.156	0.209
-78.582	-65.809	0.210	-0.083
-77.567	-121.552	-0.412	-0.067
-76.553	-200.000	-0.083	0.532
-75.538	800.000	0.123	0.511
-74.524	-200.000	0.019	0.359
-73.509	-106.247	0.637	0.141
-72.494	319.222	-0.278	-0.519
-71.480	99.250	0.244	0.279
-70.465	491.624	0.490	-1.107
-69.451	800.000	-0.228	-0.778
-68.436	29.595	-0.243	0.204
-67.422	-48.373	0.624	-0.296
-66.407	-91.255	0.586	-0.165
-65.392	47.630	0.180	-0.165
-64.378	592.473	-0.244	0.594
-63.363	17.872	0.412	-0.324
-62.349	522.003	-0.088	-0.203
-61.334	569.240	-0.365	-0.874
-60.319	-200.000	-0.018	1.115
-59.305	655.578	-0.432	-1.092
-58.290	50.522	1.024	0.954
-57.276	800.000	0.460	1.271
-56.261	-200.000	95.544	573.354
-55.246	645.431	1365.125	3432.349
-54.232	201.651	2529.756	3838.858
-53.217	118.377	2127.309	2584.633
-52.203	44.865	1595.273	1445.947
-51.188	36.584	1335.660	1161.122
-50.173	33.383	1294.910	1106.974
-49.159	56.751	1345.287	1289.717
-48.144	57.632	1361.846	1310.785
-47.130	36.657	1319.255	1147.108
-46.115	33.010	1302.190	1110.828
-45.100	32.730	1298.904	1106.337
-44.086	32.694	1294.376	1102.228
-43.071	32.959	1292.413	1102.062
-42.057	33.060	1289.120	1099.797
-41.042	33.039	1288.022	1098.697
-40.027	32.965	1286.669	1097.066
-39.013	32.967	1285.115	1095.709
-37.998	32.897	1283.629	1093.990
-36.984	32.942	1282.542	1093.283
-35.969	32.860	1280.057	1090.649
-34.954	33.045	1277.874	1089.811
-33.940	33.232	1276.554	1089.721
-32.925	33.041	1276.164	1088.245
-31.911	33.114	1273.870	1086.665
-30.896	32.708	1273.714	1084.155
-29.881	33.062	1270.626	1083.511
-28.867	33.263	1269.530	1083.688
-27.852	32.954	1268.829	1081.279
-26.838	33.104	1267.026	1080.553
-25.823	33.105	1265.898	1079.557
-24.809	32.871	1264.232	1076.757
-23.794	32.990	1262.951	1076.305
-22.779	32.969	1261.725	1075.095
-21.765	33.333	1260.255	1075.867
-20.750	33.126	1259.410	1073.929
-19.736	33.103	1257.870	1072.443
-18.721	32.969	1257.826	1071.605
-17.706	32.855	1257.058	1070.262
-16.692	33.096	1254.029	1069.002
-15.677	33.043	1253.229	1067.975
-14.663	32.955	1252.341	1066.679
-13.648	32.781	1251.715	1065.125
-12.633	32.843	1251.157	1064.957
-11.619	33.144	1249.132	1064.885
-10.604	32.916	1248.194	1062.761
-9.590	32.823	1248.140	1062.151
-8.575	32.873	1246.918	1061.349
-7.560	33.070	1245.161	1060.915
-6.546	33.194	1244.618	1061.106
-5.531	33.000	1244.527	1059.900
-4.517	32.941	1243.658	1058.784
-3.502	32.771	1243.309	1057.493
-2.487	33.155	1241.635	1058.175
-1.473	32.794	1237.605	1052.689
-0.458	31.228	1222.956	1031.540
0.556	28.703	1206.125	993.594
1.571	25.016	1209.861	976.530
2.586	23.680	1225.449	981.641
3.600	23.262	1214.940	970.851
4.615	17.333	1143.095	882.674
5.629	8.007	1066.274	777.930
6.644	3.545	1047.428	742.670
7.659	3.018	1044.915	738.294
8.673	2.799	1042.193	735.257
9.688	2.601	1042.298	734.318
10.702	3.324	1039.944	736.045
11.717	9.277	1048.452	770.612
12.731	19.116	1062.541	828.479
13.746	23.937	1068.018	855.936
14.761	24.822	1069.123	861.008
15.775	24.845	1067.118	859.429
16.790	24.851	1066.733	859.069
17.804	24.609	1066.966	858.023
18.819	24.758	1066.580	858.351
19.834	25.012	1064.953	858.181
20.848	24.829	1064.533	856.888
21.863	24.600	1065.582	856.562
22.877	24.621	1064.196	855.472
23.892	24.594	1062.233	853.690
24.907	24.785	1062.345	854.616
25.921	24.615	1062.081	853.516
26.936	24.590	1060.350	851.930
27.950	24.581	1059.270	850.944
28.965	24.592	1057.513	849.512
29.980	24.620	1055.556	847.995
30.994	24.787	1054.289	847.692
32.009	24.930	1053.071	847.315
33.023	24.910	1051.772	846.102
34.038	24.877	1052.038	846.087
35.053	24.949	1050.556	845.158
36.067	24.654	1051.209	844.214
37.082	24.792	1049.568	843.473
38.096	25.077	1049.161	844.417
39.111	24.693	1049.494	842.796
40.126	24.433	1047.598	839.976
41.140	24.642	1045.493	839.197
42.155	24.694	1044.662	838.701
43.169	24.560	1043.450	837.026
44.184	24.439	1043.115	836.114
45.199	24.445	1042.071	835.233
46.213	24.446	1041.121	834.402
47.228	24.639	1040.448	834.691
48.242	24.673	1040.712	834.985
49.257	24.819	1039.379	834.524
50.271	24.859	1038.106	833.615
51.286	25.077	1036.967	833.638
52.301	24.864	1036.347	832.079
53.315	24.815	1035.965	831.470
54.330	24.772	1034.855	830.305
55.344	24.522	1034.076	828.450
56.359	24.852	1032.710	828.807
57.374	24.681	1031.828	827.235
58.388	24.842	1030.554	826.885
59.403	24.761	1030.696	826.554
60.417	24.244	1030.076	823.592
61.432	24.471	1030.457	824.876
62.447	24.677	1028.599	824.263
63.461	24.869	1027.867	824.487
64.476	24.592	1026.893	822.361
65.490	24.525	1026.271	821.480
66.505	24.701	1024.662	820.929
67.520	24.510	1025.951	821.011
68.534	24.032	1025.071	818.037
69.549	24.128	1023.126	816.852
70.563	24.277	1021.790	816.397
71.578	24.359	1021.298	816.307
72.593	23.982	1020.589	813.943
73.607	24.024	1019.646	813.312
74.622	24.539	1019.244	815.269
75.636	24.584	1018.703	814.973
76.651	24.021	1018.830	812.430
77.666	24.207	1017.656	812.268
78.680	24.349	1017.248	812.519
79.695	24.300	1016.268	811.442
80.709	24.256	1016.663	811.485
81.724	24.587	1014.931	811.538
82.739	24.568	1014.630	811.134
83.753	24.908	1012.916	811.238
84.768	24.999	1013.228	811.826
85.782	24.941	1012.371	810.804
86.797	25.025	1011.189	810.166
87.812	25.209	1011.018	810.789
88.826	25.341	1008.755	809.498
89.841	24.905	1009.360	807.946
90.855	25.284	1006.569	807.343
91.870	25.259	1007.009	807.512
92.884	24.807	1005.749	804.401
93.899	25.177	1004.386	804.900
94.914	25.052	1004.295	804.196
95.928	24.901	1003.382	802.716
96.943	24.676	1001.952	800.492
97.957	24.941	1001.021	800.863
98.972	24.549	1001.174	799.161
99.987	25.083	999.682	800.286
101.001	24.884	997.610	797.667
102.016	25.169	997.195	798.537
103.030	24.748	997.413	796.765
104.045	24.548	997.295	795.708
105.060	24.851	995.109	795.240
106.074	24.935	993.568	794.312
107.089	24.677	993.677	793.184
108.103	24.840	992.433	792.841
109.118	24.835	991.397	791.924
110.133	24.472	990.774	789.751
111.147	24.591	988.960	788.759
112.162	24.265	989.471	787.657
113.176	24.491	988.153	787.536
114.191	24.514	987.662	787.174
115.206	24.251	986.586	785.088
116.220	24.723	985.294	786.069
117.235	23.970	986.279	783.468
118.249	24.238	984.683	783.312
119.264	24.360	982.851	782.317
120.279	24.192	982.595	781.311
121.293	24.338	980.981	780.598
122.308	24.521	980.600	781.022
123.322	24.007	980.019	778.246
124.337	24.235	978.664	778.098
125.352	23.932	977.722	775.957
126.366	24.269	975.650	775.711
127.381	24.522	976.376	777.319
128.395	24.584	975.993	777.215
129.410	24.656	974.584	776.336
130.424	24.776	974.082	776.389
131.439	24.459	973.912	774.812
132.454	24.991	972.164	775.654
133.468	24.807	971.642	774.372
134.483	24.941	970.711	774.143
135.497	24.935	970.365	773.772
136.512	24.856	969.053	772.315
137.527	25.231	967.245	772.422
138.541	24.885	967.725	771.246
139.556	24.943	966.461	770.422
140.570	25.087	967.532	771.825
141.585	25.357	965.870	771.591
142.600	25.246	963.763	769.365
143.614	25.914	961.954	770.709
144.629	25.512	962.669	769.494
145.643	25.142	962.378	767.608
146.658	25.003	960.441	765.402
147.673	25.050	959.376	764.686
148.687	24.715	958.501	762.494
149.702	24.947	957.859	762.906
150.716	24.836	957.150	761.801
151.731	24.983	956.747	762.039
152.746	25.058	955.683	761.440
153.760	25.290	954.235	761.206
154.775	25.073	955.074	760.886
155.789	24.834	954.423	759.287
156.804	25.207	952.669	759.404
157.819	25.182	952.485	759.081
158.833	25.340	951.376	758.799
159.848	25.280	950.765	757.989
160.862	25.191	949.977	756.920
161.877	25.108	948.832	755.593
162.892	25.302	947.952	755.639
163.906	25.267	946.144	753.984
164.921	25.401	945.165	753.701
165.935	25.474	944.718	753.585
166.950	25.366	944.346	752.766
167.964	25.065	943.810	751.015
168.979	24.919	942.356	749.181
169.994	25.022	941.322	748.722
171.008	25.212	940.386	748.703
172.023	25.380	939.702	748.793
173.037	25.566	938.730	748.728
174.052	24.936	938.352	745.736
175.067	24.966	938.265	745.727
176.081	24.916	936.881	744.350
177.096	24.896	935.495	743.100
178.110	24.789	934.385	741.709
179.125	24.456	934.975	740.733
180.140	24.511	934.444	740.475
181.154	24.871	934.966	742.314
182.169	25.083	934.182	742.504
183.183	25.250	933.793	742.822
184.198	25.006	932.374	740.619
185.213	25.119	932.840	741.392
186.227	25.103	931.110	739.884
187.242	25.543	930.262	740.956
188.256	25.540	929.747	740.470
189.271	25.721	928.407	740.082
190.286	25.250	927.503	737.363
191.300	24.435	927.428	733.887
192.315	23.950	925.967	730.672
193.329	23.836	925.694	729.927
194.344	24.514	925.749	732.688
195.359	25.056	925.847	734.923
196.373	25.183	925.756	735.307
197.388	25.447	923.653	734.651
198.402	25.487	923.566	734.681
199.417	25.619	924.108	735.587
200.432	25.525	922.358	733.744
201.446	25.881	921.739	734.637
202.461	25.704	920.713	733.033
203.475	24.622	920.447	728.352
204.490	24.239	919.089	725.653
205.504	24.634	918.311	726.578
206.519	25.396	918.523	729.782
207.534	25.591	917.695	729.848
208.548	25.679	917.292	729.823
209.563	25.204	916.434	727.151
210.577	25.137	916.484	726.854
211.592	25.399	915.633	727.174
212.607	25.746	914.952	727.975
213.621	25.648	913.965	726.727
214.636	25.379	913.148	724.927
215.650	25.482	912.369	724.659
216.665	25.371	912.552	724.295
217.680	25.445	911.423	723.632
218.694	25.193	911.009	722.227
219.709	25.002	910.306	720.837
220.723	25.112	909.154	720.303
221.738	25.419	908.401	720.875
222.753	25.419	907.249	719.895
223.767	24.940	908.317	718.756
224.782	25.493	907.124	719.966
225.796	25.653	906.390	719.958
226.811	25.034	906.245	717.304
227.826	24.627	905.429	714.967
228.840	24.862	904.420	715.046
229.855	24.983	903.753	714.936
230.869	24.447	903.156	712.264
231.884	24.678	902.780	712.826
232.899	25.329	901.936	714.686
233.913	25.331	900.471	713.473
234.928	25.345	899.584	712.763
235.942	24.942	899.717	711.203
236.957	24.606	900.111	710.118
237.972	24.576	899.090	709.130
238.986	24.853	898.352	709.584
240.001	25.251	896.998	710.026
241.015	25.237	896.316	709.370
242.030	25.428	896.015	709.822
243.045	25.249	895.483	708.632
244.059	25.369	895.224	708.837
245.074	25.340	894.727	708.266
246.088	24.949	894.290	706.314
247.103	25.293	894.152	707.500
248.117	25.863	893.310	709.015
249.132	26.168	893.024	709.924
250.147	26.142	892.329	709.206
251.161	26.422	891.911	709.910
252.176	26.351	890.759	708.655
253.190	26.385	890.600	708.600
254.205	26.240	890.164	707.622
255.220	26.114	889.987	706.925
256.234	26.089	889.370	706.273
257.249	26.311	888.369	706.282
258.263	25.906	887.692	704.102
259.278	25.959	886.362	703.192
260.293	25.788	886.704	702.731
261.307	26.160	885.675	703.305
262.322	26.001	885.574	702.543
263.336	25.775	883.937	700.303
264.351	25.151	883.290	697.301
265.366	25.463	882.370	697.728
266.380	26.161	882.388	700.389
267.395	26.078	881.731	699.484
268.409	25.731	881.751	698.089
269.424	26.152	880.416	698.602
270.439	26.057	880.532	698.265
271.453	25.504	879.924	695.583
272.468	25.962	879.136	696.667
273.482	25.845	879.533	696.469
274.497	25.829	877.446	694.694
275.512	25.711	877.364	694.111
276.526	26.082	876.038	694.429
277.541	25.943	877.118	694.688
278.555	26.262	875.754	694.773
279.570	26.012	875.790	693.779
280.585	25.819	875.261	692.557
281.599	25.745	874.018	691.225
282.614	25.737	872.525	689.955
283.628	25.554	872.483	689.157
284.643	25.729	872.389	689.693
285.657	25.790	871.028	688.789
286.672	25.520	870.929	687.618
287.687	25.921	870.220	688.529
288.701	25.826	869.143	687.254
289.716	25.164	870.248	685.535
290.730	25.610	869.064	686.246
291.745	25.526	867.984	685.014
292.760	25.799	867.033	685.240
293.774	26.049	867.665	686.633
294.789	26.152	866.175	685.782
295.803	26.002	866.808	685.651
296.818	26.064	865.228	684.575
297.833	26.029	863.467	682.991
298.847	25.987	863.328	682.661
299.862	26.360	863.358	684.036
300.876	26.586	862.169	683.887
301.891	26.261	863.008	683.264
302.906	26.245	862.257	682.548
303.920	26.086	861.911	681.615
304.935	26.532	861.282	682.740
305.949	26.204	860.618	680.914
306.964	26.306	859.269	680.173
307.979	25.992	858.806	678.564
308.993	26.419	858.334	679.734
310.008	26.635	857.596	679.902
311.022	26.179	856.943	677.613
312.037	25.915	857.038	676.638
313.052	25.995	855.638	675.774
314.066	25.584	854.776	673.495
315.081	25.397	854.348	672.398
316.095	26.013	854.158	674.490
317.110	26.080	853.587	674.233
318.125	25.452	852.979	671.348
319.139	25.148	851.864	669.276
320.154	25.025	850.819	667.935
321.168	25.341	851.192	669.349
322.183	25.717	851.827	671.190
323.197	25.763	850.802	670.493
324.212	25.684	850.165	669.639
325.227	25.735	849.485	669.233
326.241	25.936	848.205	668.913
327.256	25.788	847.967	668.118
328.270	25.900	847.051	667.750
329.285	25.776	846.577	666.860
330.300	25.648	845.041	665.116
331.314	25.263	846.599	664.857
332.329	25.887	846.204	666.798
333.343	25.952	844.422	665.574
334.358	25.971	845.416	666.370
335.373	25.716	845.185	665.187
336.387	26.151	844.228	665.980
337.402	26.195	844.086	665.973
338.416	26.092	844.132	665.569
339.431	26.477	843.720	666.606
340.446	26.525	843.534	666.575
341.460	26.659	843.043	666.621
342.475	26.501	841.933	665.102
343.489	26.633	841.422	665.127
344.504	26.666	841.695	665.405
345.519	26.673	841.328	665.081
346.533	26.574	840.573	664.061
347.548	26.217	840.041	662.275
348.562	26.314	839.513	662.155
349.577	26.635	838.540	662.505
350.592	26.329	838.014	660.910
351.606	26.274	836.879	659.756
352.621	26.514	835.538	659.516
353.635	26.290	835.550	658.651
354.650	26.371	833.663	657.400
355.665	25.694	834.789	655.761
356.679	25.823	834.142	655.667
357.694	26.089	832.456	655.248
358.708	25.757	832.546	654.055
359.723	26.056	832.052	654.696
360.738	26.233	831.099	654.529
361.752	26.300	831.042	654.670
362.767	26.667	829.957	655.083
363.781	26.920	829.975	655.956
364.796	26.813	829.610	655.221
365.810	26.792	829.773	655.215
366.825	26.703	828.947	654.185
367.840	26.491	828.453	652.972
368.854	26.186	827.505	651.068
369.869	26.617	826.083	651.441
370.883	26.452	826.125	650.823
371.898	26.658	825.974	651.386
372.913	26.738	825.745	651.438
373.927	26.450	825.203	649.916
374.942	26.544	824.631	649.747
375.956	26.311	824.183	648.502
376.971	26.816	823.562	649.765
377.986	27.097	823.054	650.313
379.000	26.576	822.322	647.812
380.015	26.449	822.884	647.744
381.029	26.800	821.501	647.852
382.044	26.852	821.127	647.686
383.059	26.885	820.497	647.247
384.073	26.618	819.866	645.743
385.088	26.586	819.098	644.967
386.102	26.239	818.838	643.469
387.117	26.136	817.871	642.286
388.132	25.939	817.025	640.863
389.146	26.079	817.072	641.341
390.161	26.533	816.557	642.493
391.175	27.232	816.196	644.631
392.190	26.591	815.174	641.495
393.205	26.057	813.732	638.416
394.219	25.175	812.495	634.272
395.234	25.163	812.529	634.197
396.248	25.632	812.952	636.132
397.263	25.934	814.175	638.101
398.278	26.262	812.390	637.805
399.292	25.816	811.728	635.657
400.307	25.630	811.891	635.069
401.321	25.796	811.240	635.090
402.336	26.359	810.035	636.070
403.350	26.548	810.167	636.783
404.365	26.844	810.500	638.032
405.380	27.128	810.073	638.635
406.394	27.109	809.429	638.004
407.409	27.256	808.680	637.875
408.423	27.069	808.522	637.036
409.438	27.360	807.908	637.517
410.453	27.419	806.064	636.212
411.467	26.862	807.142	635.058
412.482	26.881	806.560	634.609
413.496	26.474	806.424	633.023
414.511	26.688	805.915	633.313
415.526	26.824	804.919	632.949
416.540	27.005	804.753	633.394
417.555	27.000	804.688	633.273
418.569	27.169	803.884	633.170
419.584	27.009	803.255	632.063
420.599	26.967	803.580	632.116
421.613	160.170	1371.129	1792.849
422.628	139.155	1453.777	1792.977
