DTS Sentinel unit serial number:	SN413079Multiplexer serial number:	ORYXHardware model number:	OX4-SRSoftware version number:	ORYX F/W v4.00 Oryx Data Collector v3.7.2.0data status	okinstallation	princeton_trtdifferential loss correction	single-endedforward channel	channel 1reverse channel	N/Adate	2019/09/17time	06:18:35forward acquisition time	60.00reverse acquisition time	0.00gamma	496.2192k internal	0.2327k external	0.2327temperature offset calibration	0.9970default loss term (dB/km)	0.3790temperature slope calibration	1.0000multiplexer offset coefficient	1.0000multiplexer slope coefficient	1.0000fibre end	0.00T internal ref (°C)	28.42T ext. ref 1 (°C)	0.14T ext. ref 2 (°C)	21.83length (m)	temperature (°C)	Stokes	anti-Stokes-747.200	383.262	-0.021	-0.043
-746.185	13.494	-0.046	0.036
-745.171	594.937	-0.045	0.113
-744.156	-61.666	-0.064	0.027
-743.142	-171.992	-0.134	-0.004
-742.127	-200.000	-0.010	0.152
-741.112	-31.976	-0.152	0.086
-740.098	-5.203	-0.282	0.195
-739.083	27.758	-0.212	-0.180
-738.069	167.970	0.252	0.361
-737.054	800.000	-0.092	0.280
-736.039	681.627	-0.143	-0.377
-735.025	65.564	0.034	0.034
-734.010	64.557	-0.207	-0.211
-732.996	-63.936	-0.279	-0.115
-731.981	-193.515	-0.287	-0.002
-730.966	217.097	-0.077	-0.124
-729.952	97.876	0.112	0.130
-728.937	9.696	-0.398	-0.304
-727.923	-80.915	0.136	-0.045
-726.908	-169.553	-0.407	-0.015
-725.894	800.000	-0.035	0.108
-724.879	-55.978	0.066	-0.029
-723.864	21.548	-0.220	-0.181
-722.850	-70.608	0.064	0.024
-721.835	288.450	0.104	-0.189
-720.821	800.000	0.041	0.173
-719.806	-102.971	-0.242	0.058
-718.791	67.601	0.081	-0.083
-717.777	-68.454	-0.287	-0.112
-716.762	-88.737	-0.046	-0.014
-715.748	176.110	-0.187	0.273
-714.733	-41.782	0.304	0.157
-713.718	-166.009	-0.222	0.010
-712.704	687.992	-0.094	0.247
-711.689	133.670	0.094	-0.122
-710.675	75.068	0.016	-0.017
-709.660	-200.000	0.132	0.000
-708.645	-200.000	-0.003	-0.171
-707.631	-200.000	-0.006	0.136
-706.616	63.617	-0.076	-0.076
-705.602	340.266	-0.182	0.358
-704.587	-200.000	0.021	-0.155
-703.572	17.353	-0.195	-0.156
-702.558	112.090	-0.171	0.208
-701.543	800.000	-0.054	-0.231
-700.529	220.419	-0.199	-0.322
-699.514	-137.966	-0.334	-0.038
-698.499	83.316	0.150	-0.164
-697.485	-38.326	-0.287	-0.153
-696.470	46.154	-0.204	-0.191
-695.456	-200.000	-0.005	0.098
-694.441	573.608	-0.098	-0.241
-693.426	53.315	0.179	0.172
-692.412	103.298	0.083	-0.098
-691.397	-200.000	0.009	0.419
-690.383	345.973	0.041	-0.082
-689.368	-104.220	-0.273	-0.064
-688.354	274.899	0.083	0.147
-687.339	790.717	-0.030	0.083
-686.324	6.237	0.073	0.055
-685.310	-200.000	0.009	0.293
-684.295	27.573	0.130	-0.110
-683.281	-200.000	-0.029	-0.212
-682.266	800.000	0.007	0.023
-681.251	-152.411	-0.224	0.016
-680.237	-29.539	-0.275	-0.158
-679.222	-200.000	-0.025	-0.210
-678.208	-6.865	0.309	-0.211
-677.193	-120.105	-0.180	0.031
-676.178	-111.170	0.389	0.080
-675.164	-14.147	-0.346	-0.224
-674.149	235.730	0.287	-0.476
-673.135	-107.267	-0.149	0.033
-672.120	175.745	-0.118	0.172
-671.105	13.829	-0.208	0.163
-670.091	800.000	0.070	0.305
-669.076	-37.980	0.331	0.177
-668.062	695.982	-0.051	0.136
-667.047	-120.045	-0.065	0.011
-666.032	-200.000	0.036	-0.169
-665.018	-125.233	-0.190	-0.029
-664.003	-194.046	0.062	0.001
-662.989	-45.171	-0.155	0.077
-661.974	-57.640	-0.168	0.074
-660.959	103.616	0.140	-0.165
-659.945	198.285	-0.107	-0.164
-658.930	76.093	0.161	-0.171
-657.916	62.787	-0.159	0.160
-656.901	800.000	0.066	0.222
-655.886	-53.917	0.123	-0.056
-654.872	17.055	0.228	0.182
-653.857	-200.000	-0.069	-0.474
-652.843	567.716	-0.022	-0.053
-651.828	243.014	0.049	-0.083
-650.814	-59.984	-0.064	0.028
-649.799	-101.130	-0.127	-0.031
-648.784	10.114	-0.139	0.106
-647.770	11.680	-0.241	0.186
-646.755	-101.429	0.349	0.085
-645.741	6.079	-0.366	0.273
-644.726	-106.843	0.242	-0.054
-643.711	-85.977	-0.192	-0.060
-642.697	86.461	0.194	-0.214
-641.682	-200.000	-0.012	-0.306
-640.668	800.000	-0.068	-0.208
-639.653	651.565	0.100	-0.258
-638.638	-42.311	0.567	0.291
-637.624	105.606	0.064	-0.076
-636.609	-90.558	-0.490	-0.142
-635.595	800.000	0.096	0.388
-634.580	230.404	-0.185	-0.303
-633.565	-123.610	0.231	0.037
-632.551	58.258	0.269	0.265
-631.536	92.595	-0.241	0.272
-630.522	147.363	-0.212	-0.287
-629.507	203.795	0.150	-0.233
-628.492	-158.864	-0.107	0.006
-627.478	-22.897	-0.317	0.192
-626.463	-10.713	-0.260	0.172
-625.449	-2.526	-0.241	-0.169
-624.434	-66.741	0.201	-0.080
-623.419	-172.971	0.093	0.003
-622.405	-36.189	-0.368	0.199
-621.390	72.410	-0.148	-0.154
-620.376	354.843	0.096	0.191
-619.361	-200.000	-0.058	-0.277
-618.346	-200.000	-0.012	0.244
-617.332	-200.000	-0.004	0.169
-616.317	-46.501	-0.211	0.104
-615.303	-28.308	-0.348	-0.202
-614.288	-200.000	0.030	-0.248
-613.273	-200.000	-0.008	-0.269
-612.259	143.875	0.140	0.187
-611.244	-59.939	-0.051	-0.022
-610.230	-162.287	0.184	-0.009
-609.215	113.641	-0.072	0.087
-608.201	-82.942	0.306	-0.099
-607.186	-27.920	-0.161	0.093
-606.171	106.238	-0.132	-0.157
-605.157	-159.316	-0.284	0.016
-604.142	800.000	0.024	-0.081
-603.128	-200.000	0.034	-0.160
-602.113	-200.000	-0.005	0.153
-601.098	-200.000	-0.031	-0.349
-600.084	-200.000	0.082	-0.397
-599.069	-200.000	0.004	0.047
-598.055	-86.064	0.169	-0.052
-597.040	159.675	-0.081	-0.113
-596.025	-86.560	-0.438	0.135
-595.011	-59.982	0.171	-0.073
-593.996	-200.000	0.061	-0.367
-592.982	-98.901	-0.153	0.039
-591.967	-125.218	-0.081	0.012
-590.952	-200.000	0.000	-0.424
-589.938	-6.253	-0.163	-0.111
-588.923	381.531	-0.099	0.204
-587.909	-107.777	-0.045	-0.010
-586.894	800.000	-0.113	0.314
-585.879	141.909	0.067	-0.089
-584.865	800.000	-0.015	-0.056
-583.850	-127.772	0.066	0.010
-582.836	-63.823	-0.392	-0.161
-581.821	701.747	0.088	-0.232
-580.806	11.415	-0.157	-0.120
-579.792	269.460	-0.027	0.048
-578.777	-200.000	0.039	0.215
-577.763	110.524	-0.166	0.200
-576.748	775.230	0.097	0.264
-575.733	-83.036	-0.217	0.070
-574.719	62.176	0.211	-0.211
-573.704	-200.000	0.021	0.187
-572.690	634.456	-0.072	-0.183
-571.675	470.694	-0.118	0.266
-570.661	800.000	-0.034	0.135
-569.646	800.000	-0.089	0.278
-568.631	124.655	0.204	0.257
-567.617	369.336	0.192	-0.390
-566.602	-200.000	-0.038	-0.333
-565.588	800.000	-0.086	-0.280
-564.573	800.000	-0.053	-0.198
-563.558	85.309	0.050	0.054
-562.544	-200.000	0.016	0.113
-561.529	512.317	-0.039	-0.090
-560.515	61.467	0.204	-0.203
-559.500	470.723	0.066	-0.150
-558.485	-200.000	0.026	0.224
-557.471	-142.440	0.183	0.018
-556.456	-2.517	0.302	-0.212
-555.442	-54.803	-0.093	-0.042
-554.427	292.634	0.194	-0.354
-553.412	203.878	0.010	0.015
-552.398	800.000	-0.014	-0.058
-551.383	-180.150	0.283	0.006
-550.369	299.060	-0.262	0.482
-549.354	34.593	0.011	0.009
-548.339	-118.665	0.317	-0.056
-547.325	-200.000	0.034	-0.309
-546.310	-113.027	-0.222	-0.044
-545.296	-200.000	0.023	0.128
-544.281	800.000	0.018	-0.050
-543.266	7.735	-0.146	-0.109
-542.252	-200.000	0.014	0.088
-541.237	-200.000	0.004	0.189
-540.223	73.995	-0.185	0.194
-539.208	145.061	-0.172	0.230
-538.193	-200.000	-0.002	-0.111
-537.179	129.682	0.059	-0.076
-536.164	38.478	0.243	0.216
-535.150	284.579	0.158	0.285
-534.135	-200.000	-0.040	0.309
-533.121	-110.386	0.044	-0.009
-532.106	153.035	0.086	-0.118
-531.091	-200.000	-0.033	0.280
-530.077	362.596	-0.092	-0.185
-529.062	-4.586	0.230	-0.158
-528.048	223.586	0.111	-0.180
-527.033	-18.928	-0.267	-0.166
-526.018	343.590	-0.071	0.140
-525.004	-124.935	0.134	0.021
-523.989	183.457	0.278	-0.411
-522.975	-20.531	0.300	0.184
-521.960	-26.106	-0.116	-0.068
-520.945	-137.291	-0.187	0.021
-519.931	-6.289	-0.146	-0.100
-518.916	-120.176	0.127	-0.022
-517.902	-75.015	-0.175	-0.063
-516.887	1.165	-0.130	-0.093
-515.872	130.338	0.178	-0.227
-514.858	-88.032	0.417	0.125
-513.843	20.753	-0.056	0.045
-512.829	-200.000	-0.021	0.388
-511.814	-60.846	-0.106	0.045
-510.799	-72.925	-0.138	0.051
-509.785	-200.000	0.052	0.343
-508.770	-2.773	-0.162	-0.113
-507.756	-16.545	0.101	-0.064
-506.741	-43.315	-0.341	0.172
-505.726	379.586	0.060	-0.124
-504.712	248.398	0.121	0.205
-503.697	-19.761	-0.219	0.135
-502.683	263.426	-0.159	0.277
-501.668	-105.318	-0.098	0.022
-500.653	-42.621	-0.159	-0.081
-499.639	512.165	-0.061	0.142
-498.624	117.510	0.106	-0.130
-497.610	-200.000	0.001	0.011
-496.595	-20.440	-0.173	0.106
-495.581	800.000	0.033	0.105
-494.566	239.240	-0.189	0.314
-493.551	76.332	0.149	0.158
-492.537	432.372	-0.076	-0.165
-491.522	-94.863	0.136	-0.037
-490.508	14.368	0.227	0.177
-489.493	-100.209	-0.342	0.085
-488.478	33.146	-0.223	-0.193
-487.464	-200.000	-0.013	0.078
-486.449	-58.497	-0.223	0.097
-485.435	-200.000	-0.015	-0.122
-484.420	362.090	0.113	0.227
-483.405	-71.535	-0.237	0.088
-482.391	-117.936	-0.065	0.012
-481.376	-11.570	0.153	0.100
-480.362	-104.071	0.089	-0.021
-479.347	800.000	-0.080	-0.284
-478.332	170.159	0.141	-0.202
-477.318	-56.824	-0.142	0.063
-476.303	32.655	-0.018	0.015
-475.289	6.171	-0.246	0.182
-474.274	-96.239	0.081	0.021
-473.259	-3.543	0.109	-0.076
-472.245	-68.765	-0.211	-0.081
-471.230	212.161	0.071	0.111
-470.216	-13.847	-0.114	0.074
-469.201	21.345	0.049	-0.040
-468.186	-23.534	-0.064	-0.038
-467.172	-200.000	0.002	-0.185
-466.157	800.000	-0.146	-0.463
-465.143	-59.664	0.103	0.044
-464.128	-200.000	-0.008	0.193
-463.113	53.366	-0.099	-0.095
-462.099	-200.000	0.053	0.345
-461.084	-76.243	-0.283	-0.099
-460.070	7.302	0.089	0.066
-459.055	166.207	0.126	0.178
-458.040	800.000	-0.032	0.090
-457.026	26.946	-0.083	-0.069
-456.011	-199.152	0.188	-0.001
-454.997	-200.000	-0.003	0.098
-453.982	-109.589	-0.194	0.041
-452.968	-7.515	-0.213	0.144
-451.953	2.400	0.341	-0.246
-450.938	1.400	-0.085	0.061
-449.924	127.274	0.307	0.388
-448.909	659.047	0.059	-0.150
-447.895	-52.392	-0.410	-0.189
-446.880	102.060	0.151	-0.176
-445.865	-45.905	0.250	-0.123
-444.851	-36.828	0.360	-0.192
-443.836	-61.159	-0.098	-0.041
-442.822	800.000	0.144	0.406
-441.807	207.661	0.077	0.120
-440.792	14.098	0.277	-0.215
-439.778	-200.000	-0.020	-0.127
-438.763	185.705	0.166	-0.246
-437.749	-200.000	0.007	0.039
-436.734	800.000	0.059	0.248
-435.719	41.354	-0.063	-0.057
-434.705	33.994	-0.456	-0.395
-433.690	79.573	0.085	-0.091
-432.676	-45.078	-0.018	0.009
-431.661	546.018	0.054	0.130
-430.646	6.726	-0.133	0.099
-429.632	-21.094	0.087	0.053
-428.617	194.041	0.137	0.207
-427.603	386.768	-0.065	0.134
-426.588	800.000	0.038	0.130
-425.573	-129.453	-0.314	-0.043
-424.559	44.398	0.065	0.059
-423.544	-109.309	-0.200	-0.042
-422.530	-141.624	-0.110	-0.011
-421.515	154.208	0.072	-0.098
-420.500	5.888	-0.290	0.214
-419.486	26.175	0.111	-0.093
-418.471	-16.244	-0.146	0.092
-417.457	183.262	0.019	0.028
-416.442	86.797	-0.114	0.125
-415.428	157.388	0.068	0.094
-414.413	91.326	0.097	0.108
-413.398	-200.000	0.077	0.533
-412.384	-200.000	-0.009	0.071
-411.369	800.000	0.087	-0.251
-410.355	-52.027	-0.260	-0.120
-409.340	-72.546	0.061	-0.022
-408.325	-99.087	0.058	0.015
-407.311	10.251	-0.077	-0.058
-406.296	589.274	0.031	-0.077
-405.282	-200.000	0.003	-0.031
-404.267	800.000	0.081	-0.244
-403.252	-78.680	-0.231	0.079
-402.238	-200.000	-0.011	-0.133
-401.223	118.351	0.029	0.035
-400.209	-16.259	0.281	-0.177
-399.194	-200.000	-0.036	0.213
-398.179	35.015	0.103	-0.090
-397.165	-57.659	0.159	-0.069
-396.150	-1.036	-0.205	0.144
-395.136	-77.494	0.266	0.092
-394.121	414.944	-0.101	0.213
-393.106	79.890	0.096	-0.103
-392.092	-22.547	0.305	-0.183
-391.077	-122.293	-0.424	-0.069
-390.063	-81.295	0.115	0.038
-389.048	119.080	0.145	0.178
-388.033	800.000	-0.058	0.167
-387.019	-75.930	-0.414	-0.146
-386.004	21.497	-0.152	-0.123
-384.990	-59.073	0.406	-0.174
-383.975	-11.519	0.247	-0.162
-382.960	-133.951	-0.200	0.025
-381.946	-35.092	0.361	-0.195
-380.931	-74.554	0.166	0.059
-379.917	256.590	-0.058	0.099
-378.902	31.046	0.195	0.166
-377.888	250.548	-0.053	0.089
-376.873	-188.146	0.354	0.004
-375.858	800.000	0.164	-0.470
-374.844	129.461	0.190	-0.242
-373.829	495.113	-0.021	0.047
-372.815	12.530	-0.161	-0.123
-371.800	365.632	0.137	0.274
-370.785	-7.013	-0.184	0.124
-369.771	-100.938	0.166	-0.040
-368.756	297.477	-0.158	0.289
-367.742	566.969	0.059	-0.142
-366.727	800.000	0.138	0.445
-365.712	88.429	0.132	0.145
-364.698	-200.000	0.011	0.092
-363.683	8.556	-0.269	0.201
-362.669	331.510	0.024	-0.047
-361.654	60.061	0.164	0.161
-360.639	-119.916	-0.257	-0.044
-359.625	-200.000	-0.002	-0.487
-358.610	-63.799	-0.049	0.020
-357.596	800.000	-0.141	0.439
-356.581	-71.280	0.258	0.096
-355.566	-200.000	-0.014	-0.085
-354.552	-53.032	-0.164	-0.075
-353.537	-59.166	0.137	-0.059
-352.523	11.574	0.330	0.251
-351.508	-57.861	-0.040	0.017
-350.493	-165.462	0.167	-0.007
-349.479	139.621	-0.104	0.136
-348.464	498.356	-0.076	0.174
-347.450	466.246	0.136	-0.302
-346.435	73.943	-0.374	0.390
-345.420	-200.000	-0.114	0.572
-344.406	26.314	0.179	0.149
-343.391	-144.389	-0.239	-0.022
-342.377	-69.030	-0.344	-0.131
-341.362	800.000	0.104	-0.349
-340.348	-200.000	-0.018	-0.285
-339.333	478.892	0.087	0.197
-338.318	-71.441	-0.252	-0.094
-337.304	-48.667	0.111	0.053
-336.289	342.091	-0.263	0.510
-335.275	180.179	-0.241	0.350
-334.260	83.080	0.248	0.268
-333.245	-32.928	-0.289	0.159
-332.231	800.000	-0.026	-0.087
-331.216	-68.128	-0.178	-0.069
-330.202	-200.000	-0.151	0.001
-329.187	800.000	-0.037	-0.123
-328.172	-114.084	0.272	-0.052
-327.158	-114.279	0.174	0.033
-326.143	-83.646	-0.267	0.085
-325.129	296.932	0.148	-0.269
-324.114	18.397	0.085	-0.068
-323.099	200.111	-0.251	-0.382
-322.085	304.096	-0.111	-0.205
-321.070	-138.442	0.252	0.028
-320.056	131.237	0.113	-0.143
-319.041	-41.215	0.118	-0.061
-318.026	-11.616	0.179	0.117
-317.012	800.000	0.117	0.363
-315.997	-167.108	-0.537	-0.022
-314.983	377.097	-0.055	0.111
-313.968	278.413	-0.021	-0.038
-312.953	800.000	0.100	0.312
-311.939	283.705	-0.073	0.131
-310.924	-121.731	-0.418	-0.069
-309.910	21.979	0.172	0.139
-308.895	800.000	0.049	-0.162
-307.880	-138.990	0.384	0.041
-306.866	-200.000	0.011	-0.068
-305.851	309.919	-0.092	-0.171
-304.837	28.913	-0.296	0.248
-303.822	-141.356	0.129	0.013
-302.807	59.819	-0.066	0.064
-301.793	498.264	0.074	-0.169
-300.778	-200.000	-0.016	-0.289
-299.764	-48.765	0.200	-0.095
-298.749	800.000	-0.067	-0.262
-297.735	-200.000	-0.042	-0.217
-296.720	-9.131	0.225	0.149
-295.705	-169.602	-0.145	0.005
-294.691	128.851	0.050	0.063
-293.676	111.709	0.071	0.084
-292.662	313.834	-0.208	0.387
-291.647	127.314	-0.149	-0.188
-290.632	-95.070	0.151	-0.040
-289.618	70.313	-0.250	-0.256
-288.603	414.432	0.139	0.294
-287.589	403.123	0.068	-0.142
-286.574	800.000	0.095	-0.282
-285.559	444.701	-0.077	0.167
-284.545	566.158	0.107	0.257
-283.530	-75.865	0.459	-0.161
-282.516	800.000	0.104	-0.320
-281.501	251.114	0.143	-0.241
-280.486	206.683	0.149	-0.229
-279.472	-123.724	0.344	-0.054
-278.457	-200.000	-0.010	0.150
-277.443	161.176	-0.138	-0.190
-276.428	115.702	0.105	0.127
-275.413	-83.149	0.053	-0.017
-274.399	800.000	0.066	-0.227
-273.384	-89.243	-0.106	0.031
-272.370	800.000	-0.008	0.026
-271.355	170.521	-0.231	-0.328
-270.340	-91.521	0.274	0.077
-269.326	-200.000	0.000	0.262
-268.311	-192.008	0.256	0.002
-267.297	10.892	0.446	0.337
-266.282	-200.000	-0.008	-0.090
-265.267	-200.000	0.009	-0.266
-264.253	274.138	0.097	0.170
-263.238	10.465	-0.146	0.110
-262.224	107.569	0.186	-0.219
-261.209	-109.655	0.227	0.047
-260.195	360.077	-0.151	0.299
-259.180	-200.000	-0.020	0.108
-258.165	-200.000	0.037	0.288
-257.151	-164.571	-0.242	0.011
-256.136	643.450	-0.134	0.337
-255.122	800.000	0.148	-0.449
-254.107	-86.308	-0.134	0.041
-253.092	-200.000	-0.008	-0.259
-252.078	-200.000	0.106	-0.518
-251.063	-37.906	0.064	-0.034
-250.049	-86.058	-0.420	0.128
-249.034	53.822	0.305	0.290
-248.019	-17.400	-0.032	-0.020
-247.005	21.863	0.310	0.250
-245.990	276.772	0.136	0.239
-244.976	396.506	-0.119	0.246
-243.961	800.000	0.048	-0.138
-242.946	220.721	-0.130	0.207
-241.932	-52.139	-0.345	0.158
-240.917	71.854	0.141	-0.145
-239.903	-171.957	0.367	0.012
-238.888	524.322	-0.090	-0.210
-237.873	800.000	0.101	-0.276
-236.859	101.694	0.156	0.180
-235.844	-96.901	-0.111	0.029
-234.830	250.562	-0.148	-0.248
-233.815	800.000	-0.043	-0.134
-232.800	-52.377	-0.213	-0.097
-231.786	-136.245	0.143	0.017
-230.771	-70.627	0.274	-0.102
-229.757	-146.346	0.047	0.004
-228.742	-200.000	0.004	-0.313
-227.727	-115.850	-0.150	-0.028
-226.713	396.714	0.071	0.147
-225.698	800.000	-0.034	0.099
-224.684	-143.392	-0.235	-0.022
-223.669	30.218	-0.290	0.245
-222.655	1.929	-0.146	0.104
-221.640	-45.394	-0.191	0.094
-220.625	311.802	-0.035	-0.065
-219.611	345.908	-0.015	0.028
-218.596	62.827	0.119	-0.117
-217.582	169.545	-0.157	-0.222
-216.567	152.570	-0.253	0.341
-215.552	67.603	-0.127	0.129
-214.538	283.053	0.089	0.157
-213.523	-41.442	0.173	-0.088
-212.509	-140.573	-0.307	-0.031
-211.494	-8.915	0.316	-0.209
-210.479	209.805	-0.204	-0.316
-209.465	-200.000	-0.052	-0.312
-208.450	-130.519	0.166	-0.022
-207.436	-200.000	0.083	-0.402
-206.421	-200.000	0.002	0.066
-205.406	14.007	-0.311	0.239
-204.392	-200.000	0.013	0.136
-203.377	239.418	0.067	0.111
-202.363	172.706	0.108	-0.154
-201.348	800.000	0.119	0.370
-200.333	205.801	-0.198	0.303
-199.319	225.958	0.142	-0.226
-198.304	-200.000	-0.003	0.026
-197.290	-167.098	0.313	0.013
-196.275	-141.010	0.186	-0.019
-195.260	-200.000	0.013	0.128
-194.246	380.553	0.057	-0.116
-193.231	59.927	0.206	0.200
-192.217	-200.000	0.010	0.124
-191.202	-121.090	0.306	-0.051
-190.187	-20.032	0.173	-0.105
-189.173	6.775	0.397	-0.292
-188.158	-192.842	-0.103	0.001
-187.144	-138.287	0.269	-0.029
-186.129	800.000	0.080	-0.258
-185.114	84.238	0.169	-0.182
-184.100	-200.000	0.045	-0.224
-183.085	-110.370	0.266	0.055
-182.071	159.103	-0.134	0.184
-181.056	800.000	0.038	0.139
-180.042	-127.515	-0.272	-0.039
-179.027	-200.000	0.017	-0.384
-178.012	9.213	-0.148	0.111
-176.998	206.117	-0.257	0.394
-175.983	142.469	-0.115	-0.150
-174.969	-200.000	-0.015	-0.265
-173.954	-131.912	-0.081	0.010
-172.939	-105.647	-0.314	0.070
-171.925	-200.000	0.000	0.061
-170.910	139.680	0.185	-0.240
-169.896	-60.943	0.470	-0.196
-168.881	-87.502	0.098	0.029
-167.866	171.574	-0.238	-0.337
-166.852	-200.000	-0.019	0.169
-165.837	-123.198	0.229	-0.036
-164.823	800.000	0.068	0.241
-163.808	742.021	0.069	-0.183
-162.793	-47.910	-0.042	-0.020
-161.779	104.993	0.160	0.186
-160.764	-200.000	-0.054	0.313
-159.750	-64.960	-0.137	-0.055
-158.735	182.010	0.173	-0.251
-157.720	97.684	-0.147	-0.166
-156.706	-31.516	0.134	0.074
-155.691	-200.000	0.023	-0.247
-154.677	-200.000	-0.046	0.284
-153.662	106.001	-0.155	-0.181
-152.647	-80.379	-0.143	0.047
-151.633	-154.888	0.046	0.003
-150.618	51.026	-0.111	0.104
-149.604	12.149	0.140	-0.106
-148.589	72.835	-0.138	-0.142
-147.574	115.265	0.085	-0.103
-146.560	800.000	0.075	-0.243
-145.545	-200.000	-0.080	0.554
-144.531	497.181	0.024	0.054
-143.516	20.627	-0.107	0.085
-142.502	123.352	0.196	0.242
-141.487	67.664	0.123	0.123
-140.472	97.937	0.106	-0.120
-139.458	179.807	-0.092	0.133
-138.443	800.000	0.050	-0.173
-137.429	800.000	0.048	-0.162
-136.414	158.327	0.063	-0.086
-135.399	32.785	0.143	0.121
-134.385	11.393	0.205	0.155
-133.370	35.873	0.031	-0.026
-132.356	689.694	-0.059	0.152
-131.341	800.000	0.075	0.258
-130.326	85.314	-0.208	-0.225
-129.312	-109.078	0.330	-0.069
-128.297	800.000	-0.079	0.296
-127.283	684.306	-0.102	0.262
-126.268	-41.613	0.289	0.146
-125.253	293.755	0.074	-0.132
-124.239	-200.000	-0.023	-0.375
-123.224	-200.000	-0.058	-0.345
-122.210	-115.583	-0.386	0.071
-121.195	-154.935	0.190	-0.012
-120.180	-111.280	-0.129	0.026
-119.166	52.103	0.327	-0.306
-118.151	397.348	-0.172	0.354
-117.137	537.430	0.129	-0.302
-116.122	782.240	0.012	-0.033
-115.107	800.000	0.057	0.185
-114.093	-93.800	0.456	0.124
-113.078	-48.197	0.369	0.175
-112.064	-34.044	-0.440	-0.238
-111.049	426.241	0.050	-0.106
-110.034	542.338	0.136	-0.320
-109.020	25.199	0.322	0.263
-108.005	420.627	-0.095	-0.199
-106.991	-64.166	0.129	-0.052
-105.976	-49.015	0.358	-0.168
-104.962	-106.801	-0.400	-0.087
-103.947	673.987	-0.060	0.154
-102.932	800.000	0.033	0.092
-101.918	380.938	0.041	-0.083
-100.903	-200.000	0.040	-0.307
-99.889	-200.000	-0.015	-0.096
-98.874	-200.000	0.011	0.420
-97.859	-31.372	0.115	0.064
-96.845	400.310	-0.139	-0.287
-95.830	-192.558	0.122	0.001
-94.816	292.381	-0.230	0.412
-93.801	-114.262	0.106	-0.020
-92.786	-25.712	0.045	0.026
-91.772	232.788	-0.252	-0.406
-90.757	610.234	0.028	-0.070
-89.743	191.116	0.009	0.014
-88.728	-88.387	0.152	0.045
-87.713	800.000	0.064	0.237
-86.699	-102.771	-0.094	-0.022
-85.684	800.000	-0.035	-0.138
-84.670	65.088	0.374	-0.371
-83.655	-12.619	0.247	-0.159
-82.640	-18.368	0.028	-0.017
-81.626	800.000	-0.090	-0.258
-80.611	349.359	-0.270	0.523
-79.597	-56.958	0.329	-0.143
-78.582	631.445	0.062	0.154
-77.567	-200.000	-0.002	0.036
-76.553	9.319	0.134	0.100
-75.538	-163.161	0.225	0.011
-74.524	-126.350	-0.251	-0.037
-73.509	-178.903	-0.170	-0.004
-72.494	643.318	0.058	-0.145
-71.480	458.670	0.037	-0.081
-70.465	-111.590	-0.301	-0.060
-69.451	355.155	-0.128	-0.251
-68.436	117.094	0.129	-0.155
-67.422	-73.684	-0.144	0.052
-66.407	-200.000	0.018	-0.129
-65.392	130.584	-0.117	-0.147
-64.378	0.486	0.219	0.154
-63.363	-105.653	-0.243	0.054
-62.349	-200.000	-0.001	-0.065
-61.334	50.202	-0.957	-0.887
-60.319	12.731	0.583	0.442
-59.305	-200.000	-0.006	-1.087
-58.290	291.941	0.571	1.021
-57.276	800.000	0.501	1.465
-56.261	-200.000	111.987	642.842
-55.246	468.306	1506.361	3316.673
-54.232	146.628	2671.542	3522.010
-53.217	106.398	2153.162	2504.219
-52.203	40.041	1603.833	1413.962
-51.188	31.853	1350.212	1140.750
-50.173	28.810	1312.136	1090.512
-49.159	56.582	1367.285	1304.980
-48.144	55.707	1381.291	1313.027
-47.130	32.208	1336.979	1131.526
-46.115	28.488	1320.303	1095.198
-45.100	28.448	1314.974	1090.500
-44.086	28.224	1312.836	1087.352
-43.071	28.246	1310.653	1085.633
-42.057	28.257	1308.446	1083.827
-41.042	28.231	1306.960	1082.400
-40.027	28.337	1305.230	1081.547
-39.013	28.262	1303.473	1079.607
-37.998	28.322	1301.840	1078.563
-36.984	28.367	1299.712	1077.024
-35.969	28.478	1297.679	1075.950
-34.954	28.538	1295.732	1074.644
-33.940	28.434	1294.636	1073.082
-32.925	28.469	1293.651	1072.427
-31.911	28.450	1292.186	1071.058
-30.896	28.481	1291.152	1070.339
-29.881	28.532	1289.541	1069.262
-28.867	28.599	1287.973	1068.305
-27.852	28.565	1286.591	1066.923
-26.838	28.497	1285.008	1065.171
-25.823	28.599	1283.489	1064.461
-24.809	28.429	1282.998	1063.026
-23.794	28.430	1281.407	1061.672
-22.779	28.511	1279.809	1060.774
-21.765	28.601	1278.317	1060.017
-20.750	28.507	1277.163	1058.474
-19.736	28.461	1275.672	1056.932
-18.721	28.459	1274.852	1056.201
-17.706	28.317	1273.875	1054.529
-16.692	28.321	1272.845	1053.658
-15.677	28.479	1271.163	1053.131
-14.663	28.333	1270.596	1051.783
-13.648	28.427	1269.196	1051.119
-12.633	28.401	1268.237	1050.133
-11.619	28.404	1267.621	1049.600
-10.604	28.397	1266.759	1048.805
-9.590	28.379	1265.413	1047.547
-8.575	28.268	1265.021	1046.545
-7.560	28.252	1264.043	1045.602
-6.546	28.309	1263.390	1045.344
-5.531	28.285	1262.133	1044.128
-4.517	28.320	1261.465	1043.733
-3.502	28.454	1260.431	1043.601
-2.487	28.296	1260.066	1042.355
-1.473	28.396	1255.307	1038.944
-0.458	26.495	1240.648	1016.110
0.556	21.104	1223.095	976.144
1.571	17.043	1228.904	957.822
2.586	16.160	1242.682	963.431
3.600	15.929	1231.557	953.413
4.615	11.822	1159.340	875.497
5.629	4.140	1084.688	780.477
6.644	0.405	1065.724	748.258
7.659	0.075	1063.653	745.105
8.673	0.010	1062.123	743.644
9.688	0.050	1060.549	742.675
10.702	0.187	1059.634	742.644
11.717	4.845	1064.979	769.374
12.731	12.867	1075.554	816.830
13.746	16.897	1080.241	840.335
14.761	16.911	1080.099	840.218
15.775	15.885	1078.108	833.517
16.790	14.994	1075.928	827.355
17.804	14.245	1074.473	822.461
18.819	14.036	1073.122	820.326
19.834	13.914	1071.720	818.580
20.848	13.598	1071.300	816.630
21.863	13.326	1070.011	814.235
22.877	13.007	1070.180	812.721
23.892	13.178	1068.899	812.515
24.907	13.159	1068.230	811.841
25.921	13.102	1067.718	811.102
26.936	13.248	1066.537	810.848
27.950	13.315	1065.212	810.097
28.965	13.303	1064.573	809.481
29.980	13.336	1063.462	808.727
30.994	13.477	1061.866	808.133
32.009	13.431	1061.077	807.236
33.023	13.338	1060.007	805.898
34.038	13.372	1059.005	805.227
35.053	13.326	1058.046	804.204
36.067	13.321	1057.512	803.704
37.082	13.345	1056.369	802.879
38.096	13.266	1055.793	801.989
39.111	13.223	1055.642	801.592
40.126	13.195	1054.081	800.203
41.140	13.192	1052.570	798.968
42.155	13.062	1051.831	797.709
43.169	13.097	1050.240	796.603
44.184	13.154	1049.572	796.298
45.199	13.147	1048.484	795.367
46.213	13.269	1047.146	794.872
47.228	13.312	1045.856	794.026
48.242	13.295	1045.011	793.236
49.257	13.169	1044.605	792.252
50.271	13.264	1043.736	791.978
51.286	13.370	1042.251	791.285
52.301	13.336	1041.514	790.497
53.315	13.302	1040.412	789.426
54.330	13.238	1039.222	788.149
55.344	13.118	1038.956	787.305
56.359	13.227	1037.698	786.801
57.374	13.151	1036.714	785.622
58.388	13.125	1035.996	784.887
59.403	13.167	1035.148	784.375
60.417	13.149	1034.090	783.419
61.432	13.040	1033.604	782.462
62.447	13.110	1032.277	781.719
63.461	12.937	1031.529	780.268
64.476	13.057	1030.532	780.009
65.490	13.034	1030.416	779.744
66.505	13.059	1029.478	779.087
67.520	13.076	1028.954	778.698
68.534	13.099	1028.208	778.175
69.549	13.087	1027.455	777.478
70.563	13.109	1026.226	776.586
71.578	13.013	1025.826	775.762
72.593	13.022	1024.842	774.993
73.607	12.974	1024.431	774.385
74.622	13.029	1023.719	774.039
75.636	13.044	1022.853	773.384
76.651	13.002	1022.358	772.744
77.666	13.070	1021.609	772.431
78.680	13.034	1021.034	771.758
79.695	13.083	1020.143	771.245
80.709	13.087	1019.877	770.994
81.724	13.192	1018.849	770.640
82.739	13.219	1018.351	770.320
83.753	13.340	1017.351	770.059
84.768	13.260	1016.458	768.942
85.782	13.393	1015.129	768.485
86.797	13.215	1014.795	767.340
87.812	13.195	1013.963	766.549
88.826	13.260	1012.640	765.783
89.841	13.265	1011.817	765.116
90.855	13.150	1011.346	764.159
91.870	13.248	1010.519	763.922
92.884	13.391	1009.199	763.516
93.899	13.505	1008.145	763.175
94.914	13.499	1007.554	762.632
95.928	13.499	1006.938	762.097
96.943	13.328	1006.113	760.619
97.957	13.369	1005.248	760.087
98.972	13.394	1004.315	759.430
99.987	13.353	1002.972	758.160
101.001	13.303	1002.607	757.587
102.016	13.420	1001.307	757.073
103.030	13.301	1001.057	756.275
104.045	13.431	1000.208	756.159
105.060	13.393	999.049	755.041
106.074	13.207	998.703	753.866
107.089	13.021	997.812	752.279
108.103	13.250	996.514	752.274
109.118	13.207	995.817	751.488
110.133	13.211	994.662	750.568
111.147	13.089	994.165	749.569
112.162	13.192	993.306	749.326
113.176	13.376	992.174	749.237
114.191	13.298	991.717	748.476
115.206	13.140	991.251	747.342
116.220	13.189	990.340	746.811
117.235	13.385	988.717	746.404
118.249	13.268	987.919	745.207
119.264	13.282	987.416	744.827
120.279	13.179	986.728	743.777
121.293	13.201	985.801	743.113
122.308	13.234	984.679	742.350
123.322	13.144	983.901	741.294
124.337	13.286	982.574	740.864
125.352	13.191	981.904	739.869
126.366	13.224	980.542	738.925
127.381	13.178	979.605	737.945
128.395	13.107	979.122	737.200
129.410	13.180	977.922	736.558
130.424	13.421	976.886	736.783
131.439	13.278	976.285	735.631
132.454	13.293	975.209	734.823
133.468	13.377	974.517	734.609
134.483	13.300	973.699	733.582
135.497	13.209	973.151	732.703
136.512	13.319	972.216	732.421
137.527	13.292	971.309	731.555
138.541	13.334	970.426	731.010
139.556	13.342	969.753	730.472
140.570	13.384	969.189	730.170
141.585	13.560	968.089	730.051
142.600	13.502	966.803	728.760
143.614	13.366	966.630	727.966
144.629	13.526	965.819	727.997
145.643	13.570	964.748	727.319
146.658	13.501	963.859	726.283
147.673	13.456	962.632	725.096
148.687	13.410	961.959	724.321
149.702	13.359	960.995	723.308
150.716	13.415	960.456	723.086
151.731	13.293	960.104	722.221
152.746	13.311	959.288	721.622
153.760	13.383	958.689	721.422
154.775	13.414	958.104	721.054
155.789	13.511	957.306	720.810
156.804	13.597	956.366	720.414
157.819	13.573	955.741	719.775
158.833	13.663	954.799	719.391
159.848	13.751	954.085	719.171
160.862	13.625	953.150	717.858
161.877	13.519	952.302	716.699
162.892	13.540	951.487	716.110
163.906	13.436	950.372	714.760
164.921	13.520	949.535	714.430
165.935	13.632	948.794	714.294
166.950	13.653	948.030	713.744
167.964	13.617	947.052	712.789
168.979	13.506	946.442	711.789
169.994	13.513	945.631	711.148
171.008	13.665	944.846	711.146
172.023	13.626	944.172	710.409
173.037	13.754	943.379	710.296
174.052	13.703	942.710	709.511
175.067	13.720	942.001	708.988
176.081	13.647	941.543	708.271
177.096	13.687	940.715	707.754
178.110	13.558	940.644	707.090
179.125	13.632	939.751	706.670
180.140	13.645	939.342	706.353
181.154	13.617	938.903	705.845
182.169	13.772	938.377	706.043
183.183	13.792	937.466	705.381
184.198	13.867	936.574	704.968
185.213	13.873	935.798	704.346
186.227	14.048	935.097	704.496
187.242	13.866	934.831	703.465
188.256	13.969	934.380	703.497
189.271	13.899	933.447	702.437
190.286	13.714	932.715	701.043
191.300	13.610	932.207	700.158
192.315	13.613	931.466	699.552
193.329	13.748	930.938	699.667
194.344	13.925	929.596	699.340
195.359	13.816	929.396	698.671
196.373	13.881	928.844	698.466
197.388	13.920	928.463	698.283
198.402	14.041	927.645	698.112
199.417	14.014	927.384	697.740
200.432	14.125	926.545	697.514
201.446	14.112	926.228	697.160
202.461	14.149	926.181	697.218
203.475	14.006	925.330	695.915
204.490	14.102	924.313	695.492
205.504	14.021	923.788	694.695
206.519	14.153	922.539	694.246
207.534	14.126	921.847	693.550
208.548	14.173	921.287	693.265
209.563	14.054	920.832	692.364
210.577	14.107	919.937	691.850
211.592	14.191	919.182	691.571
212.607	14.188	918.600	691.058
213.621	14.108	918.136	690.316
214.636	14.019	917.788	689.623
215.650	14.261	916.604	689.678
216.665	14.224	915.763	688.832
217.680	14.374	915.219	688.980
218.694	14.409	914.304	688.373
219.709	14.429	913.879	688.076
220.723	14.254	913.132	686.733
221.738	14.342	912.210	686.339
222.753	14.369	911.700	686.006
223.767	14.412	911.256	685.791
224.782	14.337	910.634	684.953
225.796	14.509	910.133	685.222
226.811	14.417	909.369	684.209
227.826	14.423	908.828	683.763
228.840	14.423	907.818	682.946
229.855	14.318	907.372	682.120
230.869	14.402	906.477	681.728
231.884	14.403	905.816	681.175
232.899	14.371	904.826	680.241
233.913	14.433	904.152	679.926
234.928	14.470	903.503	679.530
235.942	14.436	903.081	679.011
236.957	14.526	902.530	678.905
237.972	14.485	901.952	678.245
238.986	14.396	901.232	677.281
240.001	14.511	900.465	677.111
241.015	14.586	899.706	676.785
242.030	14.429	899.439	675.887
243.045	14.530	898.676	675.662
244.059	14.529	898.323	675.334
245.074	14.523	897.452	674.593
246.088	14.678	896.635	674.549
247.103	14.775	895.794	674.245
248.117	14.688	895.401	673.539
249.132	14.816	894.896	673.615
250.147	14.755	894.466	672.989
251.161	14.840	893.953	672.885
252.176	14.799	893.086	672.008
253.190	14.759	892.591	671.416
254.205	14.929	891.937	671.545
255.220	14.879	891.014	670.590
256.234	14.928	890.796	670.565
257.249	14.967	890.107	670.142
258.263	14.929	889.537	669.500
259.278	15.004	888.368	668.863
260.293	14.883	888.090	668.112
261.307	15.145	887.179	668.411
262.322	15.147	886.761	668.045
263.336	15.105	886.149	667.358
264.351	15.202	885.416	667.136
265.366	15.152	884.597	666.259
266.380	15.224	884.200	666.189
267.395	15.182	883.220	665.222
268.409	15.008	883.084	664.369
269.424	15.181	881.618	663.894
270.439	15.173	881.026	663.358
271.453	15.123	880.511	662.715
272.468	15.114	879.985	662.223
273.482	15.191	879.389	662.021
274.497	15.138	878.749	661.273
275.512	15.190	878.316	661.094
276.526	15.113	877.950	660.454
277.541	15.056	877.716	659.997
278.555	15.252	876.584	659.858
279.570	15.295	876.250	659.716
280.585	15.319	875.427	659.132
281.599	15.294	874.689	658.420
282.614	15.229	873.781	657.423
283.628	15.262	873.710	657.444
284.643	15.350	873.085	657.258
285.657	15.478	871.958	656.852
286.672	15.452	871.909	656.656
287.687	15.363	871.173	655.697
288.701	15.326	870.343	654.869
289.716	15.437	869.564	654.657
290.730	15.500	869.027	654.440
291.745	15.513	868.397	653.961
292.760	15.577	867.751	653.663
293.774	15.484	867.339	652.934
294.789	15.440	866.800	652.298
295.803	15.534	865.585	651.694
296.818	15.590	865.118	651.499
297.833	15.542	864.588	650.858
298.847	15.624	863.688	650.440
299.862	15.582	863.390	649.994
300.876	15.657	863.248	650.122
301.891	15.548	862.231	648.876
302.906	15.646	861.619	648.735
303.920	15.746	861.100	648.675
304.935	15.630	861.072	648.149
305.949	15.682	859.809	647.339
306.964	15.814	859.254	647.372
307.979	15.656	858.930	646.463
308.993	15.866	858.346	646.773
310.008	15.782	857.710	645.915
311.022	15.960	856.675	645.762
312.037	15.726	856.369	644.577
313.052	15.783	855.843	644.343
314.066	15.633	855.918	643.765
315.081	15.735	855.048	643.445
316.095	15.815	853.911	642.839
317.110	15.744	853.821	642.444
318.125	15.800	853.224	642.153
319.139	15.864	852.825	642.037
320.154	15.946	851.952	641.638
321.168	15.911	851.828	641.352
322.183	15.722	851.476	640.311
323.197	15.916	850.737	640.435
324.212	15.878	850.099	639.754
325.227	15.803	849.599	639.038
326.241	15.907	848.615	638.636
327.256	15.901	848.056	638.136
328.270	15.853	847.258	637.297
329.285	15.743	847.037	636.658
330.300	15.787	846.525	636.383
331.314	15.934	845.989	636.481
332.329	15.929	845.621	636.130
333.343	16.056	845.237	636.263
334.358	16.133	844.447	635.900
335.373	16.066	844.213	635.417
336.387	16.010	844.126	635.083
337.402	16.054	843.850	634.985
338.416	16.013	843.499	634.512
339.431	16.041	843.349	634.448
340.446	16.009	842.720	633.796
341.460	16.186	842.139	633.971
342.475	16.269	841.758	633.938
343.489	16.217	841.590	633.562
344.504	16.375	840.746	633.462
345.519	16.255	840.275	632.601
346.533	16.355	839.796	632.560
347.548	16.367	839.296	632.172
348.562	16.257	838.819	631.345
349.577	16.218	838.245	630.711
350.592	16.189	837.642	630.092
351.606	16.224	836.892	629.605
352.621	16.219	835.856	628.750
353.635	16.317	835.118	628.503
354.650	16.381	834.595	628.294
355.665	16.301	834.255	627.684
356.679	16.430	833.414	627.473
357.694	16.473	833.005	627.273
358.708	16.457	832.099	626.474
359.723	16.450	831.873	626.221
360.738	16.446	831.357	625.762
361.752	16.490	830.700	625.377
362.767	16.573	830.267	625.302
363.781	16.581	829.699	624.850
364.796	16.542	829.029	624.144
365.810	16.688	828.719	624.394
366.825	16.567	828.654	623.844
367.840	16.658	827.863	623.530
368.854	16.686	826.937	622.880
369.869	16.632	827.130	622.770
370.883	16.799	826.590	622.923
371.898	16.692	826.100	622.105
372.913	16.899	825.833	622.610
373.927	16.861	825.145	621.896
374.942	16.755	824.630	621.065
375.956	16.816	824.300	620.983
376.971	16.835	823.911	620.705
377.986	17.035	823.147	620.809
379.000	16.834	823.159	620.027
380.015	16.961	822.455	619.907
381.029	16.908	822.051	619.351
382.044	16.917	821.156	618.655
383.059	16.945	820.817	618.449
384.073	17.018	819.871	617.947
385.088	16.911	819.564	617.271
386.102	16.906	819.144	616.883
387.117	16.848	818.256	615.947
388.132	17.025	817.551	616.006
389.146	17.010	817.407	615.788
390.161	17.086	816.791	615.544
391.175	16.835	816.697	614.509
392.190	16.895	815.977	614.130
393.205	16.915	815.526	613.807
394.219	16.920	815.222	613.544
395.234	16.966	814.902	613.414
396.248	17.008	814.078	612.894
397.263	16.815	813.728	611.880
398.278	16.886	813.507	611.915
399.292	16.886	813.388	611.770
400.307	16.991	812.428	611.373
401.321	17.039	811.952	611.133
402.336	17.023	811.596	610.753
403.350	17.123	811.124	610.703
404.365	17.209	810.714	610.650
405.380	17.144	810.274	610.031
406.394	17.170	809.789	609.704
407.409	17.364	808.821	609.618
408.423	17.243	809.163	609.388
409.438	17.242	808.340	608.713
410.453	17.436	807.802	608.948
411.467	17.516	807.197	608.723
412.482	17.459	807.033	608.341
413.496	17.574	806.572	608.351
414.511	17.513	806.385	607.938
415.526	17.423	805.965	607.245
416.540	17.461	805.520	606.994
417.555	17.586	804.706	606.772
418.569	17.469	804.431	606.091
419.584	17.569	804.101	606.147
420.599	17.379	803.747	605.150
421.613	110.243	1294.673	1474.126
422.628	94.998	1366.193	1474.247
