DTS Sentinel unit serial number:	SN413079Multiplexer serial number:	ORYXHardware model number:	OX4-SRSoftware version number:	ORYX F/W v4.00 Oryx Data Collector v3.7.2.0data status	okinstallation	princeton_trtdifferential loss correction	single-endedforward channel	channel 1reverse channel	N/Adate	2019/09/15time	10:02:35forward acquisition time	60.00reverse acquisition time	0.00gamma	496.2192k internal	0.2309k external	0.2309temperature offset calibration	0.9986default loss term (dB/km)	0.3790temperature slope calibration	1.0000multiplexer offset coefficient	1.0000multiplexer slope coefficient	1.0000fibre end	0.00T internal ref (°C)	34.16T ext. ref 1 (°C)	4.99T ext. ref 2 (°C)	30.04length (m)	temperature (°C)	Stokes	anti-Stokes-747.200	-88.575	0.087	-0.026
-746.185	-65.932	-0.220	0.089
-745.171	-141.234	0.186	0.019
-744.156	-162.826	0.186	-0.009
-743.142	-161.354	0.386	0.020
-742.127	-60.923	-0.236	0.101
-741.112	-105.779	0.509	-0.117
-740.098	63.823	-0.077	-0.079
-739.083	-200.000	0.000	0.180
-738.069	528.234	0.252	0.604
-737.054	-74.686	0.058	0.021
-736.039	-56.129	-0.123	-0.056
-735.025	386.041	0.214	0.449
-734.010	-146.465	-0.343	0.030
-732.996	-200.000	-0.022	0.292
-731.981	145.248	-0.047	0.064
-730.966	-41.192	-0.063	0.033
-729.952	-107.092	-0.066	-0.015
-728.937	-200.000	-0.008	0.236
-727.923	-46.410	0.134	-0.067
-726.908	-149.937	-0.321	0.025
-725.894	-36.341	-0.188	0.103
-724.879	-111.751	-0.273	0.056
-723.864	178.235	-0.217	-0.321
-722.850	-200.000	-0.037	-0.261
-721.835	-112.055	0.333	-0.068
-720.821	-80.760	0.390	0.132
-719.806	-143.527	0.340	0.033
-718.791	302.918	0.078	0.146
-717.777	295.330	0.102	0.189
-716.762	247.282	0.142	0.244
-715.748	33.860	-0.137	0.121
-714.733	-192.566	0.073	0.001
-713.718	22.572	-0.218	0.181
-712.704	12.156	0.334	-0.261
-711.689	-139.719	-0.117	-0.013
-710.675	-200.000	-0.016	-0.229
-709.660	-82.547	-0.161	-0.053
-708.645	-17.452	0.262	0.167
-707.631	-9.692	0.267	0.181
-706.616	69.621	0.080	-0.084
-705.602	182.257	0.043	-0.064
-704.587	-144.816	-0.297	-0.028
-703.572	101.377	0.067	0.079
-702.558	-49.459	-0.123	-0.060
-701.543	97.425	-0.123	-0.143
-700.529	69.353	-0.189	0.197
-699.514	-200.000	0.012	-0.276
-698.499	800.000	-0.031	0.104
-697.485	800.000	0.060	0.208
-696.470	57.228	0.290	-0.287
-695.456	-90.667	0.161	-0.047
-694.441	81.318	-0.114	0.125
-693.426	658.762	0.029	-0.076
-692.412	-163.724	-0.248	0.012
-691.397	175.198	-0.054	-0.079
-690.383	33.164	-0.176	0.155
-689.368	81.394	0.224	-0.245
-688.354	291.533	-0.132	-0.243
-687.339	-109.138	-0.246	-0.053
-686.324	-116.778	0.293	0.054
-685.310	-87.348	0.073	-0.022
-684.295	-200.000	-0.001	0.054
-683.281	31.609	-0.218	-0.190
-682.266	-132.837	0.399	0.052
-681.251	-71.249	0.515	-0.196
-680.237	120.758	-0.347	-0.437
-679.222	599.697	-0.066	0.166
-678.208	-61.363	-0.217	-0.093
-677.193	40.637	-0.196	0.179
-676.178	-36.536	0.242	0.132
-675.164	800.000	0.075	-0.308
-674.149	269.711	0.032	0.056
-673.135	533.244	0.121	0.289
-672.120	-200.000	-0.004	-0.170
-671.105	-81.218	0.239	0.080
-670.091	-2.633	0.139	-0.099
-669.076	-116.936	0.313	-0.058
-668.062	-200.000	-0.036	-0.381
-667.047	-76.479	-0.256	-0.091
-666.032	-103.714	-0.229	0.054
-665.018	-162.204	0.299	-0.015
-664.003	48.053	-0.154	0.146
-662.989	14.466	-0.123	0.098
-661.974	-12.596	-0.177	-0.117
-660.959	800.000	-0.039	-0.170
-659.945	179.497	0.042	-0.063
-658.930	620.651	-0.073	-0.186
-657.916	-86.693	-0.199	-0.062
-656.901	-200.000	0.027	0.148
-655.886	800.000	0.081	0.248
-654.872	-70.341	-0.326	-0.125
-653.857	39.491	-0.055	0.050
-652.843	-10.707	-0.316	-0.212
-651.828	-200.000	-0.037	0.244
-650.814	800.000	-0.033	0.120
-649.799	46.321	-0.191	0.179
-648.784	95.732	0.084	0.097
-647.770	-200.000	-0.070	-0.393
-646.755	-200.000	0.051	0.228
-645.741	-10.770	0.166	0.111
-644.726	-104.619	-0.212	-0.049
-643.711	800.000	0.033	-0.138
-642.697	-200.000	-0.009	-0.074
-641.682	196.460	0.109	0.168
-640.668	167.191	-0.212	0.305
-639.653	-92.403	-0.274	0.078
-638.638	109.794	0.107	0.130
-637.624	-39.674	0.141	-0.075
-636.609	323.965	-0.057	0.111
-635.595	-88.387	-0.075	-0.023
-634.580	496.020	-0.052	0.121
-633.565	-117.633	-0.203	0.037
-632.551	800.000	0.025	0.081
-631.536	-101.751	-0.299	-0.073
-630.522	215.998	0.085	-0.136
-629.507	-200.000	0.032	0.220
-628.492	131.968	-0.102	-0.133
-627.478	-99.898	-0.061	0.016
-626.463	-138.940	0.111	-0.012
-625.449	-120.952	0.221	-0.038
-624.434	14.855	0.297	-0.235
-623.419	-159.877	-0.269	0.015
-622.405	446.198	-0.053	-0.118
-621.390	800.000	0.082	0.279
-620.376	4.647	0.125	-0.093
-619.361	-200.000	-0.000	-0.122
-618.346	318.134	0.199	0.381
-617.332	25.356	0.212	0.178
-616.317	-128.124	-0.335	-0.049
-615.303	127.421	-0.174	-0.224
-614.288	800.000	-0.058	-0.208
-613.273	800.000	0.022	-0.061
-612.259	217.776	-0.101	0.162
-611.244	800.000	-0.030	0.088
-610.230	-121.851	0.208	-0.035
-609.215	-159.574	0.126	0.007
-608.201	-101.263	0.310	0.077
-607.186	-145.789	0.103	-0.009
-606.171	224.577	-0.241	-0.393
-605.157	-126.010	0.147	0.022
-604.142	48.389	-0.111	0.105
-603.128	-77.684	0.240	0.084
-602.113	0.815	-0.208	-0.151
-601.098	-128.505	-0.162	-0.023
-600.084	-89.306	0.188	0.056
-599.069	121.635	-0.133	-0.167
-598.055	-7.381	0.136	-0.093
-597.040	213.485	-0.181	-0.289
-596.025	1.182	-0.025	0.018
-595.011	-167.002	-0.117	0.005
-593.996	-55.542	0.339	0.153
-592.982	17.108	-0.291	-0.233
-591.967	89.185	-0.203	-0.228
-590.952	110.203	0.107	0.130
-589.938	38.313	-0.169	0.152
-588.923	656.841	0.035	-0.092
-587.909	82.479	0.148	0.163
-586.894	348.387	0.126	-0.250
-585.879	420.681	-0.053	-0.115
-584.865	-200.000	-0.024	-0.133
-583.850	-34.010	0.099	0.055
-582.836	-57.644	-0.234	-0.103
-581.821	-200.000	-0.034	0.302
-580.806	-200.000	-0.026	-0.136
-579.792	172.294	0.060	-0.087
-578.777	-104.465	-0.319	0.074
-577.763	88.030	-0.069	-0.078
-576.748	501.202	0.323	-0.754
-575.733	-88.530	0.352	0.106
-574.719	522.239	0.051	0.122
-573.704	-89.510	0.101	0.030
-572.690	-174.900	-0.347	-0.010
-571.675	634.244	0.143	-0.365
-570.661	800.000	0.019	-0.067
-569.646	-155.266	-0.174	0.011
-568.631	-200.000	-0.037	-0.245
-567.617	-200.000	-0.024	-0.220
-566.602	498.437	0.053	-0.123
-565.588	-35.343	0.253	-0.139
-564.573	-107.683	0.355	0.078
-563.558	-200.000	0.015	-0.202
-562.544	81.001	-0.159	-0.173
-561.529	-20.799	-0.179	0.111
-560.515	-200.000	-0.011	0.077
-559.500	800.000	-0.034	0.133
-558.485	-7.039	0.187	-0.128
-557.471	-152.194	-0.238	-0.017
-556.456	-104.016	-0.118	0.028
-555.442	-109.709	-0.280	-0.060
-554.427	-63.245	0.158	-0.066
-553.412	0.420	-0.171	0.123
-552.398	513.078	0.089	-0.209
-551.383	439.845	0.060	-0.133
-550.369	-105.023	0.154	-0.036
-549.354	-33.679	0.166	0.092
-548.339	-200.000	0.000	-0.183
-547.325	-126.581	-0.148	0.022
-546.310	6.955	-0.089	-0.067
-545.296	730.461	0.045	-0.120
-544.281	140.461	-0.046	-0.062
-543.266	-200.000	-0.026	-0.155
-542.252	400.713	0.089	-0.187
-541.237	-91.657	-0.231	0.066
-540.223	10.208	-0.057	0.044
-539.208	-12.244	0.306	0.201
-538.193	-200.000	-0.020	0.211
-537.179	-75.014	0.215	0.078
-536.164	403.916	0.130	0.276
-535.150	-114.430	-0.028	0.005
-534.135	432.976	-0.073	0.159
-533.121	183.806	0.190	0.283
-532.106	-200.000	0.009	-0.184
-531.091	-125.120	0.191	0.030
-530.077	479.229	-0.081	-0.185
-529.062	76.508	-0.145	0.155
-528.048	215.595	-0.204	-0.326
-527.033	-167.956	-0.195	0.008
-526.018	-92.046	0.102	-0.029
-525.004	373.298	-0.234	-0.480
-523.989	-81.158	0.098	-0.033
-522.975	5.823	-0.188	0.140
-521.960	-200.000	0.016	0.236
-520.945	-200.000	0.005	-0.141
-519.931	107.424	-0.176	-0.210
-518.916	-88.076	-0.230	0.069
-517.902	-200.000	0.017	-0.129
-516.887	-49.857	0.303	-0.145
-515.872	272.325	0.014	-0.025
-514.858	-54.629	-0.319	0.145
-513.843	800.000	0.007	0.030
-512.829	424.782	0.138	-0.298
-511.814	398.993	0.120	0.254
-510.799	-200.000	-0.008	-0.049
-509.785	230.126	-0.088	-0.145
-508.770	34.619	0.168	-0.148
-507.756	370.696	0.082	-0.168
-506.741	372.298	0.076	-0.155
-505.726	-65.515	0.220	-0.089
-504.712	-88.679	-0.393	-0.118
-503.697	364.191	0.036	0.072
-502.683	-200.000	0.009	0.172
-501.668	129.888	-0.121	-0.156
-500.653	-26.689	0.107	-0.063
-499.639	10.200	-0.108	0.082
-498.624	-200.000	0.004	-0.347
-497.610	800.000	-0.081	-0.238
-496.595	-48.415	-0.347	-0.168
-495.581	-150.834	-0.170	0.013
-494.566	137.999	-0.052	0.069
-493.551	-200.000	-0.029	0.145
-492.537	-6.374	0.160	0.110
-491.522	-79.171	0.074	-0.025
-490.508	-14.131	0.315	0.204
-489.493	435.644	-0.005	0.011
-488.478	307.663	0.106	0.198
-487.464	-51.570	0.335	-0.157
-486.449	-19.947	0.097	-0.060
-485.435	321.692	-0.161	0.307
-484.420	-88.904	0.173	0.052
-483.405	-124.222	-0.193	-0.030
-482.391	-200.000	0.027	0.244
-481.376	178.839	0.124	0.182
-480.362	800.000	-0.117	-0.349
-479.347	-59.594	-0.135	-0.058
-478.332	141.430	-0.167	-0.222
-477.318	-200.000	0.042	0.235
-476.303	800.000	0.047	-0.157
-475.289	-32.530	-0.258	-0.145
-474.274	163.855	0.173	0.245
-473.259	800.000	-0.011	0.040
-472.245	-80.907	-0.388	-0.129
-471.230	50.560	-0.205	-0.195
-470.216	-200.000	0.082	0.422
-469.201	-200.000	-0.005	0.071
-468.186	51.349	0.217	0.207
-467.172	95.855	-0.070	0.080
-466.157	376.520	0.059	0.121
-465.143	-200.000	0.001	-0.073
-464.128	-200.000	-0.050	-0.283
-463.113	-200.000	-0.008	0.157
-462.099	-116.991	0.262	0.048
-461.084	-200.000	-0.039	-0.229
-460.070	800.000	0.017	-0.055
-459.055	-123.755	0.060	0.010
-458.040	-58.304	0.114	-0.050
-457.026	-148.150	-0.171	0.014
-456.011	-78.514	-0.236	0.081
-454.997	-43.650	-0.253	0.128
-453.982	-149.225	-0.129	0.010
-452.968	335.945	-0.074	0.144
-451.953	-140.858	-0.093	0.010
-450.938	497.846	0.127	0.293
-449.924	-38.448	0.075	-0.040
-448.909	135.852	-0.186	0.244
-447.895	-78.915	0.252	0.086
-446.880	38.398	0.110	0.099
-445.865	66.693	0.165	0.169
-444.851	-200.000	0.014	0.223
-443.836	54.283	-0.224	0.217
-442.822	352.378	-0.024	0.047
-441.807	800.000	0.055	-0.170
-440.792	-115.908	0.156	-0.029
-439.778	-33.652	0.251	-0.139
-438.763	-200.000	0.047	0.247
-437.749	-136.781	-0.164	-0.019
-436.734	-200.000	0.166	0.000
-435.719	-141.998	-0.210	0.021
-434.705	-104.274	0.306	0.071
-433.690	-142.743	0.031	-0.003
-432.676	-200.000	0.017	0.151
-431.661	116.178	-0.162	-0.199
-430.646	408.180	0.084	-0.179
-429.632	-8.367	0.055	0.037
-428.617	53.728	0.039	-0.037
-427.603	-200.000	0.025	-0.222
-426.588	800.000	0.052	-0.222
-425.573	-51.117	0.356	0.168
-424.559	-117.423	-0.233	0.042
-423.544	-200.000	0.023	-0.228
-422.530	-6.510	0.152	0.104
-421.515	-129.269	0.147	-0.020
-420.500	-34.592	-0.277	-0.152
-419.486	-29.772	0.146	-0.083
-418.471	113.303	-0.133	-0.162
-417.457	35.679	-0.239	-0.211
-416.442	-200.000	-0.007	0.197
-415.428	110.637	-0.094	0.113
-414.413	101.571	0.211	0.246
-413.398	38.295	-0.231	0.207
-412.384	541.533	-0.086	-0.206
-411.369	43.870	0.078	0.072
-410.355	-69.061	0.049	0.019
-409.340	-75.498	-0.398	0.142
-408.325	-120.829	0.417	0.070
-407.311	153.872	-0.076	0.105
-406.296	-200.000	-0.048	-0.269
-405.282	112.406	0.127	0.154
-404.267	-21.296	-0.207	0.127
-403.252	-47.847	0.100	-0.048
-402.238	270.585	0.045	0.080
-401.223	-100.223	-0.341	-0.085
-400.209	-200.000	-0.028	0.226
-399.194	-200.000	-0.009	0.172
-398.179	388.479	-0.080	-0.166
-397.165	-44.301	0.150	-0.075
-396.150	92.330	0.128	0.144
-395.136	25.676	-0.361	0.301
-394.121	800.000	-0.015	0.055
-393.106	-79.246	0.283	-0.096
-392.092	78.574	0.319	0.341
-391.077	-46.884	0.025	-0.012
-390.063	800.000	0.022	0.086
-389.048	6.473	-0.036	0.027
-388.033	654.520	0.153	-0.394
-387.019	-200.000	0.067	0.297
-386.004	-132.239	-0.171	-0.022
-384.990	-200.000	-0.006	-0.465
-383.975	-200.000	-0.034	-0.157
-382.960	-74.874	0.182	0.066
-381.946	-200.000	-0.014	-0.271
-380.931	58.397	0.177	0.174
-379.917	33.942	-0.144	0.126
-378.902	800.000	0.072	0.228
-377.888	-69.210	0.046	-0.018
-376.873	800.000	0.034	0.114
-375.858	130.540	-0.205	-0.263
-374.844	157.523	0.321	-0.445
-373.829	-200.000	0.012	0.224
-372.815	-16.162	0.057	-0.036
-371.800	-187.907	-0.407	0.005
-370.785	-200.000	-0.024	-0.177
-369.771	-200.000	-0.040	0.210
-368.756	526.283	0.115	0.271
-367.742	515.471	0.009	-0.020
-366.727	800.000	0.030	-0.119
-365.712	274.123	0.299	0.530
-364.698	29.958	-0.157	0.134
-363.683	-200.000	-0.016	0.245
-362.669	-200.000	-0.165	-0.000
-361.654	290.474	0.123	-0.223
-360.639	-70.542	-0.218	0.083
-359.625	109.409	0.166	0.199
-358.610	-68.889	0.103	-0.040
-357.596	-66.149	0.192	-0.076
-356.581	-60.992	0.229	-0.097
-355.566	-200.000	-0.062	-0.401
-354.552	130.534	-0.083	-0.107
-353.537	-161.084	-0.180	-0.009
-352.523	173.561	-0.133	0.192
-351.508	56.805	-0.165	0.160
-350.493	-10.404	0.213	-0.141
-349.479	60.041	-0.292	0.289
-348.464	-22.815	-0.276	-0.166
-347.450	-134.949	-0.359	-0.043
-346.435	178.085	-0.172	0.251
-345.420	-13.235	0.135	0.088
-344.406	-200.000	0.030	-0.189
-343.391	229.578	0.154	-0.252
-342.377	-38.671	-0.026	-0.014
-341.362	559.964	0.109	-0.264
-340.348	15.380	0.182	-0.143
-339.333	-29.574	0.201	0.115
-338.318	239.996	-0.125	0.208
-337.304	391.700	-0.078	0.162
-336.289	596.069	-0.120	0.298
-335.275	236.020	0.079	0.130
-334.260	380.897	0.224	-0.460
-333.245	-151.160	0.385	-0.029
-332.231	-19.667	-0.078	-0.048
-331.216	702.946	0.113	0.297
-330.202	218.267	0.041	-0.066
-329.187	-147.517	-0.460	-0.039
-328.172	144.416	-0.094	0.126
-327.158	-58.440	0.048	-0.021
-326.143	-68.394	0.339	0.131
-325.129	79.929	-0.189	0.203
-324.114	-43.255	-0.230	-0.116
-323.099	-6.366	0.225	0.153
-322.085	-81.039	0.393	0.130
-321.070	450.634	-0.128	-0.283
-320.056	-105.072	0.205	-0.047
-319.041	-51.857	0.030	-0.014
-318.026	49.726	-0.016	-0.015
-317.012	105.105	0.151	0.179
-315.997	370.845	0.163	0.331
-314.983	24.343	-0.051	0.042
-313.968	-21.751	-0.233	-0.142
-312.953	244.298	0.173	0.290
-311.939	180.477	-0.096	0.141
-310.924	800.000	0.095	0.305
-309.910	335.484	-0.049	0.094
-308.895	113.108	-0.088	-0.107
-307.880	153.335	0.272	0.372
-306.866	28.533	0.036	-0.030
-305.851	-200.000	-0.008	-0.106
-304.837	800.000	0.041	0.155
-303.822	180.604	-0.107	0.157
-302.807	742.774	0.071	0.191
-301.793	348.496	-0.070	-0.138
-300.778	-71.313	0.194	-0.073
-299.764	-78.550	-0.432	0.147
-298.749	-51.388	0.097	0.045
-297.735	165.713	-0.028	-0.040
-296.720	421.089	-0.027	0.058
-295.705	-167.883	0.212	-0.008
-294.691	96.246	0.138	-0.157
-293.676	339.214	0.185	-0.359
-292.662	75.132	0.235	-0.247
-291.647	-127.387	-0.306	0.044
-290.632	214.806	0.064	-0.102
-289.618	-124.333	0.329	-0.051
-288.603	-3.096	-0.120	0.083
-287.589	66.372	0.256	0.260
-286.574	425.767	0.165	0.355
-285.559	-21.578	-0.228	0.139
-284.545	-200.000	0.008	0.099
-283.530	168.532	-0.097	-0.138
-282.516	-200.000	-0.020	0.114
-281.501	240.185	-0.116	-0.193
-280.486	21.581	0.092	0.075
-279.472	-91.119	0.263	-0.075
-278.457	17.661	0.068	-0.054
-277.443	-200.000	-0.003	-0.214
-276.428	487.239	0.051	0.116
-275.413	-188.288	-0.084	-0.001
-274.399	394.463	-0.100	-0.209
-273.384	-85.761	0.292	-0.090
-272.370	800.000	-0.052	-0.142
-271.355	37.663	0.152	-0.135
-270.340	-36.274	-0.163	0.088
-269.326	24.095	-0.162	0.134
-268.311	75.570	0.091	-0.096
-267.297	-109.654	0.167	0.035
-266.282	-137.618	-0.294	-0.033
-265.267	23.582	-0.112	-0.092
-264.253	-121.613	0.017	0.003
-263.238	-200.000	-0.052	-0.300
-262.224	347.450	-0.126	-0.248
-261.209	221.706	-0.141	-0.226
-260.195	406.425	0.213	-0.449
-259.180	245.855	-0.160	-0.269
-258.165	123.468	0.159	-0.199
-257.151	202.953	0.051	0.078
-256.136	-128.580	-0.227	-0.032
-255.122	-200.000	-0.009	0.433
-254.107	54.076	-0.066	0.063
-253.092	-82.614	-0.170	0.055
-252.078	-54.554	-0.060	0.027
-251.063	11.528	-0.136	0.104
-250.049	-101.982	0.208	0.050
-249.034	-182.545	-0.464	-0.008
-248.019	-70.530	-0.229	-0.086
-247.005	-55.066	-0.274	0.123
-245.990	-191.146	0.226	0.002
-244.976	194.987	-0.080	-0.120
-243.961	-101.357	0.341	-0.083
-242.946	-200.000	0.025	0.154
-241.932	-146.202	0.146	-0.013
-240.917	464.183	-0.085	0.190
-239.903	21.850	-0.150	-0.121
-238.888	45.770	-0.025	-0.023
-237.873	-200.000	-0.008	-0.243
-236.859	-200.000	0.017	0.327
-235.844	230.967	-0.163	0.266
-234.830	0.358	-0.303	0.215
-233.815	141.786	-0.147	-0.194
-232.800	-200.000	0.031	0.222
-231.786	-200.000	-0.011	0.153
-230.771	-63.255	0.330	-0.135
-229.757	-43.542	0.272	0.137
-228.742	618.278	0.037	0.092
-227.727	-2.440	0.094	0.066
-226.713	14.452	0.098	-0.076
-225.698	-200.000	-0.038	0.238
-224.684	-200.000	0.031	-0.188
-223.669	153.695	-0.245	0.334
-222.655	-200.000	0.025	0.220
-221.640	-200.000	0.015	0.152
-220.625	-183.142	0.263	-0.005
-219.611	800.000	-0.043	0.142
-218.596	21.412	0.057	0.046
-217.582	800.000	-0.011	0.048
-216.567	-15.426	-0.153	-0.097
-215.552	-91.782	0.029	0.008
-214.538	800.000	-0.052	-0.206
-213.523	800.000	0.106	0.434
-212.509	-17.625	0.253	0.158
-211.494	55.862	0.184	-0.177
-210.479	28.920	-0.103	0.087
-209.465	-31.524	0.240	-0.134
-208.450	620.841	-0.087	-0.217
-207.436	103.249	-0.176	-0.205
-206.421	30.717	0.057	0.048
-205.406	265.788	0.138	-0.239
-204.392	117.349	-0.072	-0.088
-203.377	-91.578	0.087	-0.025
-202.363	-145.947	0.448	-0.039
-201.348	-200.000	-0.027	0.434
-200.333	-200.000	-0.010	0.096
-199.319	21.070	-0.311	0.251
-198.304	350.506	0.192	-0.377
-197.290	13.640	-0.198	-0.153
-196.275	-73.214	-0.081	0.029
-195.260	-59.950	0.173	-0.074
-194.246	92.326	-0.139	-0.155
-193.231	-88.013	0.249	0.074
-192.217	-74.237	0.149	-0.053
-191.202	-8.011	-0.303	0.203
-190.187	23.047	-0.088	-0.072
-189.173	764.583	-0.057	-0.155
-188.158	-200.000	0.035	-0.216
-187.144	-48.555	-0.398	-0.190
-186.129	289.339	0.071	-0.128
-185.114	800.000	0.069	-0.263
-184.100	800.000	0.012	-0.034
-183.085	240.047	0.108	-0.180
-182.071	-200.000	-0.026	0.158
-181.056	-131.984	-0.265	-0.034
-180.042	22.816	-0.220	0.179
-179.027	800.000	-0.030	0.122
-178.012	53.856	0.127	0.121
-176.998	306.760	0.179	0.331
-175.983	48.956	0.143	0.134
-174.969	-155.542	-0.327	-0.021
-173.954	-127.285	-0.164	-0.024
-172.939	-74.978	0.213	-0.076
-171.925	88.526	-0.121	-0.134
-170.910	-54.946	-0.142	0.064
-169.896	72.761	0.178	-0.185
-168.881	-200.000	0.056	-0.260
-167.866	-200.000	0.021	-0.182
-166.852	-200.000	0.008	-0.361
-165.837	-200.000	-0.007	0.168
-164.823	-51.236	0.224	0.104
-163.808	26.483	-0.090	-0.074
-162.793	-28.149	-0.256	-0.147
-161.779	800.000	-0.061	0.230
-160.764	-14.175	0.163	0.105
-159.750	22.932	-0.027	0.022
-158.735	-56.417	0.125	0.055
-157.720	-110.009	-0.189	-0.039
-156.706	-76.838	0.071	-0.025
-155.691	-200.000	0.020	-0.112
-154.677	-200.000	0.002	0.022
-153.662	128.575	-0.192	0.243
-152.647	189.065	0.236	0.351
-151.633	-29.944	-0.078	0.044
-150.618	416.791	0.078	-0.166
-149.604	138.200	0.199	-0.260
-148.589	-102.474	-0.112	0.027
-147.574	115.969	0.275	-0.334
-146.560	800.000	0.060	0.168
-145.545	410.386	0.099	-0.209
-144.531	115.912	-0.147	-0.178
-143.516	-106.594	0.085	-0.019
-142.502	657.313	-0.061	-0.157
-141.487	-0.089	0.136	0.096
-140.472	800.000	-0.007	-0.030
-139.458	-36.662	-0.390	-0.208
-138.443	39.934	-0.254	-0.227
-137.429	570.940	-0.104	-0.251
-136.414	53.694	-0.102	-0.097
-135.399	-64.535	0.221	-0.089
-134.385	-166.657	-0.053	0.002
-133.370	363.930	0.071	0.141
-132.356	800.000	-0.019	-0.058
-131.341	-95.700	0.089	0.024
-130.326	-163.112	0.150	-0.007
-129.312	51.332	-0.261	0.246
-128.297	51.180	-0.153	-0.144
-127.283	86.868	-0.311	0.341
-126.268	177.071	0.037	0.054
-125.253	-134.467	-0.292	0.035
-124.239	48.359	-0.131	0.122
-123.224	800.000	-0.073	0.231
-122.210	-200.000	0.020	0.117
-121.195	-16.579	-0.022	-0.014
-120.180	-179.224	-0.226	0.005
-119.166	256.264	0.042	-0.072
-118.151	156.756	0.062	-0.085
-117.137	-66.545	0.244	-0.096
-116.122	-169.256	-0.055	0.002
-115.107	800.000	0.075	0.216
-114.093	85.533	0.056	0.061
-113.078	114.174	0.107	0.129
-112.064	800.000	-0.073	-0.289
-111.049	-115.475	-0.075	0.014
-110.034	491.777	-0.068	-0.154
-109.020	-200.000	-0.064	-0.413
-108.005	-31.269	-0.244	-0.136
-106.991	148.274	-0.061	-0.082
-105.976	205.484	0.208	-0.320
-104.962	145.248	0.221	0.293
-103.947	226.189	0.175	0.281
-102.932	62.193	-0.096	0.095
-101.918	-200.000	0.058	-0.308
-100.903	-128.873	-0.144	0.020
-99.889	279.639	0.084	-0.149
-98.874	413.372	0.044	-0.093
-97.859	457.007	-0.090	-0.198
-96.845	-200.000	0.034	-0.175
-95.830	200.741	0.013	-0.020
-94.816	231.353	-0.091	-0.147
-93.801	189.685	0.142	-0.211
-92.786	-118.459	-0.189	-0.033
-91.772	481.425	-0.075	-0.169
-90.757	534.419	-0.097	-0.228
-89.743	-200.000	0.011	-0.266
-88.728	260.348	-0.030	-0.051
-87.713	-149.184	0.353	0.028
-86.699	-99.640	0.152	-0.038
-85.684	-200.000	0.048	0.476
-84.670	-200.000	-0.039	0.278
-83.655	-200.000	-0.023	0.268
-82.640	143.839	-0.198	0.261
-81.626	89.912	-0.184	-0.203
-80.611	-130.141	-0.235	0.032
-79.597	680.867	-0.097	0.251
-78.582	-78.021	-0.161	-0.055
-77.567	128.757	0.107	-0.135
-76.553	149.559	0.143	-0.192
-75.538	216.230	-0.122	0.191
-74.524	-41.808	0.179	-0.091
-73.509	-48.569	0.159	0.076
-72.494	-77.420	0.085	-0.029
-71.480	38.250	0.265	-0.234
-70.465	-184.857	0.181	-0.003
-69.451	-15.376	-0.457	0.289
-68.436	-80.505	-0.139	0.046
-67.422	-143.396	0.278	0.026
-66.407	5.985	0.081	-0.059
-65.392	-79.627	0.268	-0.089
-64.378	-31.406	-0.161	-0.090
-63.363	-173.022	0.332	-0.010
-62.349	-139.036	0.374	-0.040
-61.334	131.938	-0.778	-0.990
-60.319	80.996	0.227	0.242
-59.305	800.000	-0.176	-0.703
-58.290	111.241	0.531	0.633
-57.276	432.159	0.692	1.483
-56.261	-200.000	96.744	569.238
-55.246	623.580	1403.536	3497.132
-54.232	185.352	2613.946	3837.697
-53.217	120.296	2188.044	2685.939
-52.203	45.954	1634.793	1495.817
-51.188	37.560	1368.784	1200.850
-50.173	34.313	1326.162	1143.955
-49.159	55.923	1374.899	1318.543
-48.144	59.776	1392.329	1358.707
-47.130	37.889	1347.548	1184.026
-46.115	34.343	1329.132	1146.513
-45.100	34.144	1324.645	1141.402
-44.086	34.104	1322.504	1139.272
-43.071	34.097	1319.572	1136.663
-42.057	33.957	1318.050	1134.467
-41.042	33.989	1316.177	1133.006
-40.027	34.098	1315.207	1132.772
-39.013	34.113	1313.008	1130.924
-37.998	34.162	1310.434	1128.951
-36.984	34.185	1309.691	1128.404
-35.969	34.183	1307.428	1126.394
-34.954	34.234	1305.811	1125.261
-33.940	34.163	1304.481	1123.651
-32.925	34.274	1302.887	1122.886
-31.911	34.251	1301.464	1121.482
-30.896	34.198	1300.421	1120.223
-29.881	34.299	1298.717	1119.307
-28.867	34.298	1297.214	1117.963
-27.852	34.278	1296.043	1116.789
-26.838	34.319	1294.702	1115.830
-25.823	34.228	1293.355	1114.095
-24.809	34.266	1291.910	1113.024
-23.794	34.287	1290.411	1111.814
-22.779	34.210	1289.292	1110.359
-21.765	34.241	1287.906	1109.298
-20.750	34.247	1286.291	1107.897
-19.736	34.051	1285.876	1106.358
-18.721	34.061	1284.137	1104.872
-17.706	34.046	1282.808	1103.598
-16.692	34.207	1281.317	1103.206
-15.677	34.174	1280.382	1102.170
-14.663	34.128	1279.607	1101.189
-13.648	34.096	1278.464	1099.975
-12.633	33.986	1278.155	1099.032
-11.619	34.034	1276.718	1098.030
-10.604	34.104	1276.055	1097.822
-9.590	34.054	1274.732	1096.350
-8.575	34.021	1273.920	1095.421
-7.560	33.986	1273.159	1094.521
-6.546	34.023	1272.152	1093.825
-5.531	34.133	1270.693	1093.154
-4.517	34.152	1269.842	1092.492
-3.502	34.234	1269.006	1092.201
-2.487	34.085	1268.275	1090.673
-1.473	34.151	1264.332	1087.616
-0.458	32.841	1249.661	1067.545
0.556	27.983	1231.249	1027.606
1.571	24.031	1236.596	1009.609
2.586	23.003	1252.439	1016.545
3.600	22.382	1241.382	1003.938
4.615	17.319	1169.113	918.144
5.629	9.089	1092.724	816.376
6.644	5.264	1072.090	781.779
7.659	4.940	1069.336	778.082
8.673	4.833	1068.185	776.642
9.688	4.944	1066.469	775.883
10.702	5.231	1065.179	776.298
11.717	10.267	1072.877	807.002
12.731	17.669	1082.791	851.498
13.746	19.514	1083.843	861.465
14.761	18.018	1082.160	852.593
15.775	16.924	1079.834	845.236
16.790	15.921	1077.439	838.294
17.804	15.162	1076.017	833.343
18.819	14.848	1074.723	830.704
19.834	14.508	1073.977	828.365
20.848	14.245	1073.347	826.502
21.863	14.114	1071.940	824.697
22.877	13.974	1071.210	823.366
23.892	13.930	1070.575	822.588
24.907	13.954	1069.709	821.968
25.921	14.051	1068.677	821.582
26.936	14.163	1067.097	820.845
27.950	14.045	1066.204	819.508
28.965	14.235	1064.093	818.746
29.980	14.199	1063.326	817.907
30.994	14.184	1062.565	817.176
32.009	14.194	1061.295	816.177
33.023	14.375	1059.597	815.684
34.038	14.256	1058.487	814.172
35.053	14.216	1058.063	813.583
36.067	14.172	1057.100	812.555
37.082	14.233	1056.073	811.988
38.096	14.163	1055.674	811.268
39.111	14.185	1054.861	810.681
40.126	14.021	1053.501	808.763
41.140	13.900	1052.059	806.997
42.155	13.917	1050.597	805.889
43.169	13.979	1049.656	805.398
44.184	13.970	1048.751	804.588
45.199	13.944	1047.682	803.568
46.213	13.976	1046.701	802.899
47.228	14.059	1045.672	802.443
48.242	14.035	1044.368	801.254
49.257	13.925	1044.336	800.627
50.271	14.160	1042.750	800.472
51.286	14.097	1041.800	799.367
52.301	14.056	1041.268	798.691
53.315	14.046	1039.992	797.598
54.330	14.096	1038.704	796.779
55.344	14.037	1037.922	795.823
56.359	14.052	1037.327	795.368
57.374	14.095	1035.810	794.341
58.388	13.920	1035.213	792.976
59.403	13.912	1034.689	792.466
60.417	13.925	1033.462	791.518
61.432	13.892	1032.861	790.832
62.447	13.799	1032.226	789.832
63.461	13.746	1031.258	788.773
64.476	13.784	1030.408	788.229
65.490	13.792	1029.535	787.532
66.505	13.840	1029.058	787.327
67.520	13.837	1028.349	786.700
68.534	13.944	1027.387	786.399
69.549	13.922	1026.841	785.806
70.563	13.954	1025.986	785.235
71.578	13.821	1024.732	783.577
72.593	13.724	1024.512	782.884
73.607	13.689	1023.833	782.129
74.622	13.796	1022.927	781.874
75.636	13.774	1022.340	781.252
76.651	13.684	1021.760	780.313
77.666	13.651	1021.262	779.711
78.680	13.775	1020.410	779.574
79.695	13.946	1019.186	779.370
80.709	13.956	1018.810	779.063
81.724	13.816	1018.603	778.182
82.739	13.966	1017.597	778.046
83.753	14.122	1016.882	778.158
84.768	14.342	1016.089	778.513
85.782	14.316	1014.940	777.442
86.797	14.228	1013.765	776.061
87.812	14.105	1013.309	775.071
88.826	14.152	1012.515	774.613
89.841	14.177	1011.558	773.928
90.855	14.114	1011.161	773.262
91.870	14.291	1009.858	773.023
92.884	14.159	1009.440	772.019
93.899	14.230	1007.983	771.167
94.914	14.299	1007.542	771.079
95.928	14.221	1006.896	770.156
96.943	14.179	1005.844	769.088
97.957	14.166	1005.178	768.451
98.972	14.304	1003.817	767.982
99.987	14.341	1003.007	767.464
101.001	14.174	1002.256	766.050
102.016	14.157	1001.770	765.534
103.030	14.326	1000.643	765.385
104.045	14.297	999.935	764.641
105.060	14.241	998.764	763.422
106.074	14.081	998.348	762.301
107.089	13.959	996.995	760.642
108.103	13.765	996.189	759.073
109.118	13.917	994.957	758.760
110.133	13.833	994.525	757.981
111.147	14.024	993.370	757.903
112.162	14.028	992.360	757.087
113.176	14.166	991.706	757.148
114.191	14.117	991.287	756.536
115.206	14.141	990.176	755.730
116.220	14.006	989.789	754.756
117.235	14.028	988.451	753.767
118.249	13.937	987.463	752.538
119.264	13.976	987.020	752.312
120.279	14.038	986.219	751.914
121.293	13.924	985.005	750.403
122.308	13.922	984.230	749.740
123.322	14.025	983.125	749.299
124.337	13.941	982.213	748.155
125.352	13.912	981.156	747.156
126.366	13.915	980.640	746.708
127.381	13.955	979.170	745.702
128.395	13.937	978.423	744.987
129.410	13.984	977.418	744.368
130.424	13.949	976.796	743.669
131.439	14.097	975.764	743.483
132.454	14.105	974.734	742.666
133.468	14.207	974.098	742.571
134.483	14.067	973.718	741.593
135.497	14.130	972.691	741.024
136.512	14.150	971.706	740.299
137.527	14.130	970.727	739.396
138.541	14.205	970.194	739.260
139.556	14.151	969.319	738.285
140.570	14.280	968.622	738.262
141.585	14.358	967.917	738.008
142.600	14.309	967.092	737.097
143.614	14.408	966.020	736.650
144.629	14.513	965.341	736.533
145.643	14.396	964.687	735.453
146.658	14.269	963.658	734.041
147.673	14.271	962.507	733.106
148.687	14.161	962.085	732.239
149.702	14.185	960.696	731.222
150.716	14.209	959.971	730.710
151.731	14.172	959.543	730.159
152.746	14.224	958.896	729.828
153.760	14.238	958.497	729.520
154.775	14.134	958.104	728.702
155.789	14.257	957.208	728.494
156.804	14.308	956.211	727.895
157.819	14.338	955.693	727.566
158.833	14.489	954.941	727.588
159.848	14.481	954.270	726.980
160.862	14.413	953.270	725.854
161.877	14.270	952.280	724.414
162.892	14.189	951.225	723.197
163.906	14.235	950.044	722.436
164.921	14.254	949.459	722.009
165.935	14.420	948.285	721.771
166.950	14.282	947.705	720.668
167.964	14.364	946.795	720.269
168.979	14.304	946.132	719.441
169.994	14.280	945.209	718.571
171.008	14.367	944.385	718.255
172.023	14.493	943.685	718.203
173.037	14.586	942.844	717.900
174.052	14.496	942.191	716.953
175.067	14.275	941.896	715.715
176.081	14.334	941.119	715.315
177.096	14.376	940.872	715.242
178.110	14.358	940.269	714.643
179.125	14.447	938.889	713.912
180.140	14.393	938.672	713.452
181.154	14.499	938.337	713.589
182.169	14.621	937.868	713.693
183.183	14.542	937.062	712.678
184.198	14.677	936.182	712.520
185.213	14.518	935.824	711.509
186.227	14.576	935.006	711.068
187.242	14.611	934.511	710.781
188.256	14.830	933.512	710.891
189.271	14.714	932.513	709.570
190.286	14.498	931.940	708.156
191.300	14.261	931.616	706.841
192.315	14.284	930.736	706.208
193.329	14.444	929.967	706.240
194.344	14.433	929.384	705.687
195.359	14.456	928.676	705.186
196.373	14.636	928.236	705.549
197.388	14.692	927.648	705.278
198.402	14.863	927.423	705.765
199.417	14.889	926.856	705.382
200.432	14.876	926.502	704.997
201.446	14.937	925.873	704.713
202.461	14.957	925.545	704.484
203.475	14.981	924.732	703.903
204.490	14.986	923.712	703.087
205.504	14.867	923.193	702.128
206.519	14.849	922.171	701.213
207.534	14.880	921.277	700.602
208.548	14.763	921.224	700.010
209.563	14.790	920.686	699.652
210.577	14.792	919.758	698.893
211.592	14.986	919.020	699.081
212.607	14.954	918.400	698.413
213.621	15.008	917.621	697.985
214.636	14.969	916.511	696.917
215.650	14.959	915.967	696.397
216.665	14.978	915.535	696.089
217.680	15.142	914.725	696.091
218.694	15.005	914.229	695.084
219.709	15.042	913.574	694.678
220.723	15.066	912.877	694.185
221.738	15.095	912.282	693.792
222.753	15.104	911.470	693.149
223.767	15.098	910.973	692.687
224.782	15.296	910.550	693.123
225.796	15.318	909.973	692.713
226.811	15.157	909.082	691.310
227.826	15.265	908.537	691.277
228.840	15.160	907.785	690.211
229.855	15.177	906.518	689.259
230.869	15.194	906.027	688.893
231.884	15.165	905.384	688.224
232.899	15.190	904.402	687.519
233.913	15.131	903.952	686.875
234.928	15.284	902.900	686.640
235.942	15.095	903.069	685.938
236.957	15.134	902.274	685.430
237.972	15.178	901.746	685.148
238.986	15.147	901.159	684.517
240.001	15.174	900.188	683.828
241.015	15.193	899.670	683.450
242.030	15.400	898.912	683.656
243.045	15.223	898.701	682.717
244.059	15.372	897.962	682.700
245.074	15.535	897.222	682.739
246.088	15.358	896.406	681.342
247.103	15.466	895.824	681.276
248.117	15.532	895.062	680.905
249.132	15.567	894.956	680.905
250.147	15.673	894.154	680.664
251.161	15.648	894.229	680.559
252.176	15.772	892.946	680.025
253.190	15.658	892.469	679.141
254.205	15.829	891.670	679.161
255.220	15.837	891.106	678.704
256.234	15.673	890.959	677.872
257.249	15.764	889.679	677.206
258.263	15.656	889.022	676.211
259.278	15.732	888.464	676.030
260.293	15.973	887.435	676.156
261.307	15.902	887.313	675.719
262.322	15.930	886.584	675.213
263.336	16.010	885.910	674.963
264.351	15.955	885.374	674.275
265.366	15.999	884.795	673.950
266.380	15.885	884.327	673.078
267.395	15.938	883.410	672.532
268.409	16.063	882.240	672.080
269.424	15.919	881.825	671.130
270.439	15.957	881.116	670.683
271.453	15.886	880.478	669.855
272.468	15.778	880.423	669.326
273.482	15.972	879.376	669.240
274.497	15.831	879.321	668.578
275.512	15.911	878.471	668.193
276.526	16.020	877.696	667.974
277.541	15.950	877.410	667.421
278.555	15.976	876.695	666.920
279.570	16.157	876.163	667.171
280.585	16.050	875.849	666.451
281.599	16.077	874.176	665.228
282.614	16.157	873.718	665.133
283.628	16.104	873.137	664.422
284.643	16.160	872.654	664.219
285.657	16.129	872.189	663.681
286.672	16.151	871.299	663.034
287.687	16.322	870.882	663.329
288.701	16.155	870.339	662.204
289.716	16.066	870.037	661.565
290.730	16.088	869.449	661.143
291.745	16.350	868.082	661.071
292.760	16.196	868.113	660.436
293.774	16.324	867.354	660.301
294.789	16.424	866.579	660.043
295.803	16.189	865.779	658.457
296.818	16.172	865.251	657.932
297.833	16.379	864.615	658.198
298.847	16.362	863.999	657.603
299.862	16.401	863.364	657.211
300.876	16.270	863.177	656.503
301.891	16.510	862.283	656.695
302.906	16.444	861.674	655.919
303.920	16.489	861.570	655.955
304.935	16.552	860.956	655.674
305.949	16.499	860.475	655.045
306.964	16.586	859.142	654.310
307.979	16.476	858.829	653.586
308.993	16.708	858.146	653.905
310.008	16.636	857.687	653.221
311.022	16.629	856.975	652.595
312.037	16.466	856.600	651.622
313.052	16.401	856.100	650.935
314.066	16.399	855.548	650.447
315.081	16.533	854.740	650.292
316.095	16.306	854.258	648.996
317.110	16.478	853.527	649.041
318.125	16.512	852.994	648.709
319.139	16.542	852.614	648.480
320.154	16.607	852.218	648.368
321.168	16.597	851.554	647.770
322.183	16.627	851.292	647.625
323.197	16.599	850.397	646.781
324.212	16.698	849.842	646.680
325.227	16.659	849.162	645.957
326.241	16.633	848.793	645.519
327.256	16.604	848.154	644.866
328.270	16.587	847.814	644.486
329.285	16.601	847.296	644.088
330.300	16.448	847.014	643.235
331.314	16.647	846.070	643.216
332.329	16.735	845.750	643.253
333.343	16.696	845.560	642.901
334.358	16.698	844.976	642.409
335.373	16.772	844.169	642.019
336.387	16.806	844.036	641.989
337.402	16.711	844.044	641.578
338.416	16.776	843.473	641.336
339.431	16.831	843.465	641.481
340.446	16.928	842.688	641.199
341.460	17.024	842.119	641.073
342.475	17.045	841.876	640.909
343.489	17.053	841.285	640.433
344.504	17.069	840.978	640.202
345.519	17.049	840.642	639.817
346.533	17.158	839.704	639.455
347.548	17.110	839.005	638.684
348.562	16.983	838.815	638.007
349.577	17.059	837.910	637.549
350.592	17.050	837.311	637.003
351.606	16.903	836.614	635.862
352.621	17.018	835.975	635.754
353.635	17.050	835.676	635.588
354.650	17.121	835.088	635.350
355.665	17.084	834.411	634.642
356.679	17.078	833.987	634.241
357.694	17.109	833.154	633.668
358.708	17.289	832.568	633.835
359.723	17.192	831.994	632.980
360.738	17.214	831.287	632.469
361.752	17.212	831.111	632.270
362.767	17.283	830.447	631.977
363.781	17.319	829.852	631.601
364.796	17.293	829.700	631.332
365.810	17.353	829.348	631.229
366.825	17.453	828.493	630.896
367.840	17.453	828.448	630.805
368.854	17.466	827.726	630.249
369.869	17.463	827.330	629.880
370.883	17.273	827.178	629.004
371.898	17.486	826.489	629.214
372.913	17.538	825.947	628.935
373.927	17.525	825.388	628.408
374.942	17.573	824.995	628.230
375.956	17.536	824.792	627.881
376.971	17.783	824.240	628.315
377.986	17.644	823.969	627.544
379.000	17.522	823.504	626.683
380.015	17.580	822.981	626.444
381.029	17.649	822.260	626.095
382.044	17.586	821.623	625.322
383.059	17.698	820.994	625.197
384.073	17.713	820.456	624.787
385.088	17.727	819.834	624.310
386.102	17.615	819.314	623.449
387.117	17.587	818.873	622.955
388.132	17.672	818.137	622.653
389.146	17.686	817.808	622.397
390.161	17.724	817.371	622.147
391.175	17.797	816.856	621.968
392.190	17.826	816.066	621.418
393.205	17.800	815.543	620.870
394.219	17.743	814.931	620.140
395.234	17.631	815.052	619.769
396.248	17.740	814.390	619.607
397.263	17.656	813.877	618.859
398.278	17.701	813.908	618.991
399.292	17.725	812.965	618.306
400.307	17.767	812.511	618.056
401.321	17.762	812.150	617.709
402.336	17.789	811.522	617.275
403.350	17.835	811.283	617.207
404.365	17.777	811.064	616.774
405.380	17.874	810.786	616.859
406.394	17.929	809.827	616.274
407.409	17.919	809.693	616.083
408.423	18.083	809.072	616.144
409.438	18.166	808.802	616.184
410.453	18.054	808.691	615.641
411.467	18.065	808.062	615.149
412.482	18.134	807.610	614.997
413.496	18.151	807.352	614.809
414.511	18.184	806.768	614.426
415.526	18.319	806.397	614.576
416.540	18.150	805.899	613.536
417.555	18.195	805.505	613.341
418.569	18.262	804.954	613.110
419.584	18.251	804.656	612.786
420.599	18.323	804.190	612.635
421.613	153.499	1370.392	1790.215
422.628	133.131	1452.891	1790.325
