DTS Sentinel unit serial number:	SN413079Multiplexer serial number:	ORYXHardware model number:	OX4-SRSoftware version number:	ORYX F/W v4.00 Oryx Data Collector v3.7.2.0data status	okinstallation	princeton_trtdifferential loss correction	single-endedforward channel	channel 1reverse channel	N/Adate	2019/09/16time	09:26:35forward acquisition time	60.00reverse acquisition time	0.00gamma	496.2192k internal	0.2322k external	0.2322temperature offset calibration	0.9969default loss term (dB/km)	0.3790temperature slope calibration	1.0000multiplexer offset coefficient	1.0000multiplexer slope coefficient	1.0000fibre end	0.00T internal ref (°C)	31.66T ext. ref 1 (°C)	12.19T ext. ref 2 (°C)	29.27length (m)	temperature (°C)	Stokes	anti-Stokes-747.200	800.000	-0.068	0.273
-746.185	-84.629	-0.096	0.031
-745.171	-98.579	-0.128	0.033
-744.156	12.434	-0.105	-0.082
-743.142	-108.268	-0.191	-0.042
-742.127	-188.504	-0.131	-0.002
-741.112	-141.030	0.476	-0.049
-740.098	164.752	-0.327	0.466
-739.083	28.312	0.264	-0.226
-738.069	575.453	0.155	0.381
-737.054	-38.592	-0.189	-0.101
-736.039	-168.609	-0.171	-0.007
-735.025	800.000	0.102	0.313
-734.010	325.701	0.246	-0.475
-732.996	-142.428	-0.197	-0.020
-731.981	-104.290	-0.304	0.071
-730.966	-200.000	0.054	0.385
-729.952	508.029	0.062	-0.146
-728.937	-32.761	-0.278	-0.156
-727.923	-11.983	0.095	0.063
-726.908	64.317	-0.166	-0.169
-725.894	-21.795	-0.225	-0.138
-724.879	-200.000	-0.009	0.050
-723.864	5.375	-0.208	-0.155
-722.850	175.758	-0.171	0.250
-721.835	296.011	-0.241	-0.446
-720.821	-37.149	-0.029	0.016
-719.806	-184.412	-0.082	-0.001
-718.791	-114.318	-0.216	-0.042
-717.777	-39.190	0.160	0.085
-716.762	-147.087	-0.186	-0.016
-715.748	-93.380	0.173	-0.048
-714.733	78.938	0.039	-0.042
-713.718	85.240	-0.103	0.114
-712.704	-192.952	0.245	0.002
-711.689	132.721	0.300	-0.390
-710.675	-155.187	-0.372	-0.025
-709.660	248.284	0.189	0.322
-708.645	-111.940	-0.024	-0.005
-707.631	125.976	0.221	-0.282
-706.616	73.019	0.293	-0.309
-705.602	-200.000	0.026	-0.289
-704.587	-200.000	0.074	-0.374
-703.572	251.820	-0.164	0.282
-702.558	321.785	0.193	0.371
-701.543	14.317	-0.114	-0.089
-700.529	-200.000	-0.015	-0.438
-699.514	-127.424	-0.084	-0.012
-698.499	-31.610	0.138	0.078
-697.485	-181.935	0.208	0.004
-696.470	800.000	0.087	-0.363
-695.456	-32.575	-0.231	0.130
-694.441	-26.990	-0.059	-0.034
-693.426	-61.310	0.584	0.248
-692.412	-200.000	-0.024	0.252
-691.397	-65.783	0.168	-0.068
-690.383	518.305	0.097	-0.228
-689.368	-200.000	-0.056	-0.322
-688.354	-57.798	0.219	-0.097
-687.339	-200.000	-0.002	-0.281
-686.324	-4.569	-0.061	0.043
-685.310	-60.553	-0.405	-0.173
-684.295	233.925	0.083	-0.138
-683.281	-200.000	-0.023	-0.191
-682.266	800.000	-0.117	0.474
-681.251	-200.000	0.020	-0.129
-680.237	123.111	0.355	-0.449
-679.222	-25.823	-0.237	-0.141
-678.208	190.620	-0.037	0.057
-677.193	-200.000	-0.282	-0.001
-676.178	-123.147	-0.524	0.085
-675.164	-200.000	0.023	0.103
-674.149	-200.000	0.007	-0.075
-673.135	40.081	0.210	-0.190
-672.120	-200.000	-0.046	0.261
-671.105	800.000	0.029	-0.095
-670.091	-173.347	-0.349	0.011
-669.076	-200.000	-0.036	-0.328
-668.062	-41.412	-0.250	0.129
-667.047	89.782	-0.279	0.314
-666.032	-80.969	0.242	0.081
-665.018	-180.021	-0.237	-0.005
-664.003	-100.281	-0.291	-0.073
-662.989	278.189	0.051	-0.092
-661.974	-168.317	0.233	-0.009
-660.959	-200.000	-0.007	0.000
-659.945	152.412	0.181	-0.249
-658.930	-95.508	-0.336	-0.091
-657.916	30.499	-0.198	-0.170
-656.901	288.611	0.216	0.394
-655.886	800.000	0.141	-0.419
-654.872	229.374	0.195	-0.320
-653.857	35.509	-0.206	-0.182
-652.843	-41.321	0.147	0.076
-651.828	77.727	0.123	-0.132
-650.814	800.000	0.092	-0.356
-649.799	230.542	-0.113	0.186
-648.784	-179.084	-0.065	0.001
-647.770	-107.850	0.241	-0.053
-646.755	-18.611	-0.340	-0.213
-645.741	-200.000	-0.024	-0.192
-644.726	-145.066	0.211	-0.019
-643.711	172.666	0.108	0.157
-642.697	-155.787	-0.302	0.019
-641.682	579.932	-0.177	0.436
-640.668	528.768	-0.067	0.159
-639.653	-21.730	0.189	-0.116
-638.638	435.146	0.045	-0.099
-637.624	-71.143	-0.207	-0.078
-636.609	-20.075	-0.214	0.133
-635.595	-84.870	-0.117	-0.037
-634.580	-200.000	-0.045	-0.356
-633.565	-86.832	-0.173	-0.053
-632.551	-133.087	0.297	-0.038
-631.536	-61.794	-0.060	-0.025
-630.522	-174.581	-0.103	0.003
-629.507	607.133	0.071	0.177
-628.492	-96.810	-0.029	0.008
-627.478	-65.217	0.245	-0.099
-626.463	224.292	0.124	0.202
-625.449	74.267	0.185	0.195
-624.434	-134.350	0.328	0.041
-623.419	359.375	-0.050	-0.101
-622.405	-104.993	-0.059	-0.014
-621.390	-200.000	-0.031	0.178
-620.376	800.000	-0.097	0.303
-619.361	-200.000	-0.033	-0.190
-618.346	-200.000	0.045	0.277
-617.332	-197.508	0.452	0.003
-616.317	-14.951	0.212	0.137
-615.303	-189.468	-0.127	-0.001
-614.288	170.327	-0.175	-0.252
-613.273	110.069	0.086	0.103
-612.259	-62.943	0.071	0.030
-611.244	-123.796	0.208	0.033
-610.230	93.726	0.069	-0.079
-609.215	370.385	-0.047	0.095
-608.201	355.024	0.106	-0.211
-607.186	-22.833	-0.273	0.166
-606.171	800.000	-0.130	0.363
-605.157	-36.800	0.158	0.085
-604.142	187.179	-0.033	0.049
-603.128	303.612	-0.071	-0.131
-602.113	-99.203	-0.280	-0.071
-601.098	339.261	-0.090	-0.175
-600.084	84.348	0.235	0.258
-599.069	-51.532	0.057	0.027
-598.055	59.938	-0.051	0.050
-597.040	-102.924	-0.108	-0.026
-596.025	-200.000	-0.103	0.000
-595.011	109.484	-0.079	0.095
-593.996	155.991	-0.123	-0.171
-592.982	24.292	-0.189	0.157
-591.967	-127.017	0.248	-0.037
-590.952	-200.000	-0.038	-0.193
-589.938	-200.000	-0.049	0.264
-588.923	-161.391	0.220	-0.011
-587.909	-79.312	-0.073	0.025
-586.894	-142.696	-0.513	-0.050
-585.879	49.271	0.251	-0.237
-584.865	-59.154	-0.110	0.048
-583.850	-200.000	0.047	0.235
-582.836	-85.529	0.064	0.020
-581.821	-174.470	0.124	-0.004
-580.806	655.366	0.086	0.221
-579.792	-136.330	-0.385	-0.045
-578.777	800.000	-0.060	-0.243
-577.763	800.000	0.102	-0.315
-576.748	-57.276	0.047	-0.021
-575.733	12.062	0.118	-0.091
-574.719	800.000	-0.116	-0.387
-573.704	3.114	0.291	-0.213
-572.690	28.074	-0.031	0.026
-571.675	-32.666	-0.173	-0.097
-570.661	-150.108	0.061	-0.005
-569.646	134.714	-0.173	-0.225
-568.631	513.714	-0.076	0.177
-567.617	248.452	0.091	-0.154
-566.602	18.037	-0.206	0.165
-565.588	800.000	0.033	0.107
-564.573	800.000	-0.024	0.068
-563.558	800.000	0.040	0.125
-562.544	20.783	-0.095	-0.077
-561.529	-22.813	0.150	-0.091
-560.515	75.807	-0.081	-0.086
-559.500	-200.000	-0.051	-0.300
-558.485	-120.029	0.455	-0.078
-557.471	-200.000	0.005	-0.526
-556.456	-102.833	0.282	-0.067
-555.442	273.495	-0.086	0.152
-554.427	-147.601	0.069	0.006
-553.412	573.368	0.129	-0.316
-552.398	-53.073	0.177	0.081
-551.383	-89.044	-0.147	0.044
-550.369	-2.467	-0.219	-0.154
-549.354	-121.687	-0.254	0.042
-548.339	-63.785	-0.249	0.102
-547.325	800.000	0.144	-0.410
-546.310	-96.903	-0.150	0.039
-545.296	337.680	0.121	0.236
-544.281	368.685	-0.149	-0.302
-543.266	-200.000	-0.008	0.098
-542.252	-127.710	-0.285	-0.041
-541.237	-107.862	-0.107	0.023
-540.223	101.724	0.036	-0.042
-539.208	-200.000	-0.026	0.192
-538.193	-161.563	-0.144	-0.007
-537.179	-200.000	0.060	-0.482
-536.164	214.285	0.113	0.179
-535.150	19.533	0.159	-0.128
-534.135	-90.494	0.134	-0.039
-533.121	116.219	0.186	0.229
-532.106	-162.077	-0.080	-0.004
-531.091	-200.000	-0.349	-0.001
-530.077	46.915	-0.206	-0.192
-529.062	321.282	0.257	0.490
-528.048	48.908	0.112	-0.105
-527.033	-200.000	0.030	0.204
-526.018	-148.147	0.136	0.011
-525.004	800.000	-0.106	-0.359
-523.989	-146.163	-0.409	-0.036
-522.975	51.235	0.143	0.136
-521.960	-63.917	-0.212	-0.087
-520.945	-28.341	0.189	-0.109
-519.931	-44.576	-0.217	0.109
-518.916	-157.617	-0.340	-0.020
-517.902	112.882	-0.104	-0.126
-516.887	-137.503	0.079	-0.009
-515.872	162.863	-0.137	-0.193
-514.858	320.260	-0.098	0.186
-513.843	85.357	-0.179	-0.197
-512.829	-66.013	0.433	-0.173
-511.814	-52.115	0.351	-0.163
-510.799	-200.000	-0.030	-0.244
-509.785	506.497	-0.005	0.012
-508.770	-99.278	-0.351	0.089
-507.756	110.781	0.140	-0.168
-506.741	-77.238	-0.252	-0.088
-505.726	-3.906	-0.138	-0.096
-504.712	257.617	0.147	-0.254
-503.697	-200.000	-0.021	-0.395
-502.683	-200.000	0.011	-0.155
-501.668	-195.935	-0.125	0.001
-500.653	-128.549	0.112	-0.016
-499.639	-200.000	0.016	0.414
-498.624	800.000	-0.038	0.122
-497.610	692.660	0.011	-0.028
-496.595	800.000	0.025	0.097
-495.581	-5.892	-0.073	0.050
-494.566	-140.588	-0.274	0.028
-493.551	321.375	-0.150	0.286
-492.537	-95.563	-0.317	-0.085
-491.522	326.486	0.107	-0.206
-490.508	800.000	-0.024	-0.105
-489.493	-127.654	0.314	0.045
-488.478	519.253	-0.105	0.246
-487.464	-1.874	-0.104	0.073
-486.449	53.974	-0.304	0.292
-485.435	-200.000	-0.013	0.202
-484.420	-31.736	-0.243	-0.136
-483.405	-74.739	0.046	0.016
-482.391	-200.000	0.067	0.341
-481.376	-111.749	0.155	0.031
-480.362	-200.000	0.075	-0.360
-479.347	-1.135	-0.219	0.155
-478.332	108.088	-0.225	-0.269
-477.318	-200.000	-0.048	-0.526
-476.303	18.204	-0.115	-0.092
-475.289	-200.000	-0.026	0.363
-474.274	-200.000	-0.029	0.321
-473.259	176.666	0.097	-0.140
-472.245	800.000	0.022	0.062
-471.230	-64.727	0.219	0.089
-470.216	349.463	-0.024	0.046
-469.201	-200.000	-0.074	0.342
-468.186	-47.104	-0.187	-0.091
-467.172	253.491	0.032	0.054
-466.157	336.229	-0.177	-0.344
-465.143	-9.382	-0.181	0.121
-464.128	-57.902	0.111	-0.048
-463.113	-47.969	-0.184	-0.089
-462.099	38.600	-0.285	-0.254
-461.084	55.664	0.246	-0.238
-460.070	-71.836	0.131	-0.049
-459.055	800.000	-0.068	0.221
-458.040	625.868	0.059	-0.150
-457.026	-166.772	0.407	-0.017
-456.011	33.782	0.222	0.193
-454.997	-15.487	-0.118	0.075
-453.982	-200.000	0.021	0.206
-452.968	673.997	-0.107	0.278
-451.953	-144.353	0.137	0.013
-450.938	-200.000	-0.011	-0.070
-449.924	544.822	0.063	0.150
-448.909	11.992	0.224	-0.172
-447.895	-131.801	-0.247	-0.032
-446.880	-200.000	-0.036	0.248
-445.865	88.781	0.206	-0.229
-444.851	-178.522	0.283	0.007
-443.836	-200.000	0.019	-0.303
-442.822	607.781	-0.065	-0.162
-441.807	6.148	0.398	0.294
-440.792	-200.000	0.049	0.257
-439.778	-77.176	-0.114	0.039
-438.763	113.336	-0.069	-0.084
-437.749	-107.479	0.131	-0.029
-436.734	800.000	0.036	-0.108
-435.719	-116.054	0.146	-0.027
-434.705	-59.677	0.180	0.077
-433.690	-76.718	0.181	0.063
-432.676	175.806	-0.140	-0.202
-431.661	-200.000	0.006	-0.260
-430.646	65.593	0.267	-0.270
-429.632	-106.298	0.095	-0.021
-428.617	-53.547	0.227	0.103
-427.603	-89.182	0.244	0.072
-426.588	288.205	0.258	0.467
-425.573	281.536	0.057	0.101
-424.559	335.361	0.040	-0.077
-423.544	-182.369	-0.184	0.003
-422.530	-200.000	0.001	0.051
-421.515	-200.000	-0.004	0.121
-420.500	-122.531	-0.245	-0.040
-419.486	-200.000	0.004	-0.036
-418.471	-180.241	-0.085	0.002
-417.457	-123.694	0.532	0.084
-416.442	800.000	-0.038	0.118
-415.428	-200.000	0.029	-0.277
-414.413	-3.349	-0.259	-0.180
-413.398	384.239	0.085	-0.174
-412.384	133.298	-0.173	-0.223
-411.369	800.000	0.153	-0.480
-410.355	-129.244	0.365	0.051
-409.340	162.305	-0.209	0.292
-408.325	51.715	0.063	-0.060
-407.311	-200.000	-0.083	0.387
-406.296	287.053	-0.091	-0.164
-405.282	-32.321	-0.139	-0.077
-404.267	65.982	-0.285	0.289
-403.252	-21.154	-0.092	-0.056
-402.238	17.977	-0.154	-0.122
-401.223	687.153	-0.071	-0.185
-400.209	55.940	0.215	0.208
-399.194	362.345	-0.033	-0.066
-398.179	800.000	0.003	0.010
-397.165	-72.365	-0.078	-0.029
-396.150	-31.444	-0.224	0.126
-395.136	205.083	-0.074	0.115
-394.121	-140.881	-0.175	-0.018
-393.106	196.527	-0.013	0.020
-392.092	311.608	-0.064	-0.119
-391.077	-117.853	-0.332	-0.059
-390.063	83.074	0.182	0.197
-389.048	23.965	0.175	0.144
-388.033	-200.000	-0.004	-0.030
-387.019	96.775	-0.195	0.223
-386.004	19.557	0.063	-0.051
-384.990	589.184	-0.047	-0.115
-383.975	522.283	0.044	-0.103
-382.960	-200.000	0.031	-0.344
-381.946	800.000	0.024	0.074
-380.931	-52.596	0.162	-0.075
-379.917	-141.364	-0.338	0.034
-378.902	800.000	-0.058	0.171
-377.888	-200.000	-0.004	-0.199
-376.873	-38.370	-0.125	-0.066
-375.858	-200.000	-0.011	0.074
-374.844	0.378	-0.073	-0.052
-373.829	-23.874	0.065	0.039
-372.815	-81.689	0.242	-0.079
-371.800	-103.024	0.160	0.038
-370.785	-200.000	0.009	0.138
-369.771	-149.515	0.137	0.011
-368.756	-136.044	0.158	-0.018
-367.742	-200.000	0.012	-0.123
-366.727	27.162	0.096	0.081
-365.712	-200.000	-0.031	0.307
-364.698	170.421	0.227	-0.324
-363.683	206.006	0.134	-0.208
-362.669	33.980	0.208	-0.180
-361.654	-200.000	-0.007	-0.089
-360.639	309.468	-0.167	0.310
-359.625	-107.111	-0.219	0.048
-358.610	-163.915	-0.249	0.012
-357.596	24.192	-0.079	-0.065
-356.581	368.481	0.156	0.314
-355.566	-127.599	-0.219	0.032
-354.552	522.176	0.066	0.154
-353.537	-157.737	-0.098	-0.006
-352.523	-74.291	-0.058	-0.021
-351.508	-67.490	0.373	-0.146
-350.493	81.738	-0.264	-0.284
-349.479	-137.415	-0.050	0.006
-348.464	-17.312	0.213	-0.133
-347.450	-8.280	0.076	-0.051
-346.435	-199.984	0.086	0.000
-345.420	-93.777	0.027	-0.007
-344.406	-200.000	-0.010	0.216
-343.391	-200.000	-0.048	0.228
-342.377	-75.443	-0.121	0.043
-341.362	0.645	-0.106	-0.075
-340.348	-122.326	0.076	0.012
-339.333	66.876	0.225	-0.228
-338.318	40.707	-0.067	-0.060
-337.304	30.761	-0.221	0.188
-336.289	233.515	0.155	-0.254
-335.275	-69.703	0.180	-0.068
-334.260	800.000	0.040	-0.164
-333.245	-200.000	0.007	-0.043
-332.231	-200.000	0.070	-0.378
-331.216	-200.000	-0.046	-0.242
-330.202	330.060	0.194	0.372
-329.187	-152.649	0.052	-0.004
-328.172	-200.000	0.097	0.437
-327.158	-200.000	0.033	-0.157
-326.143	-13.867	-0.409	-0.263
-325.129	232.567	0.164	0.268
-324.114	-66.919	0.339	0.133
-323.099	-200.000	-0.004	-0.028
-322.085	162.598	-0.198	0.276
-321.070	176.796	-0.118	-0.170
-320.056	-96.088	-0.032	-0.008
-319.041	153.297	0.042	-0.057
-318.026	1.687	0.208	0.149
-317.012	-192.399	0.271	-0.003
-315.997	122.649	-0.051	0.063
-314.983	-44.226	0.165	0.082
-313.968	-8.890	-0.198	-0.132
-312.953	367.669	-0.123	-0.247
-311.939	-83.853	-0.312	-0.099
-310.924	50.879	0.103	0.097
-309.910	203.329	-0.181	0.278
-308.895	93.561	0.300	0.338
-307.880	143.503	0.077	0.102
-306.866	133.856	-0.251	-0.323
-305.851	-200.000	-0.015	0.162
-304.837	286.123	-0.255	0.457
-303.822	-200.000	0.026	-0.419
-302.807	-200.000	-0.027	-0.128
-301.793	-200.000	0.056	0.512
-300.778	-200.000	0.011	-0.184
-299.764	14.381	-0.210	-0.162
-298.749	800.000	-0.153	0.456
-297.735	-39.940	-0.160	0.083
-296.720	-43.291	0.486	0.244
-295.705	800.000	-0.052	0.212
-294.691	56.365	-0.039	-0.037
-293.676	-200.000	-0.028	0.211
-292.662	800.000	-0.092	0.280
-291.647	564.252	0.075	0.180
-290.632	161.637	-0.169	-0.234
-289.618	205.440	-0.076	0.118
-288.603	654.769	0.079	-0.202
-287.589	-200.000	0.037	-0.316
-286.574	-184.245	0.172	0.003
-285.559	-200.000	0.002	-0.388
-284.545	-45.639	0.246	-0.121
-283.530	60.577	0.204	-0.201
-282.516	169.843	-0.209	-0.296
-281.501	-56.557	0.172	0.076
-280.486	-171.857	-0.197	0.006
-279.472	-66.823	-0.171	0.067
-278.457	-200.000	-0.004	-0.026
-277.443	-109.596	0.239	-0.050
-276.428	-72.228	0.050	0.019
-275.413	800.000	0.129	-0.356
-274.399	-200.000	-0.015	-0.157
-273.384	-65.038	0.256	0.102
-272.370	800.000	0.069	-0.193
-271.355	-200.000	0.012	0.055
-270.340	-200.000	0.018	-0.108
-269.326	-120.627	-0.357	-0.060
-268.311	-200.000	0.012	0.119
-267.297	-200.000	-0.112	0.000
-266.282	-200.000	-0.019	-0.349
-265.267	-12.468	-0.111	-0.072
-264.253	88.737	-0.082	-0.091
-263.238	800.000	-0.057	-0.198
-262.224	197.744	-0.115	-0.173
-261.209	35.440	-0.047	-0.041
-260.195	-36.128	0.369	-0.198
-259.180	182.377	0.115	0.169
-258.165	-200.000	-0.059	0.346
-257.151	-26.082	0.240	0.140
-256.136	180.351	-0.123	-0.178
-255.122	800.000	0.086	0.320
-254.107	-200.000	-0.007	0.088
-253.092	-200.000	-0.023	-0.127
-252.078	49.462	0.309	0.288
-251.063	440.183	-0.023	-0.051
-250.049	-137.473	0.196	0.022
-249.034	111.127	0.198	0.236
-248.019	-188.328	-0.261	0.003
-247.005	44.671	0.073	-0.066
-245.990	-158.349	0.183	-0.011
-244.976	68.245	-0.224	0.227
-243.961	8.407	0.064	-0.048
-242.946	-200.000	-0.027	0.349
-241.932	86.977	0.040	-0.043
-240.917	15.352	0.280	0.218
-239.903	297.502	-0.179	-0.325
-238.888	-200.000	0.022	-0.171
-237.873	-181.618	-0.147	0.003
-236.859	-93.880	0.071	-0.019
-235.844	-33.110	-0.167	-0.092
-234.830	-32.822	0.116	-0.064
-233.815	-5.230	-0.068	0.046
-232.800	-101.073	-0.183	-0.044
-231.786	467.353	0.078	-0.173
-230.771	-9.048	-0.109	0.072
-229.757	-200.000	-0.028	0.249
-228.742	-138.818	0.143	0.015
-227.727	-77.023	-0.092	-0.032
-226.713	-42.993	0.055	-0.028
-225.698	33.942	-0.124	-0.107
-224.684	-13.664	-0.151	-0.097
-223.669	-110.366	-0.271	0.056
-222.655	-182.115	0.127	0.002
-221.640	128.869	0.197	0.249
-220.625	65.669	-0.291	0.292
-219.611	800.000	-0.095	-0.329
-218.596	502.618	0.082	-0.187
-217.582	158.708	0.094	0.130
-216.567	-53.704	0.433	0.196
-215.552	800.000	0.051	0.208
-214.538	-200.000	-0.011	0.196
-213.523	181.188	0.173	0.252
-212.509	34.710	0.172	0.149
-211.494	-200.000	0.050	-0.224
-210.479	-183.875	0.301	0.005
-209.465	-74.396	-0.195	0.070
-208.450	174.794	0.107	0.153
-207.436	-140.089	-0.111	0.012
-206.421	-141.604	-0.219	-0.022
-205.406	-40.989	0.243	-0.124
-204.392	-52.580	0.176	0.080
-203.377	400.804	0.034	0.071
-202.363	-154.556	0.209	0.014
-201.348	68.625	0.213	-0.216
-200.333	431.503	-0.106	0.226
-199.319	-73.695	-0.055	-0.020
-198.304	-73.151	-0.294	0.106
-197.290	185.094	0.113	0.166
-196.275	-95.669	0.071	0.019
-195.260	-122.866	-0.126	0.020
-194.246	-15.218	-0.194	0.122
-193.231	-0.887	0.334	0.234
-192.217	-65.058	0.092	0.037
-191.202	-79.172	-0.331	-0.111
-190.187	-31.835	-0.164	-0.091
-189.173	-200.000	-0.006	0.141
-188.158	247.060	-0.093	0.156
-187.144	-115.120	0.156	-0.029
-186.129	-122.530	0.100	0.016
-185.114	36.413	0.355	0.309
-184.100	29.126	-0.078	-0.065
-183.085	-7.990	-0.299	0.200
-182.071	-200.000	-0.003	-0.230
-181.056	184.116	-0.039	0.058
-180.042	47.412	-0.434	0.399
-179.027	-200.000	0.060	0.519
-178.012	-126.961	-0.218	-0.032
-176.998	-83.706	-0.155	-0.049
-175.983	529.009	-0.111	0.258
-174.969	800.000	0.032	-0.095
-173.954	-32.625	0.054	0.030
-172.939	-200.000	-0.033	-0.226
-171.925	325.900	-0.080	-0.151
-170.910	16.282	0.116	0.091
-169.896	-200.000	-0.011	-0.274
-168.881	74.049	0.146	0.152
-167.866	-200.000	-0.018	-0.300
-166.852	-200.000	-0.034	-0.149
-165.837	27.394	0.139	-0.115
-164.823	-105.060	0.170	-0.038
-163.808	-55.257	0.437	-0.194
-162.793	-124.831	0.203	0.031
-161.779	96.759	0.036	-0.040
-160.764	-200.000	0.035	0.233
-159.750	800.000	0.156	0.483
-158.735	55.679	-0.351	-0.336
-157.720	-200.000	-0.022	0.375
-156.706	102.476	0.053	0.061
-155.691	-19.607	-0.117	-0.072
-154.677	54.645	0.123	-0.117
-153.662	-0.938	-0.288	-0.201
-152.647	-200.000	0.024	0.322
-151.633	800.000	-0.051	-0.191
-150.618	-114.483	0.294	0.056
-149.604	-200.000	0.006	-0.154
-148.589	200.543	0.165	0.251
-147.574	-200.000	-0.004	-0.147
-146.560	-51.887	0.067	-0.031
-145.545	143.230	-0.163	-0.214
-144.531	-200.000	-0.044	0.425
-143.516	89.437	-0.074	0.082
-142.502	-200.000	-0.002	-0.031
-141.487	-94.888	0.210	0.056
-140.472	800.000	-0.028	-0.085
-139.458	17.697	-0.269	-0.211
-138.443	800.000	-0.107	-0.409
-137.429	-112.286	-0.108	0.021
-136.414	-75.098	0.106	0.038
-135.399	75.317	0.086	-0.090
-134.385	-114.794	-0.128	0.024
-133.370	129.933	0.198	0.250
-132.356	-20.445	0.158	0.096
-131.341	-24.199	-0.186	0.109
-130.326	-112.590	0.058	-0.011
-129.312	-39.744	-0.193	-0.100
-128.297	151.924	0.303	0.407
-127.283	800.000	0.068	-0.289
-126.268	-12.590	-0.101	0.065
-125.253	800.000	-0.075	-0.278
-124.239	-18.057	-0.175	-0.108
-123.224	94.497	0.315	-0.353
-122.210	-144.425	0.206	0.019
-121.195	-49.344	0.247	0.116
-120.180	-41.276	0.190	-0.096
-119.166	-100.571	-0.269	0.066
-118.151	-32.183	0.185	-0.102
-117.137	6.883	-0.294	-0.216
-116.122	-28.546	0.289	0.164
-115.107	-47.278	0.221	-0.106
-114.093	-29.547	-0.151	-0.085
-113.078	185.119	-0.079	0.116
-112.064	-0.412	-0.172	0.120
-111.049	-117.771	0.057	-0.010
-110.034	-51.327	-0.025	-0.012
-109.020	76.839	-0.223	0.234
-108.005	87.748	-0.143	0.157
-106.991	-23.023	-0.131	-0.078
-105.976	-200.000	-0.025	0.290
-104.962	-124.996	-0.084	0.013
-103.947	-181.124	-0.166	-0.003
-102.932	-22.059	0.161	-0.096
-101.918	800.000	0.016	-0.049
-100.903	-200.000	-0.031	0.210
-99.889	94.439	-0.096	0.107
-98.874	-88.335	-0.118	0.035
-97.859	176.784	-0.182	0.260
-96.845	83.643	-0.029	0.031
-95.830	-200.000	-0.002	0.462
-94.816	-126.760	0.161	-0.023
-93.801	201.425	0.111	0.169
-92.786	-79.827	0.174	0.058
-91.772	-44.356	0.265	0.131
-90.757	-200.000	-0.012	0.205
-89.743	800.000	0.028	0.082
-88.728	553.753	0.113	-0.267
-87.713	-62.082	0.338	-0.139
-86.699	249.886	-0.132	0.221
-85.684	121.175	0.088	-0.107
-84.670	-46.878	0.153	-0.074
-83.655	317.229	0.092	0.171
-82.640	-200.000	-0.014	0.166
-81.626	226.111	-0.148	-0.236
-80.611	-200.000	-0.073	-0.327
-79.597	-194.841	0.525	0.004
-78.582	179.186	0.161	-0.233
-77.567	-123.219	-0.098	-0.015
-76.553	-167.332	-0.090	-0.004
-75.538	-111.127	0.180	-0.036
-74.524	-70.912	-0.219	0.081
-73.509	-200.000	-0.047	0.257
-72.494	800.000	-0.091	0.293
-71.480	-121.563	0.406	0.066
-70.465	183.430	0.045	0.066
-69.451	-144.682	0.074	-0.007
-68.436	-157.796	0.257	-0.015
-67.422	-5.898	-0.262	0.177
-66.407	7.163	-0.188	-0.138
-65.392	-31.127	0.305	0.169
-64.378	-81.554	0.140	0.045
-63.363	-71.217	0.261	-0.096
-62.349	4.774	0.188	-0.136
-61.334	85.391	-0.930	-1.005
-60.319	110.971	0.358	0.424
-59.305	-200.000	-0.186	-0.906
-58.290	114.514	0.770	0.923
-57.276	800.000	0.402	1.728
-56.261	-200.000	94.586	579.810
-55.246	537.252	1402.725	3276.995
-54.232	155.901	2586.397	3506.079
-53.217	112.348	2176.288	2588.678
-52.203	43.806	1625.196	1463.388
-51.188	35.234	1357.660	1170.383
-50.173	31.931	1315.476	1114.387
-49.159	54.690	1361.743	1291.424
-48.144	56.430	1377.777	1317.066
-47.130	35.454	1337.973	1154.552
-46.115	31.939	1320.740	1118.716
-45.100	31.703	1315.588	1112.905
-44.086	31.629	1312.965	1110.203
-43.071	31.595	1310.978	1108.281
-42.057	31.550	1308.518	1105.888
-41.042	31.636	1306.993	1105.068
-40.027	31.550	1304.889	1102.735
-39.013	31.592	1303.254	1101.560
-37.998	31.673	1301.622	1100.612
-36.984	31.656	1300.206	1099.270
-35.969	31.645	1298.247	1097.506
-34.954	31.724	1296.450	1096.403
-33.940	31.595	1295.059	1094.429
-32.925	31.671	1293.699	1093.680
-31.911	31.779	1292.227	1093.022
-30.896	31.751	1290.700	1091.527
-29.881	31.732	1289.530	1090.383
-28.867	31.752	1288.209	1089.337
-27.852	31.820	1286.297	1088.075
-26.838	31.798	1284.667	1086.523
-25.823	31.802	1283.647	1085.642
-24.809	31.733	1282.311	1084.069
-23.794	31.627	1281.388	1082.633
-22.779	31.821	1279.451	1082.076
-21.765	31.775	1278.484	1080.948
-20.750	31.621	1277.378	1079.079
-19.736	31.613	1275.887	1077.733
-18.721	31.660	1274.735	1076.989
-17.706	31.681	1273.575	1076.086
-16.692	31.629	1272.282	1074.654
-15.677	31.565	1271.366	1073.468
-14.663	31.618	1270.058	1072.628
-13.648	31.655	1268.541	1071.514
-12.633	31.622	1267.507	1070.412
-11.619	31.648	1267.167	1070.227
-10.604	31.634	1266.374	1069.437
-9.590	31.593	1265.182	1068.155
-8.575	31.502	1264.317	1066.863
-7.560	31.490	1263.595	1066.138
-6.546	31.554	1262.734	1065.735
-5.531	31.509	1261.429	1064.338
-4.517	31.571	1260.676	1064.010
-3.502	31.593	1259.359	1062.985
-2.487	31.633	1258.943	1062.818
-1.473	31.731	1254.541	1059.615
-0.458	30.856	1241.174	1043.380
0.556	26.484	1224.495	1009.792
1.571	23.394	1230.902	997.619
2.586	22.456	1246.857	1005.113
3.600	21.837	1235.999	992.770
4.615	19.374	1167.383	924.387
5.629	14.689	1098.400	846.003
6.644	12.368	1079.841	820.060
7.659	12.173	1077.877	817.526
8.673	12.155	1076.058	815.982
9.688	12.044	1075.074	814.614
10.702	12.402	1073.583	815.187
11.717	15.351	1076.983	832.349
12.731	18.759	1081.430	852.664
13.746	18.917	1080.632	852.742
14.761	17.672	1078.081	844.493
15.775	16.683	1075.890	837.811
16.790	15.558	1074.257	830.903
17.804	14.768	1072.651	825.679
18.819	14.464	1071.007	822.842
19.834	14.056	1070.424	820.308
20.848	13.824	1069.216	818.169
21.863	13.541	1068.627	816.251
22.877	13.600	1067.398	815.531
23.892	13.438	1066.922	814.296
24.907	13.516	1066.076	813.960
25.921	13.593	1064.997	813.444
26.936	13.542	1063.661	812.105
27.950	13.631	1062.430	811.525
28.965	13.619	1061.115	810.390
29.980	13.678	1059.188	809.135
30.994	13.737	1058.325	808.694
32.009	13.771	1057.028	807.796
33.023	13.726	1055.971	806.699
34.038	13.658	1055.143	805.662
35.053	13.598	1054.324	804.678
36.067	13.647	1053.044	803.865
37.082	13.564	1052.435	802.929
38.096	13.511	1052.009	802.275
39.111	13.692	1050.717	802.093
40.126	13.555	1049.856	800.704
41.140	13.395	1048.451	798.790
42.155	13.297	1047.514	797.531
43.169	13.320	1046.327	796.666
44.184	13.412	1044.963	796.001
45.199	13.322	1044.536	795.175
46.213	13.438	1043.126	794.589
47.228	13.590	1041.798	794.232
48.242	13.478	1041.369	793.298
49.257	13.514	1039.928	792.305
50.271	13.581	1038.917	791.785
51.286	13.584	1038.388	791.325
52.301	13.521	1037.295	790.122
53.315	13.572	1035.834	789.183
54.330	13.554	1035.356	788.661
55.344	13.498	1034.131	787.394
56.359	13.463	1033.260	786.493
57.374	13.594	1031.981	786.070
58.388	13.420	1031.290	784.650
59.403	13.441	1030.572	784.132
60.417	13.426	1030.089	783.627
61.432	13.391	1029.385	782.857
62.447	13.356	1028.486	781.938
63.461	13.264	1027.706	780.841
64.476	13.353	1026.576	780.335
65.490	13.331	1026.175	779.853
66.505	13.486	1024.760	779.441
67.520	13.390	1024.713	778.884
68.534	13.447	1023.519	778.176
69.549	13.381	1022.922	777.342
70.563	13.249	1022.362	776.227
71.578	13.307	1021.934	776.106
72.593	13.290	1020.574	774.928
73.607	13.207	1020.249	774.223
74.622	13.257	1019.441	773.773
75.636	13.306	1018.860	773.492
76.651	13.236	1018.363	772.724
77.666	13.298	1017.342	772.167
78.680	13.265	1016.526	771.324
79.695	13.328	1016.172	771.283
80.709	13.292	1016.057	770.958
81.724	13.377	1014.863	770.380
82.739	13.520	1014.304	770.553
83.753	13.551	1013.430	769.967
84.768	13.669	1012.048	769.393
85.782	13.734	1011.082	768.893
86.797	13.663	1010.692	768.202
87.812	13.644	1009.680	767.277
88.826	13.542	1008.592	765.908
89.841	13.671	1007.648	765.722
90.855	13.525	1007.019	764.503
91.870	13.599	1006.284	764.215
92.884	13.687	1005.150	763.694
93.899	13.710	1004.196	763.008
94.914	13.877	1003.281	763.009
95.928	13.599	1002.840	761.329
96.943	13.635	1002.123	760.887
97.957	13.654	1001.203	760.205
98.972	13.630	1000.151	759.231
99.987	13.709	999.154	758.765
101.001	13.571	998.462	757.545
102.016	13.641	997.434	757.018
103.030	13.758	996.587	756.842
104.045	13.638	996.018	755.796
105.060	13.569	994.936	754.595
106.074	13.491	993.932	753.409
107.089	13.568	993.074	753.045
108.103	13.503	991.994	751.860
109.118	13.358	991.869	751.041
110.133	13.443	990.280	750.160
111.147	13.410	989.488	749.343
112.162	13.527	988.585	749.121
113.176	13.602	988.233	749.126
114.191	13.585	987.519	748.442
115.206	13.578	986.386	747.485
116.220	13.494	986.091	746.818
117.235	13.612	984.646	746.190
118.249	13.490	983.745	744.893
119.264	13.382	983.338	744.031
120.279	13.456	982.820	743.906
121.293	13.539	981.604	743.294
122.308	13.399	981.008	742.150
123.322	13.401	980.002	741.328
124.337	13.474	978.863	740.727
125.352	13.640	977.301	740.222
126.366	13.399	976.925	738.798
127.381	13.497	975.475	738.074
128.395	13.522	974.933	737.708
129.410	13.493	974.143	736.914
130.424	13.600	972.985	736.451
131.439	13.685	972.141	736.122
132.454	13.772	971.172	735.713
133.468	13.627	970.753	734.686
134.483	13.541	969.601	733.370
135.497	13.707	968.634	733.304
136.512	13.605	967.580	731.994
137.527	13.555	967.156	731.388
138.541	13.613	966.564	731.131
139.556	13.674	965.907	730.838
140.570	13.749	964.980	730.401
141.585	13.826	963.783	729.768
142.600	13.813	962.973	729.033
143.614	13.770	962.615	728.511
144.629	13.786	961.756	727.867
145.643	13.813	961.063	727.394
146.658	13.717	960.031	726.130
147.673	13.734	958.962	725.329
148.687	13.550	958.236	723.915
149.702	13.684	957.184	723.640
150.716	13.621	956.407	722.713
151.731	13.537	955.747	721.785
152.746	13.617	954.976	721.486
153.760	13.737	954.125	721.302
154.775	13.776	953.538	720.965
155.789	13.870	952.882	720.814
156.804	13.825	952.185	720.027
157.819	13.843	951.558	719.565
158.833	13.893	951.340	719.555
159.848	13.856	949.948	718.280
160.862	13.899	949.145	717.791
161.877	13.818	948.047	716.548
162.892	13.771	946.947	715.452
163.906	13.823	946.317	715.138
164.921	13.733	945.523	714.088
165.935	13.783	944.684	713.603
166.950	13.896	943.501	713.133
167.964	13.818	943.024	712.373
168.979	13.862	941.998	711.725
169.994	13.866	941.119	711.017
171.008	13.916	940.581	710.757
172.023	13.974	940.160	710.627
173.037	13.898	939.232	709.538
174.052	14.044	938.499	709.545
175.067	13.989	937.667	708.616
176.081	13.883	937.408	707.909
177.096	13.965	936.699	707.658
178.110	13.907	935.952	706.786
179.125	13.837	935.627	706.181
180.140	13.986	935.035	706.304
181.154	14.032	934.788	706.249
182.169	14.094	933.755	705.671
183.183	14.060	933.389	705.187
184.198	14.151	932.144	704.567
185.213	14.198	931.582	704.282
186.227	14.095	931.177	703.479
187.242	14.272	930.075	703.328
188.256	14.229	929.616	702.738
189.271	14.202	928.998	702.095
190.286	14.004	928.448	700.783
191.300	13.980	927.493	699.898
192.315	14.034	926.607	699.394
193.329	13.943	926.378	698.777
194.344	14.096	925.349	698.581
195.359	14.056	925.354	698.357
196.373	14.240	924.318	698.286
197.388	14.210	924.436	698.188
198.402	14.333	923.397	697.855
199.417	14.297	923.430	697.667
200.432	14.361	922.105	696.871
201.446	14.344	922.276	696.869
202.461	14.402	921.264	696.287
203.475	14.423	921.215	696.273
204.490	14.257	920.304	694.831
205.504	14.282	919.581	694.330
206.519	14.358	918.456	693.734
207.534	14.278	917.715	692.779
208.548	14.375	916.992	692.576
209.563	14.331	916.628	692.059
210.577	14.414	916.178	692.001
211.592	14.578	914.984	691.718
212.607	14.574	914.432	691.224
213.621	14.523	913.680	690.381
214.636	14.472	913.094	689.668
215.650	14.591	912.256	689.465
216.665	14.457	911.704	688.435
217.680	14.588	911.026	688.401
218.694	14.589	910.299	687.795
219.709	14.680	909.826	687.751
220.723	14.611	909.311	687.017
221.738	14.601	908.578	686.362
222.753	14.607	907.864	685.785
223.767	14.614	907.233	685.278
224.782	14.749	906.596	685.290
225.796	14.852	906.056	685.244
226.811	14.716	905.655	684.323
227.826	14.758	904.880	683.846
228.840	14.648	903.906	682.603
229.855	14.675	903.165	682.092
230.869	14.667	902.187	681.259
231.884	14.637	901.714	680.722
232.899	14.693	901.222	680.517
233.913	14.743	900.114	679.825
234.928	14.655	899.667	679.069
235.942	14.631	899.346	678.669
236.957	14.644	898.372	677.924
237.972	14.740	897.869	677.874
238.986	14.676	897.473	677.257
240.001	14.590	896.735	676.293
241.015	14.642	896.129	675.985
242.030	14.774	895.385	675.900
243.045	14.794	894.944	675.585
244.059	14.721	894.400	674.823
245.074	14.858	893.797	674.859
246.088	14.806	893.277	674.197
247.103	14.965	892.412	674.128
248.117	14.972	892.053	673.822
249.132	15.072	891.358	673.642
250.147	14.997	891.215	673.171
251.161	15.067	890.400	672.778
252.176	15.100	889.432	672.121
253.190	15.132	888.843	671.744
254.205	15.317	888.107	671.870
255.220	15.245	887.864	671.336
256.234	15.314	886.862	670.794
257.249	15.081	886.571	669.586
258.263	15.205	885.550	669.250
259.278	15.224	884.889	668.766
260.293	15.356	884.480	668.926
261.307	15.372	883.723	668.357
262.322	15.402	883.177	668.004
263.336	15.448	882.056	667.280
264.351	15.328	881.622	666.417
265.366	15.414	881.615	666.694
266.380	15.450	880.651	666.047
267.395	15.401	879.863	665.199
268.409	15.396	879.212	664.628
269.424	15.440	878.300	664.056
270.439	15.380	877.659	663.274
271.453	15.376	876.892	662.621
272.468	15.388	876.507	662.319
273.482	15.452	876.293	662.350
274.497	15.403	875.360	661.394
275.512	15.466	874.859	661.203
276.526	15.491	874.339	660.851
277.541	15.589	873.605	660.623
278.555	15.597	873.415	660.451
279.570	15.643	872.390	659.800
280.585	15.600	871.975	659.259
281.599	15.550	871.310	658.502
282.614	15.478	870.299	657.398
283.628	15.583	869.873	657.427
284.643	15.517	869.439	656.785
285.657	15.661	868.272	656.406
286.672	15.653	867.772	655.940
287.687	15.745	867.188	655.798
288.701	15.820	866.430	655.459
289.716	15.819	865.965	655.045
290.730	15.596	866.166	654.270
291.745	15.776	864.891	653.950
292.760	15.710	864.586	653.404
293.774	15.804	864.173	653.401
294.789	15.873	863.477	653.086
295.803	15.765	862.625	651.964
296.818	15.654	861.943	650.962
297.833	15.780	861.141	650.785
298.847	15.872	860.485	650.588
299.862	15.825	860.008	649.988
300.876	15.860	859.651	649.796
301.891	15.912	859.068	649.496
302.906	15.955	858.453	649.142
303.920	15.958	857.773	648.581
304.935	16.115	857.244	648.727
305.949	16.127	856.510	648.159
306.964	16.109	855.734	647.449
307.979	16.035	855.732	647.103
308.993	16.133	854.591	646.561
310.008	16.072	853.949	645.784
311.022	16.096	853.474	645.457
312.037	16.142	852.887	645.132
313.052	16.016	852.592	644.373
314.066	15.883	852.252	643.547
315.081	15.909	851.496	643.020
316.095	16.005	850.655	642.696
317.110	16.073	850.203	642.554
318.125	16.171	849.722	642.509
319.139	16.002	849.520	641.655
320.154	16.081	848.934	641.455
321.168	16.140	848.163	641.041
322.183	16.203	847.557	640.766
323.197	16.199	847.089	640.340
324.212	16.209	846.628	639.971
325.227	16.211	845.951	639.411
326.241	16.049	845.419	638.339
327.256	16.329	844.730	638.823
328.270	16.222	844.351	638.076
329.285	16.092	843.698	637.033
330.300	16.150	843.497	637.043
331.314	16.271	842.552	636.732
332.329	16.280	841.946	636.252
333.343	16.163	842.012	635.804
334.358	16.232	841.547	635.655
335.373	16.362	840.668	635.425
336.387	16.482	840.448	635.652
337.402	16.354	840.598	635.230
338.416	16.395	840.261	635.071
339.431	16.495	839.448	634.777
340.446	16.419	839.536	634.501
341.460	16.492	838.862	634.210
342.475	16.487	838.371	633.764
343.489	16.438	837.948	633.203
344.504	16.729	837.342	633.779
345.519	16.617	836.934	632.998
346.533	16.728	836.150	632.761
347.548	16.608	835.738	631.946
348.562	16.577	834.941	631.171
349.577	16.461	834.775	630.557
350.592	16.515	833.943	630.076
351.606	16.414	833.714	629.470
352.621	16.592	832.487	629.149
353.635	16.547	832.196	628.706
354.650	16.693	831.379	628.576
355.665	16.637	830.734	627.826
356.679	16.581	830.455	627.349
357.694	16.620	829.879	627.004
358.708	16.748	829.316	626.998
359.723	16.631	828.665	626.017
360.738	16.591	827.974	625.293
361.752	16.703	827.403	625.218
362.767	16.970	826.562	625.513
363.781	16.739	826.491	624.553
364.796	16.876	825.833	624.504
365.810	16.893	825.585	624.325
366.825	17.013	825.154	624.386
367.840	16.935	824.536	623.575
368.854	16.866	824.247	623.048
369.869	17.011	823.538	622.990
370.883	17.003	822.941	622.452
371.898	17.009	822.756	622.279
372.913	17.113	822.451	622.376
373.927	17.032	822.010	621.691
374.942	17.023	821.834	621.470
375.956	17.142	821.032	621.243
376.971	17.219	820.853	621.333
377.986	17.299	820.135	621.027
379.000	17.269	819.497	620.381
380.015	17.305	819.241	620.263
381.029	17.367	818.456	619.839
382.044	17.154	818.122	618.755
383.059	17.255	817.370	618.499
384.073	17.214	817.039	618.045
385.088	17.156	816.283	617.208
386.102	17.366	815.562	617.373
387.117	17.268	815.024	616.553
388.132	17.247	814.336	615.903
389.146	17.224	814.146	615.622
390.161	17.329	813.717	615.623
391.175	17.253	813.372	615.031
392.190	17.346	812.774	614.861
393.205	17.231	812.239	613.987
394.219	17.182	811.963	613.547
395.234	17.100	811.930	613.172
396.248	17.166	811.044	612.685
397.263	17.321	810.553	612.821
398.278	17.218	810.111	612.060
399.292	17.141	810.091	611.715
400.307	17.339	808.730	611.344
401.321	17.307	808.740	611.184
402.336	17.294	808.452	610.864
403.350	17.512	807.690	611.015
404.365	17.205	807.762	609.913
405.380	17.514	807.115	610.480
406.394	17.566	806.409	610.080
407.409	17.446	806.401	609.588
408.423	17.648	806.155	610.072
409.438	17.635	805.737	609.656
410.453	17.752	805.128	609.558
411.467	17.804	804.214	608.997
412.482	17.710	804.051	608.485
413.496	17.613	804.049	608.084
414.511	17.772	803.504	608.184
415.526	17.760	802.836	607.584
416.540	17.844	802.374	607.480
417.555	17.715	801.935	606.635
418.569	17.829	801.292	606.500
419.584	17.850	801.073	606.355
420.599	17.836	800.671	605.948
421.613	107.649	1288.760	1458.104
422.628	92.617	1359.851	1458.182
