DTS Sentinel unit serial number:	SN413079Multiplexer serial number:	ORYXHardware model number:	OX4-SRSoftware version number:	ORYX F/W v4.00 Oryx Data Collector v3.7.2.0data status	okinstallation	princeton_trtdifferential loss correction	single-endedforward channel	channel 1reverse channel	N/Adate	2019/09/16time	07:18:35forward acquisition time	60.00reverse acquisition time	0.00gamma	496.2192k internal	0.2331k external	0.2331temperature offset calibration	0.9982default loss term (dB/km)	0.3790temperature slope calibration	1.0000multiplexer offset coefficient	1.0000multiplexer slope coefficient	1.0000fibre end	0.00T internal ref (°C)	27.41T ext. ref 1 (°C)	11.57T ext. ref 2 (°C)	22.54length (m)	temperature (°C)	Stokes	anti-Stokes-747.200	-71.791	0.048	0.018
-746.185	6.309	-0.246	-0.184
-745.171	-200.000	-0.004	-0.046
-744.156	34.632	-0.031	-0.027
-743.142	-14.004	0.138	-0.090
-742.127	-119.159	0.154	-0.027
-741.112	219.182	-0.264	0.425
-740.098	136.466	0.042	-0.056
-739.083	-200.000	-0.009	-0.108
-738.069	-184.024	-0.281	-0.005
-737.054	800.000	0.104	0.331
-736.039	-104.108	-0.255	0.060
-735.025	252.871	-0.162	0.279
-734.010	13.731	-0.096	0.075
-732.996	-105.534	-0.450	-0.103
-731.981	-107.076	-0.480	-0.107
-730.966	414.323	-0.106	0.228
-729.952	-86.440	-0.224	-0.069
-728.937	139.704	0.112	-0.148
-727.923	800.000	-0.033	0.123
-726.908	-200.000	0.062	0.414
-725.894	21.819	0.106	-0.087
-724.879	-49.665	-0.263	-0.126
-723.864	22.844	0.184	-0.152
-722.850	397.690	0.110	-0.232
-721.835	-180.844	-0.079	-0.002
-720.821	-200.000	-0.010	-0.372
-719.806	-200.000	-0.020	-0.303
-718.791	-19.000	0.160	0.100
-717.777	-187.148	-0.207	0.003
-716.762	-148.473	0.081	-0.007
-715.748	-132.566	-0.197	-0.026
-714.733	51.094	0.189	-0.180
-713.718	507.445	-0.050	-0.116
-712.704	-67.159	0.084	-0.033
-711.689	-200.000	-0.001	0.067
-710.675	213.247	-0.096	-0.153
-709.660	54.489	0.052	0.051
-708.645	127.945	0.092	0.117
-707.631	-39.918	-0.229	-0.120
-706.616	-106.521	0.199	-0.045
-705.602	-200.000	0.251	0.000
-704.587	65.930	0.285	-0.291
-703.572	327.628	0.044	0.084
-702.558	354.763	-0.039	0.078
-701.543	4.520	-0.136	-0.100
-700.529	-55.213	0.156	-0.070
-699.514	132.272	-0.173	-0.224
-698.499	80.099	-0.215	0.232
-697.485	160.100	-0.138	0.194
-696.470	282.979	-0.073	-0.132
-695.456	-37.078	-0.115	-0.062
-694.441	8.111	-0.170	-0.128
-693.426	-200.000	-0.024	0.142
-692.412	800.000	0.025	-0.105
-691.397	329.032	0.055	-0.106
-690.383	-200.000	0.015	0.205
-689.368	36.256	0.212	0.188
-688.354	-200.000	-0.023	-0.178
-687.339	-200.000	0.079	0.427
-686.324	138.556	-0.162	-0.214
-685.310	104.563	-0.280	0.331
-684.295	0.788	-0.072	0.052
-683.281	-200.000	-0.027	0.246
-682.266	-96.092	-0.472	-0.126
-681.251	-145.161	-0.164	-0.015
-680.237	95.726	0.097	-0.112
-679.222	310.338	0.101	0.190
-678.208	-48.102	0.121	-0.059
-677.193	-82.712	0.045	0.015
-676.178	-200.000	-0.004	-0.341
-675.164	480.644	-0.086	-0.196
-674.149	-89.159	-0.062	-0.019
-673.135	38.134	-0.126	-0.113
-672.120	356.443	0.116	-0.233
-671.105	4.963	-0.066	0.049
-670.091	30.788	-0.109	-0.093
-669.076	-51.752	-0.430	0.201
-668.062	-200.000	0.001	0.299
-667.047	-200.000	-0.015	0.094
-666.032	-147.934	-0.236	-0.020
-665.018	121.169	0.138	0.172
-664.003	44.562	-0.299	-0.276
-662.989	-105.237	0.339	-0.078
-661.974	-137.045	-0.219	0.025
-660.959	-140.888	-0.153	0.016
-659.945	70.189	-0.057	-0.059
-658.930	258.843	0.066	-0.114
-657.916	-46.477	0.082	-0.040
-656.901	185.419	-0.193	-0.287
-655.886	-57.150	0.153	0.067
-654.872	315.583	0.144	-0.272
-653.857	39.571	0.194	0.174
-652.843	-122.916	0.089	0.014
-651.828	-131.195	0.327	0.044
-650.814	-81.016	0.299	-0.099
-649.799	-200.000	-0.039	0.309
-648.784	-38.971	-0.233	0.123
-647.770	-200.000	-0.006	-0.194
-646.755	800.000	-0.034	-0.118
-645.741	-136.059	-0.416	-0.049
-644.726	39.086	-0.201	-0.180
-643.711	62.817	0.157	0.157
-642.697	246.101	0.058	-0.097
-641.682	-83.095	0.064	-0.021
-640.668	-80.579	-0.253	-0.084
-639.653	-119.562	-0.234	0.041
-638.638	262.954	0.099	-0.172
-637.624	-37.772	-0.059	-0.032
-636.609	800.000	-0.059	0.207
-635.595	102.373	-0.038	-0.044
-634.580	202.261	-0.104	0.161
-633.565	-105.488	-0.141	0.032
-632.551	-200.000	-0.030	0.134
-631.536	549.575	0.056	-0.134
-630.522	-162.936	0.150	0.007
-629.507	575.587	0.045	0.109
-628.492	58.070	0.479	0.470
-627.478	-200.000	-0.027	0.179
-626.463	-14.865	-0.251	0.161
-625.449	-2.566	0.226	0.158
-624.434	-152.956	-0.124	0.009
-623.419	-10.659	0.164	-0.109
-622.405	-200.000	0.004	-0.105
-621.390	-82.224	0.195	-0.064
-620.376	598.724	0.116	0.288
-619.361	636.717	-0.031	-0.078
-618.346	-81.372	-0.380	-0.125
-617.332	800.000	-0.102	0.320
-616.317	20.327	0.134	0.109
-615.303	12.840	0.179	0.139
-614.288	-130.815	-0.231	-0.031
-613.273	-200.000	-0.010	0.401
-612.259	-23.114	-0.279	-0.168
-611.244	800.000	-0.088	-0.301
-610.230	782.956	0.068	0.186
-609.215	-200.000	0.020	0.173
-608.201	-173.676	0.039	-0.001
-607.186	13.127	-0.261	-0.203
-606.171	15.825	-0.238	-0.187
-605.157	-200.000	0.019	-0.267
-604.142	-200.000	0.005	0.033
-603.128	-22.446	-0.271	0.164
-602.113	-200.000	0.002	0.193
-601.098	-58.698	0.224	-0.097
-600.084	-56.983	-0.237	0.105
-599.069	-26.166	0.269	0.158
-598.055	-45.541	0.296	-0.147
-597.040	672.651	-0.139	-0.362
-596.025	-200.000	0.035	-0.277
-595.011	-1.220	-0.171	-0.121
-593.996	285.149	0.053	0.095
-592.982	293.012	-0.081	0.148
-591.967	800.000	0.016	-0.052
-590.952	-14.871	0.137	-0.088
-589.938	-146.696	-0.212	-0.018
-588.923	800.000	0.093	0.304
-587.909	-200.000	0.016	-0.402
-586.894	800.000	0.123	-0.380
-585.879	-200.000	-0.021	0.191
-584.865	-54.021	0.315	0.143
-583.850	317.482	0.031	0.058
-582.836	-151.487	0.256	0.019
-581.821	800.000	0.069	-0.292
-580.806	-6.571	0.305	0.208
-579.792	-24.194	0.161	0.096
-578.777	-143.402	-0.098	0.009
-577.763	-192.070	0.203	0.002
-576.748	419.983	-0.126	0.271
-575.733	163.811	0.167	0.235
-574.719	131.708	-0.201	0.258
-573.704	414.612	0.180	0.383
-572.690	-93.861	-0.191	-0.053
-571.675	-200.000	-0.010	-0.113
-570.661	-16.020	0.194	-0.123
-569.646	-36.477	-0.122	0.065
-568.631	-47.216	-0.267	0.130
-567.617	494.622	0.067	-0.154
-566.602	-139.090	0.270	-0.029
-565.588	475.751	-0.072	-0.162
-564.573	-141.014	-0.091	-0.009
-563.558	176.438	0.022	-0.032
-562.544	-200.000	-0.016	0.226
-561.529	55.634	-0.197	0.191
-560.515	131.968	-0.141	0.182
-559.500	87.822	0.092	-0.102
-558.485	800.000	0.084	-0.242
-557.471	113.273	-0.162	-0.197
-556.456	-42.414	-0.252	-0.128
-555.442	-71.399	0.121	0.045
-554.427	348.200	0.024	0.048
-553.412	-25.909	-0.211	0.124
-552.398	-200.000	0.027	-0.157
-551.383	157.806	0.213	-0.295
-550.369	86.392	-0.097	0.107
-549.354	-83.545	-0.091	0.029
-548.339	-117.519	0.198	0.036
-547.325	256.906	-0.060	-0.103
-546.310	-56.347	0.348	-0.155
-545.296	-73.805	-0.149	0.054
-544.281	-200.000	0.023	-0.166
-543.266	-200.000	-0.007	0.061
-542.252	183.533	0.164	0.242
-541.237	-200.000	0.000	-0.207
-540.223	-200.000	-0.023	-0.157
-539.208	-155.824	-0.090	-0.006
-538.193	-200.000	0.092	-0.479
-537.179	-85.265	-0.072	0.022
-536.164	218.074	-0.182	-0.290
-535.150	-200.000	-0.054	0.480
-534.135	800.000	0.070	0.229
-533.121	-127.298	-0.596	0.087
-532.106	-56.768	0.084	-0.037
-531.091	122.046	0.275	-0.343
-530.077	-52.646	-0.097	0.045
-529.062	-127.914	0.334	-0.048
-528.048	9.950	0.334	-0.253
-527.033	111.378	0.225	-0.271
-526.018	20.545	0.197	-0.159
-525.004	-21.227	-0.126	-0.077
-523.989	65.711	-0.107	-0.108
-522.975	-200.000	0.003	-0.127
-521.960	-107.254	0.145	-0.032
-520.945	-200.000	0.045	0.201
-519.931	293.545	-0.123	0.225
-518.916	219.155	-0.031	-0.049
-517.902	-18.237	-0.210	-0.131
-516.887	-55.330	0.083	0.037
-515.872	-88.197	-0.474	0.142
-514.858	95.661	-0.131	0.150
-513.843	-37.086	-0.202	-0.108
-512.829	153.938	-0.330	0.451
-511.814	800.000	0.086	0.299
-510.799	-73.449	-0.176	-0.064
-509.785	201.548	0.234	-0.359
-508.770	-61.981	-0.128	0.053
-507.756	-103.539	0.064	-0.015
-506.741	800.000	-0.045	-0.139
-505.726	39.267	0.214	-0.191
-504.712	115.580	-0.109	-0.133
-503.697	20.479	-0.099	0.079
-502.683	678.441	0.164	0.425
-501.668	-200.000	-0.029	0.174
-500.653	-200.000	-0.015	0.112
-499.639	720.536	-0.136	-0.360
-498.624	309.157	-0.079	-0.146
-497.610	-4.194	0.101	-0.070
-496.595	290.728	0.221	-0.400
-495.581	3.758	0.237	0.172
-494.566	44.329	0.157	0.144
-493.551	17.630	-0.231	0.183
-492.537	-154.121	0.116	-0.008
-491.522	-144.277	-0.306	-0.028
-490.508	-31.166	0.123	0.069
-489.493	-200.000	0.035	0.341
-488.478	-93.355	0.293	0.081
-487.464	800.000	0.081	0.286
-486.449	37.921	0.156	-0.138
-485.435	-141.405	0.207	-0.021
-484.420	333.830	0.075	-0.145
-483.405	800.000	0.044	0.136
-482.391	-138.443	0.066	-0.007
-481.376	800.000	0.014	0.049
-480.362	800.000	-0.104	-0.350
-479.347	-61.982	0.127	0.053
-478.332	-41.072	-0.113	-0.058
-477.318	-141.961	-0.094	-0.009
-476.303	-164.317	0.097	-0.004
-475.289	-152.130	-0.074	0.005
-474.274	15.382	-0.308	-0.241
-473.259	-96.232	0.100	0.026
-472.245	-48.994	0.114	-0.054
-471.230	228.419	-0.154	0.250
-470.216	128.020	0.210	0.267
-469.201	-154.179	0.117	0.008
-468.186	-200.000	0.030	0.195
-467.172	-200.000	0.017	-0.095
-466.157	172.610	-0.049	-0.071
-465.143	-133.757	-0.133	-0.016
-464.128	-0.276	-0.232	-0.164
-463.113	800.000	-0.037	-0.108
-462.099	800.000	0.041	0.175
-461.084	53.927	-0.226	-0.217
-460.070	-121.113	-0.042	0.007
-459.055	48.555	0.154	0.144
-458.040	-124.829	0.166	0.026
-457.026	58.400	-0.126	-0.123
-456.011	776.091	-0.068	0.184
-454.997	689.287	-0.103	0.268
-453.982	-46.418	-0.304	0.149
-452.968	-68.960	0.443	0.170
-451.953	-200.000	-0.005	0.280
-450.938	-57.872	-0.193	-0.084
-449.924	-76.589	0.063	-0.022
-448.909	-100.423	0.115	-0.028
-447.895	-70.907	-0.210	0.079
-446.880	-132.786	-0.240	0.030
-445.865	-91.005	-0.269	-0.077
-444.851	170.200	0.148	0.210
-443.836	700.163	-0.076	-0.200
-442.822	65.652	0.034	-0.034
-441.807	357.504	-0.128	-0.254
-440.792	233.341	0.297	-0.487
-439.778	24.121	0.061	0.050
-438.763	800.000	0.016	0.060
-437.749	-14.611	-0.177	-0.113
-436.734	-77.310	-0.070	0.024
-435.719	268.135	-0.063	0.111
-434.705	227.108	-0.122	0.196
-433.690	11.265	-0.041	0.031
-432.676	-155.216	0.153	-0.010
-431.661	-85.663	0.133	-0.041
-430.646	45.766	-0.123	-0.113
-429.632	-200.000	-0.030	-0.167
-428.617	25.383	-0.153	-0.127
-427.603	-200.000	0.017	-0.176
-426.588	-200.000	0.007	0.081
-425.573	-200.000	-0.020	0.177
-424.559	-128.578	-0.084	0.012
-423.544	27.328	0.117	-0.098
-422.530	-92.858	-0.145	-0.040
-421.515	-120.840	-0.123	0.021
-420.500	800.000	0.056	-0.186
-419.486	-63.922	0.222	-0.090
-418.471	-151.199	0.148	0.011
-417.457	800.000	-0.069	-0.202
-416.442	661.518	-0.034	-0.088
-415.428	800.000	0.014	-0.059
-414.413	-100.842	0.168	0.041
-413.398	-200.000	0.289	0.001
-412.384	50.236	-0.158	0.149
-411.369	-194.567	0.204	-0.002
-410.355	705.153	0.010	0.026
-409.340	299.978	0.067	0.123
-408.325	173.856	-0.169	-0.243
-407.311	-81.684	0.052	-0.017
-406.296	-200.000	-0.006	-0.223
-405.282	800.000	0.073	-0.228
-404.267	129.153	-0.041	0.052
-403.252	-200.000	0.019	-0.411
-402.238	83.160	0.013	0.014
-401.223	54.326	-0.091	-0.087
-400.209	-157.194	0.256	-0.015
-399.194	220.735	0.191	-0.305
-398.179	-43.741	0.115	0.057
-397.165	-200.000	-0.041	0.203
-396.150	-200.000	0.034	-0.350
-395.136	55.841	0.276	-0.265
-394.121	800.000	0.038	-0.157
-393.106	-13.445	-0.286	-0.184
-392.092	-58.516	-0.323	-0.139
-391.077	95.351	-0.100	0.113
-390.063	-93.541	-0.300	0.082
-389.048	-196.948	-0.065	-0.000
-388.033	800.000	0.008	0.031
-387.019	13.464	0.180	0.139
-386.004	-41.841	-0.170	0.087
-384.990	32.979	0.077	-0.066
-383.975	-19.848	0.215	0.132
-382.960	-83.653	-0.243	0.077
-381.946	-8.647	-0.100	0.067
-380.931	131.660	0.192	-0.245
-379.917	-12.003	0.026	-0.017
-378.902	89.830	0.345	0.382
-377.888	800.000	-0.018	0.063
-376.873	-30.441	-0.302	-0.170
-375.858	-67.209	0.209	-0.082
-374.844	28.150	-0.076	-0.063
-373.829	338.930	-0.155	0.299
-372.815	-177.978	0.164	0.004
-371.800	235.014	-0.276	-0.452
-370.785	240.138	-0.073	-0.120
-369.771	-186.922	-0.412	0.006
-368.756	107.692	0.222	-0.262
-367.742	-94.278	0.268	0.073
-366.727	108.878	-0.036	0.043
-365.712	18.591	-0.089	-0.071
-364.698	-2.064	-0.229	0.160
-363.683	233.588	0.109	0.178
-362.669	-200.000	0.014	-0.065
-361.654	58.007	0.083	-0.081
-360.639	335.174	0.063	0.121
-359.625	-54.253	-0.096	-0.043
-358.610	-8.008	0.245	-0.164
-357.596	360.237	-0.120	0.238
-356.581	99.009	0.141	-0.161
-355.566	-17.041	0.060	0.037
-354.552	-126.861	0.246	-0.036
-353.537	-100.090	0.047	-0.012
-352.523	-107.580	-0.259	0.056
-351.508	-110.049	0.238	0.049
-350.493	0.841	0.191	-0.136
-349.479	-106.586	-0.346	0.076
-348.464	199.146	-0.098	-0.149
-347.450	53.410	0.119	0.113
-346.435	800.000	0.033	-0.135
-345.420	-200.000	0.029	-0.232
-344.406	-93.066	-0.295	-0.081
-343.391	-200.000	-0.004	0.065
-342.377	43.043	0.191	0.173
-341.362	-43.569	-0.336	-0.168
-340.348	-30.065	0.372	0.210
-339.333	-14.388	0.097	0.062
-338.318	-131.741	-0.112	0.015
-337.304	-91.905	-0.242	-0.068
-336.289	53.386	0.136	0.129
-335.275	-200.000	0.038	-0.322
-334.260	147.923	0.274	0.366
-333.245	-200.000	0.000	-0.142
-332.231	-13.963	0.138	0.088
-331.216	-20.179	0.274	-0.167
-330.202	6.694	-0.184	-0.136
-329.187	-111.882	-0.285	0.057
-328.172	121.190	-0.121	-0.149
-327.158	65.907	0.188	0.189
-326.143	-161.402	-0.151	0.008
-325.129	-104.190	-0.063	0.015
-324.114	-200.000	-0.009	-0.090
-323.099	-200.000	-0.006	0.162
-322.085	-52.985	0.098	0.045
-321.070	240.028	0.148	0.244
-320.056	-31.978	-0.136	0.076
-319.041	800.000	-0.086	-0.314
-318.026	-33.918	0.314	-0.171
-317.012	-177.271	-0.120	-0.003
-315.997	800.000	-0.020	0.063
-314.983	-181.528	0.133	0.003
-313.968	75.531	0.075	-0.078
-312.953	236.820	0.104	0.171
-311.939	-115.686	0.102	0.019
-310.924	724.152	0.013	0.034
-309.910	703.428	0.049	-0.127
-308.895	-100.202	0.093	-0.023
-307.880	800.000	0.068	-0.263
-306.866	800.000	0.128	-0.469
-305.851	-200.000	0.051	-0.559
-304.837	800.000	0.045	-0.126
-303.822	440.773	0.059	-0.127
-302.807	-81.423	0.136	-0.044
-301.793	800.000	0.073	-0.282
-300.778	-109.223	0.130	-0.027
-299.764	-200.000	-0.032	0.517
-298.749	42.286	0.158	0.142
-297.735	-15.937	0.238	0.150
-296.720	-200.000	-0.051	-0.330
-295.705	70.857	-0.160	-0.164
-294.691	800.000	-0.080	0.237
-293.676	-77.100	-0.098	0.034
-292.662	-200.000	-0.008	0.048
-291.647	70.846	-0.071	0.072
-290.632	-86.496	-0.057	0.017
-289.618	-200.000	0.004	-0.282
-288.603	-35.191	-0.247	0.133
-287.589	83.505	-0.156	0.168
-286.574	79.922	0.087	-0.093
-285.559	-105.169	-0.354	0.080
-284.545	-200.000	0.012	0.111
-283.530	-163.580	0.184	-0.009
-282.516	618.371	-0.060	0.148
-281.501	231.006	-0.117	-0.190
-280.486	530.401	0.041	-0.097
-279.472	168.597	-0.074	0.104
-278.457	-200.000	-0.011	-0.288
-277.443	-163.249	0.491	-0.023
-276.428	-74.028	-0.202	0.072
-275.413	-200.000	-0.073	0.000
-274.399	94.311	-0.236	0.265
-273.384	800.000	0.095	0.328
-272.370	-200.000	-0.039	-0.292
-271.355	9.701	-0.100	0.075
-270.340	-83.822	-0.062	0.020
-269.326	-200.000	0.052	0.336
-268.311	3.875	-0.236	-0.171
-267.297	91.437	0.238	0.264
-266.282	-143.160	0.328	0.031
-265.267	-200.000	0.050	0.221
-264.253	193.931	0.102	-0.153
-263.238	-58.697	0.118	0.051
-262.224	61.947	0.103	0.101
-261.209	76.631	0.175	0.183
-260.195	27.258	0.157	0.131
-259.180	-55.857	0.489	0.216
-258.165	-200.000	0.105	-0.460
-257.151	46.866	-0.250	0.230
-256.136	800.000	0.064	0.248
-255.122	800.000	-0.017	-0.068
-254.107	137.113	0.169	0.218
-253.092	33.076	0.238	-0.204
-252.078	-99.981	-0.213	-0.052
-251.063	-39.125	-0.164	-0.085
-250.049	185.476	-0.110	0.161
-249.034	-61.949	-0.149	-0.061
-248.019	6.961	-0.252	0.186
-247.005	-200.000	-0.002	0.111
-245.990	-167.156	0.225	-0.009
-244.976	433.287	-0.049	0.104
-243.961	72.622	-0.200	-0.206
-242.946	354.207	-0.020	0.040
-241.932	-35.509	0.175	0.094
-240.917	-68.372	-0.099	0.038
-239.903	-200.000	0.036	-0.418
-238.888	31.982	-0.104	0.088
-237.873	-200.000	0.004	0.217
-236.859	287.906	-0.175	-0.312
-235.844	-200.000	0.022	0.198
-234.830	-200.000	0.003	0.108
-233.815	-139.429	0.101	0.011
-232.800	156.867	-0.263	0.359
-231.786	-45.996	0.205	-0.100
-230.771	201.349	0.092	0.140
-229.757	-84.487	-0.127	0.040
-228.742	373.658	-0.058	0.117
-227.727	176.295	-0.134	0.192
-226.713	140.995	-0.073	0.096
-225.698	800.000	0.091	-0.328
-224.684	-107.872	-0.237	0.051
-223.669	800.000	-0.077	-0.215
-222.655	554.876	0.053	0.126
-221.640	-109.100	-0.064	0.013
-220.625	-115.097	-0.106	0.020
-219.611	66.013	-0.160	0.160
-218.596	-145.443	0.080	-0.007
-217.582	-18.665	0.207	-0.127
-216.567	373.669	-0.034	-0.069
-215.552	-200.000	0.003	-0.139
-214.538	73.386	0.121	0.125
-213.523	-18.762	-0.194	-0.119
-212.509	-200.000	-0.010	-0.275
-211.494	-200.000	0.048	0.268
-210.479	-200.000	-0.023	0.176
-209.465	25.512	-0.064	-0.053
-208.450	-200.000	0.003	-0.129
-207.436	24.083	0.179	-0.146
-206.421	-200.000	-0.022	0.217
-205.406	-8.406	-0.165	-0.109
-204.392	-32.393	0.181	0.099
-203.377	-58.699	-0.080	-0.034
-202.363	154.679	-0.206	-0.278
-201.348	309.729	-0.127	-0.233
-200.333	23.933	0.127	-0.103
-199.319	110.218	0.295	0.349
-198.304	568.144	0.108	0.258
-197.290	-96.461	0.140	0.036
-196.275	603.264	0.089	-0.218
-195.260	244.757	0.231	0.382
-194.246	-35.001	-0.115	-0.062
-193.231	294.700	0.200	-0.361
-192.217	800.000	-0.054	0.178
-191.202	-100.563	-0.083	-0.020
-190.187	11.500	0.027	-0.020
-189.173	-18.362	0.109	-0.067
-188.158	-200.000	0.001	-0.264
-187.144	-34.497	-0.191	-0.103
-186.129	694.766	0.068	0.176
-185.114	216.230	0.039	-0.061
-184.100	-162.474	-0.325	-0.016
-183.085	161.410	-0.049	0.067
-182.071	-156.255	0.322	0.020
-181.056	125.476	-0.246	0.306
-180.042	712.525	0.076	-0.197
-179.027	-143.917	-0.241	-0.022
-178.012	-97.646	-0.069	-0.017
-176.998	250.256	-0.149	0.250
-175.983	-171.340	-0.374	0.012
-174.969	-46.566	0.092	-0.044
-173.954	-51.027	-0.144	-0.067
-172.939	-200.000	-0.041	0.195
-171.925	54.358	0.228	-0.217
-170.910	401.490	-0.098	-0.202
-169.896	-32.289	0.108	0.059
-168.881	-69.989	0.086	0.032
-167.866	-78.578	-0.181	-0.061
-166.852	800.000	0.071	0.280
-165.837	-200.000	0.108	0.530
-164.823	62.174	-0.118	0.116
-163.808	-23.966	0.135	-0.080
-162.793	347.936	0.104	0.203
-161.779	-36.874	0.382	0.202
-160.764	-184.881	0.192	0.003
-159.750	-56.926	-0.231	0.100
-158.735	-161.789	0.244	0.012
-157.720	-132.530	-0.178	-0.023
-156.706	207.100	-0.059	-0.091
-155.691	-47.727	-0.456	-0.218
-154.677	445.206	-0.075	0.161
-153.662	-57.325	0.251	0.109
-152.647	-190.067	0.105	-0.001
-151.633	-200.000	-0.004	0.239
-150.618	800.000	-0.028	0.080
-149.604	108.908	0.169	0.199
-148.589	-88.862	0.306	-0.089
-147.574	-200.000	0.027	0.381
-146.560	60.616	-0.078	0.076
-145.545	795.829	0.085	-0.231
-144.531	106.293	-0.072	0.084
-143.516	-85.772	-0.348	0.106
-142.502	-200.000	0.025	0.225
-141.487	95.797	-0.164	0.185
-140.472	-200.000	0.026	-0.207
-139.458	88.459	-0.036	0.040
-138.443	-98.434	0.095	-0.024
-137.429	-99.353	-0.036	0.009
-136.414	3.072	-0.253	0.181
-135.399	46.016	-0.221	0.201
-134.385	14.027	0.072	-0.055
-133.370	-110.125	0.352	0.072
-132.356	43.982	0.115	-0.104
-131.341	629.438	0.075	-0.187
-130.326	308.351	0.157	0.289
-129.312	-116.116	-0.116	0.021
-128.297	51.461	0.102	0.095
-127.283	-29.425	0.312	0.176
-126.268	689.820	-0.116	-0.297
-125.253	-200.000	0.008	-0.173
-124.239	-1.564	0.152	0.106
-123.224	-56.928	0.282	0.122
-122.210	4.432	0.234	-0.168
-121.195	-200.000	-0.018	0.272
-120.180	-191.516	-0.154	0.002
-119.166	-109.876	0.305	-0.063
-118.151	270.838	-0.121	0.209
-117.137	-200.000	0.064	0.323
-116.122	-200.000	-0.122	-0.001
-115.107	-22.214	-0.027	-0.016
-114.093	98.464	0.179	-0.202
-113.078	253.710	0.110	-0.185
-112.064	-200.000	0.022	0.339
-111.049	329.162	0.103	0.195
-110.034	-200.000	-0.019	-0.178
-109.020	-35.680	-0.146	0.078
-108.005	-73.554	0.341	-0.122
-106.991	159.946	-0.200	0.274
-105.976	-29.613	0.283	0.159
-104.962	289.476	0.124	0.221
-103.947	-84.585	0.065	0.020
-102.932	-200.000	0.018	0.221
-101.918	800.000	0.054	0.225
-100.903	-200.000	-0.006	0.291
-99.889	-53.364	-0.113	0.051
-98.874	-200.000	-0.032	0.148
-97.859	101.836	0.242	0.277
-96.845	11.715	-0.385	0.290
-95.830	-24.414	-0.210	0.123
-94.816	-200.000	-0.003	0.144
-93.801	-69.497	0.046	0.017
-92.786	800.000	0.059	0.185
-91.772	221.170	0.089	0.140
-90.757	-200.000	-0.038	-0.197
-89.743	-28.189	0.180	-0.102
-88.728	42.708	-0.032	-0.028
-87.713	-134.587	0.229	-0.027
-86.699	82.220	-0.259	-0.275
-85.684	-61.745	0.107	-0.044
-84.670	419.959	-0.026	-0.054
-83.655	-81.279	0.359	0.116
-82.640	262.069	0.122	-0.208
-81.626	-102.899	0.625	0.146
-80.611	-129.319	-0.189	0.026
-79.597	-7.507	-0.087	-0.058
-78.582	306.369	0.150	0.274
-77.567	97.321	-0.087	-0.098
-76.553	123.184	-0.073	-0.089
-75.538	60.996	0.236	0.230
-74.524	530.282	-0.117	0.270
-73.509	429.326	-0.094	-0.200
-72.494	-113.040	0.363	0.070
-71.480	25.129	-0.199	0.162
-70.465	52.809	0.181	-0.169
-69.451	-162.024	0.169	0.008
-68.436	-91.666	-0.323	0.090
-67.422	211.820	-0.178	-0.275
-66.407	-56.924	-0.397	-0.172
-65.392	1.568	0.124	-0.088
-64.378	-147.645	0.259	-0.021
-63.363	-110.589	0.104	0.021
-62.349	475.363	0.046	0.103
-61.334	159.777	-0.828	-1.131
-60.319	11.515	0.483	0.363
-59.305	800.000	-0.340	-1.153
-58.290	505.460	0.529	1.202
-57.276	739.540	0.632	1.662
-56.261	-200.000	113.563	641.115
-55.246	463.804	1511.380	3308.840
-54.232	146.379	2679.474	3524.334
-53.217	103.635	2159.616	2483.778
-52.203	38.848	1605.219	1404.380
-51.188	30.593	1351.280	1132.159
-50.173	27.850	1312.882	1083.685
-49.159	55.596	1368.870	1298.527
-48.144	54.198	1383.113	1303.557
-47.130	30.961	1338.659	1123.623
-46.115	27.545	1321.096	1088.470
-45.100	27.227	1316.626	1082.855
-44.086	27.301	1313.623	1080.781
-43.071	27.339	1311.107	1078.896
-42.057	27.144	1309.707	1076.541
-41.042	27.286	1307.697	1075.688
-40.027	27.115	1306.469	1073.625
-39.013	27.355	1303.909	1072.894
-37.998	27.259	1302.395	1071.039
-36.984	27.432	1300.240	1070.241
-35.969	27.368	1298.517	1068.409
-34.954	27.401	1297.271	1067.533
-33.940	27.365	1295.946	1066.188
-32.925	27.444	1294.156	1065.138
-31.911	27.445	1292.998	1064.148
-30.896	27.407	1291.870	1062.952
-29.881	27.469	1290.559	1062.197
-28.867	27.477	1288.711	1060.681
-27.852	27.566	1287.215	1059.924
-26.838	27.443	1286.243	1058.363
-25.823	27.578	1284.519	1057.691
-24.809	27.472	1283.460	1056.160
-23.794	27.476	1281.893	1054.850
-22.779	27.508	1280.668	1053.988
-21.765	27.614	1278.966	1053.159
-20.750	27.515	1278.176	1051.890
-19.736	27.494	1276.929	1050.703
-18.721	27.305	1276.181	1048.955
-17.706	27.362	1274.881	1048.176
-16.692	27.462	1273.412	1047.498
-15.677	27.391	1272.386	1046.208
-14.663	27.295	1271.040	1044.509
-13.648	27.403	1269.797	1044.063
-12.633	27.296	1269.259	1042.969
-11.619	27.286	1268.601	1042.326
-10.604	27.373	1267.212	1041.644
-9.590	27.386	1266.187	1040.832
-8.575	27.289	1265.512	1039.685
-7.560	27.313	1264.538	1038.981
-6.546	27.401	1263.659	1038.717
-5.531	27.388	1262.858	1037.941
-4.517	27.405	1261.868	1037.187
-3.502	27.372	1261.068	1036.299
-2.487	27.307	1260.065	1035.065
-1.473	27.416	1255.830	1032.164
-0.458	25.926	1241.280	1011.805
0.556	21.377	1225.363	976.781
1.571	17.957	1231.978	962.722
2.586	17.345	1247.103	970.963
3.600	17.333	1236.486	962.543
4.615	16.004	1169.719	903.362
5.629	13.171	1103.386	837.716
6.644	11.719	1087.008	817.951
7.659	11.638	1084.648	815.699
8.673	11.462	1083.877	814.166
9.688	11.461	1082.110	812.765
10.702	11.549	1080.574	811.978
11.717	13.459	1081.796	822.319
12.731	16.345	1085.493	839.417
13.746	17.887	1086.656	847.910
14.761	17.614	1086.313	846.209
15.775	16.637	1083.819	839.351
16.790	15.678	1081.852	833.002
17.804	14.889	1080.668	828.114
18.819	14.379	1079.322	824.483
19.834	14.174	1078.103	822.467
20.848	13.893	1077.172	820.296
21.863	13.730	1076.399	818.828
22.877	13.658	1075.374	817.624
23.892	13.379	1075.374	816.175
24.907	13.595	1073.900	816.047
25.921	13.587	1072.957	815.220
26.936	13.578	1072.167	814.500
27.950	13.607	1070.570	813.362
28.965	13.733	1068.849	812.599
29.980	13.831	1067.177	811.732
30.994	13.915	1065.778	811.010
32.009	13.830	1065.259	810.125
33.023	13.843	1063.738	808.962
34.038	13.754	1063.013	807.904
35.053	13.572	1062.228	806.350
36.067	13.772	1061.299	806.547
37.082	13.802	1060.743	806.198
38.096	13.730	1059.878	805.120
39.111	13.857	1058.411	804.553
40.126	13.716	1057.643	803.214
41.140	13.600	1056.199	801.485
42.155	13.478	1055.831	800.542
43.169	13.545	1054.065	799.458
44.184	13.539	1053.193	798.696
45.199	13.636	1051.975	798.169
46.213	13.547	1051.300	797.159
47.228	13.620	1049.977	796.436
48.242	13.697	1048.889	795.911
49.257	13.615	1048.262	794.968
50.271	13.735	1046.647	794.250
51.286	13.777	1046.018	793.902
52.301	13.626	1045.714	792.879
53.315	13.718	1044.137	792.054
54.330	13.571	1043.419	790.736
55.344	13.587	1042.592	790.118
56.359	13.592	1041.355	789.131
57.374	13.527	1040.682	788.245
58.388	13.488	1039.675	787.227
59.403	13.494	1039.041	786.705
60.417	13.593	1037.502	785.938
61.432	13.616	1036.959	785.567
62.447	13.488	1036.334	784.420
63.461	13.405	1035.943	783.660
64.476	13.405	1034.709	782.657
65.490	13.442	1033.855	782.118
66.505	13.449	1032.954	781.398
67.520	13.600	1032.299	781.547
68.534	13.446	1032.187	780.665
69.549	13.533	1030.979	780.094
70.563	13.486	1030.285	779.279
71.578	13.336	1029.412	777.842
72.593	13.342	1028.350	776.999
73.607	13.317	1027.985	776.538
74.622	13.377	1027.112	776.093
75.636	13.482	1026.388	775.968
76.651	13.387	1025.810	775.017
77.666	13.295	1025.066	773.955
78.680	13.415	1024.510	774.031
79.695	13.366	1023.870	773.250
80.709	13.583	1022.873	773.440
81.724	13.619	1022.687	773.400
82.739	13.545	1021.818	772.326
83.753	13.662	1021.104	772.268
84.768	13.820	1019.951	772.060
85.782	13.811	1019.332	771.479
86.797	13.846	1018.384	770.861
87.812	13.645	1017.504	769.193
88.826	13.734	1016.187	768.539
89.841	13.874	1015.015	768.236
90.855	13.833	1014.315	767.449
91.870	13.699	1014.114	766.609
92.884	13.764	1013.195	766.146
93.899	13.794	1012.099	765.387
94.914	13.821	1011.528	765.010
95.928	13.949	1010.244	764.563
96.943	13.831	1009.366	763.289
97.957	13.761	1008.744	762.427
98.972	13.768	1007.908	761.758
99.987	13.790	1006.944	761.066
101.001	13.812	1006.155	760.500
102.016	13.880	1004.833	759.748
103.030	13.704	1004.503	758.627
104.045	13.720	1003.559	757.920
105.060	13.838	1002.221	757.381
106.074	13.648	1001.833	756.153
107.089	13.527	1000.779	754.739
108.103	13.520	999.518	753.689
109.118	13.612	998.276	753.106
110.133	13.534	997.705	752.252
111.147	13.692	996.806	752.223
112.162	13.541	996.448	751.202
113.176	13.730	995.398	751.201
114.191	13.728	994.342	750.326
115.206	13.588	993.920	749.311
116.220	13.725	992.957	749.139
117.235	13.598	992.320	748.019
118.249	13.515	991.144	746.688
119.264	13.580	990.561	746.478
120.279	13.679	989.312	745.917
121.293	13.443	988.990	744.548
122.308	13.608	987.772	744.304
123.322	13.595	986.633	743.321
124.337	13.550	985.429	742.146
125.352	13.562	984.300	741.286
126.366	13.606	983.177	740.570
127.381	13.615	982.439	739.989
128.395	13.546	981.697	739.059
129.410	13.600	980.680	738.466
130.424	13.669	979.655	737.937
131.439	13.647	979.167	737.408
132.454	13.717	978.071	736.828
133.468	13.580	977.681	735.858
134.483	13.681	976.427	735.298
135.497	13.798	975.417	734.989
136.512	13.719	975.348	734.522
137.527	13.713	974.059	733.461
138.541	13.623	973.591	732.647
139.556	13.707	972.835	732.385
140.570	13.814	972.023	732.180
141.585	14.015	971.010	732.239
142.600	13.878	970.388	731.103
143.614	13.826	970.147	730.625
144.629	13.864	968.832	729.736
145.643	13.817	968.024	728.858
146.658	13.865	966.831	728.107
147.673	13.688	966.121	726.730
148.687	13.768	964.870	726.077
149.702	13.822	964.387	725.885
150.716	13.860	963.192	725.086
151.731	13.868	962.441	724.491
152.746	13.786	961.691	723.504
153.760	13.877	961.403	723.622
154.775	14.026	960.374	723.430
155.789	13.901	960.134	722.644
156.804	13.958	959.011	721.981
157.819	14.033	958.535	721.884
158.833	14.102	957.938	721.669
159.848	14.001	957.231	720.637
160.862	14.002	955.907	719.581
161.877	13.975	955.517	719.107
162.892	13.845	954.456	717.683
163.906	13.762	953.684	716.679
164.921	13.800	952.807	716.122
165.935	13.968	951.232	715.600
166.950	14.066	950.324	715.275
167.964	14.014	949.480	714.350
168.979	13.779	949.184	713.053
169.994	13.945	947.755	712.633
171.008	14.004	947.150	712.365
172.023	14.114	946.396	712.208
173.037	14.045	945.969	711.526
174.052	14.048	944.899	710.674
175.067	14.047	944.123	710.021
176.081	14.054	943.875	709.801
177.096	13.982	942.992	708.768
178.110	14.043	942.791	708.817
179.125	14.052	942.257	708.390
180.140	14.018	941.861	707.881
181.154	14.141	941.025	707.717
182.169	14.221	940.409	707.532
183.183	14.063	939.838	706.368
184.198	14.187	939.068	706.251
185.213	14.153	938.929	705.942
186.227	14.317	937.785	705.711
187.242	14.307	937.302	705.244
188.256	14.499	936.039	705.044
189.271	14.372	935.426	703.984
190.286	14.124	934.868	702.453
191.300	13.946	934.436	701.314
192.315	13.950	933.616	700.653
193.329	13.987	933.469	700.639
194.344	14.091	932.271	700.116
195.359	14.239	931.510	700.103
196.373	14.163	931.341	699.598
197.388	14.424	930.750	700.186
198.402	14.409	930.145	699.606
199.417	14.441	929.614	699.278
200.432	14.458	929.190	698.971
201.446	14.534	928.727	698.880
202.461	14.484	928.119	698.148
203.475	14.461	927.756	697.717
204.490	14.292	926.914	696.318
205.504	14.478	925.825	696.213
206.519	14.397	925.229	695.366
207.534	14.556	924.178	695.176
208.548	14.465	923.911	694.535
209.563	14.474	923.041	693.859
210.577	14.659	921.844	693.667
211.592	14.667	921.188	693.142
212.607	14.582	920.837	692.468
213.621	14.567	920.356	691.979
214.636	14.770	919.412	692.050
215.650	14.672	918.581	690.959
216.665	14.624	917.991	690.253
217.680	14.626	917.762	690.028
218.694	14.737	916.747	689.665
219.709	14.695	916.075	688.924
220.723	14.805	915.384	688.797
221.738	14.640	915.015	687.780
222.753	14.679	914.385	687.406
223.767	14.727	913.670	687.004
224.782	14.800	913.156	686.855
225.796	14.789	912.427	686.202
226.811	14.821	911.889	685.869
227.826	14.808	911.242	685.266
228.840	14.750	910.226	684.206
229.855	14.737	909.887	683.838
230.869	14.851	908.137	682.926
231.884	14.799	908.125	682.645
232.899	14.993	907.025	682.549
233.913	14.771	906.336	681.064
234.928	14.780	905.715	680.574
235.942	14.805	905.306	680.309
236.957	14.717	904.829	679.534
237.972	14.717	904.175	678.980
238.986	14.856	903.193	678.749
240.001	14.648	903.203	677.853
241.015	14.815	901.924	677.507
242.030	14.955	901.668	677.825
243.045	14.815	901.301	676.921
244.059	14.956	900.345	676.713
245.074	14.994	899.610	676.254
246.088	14.912	899.592	675.851
247.103	14.983	898.626	675.349
248.117	15.042	897.957	675.026
249.132	15.103	897.455	674.835
250.147	15.291	896.748	675.000
251.161	15.167	896.249	674.065
252.176	15.361	895.177	673.982
253.190	15.325	894.831	673.516
254.205	15.397	893.967	673.094
255.220	15.355	893.387	672.429
256.234	15.283	893.083	671.853
257.249	15.312	892.305	671.324
258.263	15.195	891.593	670.261
259.278	15.448	890.723	670.557
260.293	15.406	890.574	670.218
261.307	15.458	889.657	669.679
262.322	15.481	888.979	669.201
263.336	15.420	888.515	668.546
264.351	15.516	887.486	668.097
265.366	15.507	886.852	667.523
266.380	15.622	886.279	667.490
267.395	15.602	885.830	667.016
268.409	15.485	885.131	665.965
269.424	15.527	884.167	665.346
270.439	15.689	883.006	665.057
271.453	15.508	882.916	664.214
272.468	15.351	882.766	663.422
273.482	15.465	882.245	663.419
274.497	15.559	881.091	662.864
275.512	15.550	880.735	662.504
276.526	15.627	880.153	662.309
277.541	15.654	879.507	661.874
278.555	15.664	878.750	661.285
279.570	15.611	878.456	660.797
280.585	15.793	877.234	660.533
281.599	15.796	876.208	659.713
282.614	15.799	875.971	659.487
283.628	15.590	875.456	658.223
284.643	15.706	875.064	658.325
285.657	15.622	874.148	657.246
286.672	15.694	873.532	657.009
287.687	15.712	872.886	656.533
288.701	15.751	872.338	656.215
289.716	15.754	872.085	655.979
290.730	15.852	871.172	655.616
291.745	15.846	870.610	655.110
292.760	15.762	870.087	654.336
293.774	15.866	869.494	654.234
294.789	16.122	868.605	654.502
295.803	15.856	868.030	652.979
296.818	15.834	867.483	652.424
297.833	15.966	866.653	652.255
298.847	15.962	866.233	651.865
299.862	16.056	865.396	651.540
300.876	16.025	865.070	651.114
301.891	15.979	864.555	650.493
302.906	15.938	864.209	650.018
303.920	16.201	863.446	650.401
304.935	16.092	863.143	649.693
305.949	16.145	862.139	649.087
306.964	16.122	861.616	648.548
307.979	16.337	861.023	648.867
308.993	16.234	860.527	648.041
310.008	16.253	859.943	647.619
311.022	16.210	858.938	646.637
312.037	16.168	858.673	646.221
313.052	16.057	857.826	645.101
314.066	16.071	857.512	644.863
315.081	16.135	857.181	644.801
316.095	16.182	856.193	644.179
317.110	16.114	855.706	643.497
318.125	16.109	855.602	643.344
319.139	16.131	854.667	642.668
320.154	16.025	854.651	642.195
321.168	16.133	853.872	641.960
322.183	16.213	853.157	641.672
323.197	16.137	852.726	641.002
324.212	16.377	851.699	641.087
325.227	16.392	851.315	640.796
326.241	16.225	850.969	639.846
327.256	16.308	850.399	639.674
328.270	16.199	850.083	638.967
329.285	16.253	849.305	638.531
330.300	16.340	848.775	638.405
331.314	16.118	848.566	637.352
332.329	16.381	847.876	637.772
333.343	16.437	847.339	637.523
334.358	16.515	846.754	637.317
335.373	16.476	846.213	636.707
336.387	16.341	846.552	636.396
337.402	16.350	846.206	636.114
338.416	16.548	845.416	636.210
339.431	16.568	845.138	636.018
340.446	16.637	844.536	635.772
341.460	16.510	844.678	635.344
342.475	16.532	844.158	634.978
343.489	16.526	843.950	634.745
344.504	16.795	843.245	635.166
345.519	16.712	842.620	634.328
346.533	16.716	842.256	634.014
347.548	16.475	841.731	632.660
348.562	16.605	841.152	632.656
349.577	16.639	840.170	631.985
350.592	16.559	839.414	631.064
351.606	16.622	839.016	630.942
352.621	16.683	838.581	630.787
353.635	16.671	837.701	630.024
354.650	16.680	837.457	629.819
355.665	16.851	836.335	629.554
356.679	16.703	835.941	628.656
357.694	16.726	835.215	628.139
358.708	16.936	834.373	628.226
359.723	16.866	833.970	627.610
360.738	16.844	833.421	627.060
361.752	16.908	832.493	626.540
362.767	16.833	832.318	626.078
363.781	17.054	831.711	626.382
364.796	16.948	831.509	625.780
365.810	17.058	831.084	625.811
366.825	17.200	830.564	625.889
367.840	17.066	830.455	625.257
368.854	17.069	829.480	624.478
369.869	17.055	829.243	624.193
370.883	17.161	828.425	623.912
371.898	17.039	828.534	623.493
372.913	17.075	828.128	623.264
373.927	17.338	827.178	623.457
374.942	17.144	826.705	622.336
375.956	17.190	826.538	622.321
376.971	17.284	826.332	622.455
377.986	17.339	825.546	622.009
379.000	17.378	825.225	621.857
380.015	17.289	824.437	620.882
381.029	17.327	823.803	620.490
382.044	17.351	823.215	620.078
383.059	17.409	822.835	619.949
384.073	17.195	822.721	619.026
385.088	17.139	822.132	618.324
386.102	17.219	821.314	617.946
387.117	17.341	820.588	617.788
388.132	17.289	820.158	617.224
389.146	17.193	819.690	616.467
390.161	17.342	819.138	616.538
391.175	17.410	818.888	616.540
392.190	17.491	818.114	616.196
393.205	17.383	817.378	615.198
394.219	17.544	816.969	615.417
395.234	17.369	816.845	614.636
396.248	17.388	816.396	614.314
397.263	17.307	815.852	613.558
398.278	17.298	815.727	613.377
399.292	17.321	815.198	613.006
400.307	17.291	814.613	612.404
401.321	17.335	814.117	612.136
402.336	17.475	813.748	612.310
403.350	17.290	813.233	611.203
404.365	17.439	812.821	611.374
405.380	17.617	812.492	611.709
406.394	17.630	811.860	611.227
407.409	17.748	811.220	611.113
408.423	17.618	811.061	610.475
409.438	17.677	810.731	610.384
410.453	17.706	810.403	610.188
411.467	17.732	809.854	609.810
412.482	17.897	809.251	609.892
413.496	17.752	809.190	609.277
414.511	17.920	808.407	609.234
415.526	17.847	807.843	608.492
416.540	17.851	807.795	608.417
417.555	17.784	807.198	607.673
418.569	17.828	806.933	607.577
419.584	17.812	806.390	607.060
420.599	17.805	806.219	606.852
421.613	111.470	1295.050	1476.565
422.628	96.200	1366.226	1476.675
