DTS Sentinel unit serial number:	SN413079Multiplexer serial number:	ORYXHardware model number:	OX4-SRSoftware version number:	ORYX F/W v4.00 Oryx Data Collector v3.7.2.0data status	okinstallation	princeton_trtdifferential loss correction	single-endedforward channel	channel 1reverse channel	N/Adate	2019/09/12time	08:36:11forward acquisition time	60.00reverse acquisition time	0.00gamma	496.2192k internal	0.2312k external	0.2312temperature offset calibration	1.0042default loss term (dB/km)	0.3790temperature slope calibration	1.0000multiplexer offset coefficient	1.0000multiplexer slope coefficient	1.0000fibre end	0.00T internal ref (°C)	33.75T ext. ref 1 (°C)	1.71T ext. ref 2 (°C)	30.07length (m)	temperature (°C)	Stokes	anti-Stokes-747.200	213.342	-0.080	0.128
-746.185	-91.299	0.357	0.104
-745.171	145.535	-0.140	0.190
-744.156	18.990	0.131	0.107
-743.142	-91.899	0.030	0.009
-742.127	-200.000	-0.080	0.386
-741.112	-200.000	-0.010	0.127
-740.098	19.749	-0.184	0.150
-739.083	486.050	-0.049	-0.114
-738.069	12.184	-0.322	0.252
-737.054	404.705	-0.088	-0.188
-736.039	-200.000	0.014	-0.068
-735.025	-110.058	-0.293	-0.062
-734.010	-146.225	-0.318	0.028
-732.996	-200.000	0.005	-0.245
-731.981	31.538	0.146	-0.128
-730.966	170.025	0.073	-0.106
-729.952	-27.648	-0.314	-0.185
-728.937	-200.000	-0.015	-0.085
-727.923	-37.343	-0.175	-0.095
-726.908	571.114	0.032	0.079
-725.894	95.505	-0.260	-0.301
-724.879	-163.581	-0.269	0.013
-723.864	66.580	-0.376	-0.388
-722.850	-200.000	0.011	0.068
-721.835	247.856	-0.205	0.352
-720.821	273.891	-0.176	-0.316
-719.806	364.565	-0.035	-0.072
-718.791	4.351	-0.270	0.200
-717.777	-200.000	-0.159	-0.001
-716.762	-200.000	-0.033	0.376
-715.748	217.380	-0.107	-0.172
-714.733	611.284	0.057	0.145
-713.718	66.315	-0.221	-0.227
-712.704	-97.128	-0.075	-0.020
-711.689	40.235	0.049	-0.045
-710.675	-102.323	-0.285	0.069
-709.660	191.438	-0.149	-0.228
-708.645	90.117	0.058	0.066
-707.631	-89.725	0.347	0.103
-706.616	-200.000	0.021	0.334
-705.602	339.370	-0.027	-0.052
-704.587	800.000	-0.105	-0.394
-703.572	-200.000	0.010	-0.076
-702.558	137.317	-0.096	0.127
-701.543	-2.449	-0.118	0.084
-700.529	26.798	0.119	0.101
-699.514	800.000	0.043	0.137
-698.499	-114.457	0.462	0.090
-697.485	122.870	0.070	0.089
-696.470	561.000	0.129	0.315
-695.456	-59.199	-0.026	0.011
-694.441	-105.923	-0.281	0.064
-693.426	377.051	0.234	-0.484
-692.412	-49.098	-0.245	-0.119
-691.397	-200.000	-0.009	0.126
-690.383	106.394	-0.038	-0.046
-689.368	-39.433	-0.336	0.178
-688.354	216.281	-0.110	-0.177
-687.339	-80.489	0.385	-0.130
-686.324	502.785	-0.165	0.387
-685.310	-121.279	0.021	-0.003
-684.295	-73.423	0.152	-0.056
-683.281	26.487	-0.081	0.069
-682.266	-16.927	-0.040	-0.026
-681.251	132.577	-0.202	0.263
-680.237	-161.816	-0.196	0.010
-679.222	-200.000	-0.009	-0.153
-678.208	302.446	-0.126	-0.237
-677.193	-35.462	-0.188	-0.104
-676.178	-200.000	0.033	0.281
-675.164	5.968	0.434	-0.325
-674.149	800.000	-0.036	-0.104
-673.135	426.101	0.123	-0.267
-672.120	85.422	-0.184	-0.205
-671.105	291.812	0.057	-0.105
-670.091	-118.714	-0.282	-0.050
-669.076	800.000	-0.054	0.207
-668.062	686.962	-0.016	0.041
-667.047	46.450	-0.114	-0.107
-666.032	-44.402	-0.273	-0.138
-665.018	-24.080	-0.070	-0.042
-664.003	-152.079	-0.087	-0.006
-662.989	-153.119	-0.254	0.018
-661.974	24.324	-0.421	-0.352
-660.959	-200.000	-0.002	-0.029
-659.945	800.000	0.117	0.353
-658.930	800.000	0.004	0.015
-657.916	-200.000	-0.021	-0.291
-656.901	-115.381	-0.199	0.038
-655.886	-75.264	0.301	-0.109
-654.872	-76.140	-0.510	0.182
-653.857	106.460	-0.210	-0.252
-652.843	96.017	-0.148	-0.171
-651.828	390.149	-0.052	0.108
-650.814	61.587	0.167	-0.168
-649.799	-200.000	0.046	-0.232
-648.784	-76.224	-0.156	-0.055
-647.770	-107.187	-0.300	-0.067
-646.755	684.780	-0.057	0.150
-645.741	191.236	-0.012	0.019
-644.726	-165.121	-0.416	-0.019
-643.711	-200.000	-0.014	0.213
-642.697	-84.746	-0.466	-0.148
-641.682	800.000	-0.044	-0.149
-640.668	254.488	-0.062	0.108
-639.653	126.801	0.111	-0.142
-638.638	6.580	0.195	-0.147
-637.624	-200.000	-0.014	0.091
-636.609	271.412	-0.158	0.281
-635.595	91.238	-0.152	-0.173
-634.580	86.710	0.077	0.086
-633.565	396.377	-0.010	0.022
-632.551	-200.000	-0.026	0.461
-631.536	-200.000	0.003	-0.026
-630.522	800.000	0.039	0.119
-629.507	-200.000	0.001	0.059
-628.492	-126.935	-0.280	0.042
-627.478	-200.000	-0.014	0.195
-626.463	-63.113	0.144	-0.060
-625.449	-41.211	0.124	-0.065
-624.434	-110.489	0.202	0.042
-623.419	-200.000	-0.006	0.264
-622.405	4.444	0.147	-0.109
-621.390	-200.000	-0.006	-0.365
-620.376	-200.000	-0.019	0.101
-619.361	-20.928	0.091	0.056
-618.346	205.796	0.049	0.077
-617.332	116.615	-0.045	0.056
-616.317	98.101	-0.274	0.319
-615.303	434.312	-0.050	-0.109
-614.288	6.697	-0.105	-0.079
-613.273	61.429	-0.221	0.222
-612.259	-47.285	-0.181	0.089
-611.244	-3.764	0.124	-0.087
-610.230	800.000	0.045	-0.168
-609.215	-123.847	-0.150	0.024
-608.201	53.891	0.069	0.067
-607.186	608.127	0.173	0.437
-606.171	-22.347	0.508	-0.311
-605.157	484.708	-0.076	-0.175
-604.142	-200.000	-0.015	0.157
-603.128	-200.000	-0.010	0.110
-602.113	-200.000	0.033	-0.337
-601.098	-200.000	0.067	-0.302
-600.084	-13.282	-0.108	0.071
-599.069	-138.064	-0.218	-0.025
-598.055	-80.082	0.077	-0.026
-597.040	353.649	0.061	-0.122
-596.025	37.368	0.332	-0.297
-595.011	-95.036	0.153	-0.042
-593.996	800.000	-0.054	-0.151
-592.982	-53.798	-0.172	0.079
-591.967	-123.698	0.194	0.031
-590.952	163.279	-0.086	0.122
-589.938	223.453	0.085	-0.138
-588.923	-76.142	-0.116	-0.041
-587.909	-200.000	0.008	-0.164
-586.894	-200.000	0.031	0.148
-585.879	-163.858	0.128	0.006
-584.865	-200.000	-0.064	0.293
-583.850	-74.397	0.097	0.035
-582.836	417.758	0.084	0.181
-581.821	-85.769	-0.194	0.061
-580.806	-200.000	-0.004	-0.140
-579.792	800.000	-0.107	0.413
-578.777	-85.763	0.197	0.062
-577.763	695.297	-0.059	0.155
-576.748	-114.033	-0.328	0.064
-575.733	-200.000	-0.031	0.156
-574.719	-200.000	0.016	-0.385
-573.704	255.658	0.045	-0.077
-572.690	-190.975	0.071	-0.001
-571.675	-200.000	0.026	0.223
-570.661	-200.000	-0.162	-0.001
-569.646	-33.717	0.144	-0.080
-568.631	-147.937	-0.112	-0.009
-567.617	800.000	-0.054	0.170
-566.602	800.000	0.027	-0.089
-565.588	800.000	-0.103	0.389
-564.573	800.000	-0.106	-0.452
-563.558	-50.909	0.161	-0.076
-562.544	-18.293	-0.207	0.131
-561.529	-11.547	0.110	0.073
-560.515	13.118	0.291	0.227
-559.500	95.646	-0.219	0.251
-558.485	-108.352	0.307	-0.067
-557.471	-14.759	0.097	-0.063
-556.456	124.796	0.211	0.268
-555.442	65.505	-0.174	0.178
-554.427	225.683	-0.196	-0.321
-553.412	800.000	0.148	0.435
-552.398	800.000	0.045	-0.139
-551.383	-65.117	0.274	-0.111
-550.369	-48.324	-0.297	-0.144
-549.354	-94.350	0.062	0.017
-548.339	-105.267	0.122	-0.028
-547.325	111.664	-0.338	0.410
-546.310	-134.907	-0.079	0.010
-545.296	-200.000	-0.020	-0.142
-544.281	-104.879	-0.202	0.047
-543.266	-35.339	0.346	-0.189
-542.252	-200.000	-0.062	-0.373
-541.237	664.111	-0.077	0.201
-540.223	-94.732	-0.070	0.019
-539.208	147.070	-0.285	-0.386
-538.193	46.493	0.038	-0.035
-537.179	800.000	-0.059	-0.167
-536.164	-102.841	0.090	-0.022
-535.150	-137.490	0.259	-0.029
-534.135	780.562	-0.008	-0.022
-533.121	-79.259	-0.049	-0.017
-532.106	32.489	-0.167	0.145
-531.091	-86.604	-0.209	-0.065
-530.077	295.606	0.150	-0.276
-529.062	450.207	0.075	0.167
-528.048	370.800	0.244	0.498
-527.033	-200.000	-0.002	0.157
-526.018	455.332	0.058	-0.130
-525.004	-129.274	-0.242	0.034
-523.989	303.426	0.068	-0.126
-522.975	180.634	-0.092	-0.136
-521.960	37.743	-0.103	0.092
-520.945	32.148	0.229	-0.199
-519.931	-16.881	-0.052	0.033
-518.916	-3.220	-0.159	0.112
-517.902	-30.568	-0.248	0.142
-516.887	211.199	0.093	-0.148
-515.872	-200.000	-0.007	-0.184
-514.858	-110.437	0.099	0.021
-513.843	-48.907	0.083	0.040
-512.829	-200.000	-0.012	-0.212
-511.814	-92.739	0.255	0.072
-510.799	800.000	-0.021	-0.090
-509.785	34.918	0.085	-0.075
-508.770	57.682	0.089	-0.088
-507.756	-200.000	-0.026	-0.222
-506.741	120.277	-0.163	-0.204
-505.726	35.412	0.342	-0.301
-504.712	-143.600	0.097	0.009
-503.697	56.590	0.094	0.092
-502.683	-182.114	-0.146	0.003
-501.668	9.511	-0.218	-0.166
-500.653	800.000	-0.078	-0.234
-499.639	565.255	-0.167	-0.406
-498.624	-200.000	-0.001	-0.102
-497.610	208.051	0.156	0.244
-496.595	137.852	0.098	-0.129
-495.581	63.692	0.193	0.194
-494.566	14.482	0.065	0.051
-493.551	-45.084	-0.114	0.057
-492.537	37.946	-0.157	0.140
-491.522	412.728	0.062	-0.132
-490.508	800.000	-0.010	-0.035
-489.493	-60.173	0.036	-0.015
-488.478	70.659	-0.094	-0.097
-487.464	207.486	0.143	-0.224
-486.449	242.019	-0.103	-0.174
-485.435	-57.785	-0.433	0.190
-484.420	-83.148	0.468	-0.151
-483.405	-56.836	-0.265	0.118
-482.391	-76.302	-0.229	-0.081
-481.376	410.659	-0.069	-0.148
-480.362	-53.650	0.104	-0.048
-479.347	-30.379	0.257	0.146
-478.332	-200.000	0.009	-0.124
-477.318	-200.000	-0.008	0.192
-476.303	-86.089	-0.193	0.060
-475.289	-49.806	0.142	-0.068
-474.274	-135.365	-0.566	0.068
-473.259	800.000	-0.069	-0.216
-472.245	-200.000	-0.008	0.307
-471.230	-4.945	-0.164	-0.114
-470.216	-113.314	-0.506	-0.100
-469.201	66.755	-0.129	-0.132
-468.186	14.127	0.239	0.187
-467.172	208.930	-0.107	-0.168
-466.157	-171.933	0.261	-0.009
-465.143	48.763	-0.043	-0.041
-464.128	-200.000	0.014	0.073
-463.113	-37.246	-0.176	-0.094
-462.099	-200.000	-0.099	-0.000
-461.084	-17.311	0.345	0.218
-460.070	583.663	-0.042	-0.105
-459.055	17.205	-0.132	-0.105
-458.040	-120.939	0.244	0.041
-457.026	130.373	0.030	0.038
-456.011	482.693	-0.081	-0.185
-454.997	-138.305	0.277	-0.031
-453.982	271.545	-0.068	-0.119
-452.968	800.000	0.035	-0.139
-451.953	250.053	-0.140	-0.238
-450.938	-56.309	-0.198	0.088
-449.924	-28.714	-0.146	-0.084
-448.909	-111.820	0.227	0.046
-447.895	403.095	0.081	-0.172
-446.880	259.366	-0.070	0.122
-445.865	-200.000	-0.071	-0.430
-444.851	209.954	0.038	-0.060
-443.836	216.004	-0.053	-0.084
-442.822	-21.240	-0.318	0.195
-441.807	-200.000	0.000	-0.230
-440.792	-70.608	-0.222	0.084
-439.778	55.409	0.131	-0.127
-438.763	-86.019	-0.712	-0.221
-437.749	-200.000	0.013	0.217
-436.734	51.426	0.209	-0.199
-435.719	-200.000	-0.041	0.191
-434.705	-105.540	-0.394	0.090
-433.690	-59.520	-0.149	-0.064
-432.676	-130.265	0.177	-0.024
-431.661	77.064	-0.183	-0.195
-430.646	-200.000	0.006	-0.109
-429.632	-159.873	-0.098	-0.005
-428.617	793.357	-0.022	-0.062
-427.603	32.381	0.299	-0.258
-426.588	1.394	-0.162	0.117
-425.573	-175.398	0.112	0.003
-424.559	-70.539	0.174	0.066
-423.544	43.506	-0.062	0.057
-422.530	-39.222	-0.165	0.087
-421.515	96.739	0.190	0.218
-420.500	-200.000	-0.350	-0.001
-419.486	800.000	0.055	-0.181
-418.471	188.805	-0.059	-0.088
-417.457	230.542	-0.030	0.049
-416.442	-118.948	-0.069	-0.012
-415.428	-73.617	-0.228	0.083
-414.413	157.582	0.100	0.138
-413.398	-101.269	0.139	-0.034
-412.384	-76.295	0.112	-0.040
-411.369	198.574	0.113	-0.173
-410.355	26.152	-0.184	-0.154
-409.340	800.000	-0.031	0.096
-408.325	-77.965	-0.116	-0.040
-407.311	-200.000	-0.023	-0.124
-406.296	542.449	0.172	0.412
-405.282	605.021	-0.050	0.124
-404.267	-83.250	-0.226	0.073
-403.252	-200.000	-0.028	-0.262
-402.238	-131.074	0.258	0.034
-401.223	-102.542	-0.123	0.029
-400.209	221.554	0.248	-0.398
-399.194	-200.000	0.006	0.303
-398.179	-78.939	-0.126	-0.043
-397.165	-76.264	0.329	-0.116
-396.150	550.979	0.048	-0.116
-395.136	102.861	0.212	0.249
-394.121	-200.000	-0.023	-0.149
-393.106	-106.682	0.215	-0.048
-392.092	487.399	0.009	-0.021
-391.077	44.418	-0.258	-0.237
-390.063	-95.041	0.406	-0.110
-389.048	800.000	-0.123	0.382
-388.033	800.000	-0.091	0.320
-387.019	-44.345	0.190	-0.095
-386.004	546.458	-0.149	-0.356
-384.990	228.330	-0.154	-0.251
-383.975	800.000	-0.054	-0.189
-382.960	42.723	0.057	-0.052
-381.946	-0.118	-0.267	0.190
-380.931	-99.045	0.252	-0.064
-379.917	-200.000	0.036	0.162
-378.902	-200.000	-0.015	0.088
-377.888	705.433	-0.061	0.162
-376.873	-143.143	-0.140	0.013
-375.858	-2.785	0.390	0.273
-374.844	-200.000	-0.055	-0.400
-373.829	120.434	-0.151	0.188
-372.815	161.607	0.161	-0.226
-371.800	321.086	0.021	-0.039
-370.785	43.920	-0.055	-0.050
-369.771	48.917	0.232	-0.218
-368.756	-127.531	-0.230	-0.033
-367.742	189.113	-0.048	0.072
-366.727	-200.000	-0.037	0.187
-365.712	661.178	0.087	0.225
-364.698	-57.287	-0.208	0.091
-363.683	-81.663	0.116	0.038
-362.669	204.407	-0.065	-0.100
-361.654	176.400	0.144	0.209
-360.639	-136.283	-0.319	-0.037
-359.625	639.067	0.153	-0.390
-358.610	118.704	-0.064	-0.079
-357.596	150.415	0.123	0.167
-356.581	-74.514	-0.149	-0.054
-355.566	-113.909	0.206	-0.040
-354.552	-200.000	-0.011	-0.145
-353.537	800.000	0.020	0.071
-352.523	-32.337	-0.085	-0.048
-351.508	-45.297	0.397	0.197
-350.493	12.823	0.099	-0.076
-349.479	-36.810	-0.306	0.164
-348.464	-191.502	-0.216	0.002
-347.450	-119.954	-0.266	-0.046
-346.435	-200.000	0.004	0.065
-345.420	-200.000	-0.033	-0.308
-344.406	597.488	0.042	0.103
-343.391	93.919	-0.087	-0.099
-342.377	-200.000	-0.008	0.127
-341.362	173.748	0.175	-0.252
-340.348	278.256	0.082	0.146
-339.333	159.071	0.137	-0.190
-338.318	-200.000	-0.057	-0.332
-337.304	800.000	0.076	0.221
-336.289	290.743	0.092	-0.167
-335.275	105.917	-0.265	-0.313
-334.260	-18.392	0.059	-0.037
-333.245	-200.000	0.036	-0.163
-332.231	52.046	0.199	-0.189
-331.216	61.344	-0.200	-0.199
-330.202	-46.462	0.267	0.131
-329.187	-200.000	0.019	0.233
-328.172	66.683	0.207	0.210
-327.158	-200.000	-0.003	0.188
-326.143	70.473	0.281	-0.290
-325.129	-32.265	0.109	-0.061
-324.114	224.175	0.156	-0.251
-323.099	-120.818	0.161	0.027
-322.085	162.831	-0.213	-0.298
-321.070	168.060	-0.176	-0.249
-320.056	32.365	0.187	-0.161
-319.041	450.265	-0.090	0.198
-318.026	109.765	0.130	0.155
-317.012	800.000	0.034	0.116
-315.997	194.229	0.259	-0.392
-314.983	800.000	0.073	-0.319
-313.968	-115.255	-0.093	-0.018
-312.953	-22.334	0.245	0.148
-311.939	468.636	-0.037	-0.083
-310.924	768.338	0.037	0.100
-309.910	-117.993	0.179	0.032
-308.895	421.790	0.115	0.247
-307.880	-200.000	0.001	0.016
-306.866	-137.606	-0.176	0.020
-305.851	151.376	0.186	-0.252
-304.837	-78.319	0.082	0.028
-303.822	-200.000	-0.008	0.166
-302.807	58.072	0.109	-0.106
-301.793	123.963	-0.224	0.281
-300.778	-161.657	0.082	-0.004
-299.764	234.753	-0.042	0.070
-298.749	-200.000	-0.030	0.335
-297.735	493.354	-0.057	0.131
-296.720	800.000	-0.041	0.178
-295.705	-105.459	0.228	-0.052
-294.691	-58.666	-0.305	0.132
-293.676	205.995	0.095	0.148
-292.662	-24.193	0.280	-0.167
-291.647	-61.350	0.224	-0.094
-290.632	-200.000	-0.062	0.410
-289.618	740.082	0.073	-0.195
-288.603	23.682	-0.128	-0.105
-287.589	-100.312	0.113	-0.028
-286.574	463.142	0.082	-0.183
-285.559	-1.421	-0.182	0.128
-284.545	800.000	-0.030	0.101
-283.530	45.371	-0.203	0.187
-282.516	-78.278	-0.060	0.020
-281.501	437.538	-0.198	0.430
-280.486	800.000	0.061	0.195
-279.472	-7.978	-0.108	0.072
-278.457	74.527	-0.137	-0.143
-277.443	-200.000	-0.010	0.049
-276.428	206.547	0.117	0.181
-275.413	800.000	-0.057	-0.228
-274.399	-104.205	-0.253	0.059
-273.384	35.145	-0.090	-0.079
-272.370	344.528	-0.099	-0.194
-271.355	-129.503	-0.084	-0.012
-270.340	-20.288	0.166	-0.102
-269.326	-99.173	0.293	-0.074
-268.311	-182.778	0.215	-0.004
-267.297	-157.803	0.291	0.017
-266.282	237.090	-0.176	-0.291
-265.267	-31.942	0.205	0.114
-264.253	-46.966	0.352	0.171
-263.238	127.923	-0.187	0.237
-262.224	14.637	0.140	-0.109
-261.209	-200.000	0.001	-0.156
-260.195	208.867	0.285	0.444
-259.180	-200.000	0.050	-0.219
-258.165	-200.000	0.026	0.123
-257.151	-200.000	-0.014	-0.138
-256.136	-115.873	-0.214	-0.040
-255.122	-191.619	-0.261	-0.003
-254.107	-62.084	-0.152	0.063
-253.092	145.979	-0.098	-0.130
-252.078	222.245	0.042	0.067
-251.063	147.529	0.195	0.262
-250.049	18.089	-0.167	-0.133
-249.034	587.761	-0.055	-0.135
-248.019	-200.000	-0.010	0.516
-247.005	-200.000	0.031	0.186
-245.990	132.759	-0.192	0.247
-244.976	-51.540	-0.047	-0.022
-243.961	-200.000	-0.037	-0.197
-242.946	-10.458	0.291	-0.192
-241.932	-200.000	-0.018	0.173
-240.917	-200.000	0.081	0.390
-239.903	59.712	-0.090	-0.089
-238.888	-200.000	-0.008	0.150
-237.873	134.907	0.175	0.226
-236.859	-95.683	0.046	0.012
-235.844	-6.929	0.077	-0.052
-234.830	-71.869	0.086	-0.032
-233.815	241.316	0.217	-0.361
-232.800	-145.684	0.183	-0.016
-231.786	-29.310	-0.211	0.120
-230.771	-78.653	-0.222	0.076
-229.757	-161.220	0.069	0.004
-228.742	6.689	-0.132	0.098
-227.727	-200.000	0.015	-0.232
-226.713	79.174	-0.277	0.295
-225.698	-26.491	0.108	-0.063
-224.684	280.019	0.125	-0.222
-223.669	285.215	0.145	0.259
-222.655	51.612	-0.089	0.084
-221.640	255.047	0.133	-0.226
-220.625	-200.000	-0.001	-0.082
-219.611	56.629	-0.320	0.310
-218.596	799.980	0.110	0.302
-217.582	-200.000	-0.025	0.216
-216.567	-200.000	-0.001	0.334
-215.552	800.000	-0.121	0.344
-214.538	-200.000	0.050	0.380
-213.523	268.469	0.122	0.213
-212.509	-188.653	-0.189	0.002
-211.494	-200.000	0.015	-0.264
-210.479	-107.792	0.192	-0.042
-209.465	154.494	0.143	-0.196
-208.450	-200.000	-0.017	-0.213
-207.436	-48.890	-0.189	0.090
-206.421	478.587	-0.054	0.121
-205.406	-104.267	-0.056	0.013
-204.392	-200.000	-0.017	-0.214
-203.377	603.117	0.035	0.086
-202.363	-200.000	-0.016	0.280
-201.348	-49.373	0.365	0.173
-200.333	48.228	0.034	-0.032
-199.319	-169.925	0.113	0.004
-198.304	2.204	0.203	0.146
-197.290	109.827	-0.050	-0.059
-196.275	40.390	0.129	0.115
-195.260	-159.957	-0.276	0.015
-194.246	-134.877	-0.388	-0.047
-193.231	-15.854	0.289	0.183
-192.217	800.000	-0.094	0.334
-191.202	176.454	0.076	-0.110
-190.187	179.370	-0.104	0.151
-189.173	716.457	0.025	-0.066
-188.158	800.000	0.015	0.064
-187.144	800.000	0.114	0.374
-186.129	-97.996	-0.093	0.024
-185.114	-107.313	0.156	0.034
-184.100	-200.000	-0.009	0.298
-183.085	-154.247	-0.217	0.015
-182.071	-200.000	-0.017	-0.166
-181.056	-152.113	0.153	-0.011
-180.042	-200.000	0.005	0.184
-179.027	-75.107	-0.141	0.050
-178.012	-124.427	0.301	0.047
-176.998	86.299	0.167	-0.183
-175.983	-100.631	-0.155	-0.038
-174.969	-200.000	-0.045	0.290
-173.954	-200.000	-0.011	0.116
-172.939	170.864	0.122	-0.173
-171.925	-107.851	-0.284	-0.061
-170.910	72.056	0.014	0.014
-169.896	42.280	0.160	-0.145
-168.881	800.000	0.047	0.173
-167.866	30.419	0.209	0.177
-166.852	-18.714	0.045	-0.028
-165.837	-60.742	0.072	-0.030
-164.823	108.432	0.098	-0.116
-163.808	19.346	-0.348	-0.277
-162.793	-93.794	0.120	-0.033
-161.779	800.000	0.035	-0.115
-160.764	109.770	0.104	-0.123
-159.750	21.932	0.119	0.096
-158.735	800.000	0.109	-0.398
-157.720	-174.214	0.384	-0.011
-156.706	143.384	-0.165	-0.217
-155.691	-123.206	0.057	-0.009
-154.677	-8.138	-0.385	-0.257
-153.662	-200.000	-0.002	-0.027
-152.647	-69.357	0.287	0.109
-151.633	-200.000	-0.030	0.232
-150.618	800.000	-0.053	-0.152
-149.604	690.205	-0.026	0.068
-148.589	-86.790	0.335	-0.101
-147.574	-77.745	-0.389	0.133
-146.560	263.497	0.116	-0.199
-145.545	131.336	0.124	-0.158
-144.531	-145.908	0.383	0.034
-143.516	54.752	0.133	-0.127
-142.502	724.377	-0.029	0.077
-141.487	-96.062	-0.137	0.036
-140.472	800.000	0.064	-0.202
-139.458	-77.090	0.061	0.021
-138.443	300.432	0.050	-0.091
-137.429	9.338	0.223	0.167
-136.414	-84.007	0.456	-0.144
-135.399	330.494	-0.168	0.320
-134.385	97.845	0.049	0.056
-133.370	71.632	0.192	0.198
-132.356	-200.000	0.016	0.260
-131.341	800.000	0.143	0.425
-130.326	510.686	0.058	0.134
-129.312	-119.038	-0.102	-0.018
-128.297	-92.070	-0.134	-0.038
-127.283	-119.088	-0.356	0.062
-126.268	-46.978	0.170	0.082
-125.253	-153.583	0.146	-0.010
-124.239	74.635	0.227	-0.237
-123.224	-136.007	-0.340	0.040
-122.210	209.391	-0.112	0.175
-121.195	5.527	-0.132	0.096
-120.180	-200.000	-0.008	0.359
-119.166	97.928	-0.112	0.128
-118.151	782.159	-0.033	0.090
-117.137	-26.909	-0.053	0.031
-116.122	14.144	-0.236	0.182
-115.107	800.000	-0.060	-0.180
-114.093	-38.839	0.224	0.117
-113.078	360.990	-0.104	-0.207
-112.064	-118.656	0.075	-0.013
-111.049	-200.000	0.028	0.162
-110.034	-58.725	-0.372	0.160
-109.020	800.000	0.055	0.174
-108.005	-200.000	-0.004	-0.108
-106.991	-200.000	-0.019	-0.127
-105.976	-84.554	-0.183	-0.057
-104.962	-89.843	-0.190	0.055
-103.947	-200.000	0.005	0.077
-102.932	-8.306	-0.145	0.097
-101.918	800.000	0.024	-0.076
-100.903	-200.000	0.121	0.549
-99.889	276.362	0.053	0.092
-98.874	604.091	0.144	0.355
-97.859	-200.000	-0.002	0.306
-96.845	-6.760	-0.080	-0.054
-95.830	145.948	0.086	-0.114
-94.816	-4.756	0.271	-0.185
-93.801	-200.000	-0.006	-0.204
-92.786	800.000	0.125	0.346
-91.772	-157.822	0.347	0.020
-90.757	275.085	0.114	-0.199
-89.743	-67.135	-0.293	0.114
-88.728	-200.000	-0.007	0.033
-87.713	261.781	-0.083	-0.143
-86.699	161.558	0.169	-0.235
-85.684	-125.057	-0.369	0.056
-84.670	-4.015	0.302	0.207
-83.655	95.412	0.167	0.188
-82.640	81.644	-0.064	0.068
-81.626	169.103	-0.135	-0.191
-80.611	21.590	-0.060	-0.048
-79.597	398.372	-0.162	0.336
-78.582	-5.560	0.168	-0.114
-77.567	-200.000	0.027	-0.192
-76.553	800.000	0.113	0.356
-75.538	-34.529	-0.199	0.108
-74.524	153.122	0.156	-0.211
-73.509	-200.000	0.000	-0.044
-72.494	268.799	-0.194	-0.337
-71.480	-109.713	-0.237	0.049
-70.465	709.627	0.057	-0.150
-69.451	-170.015	0.358	0.013
-68.436	9.548	-0.157	0.117
-67.422	-148.625	0.323	-0.026
-66.407	239.096	0.088	0.145
-65.392	-2.345	-0.098	-0.068
-64.378	67.142	0.220	-0.221
-63.363	-8.629	-0.246	0.163
-62.349	-200.000	0.093	0.419
-61.334	377.412	-0.589	-1.188
-60.319	-43.180	0.693	0.347
-59.305	-200.000	-0.187	-1.024
-58.290	197.884	0.469	0.708
-57.276	239.871	0.802	1.320
-56.261	-200.000	99.064	592.244
-55.246	532.402	1416.094	3310.466
-54.232	148.752	2619.159	3496.813
-53.217	112.934	2176.350	2605.156
-52.203	45.295	1624.870	1480.292
-51.188	37.208	1360.099	1189.725
-50.173	33.916	1317.255	1132.623
-49.159	56.966	1367.291	1316.023
-48.144	60.429	1384.513	1353.501
-47.130	37.595	1338.606	1173.074
-46.115	33.862	1320.919	1135.271
-45.100	33.712	1316.482	1130.516
-44.086	33.609	1314.234	1127.928
-43.071	33.626	1311.262	1125.436
-42.057	33.561	1309.320	1123.336
-41.042	33.698	1307.848	1122.839
-40.027	33.748	1306.028	1121.529
-39.013	33.646	1304.177	1119.296
-37.998	33.659	1302.065	1117.514
-36.984	33.647	1300.944	1116.437
-35.969	33.779	1298.981	1115.484
-34.954	33.736	1297.310	1113.754
-33.940	33.825	1295.766	1112.905
-32.925	33.883	1294.539	1112.148
-31.911	33.944	1293.228	1111.332
-30.896	33.991	1291.461	1110.045
-29.881	33.914	1290.540	1108.760
-28.867	33.902	1288.966	1107.290
-27.852	33.918	1287.418	1106.013
-26.838	33.743	1286.386	1104.066
-25.823	33.887	1284.670	1103.382
-24.809	33.813	1283.573	1101.968
-23.794	33.865	1281.728	1100.642
-22.779	33.888	1280.346	1099.543
-21.765	33.806	1279.469	1098.275
-20.750	33.849	1278.141	1097.337
-19.736	33.774	1276.633	1095.565
-18.721	33.650	1276.132	1094.379
-17.706	33.744	1274.476	1093.455
-16.692	33.652	1273.596	1092.128
-15.677	33.809	1272.453	1092.009
-14.663	33.672	1271.169	1090.073
-13.648	33.645	1270.776	1089.543
-12.633	33.629	1269.572	1088.372
-11.619	33.549	1268.874	1087.270
-10.604	33.753	1267.600	1087.306
-9.590	33.725	1266.317	1086.002
-8.575	33.683	1265.437	1084.966
-7.560	33.679	1265.040	1084.557
-6.546	33.510	1264.278	1082.897
-5.531	33.570	1263.238	1082.307
-4.517	33.734	1261.756	1081.928
-3.502	33.576	1261.502	1080.764
-2.487	33.638	1260.515	1080.230
-1.473	33.651	1256.471	1076.797
-0.458	32.583	1241.922	1058.290
0.556	29.123	1223.781	1020.882
1.571	25.495	1229.397	1005.228
2.586	24.741	1244.601	1013.301
3.600	23.956	1233.888	1000.076
4.615	17.202	1158.935	903.454
5.629	6.676	1080.715	789.953
6.644	2.015	1059.516	751.470
7.659	1.748	1056.769	748.147
8.673	1.687	1055.068	746.574
9.688	1.392	1054.393	744.585
10.702	1.703	1052.972	745.037
11.717	8.092	1062.169	782.941
12.731	18.575	1077.079	845.824
13.746	23.913	1083.678	877.343
14.761	25.037	1084.429	883.417
15.775	24.970	1084.518	883.080
16.790	24.709	1083.728	881.075
17.804	24.731	1082.557	880.152
18.819	24.816	1082.594	880.521
19.834	24.958	1082.252	880.866
20.848	25.087	1081.326	880.665
21.863	24.913	1081.065	879.523
22.877	25.002	1080.312	879.270
23.892	24.897	1079.211	877.778
24.907	24.981	1078.818	877.792
25.921	24.988	1078.051	877.124
26.936	24.965	1076.286	875.500
27.950	24.970	1074.757	874.203
28.965	24.711	1073.197	871.595
29.980	24.810	1071.752	870.825
30.994	25.034	1070.708	870.992
32.009	24.957	1069.889	869.872
33.023	24.872	1068.279	868.073
34.038	24.887	1067.882	867.749
35.053	25.108	1066.837	867.890
36.067	24.981	1066.306	866.767
37.082	25.056	1066.002	866.809
38.096	25.316	1065.006	867.176
39.111	25.354	1064.367	866.762
40.126	25.016	1063.446	864.308
41.140	24.754	1061.359	861.275
42.155	24.540	1059.716	858.834
43.169	24.700	1058.600	858.620
44.184	24.563	1058.325	857.664
45.199	24.501	1057.529	856.645
46.213	24.715	1056.373	856.660
47.228	24.722	1055.461	855.877
48.242	24.932	1054.601	856.110
49.257	24.844	1054.313	855.379
50.271	25.069	1052.921	855.248
51.286	25.144	1052.295	855.024
52.301	25.149	1051.479	854.309
53.315	25.016	1050.563	852.854
54.330	24.999	1049.500	851.836
55.344	25.037	1048.418	851.060
56.359	24.970	1047.806	850.174
57.374	24.732	1046.864	848.205
58.388	24.638	1046.500	847.388
59.403	24.764	1045.415	847.030
60.417	24.515	1044.657	845.164
61.432	24.604	1044.495	845.378
62.447	24.731	1043.630	845.204
63.461	24.589	1043.189	844.102
64.476	24.752	1041.437	843.375
65.490	24.668	1040.439	842.100
66.505	24.738	1039.540	841.629
67.520	24.852	1038.847	841.526
68.534	24.496	1038.041	839.127
69.549	24.134	1037.213	836.682
70.563	24.146	1036.150	835.808
71.578	24.176	1035.280	835.171
72.593	24.061	1034.453	833.893
73.607	24.303	1033.852	834.466
74.622	24.541	1033.506	835.226
75.636	24.566	1032.733	834.646
76.651	24.450	1031.776	833.256
77.666	24.350	1031.252	832.294
78.680	24.392	1030.374	831.708
79.695	24.515	1029.974	831.884
80.709	24.614	1029.399	831.808
81.724	24.363	1029.193	830.399
82.739	24.637	1027.549	830.274
83.753	25.013	1027.072	831.556
84.768	25.357	1026.035	832.238
85.782	25.384	1025.755	832.063
86.797	25.167	1024.696	830.128
87.812	25.200	1023.329	829.099
88.826	25.122	1022.745	828.191
89.841	25.299	1021.730	828.114
90.855	25.297	1020.744	827.232
91.870	25.332	1019.941	826.671
92.884	25.040	1019.074	824.551
93.899	25.064	1017.631	823.418
94.914	25.222	1017.108	823.649
95.928	24.970	1016.190	821.678
96.943	24.907	1014.330	819.813
97.957	24.635	1013.021	817.435
98.972	24.434	1012.156	815.750
99.987	24.649	1011.937	816.483
101.001	24.953	1010.858	816.928
102.016	24.930	1009.975	816.035
103.030	24.822	1008.810	814.528
104.045	24.717	1007.950	813.285
105.060	24.523	1007.182	811.713
106.074	24.602	1006.570	811.508
107.089	25.157	1005.335	812.955
108.103	24.966	1005.187	811.899
109.118	24.816	1003.393	809.699
110.133	24.782	1002.747	808.953
111.147	24.532	1001.446	806.704
112.162	24.423	1000.646	805.496
113.176	24.697	1000.338	806.410
114.191	24.622	999.259	805.130
115.206	24.197	998.139	802.243
116.220	24.229	997.471	801.781
117.235	24.375	996.507	801.590
118.249	24.386	995.736	800.951
119.264	24.204	995.341	799.744
120.279	24.237	994.678	799.290
121.293	24.364	993.638	798.951
122.308	24.347	992.933	798.237
123.322	24.284	991.833	797.001
124.337	24.171	990.435	795.302
125.352	23.780	988.649	792.055
126.366	23.591	987.957	790.589
127.381	24.433	987.828	794.164
128.395	24.973	987.184	795.975
129.410	25.085	986.260	795.657
130.424	24.966	985.188	794.197
131.439	24.908	984.563	793.368
132.454	24.966	983.854	792.979
133.468	24.824	982.620	791.290
134.483	24.914	982.484	791.508
135.497	25.134	981.291	791.447
136.512	25.118	980.503	790.670
137.527	25.185	979.796	790.325
138.541	25.235	979.080	789.899
139.556	25.288	978.047	789.229
140.570	25.283	977.245	788.487
141.585	25.249	976.305	787.510
142.600	25.194	975.126	786.250
143.614	25.395	974.432	786.503
144.629	25.489	973.766	786.304
145.643	25.329	972.384	784.420
146.658	25.231	970.992	782.801
147.673	25.101	969.810	781.212
148.687	24.974	968.987	779.928
149.702	24.804	967.854	778.207
150.716	24.809	967.393	777.788
151.731	25.050	966.814	778.302
152.746	25.303	966.316	778.931
153.760	25.322	965.643	778.401
154.775	25.229	965.102	777.494
155.789	25.373	963.852	777.042
156.804	25.454	962.674	776.374
157.819	25.338	962.317	775.512
158.833	25.456	961.651	775.418
159.848	25.414	960.519	774.257
160.862	25.253	959.155	772.396
161.877	25.390	958.250	772.188
162.892	25.477	956.940	771.437
163.906	25.294	956.071	769.881
164.921	25.395	955.125	769.484
165.935	25.350	954.466	768.694
166.950	25.373	953.611	768.035
167.964	25.449	952.791	767.631
168.979	25.221	951.498	765.552
169.994	25.156	950.881	764.706
171.008	25.214	950.435	764.530
172.023	25.456	949.473	764.719
173.037	25.217	948.435	762.797
174.052	25.176	947.365	761.695
175.067	25.179	946.709	761.112
176.081	25.172	946.318	760.704
177.096	25.098	945.350	759.542
178.110	24.896	944.666	758.073
179.125	24.660	943.942	756.423
180.140	24.773	943.814	756.732
181.154	24.899	943.478	756.931
182.169	25.230	943.247	758.077
183.183	25.334	942.611	757.935
184.198	25.231	941.564	756.592
185.213	25.255	940.769	755.988
186.227	25.253	940.534	755.725
187.242	25.306	939.941	755.405
188.256	25.288	939.160	754.634
189.271	25.423	938.337	754.472
190.286	25.037	937.102	751.796
191.300	24.460	935.515	748.036
192.315	23.721	933.905	743.593
193.329	23.530	934.497	743.198
194.344	24.452	934.433	746.940
195.359	25.015	934.594	749.356
196.373	25.229	933.919	749.646
197.388	25.225	933.113	748.916
198.402	25.180	932.267	747.982
199.417	25.237	931.506	747.544
200.432	24.945	930.487	745.446
201.446	24.756	930.161	744.330
202.461	24.945	929.512	744.529
203.475	23.970	927.599	738.886
204.490	23.251	926.422	734.897
205.504	24.157	926.898	738.974
206.519	24.826	926.690	741.514
207.534	24.808	926.133	740.930
208.548	25.245	926.149	742.684
209.563	25.009	925.057	740.769
210.577	24.838	925.074	740.010
211.592	25.451	923.992	741.607
212.607	25.423	923.164	740.765
213.621	25.328	922.930	740.117
214.636	25.483	921.839	739.816
215.650	25.348	921.122	738.618
216.665	25.456	920.736	738.691
217.680	25.398	919.911	737.724
218.694	25.060	918.396	735.058
219.709	24.733	918.096	733.411
220.723	25.133	917.821	734.766
221.738	25.243	916.924	734.432
222.753	25.195	916.208	733.601
223.767	25.395	915.910	734.112
224.782	25.399	915.917	734.069
225.796	25.445	915.239	733.649
226.811	24.808	913.266	729.407
227.826	24.275	912.367	726.451
228.840	24.428	911.744	726.514
229.855	24.371	911.240	725.817
230.869	24.286	909.990	724.413
231.884	24.639	909.930	725.735
232.899	25.183	910.243	728.129
233.913	25.046	909.508	726.922
234.928	24.997	909.239	726.444
235.942	25.155	908.039	726.060
236.957	24.761	907.426	723.909
237.972	24.852	906.571	723.533
238.986	24.804	906.672	723.353
240.001	24.873	905.775	722.855
241.015	25.118	905.309	723.406
242.030	25.100	904.914	722.953
243.045	25.273	904.331	723.123
244.059	25.417	903.873	723.273
245.074	25.136	903.102	721.461
246.088	24.971	901.512	719.465
247.103	25.168	901.609	720.270
248.117	25.654	902.124	722.567
249.132	25.951	901.594	723.273
250.147	26.020	901.264	723.220
251.161	26.060	900.562	722.751
252.176	26.030	899.713	721.886
253.190	26.140	899.547	722.132
254.205	26.248	898.973	722.036
255.220	26.289	897.976	721.337
256.234	26.096	897.578	720.183
257.249	26.057	896.345	718.975
258.263	26.140	895.823	718.824
259.278	26.246	895.233	718.709
260.293	26.097	894.966	717.836
261.307	26.057	894.280	717.063
262.322	25.814	893.312	715.259
263.336	25.118	891.538	711.018
264.351	24.103	889.226	705.094
265.366	24.187	889.315	705.434
266.380	25.352	889.748	710.328
267.395	25.748	889.577	711.691
268.409	25.828	888.561	711.132
269.424	25.869	888.175	710.921
270.439	25.980	887.704	710.919
271.453	25.882	887.463	710.279
272.468	26.068	887.161	710.707
273.482	26.182	886.673	710.700
274.497	25.888	884.825	708.004
275.512	25.338	884.525	705.538
276.526	25.897	884.307	707.497
277.541	25.915	884.337	707.531
278.555	25.764	883.020	705.823
279.570	25.701	882.452	705.058
280.585	25.811	881.920	705.003
281.599	25.751	880.683	703.717
282.614	25.132	879.468	700.267
283.628	25.262	879.213	700.509
284.643	25.538	878.920	701.290
285.657	25.068	877.860	698.551
286.672	24.839	876.990	696.906
287.687	25.483	876.704	699.123
288.701	25.473	876.418	698.794
289.716	25.170	875.263	696.634
290.730	25.167	874.959	696.318
291.745	24.794	874.148	694.163
292.760	25.195	874.235	695.728
293.774	26.244	874.518	699.959
294.789	26.585	874.176	700.945
295.803	26.581	873.250	700.125
296.818	26.440	872.912	699.243
297.833	26.096	871.648	696.842
298.847	25.916	871.111	695.656
299.862	26.237	870.907	696.673
300.876	26.451	870.356	696.995
301.891	26.275	869.752	695.769
302.906	25.987	868.763	693.809
303.920	26.147	868.338	694.024
304.935	26.346	868.698	695.015
305.949	26.423	867.543	694.326
306.964	26.189	866.638	692.641
307.979	26.199	866.799	692.747
308.993	26.577	866.610	693.986
310.008	26.637	865.647	693.384
311.022	26.184	865.130	691.175
312.037	26.090	864.495	690.246
313.052	25.979	863.307	688.813
314.066	24.956	862.131	683.907
315.081	24.708	861.072	682.062
316.095	25.672	861.159	685.746
317.110	25.951	861.296	686.859
318.125	25.357	859.721	683.280
319.139	24.153	858.406	677.598
320.154	24.163	857.840	677.130
321.168	25.019	858.491	680.839
322.183	25.744	858.395	683.455
323.197	25.936	858.213	683.978
324.212	26.060	858.015	684.230
325.227	26.151	857.125	683.804
326.241	26.060	856.524	682.919
327.256	25.978	855.860	682.021
328.270	25.927	854.870	680.978
329.285	25.679	854.296	679.526
330.300	25.561	853.381	678.293
331.314	25.731	853.290	678.802
332.329	26.116	853.374	680.260
333.343	26.309	852.903	680.549
334.358	26.330	852.824	680.505
335.373	26.369	852.317	680.187
336.387	26.522	852.248	680.647
337.402	26.737	852.017	681.211
338.416	26.617	851.569	680.343
339.431	26.864	851.333	681.022
340.446	26.991	850.714	680.941
341.460	26.780	850.352	679.801
342.475	26.701	849.524	678.782
343.489	26.660	849.455	678.515
344.504	26.991	849.331	679.595
345.519	27.114	848.633	679.436
346.533	27.169	848.289	679.305
347.548	27.174	847.586	678.701
348.562	26.992	847.178	677.634
349.577	27.016	846.412	677.051
350.592	27.041	845.653	676.478
351.606	26.849	845.212	675.351
352.621	26.934	844.229	674.821
353.635	26.817	843.624	673.842
354.650	26.221	841.864	670.166
355.665	25.373	840.285	665.707
356.679	25.758	840.151	666.971
357.694	26.202	839.760	668.244
358.708	26.041	839.337	667.254
359.723	26.294	839.532	668.283
360.738	26.835	838.968	669.776
361.752	26.834	838.286	669.169
362.767	27.123	837.910	669.873
363.781	27.430	837.701	670.778
364.796	27.406	837.468	670.445
365.810	27.587	836.900	670.596
366.825	27.502	836.750	670.105
367.840	27.338	835.432	668.385
368.854	26.716	834.963	665.668
369.869	26.701	834.252	664.989
370.883	26.956	833.914	665.594
371.898	26.826	833.460	664.698
372.913	26.854	833.015	664.385
373.927	26.940	832.596	664.308
374.942	27.026	832.601	664.568
375.956	27.370	831.727	665.069
376.971	27.287	831.896	664.841
377.986	27.642	831.020	665.379
379.000	27.370	830.439	663.863
380.015	27.254	829.952	662.993
381.029	27.401	829.382	663.012
382.044	27.470	829.036	662.928
383.059	27.429	828.419	662.227
384.073	27.526	827.631	661.891
385.088	27.486	826.803	661.027
386.102	27.240	826.475	659.815
387.117	26.966	826.148	658.501
388.132	26.719	824.948	656.588
389.146	26.260	823.829	653.982
390.161	26.892	823.478	655.931
391.175	27.067	823.694	656.675
392.190	26.881	822.506	654.999
393.205	25.366	820.403	647.805
394.219	24.002	818.458	641.300
395.234	23.928	818.387	640.921
396.248	25.497	819.930	647.735
397.263	27.072	820.334	653.670
398.278	26.952	820.307	653.157
399.292	26.589	819.697	651.306
400.307	26.822	818.970	651.508
401.321	26.760	819.148	651.369
402.336	27.131	818.928	652.471
403.350	27.713	818.575	654.219
404.365	27.888	818.549	654.768
405.380	28.058	818.210	655.050
406.394	28.123	817.745	654.851
407.409	28.118	817.050	654.219
408.423	28.190	816.332	653.843
409.438	28.165	816.370	653.726
410.453	28.242	816.108	653.735
411.467	28.114	815.242	652.524
412.482	28.049	815.164	652.174
413.496	28.292	814.441	652.405
414.511	28.259	814.185	652.025
415.526	28.111	813.874	651.187
416.540	28.107	812.942	650.372
417.555	27.715	812.623	648.666
418.569	27.833	811.877	648.433
419.584	27.914	811.135	648.069
420.599	27.569	810.755	646.485
421.613	107.659	1284.291	1448.812
422.628	93.000	1353.275	1448.907
