DTS Sentinel unit serial number:	SN413079Multiplexer serial number:	ORYXHardware model number:	OX4-SRSoftware version number:	ORYX F/W v4.00 Oryx Data Collector v3.7.2.0data status	okinstallation	princeton_trtdifferential loss correction	single-endedforward channel	channel 1reverse channel	N/Adate	2019/09/19time	06:02:35forward acquisition time	60.00reverse acquisition time	0.00gamma	496.2192k internal	0.2343k external	0.2343temperature offset calibration	1.0020default loss term (dB/km)	0.3790temperature slope calibration	1.0000multiplexer offset coefficient	1.0000multiplexer slope coefficient	1.0000fibre end	0.00T internal ref (°C)	19.16T ext. ref 1 (°C)	0.58T ext. ref 2 (°C)	12.76length (m)	temperature (°C)	Stokes	anti-Stokes-747.200	-3.884	0.058	0.040
-746.185	253.443	0.060	0.103
-745.171	-200.000	0.002	0.208
-744.156	144.775	-0.007	0.010
-743.142	-69.704	-0.103	0.040
-742.127	27.073	-0.160	0.134
-741.112	114.610	-0.124	0.152
-740.098	-200.000	0.025	0.259
-739.083	88.746	-0.198	0.220
-738.069	12.903	-0.170	-0.132
-737.054	12.542	-0.134	-0.103
-736.039	-124.038	0.193	-0.030
-735.025	-165.162	-0.139	-0.006
-734.010	800.000	0.055	-0.158
-732.996	98.547	-0.097	0.113
-731.981	800.000	-0.037	0.128
-730.966	-38.601	-0.209	0.110
-729.952	280.413	-0.093	-0.167
-728.937	-115.969	-0.636	-0.119
-727.923	-139.601	-0.143	0.015
-726.908	-200.000	0.009	-0.077
-725.894	438.154	-0.099	-0.216
-724.879	-59.033	-0.264	0.114
-723.864	199.201	0.147	0.226
-722.850	-137.992	-0.176	-0.020
-721.835	-200.000	-0.053	-0.427
-720.821	100.021	0.150	0.174
-719.806	168.191	0.147	0.210
-718.791	-40.201	-0.099	0.052
-717.777	143.102	-0.159	-0.212
-716.762	-16.171	-0.118	0.075
-715.748	-3.981	0.151	-0.105
-714.733	164.970	0.121	0.171
-713.718	800.000	0.097	0.284
-712.704	-40.812	-0.467	0.242
-711.689	-200.000	-0.006	0.055
-710.675	800.000	-0.016	0.056
-709.660	-134.363	0.258	0.032
-708.645	9.194	-0.309	-0.234
-707.631	95.224	-0.227	0.259
-706.616	-18.662	-0.148	-0.093
-705.602	-119.968	0.130	-0.022
-704.587	581.954	-0.060	0.148
-703.572	-10.698	0.193	0.128
-702.558	800.000	-0.070	0.289
-701.543	673.474	-0.104	0.268
-700.529	118.852	-0.138	0.170
-699.514	-200.000	-0.022	0.128
-698.499	-38.013	0.126	0.067
-697.485	2.289	0.104	0.075
-696.470	209.791	-0.151	0.237
-695.456	-165.707	0.310	-0.013
-694.441	800.000	0.077	0.237
-693.426	800.000	0.071	-0.249
-692.412	547.517	-0.193	-0.463
-691.397	59.416	0.159	0.156
-690.383	113.368	0.144	0.175
-689.368	-58.124	-0.471	0.205
-688.354	-200.000	-0.026	-0.284
-687.339	234.135	0.101	0.167
-686.324	800.000	-0.084	0.262
-685.310	-136.462	0.337	0.039
-684.295	-61.618	0.305	-0.128
-683.281	-103.741	-0.163	0.038
-682.266	-137.698	-0.196	-0.022
-681.251	469.730	-0.025	0.056
-680.237	-79.456	-0.219	-0.074
-679.222	-200.000	0.030	0.134
-678.208	-200.000	-0.255	0.000
-677.193	-19.457	-0.320	-0.198
-676.178	46.066	0.207	0.192
-675.164	180.037	0.168	-0.246
-674.149	-95.309	0.157	0.042
-673.135	-128.580	0.106	-0.015
-672.120	-77.121	0.049	0.017
-671.105	130.140	0.186	0.238
-670.091	94.744	-0.158	-0.179
-669.076	-27.793	0.144	0.083
-668.062	95.630	-0.073	-0.083
-667.047	-57.731	0.168	0.073
-666.032	-183.593	-0.108	0.002
-665.018	-74.595	0.242	0.087
-664.003	-110.879	0.312	-0.064
-662.989	-164.502	-0.270	0.012
-661.974	-125.781	0.135	-0.020
-660.959	-195.434	-0.096	0.001
-659.945	125.724	-0.278	0.351
-658.930	23.291	-0.087	0.071
-657.916	61.215	0.160	0.159
-656.901	94.139	-0.088	-0.099
-655.886	-51.712	0.015	0.007
-654.872	-62.103	-0.137	0.057
-653.857	-42.554	-0.052	-0.026
-652.843	-27.996	0.242	-0.140
-651.828	800.000	-0.057	-0.229
-650.814	-101.532	0.201	0.049
-649.799	-200.000	0.001	0.430
-648.784	-200.000	0.014	0.276
-647.770	96.290	0.098	0.111
-646.755	55.068	-0.256	-0.247
-645.741	-79.262	0.027	0.009
-644.726	-38.848	0.073	0.039
-643.711	39.218	-0.154	0.138
-642.697	546.992	0.023	0.055
-641.682	-84.675	-0.246	-0.077
-640.668	42.051	-0.050	0.046
-639.653	559.943	-0.058	0.141
-638.638	93.605	-0.051	-0.057
-637.624	1.437	-0.040	0.029
-636.609	391.550	0.071	-0.147
-635.595	-40.570	0.090	0.047
-634.580	-95.031	0.275	0.074
-633.565	800.000	0.120	-0.354
-632.551	-200.000	0.000	0.250
-631.536	-16.003	0.226	-0.143
-630.522	-200.000	0.009	0.067
-629.507	-100.115	-0.214	0.053
-628.492	645.432	0.011	-0.029
-627.478	-48.488	-0.443	-0.213
-626.463	163.619	0.095	0.133
-625.449	-60.364	0.267	0.113
-624.434	19.713	-0.251	0.201
-623.419	-200.000	-0.009	0.131
-622.405	800.000	0.079	0.331
-621.390	-111.857	-0.133	0.027
-620.376	-71.704	-0.196	-0.073
-619.361	-48.680	0.305	0.146
-618.346	136.561	0.110	0.143
-617.332	-163.757	-0.515	-0.024
-616.317	93.231	-0.164	-0.185
-615.303	321.328	0.090	-0.171
-614.288	800.000	0.049	-0.154
-613.273	-200.000	0.024	-0.265
-612.259	-200.000	0.011	-0.112
-611.244	-200.000	0.000	0.060
-610.230	282.406	-0.065	0.116
-609.215	-200.000	-0.070	0.408
-608.201	-30.623	-0.144	0.081
-607.186	-145.078	0.070	0.006
-606.171	48.970	-0.209	-0.196
-605.157	250.759	0.110	-0.187
-604.142	800.000	-0.095	-0.268
-603.128	-200.000	-0.079	-0.392
-602.113	-142.704	-0.055	0.005
-601.098	-127.707	-0.130	-0.019
-600.084	800.000	0.150	-0.427
-599.069	354.963	0.126	-0.250
-598.055	-46.094	-0.182	0.089
-597.040	-200.000	0.008	0.042
-596.025	-121.047	-0.172	0.029
-595.011	109.285	-0.175	0.209
-593.996	-145.347	-0.219	0.020
-592.982	-99.848	-0.117	0.029
-591.967	-123.387	0.114	0.018
-590.952	242.781	-0.106	-0.176
-589.938	-21.425	0.252	-0.153
-588.923	608.630	-0.014	0.036
-587.909	-130.112	-0.242	0.033
-586.894	-200.000	-0.004	0.121
-585.879	-200.000	-0.008	-0.135
-584.865	800.000	0.034	-0.140
-583.850	-28.331	-0.126	0.073
-582.836	-42.636	-0.259	0.131
-581.821	-200.000	0.032	0.155
-580.806	-25.872	0.115	0.067
-579.792	-35.415	-0.222	-0.120
-578.777	-6.459	0.215	-0.146
-577.763	-88.601	0.244	0.072
-576.748	-58.681	-0.236	0.102
-575.733	-200.000	0.014	0.229
-574.719	521.883	-0.093	0.216
-573.704	239.291	0.123	0.204
-572.690	-58.725	0.174	-0.075
-571.675	25.660	-0.122	0.101
-570.661	-51.556	0.348	0.162
-569.646	800.000	0.087	0.330
-568.631	800.000	0.043	0.180
-567.617	-200.000	0.004	0.146
-566.602	157.753	0.117	-0.161
-565.588	-151.718	0.049	-0.004
-564.573	-200.000	0.005	-0.165
-563.558	114.491	-0.325	0.394
-562.544	182.742	0.190	0.278
-561.529	108.140	0.186	-0.220
-560.515	-42.687	0.054	-0.027
-559.500	519.378	0.057	-0.133
-558.485	260.087	0.025	0.043
-557.471	-138.937	0.337	-0.036
-556.456	142.495	0.076	0.101
-555.442	750.937	0.054	0.144
-554.427	-200.000	0.095	-0.464
-553.412	67.651	-0.182	0.185
-552.398	-49.400	-0.164	0.078
-551.383	-22.185	0.214	-0.129
-550.369	539.261	0.100	-0.236
-549.354	800.000	0.048	0.195
-548.339	200.552	-0.093	-0.142
-547.325	-6.144	0.175	0.119
-546.310	111.229	-0.215	-0.257
-545.296	-108.482	0.270	-0.058
-544.281	-137.313	-0.170	-0.019
-543.266	-200.000	0.020	-0.240
-542.252	-17.907	-0.130	0.081
-541.237	-200.000	0.001	-0.071
-540.223	270.881	0.100	-0.174
-539.208	-106.107	0.227	-0.051
-538.193	221.377	-0.097	0.155
-537.179	-200.000	-0.023	-0.324
-536.164	-123.610	-0.173	0.027
-535.150	440.569	-0.160	-0.347
-534.135	800.000	-0.063	-0.182
-533.121	347.715	-0.053	-0.104
-532.106	-71.229	0.466	-0.174
-531.091	132.940	-0.159	-0.204
-530.077	-139.812	0.242	0.025
-529.062	64.394	0.071	-0.071
-528.048	231.835	0.185	-0.300
-527.033	-200.000	0.029	-0.163
-526.018	293.316	-0.144	0.261
-525.004	32.619	-0.134	0.115
-523.989	-200.000	-0.049	0.480
-522.975	3.790	-0.204	-0.148
-521.960	-200.000	0.017	-0.310
-520.945	-200.000	0.031	-0.282
-519.931	800.000	0.050	0.182
-518.916	239.388	0.149	0.247
-517.902	166.468	0.225	0.317
-516.887	274.503	-0.161	-0.283
-515.872	-127.101	-0.174	-0.025
-514.858	-18.001	0.109	0.068
-513.843	754.453	-0.119	-0.320
-512.829	44.196	-0.288	0.262
-511.814	-61.996	-0.126	-0.052
-510.799	-200.000	0.036	0.409
-509.785	-90.694	-0.219	0.063
-508.770	-200.000	0.071	-0.428
-507.756	-69.584	-0.303	0.115
-506.741	-178.354	0.226	-0.005
-505.726	265.004	-0.138	0.239
-504.712	321.619	0.037	-0.069
-503.697	10.966	-0.062	0.047
-502.683	-108.539	-0.156	0.033
-501.668	45.060	-0.216	-0.198
-500.653	83.956	0.113	-0.122
-499.639	26.848	-0.222	0.185
-498.624	23.282	-0.205	0.167
-497.610	578.025	0.068	0.165
-496.595	-3.883	0.118	0.081
-495.581	40.612	-0.150	-0.134
-494.566	668.710	0.094	-0.241
-493.551	-108.339	-0.599	-0.128
-492.537	-200.000	0.036	-0.380
-491.522	-145.932	-0.315	-0.028
-490.508	800.000	-0.063	0.207
-489.493	664.934	0.085	-0.217
-488.478	800.000	-0.058	0.202
-487.464	-46.588	0.243	-0.118
-486.449	-200.000	-0.012	-0.058
-485.435	211.625	0.101	-0.158
-484.420	3.611	0.099	0.072
-483.405	203.260	0.020	-0.030
-482.391	189.931	-0.047	0.071
-481.376	-21.746	0.188	0.114
-480.362	-200.000	-0.038	-0.243
-479.347	479.429	0.158	-0.354
-478.332	800.000	-0.127	0.394
-477.318	-49.415	0.246	0.116
-476.303	800.000	0.038	0.113
-475.289	-200.000	0.004	0.249
-474.274	800.000	0.094	-0.288
-473.259	216.723	-0.173	-0.273
-472.245	-83.406	-0.120	-0.038
-471.230	-149.455	0.175	0.014
-470.216	74.572	0.142	-0.148
-469.201	-32.655	0.267	0.147
-468.186	158.111	0.098	0.135
-467.172	-200.000	-0.017	0.108
-466.157	-79.964	0.380	-0.126
-465.143	-200.000	-0.281	0.001
-464.128	-190.044	-0.318	0.004
-463.113	-167.661	0.360	-0.014
-462.099	-200.000	-0.028	-0.265
-461.084	-200.000	0.037	-0.175
-460.070	113.106	0.098	-0.117
-459.055	-4.955	-0.270	-0.184
-458.040	-67.648	0.233	0.090
-457.026	-200.000	-0.004	0.161
-456.011	13.355	-0.110	-0.085
-454.997	13.363	0.117	0.090
-453.982	475.629	-0.040	0.089
-452.968	-121.330	0.126	0.021
-451.953	-200.000	0.015	0.113
-450.938	-200.000	-0.039	0.334
-449.924	800.000	-0.054	-0.219
-448.909	-64.673	-0.315	0.126
-447.895	-0.909	-0.254	0.178
-446.880	-87.190	-0.103	-0.031
-445.865	158.158	0.104	-0.143
-444.851	-28.705	0.255	0.145
-443.836	132.018	-0.038	0.048
-442.822	-11.962	0.200	-0.130
-441.807	-200.000	0.025	-0.116
-440.792	271.433	0.040	-0.071
-439.778	-95.528	-0.243	0.064
-438.763	82.563	0.290	0.312
-437.749	-122.032	0.393	-0.064
-436.734	117.075	0.136	-0.165
-435.719	1.271	0.054	0.038
-434.705	26.158	-0.257	-0.212
-433.690	765.933	-0.048	0.128
-432.676	194.213	-0.052	0.077
-431.661	-25.333	0.203	0.119
-430.646	800.000	-0.084	0.241
-429.632	-36.117	-0.225	-0.120
-428.617	328.513	0.118	-0.225
-427.603	-9.273	-0.064	0.043
-426.588	-55.195	-0.189	-0.084
-425.573	46.102	-0.079	-0.072
-424.559	800.000	-0.067	0.229
-423.544	50.586	-0.071	-0.066
-422.530	-42.301	-0.164	-0.083
-421.515	-25.472	-0.064	0.037
-420.500	-200.000	0.044	-0.487
-419.486	10.355	0.181	-0.136
-418.471	-200.000	-0.042	-0.309
-417.457	800.000	0.049	-0.191
-416.442	81.191	0.085	-0.091
-415.428	-127.173	-0.327	-0.047
-414.413	-108.032	0.043	-0.009
-413.398	75.858	0.376	-0.393
-412.384	95.156	0.024	-0.028
-411.369	-200.000	0.020	0.294
-410.355	-85.938	0.101	0.031
-409.340	800.000	-0.084	0.241
-408.325	92.134	0.170	-0.189
-407.311	-65.569	0.286	-0.113
-406.296	-171.000	-0.478	0.016
-405.282	-70.571	0.113	0.042
-404.267	75.807	-0.014	0.015
-403.252	37.599	-0.211	0.185
-402.238	101.444	-0.061	0.070
-401.223	-5.362	0.047	-0.032
-400.209	-200.000	0.022	0.366
-399.194	660.253	-0.043	0.108
-398.179	-30.931	0.106	-0.059
-397.165	198.183	0.030	0.045
-396.150	-200.000	0.025	-0.230
-395.136	92.046	-0.215	0.240
-394.121	-60.716	0.059	-0.025
-393.106	-0.126	-0.157	-0.110
-392.092	-192.554	-0.138	-0.001
-391.077	183.764	0.124	-0.182
-390.063	381.639	0.084	0.171
-389.048	-44.793	-0.083	0.041
-388.033	-20.603	0.319	0.194
-387.019	-200.000	-0.039	-0.348
-386.004	-97.087	-0.161	-0.041
-384.990	-132.407	0.309	-0.039
-383.975	-144.381	0.442	-0.041
-382.960	-200.000	-0.007	0.279
-381.946	800.000	-0.071	-0.267
-380.931	686.028	-0.085	0.220
-379.917	342.114	-0.021	-0.041
-378.902	102.286	-0.095	0.109
-377.888	622.575	-0.097	-0.240
-376.873	18.772	-0.201	-0.159
-375.858	63.526	-0.183	0.182
-374.844	-64.914	-0.113	-0.045
-373.829	-200.000	0.074	-0.408
-372.815	-200.000	0.005	0.134
-371.800	58.134	-0.285	0.276
-370.785	-200.000	-0.080	-0.346
-369.771	-200.000	-0.011	-0.228
-368.756	-31.909	0.214	0.118
-367.742	-58.058	0.240	0.103
-366.727	-18.130	-0.115	-0.071
-365.712	800.000	0.087	-0.357
-364.698	-17.681	-0.057	0.036
-363.683	544.319	0.048	0.114
-362.669	-200.000	0.028	-0.351
-361.654	656.690	-0.219	0.556
-360.639	-156.713	-0.178	-0.011
-359.625	-200.000	-0.016	-0.277
-358.610	-59.441	0.257	-0.109
-357.596	263.836	0.092	-0.158
-356.581	-200.000	0.008	-0.080
-355.566	-200.000	-0.038	0.374
-354.552	721.920	-0.107	-0.280
-353.537	-105.730	-0.107	-0.024
-352.523	487.167	-0.105	0.235
-351.508	45.573	0.192	0.175
-350.493	-200.000	0.025	-0.345
-349.479	800.000	-0.066	-0.224
-348.464	142.422	0.139	-0.182
-347.450	-81.250	-0.060	-0.020
-346.435	800.000	-0.106	0.301
-345.420	-77.431	-0.312	0.107
-344.406	800.000	0.036	-0.103
-343.391	-200.000	0.017	-0.232
-342.377	-30.279	0.137	-0.077
-341.362	-87.396	0.204	-0.061
-340.348	800.000	-0.102	-0.301
-339.333	-200.000	-0.002	-0.052
-338.318	-200.000	0.049	0.251
-337.304	197.187	-0.049	0.074
-336.289	273.479	-0.116	0.202
-335.275	215.342	-0.074	-0.116
-334.260	221.849	0.065	0.103
-333.245	38.543	-0.214	0.188
-332.231	568.246	-0.152	0.364
-331.216	120.282	-0.230	-0.281
-330.202	383.237	0.115	-0.234
-329.187	-200.000	0.001	0.342
-328.172	-7.610	-0.198	-0.132
-327.158	-40.611	-0.127	0.065
-326.143	345.197	0.094	0.182
-325.129	-55.701	0.164	-0.072
-324.114	134.035	0.161	-0.205
-323.099	-200.000	0.004	-0.229
-322.085	-200.000	-0.001	-0.274
-321.070	-106.002	0.218	0.048
-320.056	-25.422	0.173	0.101
-319.041	199.061	-0.122	-0.184
-318.026	90.654	0.039	-0.043
-317.012	31.716	-0.197	0.167
-315.997	800.000	0.031	-0.128
-314.983	-135.844	0.330	-0.038
-313.968	800.000	-0.094	-0.292
-312.953	800.000	0.015	0.060
-311.939	-85.369	-0.265	0.081
-310.924	20.682	0.124	0.099
-309.910	-200.000	-0.042	0.231
-308.895	268.008	-0.117	0.202
-307.880	434.313	0.066	0.141
-306.866	-174.321	-0.519	-0.015
-305.851	800.000	0.083	0.273
-304.837	-33.333	-0.169	0.092
-303.822	-76.798	-0.445	0.153
-302.807	111.447	0.115	-0.136
-301.793	-50.182	0.157	0.073
-300.778	-200.000	-0.045	-0.315
-299.764	-48.644	0.171	0.081
-298.749	10.956	0.154	0.116
-297.735	-110.884	0.055	0.011
-296.720	359.484	-0.160	-0.316
-295.705	800.000	-0.077	0.260
-294.691	41.564	0.328	-0.292
-293.676	-45.294	-0.124	-0.061
-292.662	-65.052	0.052	-0.021
-291.647	-47.895	0.177	-0.084
-290.632	39.953	-0.238	0.210
-289.618	-200.000	0.029	-0.182
-288.603	728.012	-0.051	0.133
-287.589	64.260	0.112	0.111
-286.574	800.000	0.062	0.210
-285.559	48.733	0.284	0.262
-284.545	-37.329	-0.317	0.166
-283.530	-81.404	0.060	-0.019
-282.516	-200.000	0.009	-0.187
-281.501	98.646	-0.120	-0.136
-280.486	373.536	-0.056	-0.112
-279.472	-98.969	-0.209	0.052
-278.457	81.937	0.111	0.118
-277.443	-186.956	-0.346	0.005
-276.428	78.564	-0.193	-0.203
-275.413	36.990	-0.148	0.129
-274.399	11.468	0.510	0.384
-273.384	-169.361	-0.112	-0.004
-272.370	-200.000	0.043	-0.291
-271.355	-200.000	-0.030	0.192
-270.340	68.040	0.119	0.119
-269.326	-123.423	0.408	-0.064
-268.311	42.262	0.308	0.275
-267.297	-200.000	-0.051	0.233
-266.282	800.000	-0.066	-0.268
-265.267	384.462	0.009	0.019
-264.253	9.440	0.051	0.038
-263.238	10.524	0.160	0.120
-262.224	-26.701	-0.134	-0.077
-261.209	-24.560	-0.192	-0.112
-260.195	41.565	-0.056	0.050
-259.180	800.000	-0.009	0.027
-258.165	-112.301	-0.083	0.016
-257.151	150.023	-0.052	-0.069
-256.136	771.743	0.128	-0.343
-255.122	-135.833	0.087	0.010
-254.107	-28.221	0.378	0.214
-253.092	-21.514	-0.261	-0.156
-252.078	-58.958	0.089	-0.038
-251.063	-134.356	-0.079	-0.010
-250.049	800.000	0.067	0.196
-249.034	-47.616	0.130	-0.062
-248.019	262.986	0.050	0.086
-247.005	133.230	-0.109	0.138
-245.990	-42.742	-0.259	-0.129
-244.976	-69.628	-0.221	0.083
-243.961	44.420	0.265	-0.239
-242.946	181.487	0.093	-0.135
-241.932	-91.382	0.104	0.029
-240.917	281.785	-0.031	-0.055
-239.903	129.627	-0.068	0.085
-238.888	-200.000	-0.066	0.489
-237.873	-2.725	0.225	0.155
-236.859	-25.300	0.459	0.267
-235.844	-59.839	-0.407	-0.171
-234.830	292.836	0.093	0.167
-233.815	60.214	0.118	0.115
-232.800	645.869	0.094	0.235
-231.786	-113.775	-0.220	0.042
-230.771	-75.664	-0.139	-0.049
-229.757	-200.000	0.044	-0.295
-228.742	-139.259	0.163	-0.017
-227.727	133.320	-0.151	0.192
-226.713	-44.319	-0.244	-0.120
-225.698	-70.526	0.124	-0.046
-224.684	800.000	-0.069	-0.251
-223.669	800.000	-0.101	0.338
-222.655	-62.537	0.190	-0.077
-221.640	91.899	0.082	-0.091
-220.625	-200.000	-0.009	0.285
-219.611	315.370	0.031	-0.057
-218.596	-84.074	-0.064	-0.020
-217.582	-25.740	0.177	0.102
-216.567	-133.105	0.084	-0.010
-215.552	-53.666	-0.176	-0.079
-214.538	-98.029	-0.207	-0.052
-213.523	81.348	-0.144	0.153
-212.509	800.000	0.028	0.115
-211.494	-200.000	0.062	-0.435
-210.479	-75.882	0.296	-0.103
-209.465	-27.260	-0.133	-0.076
-208.450	74.575	0.043	-0.045
-207.436	-124.491	0.215	0.033
-206.421	-200.000	-0.006	0.250
-205.406	18.126	-0.079	-0.062
-204.392	17.814	-0.251	0.196
-203.377	-200.000	0.013	0.234
-202.363	-200.000	-0.033	-0.163
-201.348	215.009	0.069	-0.108
-200.333	-200.000	0.068	-0.384
-199.319	800.000	0.095	0.297
-198.304	328.308	-0.101	-0.191
-197.290	113.394	0.080	-0.096
-196.275	410.101	-0.037	-0.078
-195.260	740.478	0.214	0.562
-194.246	176.754	-0.066	0.093
-193.231	-200.000	-0.052	0.350
-192.217	272.795	0.232	-0.401
-191.202	589.504	0.142	-0.343
-190.187	1.591	0.105	0.074
-189.173	-84.984	0.357	0.110
-188.158	-35.664	-0.229	-0.122
-187.144	-43.853	-0.162	-0.080
-186.129	10.865	0.299	-0.223
-185.114	800.000	0.139	0.385
-184.100	-44.575	0.319	0.156
-183.085	50.269	0.311	-0.288
-182.071	800.000	0.051	0.193
-181.056	-55.473	0.118	0.052
-180.042	22.854	-0.165	0.132
-179.027	480.627	-0.019	-0.043
-178.012	-200.000	-0.046	-0.395
-176.998	122.472	0.188	0.231
-175.983	-41.962	-0.207	-0.104
-174.969	-154.555	0.287	0.019
-173.954	123.881	-0.066	0.081
-172.939	479.349	-0.043	0.095
-171.925	-25.628	0.335	0.193
-170.910	520.844	0.152	0.348
-169.896	-59.573	0.163	-0.069
-168.881	116.149	-0.192	-0.231
-167.866	13.144	0.207	0.157
-166.852	-61.682	0.189	0.078
-165.837	-17.814	0.230	-0.141
-164.823	-43.797	0.082	0.040
-163.808	8.692	0.225	0.166
-162.793	2.437	-0.369	-0.261
-161.779	-183.505	-0.318	-0.005
-160.764	800.000	0.049	-0.163
-159.750	129.041	-0.153	0.191
-158.735	-86.535	-0.206	0.062
-157.720	-168.007	0.193	0.007
-156.706	-200.000	-0.021	0.182
-155.691	407.232	-0.061	0.127
-154.677	536.867	-0.061	0.141
-153.662	195.087	-0.110	0.163
-152.647	-200.000	0.002	0.261
-151.633	13.258	-0.024	-0.018
-150.618	394.608	-0.107	0.218
-149.604	-152.734	0.359	-0.025
-148.589	48.992	0.139	-0.128
-147.574	-143.198	0.294	0.028
-146.560	335.254	-0.143	0.270
-145.545	76.610	0.172	-0.178
-144.531	724.411	-0.091	0.237
-143.516	-95.042	-0.304	-0.080
-142.502	-151.956	0.475	-0.034
-141.487	-147.393	0.102	0.008
-140.472	-106.206	-0.010	-0.002
-139.458	-200.000	0.002	-0.219
-138.443	-200.000	0.006	-0.140
-137.429	125.853	-0.049	0.061
-136.414	31.311	0.150	0.126
-135.399	31.534	0.232	-0.195
-134.385	-124.607	0.061	0.009
-133.370	-142.249	0.409	0.040
-132.356	-37.414	0.163	0.085
-131.341	156.701	0.114	-0.154
-130.326	-116.289	0.137	0.025
-129.312	310.779	-0.233	-0.427
-128.297	-200.000	0.012	0.270
-127.283	800.000	0.090	0.340
-126.268	656.063	0.063	-0.158
-125.253	5.593	0.104	-0.075
-124.239	-101.371	-0.172	0.041
-123.224	-200.000	-0.010	-0.073
-122.210	56.429	0.375	0.357
-121.195	800.000	0.059	0.171
-120.180	61.298	-0.234	-0.228
-119.166	-200.000	0.005	-0.254
-118.151	-118.654	0.014	-0.002
-117.137	124.118	-0.179	-0.219
-116.122	221.694	0.124	0.194
-115.107	-130.050	0.228	-0.030
-114.093	110.621	0.108	0.126
-113.078	-99.668	0.204	-0.050
-112.064	457.408	-0.103	-0.223
-111.049	-200.000	0.022	0.203
-110.034	800.000	-0.079	-0.281
-109.020	-15.558	0.222	0.138
-108.005	301.764	-0.131	0.237
-106.991	-33.092	0.275	-0.149
-105.976	46.717	-0.065	0.059
-104.962	-15.150	-0.104	-0.065
-103.947	726.677	0.025	0.064
-102.932	-200.000	-0.012	-0.284
-101.918	-64.813	0.397	0.157
-100.903	-162.667	0.304	-0.015
-99.889	322.677	-0.086	0.160
-98.874	270.758	-0.106	0.182
-97.859	-68.713	0.437	0.165
-96.845	89.527	0.219	-0.238
-95.830	-105.026	-0.408	0.091
-94.816	-168.977	0.267	0.010
-93.801	-113.336	0.084	0.016
-92.786	116.435	0.121	-0.145
-91.772	-19.822	0.199	-0.120
-90.757	-91.917	0.075	0.021
-89.743	3.908	-0.261	-0.186
-88.728	-65.352	-0.192	-0.075
-87.713	-138.997	-0.142	-0.015
-86.699	-19.491	0.193	-0.117
-85.684	-29.573	-0.147	-0.082
-84.670	-50.610	-0.124	0.057
-83.655	145.333	-0.006	-0.008
-82.640	-200.000	-0.025	0.231
-81.626	84.000	0.072	0.076
-80.611	0.212	0.156	-0.109
-79.597	16.590	0.178	-0.138
-78.582	-43.752	-0.124	0.061
-77.567	-32.028	-0.043	-0.024
-76.553	178.591	-0.096	-0.137
-75.538	90.507	0.214	-0.234
-74.524	-43.672	-0.165	-0.081
-73.509	-97.585	-0.165	-0.042
-72.494	-57.052	0.367	0.158
-71.480	-69.774	0.377	0.140
-70.465	634.234	-0.105	0.260
-69.451	126.592	0.197	0.243
-68.436	-110.840	0.363	-0.073
-67.422	-200.000	0.016	0.110
-66.407	152.251	-0.132	-0.176
-65.392	-13.966	-0.178	-0.112
-64.378	253.549	-0.116	0.193
-63.363	800.000	-0.018	0.062
-62.349	555.164	0.150	0.352
-61.334	1.833	-1.396	-0.981
-60.319	-31.064	0.979	0.538
-59.305	800.000	-0.374	-1.168
-58.290	254.377	0.998	1.664
-57.276	800.000	0.510	1.581
-56.261	-200.000	135.302	629.236
-55.246	345.528	1632.391	3126.075
-54.232	138.068	2766.965	3535.309
-53.217	82.191	2151.853	2274.102
-52.203	29.738	1589.461	1318.874
-51.188	22.199	1341.811	1067.745
-50.173	20.368	1307.374	1029.451
-49.159	47.451	1382.246	1255.442
-48.144	42.584	1391.216	1233.752
-47.130	22.269	1339.313	1066.012
-46.115	19.234	1320.864	1033.114
-45.100	19.184	1315.305	1028.426
-44.086	19.143	1312.601	1026.029
-43.071	18.957	1310.929	1023.573
-42.057	19.028	1308.493	1022.047
-41.042	19.071	1307.002	1021.102
-40.027	19.223	1305.129	1020.498
-39.013	19.207	1302.677	1018.447
-37.998	19.136	1301.527	1017.085
-36.984	19.115	1299.658	1015.460
-35.969	19.128	1297.995	1014.195
-34.954	19.197	1296.266	1013.211
-33.940	19.130	1295.285	1012.010
-32.925	19.256	1293.577	1011.379
-31.911	19.267	1291.834	1010.036
-30.896	19.307	1290.769	1009.402
-29.881	19.242	1289.439	1007.937
-28.867	19.305	1287.833	1007.010
-27.852	19.285	1286.411	1005.741
-26.838	19.236	1285.688	1004.855
-25.823	19.218	1283.856	1003.278
-24.809	19.226	1282.726	1002.402
-23.794	19.115	1281.845	1001.028
-22.779	19.250	1279.831	1000.198
-21.765	19.263	1278.955	999.551
-20.750	19.308	1277.401	998.552
-19.736	19.122	1276.341	996.613
-18.721	19.080	1275.176	995.418
-17.706	19.101	1273.346	994.070
-16.692	19.099	1272.981	993.737
-15.677	19.027	1271.928	992.460
-14.663	19.129	1270.384	991.803
-13.648	19.142	1269.243	990.947
-12.633	19.087	1268.434	989.957
-11.619	19.053	1267.778	989.215
-10.604	19.145	1266.918	989.030
-9.590	19.057	1266.304	988.009
-8.575	19.021	1265.553	987.173
-7.560	19.045	1264.348	986.331
-6.546	19.129	1262.899	985.645
-5.531	19.092	1262.308	984.932
-4.517	19.135	1261.388	984.424
-3.502	19.126	1260.659	983.762
-2.487	19.100	1259.911	982.992
-1.473	19.040	1255.369	979.066
-0.458	17.385	1240.188	957.880
0.556	13.051	1224.936	921.527
1.571	9.566	1233.004	907.901
2.586	9.014	1248.422	916.020
3.600	9.142	1236.187	907.689
4.615	7.011	1164.737	843.790
5.629	2.703	1097.254	773.147
6.644	0.700	1082.188	752.497
7.659	0.545	1080.129	750.232
8.673	0.472	1079.548	749.398
9.688	0.603	1078.126	748.995
10.702	0.802	1075.345	747.981
11.717	3.421	1077.425	762.327
12.731	9.380	1085.621	797.678
13.746	15.039	1093.270	831.414
14.761	17.142	1095.762	843.694
15.775	16.454	1094.495	839.228
16.790	15.468	1092.211	832.515
17.804	14.808	1090.658	827.990
18.819	14.523	1089.543	825.655
19.834	14.417	1088.407	824.197
20.848	14.019	1087.994	821.847
21.863	13.803	1087.101	820.029
22.877	13.655	1085.966	818.370
23.892	13.575	1085.668	817.682
24.907	13.625	1084.720	817.139
25.921	13.648	1084.209	816.796
26.936	13.645	1083.256	815.991
27.950	13.628	1081.773	814.718
28.965	13.830	1080.722	814.846
29.980	13.776	1079.627	813.685
30.994	13.931	1078.264	813.342
32.009	13.829	1077.114	811.907
33.023	13.798	1076.534	811.247
34.038	13.916	1075.434	810.918
35.053	13.819	1074.272	809.497
36.067	13.793	1073.662	808.841
37.082	13.877	1072.574	808.361
38.096	14.015	1071.890	808.445
39.111	13.786	1071.274	806.796
40.126	13.750	1070.145	805.699
41.140	13.655	1069.051	804.344
42.155	13.695	1067.989	803.664
43.169	13.629	1066.701	802.306
44.184	13.652	1065.376	801.350
45.199	13.652	1064.900	800.922
46.213	13.558	1063.849	799.607
47.228	13.651	1062.747	799.152
48.242	13.736	1061.243	798.363
49.257	13.859	1059.954	797.914
50.271	13.850	1059.291	797.298
51.286	13.747	1058.534	796.165
52.301	13.844	1057.454	795.750
53.315	13.677	1056.534	794.183
54.330	13.666	1055.289	793.128
55.344	13.635	1054.368	792.214
56.359	13.743	1053.526	792.030
57.374	13.667	1052.653	790.940
58.388	13.599	1051.852	789.946
59.403	13.503	1051.310	789.009
60.417	13.665	1049.963	788.699
61.432	13.642	1049.123	787.889
62.447	13.563	1048.712	787.137
63.461	13.450	1048.013	786.005
64.476	13.500	1046.669	785.165
65.490	13.464	1046.528	784.817
66.505	13.603	1045.318	784.501
67.520	13.628	1044.404	783.862
68.534	13.513	1044.267	783.149
69.549	13.635	1042.967	782.679
70.563	13.515	1042.634	781.794
71.578	13.654	1041.320	781.395
72.593	13.513	1040.646	780.152
73.607	13.452	1040.082	779.374
74.622	13.575	1039.461	779.420
75.636	13.430	1038.926	778.268
76.651	13.416	1038.097	777.514
77.666	13.529	1037.424	777.470
78.680	13.541	1036.538	776.796
79.695	13.471	1036.007	775.998
80.709	13.585	1035.307	775.939
81.724	13.622	1034.682	775.579
82.739	13.674	1033.694	775.008
83.753	13.751	1033.062	774.827
84.768	13.818	1031.707	774.055
85.782	13.734	1031.058	773.109
86.797	13.746	1029.969	772.280
87.812	13.733	1029.232	771.596
88.826	13.828	1028.236	771.226
89.841	13.711	1027.325	769.930
90.855	13.856	1026.127	769.636
91.870	13.777	1025.574	768.785
92.884	13.653	1025.051	767.750
93.899	13.797	1023.733	767.363
94.914	13.927	1022.813	767.206
95.928	13.843	1022.449	766.478
96.943	13.794	1021.797	765.697
97.957	13.848	1020.687	765.042
98.972	13.850	1019.820	764.338
99.987	13.807	1018.717	763.246
101.001	13.901	1017.771	762.900
102.016	13.808	1017.267	762.026
103.030	13.805	1016.743	761.552
104.045	13.779	1015.815	760.673
105.060	13.769	1014.934	759.901
106.074	13.767	1013.894	759.044
107.089	13.788	1012.767	758.231
108.103	13.716	1011.915	757.194
109.118	13.691	1010.971	756.307
110.133	13.709	1010.306	755.825
111.147	13.725	1009.239	755.033
112.162	13.781	1008.448	754.627
113.176	13.780	1007.538	753.880
114.191	13.715	1007.290	753.331
115.206	13.801	1006.002	752.690
116.220	13.772	1005.364	752.013
117.235	13.806	1004.035	751.109
118.249	13.802	1003.512	750.631
119.264	13.746	1002.865	749.828
120.279	13.718	1001.745	748.801
121.293	13.695	1001.597	748.518
122.308	13.784	1000.319	747.898
123.322	13.759	999.198	746.881
124.337	13.786	997.679	745.802
125.352	13.643	996.872	744.490
126.366	13.715	996.014	744.106
127.381	13.648	994.964	742.955
128.395	13.709	994.061	742.490
129.410	13.722	992.855	741.579
130.424	13.730	992.046	740.945
131.439	13.643	991.633	740.184
132.454	13.748	990.537	739.766
133.468	13.780	989.578	739.131
134.483	13.808	988.975	738.736
135.497	13.790	987.835	737.741
136.512	13.872	986.593	737.111
137.527	13.789	986.386	736.525
138.541	13.805	985.547	735.904
139.556	13.853	984.822	735.509
140.570	13.856	984.195	734.989
141.585	13.905	983.055	734.290
142.600	13.836	982.135	733.231
143.614	13.915	981.387	732.957
144.629	13.866	980.904	732.318
145.643	13.981	979.956	732.050
146.658	13.990	978.540	730.967
147.673	13.896	977.720	729.879
148.687	13.812	977.361	729.176
149.702	13.971	976.147	728.905
150.716	13.938	975.468	728.189
151.731	13.891	974.847	727.454
152.746	13.984	974.222	727.328
153.760	13.941	973.606	726.617
154.775	13.934	972.886	725.985
155.789	14.030	971.834	725.553
156.804	14.085	970.801	724.959
157.819	14.078	971.135	725.115
158.833	14.074	970.225	724.352
159.848	14.266	968.679	723.970
160.862	14.201	968.046	723.152
161.877	14.022	967.160	721.648
162.892	13.973	966.201	720.654
163.906	14.099	965.705	720.766
164.921	14.015	964.757	719.634
165.935	14.068	963.691	719.001
166.950	14.017	963.247	718.388
167.964	14.214	961.702	718.020
168.979	14.099	961.197	717.084
169.994	14.057	960.268	716.147
171.008	14.111	959.310	715.602
172.023	14.215	958.803	715.608
173.037	14.223	957.954	714.947
174.052	14.349	957.109	714.792
175.067	14.198	956.574	713.682
176.081	14.272	956.373	713.786
177.096	14.139	955.612	712.588
178.110	14.324	954.993	712.854
179.125	14.233	954.366	711.932
180.140	14.142	954.090	711.276
181.154	14.303	953.226	711.253
182.169	14.311	952.869	710.961
183.183	14.450	952.100	710.918
184.198	14.416	950.930	709.835
185.213	14.307	950.684	709.126
186.227	14.377	949.897	708.773
187.242	14.370	949.637	708.485
188.256	14.425	948.600	707.881
189.271	14.464	948.042	707.571
190.286	14.343	947.237	706.392
191.300	14.158	946.615	705.084
192.315	14.190	945.587	704.388
193.329	14.301	945.054	704.400
194.344	14.338	944.521	704.095
195.359	14.341	944.246	703.843
196.373	14.403	943.201	703.262
197.388	14.347	942.797	702.664
198.402	14.539	942.414	703.125
199.417	14.519	941.947	702.631
200.432	14.628	940.996	702.319
201.446	14.750	940.192	702.166
202.461	14.717	939.803	701.678
203.475	14.741	939.257	701.306
204.490	14.681	938.219	700.221
205.504	14.611	937.465	699.300
206.519	14.665	936.952	699.083
207.534	14.581	936.564	698.379
208.548	14.717	935.704	698.243
209.563	14.627	935.463	697.626
210.577	14.597	934.932	697.045
211.592	14.684	933.508	696.285
212.607	14.777	932.750	696.044
213.621	14.708	931.852	695.027
214.636	14.669	931.552	694.577
215.650	14.784	930.520	694.226
216.665	14.850	929.736	693.852
217.680	14.874	929.127	693.437
218.694	15.022	928.168	693.273
219.709	14.806	927.881	692.101
220.723	14.881	927.286	691.905
221.738	14.817	926.707	691.150
222.753	14.886	926.105	690.922
223.767	14.952	925.090	690.377
224.782	15.098	924.189	690.248
225.796	15.099	923.996	690.046
226.811	15.039	923.303	689.220
227.826	15.029	922.404	688.447
228.840	14.957	922.159	687.906
229.855	15.014	921.261	687.412
230.869	15.091	920.136	686.825
231.884	14.993	919.605	685.969
232.899	14.995	918.819	685.328
233.913	15.023	918.525	685.161
234.928	14.966	918.022	684.495
235.942	14.978	917.347	683.980
236.957	14.968	916.875	683.525
237.972	14.993	915.926	682.861
238.986	15.024	915.210	682.394
240.001	15.087	914.468	682.035
241.015	15.052	913.731	681.284
242.030	15.166	912.852	681.032
243.045	15.227	912.552	680.993
244.059	15.141	911.576	679.856
245.074	15.141	911.516	679.754
246.088	15.185	910.811	679.345
247.103	15.188	909.991	678.685
248.117	15.219	909.633	678.484
249.132	15.228	908.755	677.805
250.147	15.374	908.217	677.934
251.161	15.303	907.494	677.047
252.176	15.445	906.762	677.013
253.190	15.503	906.054	676.658
254.205	15.434	905.698	676.054
255.220	15.581	905.014	676.076
256.234	15.453	904.381	675.031
257.249	15.528	903.172	674.367
258.263	15.425	903.045	673.799
259.278	15.488	901.976	673.195
260.293	15.603	901.712	673.401
261.307	15.651	900.912	672.933
262.322	15.672	900.133	672.378
263.336	15.681	899.434	671.832
264.351	15.601	898.759	670.951
265.366	15.699	898.442	671.045
266.380	15.675	897.627	670.279
267.395	15.587	897.157	669.519
268.409	15.581	896.259	668.765
269.424	15.629	895.515	668.345
270.439	15.728	894.577	667.977
271.453	15.537	894.269	666.932
272.468	15.732	893.436	667.022
273.482	15.792	892.631	666.601
274.497	15.796	892.353	666.350
275.512	15.665	891.913	665.444
276.526	15.627	891.550	664.964
277.541	15.622	891.203	664.627
278.555	15.778	890.271	664.490
279.570	15.889	889.353	664.181
280.585	15.945	888.131	663.433
281.599	15.896	887.747	662.895
282.614	15.813	887.182	662.086
283.628	15.807	886.570	661.546
284.643	15.989	885.786	661.619
285.657	15.963	885.136	660.974
286.672	15.920	884.819	660.507
287.687	15.974	884.109	660.132
288.701	15.913	883.531	659.402
289.716	15.926	883.029	659.020
290.730	15.945	882.320	658.507
291.745	16.055	881.976	658.623
292.760	16.062	881.136	657.964
293.774	16.272	880.078	657.936
294.789	16.279	879.371	657.375
295.803	16.133	878.894	656.392
296.818	16.010	878.515	655.573
297.833	16.197	877.873	655.763
298.847	15.873	877.272	653.997
299.862	16.102	876.507	654.259
300.876	16.166	876.133	654.169
301.891	16.157	875.240	653.410
302.906	16.370	874.447	653.585
303.920	16.376	874.041	653.245
304.935	16.443	873.614	653.127
305.949	16.345	872.845	652.114
306.964	16.322	872.261	651.535
307.979	16.367	871.728	651.253
308.993	16.246	871.370	650.458
310.008	16.358	870.467	650.160
311.022	16.253	870.251	649.535
312.037	16.345	869.436	649.223
313.052	16.329	868.951	648.744
314.066	16.367	868.476	648.477
315.081	16.312	867.676	647.612
316.095	16.416	867.103	647.524
317.110	16.379	866.737	647.053
318.125	16.495	865.880	646.801
319.139	16.320	865.900	646.086
320.154	16.432	865.321	646.028
321.168	16.416	864.801	645.519
322.183	16.451	863.892	644.917
323.197	16.418	863.435	644.393
324.212	16.455	862.841	644.033
325.227	16.446	862.307	643.546
326.241	16.541	861.546	643.279
327.256	16.480	861.084	642.646
328.270	16.412	860.742	642.076
329.285	16.546	859.909	641.907
330.300	16.495	859.546	641.385
331.314	16.514	859.180	641.130
332.329	16.658	858.285	640.949
333.343	16.591	858.131	640.522
334.358	16.690	857.420	640.311
335.373	16.549	857.072	639.461
336.387	16.515	857.173	639.353
337.402	16.696	857.014	639.859
338.416	16.701	856.405	639.369
339.431	16.716	856.031	639.091
340.446	16.849	855.508	639.145
341.460	16.823	855.008	638.617
342.475	16.859	854.378	638.224
343.489	16.857	853.956	637.845
344.504	16.893	853.420	637.524
345.519	16.844	853.226	637.138
346.533	16.983	852.792	637.280
347.548	16.832	852.170	636.190
348.562	16.799	851.226	635.307
349.577	16.854	850.724	635.080
350.592	16.963	850.002	634.897
351.606	16.777	849.476	633.749
352.621	16.930	848.622	633.627
353.635	16.930	848.263	633.304
354.650	16.961	847.100	632.497
355.665	16.948	846.727	632.111
356.679	17.065	846.148	632.058
357.694	17.020	845.479	631.336
358.708	16.956	845.124	630.779
359.723	16.980	844.386	630.259
360.738	17.132	843.825	630.349
361.752	17.129	843.031	629.689
362.767	17.250	842.413	629.623
363.781	17.336	842.107	629.656
364.796	17.260	841.017	628.505
365.810	17.173	841.217	628.274
366.825	17.196	840.903	628.071
367.840	17.273	840.594	628.069
368.854	17.188	840.172	627.383
369.869	17.281	839.332	627.043
370.883	17.282	839.106	626.823
371.898	17.224	838.895	626.395
372.913	17.268	838.803	626.434
373.927	17.175	837.844	625.321
374.942	17.390	837.078	625.486
375.956	17.424	836.763	625.320
376.971	17.526	836.330	625.316
377.986	17.528	835.819	624.885
379.000	17.523	835.240	624.377
380.015	17.406	835.077	623.772
381.029	17.546	834.225	623.592
382.044	17.642	833.580	623.408
383.059	17.488	833.143	622.460
384.073	17.468	832.721	622.020
385.088	17.456	832.062	621.427
386.102	17.476	831.210	620.807
387.117	17.304	831.192	620.112
388.132	17.424	830.408	619.909
389.146	17.505	829.716	619.635
390.161	17.614	829.401	619.739
391.175	17.593	828.797	619.159
392.190	17.456	828.517	618.398
393.205	17.563	827.893	618.262
394.219	17.668	827.520	618.312
395.234	17.652	827.168	617.936
396.248	17.667	826.711	617.595
397.263	17.612	826.136	616.912
398.278	17.664	825.921	616.883
399.292	17.709	825.271	616.507
400.307	17.628	824.611	615.666
401.321	17.659	824.656	615.757
402.336	17.674	823.813	615.128
403.350	17.712	823.803	615.204
404.365	17.873	823.173	615.257
405.380	17.712	822.690	614.262
406.394	17.826	822.162	614.224
407.409	17.905	821.495	613.956
408.423	17.979	820.974	613.777
409.438	17.899	820.978	613.441
410.453	17.912	820.437	613.027
411.467	17.909	819.932	612.587
412.482	18.064	819.474	612.744
413.496	17.990	819.213	612.231
414.511	18.039	818.926	612.136
415.526	18.079	818.353	611.798
416.540	18.105	818.024	611.592
417.555	18.126	817.237	611.022
418.569	18.000	817.073	610.395
419.584	18.062	816.441	610.091
420.599	18.054	816.102	609.756
421.613	115.917	1301.243	1492.374
422.628	100.463	1371.899	1492.421
