DTS Sentinel unit serial number:	SN413079Multiplexer serial number:	ORYXHardware model number:	OX4-SRSoftware version number:	ORYX F/W v4.00 Oryx Data Collector v3.7.2.0data status	okinstallation	princeton_trtdifferential loss correction	single-endedforward channel	channel 1reverse channel	N/Adate	2019/09/12time	09:32:11forward acquisition time	60.00reverse acquisition time	0.00gamma	496.2192k internal	0.2301k external	0.2301temperature offset calibration	1.0045default loss term (dB/km)	0.3790temperature slope calibration	1.0000multiplexer offset coefficient	1.0000multiplexer slope coefficient	1.0000fibre end	0.00T internal ref (°C)	35.56T ext. ref 1 (°C)	1.83T ext. ref 2 (°C)	32.82length (m)	temperature (°C)	Stokes	anti-Stokes-747.200	135.674	-0.204	0.270
-746.185	109.243	-0.300	0.366
-745.171	-59.914	0.371	-0.162
-744.156	-200.000	0.008	0.142
-743.142	-200.000	0.020	0.303
-742.127	-172.010	-0.205	0.007
-741.112	19.206	-0.075	-0.061
-740.098	800.000	0.065	0.234
-739.083	-106.977	-0.159	0.036
-738.069	-83.355	0.246	-0.080
-737.054	-64.496	-0.354	-0.147
-736.039	-73.532	-0.075	0.028
-735.025	-9.494	0.183	0.124
-734.010	34.069	-0.122	-0.108
-732.996	799.210	0.048	0.136
-731.981	-200.000	0.009	0.217
-730.966	-10.683	-0.120	0.081
-729.952	800.000	-0.095	-0.368
-728.937	74.129	0.120	-0.129
-727.923	-49.345	-0.149	-0.072
-726.908	431.976	-0.075	-0.165
-725.894	453.687	0.122	0.274
-724.879	155.075	0.211	-0.296
-723.864	800.000	0.078	-0.275
-722.850	-200.000	-0.007	0.133
-721.835	19.899	0.225	-0.185
-720.821	610.419	0.036	-0.091
-719.806	562.531	-0.083	0.204
-718.791	-51.988	-0.219	0.103
-717.777	-115.811	0.091	0.017
-716.762	199.774	-0.155	-0.242
-715.748	800.000	-0.039	-0.157
-714.733	-200.000	0.022	0.211
-713.718	11.926	-0.161	-0.126
-712.704	-153.459	-0.196	-0.014
-711.689	260.566	0.097	-0.172
-710.675	-200.000	0.026	-0.391
-709.660	-4.773	-0.056	-0.040
-708.645	-131.846	-0.295	0.039
-707.631	-100.441	0.020	0.005
-706.616	-74.921	-0.312	-0.114
-705.602	-6.400	0.284	0.197
-704.587	160.952	-0.034	0.049
-703.572	-151.116	-0.190	0.015
-702.558	-19.678	0.160	0.101
-701.543	-64.790	-0.126	0.052
-700.529	319.959	0.139	-0.269
-699.514	-60.398	-0.271	-0.117
-698.499	-148.769	0.241	-0.020
-697.485	-200.000	0.036	0.216
-696.470	-66.698	-0.190	-0.076
-695.456	185.720	0.052	-0.078
-694.441	-200.000	-0.002	-0.087
-693.426	800.000	0.073	-0.209
-692.412	800.000	-0.050	0.166
-691.397	208.116	0.304	-0.483
-690.383	-151.434	0.086	0.007
-689.368	141.426	-0.081	-0.110
-688.354	-200.000	-0.002	0.056
-687.339	8.053	-0.301	-0.230
-686.324	-200.000	0.009	0.179
-685.310	-200.000	-0.009	0.340
-684.295	71.501	0.062	-0.065
-683.281	-39.871	0.303	0.161
-682.266	123.111	0.110	0.140
-681.251	274.981	-0.122	0.220
-680.237	-92.642	-0.260	-0.074
-679.222	39.289	0.053	0.048
-678.208	550.242	-0.048	-0.118
-677.193	2.082	0.135	-0.099
-676.178	8.645	0.145	-0.111
-675.164	-136.284	0.172	0.020
-674.149	246.737	0.006	-0.010
-673.135	-176.618	-0.093	-0.002
-672.120	-200.000	-0.001	0.150
-671.105	-10.820	0.128	-0.086
-670.091	96.684	0.173	-0.201
-669.076	-43.270	0.320	-0.165
-668.062	-180.241	-0.291	0.006
-667.047	131.124	0.219	-0.285
-666.032	115.108	-0.153	0.190
-665.018	114.329	0.175	0.217
-664.003	-200.000	-0.026	0.178
-662.989	-64.867	0.241	-0.099
-661.974	-42.208	-0.469	-0.243
-660.959	800.000	-0.072	-0.264
-659.945	-64.834	-0.261	-0.107
-658.930	-200.000	0.032	0.152
-657.916	-96.440	-0.343	-0.092
-656.901	4.472	-0.251	-0.187
-655.886	68.477	-0.163	0.170
-654.872	-56.844	-0.178	-0.080
-653.857	81.043	-0.135	0.148
-652.843	-150.911	-0.204	0.016
-651.828	85.303	0.066	0.074
-650.814	-200.000	-0.012	-0.070
-649.799	177.905	0.082	-0.122
-648.784	-47.348	-0.360	-0.178
-647.770	-86.466	-0.022	-0.007
-646.755	-200.000	-0.016	0.226
-645.741	-82.173	0.308	0.102
-644.726	-200.000	-0.029	0.346
-643.711	56.315	-0.038	0.038
-642.697	-27.725	0.211	0.124
-641.682	102.365	-0.075	-0.090
-640.668	286.433	0.046	0.084
-639.653	315.838	-0.242	-0.463
-638.638	200.526	-0.150	0.233
-637.624	62.271	0.117	-0.119
-636.609	-60.311	0.064	0.028
-635.595	575.440	-0.014	-0.034
-634.580	89.096	0.102	-0.115
-633.565	-200.000	0.010	-0.201
-632.551	6.850	-0.033	0.025
-631.536	-86.461	0.092	-0.029
-630.522	33.024	-0.149	-0.131
-629.507	-122.235	-0.116	-0.019
-628.492	495.540	-0.119	-0.278
-627.478	50.666	-0.087	-0.083
-626.463	-98.598	0.177	0.046
-625.449	-200.000	0.059	-0.270
-624.434	390.916	-0.096	0.201
-623.419	744.802	0.070	0.192
-622.405	-154.256	0.095	0.006
-621.390	-114.179	0.171	-0.033
-620.376	389.308	-0.039	-0.082
-619.361	-72.345	0.374	-0.140
-618.346	-0.121	-0.241	-0.174
-617.332	800.000	0.084	-0.292
-616.317	64.917	-0.101	0.104
-615.303	-200.000	-0.009	0.084
-614.288	-11.418	-0.151	-0.101
-613.273	-30.792	-0.288	0.165
-612.259	-116.408	-0.456	-0.085
-611.244	-141.749	-0.125	0.013
-610.230	655.851	-0.078	-0.204
-609.215	-14.255	-0.060	-0.040
-608.201	42.298	-0.183	0.168
-607.186	-42.182	-0.159	0.083
-606.171	336.503	0.122	0.240
-605.157	-147.517	-0.215	-0.018
-604.142	-200.000	0.041	-0.311
-603.128	-81.174	-0.186	0.062
-602.113	-58.383	-0.214	0.094
-601.098	76.304	0.208	-0.224
-600.084	800.000	-0.116	0.358
-599.069	70.880	-0.195	0.205
-598.055	217.411	-0.117	-0.188
-597.040	333.657	-0.140	-0.274
-596.025	98.828	0.276	-0.323
-595.011	-200.000	-0.017	-0.180
-593.996	117.287	-0.067	0.083
-592.982	-200.000	-0.098	-0.441
-591.967	800.000	-0.110	0.378
-590.952	-200.000	0.025	0.170
-589.938	-200.000	0.054	-0.359
-588.923	298.128	-0.153	0.285
-587.909	-152.307	-0.137	-0.010
-586.894	-200.000	-0.005	0.039
-585.879	800.000	-0.070	-0.252
-584.865	-44.834	-0.204	-0.103
-583.850	-192.351	0.035	-0.000
-582.836	516.365	-0.057	0.136
-581.821	-108.934	-0.176	-0.038
-580.806	-200.000	0.032	-0.242
-579.792	-117.504	0.123	0.023
-578.777	105.311	0.164	-0.196
-577.763	707.775	-0.087	0.232
-576.748	55.063	-0.297	-0.291
-575.733	-200.000	0.024	0.229
-574.719	-42.576	0.268	0.138
-573.704	-11.486	-0.265	0.176
-572.690	-38.719	0.055	-0.030
-571.675	-55.783	0.289	-0.131
-570.661	8.746	0.173	0.132
-569.646	-200.000	-0.001	0.244
-568.631	-100.398	0.144	0.036
-567.617	-200.000	0.002	0.047
-566.602	-200.000	-0.024	-0.196
-565.588	123.700	0.122	0.156
-564.573	227.102	0.053	0.087
-563.558	-95.698	-0.197	-0.053
-562.544	-200.000	-0.048	0.324
-561.529	-200.000	-0.018	0.092
-560.515	119.496	0.239	0.299
-559.500	-106.892	0.250	-0.056
-558.485	800.000	0.061	-0.224
-557.471	-189.694	-0.426	-0.005
-556.456	-200.000	-0.036	0.331
-555.442	509.832	0.159	0.374
-554.427	-200.000	-0.247	-0.001
-553.412	-53.607	-0.239	0.111
-552.398	-28.239	0.142	0.083
-551.383	239.924	-0.139	-0.235
-550.369	-152.653	0.274	-0.020
-549.354	63.154	0.126	-0.127
-548.339	-138.210	0.379	-0.042
-547.325	148.549	0.126	0.172
-546.310	582.941	-0.083	0.207
-545.296	-120.712	-0.139	0.024
-544.281	275.648	-0.145	-0.259
-543.266	-69.301	-0.253	-0.098
-542.252	334.813	0.059	-0.117
-541.237	-123.599	-0.261	0.042
-540.223	-127.233	-0.112	-0.017
-539.208	294.699	-0.138	-0.255
-538.193	-113.509	-0.310	-0.061
-537.179	124.819	-0.069	0.088
-536.164	-200.000	-0.002	0.161
-535.150	-39.349	0.087	-0.046
-534.135	35.337	-0.100	0.089
-533.121	89.270	0.171	0.193
-532.106	87.983	-0.147	-0.165
-531.091	-138.759	0.181	-0.020
-530.077	-200.000	0.019	0.411
-529.062	-200.000	0.043	-0.194
-528.048	-200.000	-0.014	-0.190
-527.033	-147.686	-0.107	-0.009
-526.018	-27.711	0.082	-0.048
-525.004	25.362	-0.143	0.120
-523.989	-95.079	0.276	0.075
-522.975	-132.852	0.177	0.023
-521.960	-39.093	-0.275	0.146
-520.945	449.710	-0.044	-0.098
-519.931	150.399	-0.185	0.253
-518.916	186.554	0.122	-0.184
-517.902	290.040	0.154	-0.283
-516.887	150.628	0.175	-0.241
-515.872	48.897	0.320	-0.304
-514.858	180.833	-0.121	-0.179
-513.843	82.593	-0.214	-0.234
-512.829	340.708	0.123	0.242
-511.814	1.345	-0.225	0.163
-510.799	-200.000	-0.044	0.328
-509.785	177.824	0.131	-0.193
-508.770	-200.000	-0.036	-0.248
-507.756	93.890	-0.094	0.107
-506.741	800.000	0.033	-0.119
-505.726	91.854	-0.322	0.366
-504.712	-139.033	0.216	-0.024
-503.697	82.831	0.125	-0.137
-502.683	141.703	0.205	-0.274
-501.668	-157.647	-0.108	0.007
-500.653	76.991	-0.192	0.205
-499.639	227.568	-0.040	0.066
-498.624	800.000	0.047	0.158
-497.610	800.000	-0.031	-0.086
-496.595	251.993	-0.061	0.104
-495.581	-200.000	0.007	-0.045
-494.566	-58.732	0.275	0.120
-493.551	-2.744	-0.132	-0.093
-492.537	27.209	0.046	0.039
-491.522	309.678	0.018	0.034
-490.508	55.172	0.094	-0.092
-489.493	-47.324	-0.230	-0.113
-488.478	31.925	0.278	-0.242
-487.464	-85.493	0.016	-0.005
-486.449	451.492	0.125	-0.278
-485.435	-122.992	0.067	-0.011
-484.420	-200.000	-0.017	0.221
-483.405	-200.000	0.002	-0.308
-482.391	165.258	0.074	0.105
-481.376	345.343	-0.063	0.125
-480.362	-20.510	-0.101	0.063
-479.347	-200.000	0.002	0.162
-478.332	-70.739	0.107	-0.041
-477.318	-45.836	0.211	0.105
-476.303	-171.421	-0.083	0.003
-475.289	434.215	-0.209	-0.458
-474.274	416.714	-0.066	0.143
-473.259	-26.249	-0.149	0.088
-472.245	185.499	0.176	0.264
-471.230	800.000	0.129	0.404
-470.216	4.590	-0.018	-0.013
-469.201	23.579	-0.236	-0.196
-468.186	-39.675	0.193	-0.102
-467.172	800.000	-0.005	-0.018
-466.157	-200.000	-0.014	0.452
-465.143	-186.916	-0.136	0.002
-464.128	-169.803	-0.381	-0.014
-463.113	-49.315	-0.393	-0.189
-462.099	-200.000	0.011	-0.066
-461.084	-200.000	-0.054	-0.293
-460.070	32.418	-0.345	-0.300
-459.055	-64.092	0.113	0.047
-458.040	10.749	0.073	0.056
-457.026	-200.000	0.039	-0.184
-456.011	-176.061	0.381	-0.010
-454.997	-200.000	-0.037	0.495
-453.982	376.545	0.090	-0.184
-452.968	343.920	0.101	-0.200
-451.953	-110.585	0.229	-0.048
-450.938	42.991	-0.131	0.120
-449.924	-97.131	-0.174	-0.046
-448.909	158.901	0.158	0.221
-447.895	-200.000	-0.028	0.147
-446.880	736.029	0.036	-0.098
-445.865	-7.514	-0.330	0.225
-444.851	-200.000	-0.029	-0.433
-443.836	-83.761	-0.083	0.027
-442.822	59.856	0.187	-0.186
-441.807	624.856	-0.132	-0.334
-440.792	-38.886	-0.146	0.077
-439.778	42.619	0.191	0.175
-438.763	122.354	-0.069	0.086
-437.749	-200.000	-0.021	0.197
-436.734	-131.775	-0.086	-0.011
-435.719	-155.111	-0.320	-0.021
-434.705	-77.026	0.250	-0.088
-433.690	185.958	-0.231	0.346
-432.676	-200.000	0.013	0.202
-431.661	128.190	-0.107	0.137
-430.646	-66.382	-0.151	0.060
-429.632	621.645	-0.110	0.278
-428.617	-13.469	0.288	0.188
-427.603	358.081	-0.136	0.273
-426.588	-111.035	0.165	-0.034
-425.573	14.945	0.108	-0.085
-424.559	800.000	0.084	0.252
-423.544	-32.991	0.129	-0.072
-422.530	724.674	-0.061	-0.163
-421.515	155.890	0.158	-0.219
-420.500	800.000	0.129	-0.429
-419.486	-115.385	0.503	-0.095
-418.471	139.025	0.275	0.364
-417.457	-95.608	0.225	-0.061
-416.442	94.949	-0.179	0.205
-415.428	-200.000	-0.066	-0.448
-414.413	238.949	0.216	-0.361
-413.398	-200.000	0.025	0.219
-412.384	-127.980	-0.193	-0.028
-411.369	578.310	-0.027	0.066
-410.355	-154.928	-0.309	0.020
-409.340	800.000	0.081	0.232
-408.325	266.765	-0.151	0.266
-407.311	-34.238	-0.280	-0.154
-406.296	-146.359	0.349	-0.031
-405.282	-21.116	0.110	0.068
-404.267	-39.362	-0.105	0.056
-403.252	58.055	0.065	-0.064
-402.238	-90.994	0.182	0.053
-401.223	244.863	0.019	0.032
-400.209	248.122	0.212	0.361
-399.194	93.352	-0.125	0.143
-398.179	-196.163	-0.102	0.001
-397.165	-6.330	-0.255	-0.175
-396.150	120.103	0.310	-0.386
-395.136	-200.000	-0.016	-0.186
-394.121	-200.000	-0.031	0.427
-393.106	317.799	0.077	-0.146
-392.092	55.531	-0.163	-0.159
-391.077	17.928	-0.042	-0.034
-390.063	199.747	0.085	-0.132
-389.048	446.886	-0.203	-0.448
-388.033	3.379	-0.079	-0.058
-387.019	243.003	-0.222	0.374
-386.004	-200.000	0.052	0.427
-384.990	384.247	0.067	-0.139
-383.975	-61.200	0.063	0.027
-382.960	-200.000	0.014	-0.213
-381.946	-186.444	-0.163	0.002
-380.931	54.735	0.158	-0.153
-379.917	-175.334	0.076	-0.002
-378.902	245.697	-0.132	0.223
-377.888	800.000	-0.026	0.091
-376.873	-40.284	0.035	0.018
-375.858	500.638	-0.115	0.267
-374.844	157.610	-0.254	0.353
-373.829	800.000	-0.021	0.067
-372.815	11.991	0.137	-0.106
-371.800	-40.257	-0.148	0.077
-370.785	-74.015	-0.210	-0.077
-369.771	49.817	-0.053	-0.051
-368.756	25.616	-0.140	0.117
-367.742	-168.021	0.175	-0.007
-366.727	68.154	0.254	-0.261
-365.712	-174.423	0.217	-0.006
-364.698	-35.692	0.305	0.166
-363.683	94.753	0.217	0.248
-362.669	539.486	0.070	-0.167
-361.654	49.541	0.130	-0.122
-360.639	25.574	-0.157	0.131
-359.625	-103.752	0.053	-0.012
-358.610	37.788	-0.258	0.230
-357.596	187.280	-0.153	0.229
-356.581	-200.000	0.031	0.249
-355.566	-13.590	-0.221	-0.144
-354.552	-103.608	0.289	-0.068
-353.537	323.413	0.156	0.299
-352.523	-200.000	0.019	-0.320
-351.508	458.206	-0.109	-0.244
-350.493	444.334	0.150	0.331
-349.479	-200.000	-0.005	-0.028
-348.464	214.961	0.125	-0.200
-347.450	-200.000	0.037	0.221
-346.435	235.639	-0.127	-0.211
-345.420	-200.000	0.025	-0.201
-344.406	270.511	-0.152	-0.268
-343.391	185.423	0.171	0.254
-342.377	-200.000	-0.040	-0.203
-341.362	407.377	0.023	-0.049
-340.348	8.876	0.293	-0.222
-339.333	2.458	0.176	-0.128
-338.318	-16.869	0.186	0.118
-337.304	-200.000	0.005	0.165
-336.289	32.769	0.101	-0.087
-335.275	-90.968	0.186	0.054
-334.260	104.922	-0.169	-0.200
-333.245	800.000	-0.054	-0.165
-332.231	800.000	-0.026	0.104
-331.216	800.000	0.040	-0.147
-330.202	84.071	-0.258	0.283
-329.187	-43.127	-0.289	-0.147
-328.172	-149.714	-0.078	-0.006
-327.158	-72.106	-0.349	-0.130
-326.143	-68.333	0.195	0.076
-325.129	-200.000	0.011	-0.287
-324.114	-200.000	0.007	0.191
-323.099	-200.000	0.011	0.187
-322.085	504.990	-0.068	0.159
-321.070	-146.816	0.174	-0.015
-320.056	-63.663	0.350	-0.144
-319.041	114.071	-0.142	0.173
-318.026	67.706	0.351	0.360
-317.012	679.844	-0.133	0.348
-315.997	172.797	-0.289	0.417
-314.983	-154.754	-0.260	-0.017
-313.968	800.000	-0.068	-0.198
-312.953	-200.000	0.028	0.151
-311.939	44.034	0.212	0.195
-310.924	-52.256	-0.123	0.057
-309.910	7.616	0.341	-0.256
-308.895	614.381	0.088	-0.221
-307.880	-140.882	-0.043	0.004
-306.866	52.922	0.189	-0.181
-305.851	-200.000	0.071	0.440
-304.837	-200.000	-0.021	-0.405
-303.822	-14.704	0.212	-0.137
-302.807	-57.587	0.034	-0.015
-301.793	-104.543	0.414	0.096
-300.778	-200.000	0.008	-0.134
-299.764	-82.658	-0.119	-0.039
-298.749	-76.265	-0.264	0.093
-297.735	649.042	0.075	-0.193
-296.720	27.866	0.107	-0.091
-295.705	44.745	-0.301	0.278
-294.691	0.075	0.194	0.138
-293.676	-44.537	-0.120	-0.060
-292.662	-28.680	-0.181	-0.104
-291.647	67.129	-0.192	-0.196
-290.632	92.726	-0.217	0.245
-289.618	-83.102	-0.195	-0.063
-288.603	-56.410	0.187	-0.083
-287.589	-6.548	-0.060	0.041
-286.574	800.000	-0.061	-0.200
-285.559	800.000	-0.036	-0.099
-284.545	63.322	-0.148	-0.149
-283.530	-56.821	0.057	0.025
-282.516	-200.000	-0.014	0.122
-281.501	133.273	-0.263	0.340
-280.486	800.000	0.106	0.333
-279.472	64.242	0.114	0.115
-278.457	462.865	0.041	0.091
-277.443	81.882	0.276	-0.300
-276.428	-134.389	-0.612	0.075
-275.413	177.619	-0.076	0.111
-274.399	-131.463	0.428	-0.057
-273.384	-184.576	0.177	-0.003
-272.370	-69.936	0.135	0.052
-271.355	88.900	-0.160	0.178
-270.340	6.879	0.231	0.172
-269.326	-128.001	0.285	-0.041
-268.311	250.316	-0.075	-0.128
-267.297	-66.321	0.212	0.084
-266.282	-104.132	0.404	-0.094
-265.267	-56.946	0.157	-0.069
-264.253	100.732	0.185	-0.215
-263.238	800.000	0.041	0.177
-262.224	-65.639	-0.229	0.092
-261.209	-26.017	-0.083	0.049
-260.195	260.304	-0.114	0.197
-259.180	-33.265	-0.170	-0.094
-258.165	-93.237	0.145	-0.040
-257.151	-200.000	0.029	0.541
-256.136	800.000	-0.039	-0.164
-255.122	195.440	0.042	-0.064
-254.107	43.020	-0.212	0.193
-253.092	361.863	0.072	-0.144
-252.078	273.919	0.138	-0.245
-251.063	800.000	-0.038	-0.132
-250.049	-92.431	-0.097	-0.027
-249.034	-32.914	0.081	0.045
-248.019	-200.000	-0.003	0.224
-247.005	163.330	0.345	-0.485
-245.990	-34.895	0.228	-0.124
-244.976	27.657	-0.220	0.185
-243.961	-18.501	0.252	0.157
-242.946	-113.430	0.349	-0.068
-241.932	-175.276	0.204	0.006
-240.917	-200.000	0.005	-0.126
-239.903	-89.601	0.093	0.027
-238.888	-30.296	-0.330	-0.187
-237.873	800.000	0.107	0.363
-236.859	24.952	-0.207	0.171
-235.844	-114.931	-0.244	-0.046
-234.830	158.119	-0.118	-0.164
-233.815	-200.000	0.024	0.105
-232.800	-97.094	0.266	-0.070
-231.786	-9.875	0.301	0.200
-230.771	-112.110	-0.201	0.040
-229.757	-172.743	-0.246	0.008
-228.742	-85.900	0.417	-0.129
-227.727	45.176	-0.068	-0.062
-226.713	800.000	-0.041	-0.149
-225.698	-157.372	0.157	0.009
-224.684	-43.098	-0.358	-0.181
-223.669	54.124	-0.328	0.315
-222.655	-200.000	-0.002	0.027
-221.640	-38.552	-0.096	-0.051
-220.625	-19.425	0.083	-0.051
-219.611	800.000	0.103	-0.284
-218.596	318.616	0.126	0.238
-217.582	-11.318	-0.186	-0.122
-216.567	-12.276	0.180	-0.118
-215.552	-121.823	0.233	0.038
-214.538	114.636	-0.277	-0.337
-213.523	-148.912	0.184	-0.015
-212.509	-131.097	0.497	-0.066
-211.494	-129.199	-0.287	0.040
-210.479	-43.973	0.147	0.074
-209.465	84.786	0.139	-0.152
-208.450	1.700	0.303	-0.218
-207.436	-140.169	-0.135	-0.014
-206.421	-200.000	-0.049	0.264
-205.406	-200.000	-0.025	0.198
-204.392	481.372	0.157	-0.355
-203.377	-24.962	0.384	-0.227
-202.363	-73.988	-0.498	-0.180
-201.348	198.385	0.188	0.287
-200.333	-38.778	0.374	0.197
-199.319	35.172	-0.055	-0.048
-198.304	212.779	-0.090	0.142
-197.290	113.184	-0.089	0.107
-196.275	-200.000	0.016	-0.372
-195.260	214.335	0.236	0.373
-194.246	577.854	0.153	0.373
-193.231	-136.168	-0.288	0.034
-192.217	69.803	-0.083	-0.086
-191.202	-200.000	0.009	0.080
-190.187	89.341	0.167	-0.185
-189.173	139.875	-0.133	0.175
-188.158	224.619	-0.139	-0.225
-187.144	-200.000	0.076	-0.358
-186.129	161.934	-0.131	-0.183
-185.114	-200.000	0.002	0.110
-184.100	-200.000	0.009	0.081
-183.085	-200.000	0.006	0.425
-182.071	-200.000	-0.000	0.148
-181.056	72.301	-0.143	0.149
-180.042	-80.332	-0.043	0.014
-179.027	800.000	0.046	-0.148
-178.012	425.832	0.039	0.084
-176.998	77.895	-0.276	-0.294
-175.983	354.255	-0.002	-0.003
-174.969	-200.000	-0.033	-0.302
-173.954	36.960	-0.229	0.202
-172.939	-79.063	0.406	-0.137
-171.925	67.579	0.333	-0.339
-170.910	-114.416	0.317	0.061
-169.896	-126.549	-0.421	-0.062
-168.881	-46.698	0.165	-0.081
-167.866	-200.000	-0.028	-0.277
-166.852	-40.143	-0.060	0.031
-165.837	154.976	0.185	0.254
-164.823	-94.955	0.205	0.055
-163.808	800.000	-0.097	0.345
-162.793	800.000	-0.044	0.127
-161.779	266.188	0.147	-0.256
-160.764	796.959	-0.138	-0.380
-159.750	-61.744	-0.207	-0.086
-158.735	-125.243	-0.387	0.059
-157.720	-31.342	-0.199	-0.112
-156.706	55.418	0.215	0.207
-155.691	-135.868	0.107	0.013
-154.677	-28.807	-0.081	-0.046
-153.662	55.449	0.105	-0.102
-152.647	-119.360	-0.135	-0.023
-151.633	-200.000	-0.014	0.078
-150.618	800.000	0.063	0.175
-149.604	-29.135	0.269	0.154
-148.589	-145.307	-0.108	-0.010
-147.574	-52.956	0.282	-0.129
-146.560	-160.158	0.149	-0.008
-145.545	35.742	0.197	-0.172
-144.531	181.185	-0.123	0.180
-143.516	-17.456	0.131	0.082
-142.502	357.599	0.063	0.124
-141.487	129.312	-0.220	0.279
-140.472	34.055	0.063	-0.055
-139.458	-55.722	0.140	0.062
-138.443	-118.753	0.112	-0.020
-137.429	800.000	0.073	-0.247
-136.414	117.626	-0.049	0.060
-135.399	70.309	-0.297	-0.306
-134.385	-200.000	0.022	-0.161
-133.370	-86.994	-0.425	-0.129
-132.356	-200.000	0.041	0.207
-131.341	-51.855	0.132	0.061
-130.326	-200.000	-0.010	0.064
-129.312	109.925	-0.293	0.350
-128.297	-5.576	0.209	0.143
-127.283	800.000	0.100	0.403
-126.268	86.414	0.258	0.283
-125.253	-52.518	-0.287	-0.132
-124.239	-68.614	-0.015	-0.006
-123.224	-200.000	0.023	0.192
-122.210	-109.244	0.101	-0.021
-121.195	-162.833	0.302	0.015
-120.180	-67.467	0.162	-0.063
-119.166	39.883	-0.226	0.202
-118.151	249.586	-0.211	0.356
-117.137	800.000	0.025	0.100
-116.122	66.050	-0.111	-0.112
-115.107	0.678	0.162	-0.115
-114.093	158.758	0.090	-0.124
-113.078	800.000	0.040	-0.117
-112.064	708.788	-0.100	0.264
-111.049	289.933	-0.129	0.233
-110.034	420.332	0.076	0.161
-109.020	209.056	-0.300	0.468
-108.005	5.643	0.075	-0.055
-106.991	187.179	-0.069	0.103
-105.976	-114.296	-0.489	-0.094
-104.962	0.285	0.290	0.206
-103.947	-110.838	0.199	0.041
-102.932	-200.000	-0.010	0.237
-101.918	-131.679	0.107	0.014
-100.903	-126.346	-0.065	-0.010
-99.889	800.000	-0.075	-0.295
-98.874	106.471	0.130	-0.153
-97.859	-192.942	0.378	0.003
-96.845	333.282	0.119	-0.230
-95.830	51.397	0.166	-0.156
-94.816	276.689	-0.102	-0.181
-93.801	62.121	0.263	-0.260
-92.786	338.891	0.053	0.102
-91.772	-0.430	0.167	-0.118
-90.757	-90.880	0.339	-0.097
-89.743	272.197	-0.272	0.476
-88.728	-93.891	-0.078	-0.021
-87.713	109.398	0.106	0.127
-86.699	-45.688	0.354	0.174
-85.684	-81.590	-0.185	-0.060
-84.670	668.719	0.009	0.024
-83.655	70.774	-0.170	0.175
-82.640	-28.355	0.079	0.045
-81.626	259.039	0.096	0.164
-80.611	274.721	0.141	0.247
-79.597	135.188	0.313	-0.404
-78.582	-150.118	-0.329	0.025
-77.567	70.761	0.240	-0.247
-76.553	-200.000	-0.016	0.100
-75.538	-78.543	0.212	-0.072
-74.524	-123.251	0.270	0.043
-73.509	621.886	-0.168	0.420
-72.494	55.284	-0.092	0.088
-71.480	319.566	0.210	0.395
-70.465	-47.866	0.279	0.134
-69.451	124.072	0.119	0.148
-68.436	-200.000	-0.035	0.220
-67.422	800.000	0.047	-0.156
-66.407	-200.000	-0.023	-0.166
-65.392	-200.000	0.050	-0.250
-64.378	-200.000	0.004	0.124
-63.363	758.631	0.037	0.099
-62.349	-25.971	-0.130	0.076
-61.334	219.923	-0.680	-1.080
-60.319	286.836	0.104	0.186
-59.305	800.000	-0.341	-1.069
-58.290	800.000	0.319	1.031
-57.276	800.000	0.418	1.218
-56.261	-200.000	91.167	534.697
-55.246	504.972	1381.546	3174.639
-54.232	149.109	2594.941	3483.628
-53.217	112.720	2199.325	2642.702
-52.203	46.861	1647.318	1519.078
-51.188	38.900	1380.260	1223.393
-50.173	35.665	1336.807	1165.256
-49.159	55.523	1383.341	1328.700
-48.144	60.105	1401.937	1374.754
-47.130	39.481	1357.332	1206.439
-46.115	35.613	1340.466	1167.942
-45.100	35.549	1335.173	1162.899
-44.086	35.454	1332.811	1160.220
-43.071	35.353	1330.449	1157.512
-42.057	35.412	1327.877	1155.581
-41.042	35.399	1326.507	1154.265
-40.027	35.437	1325.216	1153.324
-39.013	35.567	1322.539	1151.728
-37.998	35.462	1321.139	1149.832
-36.984	35.567	1319.253	1148.774
-35.969	35.568	1317.575	1147.274
-34.954	35.686	1315.261	1145.917
-33.940	35.711	1314.278	1145.165
-32.925	35.664	1312.829	1143.580
-31.911	35.728	1311.073	1142.384
-30.896	35.725	1310.058	1141.435
-29.881	35.666	1308.706	1139.861
-28.867	35.722	1307.083	1138.737
-27.852	35.683	1305.414	1137.006
-26.838	35.741	1304.076	1136.137
-25.823	35.689	1302.826	1134.697
-24.809	35.567	1301.322	1132.620
-23.794	35.578	1299.929	1131.429
-22.779	35.614	1298.403	1130.268
-21.765	35.692	1297.165	1129.604
-20.750	35.653	1296.236	1128.520
-19.736	35.596	1294.660	1126.768
-18.721	35.482	1292.942	1124.561
-17.706	35.468	1292.364	1123.935
-16.692	35.489	1290.986	1122.810
-15.677	35.585	1289.719	1122.226
-14.663	35.560	1288.308	1120.807
-13.648	35.468	1287.643	1119.648
-12.633	35.450	1286.244	1118.284
-11.619	35.369	1285.985	1117.540
-10.604	35.439	1285.078	1117.119
-9.590	35.440	1284.085	1116.214
-8.575	35.467	1283.017	1115.401
-7.560	35.492	1282.153	1114.751
-6.546	35.382	1281.692	1113.663
-5.531	35.374	1280.786	1112.790
-4.517	35.477	1279.468	1112.194
-3.502	35.561	1278.156	1111.497
-2.487	35.612	1277.363	1111.057
-1.473	35.642	1273.537	1107.857
-0.458	34.691	1258.541	1089.348
0.556	31.283	1240.409	1051.287
1.571	27.615	1244.788	1034.142
2.586	26.775	1259.533	1041.474
3.600	25.682	1247.897	1025.536
4.615	18.252	1171.449	922.722
5.629	7.039	1091.104	802.744
6.644	2.135	1068.822	761.865
7.659	1.898	1065.870	758.513
8.673	1.631	1064.756	756.327
9.688	1.656	1062.960	755.109
10.702	1.912	1061.987	755.616
11.717	8.397	1071.527	794.681
12.731	19.162	1087.011	860.151
13.746	24.350	1093.549	891.246
14.761	25.142	1094.329	895.760
15.775	25.184	1093.395	895.127
16.790	24.855	1092.703	892.839
17.804	24.826	1092.173	892.180
18.819	24.977	1091.888	892.621
19.834	25.097	1091.240	892.613
20.848	25.066	1090.765	891.990
21.863	25.198	1090.252	892.149
22.877	25.108	1089.639	891.119
23.892	25.071	1088.934	890.283
24.907	25.098	1088.041	889.607
25.921	25.103	1086.997	888.701
26.936	24.957	1085.896	887.000
27.950	25.103	1083.638	885.796
28.965	24.796	1082.822	883.534
29.980	24.926	1081.025	882.633
30.994	25.063	1080.184	882.544
32.009	25.139	1079.263	882.085
33.023	24.826	1078.174	879.580
34.038	24.876	1077.622	879.295
35.053	25.175	1076.489	879.760
36.067	25.139	1075.984	879.092
37.082	25.149	1075.158	878.389
38.096	25.211	1074.676	878.223
39.111	25.496	1073.576	878.636
40.126	25.166	1072.479	876.052
41.140	24.861	1070.384	872.777
42.155	24.627	1069.400	870.758
43.169	24.712	1068.554	870.406
44.184	24.759	1067.177	869.433
45.199	24.645	1066.358	868.134
46.213	24.742	1065.724	868.013
47.228	24.910	1065.026	868.183
48.242	24.979	1063.576	867.257
49.257	25.059	1063.020	867.114
50.271	25.079	1062.619	866.809
51.286	25.229	1061.686	866.697
52.301	25.203	1060.504	865.529
53.315	25.092	1059.627	864.201
54.330	25.130	1058.363	863.279
55.344	25.011	1058.124	862.430
56.359	25.008	1056.846	861.299
57.374	24.786	1056.139	859.583
58.388	24.889	1055.582	859.547
59.403	24.831	1054.191	858.059
60.417	24.681	1053.816	856.961
61.432	24.770	1053.374	856.952
62.447	24.848	1053.008	856.949
63.461	24.880	1051.908	856.133
64.476	24.868	1050.647	854.975
65.490	24.830	1049.849	854.065
66.505	24.807	1049.143	853.307
67.520	24.814	1048.748	852.941
68.534	24.668	1047.157	850.879
69.549	24.269	1046.019	847.981
70.563	24.350	1045.173	847.606
71.578	24.241	1044.491	846.461
72.593	24.162	1043.530	845.229
73.607	24.352	1043.029	845.650
74.622	24.598	1042.902	846.637
75.636	24.632	1041.805	845.837
76.651	24.617	1040.721	844.810
77.666	24.364	1040.401	843.277
78.680	24.469	1039.680	843.115
79.695	24.642	1039.092	843.382
80.709	24.777	1038.384	843.370
81.724	24.602	1037.748	841.951
82.739	24.661	1036.951	841.509
83.753	25.110	1036.340	843.050
84.768	25.258	1035.706	843.158
85.782	25.457	1034.990	843.433
86.797	25.394	1033.604	841.935
87.812	25.240	1032.702	840.404
88.826	25.302	1031.721	839.819
89.841	25.306	1030.860	839.063
90.855	25.495	1029.529	838.786
91.870	25.301	1028.907	837.304
92.884	25.124	1028.265	835.881
93.899	25.112	1027.024	834.743
94.914	25.358	1025.987	834.971
95.928	25.136	1025.097	833.139
96.943	24.897	1023.445	830.615
97.957	24.673	1022.471	828.714
98.972	24.551	1021.492	827.279
99.987	24.820	1020.770	827.868
101.001	25.055	1020.090	828.329
102.016	25.114	1019.295	827.885
103.030	24.937	1018.048	825.980
104.045	24.825	1017.427	824.889
105.060	24.726	1016.020	823.217
106.074	24.934	1015.573	823.739
107.089	25.204	1014.960	824.410
108.103	25.074	1014.146	823.080
109.118	24.835	1012.735	820.765
110.133	24.849	1011.805	820.005
111.147	24.663	1010.175	817.759
112.162	24.507	1009.712	816.599
113.176	24.773	1008.955	817.128
114.191	24.652	1008.244	815.928
115.206	24.351	1006.789	813.306
116.220	24.354	1006.433	812.959
117.235	24.585	1005.165	812.915
118.249	24.445	1004.512	811.680
119.264	24.336	1003.912	810.629
120.279	24.385	1003.194	810.196
121.293	24.516	1002.141	809.871
122.308	24.624	1001.324	809.626
123.322	24.471	999.843	807.666
124.337	24.331	998.958	806.248
125.352	23.863	997.156	802.608
126.366	23.713	996.585	801.401
127.381	24.487	996.685	804.901
128.395	25.008	995.982	806.612
129.410	25.179	995.030	806.535
130.424	25.042	994.473	805.399
131.439	25.059	993.243	804.407
132.454	25.034	992.615	803.717
133.468	24.881	991.641	802.171
134.483	25.116	990.685	802.380
135.497	25.214	990.397	802.512
136.512	25.352	989.426	802.270
137.527	25.198	988.759	800.971
138.541	25.275	987.865	800.518
139.556	25.186	987.135	799.463
140.570	25.441	985.832	799.471
141.585	25.300	985.048	798.136
142.600	25.422	983.453	797.313
143.614	25.543	983.067	797.468
144.629	25.609	982.675	797.374
145.643	25.358	981.485	795.226
146.658	25.261	979.623	793.218
147.673	25.186	978.913	792.241
148.687	24.996	977.584	790.255
149.702	25.082	977.001	790.094
150.716	24.996	976.271	789.057
151.731	25.104	975.681	788.986
152.746	25.289	975.200	789.340
153.760	25.306	974.758	788.986
154.775	25.434	973.839	788.733
155.789	25.449	973.100	788.134
156.804	25.448	971.875	787.066
157.819	25.487	971.224	786.639
158.833	25.586	970.805	786.663
159.848	25.541	969.560	785.392
160.862	25.425	968.371	783.850
161.877	25.524	967.174	783.241
162.892	25.458	966.374	782.239
163.906	25.444	964.963	780.967
164.921	25.457	964.599	780.658
165.935	25.337	963.942	779.536
166.950	25.500	962.533	779.036
167.964	25.569	961.684	778.577
168.979	25.396	960.559	776.849
169.994	25.306	959.774	775.759
171.008	25.508	959.510	776.351
172.023	25.446	958.611	775.284
173.037	25.345	957.368	773.775
174.052	25.103	956.382	771.870
175.067	25.206	956.094	772.014
176.081	25.225	955.863	771.838
177.096	25.226	954.828	770.939
178.110	24.801	953.724	768.153
179.125	24.675	952.841	766.837
180.140	24.886	952.441	767.348
181.154	24.984	952.345	767.623
182.169	25.373	951.769	768.759
183.183	25.440	951.559	768.805
184.198	25.294	950.481	767.244
185.213	25.314	950.045	766.911
186.227	25.409	949.112	766.496
187.242	25.552	948.250	766.338
188.256	25.443	948.189	765.756
189.271	25.517	947.286	765.277
190.286	25.284	946.012	763.188
191.300	24.620	944.325	758.940
192.315	23.720	942.727	753.771
193.329	23.639	942.975	753.558
194.344	24.667	942.890	757.783
195.359	25.188	942.783	759.842
196.373	25.320	942.322	759.961
197.388	25.158	941.991	758.943
198.402	25.279	941.073	758.646
199.417	25.354	940.443	758.387
200.432	25.097	939.278	756.296
201.446	24.936	938.676	755.066
202.461	25.002	938.028	754.756
203.475	24.119	936.137	749.454
204.490	23.357	934.659	745.001
205.504	24.248	935.306	749.196
206.519	24.775	935.545	751.538
207.534	25.030	935.099	752.186
208.548	25.438	934.722	753.526
209.563	25.096	933.594	751.118
210.577	25.151	933.188	750.956
211.592	25.665	933.097	752.967
212.607	25.508	932.188	751.508
213.621	25.645	931.062	751.107
214.636	25.543	930.920	750.501
215.650	25.448	929.796	749.132
216.665	25.603	929.309	749.318
217.680	25.617	928.469	748.635
218.694	25.144	927.145	745.533
219.709	24.918	926.844	744.288
220.723	25.142	926.748	745.076
221.738	25.295	925.932	744.986
222.753	25.375	925.468	744.882
223.767	25.535	924.634	744.804
224.782	25.720	924.403	745.321
225.796	25.609	923.894	744.386
226.811	24.964	921.871	740.023
227.826	24.202	921.084	736.179
228.840	24.523	920.431	736.917
229.855	24.488	920.038	736.396
230.869	24.201	919.128	734.416
231.884	24.536	919.460	736.001
232.899	25.279	919.129	738.728
233.913	25.153	918.280	737.462
234.928	25.263	917.312	737.071
235.942	25.122	916.738	735.966
236.957	24.838	915.996	734.141
237.972	24.825	915.542	733.657
238.986	24.955	914.786	733.520
240.001	24.919	914.076	732.737
241.015	24.984	913.680	732.623
242.030	25.109	913.430	732.868
243.045	25.249	913.366	733.322
244.059	25.373	912.769	733.288
245.074	25.230	911.821	731.877
246.088	25.022	910.073	729.560
247.103	25.185	909.885	730.010
248.117	25.766	910.301	732.644
249.132	26.012	909.887	733.246
250.147	26.106	909.420	733.188
251.161	26.223	909.163	733.391
252.176	26.133	908.204	732.188
253.190	26.194	908.002	732.207
254.205	26.356	907.634	732.500
255.220	26.433	906.724	732.012
256.234	26.066	906.141	729.994
257.249	25.899	905.636	728.847
258.263	26.214	904.396	729.058
259.278	26.253	903.704	728.590
260.293	26.407	903.297	728.817
261.307	26.170	902.717	727.333
262.322	25.933	901.776	725.556
263.336	25.175	900.105	721.102
264.351	24.306	897.864	715.753
265.366	24.345	897.598	715.636
266.380	25.486	898.476	720.851
267.395	25.847	898.297	722.091
268.409	25.799	897.640	721.309
269.424	25.918	897.441	721.560
270.439	26.101	896.153	721.191
271.453	26.111	895.894	720.962
272.468	26.253	895.504	721.150
273.482	26.339	895.311	721.272
274.497	25.896	893.642	718.100
275.512	25.448	892.986	715.727
276.526	25.860	893.015	717.328
277.541	26.118	892.465	717.849
278.555	25.795	891.706	715.891
279.570	25.691	890.627	714.546
280.585	25.879	890.142	714.839
281.599	25.901	889.253	714.150
282.614	25.216	888.465	710.740
283.628	25.214	887.751	710.100
284.643	25.614	887.603	711.501
285.657	25.159	886.461	708.725
286.672	25.017	885.608	707.419
287.687	25.427	885.742	709.083
288.701	25.657	884.985	709.320
289.716	25.345	884.188	707.390
290.730	25.192	883.561	706.223
291.745	24.934	882.587	704.370
292.760	25.304	882.375	705.593
293.774	26.338	882.632	709.796
294.789	26.562	882.493	710.503
295.803	26.584	881.907	710.054
296.818	26.520	881.212	709.181
297.833	26.195	879.938	706.822
298.847	25.882	879.429	705.126
299.862	26.403	879.237	706.944
300.876	26.560	879.070	707.362
301.891	26.431	878.593	706.413
302.906	26.060	877.103	703.703
303.920	26.144	876.805	703.731
304.935	26.590	876.681	705.306
305.949	26.447	876.229	704.323
306.964	26.176	875.169	702.357
307.979	26.308	874.724	702.451
308.993	26.684	874.489	703.659
310.008	26.678	874.116	703.274
311.022	26.451	873.231	701.619
312.037	26.262	872.555	700.281
313.052	26.035	871.719	698.671
314.066	25.170	870.029	693.909
315.081	24.782	869.582	691.988
316.095	25.676	869.784	695.547
317.110	26.234	869.372	697.308
318.125	25.349	867.764	692.547
319.139	24.339	866.553	687.626
320.154	24.177	866.147	686.619
321.168	25.145	866.645	690.684
322.183	25.866	867.016	693.695
323.197	26.049	866.488	693.915
324.212	26.209	865.758	693.884
325.227	26.206	865.241	693.398
326.241	26.158	864.259	692.365
327.256	25.982	863.822	691.280
328.270	26.063	863.059	690.916
329.285	25.735	862.415	689.085
330.300	25.687	861.610	688.199
331.314	25.900	861.147	688.581
332.329	26.228	861.704	690.220
333.343	26.574	860.799	690.752
334.358	26.471	860.427	690.003
335.373	26.535	860.327	690.102
336.387	26.742	860.017	690.583
337.402	26.748	860.195	690.687
338.416	26.773	859.261	689.972
339.431	26.873	859.058	690.126
340.446	27.137	858.815	690.874
341.460	26.867	858.505	689.540
342.475	26.771	857.918	688.640
343.489	26.775	857.702	688.423
344.504	26.990	857.141	688.729
345.519	27.064	856.693	688.587
346.533	27.256	856.200	688.859
347.548	27.335	855.528	688.555
348.562	27.273	855.392	688.150
349.577	27.133	854.599	686.923
350.592	27.176	853.532	686.163
351.606	27.171	852.826	685.518
352.621	26.951	852.313	684.216
353.635	26.978	851.440	683.558
354.650	26.300	849.736	679.578
355.665	25.239	848.544	674.581
356.679	25.635	848.403	675.895
357.694	26.110	847.865	677.190
358.708	26.144	846.980	676.551
359.723	26.377	847.268	677.592
360.738	26.764	846.690	678.520
361.752	26.919	846.301	678.728
362.767	27.377	846.131	680.243
363.781	27.530	845.544	680.285
364.796	27.472	845.213	679.741
365.810	27.553	845.062	679.862
366.825	27.534	844.618	679.371
367.840	27.260	843.814	677.647
368.854	26.866	842.654	675.187
369.869	26.892	842.332	674.968
370.883	26.982	841.765	674.789
371.898	26.835	841.751	674.171
372.913	26.984	841.315	674.315
373.927	26.944	840.896	673.769
374.942	27.228	840.259	674.253
375.956	27.156	840.329	673.983
376.971	27.462	839.762	674.603
377.986	27.560	839.616	674.789
379.000	27.522	838.476	673.672
380.015	27.355	837.805	672.458
381.029	27.457	837.342	672.404
382.044	27.542	837.119	672.477
383.059	27.511	836.583	671.873
384.073	27.528	835.647	671.125
385.088	27.439	835.126	670.319
386.102	27.313	834.190	669.044
387.117	27.375	833.187	668.408
388.132	26.838	832.512	665.837
389.146	26.359	831.520	663.227
390.161	26.756	831.671	664.747
391.175	27.242	831.519	666.349
392.190	26.869	830.148	663.826
393.205	25.529	827.936	657.102
394.219	24.046	826.127	650.197
395.234	24.046	826.023	650.058
396.248	25.531	827.752	656.791
397.263	26.985	828.559	662.683
398.278	26.862	828.176	661.870
399.292	26.732	827.297	660.636
400.307	26.747	826.811	660.245
401.321	26.971	826.344	660.628
402.336	27.340	826.286	661.865
403.350	27.554	826.388	662.666
404.365	27.958	826.274	663.985
405.380	28.315	825.734	664.789
406.394	28.304	825.259	664.306
407.409	28.188	824.738	663.408
408.423	28.036	824.224	662.388
409.438	28.194	824.295	662.958
410.453	28.248	823.196	662.210
411.467	28.045	823.377	661.561
412.482	28.246	822.889	661.838
413.496	28.348	822.504	661.838
414.511	28.404	822.055	661.621
415.526	28.185	821.635	660.436
416.540	28.018	821.059	659.310
417.555	27.829	820.329	657.986
418.569	27.812	819.610	657.290
419.584	27.888	819.238	657.205
420.599	27.693	818.696	656.012
421.613	104.426	1281.483	1435.623
422.628	90.288	1348.920	1435.732
