DTS Sentinel unit serial number:	SN413079Multiplexer serial number:	ORYXHardware model number:	OX4-SRSoftware version number:	ORYX F/W v4.00 Oryx Data Collector v3.7.2.0data status	okinstallation	princeton_trtdifferential loss correction	single-endedforward channel	channel 1reverse channel	N/Adate	2019/09/16time	13:54:35forward acquisition time	60.00reverse acquisition time	0.00gamma	496.2192k internal	0.2294k external	0.2294temperature offset calibration	0.9950default loss term (dB/km)	0.3790temperature slope calibration	1.0000multiplexer offset coefficient	1.0000multiplexer slope coefficient	1.0000fibre end	0.00T internal ref (°C)	42.37T ext. ref 1 (°C)	13.98T ext. ref 2 (°C)	38.55length (m)	temperature (°C)	Stokes	anti-Stokes-747.200	-170.962	0.067	-0.002
-746.185	31.641	-0.091	-0.080
-745.171	11.639	0.198	-0.155
-744.156	80.212	0.034	-0.038
-743.142	-200.000	0.024	0.111
-742.127	94.016	-0.282	0.327
-741.112	-200.000	0.008	-0.244
-740.098	-134.110	0.186	-0.024
-739.083	-20.664	0.227	0.143
-738.069	-144.421	-0.259	-0.025
-737.054	-100.970	-0.054	0.014
-736.039	-200.000	-0.037	0.199
-735.025	-200.000	0.016	-0.131
-734.010	800.000	-0.040	-0.155
-732.996	-10.818	-0.106	-0.071
-731.981	-144.980	-0.235	0.022
-730.966	-74.081	0.499	0.185
-729.952	-125.309	0.050	0.008
-728.937	-109.064	0.111	0.024
-727.923	160.117	-0.161	0.229
-726.908	-114.922	-0.196	-0.038
-725.894	586.470	0.018	0.045
-724.879	800.000	-0.010	-0.042
-723.864	-39.619	0.012	-0.006
-722.850	99.993	-0.033	0.040
-721.835	-30.742	0.159	-0.092
-720.821	-150.689	0.065	0.005
-719.806	-0.439	-0.212	-0.154
-718.791	-96.810	-0.335	-0.090
-717.777	21.118	0.138	0.114
-716.762	800.000	0.056	-0.192
-715.748	42.141	-0.137	0.127
-714.733	-53.008	-0.022	0.011
-713.718	-154.480	0.370	-0.025
-712.704	-91.232	0.323	-0.095
-711.689	-200.000	0.007	-0.211
-710.675	229.653	0.163	0.273
-709.660	8.134	0.168	0.129
-708.645	-200.000	0.007	0.064
-707.631	121.674	0.026	-0.033
-706.616	-112.545	0.189	0.038
-705.602	-132.543	0.354	-0.046
-704.587	-200.000	-0.001	-0.340
-703.572	-6.851	-0.183	0.127
-702.558	-75.373	0.055	-0.020
-701.543	52.689	-0.091	-0.089
-700.529	-68.035	0.147	-0.059
-699.514	-200.000	-0.027	-0.200
-698.499	-200.000	0.007	-0.289
-697.485	-31.365	0.145	0.083
-696.470	800.000	0.030	0.125
-695.456	18.592	-0.176	0.144
-694.441	74.698	-0.200	0.215
-693.426	120.919	0.197	0.250
-692.412	72.774	0.105	0.111
-691.397	-110.735	0.400	-0.084
-690.383	289.849	0.142	0.264
-689.368	59.081	0.157	-0.158
-688.354	-173.415	0.229	-0.007
-687.339	13.665	-0.395	-0.313
-686.324	645.298	0.068	0.178
-685.310	99.376	0.248	0.293
-684.295	-94.962	-0.142	-0.039
-683.281	278.012	0.029	0.053
-682.266	382.621	0.042	0.089
-681.251	234.474	0.253	0.426
-680.237	-93.100	-0.223	-0.063
-679.222	190.964	-0.152	0.234
-678.208	114.869	-0.154	-0.192
-677.193	479.840	-0.028	-0.064
-676.178	-40.564	0.163	-0.086
-675.164	-54.859	0.094	-0.043
-674.149	90.029	0.045	-0.051
-673.135	344.999	-0.091	-0.183
-672.120	532.669	0.175	0.421
-671.105	221.893	-0.144	0.235
-670.091	800.000	0.091	-0.300
-669.076	614.624	0.096	-0.245
-668.062	85.672	0.397	-0.445
-667.047	-148.558	0.288	0.024
-666.032	-62.240	0.133	-0.056
-665.018	-86.390	-0.030	-0.009
-664.003	470.558	0.132	0.303
-662.989	-200.000	-0.008	0.310
-661.974	-73.426	-0.178	0.066
-660.959	-170.994	0.336	0.012
-659.945	800.000	0.032	-0.116
-658.930	-200.000	0.013	-0.111
-657.916	-121.089	0.256	0.044
-656.901	-148.843	0.116	0.010
-655.886	-200.000	-0.031	-0.232
-654.872	-165.726	0.157	-0.007
-653.857	-165.654	-0.108	0.005
-652.843	-60.035	0.231	0.100
-651.828	800.000	0.027	-0.120
-650.814	46.022	0.174	-0.164
-649.799	37.642	0.105	0.095
-648.784	-57.377	0.250	0.112
-647.770	-142.476	-0.128	0.013
-646.755	-84.549	0.222	-0.071
-645.741	74.634	-0.232	0.248
-644.726	-96.844	-0.160	-0.043
-643.711	110.831	0.110	-0.135
-642.697	-22.479	-0.300	-0.185
-641.682	-87.462	-0.165	-0.051
-640.668	159.390	-0.115	-0.163
-639.653	110.795	-0.179	-0.219
-638.638	-200.000	0.002	-0.129
-637.624	498.048	-0.111	0.259
-636.609	781.180	0.098	-0.272
-635.595	31.446	-0.104	0.091
-634.580	560.553	0.124	-0.304
-633.565	159.713	-0.064	-0.090
-632.551	39.841	-0.074	0.068
-631.536	76.246	0.236	0.254
-630.522	-30.672	-0.498	-0.287
-629.507	54.403	-0.231	0.226
-628.492	-176.730	-0.094	0.002
-627.478	800.000	0.059	-0.181
-626.463	-140.994	0.239	-0.025
-625.449	-20.781	0.133	-0.083
-624.434	-145.449	0.087	0.008
-623.419	627.793	0.087	0.224
-622.405	246.306	-0.034	0.058
-621.390	-65.923	0.061	0.025
-620.376	-200.000	0.020	0.158
-619.361	59.182	-0.142	0.142
-618.346	-200.000	0.006	-0.219
-617.332	-59.789	0.271	0.118
-616.317	-200.000	0.010	0.215
-615.303	211.297	-0.122	-0.195
-614.288	-54.992	-0.085	-0.039
-613.273	110.886	0.095	0.116
-612.259	-158.687	0.037	-0.002
-611.244	-60.771	0.037	0.016
-610.230	-42.158	0.268	-0.140
-609.215	122.677	-0.123	-0.156
-608.201	800.000	0.051	0.160
-607.186	-106.184	-0.322	-0.074
-606.171	-200.000	-0.036	0.207
-605.157	-98.426	0.045	-0.012
-604.142	51.284	0.260	0.251
-603.128	288.175	0.038	-0.070
-602.113	800.000	0.093	-0.364
-601.098	-87.613	0.305	0.094
-600.084	-126.107	0.128	0.020
-599.069	-200.000	0.041	-0.399
-598.055	-39.414	-0.151	-0.080
-597.040	13.582	-0.387	0.305
-596.025	-4.644	-0.107	-0.075
-595.011	-200.000	-0.015	0.225
-593.996	-3.864	0.187	-0.132
-592.982	-70.678	0.095	0.037
-591.967	800.000	-0.121	0.416
-590.952	-200.000	0.013	0.196
-589.938	-94.374	0.234	-0.065
-588.923	800.000	0.073	-0.252
-587.909	-28.547	-0.112	0.066
-586.894	-69.989	0.214	-0.083
-585.879	-158.868	-0.099	0.006
-584.865	-200.000	-0.024	0.117
-583.850	-137.842	-0.213	-0.024
-582.836	-76.221	0.189	0.068
-581.821	-80.300	0.204	-0.069
-580.806	-65.327	0.541	-0.221
-579.792	54.064	0.225	0.219
-578.777	-200.000	-0.025	-0.193
-577.763	10.095	0.120	-0.092
-576.748	-7.417	0.251	0.173
-575.733	-123.484	-0.356	0.058
-574.719	126.201	-0.139	-0.178
-573.704	118.718	-0.107	-0.134
-572.690	-83.673	0.176	-0.057
-571.675	604.508	0.177	0.447
-570.661	800.000	-0.057	0.180
-569.646	18.109	0.136	-0.110
-568.631	-200.000	-0.007	0.108
-567.617	-69.896	0.119	0.046
-566.602	327.577	-0.100	0.194
-565.588	-200.000	-0.056	-0.291
-564.573	-200.000	0.067	0.601
-563.558	74.557	0.130	-0.138
-562.544	7.231	-0.127	0.096
-561.529	-200.000	0.022	0.214
-560.515	613.017	0.091	-0.231
-559.500	-44.889	0.236	-0.119
-558.485	-200.000	0.028	-0.268
-557.471	625.044	-0.110	-0.282
-556.456	-10.926	0.240	-0.161
-555.442	435.540	0.159	-0.351
-554.427	425.735	0.045	0.099
-553.412	-56.751	0.423	0.190
-552.398	-200.000	0.031	0.196
-551.383	-63.127	-0.162	0.068
-550.369	-37.763	0.180	-0.097
-549.354	-111.788	0.307	0.063
-548.339	114.041	0.167	0.206
-547.325	602.837	-0.047	-0.120
-546.310	-79.109	0.204	0.070
-545.296	-131.692	-0.320	-0.043
-544.281	-57.178	0.346	0.155
-543.266	99.648	0.192	0.225
-542.252	104.352	0.066	0.078
-541.237	-61.637	0.145	-0.062
-540.223	-170.320	-0.095	-0.003
-539.208	800.000	0.034	0.128
-538.193	162.654	0.240	0.342
-537.179	-200.000	-0.001	0.269
-536.164	287.517	-0.067	-0.122
-535.150	-25.034	-0.306	0.184
-534.135	-1.422	-0.146	-0.105
-533.121	-200.000	-0.060	0.273
-532.106	-200.000	0.020	0.191
-531.091	34.021	0.080	-0.071
-530.077	-103.127	-0.298	-0.072
-529.062	-56.492	-0.106	0.048
-528.048	301.756	-0.046	0.086
-527.033	-200.000	-0.015	-0.156
-526.018	-103.190	0.198	0.047
-525.004	-48.917	-0.192	-0.093
-523.989	-123.011	-0.344	0.056
-522.975	-200.000	0.000	0.048
-521.960	116.057	0.094	-0.116
-520.945	-200.000	-0.001	0.143
-519.931	54.916	-0.259	0.253
-518.916	-24.011	-0.142	0.086
-517.902	800.000	0.084	0.236
-516.887	64.423	-0.126	0.129
-515.872	-51.178	-0.113	-0.053
-514.858	0.320	0.345	0.250
-513.843	-110.346	-0.099	0.021
-512.829	-200.000	0.047	0.317
-511.814	-9.498	0.167	-0.113
-510.799	21.701	0.114	-0.094
-509.785	468.630	0.052	0.118
-508.770	-104.566	0.024	0.006
-507.756	70.439	0.016	0.016
-506.741	137.142	-0.204	0.271
-505.726	232.852	0.132	-0.220
-504.712	107.765	-0.153	-0.185
-503.697	-176.576	0.189	0.005
-502.683	273.546	-0.089	0.160
-501.668	-200.000	0.055	-0.459
-500.653	83.739	0.190	0.210
-499.639	-39.127	-0.041	0.022
-498.624	-200.000	0.010	0.297
-497.610	-26.076	-0.292	-0.174
-496.595	-123.759	0.441	-0.071
-495.581	65.965	0.107	-0.110
-494.566	800.000	-0.115	-0.416
-493.551	-38.657	-0.283	-0.151
-492.537	198.079	-0.213	-0.330
-491.522	232.501	0.094	0.157
-490.508	-40.497	0.297	-0.156
-489.493	-195.092	0.284	-0.002
-488.478	-93.735	0.241	-0.067
-487.464	-33.592	-0.152	0.085
-486.449	159.249	0.185	-0.260
-485.435	-93.233	0.203	0.057
-484.420	-200.000	-0.014	-0.195
-483.405	16.694	-0.185	-0.148
-482.391	94.846	0.096	0.111
-481.376	193.726	0.122	0.187
-480.362	-173.809	0.254	0.008
-479.347	170.851	-0.142	-0.206
-478.332	-157.454	0.118	-0.007
-477.318	-165.832	-0.229	0.010
-476.303	59.300	0.123	0.122
-475.289	-128.794	-0.175	0.025
-474.274	-107.466	0.173	0.038
-473.259	415.786	-0.224	0.484
-472.245	311.291	-0.043	-0.081
-471.230	-87.067	0.393	0.121
-470.216	41.844	-0.262	0.240
-469.201	12.219	0.089	-0.069
-468.186	-200.000	0.033	-0.170
-467.172	-192.663	-0.355	0.003
-466.157	-200.000	0.025	0.148
-465.143	-157.845	0.074	-0.004
-464.128	-1.086	-0.266	0.190
-463.113	-200.000	0.025	0.248
-462.099	800.000	0.058	0.187
-461.084	-97.017	-0.106	-0.028
-460.070	544.013	0.102	-0.247
-459.055	-181.796	-0.094	0.002
-458.040	-9.871	-0.098	0.066
-457.026	517.796	0.092	0.217
-456.011	425.077	-0.123	-0.267
-454.997	180.408	0.122	-0.180
-453.982	-200.000	0.005	-0.090
-452.968	-134.318	-0.240	0.030
-451.953	-200.000	-0.005	0.106
-450.938	-200.000	-0.027	0.158
-449.924	82.723	-0.158	-0.174
-448.909	-128.345	0.285	-0.041
-447.895	272.081	0.050	-0.089
-446.880	29.637	0.179	0.154
-445.865	-200.000	0.007	0.075
-444.851	50.146	0.267	-0.255
-443.836	561.092	0.057	-0.138
-442.822	356.451	-0.105	-0.211
-441.807	-200.000	-0.028	0.317
-440.792	-103.367	-0.149	0.035
-439.778	412.676	-0.071	-0.152
-438.763	-200.000	0.008	-0.063
-437.749	52.735	-0.186	-0.180
-436.734	116.517	-0.095	-0.118
-435.719	-23.891	-0.139	-0.084
-434.705	41.783	-0.145	0.133
-433.690	37.698	0.167	-0.149
-432.676	-27.672	-0.051	0.030
-431.661	-200.000	-0.012	-0.223
-430.646	-86.937	-0.230	-0.071
-429.632	78.962	-0.148	-0.160
-428.617	589.326	0.006	0.016
-427.603	-67.298	-0.231	-0.092
-426.588	-97.492	0.104	0.027
-425.573	82.735	0.115	-0.126
-424.559	-17.644	-0.150	0.095
-423.544	-200.000	0.042	0.229
-422.530	136.749	0.159	-0.210
-421.515	-24.946	-0.158	0.095
-420.500	32.384	0.259	0.226
-419.486	-36.653	-0.084	0.046
-418.471	800.000	0.077	0.315
-417.457	293.292	-0.071	0.131
-416.442	716.525	0.066	0.178
-415.428	-130.700	0.338	-0.046
-414.413	800.000	0.067	0.247
-413.398	-163.159	-0.185	-0.009
-412.384	-14.729	-0.095	0.062
-411.369	-75.056	-0.127	-0.046
-410.355	-200.000	-0.001	0.255
-409.340	179.626	0.070	-0.104
-408.325	-70.604	0.366	-0.140
-407.311	-55.038	0.053	0.024
-406.296	176.312	0.185	0.271
-405.282	405.403	-0.092	0.196
-404.267	800.000	0.032	-0.096
-403.252	-62.443	-0.288	0.121
-402.238	-200.000	0.040	-0.181
-401.223	276.876	0.091	0.164
-400.209	-133.874	0.044	0.006
-399.194	-200.000	0.009	-0.087
-398.179	-69.390	-0.070	-0.027
-397.165	-200.000	0.015	-0.084
-396.150	8.312	-0.289	0.219
-395.136	-79.819	0.264	0.090
-394.121	-81.894	-0.112	-0.037
-393.106	-73.604	-0.304	0.112
-392.092	-115.802	0.206	-0.039
-391.077	-54.270	0.233	-0.107
-390.063	-118.914	0.105	-0.019
-389.048	-91.108	0.162	0.047
-388.033	-105.597	-0.233	0.053
-387.019	800.000	0.056	0.230
-386.004	-91.740	-0.188	-0.054
-384.990	-200.000	0.017	0.087
-383.975	-101.980	-0.148	0.036
-382.960	-3.021	0.144	0.101
-381.946	111.039	0.067	0.082
-380.931	-200.000	0.017	0.295
-379.917	37.580	-0.029	-0.026
-378.902	800.000	-0.026	-0.104
-377.888	-39.291	-0.257	0.136
-376.873	54.265	-0.045	-0.044
-375.858	392.232	0.122	-0.256
-374.844	-200.000	-0.027	0.149
-373.829	181.115	-0.156	0.230
-372.815	249.425	-0.041	-0.069
-371.800	31.122	0.350	-0.303
-370.785	-100.069	0.227	-0.057
-369.771	85.225	0.253	-0.280
-368.756	695.070	0.110	0.290
-367.742	18.246	0.130	0.105
-366.727	-200.000	-0.041	0.441
-365.712	-108.078	0.157	-0.034
-364.698	608.166	0.045	-0.112
-363.683	368.622	0.184	-0.375
-362.669	-200.000	-0.005	0.256
-361.654	296.625	-0.078	-0.145
-360.639	-47.124	-0.167	-0.082
-359.625	13.661	-0.200	-0.156
-358.610	-200.000	-0.010	0.164
-357.596	41.295	0.161	0.147
-356.581	160.966	-0.098	-0.138
-355.566	-81.617	-0.145	-0.048
-354.552	61.069	-0.072	0.072
-353.537	-35.602	-0.248	-0.135
-352.523	-200.000	-0.030	-0.226
-351.508	128.775	0.045	-0.057
-350.493	800.000	-0.087	0.321
-349.479	14.344	0.134	0.105
-348.464	-146.290	-0.144	-0.013
-347.450	-200.000	0.033	-0.404
-346.435	-54.057	-0.236	-0.108
-345.420	-107.555	-0.097	0.021
-344.406	-125.831	0.323	-0.049
-343.391	800.000	0.062	0.250
-342.377	-29.656	-0.236	-0.135
-341.362	474.624	0.080	0.181
-340.348	-200.000	0.022	-0.482
-339.333	-75.169	0.469	0.169
-338.318	-108.557	-0.189	0.041
-337.304	800.000	0.013	-0.039
-336.289	-103.247	-0.077	-0.018
-335.275	-17.626	0.271	-0.172
-334.260	-131.825	0.172	0.023
-333.245	21.822	0.128	0.105
-332.231	800.000	-0.060	0.208
-331.216	260.574	0.044	-0.076
-330.202	-200.000	0.120	0.565
-329.187	612.482	-0.117	0.294
-328.172	-9.842	0.187	0.125
-327.158	-200.000	-0.006	-0.124
-326.143	-32.405	-0.227	-0.128
-325.129	-200.000	-0.010	-0.244
-324.114	-110.942	-0.143	0.030
-323.099	-93.840	0.183	-0.051
-322.085	800.000	0.124	-0.443
-321.070	487.583	0.129	-0.297
-320.056	-120.364	0.182	-0.031
-319.041	-181.994	0.255	-0.005
-318.026	-190.170	-0.233	-0.003
-317.012	140.534	0.122	-0.161
-315.997	-53.621	-0.100	-0.046
-314.983	-134.628	0.123	-0.015
-313.968	44.153	0.228	0.211
-312.953	263.264	0.188	0.329
-311.939	-140.303	-0.166	0.017
-310.924	-86.930	0.228	-0.070
-309.910	-137.763	-0.399	0.045
-308.895	-52.557	-0.238	0.111
-307.880	-200.000	0.022	-0.176
-306.866	-117.344	-0.142	-0.026
-305.851	-200.000	0.011	-0.264
-304.837	-200.000	0.081	-0.410
-303.822	-22.518	0.222	0.135
-302.807	-126.348	-0.101	-0.015
-301.793	207.599	0.180	0.282
-300.778	-200.000	0.024	-0.343
-299.764	-94.780	-0.165	0.045
-298.749	-200.000	-0.064	0.292
-297.735	141.047	0.199	-0.264
-296.720	-34.558	0.181	-0.099
-295.705	134.213	0.074	-0.097
-294.691	723.086	-0.166	0.444
-293.676	131.307	-0.067	-0.087
-292.662	64.812	0.139	0.141
-291.647	800.000	0.063	0.275
-290.632	47.297	-0.237	-0.222
-289.618	576.970	0.028	0.068
-288.603	-157.705	-0.192	0.011
-287.589	-143.590	0.373	0.036
-286.574	589.201	0.039	-0.096
-285.559	-48.425	-0.026	-0.012
-284.545	-200.000	-0.033	0.159
-283.530	800.000	-0.083	-0.338
-282.516	800.000	-0.032	-0.133
-281.501	-158.573	0.119	0.007
-280.486	-116.656	-0.064	0.012
-279.472	359.892	-0.037	-0.073
-278.457	-200.000	0.015	0.079
-277.443	-83.797	0.152	-0.049
-276.428	602.555	-0.076	-0.189
-275.413	-26.012	0.233	0.138
-274.399	-55.410	-0.099	0.045
-273.384	175.436	0.186	0.271
-272.370	-161.870	0.257	0.013
-271.355	-200.000	0.009	-0.041
-270.340	-37.321	-0.390	0.209
-269.326	58.036	-0.071	-0.069
-268.311	129.753	0.015	0.019
-267.297	-29.706	-0.276	0.158
-266.282	-89.617	-0.349	0.103
-265.267	-183.075	-0.312	-0.006
-264.253	398.412	0.089	-0.187
-263.238	171.014	-0.081	0.116
-262.224	-200.000	-0.016	0.127
-261.209	-200.000	-0.001	0.232
-260.195	726.668	0.051	-0.137
-259.180	-200.000	0.084	-0.419
-258.165	310.162	0.073	0.137
-257.151	-142.630	-0.221	0.022
-256.136	-98.874	-0.341	0.087
-255.122	170.357	0.021	-0.030
-254.107	800.000	-0.066	-0.195
-253.092	-3.223	-0.111	0.078
-252.078	78.240	-0.297	0.318
-251.063	72.333	0.221	-0.231
-250.049	-83.574	-0.141	0.045
-249.034	-111.624	-0.191	-0.039
-248.019	242.276	-0.118	-0.198
-247.005	800.000	0.010	0.040
-245.990	800.000	-0.059	-0.223
-244.976	44.874	0.125	0.115
-243.961	-200.000	-0.019	-0.125
-242.946	-200.000	-0.028	-0.245
-241.932	42.070	-0.201	-0.183
-240.917	-93.850	0.048	0.013
-239.903	800.000	-0.106	0.301
-238.888	156.298	0.102	0.141
-237.873	-68.770	-0.247	0.096
-236.859	15.938	-0.226	0.178
-235.844	-200.000	0.022	-0.363
-234.830	-200.000	-0.006	-0.156
-233.815	-89.997	0.233	-0.068
-232.800	160.052	-0.120	0.168
-231.786	473.913	0.112	-0.254
-230.771	-200.000	0.053	0.239
-229.757	772.304	0.027	-0.073
-228.742	-113.925	-0.186	0.036
-227.727	130.227	0.092	-0.119
-226.713	-48.611	-0.306	0.147
-225.698	110.577	-0.172	0.207
-224.684	2.639	0.053	-0.038
-223.669	234.223	-0.160	-0.264
-222.655	67.642	0.223	-0.228
-221.640	-3.335	-0.234	-0.163
-220.625	5.047	0.234	-0.172
-219.611	800.000	-0.076	-0.296
-218.596	126.500	0.318	-0.403
-217.582	-133.714	0.206	-0.026
-216.567	-132.683	-0.257	0.033
-215.552	-3.394	0.332	-0.231
-214.538	544.891	0.046	0.110
-213.523	-14.243	0.156	0.101
-212.509	-51.614	0.238	-0.111
-211.494	11.800	-0.146	-0.112
-210.479	63.754	0.180	0.181
-209.465	-132.784	-0.105	0.013
-208.450	-24.676	-0.128	-0.076
-207.436	209.235	-0.073	0.115
-206.421	-63.203	-0.385	-0.159
-205.406	-11.448	-0.156	-0.102
-204.392	-200.000	-0.000	0.014
-203.377	-200.000	-0.009	0.041
-202.363	289.769	0.078	-0.141
-201.348	-59.894	-0.223	0.095
-200.333	-138.302	0.100	-0.011
-199.319	294.934	0.173	-0.316
-198.304	-60.218	-0.189	0.081
-197.290	2.348	0.197	0.142
-196.275	361.373	-0.078	0.157
-195.260	81.625	-0.251	-0.272
-194.246	179.779	0.063	-0.093
-193.231	-110.604	0.088	0.018
-192.217	40.132	0.097	-0.087
-191.202	246.157	-0.108	-0.182
-190.187	-74.122	-0.286	-0.104
-189.173	56.230	0.056	-0.054
-188.158	-40.688	-0.101	0.053
-187.144	79.410	0.232	0.249
-186.129	800.000	-0.026	0.112
-185.114	96.274	-0.204	0.234
-184.100	-41.377	-0.085	0.044
-183.085	-15.260	-0.207	-0.133
-182.071	-200.000	-0.015	0.302
-181.056	231.983	-0.042	0.069
-180.042	-200.000	-0.107	-0.530
-179.027	-200.000	0.009	-0.039
-178.012	-65.935	-0.386	-0.154
-176.998	-70.333	-0.181	0.069
-175.983	-200.000	-0.001	-0.052
-174.969	648.648	-0.082	0.211
-173.954	-156.147	0.161	-0.010
-172.939	318.364	-0.100	-0.189
-171.925	-73.186	0.162	-0.059
-170.910	35.959	-0.031	-0.027
-169.896	-183.214	-0.207	-0.004
-168.881	800.000	0.023	-0.074
-167.866	-200.000	-0.006	-0.173
-166.852	691.237	0.146	0.381
-165.837	-33.478	0.091	-0.050
-164.823	39.830	-0.200	-0.180
-163.808	185.216	-0.174	-0.258
-162.793	65.162	-0.044	-0.044
-161.779	-200.000	-0.037	0.240
-160.764	127.079	-0.167	-0.212
-159.750	106.581	-0.197	0.233
-158.735	-200.000	-0.047	-0.240
-157.720	128.879	-0.114	0.145
-156.706	580.174	0.127	0.312
-155.691	-95.795	-0.224	0.060
-154.677	-200.000	0.028	-0.210
-153.662	-113.241	0.330	-0.065
-152.647	80.148	-0.077	0.082
-151.633	-87.548	0.093	-0.028
-150.618	800.000	0.045	-0.171
-149.604	629.747	-0.030	-0.076
-148.589	5.902	0.227	-0.168
-147.574	149.004	-0.128	0.173
-146.560	32.365	0.216	-0.187
-145.545	243.363	-0.134	-0.225
-144.531	-72.778	0.297	0.109
-143.516	-129.872	-0.235	0.032
-142.502	-70.797	0.116	-0.044
-141.487	135.649	-0.109	-0.142
-140.472	422.594	-0.108	0.231
-139.458	442.644	0.043	0.095
-138.443	-47.243	-0.062	-0.030
-137.429	129.524	-0.067	0.086
-136.414	11.543	0.089	0.068
-135.399	55.392	0.318	0.307
-134.385	-200.000	0.021	-0.249
-133.370	-200.000	0.034	-0.325
-132.356	-129.763	-0.424	-0.058
-131.341	-33.158	0.221	-0.122
-130.326	800.000	0.066	-0.271
-129.312	280.545	-0.251	0.448
-128.297	361.452	-0.051	-0.101
-127.283	-200.000	-0.075	-0.385
-126.268	-200.000	-0.032	-0.196
-125.253	800.000	-0.071	0.299
-124.239	-96.748	-0.165	0.043
-123.224	-84.811	-0.202	-0.063
-122.210	512.195	-0.203	-0.472
-121.195	613.246	-0.079	0.198
-120.180	-200.000	-0.002	-0.017
-119.166	-56.953	-0.148	-0.065
-118.151	-200.000	0.020	0.117
-117.137	-124.820	-0.251	-0.039
-116.122	-116.055	0.126	0.023
-115.107	-200.000	0.038	0.266
-114.093	-200.000	0.024	-0.133
-113.078	3.726	0.073	-0.053
-112.064	782.754	-0.046	0.127
-111.049	-200.000	0.023	0.123
-110.034	285.496	-0.192	0.344
-109.020	-108.760	0.284	-0.061
-108.005	-9.519	0.065	0.043
-106.991	134.844	-0.086	-0.112
-105.976	-108.274	0.175	-0.038
-104.962	800.000	-0.084	-0.334
-103.947	151.502	0.148	-0.201
-102.932	299.388	-0.164	-0.301
-101.918	-200.000	0.019	0.091
-100.903	-56.895	0.137	-0.060
-99.889	-200.000	-0.386	0.000
-98.874	-200.000	-0.002	-0.207
-97.859	-200.000	0.064	0.450
-96.845	-100.883	-0.208	0.051
-95.830	13.832	0.179	0.139
-94.816	118.821	0.072	-0.088
-93.801	800.000	-0.079	0.278
-92.786	-68.243	0.162	0.063
-91.772	-30.235	0.183	0.103
-90.757	13.958	-0.151	-0.117
-89.743	-200.000	0.006	0.167
-88.728	-200.000	-0.039	-0.258
-87.713	-200.000	0.026	-0.322
-86.699	-182.096	0.265	-0.005
-85.684	-137.342	-0.127	-0.014
-84.670	187.180	-0.155	-0.230
-83.655	800.000	-0.027	-0.086
-82.640	-23.890	0.101	0.060
-81.626	800.000	-0.115	-0.440
-80.611	-29.491	-0.036	-0.020
-79.597	-200.000	-0.017	-0.158
-78.582	-200.000	-0.025	0.280
-77.567	-200.000	-0.008	-0.200
-76.553	504.385	0.123	-0.283
-75.538	-25.628	0.101	-0.059
-74.524	-200.000	0.085	-0.487
-73.509	-200.000	0.021	0.103
-72.494	-35.072	0.236	-0.128
-71.480	138.835	-0.095	-0.124
-70.465	-100.914	0.156	-0.038
-69.451	-200.000	0.056	0.254
-68.436	555.097	-0.101	0.241
-67.422	800.000	0.088	0.325
-66.407	68.686	-0.122	0.125
-65.392	800.000	0.041	0.120
-64.378	-170.788	-0.206	-0.007
-63.363	-200.000	0.016	-0.296
-62.349	220.219	-0.143	0.228
-61.334	57.643	-0.786	-0.764
-60.319	-69.371	0.423	0.162
-59.305	-200.000	-0.170	-0.834
-58.290	212.108	0.346	0.542
-57.276	735.723	0.589	1.570
-56.261	-200.000	75.629	548.002
-55.246	522.372	1351.193	3157.895
-54.232	137.640	2599.050	3386.597
-53.217	119.866	2256.034	2783.252
-52.203	55.075	1683.765	1618.936
-51.188	46.371	1400.364	1292.074
-50.173	42.513	1353.704	1225.485
-49.159	60.988	1388.256	1370.838
-48.144	68.891	1407.005	1437.793
-47.130	46.925	1368.997	1266.331
-46.115	42.696	1352.456	1225.281
-45.100	42.359	1347.877	1219.035
-44.086	42.412	1345.305	1216.980
-43.071	42.159	1343.325	1213.609
-42.057	42.152	1340.880	1211.311
-41.042	42.183	1338.723	1209.502
-40.027	42.165	1337.459	1208.205
-39.013	42.311	1335.122	1206.923
-37.998	42.327	1333.375	1205.393
-36.984	42.434	1331.401	1204.198
-35.969	42.400	1329.763	1202.470
-34.954	42.489	1327.947	1201.308
-33.940	42.531	1327.082	1200.732
-32.925	42.575	1325.143	1199.191
-31.911	42.486	1323.326	1196.968
-30.896	42.524	1321.788	1195.756
-29.881	42.482	1320.662	1194.444
-28.867	42.486	1319.047	1192.958
-27.852	42.435	1317.534	1191.241
-26.838	42.443	1315.833	1189.703
-25.823	42.441	1314.520	1188.452
-24.809	42.416	1313.235	1187.098
-23.794	42.487	1311.546	1185.941
-22.779	42.440	1310.106	1184.319
-21.765	42.668	1308.486	1184.148
-20.750	42.468	1307.851	1182.350
-19.736	42.288	1306.482	1180.008
-18.721	42.310	1304.806	1178.572
-17.706	42.289	1304.215	1177.871
-16.692	42.318	1302.923	1176.829
-15.677	42.336	1301.406	1175.515
-14.663	42.372	1300.261	1174.646
-13.648	42.373	1299.466	1173.888
-12.633	42.368	1297.984	1172.470
-11.619	42.258	1297.681	1171.510
-10.604	42.169	1296.829	1170.174
-9.590	42.261	1295.477	1169.441
-8.575	42.088	1294.867	1167.840
-7.560	42.150	1293.717	1167.116
-6.546	42.312	1292.629	1167.033
-5.531	42.260	1291.608	1165.762
-4.517	42.225	1290.482	1164.492
-3.502	42.333	1289.885	1164.538
-2.487	42.284	1288.609	1163.052
-1.473	42.399	1284.932	1160.357
-0.458	41.158	1270.416	1140.097
0.556	35.511	1250.012	1096.980
1.571	30.929	1252.561	1072.813
2.586	29.169	1266.749	1074.613
3.600	27.423	1255.859	1055.170
4.615	23.359	1185.405	973.604
5.629	17.436	1110.086	881.091
6.644	14.265	1088.660	847.881
7.659	13.947	1085.863	844.014
8.673	13.870	1084.765	842.694
9.688	13.829	1083.137	841.145
10.702	14.083	1081.878	841.380
11.717	17.823	1086.666	864.001
12.731	21.747	1091.267	887.497
13.746	20.304	1088.508	877.878
14.761	17.761	1084.580	861.802
15.775	16.500	1081.725	853.099
16.790	15.384	1079.911	845.971
17.804	14.708	1078.066	841.047
18.819	14.187	1076.699	837.281
19.834	13.880	1075.465	834.704
20.848	13.550	1075.121	832.709
21.863	13.550	1073.645	831.488
22.877	13.265	1073.215	829.654
23.892	13.177	1072.999	828.970
24.907	13.235	1071.530	828.056
25.921	13.354	1070.619	827.871
26.936	13.292	1069.807	826.861
27.950	13.311	1068.261	825.690
28.965	13.403	1066.432	824.660
29.980	13.612	1064.609	824.217
30.994	13.429	1063.858	822.654
32.009	13.518	1062.910	822.289
33.023	13.434	1061.804	820.942
34.038	13.506	1060.244	820.021
35.053	13.427	1059.620	819.074
36.067	13.377	1058.542	817.924
37.082	13.329	1057.962	817.166
38.096	13.419	1057.344	817.058
39.111	13.429	1056.555	816.429
40.126	13.265	1055.570	814.786
41.140	13.217	1053.735	813.059
42.155	13.147	1052.995	812.075
43.169	13.165	1051.893	811.241
44.184	13.186	1051.010	810.591
45.199	13.156	1049.434	809.155
46.213	13.390	1048.120	809.218
47.228	13.379	1047.290	808.449
48.242	13.266	1046.704	807.376
49.257	13.359	1045.554	806.869
50.271	13.286	1044.852	805.902
51.286	13.329	1044.129	805.480
52.301	13.412	1042.627	804.653
53.315	13.313	1041.652	803.350
54.330	13.293	1040.856	802.569
55.344	13.176	1039.732	801.063
56.359	13.345	1038.911	801.180
57.374	13.390	1037.923	800.561
58.388	13.233	1036.983	799.008
59.403	13.105	1036.731	798.123
60.417	13.107	1035.423	797.056
61.432	13.141	1034.481	796.426
62.447	13.068	1034.175	795.768
63.461	13.176	1033.162	795.438
64.476	13.130	1032.047	794.290
65.490	13.192	1031.162	793.833
66.505	13.192	1030.391	793.168
67.520	13.132	1029.968	792.487
68.534	13.251	1029.175	792.378
69.549	13.170	1028.220	791.184
70.563	13.234	1026.972	790.461
71.578	13.114	1026.718	789.620
72.593	13.067	1026.039	788.806
73.607	13.006	1025.708	788.189
74.622	13.125	1024.801	787.988
75.636	13.033	1024.252	787.058
76.651	13.019	1023.165	786.089
77.666	13.160	1022.840	786.440
78.680	13.079	1022.236	785.519
79.695	13.158	1021.711	785.424
80.709	13.126	1020.909	784.583
81.724	13.147	1020.394	784.217
82.739	13.156	1019.346	783.388
83.753	13.260	1018.927	783.491
84.768	13.391	1017.885	783.240
85.782	13.480	1016.676	782.657
86.797	13.427	1015.861	781.711
87.812	13.383	1015.355	781.046
88.826	13.356	1014.088	779.877
89.841	13.425	1013.098	779.370
90.855	13.435	1012.178	778.641
91.870	13.470	1011.493	778.209
92.884	13.485	1010.475	777.426
93.899	13.452	1009.731	776.629
94.914	13.450	1008.813	775.848
95.928	13.552	1008.333	775.885
96.943	13.627	1007.188	775.288
97.957	13.521	1006.255	774.007
98.972	13.503	1005.666	773.401
99.987	13.506	1004.550	772.488
101.001	13.585	1003.679	772.118
102.016	13.439	1002.998	770.843
103.030	13.515	1002.119	770.454
104.045	13.506	1001.241	769.668
105.060	13.421	1000.718	768.804
106.074	13.504	998.912	767.732
107.089	13.296	998.058	766.049
108.103	13.142	998.259	765.418
109.118	13.175	996.595	764.229
110.133	13.293	995.718	764.037
111.147	13.330	994.737	763.384
112.162	13.305	993.977	762.617
113.176	13.354	993.313	762.268
114.191	13.327	992.863	761.729
115.206	13.349	991.354	760.604
116.220	13.314	991.076	760.167
117.235	13.378	989.590	759.249
118.249	13.282	989.358	758.566
119.264	13.342	988.224	757.905
120.279	13.333	987.408	757.171
121.293	13.352	986.651	756.611
122.308	13.230	985.728	755.280
123.322	13.228	984.270	754.086
124.337	13.315	983.530	753.845
125.352	13.400	982.298	753.223
126.366	13.201	981.661	751.765
127.381	13.322	980.355	751.245
128.395	13.258	979.849	750.502
129.410	13.339	978.743	749.955
130.424	13.479	977.545	749.603
131.439	13.456	977.140	749.125
132.454	13.525	976.178	748.631
133.468	13.560	975.387	748.116
134.483	13.463	974.398	746.855
135.497	13.441	973.823	746.249
136.512	13.567	972.663	745.860
137.527	13.449	972.264	744.960
138.541	13.445	971.576	744.347
139.556	13.503	970.808	743.955
140.570	13.501	969.929	743.206
141.585	13.530	969.412	742.871
142.600	13.541	968.402	742.081
143.614	13.718	967.181	741.873
144.629	13.706	966.862	741.509
145.643	13.722	965.731	740.649
146.658	13.621	964.850	739.455
147.673	13.621	963.787	738.574
148.687	13.517	962.913	737.377
149.702	13.491	961.883	736.407
150.716	13.347	961.480	735.393
151.731	13.389	960.867	735.048
152.746	13.514	960.066	734.924
153.760	13.631	959.282	734.776
154.775	13.598	958.919	734.290
155.789	13.532	958.140	733.336
156.804	13.534	957.642	732.897
157.819	13.573	956.867	732.410
158.833	13.691	955.942	732.160
159.848	13.599	955.228	731.144
160.862	13.702	954.080	730.653
161.877	13.705	953.059	729.819
162.892	13.534	952.004	728.194
163.906	13.613	951.342	727.974
164.921	13.731	950.129	727.498
165.935	13.630	949.467	726.483
166.950	13.600	948.689	725.692
167.964	13.809	947.437	725.586
168.979	13.640	946.806	724.299
169.994	13.705	945.832	723.772
171.008	13.666	945.192	723.048
172.023	13.787	944.724	723.152
173.037	13.783	943.766	722.338
174.052	13.727	943.172	721.577
175.067	13.730	942.405	720.939
176.081	13.688	942.310	720.619
177.096	13.738	941.217	719.937
178.110	13.749	940.826	719.622
179.125	13.655	940.105	718.600
180.140	13.845	939.637	719.000
181.154	13.675	939.402	718.024
182.169	13.790	938.773	717.977
183.183	13.960	937.546	717.709
184.198	13.841	937.196	716.864
185.213	14.006	936.391	716.895
186.227	14.019	935.466	716.182
187.242	13.944	935.042	715.468
188.256	13.998	934.472	715.203
189.271	14.030	933.548	714.569
190.286	13.955	932.874	713.668
191.300	13.702	932.016	711.861
192.315	13.683	931.726	711.498
193.329	13.733	931.075	711.149
194.344	13.882	930.395	711.205
195.359	13.737	929.839	710.098
196.373	14.033	928.895	710.578
197.388	14.039	928.433	710.189
198.402	14.154	928.069	710.340
199.417	14.113	927.636	709.772
200.432	14.165	926.947	709.401
201.446	14.237	926.482	709.290
202.461	14.249	926.183	709.050
203.475	14.175	925.536	708.174
204.490	14.118	924.164	706.821
205.504	14.082	923.992	706.476
206.519	14.142	923.069	705.962
207.534	14.263	922.211	705.754
208.548	14.149	921.659	704.788
209.563	14.097	921.269	704.208
210.577	14.215	920.332	703.926
211.592	14.277	919.493	703.485
212.607	14.334	918.974	703.267
213.621	14.315	918.293	702.604
214.636	14.365	917.383	702.054
215.650	14.415	916.574	701.584
216.665	14.397	915.884	700.918
217.680	14.402	915.521	700.601
218.694	14.514	914.810	700.464
219.709	14.446	914.016	699.511
220.723	14.534	913.371	699.324
221.738	14.444	912.490	698.211
222.753	14.387	911.935	697.486
223.767	14.317	911.615	696.883
224.782	14.487	910.853	696.950
225.796	14.553	910.302	696.743
226.811	14.542	909.627	696.120
227.826	14.304	909.376	694.874
228.840	14.312	908.891	694.473
229.855	14.514	907.456	694.157
230.869	14.348	906.778	692.885
231.884	14.519	905.606	692.640
232.899	14.502	905.234	692.223
233.913	14.469	904.534	691.488
234.928	14.472	903.973	691.012
235.942	14.428	903.394	690.325
236.957	14.334	903.082	689.638
237.972	14.482	902.283	689.578
238.986	14.417	901.729	688.826
240.001	14.557	900.865	688.682
241.015	14.548	900.224	688.094
242.030	14.497	899.875	687.555
243.045	14.588	899.232	687.381
244.059	14.632	898.715	687.104
245.074	14.612	897.892	686.333
246.088	14.689	897.025	685.925
247.103	14.621	896.741	685.369
248.117	14.634	896.172	684.927
249.132	14.779	895.660	685.068
250.147	14.855	894.674	684.564
251.161	14.990	894.470	684.901
252.176	15.023	893.523	684.249
253.190	15.096	892.650	683.820
254.205	14.977	892.223	682.946
255.220	15.070	891.424	682.654
256.234	15.016	891.086	682.113
257.249	14.964	890.297	681.239
258.263	15.197	889.213	681.296
259.278	15.094	888.974	680.633
260.293	15.096	888.329	680.090
261.307	15.142	887.676	679.716
262.322	15.097	887.241	679.138
263.336	15.195	886.130	678.626
264.351	15.262	885.631	678.454
265.366	15.261	885.094	677.978
266.380	15.156	884.949	677.382
267.395	15.184	883.573	676.382
268.409	15.157	883.338	676.035
269.424	15.188	882.266	675.278
270.439	15.169	881.319	674.420
271.453	15.117	880.842	673.783
272.468	15.119	880.760	673.671
273.482	15.288	879.655	673.443
274.497	15.182	879.040	672.487
275.512	15.196	878.575	672.127
276.526	15.315	878.017	672.121
277.541	15.268	877.516	671.488
278.555	15.368	876.990	671.426
279.570	15.377	876.656	671.148
280.585	15.465	875.409	670.485
281.599	15.488	874.466	669.796
282.614	15.238	874.220	668.550
283.628	15.306	873.784	668.431
284.643	15.416	872.749	668.017
285.657	15.359	872.662	667.663
286.672	15.306	871.586	666.569
287.687	15.542	870.922	666.941
288.701	15.441	870.580	666.219
289.716	15.435	870.221	665.860
290.730	15.507	869.417	665.475
291.745	15.510	868.842	664.987
292.760	15.591	868.490	664.980
293.774	15.582	867.890	664.426
294.789	15.669	866.437	663.596
295.803	15.648	866.030	663.142
296.818	15.620	865.542	662.599
297.833	15.601	864.652	661.784
298.847	15.730	863.975	661.716
299.862	15.784	863.635	661.608
300.876	15.508	863.639	660.470
301.891	15.680	862.665	660.342
302.906	15.687	862.541	660.214
303.920	15.774	861.751	659.894
304.935	15.872	861.297	659.872
305.949	15.822	860.537	659.034
306.964	15.735	859.820	658.086
307.979	15.803	859.378	657.957
308.993	15.820	858.927	657.619
310.008	15.842	858.497	657.319
311.022	15.875	857.812	656.863
312.037	15.763	857.088	655.815
313.052	15.815	855.959	655.096
314.066	15.838	855.959	655.129
315.081	15.766	855.231	654.233
316.095	16.008	854.592	654.628
317.110	15.862	854.284	653.767
318.125	15.824	853.500	652.960
319.139	15.751	853.285	652.453
320.154	15.925	852.628	652.569
321.168	15.967	852.048	652.230
322.183	15.851	851.456	651.271
323.197	15.961	850.846	651.171
324.212	15.960	850.368	650.742
325.227	15.959	849.897	650.320
326.241	15.881	848.988	649.268
327.256	15.846	848.714	648.867
328.270	15.884	848.036	648.435
329.285	15.918	847.400	648.023
330.300	15.996	846.658	647.701
331.314	15.912	846.252	647.009
332.329	15.948	846.139	647.003
333.343	16.064	845.820	647.148
334.358	16.023	845.403	646.615
335.373	16.036	845.131	646.397
336.387	16.175	844.472	646.369
337.402	16.161	844.344	646.161
338.416	16.159	844.234	646.012
339.431	16.453	843.164	646.260
340.446	16.318	842.939	645.512
341.460	16.245	842.953	645.187
342.475	16.296	842.127	644.693
343.489	16.370	841.715	644.605
344.504	16.319	841.358	644.078
345.519	16.529	840.584	644.231
346.533	16.359	840.219	643.246
347.548	16.392	839.350	642.648
348.562	16.339	839.148	642.236
349.577	16.330	838.295	641.492
350.592	16.370	837.664	641.104
351.606	16.349	836.884	640.373
352.621	16.394	836.422	640.132
353.635	16.395	835.758	639.571
354.650	16.409	835.242	639.171
355.665	16.483	834.689	638.971
356.679	16.454	833.865	638.176
357.694	16.513	833.213	637.844
358.708	16.514	832.562	637.291
359.723	16.563	832.393	637.289
360.738	16.431	831.802	636.285
361.752	16.399	831.190	635.641
362.767	16.624	830.503	635.903
363.781	16.745	829.870	635.818
364.796	16.765	829.330	635.424
365.810	16.756	829.204	635.237
366.825	16.581	829.220	634.533
367.840	16.827	828.488	634.841
368.854	16.754	827.787	633.975
369.869	16.799	827.366	633.764
370.883	16.803	827.014	633.453
371.898	16.863	826.653	633.345
372.913	16.946	826.153	633.216
373.927	16.811	825.838	632.413
374.942	16.783	825.218	631.778
375.956	16.953	824.773	632.016
376.971	16.948	824.361	631.626
377.986	16.964	824.024	631.371
379.000	16.982	823.307	630.831
380.015	17.069	822.503	630.484
381.029	16.943	822.379	629.864
382.044	17.087	821.482	629.656
383.059	17.094	821.098	629.331
384.073	16.972	820.485	628.355
385.088	16.965	819.882	627.813
386.102	16.953	819.586	627.486
387.117	16.983	818.967	627.065
388.132	17.045	818.019	626.513
389.146	17.053	817.733	626.270
390.161	17.150	817.446	626.352
391.175	17.019	817.225	625.645
392.190	17.041	816.427	625.059
393.205	17.055	815.769	624.552
394.219	17.074	815.563	624.408
395.234	17.042	815.235	623.985
396.248	17.010	814.430	623.195
397.263	17.004	814.362	623.065
398.278	16.997	814.013	622.719
399.292	17.018	813.483	622.335
400.307	17.050	812.875	621.933
401.321	17.062	812.317	621.493
402.336	17.079	811.866	621.156
403.350	17.050	811.593	620.784
404.365	17.163	811.056	620.731
405.380	17.234	810.531	620.536
406.394	17.483	809.826	620.848
407.409	17.307	809.296	619.748
408.423	17.220	809.413	619.466
409.438	17.427	808.664	619.591
410.453	17.502	808.599	619.756
411.467	17.462	808.060	619.144
412.482	17.438	807.910	618.887
413.496	17.363	807.444	618.202
414.511	17.633	806.812	618.646
415.526	17.448	806.932	618.010
416.540	17.373	806.088	617.039
417.555	17.472	805.618	616.981
418.569	17.669	805.048	617.204
419.584	17.497	804.875	616.395
420.599	17.694	804.343	616.644
421.613	87.316	1255.892	1338.511
422.628	74.463	1321.718	1338.640
