DTS Sentinel unit serial number:	SN413079Multiplexer serial number:	ORYXHardware model number:	OX4-SRSoftware version number:	ORYX F/W v4.00 Oryx Data Collector v3.7.2.0data status	okinstallation	princeton_trtdifferential loss correction	single-endedforward channel	channel 1reverse channel	N/Adate	2019/09/17time	08:30:35forward acquisition time	60.00reverse acquisition time	0.00gamma	496.2192k internal	0.2328k external	0.2328temperature offset calibration	0.9966default loss term (dB/km)	0.3790temperature slope calibration	1.0000multiplexer offset coefficient	1.0000multiplexer slope coefficient	1.0000fibre end	0.00T internal ref (°C)	27.56T ext. ref 1 (°C)	0.14T ext. ref 2 (°C)	23.06length (m)	temperature (°C)	Stokes	anti-Stokes-747.200	-53.377	-0.091	-0.042
-746.185	327.737	0.071	-0.137
-745.171	15.901	-0.250	0.199
-744.156	-140.481	0.315	0.033
-743.142	239.518	-0.086	-0.144
-742.127	-88.890	-0.475	0.142
-741.112	11.368	0.146	-0.112
-740.098	74.234	-0.233	0.246
-739.083	-147.538	0.223	-0.019
-738.069	-200.000	0.011	0.341
-737.054	52.101	-0.028	-0.027
-736.039	32.634	0.081	-0.070
-735.025	72.214	0.199	-0.209
-734.010	26.026	-0.196	-0.164
-732.996	-200.000	0.017	0.137
-731.981	-126.282	-0.267	0.040
-730.966	274.569	-0.234	-0.417
-729.952	-87.872	-0.148	0.045
-728.937	5.219	0.172	0.128
-727.923	-95.453	-0.386	-0.104
-726.908	90.697	0.239	0.270
-725.894	393.307	0.046	-0.095
-724.879	-200.000	-0.034	-0.253
-723.864	-4.504	0.226	0.157
-722.850	-200.000	0.089	0.476
-721.835	484.865	-0.072	-0.164
-720.821	358.470	0.037	0.075
-719.806	18.403	-0.249	0.200
-718.791	-124.852	0.315	0.049
-717.777	800.000	0.017	-0.069
-716.762	24.371	-0.111	-0.092
-715.748	-6.001	0.243	0.167
-714.733	-91.646	-0.283	-0.081
-713.718	-83.401	0.395	-0.127
-712.704	-31.774	-0.235	-0.133
-711.689	-99.518	-0.178	0.045
-710.675	-46.190	-0.150	0.074
-709.660	-37.223	-0.292	0.157
-708.645	-19.898	-0.266	0.165
-707.631	-118.861	-0.181	0.032
-706.616	-141.922	0.351	0.035
-705.602	-1.014	-0.200	-0.142
-704.587	-200.000	0.055	-0.401
-703.572	-85.207	0.282	-0.089
-702.558	11.486	-0.241	0.185
-701.543	-110.740	0.130	0.027
-700.529	-5.909	-0.159	0.109
-699.514	198.633	0.062	-0.096
-698.499	104.466	-0.266	0.315
-697.485	650.341	-0.053	0.135
-696.470	-126.054	-0.244	0.037
-695.456	800.000	-0.061	0.256
-694.441	-47.962	0.047	-0.023
-693.426	-95.576	0.060	0.016
-692.412	26.492	-0.071	-0.059
-691.397	-83.339	0.141	-0.045
-690.383	-200.000	0.017	-0.101
-689.368	-96.686	-0.181	-0.048
-688.354	139.199	-0.067	0.088
-687.339	-113.536	0.347	0.068
-686.324	62.179	0.142	-0.143
-685.310	448.114	-0.145	-0.322
-684.295	121.892	-0.163	-0.204
-683.281	800.000	-0.088	0.336
-682.266	27.791	0.031	-0.026
-681.251	-68.144	0.131	-0.051
-680.237	-81.141	-0.425	-0.141
-679.222	274.137	0.104	-0.185
-678.208	26.045	0.013	0.011
-677.193	-54.029	-0.327	0.150
-676.178	125.086	0.196	-0.248
-675.164	-200.000	0.023	-0.163
-674.149	68.725	-0.059	-0.061
-673.135	-114.196	-0.366	0.071
-672.120	-77.429	-0.057	0.020
-671.105	800.000	0.057	0.233
-670.091	-121.016	-0.047	-0.008
-669.076	-45.193	-0.356	-0.178
-668.062	-166.328	0.104	-0.004
-667.047	62.550	0.116	-0.116
-666.032	4.023	-0.097	-0.071
-665.018	-16.700	-0.105	0.067
-664.003	-46.288	-0.387	-0.191
-662.989	-114.097	0.237	-0.046
-661.974	-108.005	-0.308	0.067
-660.959	245.474	-0.133	-0.225
-659.945	-143.026	0.221	0.021
-658.930	314.592	-0.109	0.205
-657.916	-200.000	-0.075	0.529
-656.901	-155.518	-0.215	-0.014
-655.886	-67.749	0.363	-0.143
-654.872	42.554	-0.100	0.091
-653.857	800.000	-0.047	-0.189
-652.843	121.983	-0.092	-0.115
-651.828	-200.000	0.008	0.130
-650.814	356.506	0.130	-0.260
-649.799	88.794	0.218	0.244
-648.784	-65.494	-0.299	-0.121
-647.770	-200.000	0.005	0.136
-646.755	-102.538	0.339	-0.081
-645.741	-132.894	-0.184	0.024
-644.726	114.561	-0.187	0.229
-643.711	800.000	-0.044	-0.159
-642.697	135.862	0.249	-0.325
-641.682	-106.653	-0.167	-0.037
-640.668	-85.545	-0.413	-0.129
-639.653	-40.898	-0.152	-0.079
-638.638	-135.207	0.134	-0.016
-637.624	455.101	-0.095	-0.212
-636.609	106.466	0.176	0.209
-635.595	-60.559	0.251	-0.107
-634.580	-200.000	0.005	0.039
-633.565	171.094	-0.166	-0.239
-632.551	-200.000	0.036	-0.167
-631.536	800.000	0.032	-0.116
-630.522	-200.000	-0.031	-0.218
-629.507	800.000	-0.041	0.115
-628.492	80.543	0.200	0.216
-627.478	-40.612	0.031	-0.016
-626.463	800.000	-0.050	-0.174
-625.449	-2.455	-0.181	-0.127
-624.434	119.920	0.141	0.176
-623.419	11.980	0.048	-0.037
-622.405	35.580	-0.228	0.201
-621.390	230.347	-0.109	0.179
-620.376	228.639	-0.243	0.398
-619.361	49.728	0.240	-0.227
-618.346	800.000	-0.048	-0.198
-617.332	-200.000	-0.060	-0.371
-616.317	-200.000	0.022	0.206
-615.303	11.809	-0.096	0.074
-614.288	800.000	0.123	0.354
-613.273	479.676	-0.114	-0.258
-612.259	-108.388	0.295	-0.064
-611.244	-109.656	-0.195	-0.041
-610.230	-107.870	-0.253	0.055
-609.215	52.324	0.126	-0.120
-608.201	181.445	0.123	0.182
-607.186	-33.617	-0.063	-0.035
-606.171	-104.235	0.059	0.014
-605.157	130.794	0.229	0.294
-604.142	260.490	0.140	-0.242
-603.128	561.723	0.102	-0.248
-602.113	-200.000	-0.051	-0.304
-601.098	-127.379	-0.280	-0.041
-600.084	800.000	-0.124	0.401
-599.069	-51.333	-0.160	0.075
-598.055	-184.267	-0.218	0.004
-597.040	-200.000	0.022	-0.225
-596.025	-200.000	-0.015	-0.333
-595.011	800.000	-0.022	-0.089
-593.996	-200.000	0.042	-0.190
-592.982	-86.500	0.290	0.089
-591.967	800.000	-0.089	-0.278
-590.952	151.152	0.191	0.260
-589.938	-200.000	0.040	-0.223
-588.923	182.301	-0.088	-0.130
-587.909	457.275	-0.130	-0.290
-586.894	-57.044	0.330	0.146
-585.879	56.618	-0.354	0.345
-584.865	800.000	-0.082	0.272
-583.850	-143.358	-0.332	-0.032
-582.836	800.000	-0.051	0.198
-581.821	68.311	0.311	-0.319
-580.806	-67.886	-0.066	0.026
-579.792	800.000	0.115	-0.373
-578.777	214.691	-0.108	-0.172
-577.763	-200.000	-0.012	-0.314
-576.748	176.768	0.131	0.190
-575.733	-100.645	-0.155	0.038
-574.719	-51.276	0.039	-0.018
-573.704	1.836	-0.153	0.110
-572.690	155.014	0.108	-0.149
-571.675	-200.000	0.007	0.155
-570.661	3.901	-0.056	0.041
-569.646	-51.156	0.276	-0.130
-568.631	292.881	0.047	-0.085
-567.617	7.381	-0.192	0.143
-566.602	-130.725	-0.410	0.055
-565.588	-106.848	0.400	0.089
-564.573	-13.516	0.305	-0.198
-563.558	185.048	0.103	0.153
-562.544	-59.113	0.355	-0.153
-561.529	27.781	-0.252	0.212
-560.515	130.254	0.106	-0.135
-559.500	3.573	-0.291	-0.212
-558.485	-145.051	0.208	0.019
-557.471	-26.906	0.335	-0.195
-556.456	-124.927	0.139	-0.021
-555.442	-0.631	0.174	-0.124
-554.427	-123.765	0.282	0.045
-553.412	-28.518	-0.273	0.157
-552.398	800.000	-0.087	0.260
-551.383	-200.000	-0.027	0.266
-550.369	-3.922	-0.029	0.020
-549.354	-124.988	-0.432	-0.066
-548.339	-200.000	-0.010	0.231
-547.325	-200.000	-0.012	0.096
-546.310	-200.000	-0.015	0.320
-545.296	293.446	0.138	-0.252
-544.281	-17.583	-0.295	-0.185
-543.266	603.638	0.054	-0.134
-542.252	-11.741	-0.250	0.164
-541.237	411.275	0.127	0.269
-540.223	-200.000	0.038	0.329
-539.208	170.063	0.186	0.267
-538.193	-200.000	0.010	0.062
-537.179	-47.239	0.178	-0.087
-536.164	-51.358	0.149	0.070
-535.150	153.514	-0.114	-0.156
-534.135	-200.000	0.004	0.156
-533.121	800.000	0.066	-0.238
-532.106	-100.750	0.152	0.037
-531.091	-74.658	0.557	-0.200
-530.077	-136.957	-0.244	0.028
-529.062	272.246	0.221	-0.389
-528.048	147.735	0.096	0.129
-527.033	-95.362	0.188	0.051
-526.018	383.854	0.062	0.127
-525.004	-140.995	0.156	-0.016
-523.989	-121.816	0.331	0.055
-522.975	143.308	0.226	0.301
-521.960	-200.000	0.017	-0.075
-520.945	-200.000	-0.068	0.301
-519.931	-29.635	-0.109	0.062
-518.916	178.209	-0.174	-0.254
-517.902	466.740	-0.132	0.296
-516.887	800.000	0.041	0.159
-515.872	1.299	-0.396	0.284
-514.858	133.424	-0.120	-0.154
-513.843	16.070	-0.134	0.105
-512.829	13.562	0.257	-0.199
-511.814	600.468	-0.097	0.241
-510.799	-146.641	-0.086	0.007
-509.785	-16.221	0.135	0.086
-508.770	800.000	0.028	-0.100
-507.756	166.591	-0.163	-0.231
-506.741	132.101	-0.219	0.282
-505.726	-57.285	0.334	0.147
-504.712	-89.326	0.206	-0.061
-503.697	-25.858	0.235	0.138
-502.683	127.134	0.172	0.217
-501.668	-200.000	0.029	0.169
-500.653	177.571	0.008	0.011
-499.639	75.380	0.184	-0.194
-498.624	-67.498	-0.259	0.102
-497.610	58.837	-0.058	-0.057
-496.595	-60.366	-0.244	0.104
-495.581	800.000	-0.049	-0.164
-494.566	800.000	0.082	0.269
-493.551	-200.000	-0.023	0.131
-492.537	-66.088	-0.175	-0.070
-491.522	367.612	0.156	-0.315
-490.508	35.318	0.242	0.211
-489.493	9.937	0.226	-0.171
-488.478	184.423	-0.135	0.199
-487.464	36.462	0.239	-0.210
-486.449	-99.324	-0.310	0.078
-485.435	-88.112	-0.058	0.017
-484.420	800.000	-0.045	-0.154
-483.405	-27.101	-0.330	0.192
-482.391	16.767	0.251	0.198
-481.376	-148.432	0.217	-0.018
-480.362	-200.000	-0.002	0.086
-479.347	461.090	-0.117	0.260
-478.332	-200.000	-0.062	0.365
-477.318	-41.398	0.148	0.076
-476.303	-150.907	0.204	-0.015
-475.289	116.589	0.082	0.101
-474.274	72.426	-0.125	0.129
-473.259	-200.000	-0.025	-0.205
-472.245	-37.190	-0.196	-0.105
-471.230	-8.850	0.363	-0.242
-470.216	-200.000	0.014	0.097
-469.201	216.669	-0.059	-0.094
-468.186	800.000	-0.079	-0.244
-467.172	-148.747	0.029	-0.002
-466.157	707.125	-0.095	0.249
-465.143	-14.315	0.237	0.152
-464.128	-62.088	-0.123	-0.051
-463.113	105.611	0.190	0.224
-462.099	800.000	-0.012	-0.037
-461.084	-68.852	-0.155	-0.059
-460.070	-200.000	-0.055	-0.255
-459.055	2.085	0.044	0.032
-458.040	-109.080	0.038	0.008
-457.026	-200.000	-0.010	-0.083
-456.011	-200.000	0.027	-0.144
-454.997	254.296	-0.122	0.208
-453.982	98.452	-0.171	-0.196
-452.968	-103.678	-0.265	-0.062
-451.953	800.000	-0.078	-0.279
-450.938	122.369	0.045	-0.057
-449.924	115.997	-0.110	0.134
-448.909	800.000	0.077	-0.257
-447.895	124.991	0.055	-0.069
-446.880	160.897	0.210	-0.292
-445.865	682.536	-0.117	0.304
-444.851	-143.355	0.424	0.040
-443.836	-200.000	-0.006	0.114
-442.822	-80.498	0.263	0.087
-441.807	336.106	0.072	-0.139
-440.792	-68.288	-0.363	0.141
-439.778	-200.000	-0.026	0.177
-438.763	-69.068	0.227	0.087
-437.749	88.080	0.128	-0.141
-436.734	-82.617	0.308	0.099
-435.719	72.601	0.087	0.090
-434.705	-200.000	0.008	-0.128
-433.690	-144.276	0.235	-0.022
-432.676	114.158	-0.110	0.133
-431.661	-119.447	0.326	0.056
-430.646	800.000	0.064	-0.205
-429.632	362.706	0.021	0.042
-428.617	800.000	0.054	0.159
-427.603	184.066	-0.125	-0.184
-426.588	19.782	0.258	0.206
-425.573	-123.616	-0.557	-0.088
-424.559	157.661	-0.099	-0.136
-423.544	389.976	0.147	-0.303
-422.530	24.312	-0.223	-0.183
-421.515	-116.269	0.228	-0.042
-420.500	57.272	0.038	0.037
-419.486	-91.531	0.343	0.097
-418.471	-86.946	-0.088	-0.027
-417.457	-200.000	-0.036	-0.228
-416.442	-169.589	-0.284	0.010
-415.428	237.079	-0.104	-0.172
-414.413	375.652	-0.114	0.232
-413.398	-69.531	0.249	0.095
-412.384	167.377	-0.182	-0.258
-411.369	-26.393	-0.096	-0.056
-410.355	-200.000	-0.002	-0.168
-409.340	37.423	-0.085	0.075
-408.325	-133.849	0.362	-0.045
-407.311	-200.000	0.017	0.139
-406.296	21.365	0.224	-0.181
-405.282	402.772	0.127	0.265
-404.267	800.000	-0.033	0.095
-403.252	-59.605	-0.210	0.090
-402.238	-200.000	0.005	-0.033
-401.223	329.489	-0.022	-0.041
-400.209	800.000	0.042	0.169
-399.194	183.392	-0.173	0.255
-398.179	-34.463	0.176	0.096
-397.165	271.867	0.244	-0.428
-396.150	-26.526	-0.148	0.086
-395.136	11.767	-0.271	0.207
-394.121	-116.513	-0.019	-0.004
-393.106	41.764	0.193	-0.174
-392.092	59.802	-0.109	0.107
-391.077	-200.000	0.025	-0.130
-390.063	-155.681	-0.020	-0.001
-389.048	-35.632	-0.244	0.132
-388.033	-35.427	0.111	0.060
-387.019	-48.381	0.154	-0.074
-386.004	239.942	0.091	0.151
-384.990	386.364	0.092	0.188
-383.975	-200.000	-0.058	0.375
-382.960	163.429	0.179	-0.250
-381.946	-25.048	0.242	0.142
-380.931	-155.751	0.357	-0.023
-379.917	-17.509	0.068	-0.043
-378.902	258.534	-0.162	0.278
-377.888	119.992	0.139	0.171
-376.873	-131.338	-0.067	-0.009
-375.858	-182.805	-0.119	0.002
-374.844	295.131	0.051	0.092
-373.829	-3.373	0.363	0.251
-372.815	-200.000	-0.013	0.513
-371.800	78.962	0.109	0.116
-370.785	144.044	-0.094	-0.124
-369.771	-68.708	0.167	-0.064
-368.756	41.805	0.258	0.232
-367.742	-200.000	0.023	-0.381
-366.727	-121.314	-0.141	0.023
-365.712	19.401	-0.186	0.149
-364.698	123.570	-0.105	-0.131
-363.683	-103.170	-0.256	0.060
-362.669	4.238	-0.019	0.014
-361.654	-160.575	-0.330	-0.017
-360.639	764.168	0.060	-0.162
-359.625	-28.255	-0.072	0.041
-358.610	800.000	-0.150	-0.472
-357.596	-116.374	-0.242	-0.044
-356.581	112.721	-0.097	-0.117
-355.566	-200.000	-0.017	-0.151
-354.552	-200.000	-0.052	-0.319
-353.537	145.916	-0.121	-0.162
-352.523	-145.669	-0.187	-0.017
-351.508	-14.671	0.300	-0.191
-350.493	-48.181	-0.268	0.128
-349.479	-2.507	-0.134	-0.093
-348.464	-200.000	-0.019	-0.206
-347.450	-200.000	0.013	-0.077
-346.435	-200.000	0.005	0.118
-345.420	-117.023	-0.231	0.042
-344.406	664.955	0.153	0.392
-343.391	11.335	-0.216	-0.164
-342.377	785.281	0.141	-0.382
-341.362	478.039	-0.110	-0.247
-340.348	522.014	-0.141	0.329
-339.333	163.475	0.266	0.371
-338.318	-60.465	-0.246	0.104
-337.304	56.470	0.196	-0.189
-336.289	269.291	-0.059	0.103
-335.275	174.581	-0.056	0.081
-334.260	118.808	0.294	-0.360
-333.245	-135.253	0.287	-0.034
-332.231	-87.525	-0.469	-0.141
-331.216	-119.653	0.226	0.039
-330.202	-70.922	0.088	0.033
-329.187	-40.086	-0.157	-0.081
-328.172	316.123	-0.056	0.104
-327.158	189.591	-0.209	-0.310
-326.143	13.926	-0.172	-0.133
-325.129	-200.000	0.017	-0.235
-324.114	-93.107	-0.148	-0.041
-323.099	733.419	-0.147	-0.389
-322.085	134.149	0.050	-0.064
-321.070	-60.730	0.163	0.069
-320.056	52.710	0.140	-0.133
-319.041	-200.000	-0.003	0.170
-318.026	52.238	0.257	0.243
-317.012	41.004	-0.264	0.236
-315.997	-134.124	-0.259	-0.032
-314.983	15.081	0.133	0.103
-313.968	-85.052	-0.077	0.024
-312.953	-132.896	-0.081	-0.010
-311.939	116.745	-0.271	-0.329
-310.924	2.896	0.137	0.098
-309.910	-47.297	0.106	0.051
-308.895	-41.721	-0.261	-0.133
-307.880	-39.015	-0.081	0.042
-306.866	800.000	0.049	0.166
-305.851	800.000	0.059	-0.213
-304.837	58.542	0.097	-0.094
-303.822	-98.535	-0.153	-0.039
-302.807	12.719	0.225	-0.172
-301.793	-95.129	-0.066	0.018
-300.778	-13.733	0.144	-0.092
-299.764	282.560	-0.027	0.048
-298.749	-200.000	0.016	0.086
-297.735	132.709	-0.047	-0.060
-296.720	800.000	0.020	0.077
-295.705	56.219	0.137	0.132
-294.691	-200.000	-0.023	0.132
-293.676	800.000	-0.108	0.313
-292.662	-151.613	-0.127	0.009
-291.647	-161.634	0.181	-0.009
-290.632	-7.925	0.343	-0.229
-289.618	76.360	-0.203	-0.213
-288.603	800.000	0.075	-0.316
-287.589	-200.000	-0.020	-0.216
-286.574	629.323	0.106	0.265
-285.559	23.202	0.167	-0.136
-284.545	45.846	-0.204	-0.187
-283.530	248.453	-0.039	0.066
-282.516	122.730	0.222	0.275
-281.501	-200.000	-0.005	0.158
-280.486	30.784	-0.104	-0.088
-279.472	297.871	-0.077	-0.141
-278.457	-26.594	-0.092	0.053
-277.443	317.438	-0.144	0.270
-276.428	44.910	0.135	-0.123
-275.413	-155.096	0.261	-0.017
-274.399	725.531	-0.018	-0.046
-273.384	13.511	0.138	0.106
-272.370	-200.000	-0.016	0.257
-271.355	80.087	0.297	0.316
-270.340	800.000	0.055	-0.195
-269.326	63.020	-0.201	0.199
-268.311	-26.136	0.208	0.121
-267.297	76.958	0.242	-0.254
-266.282	-96.868	0.156	0.041
-265.267	10.485	0.285	-0.214
-264.253	-65.831	0.240	-0.095
-263.238	-42.616	-0.177	0.089
-262.224	-197.242	0.063	-0.000
-261.209	32.760	-0.194	-0.166
-260.195	105.192	0.130	-0.151
-259.180	0.286	0.271	0.191
-258.165	110.485	-0.162	-0.193
-257.151	129.301	-0.044	0.056
-256.136	-123.008	-0.338	-0.054
-255.122	295.299	-0.025	0.045
-254.107	-200.000	0.036	0.484
-253.092	800.000	0.111	0.317
-252.078	-200.000	0.057	-0.396
-251.063	194.781	-0.077	0.115
-250.049	523.330	-0.121	0.281
-249.034	-31.171	0.209	0.116
-248.019	206.748	0.133	0.205
-247.005	-200.000	-0.015	-0.154
-245.990	-63.359	-0.202	0.082
-244.976	-147.244	0.357	0.030
-243.961	-4.200	0.270	-0.185
-242.946	-69.852	-0.139	-0.053
-241.932	-99.186	-0.373	0.093
-240.917	-40.069	0.103	-0.053
-239.903	-129.537	-0.369	0.050
-238.888	22.163	-0.086	-0.069
-237.873	114.478	0.105	0.126
-236.859	800.000	0.087	0.320
-235.844	800.000	0.042	-0.127
-234.830	17.892	0.255	-0.201
-233.815	800.000	0.099	0.285
-232.800	575.836	-0.084	-0.204
-231.786	800.000	0.065	-0.215
-230.771	148.402	0.083	-0.110
-229.757	-109.434	0.119	-0.025
-228.742	-200.000	0.110	-0.537
-227.727	-130.039	0.027	-0.004
-226.713	-57.171	-0.287	0.125
-225.698	240.908	-0.170	-0.280
-224.684	394.028	0.022	-0.045
-223.669	-132.542	-0.297	-0.038
-222.655	33.662	-0.296	0.254
-221.640	108.875	0.076	-0.089
-220.625	152.912	-0.147	0.199
-219.611	561.349	-0.070	-0.168
-218.596	800.000	-0.038	0.117
-217.582	354.508	0.067	0.132
-216.567	-77.660	0.202	0.069
-215.552	800.000	-0.019	-0.067
-214.538	-200.000	-0.038	-0.312
-213.523	-8.532	0.131	0.087
-212.509	342.458	0.169	0.326
-211.494	37.791	-0.415	0.364
-210.479	-178.305	0.297	0.007
-209.465	-65.097	-0.175	-0.070
-208.450	800.000	-0.013	0.047
-207.436	-200.000	0.050	0.336
-206.421	-78.162	-0.245	0.083
-205.406	44.026	-0.476	-0.430
-204.392	-16.517	-0.238	-0.149
-203.377	320.329	0.078	0.146
-202.363	-200.000	-0.040	-0.192
-201.348	-200.000	-0.001	-0.080
-200.333	-160.126	-0.149	-0.008
-199.319	-30.943	-0.258	0.144
-198.304	800.000	-0.055	0.154
-197.290	-2.147	-0.083	0.058
-196.275	-75.300	-0.447	0.157
-195.260	-12.319	0.164	-0.106
-194.246	-40.985	-0.070	-0.036
-193.231	-159.091	-0.342	0.019
-192.217	-135.332	0.108	-0.013
-191.202	75.498	0.130	-0.135
-190.187	-120.994	0.200	0.033
-189.173	438.771	-0.112	-0.241
-188.158	-200.000	0.012	0.324
-187.144	-133.063	-0.125	0.016
-186.129	127.597	0.054	-0.068
-185.114	228.902	0.148	0.237
-184.100	-12.898	0.239	-0.153
-183.085	103.567	-0.072	-0.084
-182.071	67.296	0.311	0.313
-181.056	3.667	0.044	0.031
-180.042	87.611	0.171	-0.186
-179.027	800.000	-0.053	-0.148
-178.012	-200.000	-0.040	0.231
-176.998	800.000	-0.025	-0.096
-175.983	-200.000	0.046	0.232
-174.969	-159.245	-0.108	0.006
-173.954	-121.504	0.221	0.036
-172.939	-112.840	0.132	-0.026
-171.925	-44.478	0.066	-0.032
-170.910	800.000	0.072	0.270
-169.896	-84.050	-0.142	0.045
-168.881	95.137	-0.207	0.232
-167.866	-127.651	-0.180	0.026
-166.852	-2.962	-0.267	0.184
-165.837	-200.000	-0.012	0.147
-164.823	-200.000	0.046	-0.428
-163.808	-118.253	0.142	0.025
-162.793	-49.072	-0.452	0.213
-161.779	800.000	-0.072	-0.274
-160.764	800.000	-0.087	-0.236
-159.750	-137.328	0.101	-0.011
-158.735	132.473	-0.147	-0.186
-157.720	4.658	0.034	0.024
-156.706	221.127	-0.133	-0.211
-155.691	-25.609	0.084	0.049
-154.677	-70.888	-0.245	0.091
-153.662	-200.000	-0.027	-0.140
-152.647	-200.000	0.021	-0.242
-151.633	7.934	-0.405	-0.299
-150.618	661.170	0.173	0.439
-149.604	609.435	0.016	0.040
-148.589	17.686	0.023	-0.018
-147.574	-41.940	0.252	-0.127
-146.560	191.526	-0.131	0.195
-145.545	68.914	-0.155	-0.157
-144.531	131.350	0.206	-0.261
-143.516	75.921	-0.280	0.292
-142.502	-103.157	-0.176	-0.041
-141.487	18.672	0.174	0.137
-140.472	800.000	0.091	0.291
-139.458	543.940	-0.011	-0.025
-138.443	38.134	0.079	0.070
-137.429	-200.000	0.011	0.263
-136.414	-127.187	-0.394	0.057
-135.399	161.865	0.195	0.269
-134.385	174.984	-0.225	0.321
-133.370	246.102	-0.106	-0.176
-132.356	296.812	-0.036	-0.064
-131.341	-200.000	0.017	0.221
-130.326	325.209	-0.127	0.239
-129.312	65.043	0.201	0.200
-128.297	226.463	-0.113	0.180
-127.283	-119.290	-0.161	-0.028
-126.268	-58.840	0.063	0.027
-125.253	-76.432	0.107	0.037
-124.239	-5.122	0.245	-0.166
-123.224	800.000	0.102	-0.277
-122.210	135.394	-0.161	-0.206
-121.195	-200.000	0.033	0.155
-120.180	800.000	0.057	-0.158
-119.166	188.795	-0.147	0.217
-118.151	184.598	0.100	0.146
-117.137	11.020	0.095	0.071
-116.122	186.992	-0.115	0.169
-115.107	52.611	0.134	-0.126
-114.093	138.045	-0.167	-0.215
-113.078	-13.467	0.168	0.107
-112.064	-200.000	0.005	-0.044
-111.049	-128.988	0.122	0.017
-110.034	134.216	0.114	0.145
-109.020	178.664	0.083	0.120
-108.005	-200.000	0.047	-0.301
-106.991	-44.558	-0.229	0.112
-105.976	793.666	0.058	-0.157
-104.962	458.910	-0.190	-0.415
-103.947	17.497	-0.179	-0.140
-102.932	84.177	-0.170	-0.182
-101.918	749.443	0.071	-0.188
-100.903	-48.427	0.192	-0.091
-99.889	314.312	0.143	-0.265
-98.874	-123.211	-0.340	-0.053
-97.859	249.195	0.030	-0.049
-96.845	800.000	-0.062	0.197
-95.830	48.582	-0.265	-0.244
-94.816	112.629	-0.116	-0.138
-93.801	110.306	-0.258	-0.304
-92.786	30.862	-0.093	0.078
-91.772	65.523	-0.180	0.178
-90.757	-200.000	-0.023	-0.144
-89.743	211.651	0.215	-0.332
-88.728	560.345	0.146	0.348
-87.713	60.737	0.205	0.199
-86.699	-94.829	0.184	0.049
-85.684	724.196	0.130	0.340
-84.670	323.307	0.068	0.127
-83.655	159.819	0.125	0.171
-82.640	-155.101	-0.335	0.022
-81.626	613.343	0.087	0.215
-80.611	800.000	0.166	0.493
-79.597	800.000	0.068	-0.230
-78.582	-42.593	0.265	0.133
-77.567	111.226	0.223	0.264
-76.553	-17.233	0.109	-0.067
-75.538	800.000	0.059	-0.188
-74.524	800.000	0.056	0.158
-73.509	37.103	-0.071	0.062
-72.494	-200.000	-0.009	-0.254
-71.480	-61.325	-0.120	-0.049
-70.465	243.673	0.057	-0.094
-69.451	54.944	-0.084	-0.079
-68.436	800.000	0.051	-0.183
-67.422	-200.000	0.006	0.156
-66.407	45.549	-0.125	0.113
-65.392	-200.000	0.002	0.207
-64.378	12.957	0.133	0.101
-63.363	-106.877	0.180	-0.039
-62.349	800.000	-0.045	0.171
-61.334	241.398	-0.687	-1.126
-60.319	449.844	0.382	0.827
-59.305	800.000	-0.428	-1.197
-58.290	345.442	0.622	1.198
-57.276	791.841	0.592	1.598
-56.261	-200.000	111.624	631.593
-55.246	468.061	1502.081	3305.048
-54.232	147.680	2667.269	3525.219
-53.217	104.070	2154.279	2484.278
-52.203	38.915	1603.880	1405.313
-51.188	30.786	1350.320	1133.838
-50.173	27.863	1312.694	1084.868
-49.159	55.032	1367.602	1295.458
-48.144	53.884	1381.705	1301.837
-47.130	31.167	1338.343	1125.905
-46.115	27.713	1320.216	1090.011
-45.100	27.455	1315.957	1084.913
-44.086	27.414	1313.605	1082.691
-43.071	27.423	1310.856	1080.436
-42.057	27.340	1309.151	1078.496
-41.042	27.447	1307.343	1077.593
-40.027	27.409	1305.693	1075.965
-39.013	27.434	1303.752	1074.471
-37.998	27.411	1302.205	1073.023
-36.984	27.542	1300.449	1072.300
-35.969	27.526	1298.672	1070.702
-34.954	27.490	1297.126	1069.170
-33.940	27.557	1295.772	1068.405
-32.925	27.718	1293.915	1067.775
-31.911	27.615	1292.601	1066.048
-30.896	27.673	1290.950	1064.981
-29.881	27.775	1289.613	1064.432
-28.867	27.695	1288.568	1063.057
-27.852	27.772	1286.810	1062.015
-26.838	27.663	1285.720	1060.441
-25.823	27.595	1284.643	1059.117
-24.809	27.642	1283.252	1058.198
-23.794	27.639	1281.591	1056.769
-22.779	27.740	1280.000	1055.998
-21.765	27.588	1279.100	1054.336
-20.750	27.641	1278.110	1053.784
-19.736	27.533	1276.819	1052.057
-18.721	27.555	1275.359	1050.937
-17.706	27.462	1274.533	1049.678
-16.692	27.429	1273.272	1048.409
-15.677	27.404	1272.453	1047.547
-14.663	27.613	1270.808	1047.354
-13.648	27.591	1269.490	1046.101
-12.633	27.517	1268.677	1044.961
-11.619	27.498	1267.601	1043.926
-10.604	27.497	1267.089	1043.457
-9.590	27.483	1265.979	1042.422
-8.575	27.507	1265.036	1041.745
-7.560	27.486	1264.093	1040.806
-6.546	27.541	1263.439	1040.540
-5.531	27.509	1262.638	1039.655
-4.517	27.438	1261.950	1038.644
-3.502	27.561	1260.994	1038.516
-2.487	27.448	1260.203	1037.177
-1.473	27.467	1255.688	1033.531
-0.458	26.119	1241.281	1014.062
0.556	21.172	1224.763	977.829
1.571	17.636	1231.730	963.348
2.586	16.797	1246.573	970.070
3.600	16.531	1235.030	959.493
4.615	12.151	1162.564	879.672
5.629	4.179	1087.826	782.913
6.644	0.426	1068.681	750.415
7.659	0.168	1066.669	747.656
8.673	-0.047	1065.756	745.885
9.688	0.014	1064.212	745.038
10.702	0.280	1062.307	744.953
11.717	5.035	1068.161	772.593
12.731	12.817	1079.142	819.283
13.746	16.862	1083.297	842.513
14.761	16.974	1083.059	842.811
15.775	15.968	1081.173	836.273
16.790	15.004	1078.932	829.692
17.804	14.411	1076.725	824.984
18.819	14.183	1075.777	823.057
19.834	13.815	1075.464	820.924
20.848	13.537	1074.145	818.475
21.863	13.222	1073.724	816.522
22.877	13.093	1072.835	815.137
23.892	12.964	1072.415	814.109
24.907	13.152	1070.900	813.814
25.921	13.070	1070.870	813.318
26.936	13.160	1069.432	812.595
27.950	13.255	1068.558	812.326
28.965	13.354	1067.446	811.892
29.980	13.230	1066.435	810.446
30.994	13.330	1064.959	809.741
32.009	13.341	1064.059	809.040
33.023	13.240	1063.295	807.894
34.038	13.276	1062.033	807.039
35.053	13.389	1061.053	806.773
36.067	13.391	1059.927	805.858
37.082	13.406	1059.135	805.257
38.096	13.320	1058.922	804.603
39.111	13.386	1057.834	804.028
40.126	13.238	1057.027	802.625
41.140	13.266	1055.155	801.264
42.155	13.162	1054.647	800.305
43.169	13.049	1053.690	798.963
44.184	12.993	1052.416	797.654
45.199	13.010	1051.898	797.272
46.213	12.987	1050.673	796.163
47.228	13.096	1049.440	795.684
48.242	13.225	1048.158	795.263
49.257	13.189	1047.769	794.725
50.271	13.231	1046.316	793.753
51.286	13.192	1045.162	792.621
52.301	13.226	1044.265	792.034
53.315	13.210	1043.846	791.567
54.330	13.110	1042.654	790.115
55.344	13.176	1041.701	789.640
56.359	13.206	1040.248	788.610
57.374	13.040	1040.171	787.694
58.388	13.090	1039.131	787.074
59.403	13.108	1038.000	786.232
60.417	13.101	1037.406	785.678
61.432	13.107	1036.825	785.197
62.447	13.065	1035.934	784.255
63.461	13.001	1034.894	783.095
64.476	13.026	1033.801	782.316
65.490	13.043	1032.891	781.640
66.505	13.113	1032.231	781.403
67.520	12.955	1032.044	780.444
68.534	13.016	1031.110	779.958
69.549	13.102	1029.997	779.452
70.563	13.104	1029.651	779.128
71.578	13.006	1028.716	777.892
72.593	12.871	1028.207	776.801
73.607	12.969	1027.566	776.709
74.622	13.020	1026.652	776.192
75.636	12.979	1026.192	775.580
76.651	13.006	1024.945	774.695
77.666	12.878	1025.079	774.128
78.680	13.019	1023.666	773.656
79.695	13.002	1023.317	773.243
80.709	13.012	1022.786	772.818
81.724	13.171	1022.096	772.976
82.739	13.172	1020.897	772.003
83.753	13.240	1020.587	772.018
84.768	13.284	1019.781	771.544
85.782	13.238	1018.868	770.573
86.797	13.182	1018.249	769.775
87.812	13.288	1016.788	769.097
88.826	13.029	1016.150	767.341
89.841	13.292	1015.091	767.696
90.855	13.357	1013.809	766.958
91.870	13.293	1013.418	766.299
92.884	13.428	1012.208	765.939
93.899	13.315	1011.635	764.914
94.914	13.354	1010.990	764.543
95.928	13.254	1009.969	763.241
96.943	13.271	1009.284	762.735
97.957	13.300	1008.086	761.892
98.972	13.389	1007.143	761.523
99.987	13.295	1006.681	760.672
101.001	13.280	1005.532	759.669
102.016	13.408	1004.370	759.310
103.030	13.232	1004.259	758.355
104.045	13.333	1003.363	758.073
105.060	13.172	1002.572	756.670
106.074	13.149	1001.454	755.654
107.089	13.236	999.806	754.743
108.103	13.253	998.989	754.133
109.118	13.105	998.273	752.852
110.133	13.285	997.261	752.843
111.147	13.197	996.583	751.862
112.162	13.110	995.899	750.889
113.176	13.177	994.684	750.209
114.191	13.221	994.401	750.127
115.206	13.290	993.501	749.697
116.220	13.287	992.568	748.912
117.235	13.252	991.472	747.862
118.249	13.198	990.774	747.022
119.264	13.224	989.873	746.396
120.279	13.148	989.469	745.683
121.293	13.200	988.386	745.035
122.308	13.224	987.729	744.582
123.322	13.040	986.606	742.839
124.337	13.146	985.623	742.509
125.352	13.036	984.571	741.161
126.366	13.227	983.147	740.877
127.381	13.146	982.401	739.887
128.395	13.169	981.397	739.169
129.410	13.101	980.984	738.489
130.424	13.134	980.072	737.883
131.439	13.394	978.643	737.903
132.454	13.318	978.236	737.191
133.468	13.251	977.594	736.344
134.483	13.271	976.294	735.387
135.497	13.186	975.642	734.455
136.512	13.221	974.835	733.936
137.527	13.295	973.944	733.531
138.541	13.217	973.134	732.509
139.556	13.175	972.589	731.849
140.570	13.318	971.780	731.809
141.585	13.588	970.684	732.112
142.600	13.448	970.283	731.126
143.614	13.433	969.461	730.374
144.629	13.531	968.563	730.065
145.643	13.429	967.976	729.109
146.658	13.352	966.808	727.826
147.673	13.306	966.267	727.153
148.687	13.365	964.802	726.245
149.702	13.334	964.319	725.680
150.716	13.365	963.466	725.110
151.731	13.244	963.032	724.190
152.746	13.414	962.239	724.272
153.760	13.402	961.725	723.769
154.775	13.478	961.235	723.670
155.789	13.494	960.385	723.035
156.804	13.613	959.417	722.761
157.819	13.460	959.479	722.076
158.833	13.519	958.515	721.546
159.848	13.683	957.347	721.316
160.862	13.606	956.538	720.307
161.877	13.396	955.892	718.846
162.892	13.506	954.643	718.317
163.906	13.465	953.958	717.564
164.921	13.467	953.239	716.967
165.935	13.482	952.068	716.086
166.950	13.546	951.375	715.779
167.964	13.539	950.376	714.937
168.979	13.564	949.369	714.222
169.994	13.544	948.733	713.595
171.008	13.615	948.069	713.338
172.023	13.521	947.430	712.390
173.037	13.606	946.865	712.267
174.052	13.669	946.160	711.943
175.067	13.669	945.409	711.316
176.081	13.554	944.779	710.287
177.096	13.573	944.068	709.767
178.110	13.587	943.458	709.308
179.125	13.650	942.853	709.061
180.140	13.763	942.531	709.238
181.154	13.650	942.125	708.386
182.169	13.734	941.516	708.224
183.183	13.802	940.501	707.690
184.198	13.647	940.235	706.766
185.213	13.705	939.190	706.163
186.227	13.982	938.115	706.472
187.242	13.890	937.710	705.711
188.256	13.883	937.313	705.322
189.271	13.734	936.362	703.911
190.286	13.776	935.770	703.580
191.300	13.630	935.214	702.484
192.315	13.569	934.274	701.456
193.329	13.656	934.099	701.631
194.344	13.697	933.384	701.205
195.359	13.738	932.923	700.970
196.373	13.856	932.255	700.905
197.388	13.827	931.727	700.325
198.402	14.035	931.004	700.593
199.417	14.116	930.293	700.338
200.432	13.993	930.012	699.549
201.446	14.052	929.433	699.300
202.461	14.027	928.932	698.757
203.475	14.025	928.106	698.062
204.490	14.087	927.174	697.560
205.504	14.021	926.526	696.736
206.519	14.093	925.586	696.269
207.534	14.004	925.442	695.725
208.548	14.063	924.682	695.338
209.563	14.119	923.994	694.993
210.577	14.120	923.620	694.656
211.592	14.252	922.388	694.219
212.607	14.208	921.933	693.631
213.621	14.194	921.075	692.866
214.636	14.182	920.327	692.190
215.650	14.168	919.633	691.551
216.665	14.221	918.777	691.068
217.680	14.305	917.977	690.752
218.694	14.380	917.300	690.491
219.709	14.178	916.943	689.323
220.723	14.215	916.232	688.881
221.738	14.213	915.790	688.482
222.753	14.306	915.104	688.287
223.767	14.318	914.468	687.797
224.782	14.413	913.626	687.497
225.796	14.476	913.213	687.385
226.811	14.228	913.132	686.241
227.826	14.386	912.078	686.040
228.840	14.331	911.061	684.988
229.855	14.353	910.499	684.594
230.869	14.339	909.564	683.775
231.884	14.273	909.017	683.030
232.899	14.242	908.338	682.333
233.913	14.388	907.130	681.962
234.928	14.237	906.945	681.146
235.942	14.415	905.866	681.003
236.957	14.369	905.967	680.831
237.972	14.324	905.012	679.867
238.986	14.443	904.179	679.668
240.001	14.380	903.846	679.099
241.015	14.427	903.164	678.717
242.030	14.510	902.309	678.354
243.045	14.586	901.668	678.121
244.059	14.602	901.112	677.708
245.074	14.485	900.381	676.621
246.088	14.609	899.778	676.614
247.103	14.568	899.369	676.079
248.117	14.662	898.910	676.055
249.132	14.779	898.165	675.909
250.147	14.877	897.240	675.550
251.161	14.805	896.822	674.883
252.176	14.709	896.266	674.017
253.190	14.837	895.760	674.092
254.205	14.916	894.990	673.775
255.220	14.994	894.255	673.474
256.234	15.077	893.302	673.031
257.249	14.960	892.985	672.261
258.263	15.010	892.180	671.796
259.278	14.933	891.568	670.968
260.293	14.920	890.905	670.358
261.307	15.097	890.101	670.403
262.322	15.286	889.497	670.645
263.336	14.910	888.860	668.602
264.351	15.144	888.256	669.024
265.366	14.989	887.707	667.929
266.380	15.153	887.009	668.002
267.395	15.012	886.185	666.758
268.409	15.049	885.420	666.274
269.424	15.072	884.814	665.850
270.439	15.143	884.149	665.570
271.453	15.086	883.155	664.539
272.468	15.110	882.703	664.235
273.482	15.184	882.416	664.255
274.497	15.099	881.724	663.339
275.512	15.110	881.035	662.805
276.526	15.076	880.752	662.397
277.541	15.358	880.049	662.923
278.555	15.347	879.332	662.283
279.570	15.289	878.635	661.470
280.585	15.363	877.759	661.042
281.599	15.269	877.178	660.175
282.614	15.355	876.551	659.984
283.628	15.350	876.015	659.502
284.643	15.197	875.764	658.656
285.657	15.307	875.026	658.475
286.672	15.460	874.021	658.259
287.687	15.296	873.855	657.432
288.701	15.438	873.033	657.314
289.716	15.448	872.523	656.910
290.730	15.325	871.907	655.905
291.745	15.454	871.139	655.773
292.760	15.442	870.768	655.392
293.774	15.442	870.181	654.891
294.789	15.569	869.025	654.459
295.803	15.563	868.753	654.170
296.818	15.391	868.487	653.243
297.833	15.378	867.630	652.490
298.847	15.492	867.073	652.456
299.862	15.545	865.992	651.793
300.876	15.574	865.771	651.679
301.891	15.590	865.200	651.254
302.906	15.698	864.470	651.066
303.920	15.705	863.987	650.673
304.935	15.701	863.437	650.182
305.949	15.827	862.714	650.069
306.964	15.681	862.120	649.001
307.979	15.754	861.800	648.982
308.993	15.791	860.979	648.453
310.008	15.886	860.313	648.258
311.022	15.950	859.876	648.115
312.037	15.805	859.052	646.880
313.052	15.813	858.488	646.430
314.066	15.760	857.920	645.743
315.081	15.869	857.571	645.839
316.095	15.692	857.198	644.825
317.110	15.770	856.228	644.335
318.125	15.673	855.959	643.704
319.139	15.837	855.329	643.802
320.154	15.887	854.782	643.525
321.168	15.800	854.006	642.551
322.183	15.998	853.633	642.969
323.197	15.789	853.167	641.765
324.212	15.850	852.856	641.704
325.227	15.921	852.002	641.276
326.241	15.738	851.434	640.094
327.256	15.844	850.639	639.843
328.270	15.966	849.997	639.769
329.285	15.802	849.823	638.959
330.300	15.884	849.012	638.603
331.314	15.858	849.063	638.484
332.329	15.795	848.614	637.854
333.343	16.007	847.646	637.870
334.358	15.989	847.374	637.544
335.373	15.949	847.202	637.207
336.387	15.934	847.063	636.988
337.402	16.069	846.672	637.148
338.416	16.114	846.309	636.987
339.431	16.113	845.824	636.561
340.446	16.208	845.185	636.383
341.460	16.250	845.039	636.377
342.475	16.309	844.085	635.825
343.489	16.122	844.080	635.060
344.504	16.183	843.522	634.813
345.519	16.098	843.009	634.050
346.533	16.286	842.279	634.153
347.548	16.231	841.825	633.546
348.562	16.220	841.323	633.072
349.577	16.289	840.660	632.776
350.592	16.232	839.831	631.883
351.606	16.267	839.094	631.405
352.621	16.153	838.832	630.723
353.635	16.110	838.133	629.980
354.650	16.253	837.558	630.027
355.665	16.305	837.159	629.867
356.679	16.330	836.144	629.138
357.694	16.445	835.546	629.061
358.708	16.404	834.744	628.251
359.723	16.447	834.209	627.951
360.738	16.461	833.873	627.695
361.752	16.416	833.475	627.172
362.767	16.478	832.699	626.762
363.781	16.415	832.569	626.378
364.796	16.552	831.668	626.152
365.810	16.622	831.311	626.084
366.825	16.585	830.955	625.627
367.840	16.691	830.408	625.548
368.854	16.738	829.770	625.187
369.869	16.764	829.516	625.036
370.883	16.700	829.101	624.431
371.898	16.731	828.888	624.332
372.913	16.684	828.281	623.644
373.927	16.720	827.492	623.127
374.942	16.891	827.144	623.440
375.956	16.867	826.605	622.892
376.971	16.702	826.768	622.350
377.986	16.853	826.234	622.450
379.000	16.991	825.393	622.266
380.015	16.976	824.888	621.775
381.029	16.917	824.347	621.096
382.044	17.025	823.754	620.989
383.059	16.961	823.206	620.287
384.073	16.971	822.554	619.779
385.088	16.897	822.196	619.184
386.102	16.784	821.669	618.319
387.117	17.063	820.918	618.719
388.132	16.799	820.587	617.450
389.146	16.784	820.085	616.963
390.161	16.905	819.529	616.933
391.175	17.024	819.470	617.266
392.190	16.979	818.464	616.291
393.205	16.931	817.926	615.657
394.219	17.049	817.552	615.747
395.234	16.936	817.557	615.287
396.248	16.792	817.130	614.389
397.263	16.948	816.535	614.452
398.278	16.935	816.428	614.271
399.292	17.073	815.849	614.281
400.307	16.883	815.165	613.023
401.321	17.057	814.691	613.242
402.336	16.931	814.580	612.647
403.350	17.048	813.762	612.402
404.365	17.241	813.269	612.673
405.380	17.111	812.910	611.881
406.394	17.252	812.273	611.853
407.409	17.205	812.063	611.474
408.423	17.237	811.622	611.201
409.438	17.273	811.518	611.197
410.453	17.443	810.636	611.090
411.467	17.383	810.004	610.343
412.482	17.414	810.084	610.461
413.496	17.328	809.679	609.793
414.511	17.460	808.981	609.689
415.526	17.429	808.611	609.244
416.540	17.387	808.477	608.939
417.555	17.405	807.328	608.082
418.569	17.393	807.314	607.977
419.584	17.506	806.568	607.764
420.599	17.351	806.396	607.029
421.613	110.872	1294.917	1477.490
422.628	95.653	1366.047	1477.582
