DTS Sentinel unit serial number:	SN413079Multiplexer serial number:	ORYXHardware model number:	OX4-SRSoftware version number:	ORYX F/W v4.00 Oryx Data Collector v3.7.2.0data status	okinstallation	princeton_trtdifferential loss correction	single-endedforward channel	channel 1reverse channel	N/Adate	2019/09/16time	04:54:35forward acquisition time	60.00reverse acquisition time	0.00gamma	496.2192k internal	0.2333k external	0.2333temperature offset calibration	0.9979default loss term (dB/km)	0.3790temperature slope calibration	1.0000multiplexer offset coefficient	1.0000multiplexer slope coefficient	1.0000fibre end	0.00T internal ref (°C)	27.19T ext. ref 1 (°C)	10.96T ext. ref 2 (°C)	21.71length (m)	temperature (°C)	Stokes	anti-Stokes-747.200	43.502	0.080	-0.074
-746.185	11.385	0.218	0.168
-745.171	263.032	0.097	-0.170
-744.156	-149.145	-0.331	0.027
-743.142	800.000	-0.089	0.255
-742.127	-200.000	-0.015	0.092
-741.112	-200.000	0.042	0.448
-740.098	111.375	-0.079	-0.096
-739.083	-30.480	0.234	0.133
-738.069	-200.000	-0.003	0.148
-737.054	-162.683	0.253	-0.012
-736.039	-57.267	-0.281	-0.124
-735.025	-122.295	0.108	0.018
-734.010	162.790	-0.094	0.133
-732.996	800.000	-0.120	-0.463
-731.981	-200.000	0.002	-0.120
-730.966	-20.041	-0.189	-0.117
-729.952	-50.197	0.236	-0.112
-728.937	-14.135	-0.210	0.136
-727.923	113.205	0.165	-0.201
-726.908	-200.000	-0.105	-0.593
-725.894	-7.141	-0.056	0.038
-724.879	800.000	-0.128	0.426
-723.864	-11.871	-0.065	0.043
-722.850	-71.980	-0.273	-0.102
-721.835	52.757	-0.288	-0.277
-720.821	800.000	0.072	-0.284
-719.806	91.597	-0.151	-0.171
-718.791	-200.000	-0.039	-0.239
-717.777	263.271	0.081	0.142
-716.762	-200.000	-0.041	-0.220
-715.748	21.480	0.150	0.122
-714.733	394.375	0.097	-0.203
-713.718	-57.767	-0.055	-0.024
-712.704	800.000	-0.013	-0.055
-711.689	800.000	0.043	-0.143
-710.675	-134.919	-0.261	0.032
-709.660	-200.000	0.001	0.164
-708.645	-117.775	-0.299	-0.054
-707.631	114.274	-0.288	-0.352
-706.616	478.400	-0.095	0.216
-705.602	77.589	-0.092	-0.099
-704.587	121.287	0.183	0.228
-703.572	-49.332	0.024	-0.012
-702.558	-16.339	-0.079	0.050
-701.543	-72.171	0.142	-0.053
-700.529	-13.754	0.123	-0.080
-699.514	-10.368	-0.401	-0.267
-698.499	54.820	0.088	-0.085
-697.485	138.604	-0.137	0.181
-696.470	-33.414	0.137	0.076
-695.456	86.104	0.017	-0.018
-694.441	-88.951	0.281	-0.083
-693.426	264.018	-0.086	-0.149
-692.412	-44.375	0.048	-0.024
-691.397	283.052	0.031	-0.056
-690.383	-46.009	-0.069	-0.034
-689.368	-59.846	-0.118	-0.051
-688.354	-200.000	0.035	0.221
-687.339	38.882	0.208	-0.186
-686.324	-200.000	0.047	-0.326
-685.310	-165.788	-0.073	-0.003
-684.295	-11.362	-0.270	-0.178
-683.281	-68.348	-0.214	-0.083
-682.266	-1.633	-0.374	-0.264
-681.251	-68.309	-0.043	0.017
-680.237	-179.301	0.092	0.002
-679.222	39.162	-0.277	-0.249
-678.208	20.708	0.148	-0.120
-677.193	-54.748	0.182	-0.082
-676.178	-33.482	-0.136	-0.075
-675.164	123.747	0.299	0.376
-674.149	-151.556	0.208	-0.015
-673.135	38.714	0.137	-0.123
-672.120	800.000	-0.034	-0.104
-671.105	-79.787	-0.173	-0.059
-670.091	800.000	0.065	-0.190
-669.076	-192.480	0.216	0.002
-668.062	-200.000	0.002	0.165
-667.047	-200.000	0.041	0.224
-666.032	-57.754	-0.031	0.014
-665.018	-200.000	0.020	0.360
-664.003	-53.790	-0.271	0.124
-662.989	-15.869	-0.101	0.065
-661.974	558.264	0.144	0.348
-660.959	-200.000	0.027	0.308
-659.945	538.477	-0.107	0.256
-658.930	-200.000	0.040	0.185
-657.916	-200.000	0.033	-0.195
-656.901	-27.433	0.150	-0.087
-655.886	-0.752	-0.287	0.204
-654.872	-100.052	-0.152	0.038
-653.857	-152.548	-0.190	0.014
-652.843	466.153	-0.082	0.184
-651.828	602.286	0.066	-0.165
-650.814	800.000	0.058	0.238
-649.799	4.519	0.343	0.252
-648.784	-75.284	0.492	0.176
-647.770	-200.000	0.005	0.157
-646.755	800.000	-0.055	-0.154
-645.741	800.000	0.022	0.081
-644.726	-200.000	-0.017	-0.075
-643.711	36.622	-0.289	-0.256
-642.697	-200.000	-0.065	0.468
-641.682	-200.000	-0.007	0.117
-640.668	-76.403	-0.033	-0.012
-639.653	-131.932	-0.024	0.003
-638.638	-200.000	0.005	-0.220
-637.624	391.031	-0.124	-0.258
-636.609	-70.184	0.214	0.081
-635.595	84.735	0.088	-0.097
-634.580	186.335	0.103	-0.153
-633.565	800.000	-0.061	-0.199
-632.551	-81.047	0.265	-0.088
-631.536	352.863	0.048	0.095
-630.522	62.497	-0.190	0.190
-629.507	-200.000	-0.014	-0.183
-628.492	17.132	0.016	-0.013
-627.478	-146.585	-0.117	0.010
-626.463	-66.793	0.203	-0.080
-625.449	-130.695	0.226	-0.030
-624.434	200.929	0.091	0.140
-623.419	800.000	-0.032	0.115
-622.405	-200.000	0.012	0.312
-621.390	-200.000	0.025	0.244
-620.376	2.874	-0.137	-0.099
-619.361	-135.463	0.164	-0.020
-618.346	-200.000	-0.040	0.224
-617.332	-99.809	-0.181	0.045
-616.317	670.390	-0.105	0.272
-615.303	-67.976	0.150	0.058
-614.288	-200.000	0.006	-0.059
-613.273	800.000	-0.070	-0.278
-612.259	315.349	-0.110	-0.208
-611.244	-200.000	0.063	-0.390
-610.230	-80.850	-0.093	0.031
-609.215	739.245	0.078	0.210
-608.201	-200.000	0.036	0.324
-607.186	-200.000	0.025	0.301
-606.171	-126.201	-0.136	0.020
-605.157	-200.000	-0.062	-0.328
-604.142	-124.636	0.156	0.024
-603.128	351.672	0.096	0.190
-602.113	800.000	-0.052	-0.178
-601.098	343.035	0.062	-0.121
-600.084	-112.148	0.229	-0.046
-599.069	161.310	0.115	0.161
-598.055	800.000	0.073	0.229
-597.040	70.376	-0.163	0.168
-596.025	-200.000	-0.036	-0.178
-595.011	-85.528	0.277	0.086
-593.996	-6.535	-0.017	0.012
-592.982	-200.000	-0.035	-0.309
-591.967	63.405	-0.053	-0.053
-590.952	-8.217	0.132	0.089
-589.938	800.000	0.033	-0.104
-588.923	-200.000	0.013	0.182
-587.909	-11.900	-0.114	0.075
-586.894	-36.077	0.141	0.076
-585.879	426.971	-0.067	0.143
-584.865	-110.695	0.200	0.041
-583.850	-200.000	-0.012	0.200
-582.836	-100.080	0.159	0.040
-581.821	180.156	-0.075	0.109
-580.806	-200.000	-0.044	0.203
-579.792	-44.982	0.228	-0.113
-578.777	800.000	-0.102	-0.316
-577.763	252.440	0.047	-0.080
-576.748	640.720	-0.088	-0.223
-575.733	17.992	0.095	-0.075
-574.719	-172.530	-0.081	-0.003
-573.704	335.326	-0.022	-0.043
-572.690	-168.760	0.406	-0.015
-571.675	236.672	0.097	-0.160
-570.661	800.000	0.063	-0.269
-569.646	-40.439	0.251	0.130
-568.631	363.781	0.090	-0.180
-567.617	21.795	0.383	0.311
-566.602	-36.434	-0.383	-0.206
-565.588	-197.130	-0.101	-0.001
-564.573	-103.924	0.276	-0.064
-563.558	-102.810	-0.254	0.060
-562.544	-179.046	0.217	0.005
-561.529	370.183	-0.101	-0.203
-560.515	-130.094	0.011	-0.002
-559.500	98.256	0.147	0.169
-558.485	-158.732	-0.366	-0.021
-557.471	-200.000	0.022	-0.110
-556.456	45.158	0.185	-0.170
-555.442	33.004	0.150	-0.129
-554.427	-91.791	-0.171	0.048
-553.412	-67.919	-0.071	0.028
-552.398	488.197	0.016	0.037
-551.383	-5.687	0.166	-0.113
-550.369	-164.744	-0.288	-0.013
-549.354	-200.000	0.012	-0.159
-548.339	-2.167	0.232	0.162
-547.325	432.715	-0.057	-0.124
-546.310	45.344	0.332	0.306
-545.296	-151.844	-0.204	-0.015
-544.281	-68.731	-0.196	0.076
-543.266	5.442	0.174	0.128
-542.252	114.523	-0.084	0.102
-541.237	203.985	0.173	-0.267
-540.223	36.099	0.098	-0.086
-539.208	-60.677	-0.464	0.196
-538.193	645.083	0.056	0.143
-537.179	62.129	-0.321	-0.319
-536.164	22.779	0.047	0.038
-535.150	-101.026	-0.062	-0.015
-534.135	-200.000	0.028	-0.341
-533.121	-79.350	0.247	-0.083
-532.106	-103.090	0.263	-0.062
-531.091	-141.604	-0.215	-0.022
-530.077	-16.770	0.346	0.218
-529.062	-200.000	0.001	0.040
-528.048	-168.725	0.162	-0.006
-527.033	170.777	0.039	-0.056
-526.018	-194.998	-0.132	0.001
-525.004	465.811	-0.178	0.398
-523.989	-7.777	0.327	0.220
-522.975	397.016	-0.115	-0.240
-521.960	123.007	0.144	-0.179
-520.945	153.681	0.210	0.287
-519.931	-41.339	0.097	-0.050
-518.916	-126.704	-0.023	0.003
-517.902	80.789	-0.109	-0.117
-516.887	-106.214	-0.193	0.043
-515.872	-200.000	-0.003	0.034
-514.858	-200.000	0.064	-0.350
-513.843	71.054	-0.460	-0.475
-512.829	-4.062	0.349	-0.241
-511.814	-150.899	-0.161	0.012
-510.799	-84.478	0.376	0.118
-509.785	-98.431	0.209	0.053
-508.770	800.000	0.067	0.197
-507.756	-200.000	-0.094	0.000
-506.741	286.011	0.172	0.308
-505.726	-41.629	-0.121	0.062
-504.712	-80.769	0.260	-0.086
-503.697	-115.213	-0.237	-0.045
-502.683	101.458	-0.062	0.072
-501.668	53.567	0.173	-0.165
-500.653	-56.497	0.121	0.054
-499.639	-144.114	0.286	0.027
-498.624	787.138	0.030	-0.081
-497.610	305.012	-0.064	-0.118
-496.595	17.906	0.094	-0.075
-495.581	-200.000	-0.003	0.241
-494.566	-200.000	-0.008	0.235
-493.551	-200.000	0.005	-0.254
-492.537	-153.880	0.319	-0.022
-491.522	11.124	-0.039	-0.029
-490.508	-200.000	0.035	-0.304
-489.493	-200.000	0.052	0.340
-488.478	495.321	-0.057	-0.129
-487.464	-37.931	-0.271	-0.143
-486.449	161.037	-0.148	0.207
-485.435	-15.988	-0.214	-0.135
-484.420	-94.259	-0.175	-0.048
-483.405	800.000	-0.054	-0.236
-482.391	0.401	-0.265	-0.189
-481.376	8.934	-0.057	0.043
-480.362	800.000	-0.095	-0.360
-479.347	-59.049	0.188	0.081
-478.332	800.000	-0.052	-0.215
-477.318	-200.000	0.040	-0.177
-476.303	-4.647	-0.434	-0.298
-475.289	123.315	-0.053	0.066
-474.274	-166.059	-0.450	-0.019
-473.259	441.582	0.054	0.117
-472.245	-95.893	0.083	0.022
-471.230	599.091	0.033	-0.082
-470.216	-53.708	-0.112	-0.051
-469.201	-18.685	0.100	-0.062
-468.186	53.608	-0.298	-0.284
-467.172	219.509	-0.095	0.151
-466.157	36.113	0.116	0.102
-465.143	54.474	-0.125	-0.120
-464.128	256.854	-0.027	0.046
-463.113	391.436	-0.049	-0.102
-462.099	-54.379	-0.291	0.131
-461.084	268.900	-0.145	0.253
-460.070	233.877	0.103	0.169
-459.055	29.644	-0.272	-0.230
-458.040	-70.616	-0.301	-0.113
-457.026	800.000	-0.056	0.232
-456.011	-200.000	-0.003	0.037
-454.997	-9.372	0.056	0.037
-453.982	-181.870	0.302	0.006
-452.968	-83.077	-0.190	-0.061
-451.953	-145.668	0.141	0.013
-450.938	-179.030	-0.304	0.007
-449.924	-19.485	0.207	0.127
-448.909	-27.153	0.243	-0.141
-447.895	-200.000	0.051	-0.244
-446.880	-113.831	0.244	0.047
-445.865	-8.227	-0.300	0.200
-444.851	534.425	-0.072	0.170
-443.836	7.765	-0.197	-0.147
-442.822	-200.000	0.073	0.337
-441.807	-102.200	0.278	-0.067
-440.792	-22.104	-0.066	-0.040
-439.778	-2.294	0.270	0.188
-438.763	-8.587	0.165	0.110
-437.749	-22.442	-0.074	0.044
-436.734	19.731	0.196	0.157
-435.719	-108.059	-0.104	-0.022
-434.705	-200.000	-0.025	-0.301
-433.690	-118.271	0.325	0.057
-432.676	-200.000	-0.048	-0.280
-431.661	42.568	-0.085	-0.077
-430.646	77.775	0.252	0.267
-429.632	800.000	-0.067	0.200
-428.617	-200.000	-0.001	-0.202
-427.603	30.244	0.103	0.088
-426.588	-200.000	0.037	-0.163
-425.573	113.831	-0.131	0.158
-424.559	-200.000	0.043	-0.212
-423.544	37.620	-0.236	-0.208
-422.530	800.000	-0.024	0.075
-421.515	-151.998	-0.052	-0.004
-420.500	-21.411	0.103	0.062
-419.486	-157.846	-0.190	-0.011
-418.471	472.083	-0.133	-0.297
-417.457	-4.359	0.178	0.122
-416.442	293.109	-0.110	0.200
-415.428	-76.078	-0.196	-0.069
-414.413	-79.093	0.047	0.016
-413.398	166.866	0.333	-0.469
-412.384	-124.038	0.189	-0.030
-411.369	-116.521	-0.059	-0.011
-410.355	-188.587	0.239	0.003
-409.340	-200.000	-0.010	-0.119
-408.325	-89.225	0.054	0.016
-407.311	342.722	-0.203	-0.395
-406.296	31.901	-0.053	0.045
-405.282	-83.994	0.118	0.037
-404.267	-25.742	-0.312	-0.183
-403.252	-88.852	0.209	-0.061
-402.238	104.895	0.116	0.136
-401.223	-56.734	-0.082	0.036
-400.209	-81.316	-0.127	-0.041
-399.194	245.385	0.177	0.295
-398.179	-200.000	-0.033	0.277
-397.165	-129.784	-0.148	-0.020
-396.150	-58.792	0.143	-0.061
-395.136	800.000	0.059	-0.253
-394.121	100.057	0.097	-0.112
-393.106	800.000	-0.075	0.235
-392.092	261.518	-0.120	0.206
-391.077	-67.448	-0.059	-0.023
-390.063	373.874	0.158	0.318
-389.048	800.000	-0.070	0.206
-388.033	800.000	0.055	0.197
-387.019	11.006	-0.275	-0.209
-386.004	-14.738	-0.187	0.119
-384.990	800.000	0.114	-0.365
-383.975	-81.149	-0.200	-0.066
-382.960	-100.768	-0.179	-0.044
-381.946	800.000	-0.025	-0.104
-380.931	15.947	-0.160	0.125
-379.917	-51.950	-0.500	0.231
-378.902	62.230	-0.111	-0.109
-377.888	-200.000	0.050	-0.302
-376.873	-120.248	0.355	0.060
-375.858	-155.748	-0.262	0.017
-374.844	213.239	-0.078	-0.123
-373.829	48.137	0.160	0.148
-372.815	52.757	-0.406	-0.384
-371.800	-200.000	-0.118	-0.519
-370.785	800.000	0.049	0.156
-369.771	419.566	0.118	-0.251
-368.756	-178.015	0.004	0.000
-367.742	800.000	-0.088	-0.341
-366.727	74.313	0.097	-0.101
-365.712	-88.962	-0.145	0.043
-364.698	-200.000	-0.017	-0.150
-363.683	-42.192	0.193	-0.098
-362.669	-5.616	0.188	-0.128
-361.654	47.105	0.075	-0.069
-360.639	-44.917	0.192	-0.095
-359.625	548.445	0.065	-0.154
-358.610	143.677	0.222	-0.293
-357.596	359.134	-0.138	0.274
-356.581	287.180	-0.099	-0.176
-355.566	-108.729	-0.272	0.058
-354.552	53.930	0.155	-0.147
-353.537	-200.000	0.062	-0.292
-352.523	-63.991	0.238	0.096
-351.508	-44.087	-0.131	-0.065
-350.493	151.198	-0.120	-0.162
-349.479	-95.126	0.209	-0.056
-348.464	30.558	-0.025	0.021
-347.450	56.016	0.199	-0.191
-346.435	34.443	-0.162	0.140
-345.420	-200.000	-0.052	-0.226
-344.406	-152.068	-0.141	-0.010
-343.391	41.575	0.188	-0.169
-342.377	136.476	-0.053	-0.068
-341.362	-115.738	-0.485	0.090
-340.348	-200.000	-0.043	-0.311
-339.333	11.814	0.184	-0.140
-338.318	241.045	0.224	0.370
-337.304	-17.247	-0.378	0.236
-336.289	-200.000	0.003	0.157
-335.275	399.874	-0.162	0.336
-334.260	433.142	-0.140	0.302
-333.245	134.891	0.224	0.288
-332.231	247.371	-0.149	0.248
-331.216	-200.000	-0.071	0.365
-330.202	-200.000	-0.015	-0.116
-329.187	-70.194	-0.222	0.083
-328.172	-133.089	0.111	0.014
-327.158	-200.000	-0.062	0.346
-326.143	37.215	0.145	0.127
-325.129	465.533	0.070	0.154
-324.114	67.212	0.121	0.122
-323.099	-74.178	0.066	-0.024
-322.085	355.790	0.128	-0.251
-321.070	-103.828	0.097	-0.022
-320.056	-151.093	-0.103	0.008
-319.041	-200.000	-0.030	-0.137
-318.026	280.576	-0.073	-0.129
-317.012	-42.779	-0.195	-0.098
-315.997	-89.852	0.133	0.038
-314.983	121.138	0.231	0.284
-313.968	-82.131	0.163	0.053
-312.953	-200.000	-0.015	0.165
-311.939	326.654	-0.103	-0.195
-310.924	76.072	0.120	-0.126
-309.910	-200.000	0.047	0.293
-308.895	-1.763	0.103	-0.072
-307.880	71.386	-0.217	-0.222
-306.866	-46.795	0.046	0.022
-305.851	-120.275	-0.118	0.020
-304.837	-200.000	0.009	0.305
-303.822	330.367	0.100	0.191
-302.807	442.215	-0.073	-0.158
-301.793	-98.461	-0.299	0.076
-300.778	59.541	0.166	-0.161
-299.764	-154.477	-0.309	0.020
-298.749	-107.131	-0.221	-0.048
-297.735	260.374	-0.135	0.231
-296.720	800.000	-0.037	0.132
-295.705	306.285	-0.143	0.263
-294.691	54.427	-0.062	-0.059
-293.676	-115.540	0.611	0.114
-292.662	-200.000	-0.055	0.272
-291.647	69.272	0.236	-0.239
-290.632	284.033	-0.175	-0.311
-289.618	-200.000	0.058	-0.295
-288.603	-91.468	-0.209	-0.059
-287.589	-52.314	-0.288	-0.132
-286.574	216.822	-0.033	0.052
-285.559	9.732	-0.132	-0.099
-284.545	-105.657	-0.094	-0.021
-283.530	-200.000	0.015	0.132
-282.516	-136.317	0.292	0.034
-281.501	48.940	-0.063	0.058
-280.486	77.426	0.130	-0.137
-279.472	-200.000	0.004	-0.242
-278.457	224.530	-0.170	-0.271
-277.443	205.767	0.055	-0.085
-276.428	381.777	-0.083	-0.169
-275.413	800.000	0.019	0.069
-274.399	800.000	-0.067	-0.215
-273.384	-50.442	0.143	0.066
-272.370	263.253	0.097	-0.166
-271.355	-200.000	-0.037	0.174
-270.340	360.038	0.100	0.198
-269.326	22.553	-0.283	0.228
-268.311	-132.369	-0.071	-0.009
-267.297	-107.375	-0.369	-0.080
-266.282	-182.565	0.034	-0.001
-265.267	1.305	0.094	-0.067
-264.253	-200.000	0.034	-0.293
-263.238	193.042	0.034	-0.051
-262.224	-103.952	-0.179	-0.041
-261.209	-17.772	-0.067	0.041
-260.195	14.055	0.044	-0.034
-259.180	-195.676	0.174	-0.001
-258.165	-147.669	0.301	-0.025
-257.151	-200.000	0.025	0.152
-256.136	-41.918	-0.135	-0.068
-255.122	-108.171	0.183	0.039
-254.107	-80.643	0.248	0.081
-253.092	210.246	-0.142	0.220
-252.078	-200.000	-0.003	0.363
-251.063	800.000	-0.012	-0.034
-250.049	609.307	0.016	0.040
-249.034	-120.756	-0.313	0.052
-248.019	-72.158	-0.099	0.036
-247.005	-71.348	-0.216	0.080
-245.990	-200.000	0.039	0.204
-244.976	-128.932	-0.274	0.038
-243.961	64.939	-0.072	-0.071
-242.946	32.255	0.207	-0.176
-241.932	154.983	0.041	0.055
-240.917	-9.145	0.174	0.115
-239.903	-40.518	0.150	0.077
-238.888	-158.134	0.359	0.021
-237.873	-200.000	0.021	-0.093
-236.859	33.364	0.223	-0.191
-235.844	-109.910	0.247	0.051
-234.830	633.608	-0.181	0.453
-233.815	-200.000	-0.003	0.367
-232.800	-147.242	0.130	0.011
-231.786	-70.665	0.178	0.066
-230.771	135.705	-0.215	-0.276
-229.757	239.855	0.018	-0.029
-228.742	-3.801	-0.130	0.089
-227.727	-73.424	-0.353	-0.127
-226.713	-158.375	-0.252	-0.014
-225.698	-16.906	-0.084	-0.052
-224.684	-44.334	0.120	0.059
-223.669	242.161	0.166	0.274
-222.655	-53.364	0.101	-0.045
-221.640	-183.919	-0.231	0.004
-220.625	105.761	0.240	0.280
-219.611	-67.629	0.166	-0.064
-218.596	-125.606	-0.106	0.016
-217.582	800.000	0.048	-0.201
-216.567	211.091	-0.075	-0.116
-215.552	800.000	0.069	-0.286
-214.538	-200.000	0.004	-0.071
-213.523	0.383	-0.267	0.188
-212.509	-200.000	-0.021	-0.158
-211.494	130.625	0.163	0.206
-210.479	-200.000	-0.027	0.271
-209.465	283.351	-0.139	-0.246
-208.450	800.000	0.034	-0.112
-207.436	-120.203	0.144	0.024
-206.421	102.405	-0.031	-0.036
-205.406	65.956	-0.152	0.151
-204.392	-200.000	0.047	-0.296
-203.377	42.715	0.054	0.049
-202.363	6.906	0.219	0.161
-201.348	-34.701	-0.463	-0.249
-200.333	-200.000	0.103	-0.566
-199.319	49.452	0.114	-0.106
-198.304	28.944	0.076	-0.064
-197.290	-36.748	-0.162	0.085
-196.275	800.000	0.015	0.061
-195.260	-63.736	-0.426	-0.172
-194.246	-13.289	-0.325	0.208
-193.231	142.700	0.260	-0.340
-192.217	452.806	0.116	0.253
-191.202	-97.182	-0.169	0.043
-190.187	-69.747	0.220	-0.083
-189.173	-74.148	-0.100	0.036
-188.158	-93.638	-0.267	-0.072
-187.144	48.307	0.109	0.100
-186.129	-37.374	-0.286	-0.151
-185.114	122.752	-0.154	-0.190
-184.100	-141.282	0.384	0.038
-183.085	800.000	-0.117	0.463
-182.071	800.000	0.079	0.311
-181.056	-9.383	0.221	-0.145
-180.042	291.226	-0.073	0.130
-179.027	413.653	-0.009	-0.019
-178.012	-132.966	-0.168	-0.021
-176.998	518.380	-0.093	-0.213
-175.983	-68.493	0.398	-0.152
-174.969	-200.000	0.004	0.287
-173.954	86.926	0.114	0.124
-172.939	-96.718	0.100	0.026
-171.925	-77.443	-0.139	0.047
-170.910	277.046	0.241	0.421
-169.896	-200.000	-0.025	0.208
-168.881	241.537	-0.272	0.447
-167.866	301.098	0.098	0.179
-166.852	4.951	0.044	-0.032
-165.837	57.975	-0.155	-0.149
-164.823	-200.000	-0.026	-0.138
-163.808	88.093	0.147	-0.161
-162.793	800.000	0.156	0.462
-161.779	91.407	0.073	0.080
-160.764	-124.080	0.324	-0.050
-159.750	-200.000	-0.018	0.182
-158.735	-33.399	0.215	0.117
-157.720	91.149	-0.246	0.271
-156.706	-200.000	-0.009	-0.044
-155.691	676.592	0.034	0.087
-154.677	-124.867	-0.193	0.029
-153.662	69.384	0.146	0.147
-152.647	23.677	-0.296	0.239
-151.633	339.037	-0.108	0.206
-150.618	516.849	-0.086	-0.198
-149.604	-63.850	-0.229	-0.092
-148.589	344.773	0.088	-0.169
-147.574	-145.759	-0.250	-0.022
-146.560	482.334	0.144	-0.321
-145.545	-143.374	0.170	0.016
-144.531	-88.570	0.240	0.070
-143.516	489.116	-0.153	-0.343
-142.502	-200.000	-0.033	0.237
-141.487	175.807	-0.070	0.100
-140.472	-200.000	-0.009	-0.203
-139.458	55.340	-0.208	-0.198
-138.443	349.276	-0.103	0.201
-137.429	99.313	0.236	0.268
-136.414	0.330	-0.290	0.203
-135.399	180.405	0.021	-0.030
-134.385	135.846	0.154	0.197
-133.370	-97.350	-0.316	-0.081
-132.356	800.000	0.022	-0.083
-131.341	351.985	-0.065	0.127
-130.326	-200.000	-0.046	0.207
-129.312	-200.000	0.023	-0.273
-128.297	-5.803	0.189	-0.127
-127.283	57.239	-0.236	-0.226
-126.268	-200.000	-0.037	0.305
-125.253	172.183	0.174	0.246
-124.239	14.816	0.091	0.070
-123.224	-200.000	0.025	-0.182
-122.210	55.869	0.247	-0.235
-121.195	-126.939	0.222	-0.032
-120.180	-101.610	0.330	-0.079
-119.166	800.000	-0.130	-0.434
-118.151	-200.000	-0.003	-0.191
-117.137	-19.139	0.069	-0.042
-116.122	62.837	0.255	-0.251
-115.107	-200.000	0.058	-0.475
-114.093	85.330	-0.051	0.055
-113.078	-200.000	0.036	-0.185
-112.064	-34.747	-0.443	-0.237
-111.049	-200.000	-0.029	-0.168
-110.034	-143.868	0.150	0.014
-109.020	164.002	-0.116	0.160
-108.005	100.365	-0.199	0.227
-106.991	78.001	0.183	-0.192
-105.976	-200.000	0.072	0.531
-104.962	-74.729	-0.226	0.080
-103.947	151.012	-0.143	0.191
-102.932	203.226	-0.162	-0.245
-101.918	-4.290	0.079	0.054
-100.903	67.094	-0.197	0.197
-99.889	800.000	-0.111	-0.359
-98.874	-76.098	0.055	0.019
-97.859	623.209	-0.115	-0.284
-96.845	800.000	0.029	0.089
-95.830	154.005	-0.208	0.280
-94.816	539.366	-0.011	0.025
-93.801	-34.693	0.125	-0.067
-92.786	-0.984	-0.156	-0.108
-91.772	-65.002	0.287	0.114
-90.757	-121.869	-0.115	0.019
-89.743	365.273	0.174	-0.343
-88.728	57.867	-0.007	0.006
-87.713	-65.698	0.340	0.133
-86.699	-37.230	0.150	0.079
-85.684	249.097	0.261	-0.433
-84.670	45.627	0.192	-0.173
-83.655	276.123	-0.076	-0.132
-82.640	-37.572	-0.135	0.071
-81.626	-81.282	-0.176	-0.057
-80.611	342.710	-0.198	-0.380
-79.597	121.804	-0.026	-0.032
-78.582	251.730	-0.079	-0.132
-77.567	89.734	0.222	0.243
-76.553	-85.185	0.237	-0.073
-75.538	59.210	-0.205	-0.198
-74.524	422.649	-0.133	-0.279
-73.509	-28.135	-0.158	-0.089
-72.494	-109.633	-0.262	-0.054
-71.480	800.000	0.128	-0.413
-70.465	-126.623	0.173	0.025
-69.451	-152.213	0.162	-0.011
-68.436	75.583	-0.095	-0.098
-67.422	253.895	-0.094	0.157
-66.407	110.617	0.010	-0.012
-65.392	95.201	0.105	0.118
-64.378	-200.000	0.031	-0.263
-63.363	324.880	0.159	-0.298
-62.349	557.036	0.015	-0.036
-61.334	33.663	-1.047	-0.892
-60.319	19.016	0.747	0.586
-59.305	800.000	-0.429	-1.514
-58.290	133.067	0.766	0.968
-57.276	213.170	0.905	1.399
-56.261	-200.000	114.565	648.234
-55.246	468.558	1512.472	3322.589
-54.232	146.657	2679.474	3523.954
-53.217	103.116	2152.557	2468.968
-52.203	38.518	1596.959	1393.560
-51.188	30.367	1342.533	1122.460
-50.173	27.706	1303.501	1074.138
-49.159	55.115	1359.744	1285.870
-48.144	53.439	1373.942	1289.208
-47.130	30.763	1329.564	1113.811
-46.115	27.273	1312.130	1078.512
-45.100	27.132	1307.030	1073.440
-44.086	27.079	1303.991	1070.594
-43.071	27.060	1301.770	1068.613
-42.057	26.999	1299.801	1066.596
-41.042	27.087	1297.866	1065.485
-40.027	27.026	1296.652	1064.088
-39.013	26.971	1294.798	1062.198
-37.998	27.040	1293.068	1061.143
-36.984	27.172	1290.985	1060.163
-35.969	27.281	1289.024	1059.142
-34.954	27.172	1288.116	1057.722
-33.940	27.204	1286.636	1056.650
-32.925	27.286	1284.776	1055.556
-31.911	27.269	1283.784	1054.601
-30.896	27.212	1281.992	1052.755
-29.881	27.255	1280.663	1051.869
-28.867	27.255	1279.883	1051.192
-27.852	27.344	1277.532	1049.728
-26.838	27.266	1276.222	1048.165
-25.823	27.309	1275.318	1047.629
-24.809	27.274	1273.834	1046.163
-23.794	27.275	1272.443	1044.988
-22.779	27.234	1271.179	1043.670
-21.765	27.249	1270.265	1042.965
-20.750	27.288	1268.811	1041.957
-19.736	27.277	1267.451	1040.735
-18.721	27.124	1266.676	1039.178
-17.706	27.230	1265.202	1038.535
-16.692	27.064	1264.578	1037.032
-15.677	27.236	1262.871	1036.575
-14.663	27.207	1262.298	1035.898
-13.648	27.132	1260.589	1034.028
-12.633	27.096	1259.892	1033.210
-11.619	27.070	1258.797	1032.121
-10.604	27.101	1258.365	1031.902
-9.590	27.161	1257.127	1031.189
-8.575	27.117	1255.996	1029.970
-7.560	27.159	1255.506	1029.763
-6.546	27.138	1254.409	1028.707
-5.531	27.127	1253.757	1028.071
-4.517	27.207	1252.421	1027.386
-3.502	27.235	1251.442	1026.701
-2.487	27.089	1251.080	1025.535
-1.473	27.171	1246.413	1022.131
-0.458	25.693	1231.694	1001.798
0.556	20.887	1215.318	965.490
1.571	17.489	1221.688	951.506
2.586	16.788	1236.493	958.985
3.600	16.851	1226.127	951.211
4.615	15.527	1159.885	892.709
5.629	12.621	1093.367	826.858
6.644	11.153	1076.969	807.119
7.659	10.889	1075.070	804.317
8.673	10.923	1073.388	803.153
9.688	10.875	1072.382	802.096
10.702	11.033	1070.199	801.169
11.717	12.856	1071.662	811.170
12.731	15.831	1075.335	828.549
13.746	17.497	1077.847	838.621
14.761	17.585	1077.068	838.373
15.775	16.658	1074.889	832.052
16.790	15.576	1072.756	825.013
17.804	14.803	1071.269	820.004
18.819	14.469	1069.863	817.223
19.834	14.154	1069.211	815.107
20.848	13.993	1068.007	813.330
21.863	13.702	1067.173	811.199
22.877	13.568	1066.541	809.991
23.892	13.480	1065.924	809.019
24.907	13.556	1065.475	808.978
25.921	13.502	1064.290	807.744
26.936	13.624	1062.859	807.180
27.950	13.642	1061.700	806.317
28.965	13.676	1060.060	805.167
29.980	13.790	1058.101	804.161
30.994	13.719	1057.645	803.398
32.009	13.820	1056.306	802.801
33.023	13.728	1055.721	801.836
34.038	13.636	1054.557	800.437
35.053	13.789	1053.483	800.289
36.067	13.762	1052.183	799.103
37.082	13.630	1051.646	797.990
38.096	13.756	1051.102	798.110
39.111	13.817	1050.130	797.598
40.126	13.588	1048.709	795.347
41.140	13.448	1048.122	794.160
42.155	13.503	1046.501	793.127
43.169	13.445	1045.569	792.070
44.184	13.362	1044.726	790.966
45.199	13.386	1043.760	790.276
46.213	13.632	1042.338	790.306
47.228	13.612	1041.663	789.629
48.242	13.663	1040.178	788.677
49.257	13.620	1039.601	787.962
50.271	13.670	1038.640	787.401
51.286	13.649	1037.954	786.711
52.301	13.645	1036.707	785.682
53.315	13.571	1035.819	784.585
54.330	13.462	1034.656	783.120
55.344	13.639	1033.568	783.063
56.359	13.723	1032.293	782.427
57.374	13.494	1031.597	780.750
58.388	13.444	1031.201	780.143
59.403	13.499	1030.221	779.595
60.417	13.486	1029.211	778.698
61.432	13.460	1028.543	778.002
62.447	13.313	1027.701	776.605
63.461	13.317	1027.117	776.115
64.476	13.420	1026.015	775.697
65.490	13.319	1025.010	774.395
66.505	13.484	1024.389	774.631
67.520	13.426	1024.428	774.321
68.534	13.456	1023.029	773.335
69.549	13.456	1022.289	772.704
70.563	13.289	1022.000	771.638
71.578	13.347	1020.625	770.803
72.593	13.310	1019.877	769.997
73.607	13.432	1019.163	769.956
74.622	13.416	1018.560	769.360
75.636	13.334	1017.980	768.472
76.651	13.313	1017.576	768.002
77.666	13.436	1016.834	767.943
78.680	13.349	1015.987	766.833
79.695	13.439	1015.444	766.773
80.709	13.481	1014.657	766.304
81.724	13.479	1013.813	765.591
82.739	13.570	1013.287	765.547
83.753	13.609	1012.448	765.027
84.768	13.782	1011.632	765.140
85.782	13.814	1010.727	764.537
86.797	13.764	1009.663	763.431
87.812	13.583	1008.718	761.817
88.826	13.525	1007.799	760.792
89.841	13.725	1006.665	760.782
90.855	13.792	1005.738	760.323
91.870	13.753	1005.243	759.705
92.884	13.817	1004.170	759.119
93.899	13.824	1003.544	758.611
94.914	13.943	1002.794	758.520
95.928	13.894	1001.881	757.539
96.943	13.839	1001.153	756.670
97.957	13.671	1000.294	755.188
98.972	13.682	999.308	754.424
99.987	13.847	998.198	754.274
101.001	13.798	997.272	753.281
102.016	13.695	996.537	752.195
103.030	13.799	995.776	752.022
104.045	13.886	995.081	751.828
105.060	13.694	994.194	750.221
106.074	13.606	993.433	749.185
107.089	13.609	992.142	748.159
108.103	13.556	991.596	747.441
109.118	13.570	990.306	746.465
110.133	13.520	989.334	745.440
111.147	13.598	988.669	745.223
112.162	13.565	987.742	744.311
113.176	13.507	987.492	743.795
114.191	13.648	986.455	743.581
115.206	13.603	985.784	742.809
116.220	13.803	984.446	742.629
117.235	13.669	983.855	741.519
118.249	13.530	982.834	740.064
119.264	13.548	982.320	739.691
120.279	13.538	981.407	738.895
121.293	13.532	980.404	738.047
122.308	13.526	979.539	737.301
123.322	13.516	978.156	736.154
124.337	13.451	977.603	735.380
125.352	13.589	976.584	735.163
126.366	13.561	975.476	734.139
127.381	13.471	974.658	733.062
128.395	13.576	973.346	732.476
129.410	13.551	973.025	732.056
130.424	13.673	971.643	731.491
131.439	13.717	970.983	731.122
132.454	13.677	969.878	730.049
133.468	13.729	969.487	729.921
134.483	13.700	968.671	729.115
135.497	13.611	967.742	727.958
136.512	13.687	966.628	727.391
137.527	13.616	966.182	726.678
138.541	13.672	965.309	726.203
139.556	13.677	964.937	725.881
140.570	13.763	964.273	725.692
141.585	14.016	962.665	725.524
142.600	13.792	962.319	724.222
143.614	13.883	961.446	723.898
144.629	13.854	960.728	723.166
145.643	13.863	960.001	722.595
146.658	13.903	958.399	721.500
147.673	13.794	958.104	720.737
148.687	13.793	956.956	719.809
149.702	13.774	955.918	718.881
150.716	13.681	955.517	718.112
151.731	13.757	954.683	717.751
152.746	13.786	953.848	717.186
153.760	13.732	953.419	716.566
154.775	13.950	952.729	716.926
155.789	14.005	951.799	716.398
156.804	13.805	951.446	715.206
157.819	14.037	950.310	715.288
158.833	14.036	949.802	714.837
159.848	14.067	948.934	714.255
160.862	13.923	948.330	713.120
161.877	13.977	946.993	712.283
162.892	13.808	945.818	710.614
163.906	13.899	944.943	710.280
164.921	13.768	944.589	709.393
165.935	13.947	943.786	709.492
166.950	13.855	942.677	708.201
167.964	13.882	942.128	707.840
168.979	13.946	940.703	706.983
169.994	14.017	939.894	706.611
171.008	13.972	939.410	705.993
172.023	13.966	938.692	705.367
173.037	14.015	937.990	704.984
174.052	13.987	937.631	704.535
175.067	13.904	937.018	703.658
176.081	13.959	936.229	703.239
177.096	14.046	935.484	702.984
178.110	14.024	934.809	702.319
179.125	13.953	934.266	701.551
180.140	14.164	933.491	701.796
181.154	14.092	933.379	701.348
182.169	14.165	932.769	701.136
183.183	14.178	932.360	700.821
184.198	14.278	931.185	700.294
185.213	14.122	931.033	699.462
186.227	14.194	930.024	698.947
187.242	14.275	929.674	698.962
188.256	14.427	928.345	698.539
189.271	14.285	928.093	697.690
190.286	14.061	927.412	696.177
191.300	14.037	926.458	695.301
192.315	14.033	926.110	694.960
193.329	14.051	925.276	694.349
194.344	14.032	924.990	693.995
195.359	14.129	924.160	693.714
196.373	14.306	923.267	693.720
197.388	14.291	923.330	693.645
198.402	14.413	922.802	693.693
199.417	14.523	922.041	693.518
200.432	14.416	921.536	692.631
201.446	14.470	920.939	692.347
202.461	14.552	920.475	692.275
203.475	14.519	919.890	691.637
204.490	14.531	918.923	690.898
205.504	14.464	918.316	690.106
206.519	14.349	917.627	689.050
207.534	14.368	917.116	688.683
208.548	14.494	916.280	688.516
209.563	14.458	915.462	687.690
210.577	14.493	914.876	687.336
211.592	14.660	914.085	687.367
212.607	14.605	913.360	686.536
213.621	14.598	912.695	685.947
214.636	14.556	912.388	685.481
215.650	14.549	911.683	684.864
216.665	14.711	910.587	684.641
217.680	14.704	910.253	684.301
218.694	14.673	909.593	683.620
219.709	14.694	908.785	683.039
220.723	14.672	908.059	682.342
221.738	14.661	907.347	681.702
222.753	14.756	906.682	681.529
223.767	14.723	906.575	681.255
224.782	14.777	905.767	680.804
225.796	14.803	905.072	680.331
226.811	14.859	904.370	679.968
227.826	14.760	903.825	679.096
228.840	14.666	903.132	678.134
229.855	14.770	902.344	677.904
230.869	14.769	901.644	677.316
231.884	14.772	900.795	676.629
232.899	14.759	899.976	675.903
233.913	14.789	899.338	675.485
234.928	14.788	898.439	674.746
235.942	14.722	898.151	674.200
236.957	14.690	897.517	673.538
237.972	14.792	896.994	673.495
238.986	14.731	896.491	672.813
240.001	14.867	895.482	672.544
241.015	14.802	895.288	672.076
242.030	14.831	894.659	671.662
243.045	14.927	893.887	671.408
244.059	14.974	893.693	671.394
245.074	14.832	893.082	670.304
246.088	14.947	891.918	669.830
247.103	15.013	891.161	669.467
248.117	14.937	890.814	668.844
249.132	15.170	890.549	669.520
250.147	15.083	890.291	668.916
251.161	15.271	888.936	668.590
252.176	15.208	888.393	667.870
253.190	15.458	887.564	668.183
254.205	15.396	887.574	667.887
255.220	15.305	886.498	666.656
256.234	15.396	885.875	666.487
257.249	15.395	885.210	665.924
258.263	15.376	884.274	665.087
259.278	15.369	883.959	664.763
260.293	15.441	883.306	664.499
261.307	15.361	882.789	663.734
262.322	15.484	882.038	663.598
263.336	15.503	881.391	663.126
264.351	15.404	881.080	662.443
265.366	15.628	879.543	662.111
266.380	15.568	879.524	661.804
267.395	15.601	878.712	661.265
268.409	15.627	877.620	660.485
269.424	15.440	877.295	659.449
270.439	15.395	876.594	658.685
271.453	15.393	876.111	658.254
272.468	15.488	875.091	657.805
273.482	15.484	874.741	657.467
274.497	15.565	873.905	657.096
275.512	15.664	873.502	657.122
276.526	15.567	873.265	656.509
277.541	15.690	872.419	656.294
278.555	15.535	872.158	655.436
279.570	15.828	871.126	655.741
280.585	15.661	870.328	654.433
281.599	15.616	869.746	653.762
282.614	15.703	868.850	653.371
283.628	15.897	868.320	653.666
284.643	15.798	867.959	652.954
285.657	15.618	867.198	651.626
286.672	15.751	867.011	651.941
287.687	15.583	866.194	650.620
288.701	15.736	865.632	650.731
289.716	15.701	865.401	650.365
290.730	15.775	864.974	650.273
291.745	15.981	863.978	650.262
292.760	15.761	863.350	648.885
293.774	15.898	862.459	648.685
294.789	15.977	861.592	648.280
295.803	15.926	860.983	647.566
296.818	15.895	860.456	646.993
297.833	15.904	859.981	646.616
298.847	15.864	859.526	646.063
299.862	15.975	858.854	645.925
300.876	15.891	858.564	645.326
301.891	16.152	857.252	645.281
302.906	16.013	857.283	644.717
303.920	16.077	856.718	644.479
304.935	16.123	856.204	644.213
305.949	16.098	855.472	643.510
306.964	16.121	854.566	642.859
307.979	16.156	854.314	642.746
308.993	16.207	853.966	642.621
310.008	16.209	853.104	641.924
311.022	16.168	852.592	641.323
312.037	16.228	851.710	640.831
313.052	16.180	851.160	640.182
314.066	15.970	850.896	639.127
315.081	16.125	850.310	639.218
316.095	16.115	849.640	638.622
317.110	16.149	849.090	638.281
318.125	16.099	848.415	637.525
319.139	16.072	848.467	637.405
320.154	16.128	847.545	636.868
321.168	16.198	846.775	636.499
322.183	16.274	846.408	636.454
323.197	16.382	845.736	636.299
324.212	16.291	845.554	635.763
325.227	16.119	845.236	634.818
326.241	16.219	844.244	634.394
327.256	16.195	843.812	633.923
328.270	16.189	843.318	633.475
329.285	16.218	842.397	632.836
330.300	16.349	841.747	632.782
331.314	16.276	841.468	632.242
332.329	16.246	841.350	631.987
333.343	16.400	840.280	631.699
334.358	16.331	840.318	631.416
335.373	16.353	839.733	631.002
336.387	16.476	839.287	631.071
337.402	16.383	839.374	630.735
338.416	16.454	839.157	630.781
339.431	16.607	838.395	630.720
340.446	16.562	837.665	629.947
341.460	16.693	837.598	630.331
342.475	16.700	837.327	630.098
343.489	16.651	836.731	629.411
344.504	16.848	836.185	629.678
345.519	16.686	835.622	628.596
346.533	16.731	835.114	628.322
347.548	16.542	835.027	627.501
348.562	16.652	833.971	627.059
349.577	16.564	833.572	626.380
350.592	16.645	832.772	626.020
351.606	16.629	831.971	625.306
352.621	16.678	831.494	625.071
353.635	16.617	831.175	624.552
354.650	16.640	830.103	623.777
355.665	16.635	829.536	623.277
356.679	16.776	829.421	623.655
357.694	16.690	828.734	622.764
358.708	16.724	827.750	622.094
359.723	16.839	827.368	622.176
360.738	16.929	826.639	621.904
361.752	16.799	825.836	620.768
362.767	16.951	825.658	621.137
363.781	16.976	825.107	620.756
364.796	17.068	824.338	620.461
365.810	17.199	824.219	620.794
366.825	17.056	824.062	620.100
367.840	17.142	823.365	619.833
368.854	17.207	822.773	619.568
369.869	17.082	822.566	618.904
370.883	17.111	822.002	618.530
371.898	17.209	821.998	618.829
372.913	17.196	821.476	618.336
373.927	17.136	820.878	617.613
374.942	17.115	820.422	617.137
375.956	17.323	819.590	617.212
376.971	17.367	819.629	617.346
377.986	17.220	819.163	616.407
379.000	17.391	818.304	616.325
380.015	17.374	817.795	615.829
381.029	17.426	817.086	615.426
382.044	17.277	816.978	614.752
383.059	17.423	816.155	614.605
384.073	17.331	815.913	614.038
385.088	17.293	815.137	613.261
386.102	17.303	814.483	612.752
387.117	17.276	814.266	612.437
388.132	17.360	813.511	612.115
389.146	17.510	812.879	612.126
390.161	17.224	812.820	610.998
391.175	17.209	812.269	610.476
392.190	17.396	811.662	610.639
393.205	17.352	810.956	609.897
394.219	17.402	810.654	609.793
395.234	17.242	810.610	609.133
396.248	17.365	809.988	609.052
397.263	17.318	809.446	608.421
398.278	17.167	808.768	607.320
399.292	17.326	808.666	607.757
400.307	17.361	807.964	607.300
401.321	17.382	807.708	607.128
402.336	17.255	807.099	606.166
403.350	17.394	806.435	606.107
404.365	17.529	806.303	606.437
405.380	17.653	805.787	606.434
406.394	17.610	805.460	605.982
407.409	17.563	804.925	605.361
408.423	17.762	804.546	605.728
409.438	17.759	804.020	605.266
410.453	17.800	803.686	605.109
411.467	17.763	803.544	604.816
412.482	17.836	802.926	604.555
413.496	17.794	802.740	604.214
414.511	17.822	802.024	603.721
415.526	17.743	801.553	603.033
416.540	17.842	801.188	603.054
417.555	17.971	800.316	602.802
418.569	17.929	800.222	602.530
419.584	17.827	799.896	601.869
420.599	17.985	799.510	602.082
421.613	111.657	1294.788	1476.328
422.628	96.171	1366.913	1476.401
