DTS Sentinel unit serial number:	SN413079Multiplexer serial number:	ORYXHardware model number:	OX4-SRSoftware version number:	ORYX F/W v4.00 Oryx Data Collector v3.7.2.0data status	okinstallation	princeton_trtdifferential loss correction	single-endedforward channel	channel 1reverse channel	N/Adate	2019/09/18time	00:58:35forward acquisition time	60.00reverse acquisition time	0.00gamma	496.2192k internal	0.2341k external	0.2341temperature offset calibration	0.9978default loss term (dB/km)	0.3790temperature slope calibration	1.0000multiplexer offset coefficient	1.0000multiplexer slope coefficient	1.0000fibre end	0.00T internal ref (°C)	23.31T ext. ref 1 (°C)	0.16T ext. ref 2 (°C)	16.98length (m)	temperature (°C)	Stokes	anti-Stokes-747.200	207.655	0.134	0.210
-746.185	72.164	0.226	0.236
-745.171	-200.000	0.023	0.184
-744.156	-200.000	0.103	0.492
-743.142	327.258	0.107	0.205
-742.127	-86.830	0.193	0.059
-741.112	-200.000	-0.030	0.155
-740.098	36.233	-0.087	-0.077
-739.083	-40.151	-0.098	-0.051
-738.069	102.888	-0.192	0.226
-737.054	-43.704	-0.210	-0.106
-736.039	-200.000	0.011	-0.201
-735.025	-116.554	0.272	0.050
-734.010	143.511	-0.267	-0.356
-732.996	-4.081	-0.282	-0.196
-731.981	-53.561	0.250	0.115
-730.966	176.974	0.110	-0.160
-729.952	90.291	-0.136	-0.153
-728.937	237.889	0.060	0.100
-727.923	800.000	0.043	-0.120
-726.908	446.039	0.053	0.116
-725.894	194.751	-0.166	0.253
-724.879	177.741	-0.094	-0.137
-723.864	-39.630	-0.258	0.135
-722.850	-78.125	0.231	0.080
-721.835	-76.380	0.107	-0.038
-720.821	-200.000	-0.013	0.062
-719.806	222.837	0.098	0.158
-718.791	194.500	-0.176	0.268
-717.777	-89.632	0.261	0.077
-716.762	134.350	0.078	0.102
-715.748	-11.300	0.154	0.101
-714.733	-0.927	-0.034	-0.024
-713.718	-127.573	-0.072	-0.010
-712.704	18.654	-0.124	-0.099
-711.689	-179.385	-0.159	-0.004
-710.675	-113.978	0.169	-0.033
-709.660	263.648	-0.113	0.197
-708.645	109.174	0.037	-0.044
-707.631	18.335	0.182	-0.145
-706.616	279.425	-0.181	-0.323
-705.602	22.194	-0.079	0.065
-704.587	365.620	-0.051	-0.102
-703.572	701.287	-0.044	0.115
-702.558	-34.790	0.298	-0.163
-701.543	537.646	0.118	-0.281
-700.529	-106.266	0.270	-0.061
-699.514	-143.557	-0.045	-0.004
-698.499	447.124	0.011	-0.024
-697.485	-26.061	0.590	-0.347
-696.470	-200.000	0.051	-0.256
-695.456	430.868	0.075	0.162
-694.441	106.576	-0.138	0.164
-693.426	-200.000	0.004	-0.233
-692.412	-46.180	-0.213	-0.105
-691.397	-85.151	0.256	-0.080
-690.383	14.329	0.195	0.152
-689.368	-92.573	-0.323	0.091
-688.354	-162.210	-0.433	0.022
-687.339	800.000	-0.007	-0.022
-686.324	71.095	0.046	0.047
-685.310	170.073	0.099	0.141
-684.295	-200.000	-0.002	0.305
-683.281	526.245	0.089	-0.209
-682.266	-176.398	-0.429	0.011
-681.251	-200.000	-0.018	0.096
-680.237	99.362	0.268	0.309
-679.222	-200.000	-0.029	-0.227
-678.208	-100.303	0.187	-0.046
-677.193	173.218	-0.063	-0.090
-676.178	-93.937	-0.107	-0.029
-675.164	-106.342	0.073	0.016
-674.149	276.290	-0.165	-0.293
-673.135	800.000	0.054	0.189
-672.120	-110.733	0.201	-0.041
-671.105	-89.557	0.118	-0.035
-670.091	-160.750	-0.157	-0.008
-669.076	-108.598	-0.345	0.074
-668.062	-95.912	0.240	-0.064
-667.047	-142.021	-0.199	0.020
-666.032	61.177	-0.197	-0.196
-665.018	222.773	0.038	0.061
-664.003	-150.954	-0.374	-0.028
-662.989	-150.208	0.412	0.032
-661.974	-17.661	-0.290	0.182
-660.959	55.665	0.113	0.110
-659.945	-200.000	-0.031	0.440
-658.930	339.886	0.061	-0.118
-657.916	-87.559	0.179	-0.054
-656.901	564.575	-0.050	-0.121
-655.886	-200.000	0.000	0.022
-654.872	196.775	-0.182	-0.277
-653.857	-33.954	0.181	0.100
-652.843	-200.000	0.067	-0.311
-651.828	-200.000	0.003	0.042
-650.814	-200.000	0.016	0.133
-649.799	-9.308	-0.331	-0.221
-648.784	163.020	0.189	0.265
-647.770	-122.854	-0.442	0.071
-646.755	-114.672	-0.180	0.034
-645.741	-129.822	-0.369	0.051
-644.726	150.975	0.060	-0.081
-643.711	-107.425	0.195	0.043
-642.697	-111.717	-0.136	-0.028
-641.682	33.138	0.103	0.090
-640.668	11.241	-0.011	0.009
-639.653	76.994	-0.257	-0.272
-638.638	125.160	-0.112	-0.141
-637.624	-150.321	0.214	0.016
-636.609	-60.955	-0.237	-0.100
-635.595	225.857	-0.035	0.056
-634.580	-200.000	0.044	-0.497
-633.565	247.048	-0.196	-0.331
-632.551	60.920	-0.196	-0.194
-631.536	-200.000	-0.007	-0.360
-630.522	-200.000	-0.004	0.390
-629.507	353.603	-0.111	0.220
-628.492	288.385	-0.083	-0.150
-627.478	638.643	-0.107	0.271
-626.463	-200.000	0.021	0.403
-625.449	-27.917	0.249	-0.144
-624.434	-200.000	-0.001	0.273
-623.419	9.171	-0.227	-0.171
-622.405	650.345	-0.185	0.473
-621.390	800.000	0.024	-0.078
-620.376	574.554	0.088	-0.213
-619.361	-200.000	-0.020	0.117
-618.346	87.531	-0.081	-0.089
-617.332	523.200	0.147	-0.345
-616.317	-65.544	-0.261	-0.104
-615.303	133.148	-0.142	0.182
-614.288	141.373	-0.099	0.130
-613.273	7.571	0.089	-0.067
-612.259	-200.000	0.024	-0.190
-611.244	154.193	0.094	-0.128
-610.230	196.661	-0.121	-0.185
-609.215	-135.416	-0.207	0.025
-608.201	51.650	0.118	-0.111
-607.186	369.867	-0.115	-0.232
-606.171	-4.245	-0.030	0.020
-605.157	126.280	0.226	0.285
-604.142	745.718	0.090	0.242
-603.128	468.298	-0.169	0.377
-602.113	-1.190	0.333	0.235
-601.098	219.436	-0.084	0.134
-600.084	-200.000	0.034	-0.161
-599.069	-36.473	-0.197	-0.106
-598.055	-176.396	-0.056	-0.001
-597.040	800.000	-0.097	-0.348
-596.025	414.486	0.088	0.188
-595.011	-129.937	0.159	-0.022
-593.996	-58.029	0.134	-0.058
-592.982	-133.072	-0.199	0.025
-591.967	-35.003	-0.358	0.194
-590.952	119.466	0.135	0.167
-589.938	-200.000	-0.027	-0.226
-588.923	-46.240	-0.298	-0.146
-587.909	-29.876	0.078	-0.045
-586.894	-146.394	0.283	-0.025
-585.879	179.392	-0.064	0.093
-584.865	35.093	-0.118	-0.103
-583.850	-200.000	-0.046	-0.213
-582.836	207.590	0.116	0.180
-581.821	19.129	-0.100	-0.080
-580.806	-180.888	0.325	-0.007
-579.792	-122.850	-0.210	-0.034
-578.777	51.301	0.080	-0.076
-577.763	-83.284	-0.203	-0.065
-576.748	-200.000	0.000	-0.156
-575.733	-200.000	0.038	0.176
-574.719	75.273	-0.118	0.124
-573.704	-72.330	-0.402	-0.148
-572.690	800.000	-0.044	-0.188
-571.675	643.417	0.056	-0.141
-570.661	165.703	-0.132	0.186
-569.646	-36.012	0.192	-0.103
-568.631	-1.230	-0.187	-0.131
-567.617	-129.645	0.234	0.032
-566.602	-200.000	0.013	-0.238
-565.588	-200.000	-0.006	-0.170
-564.573	800.000	0.064	0.277
-563.558	361.917	0.058	0.116
-562.544	-34.886	0.078	-0.042
-561.529	-200.000	0.038	-0.196
-560.515	-107.708	0.475	0.103
-559.500	60.333	-0.118	-0.116
-558.485	-55.854	-0.155	-0.069
-557.471	800.000	0.162	-0.467
-556.456	-200.000	0.011	-0.102
-555.442	-46.844	-0.048	-0.023
-554.427	578.350	-0.135	0.328
-553.412	367.395	0.077	0.154
-552.398	145.572	-0.102	-0.136
-551.383	-168.731	0.139	0.005
-550.369	-66.864	-0.025	0.010
-549.354	-200.000	0.057	-0.401
-548.339	-200.000	0.029	-0.300
-547.325	246.197	-0.089	0.150
-546.310	-150.731	0.234	-0.018
-545.296	800.000	-0.055	-0.193
-544.281	-54.659	0.235	-0.106
-543.266	-20.324	-0.097	-0.059
-542.252	352.495	-0.038	-0.076
-541.237	417.592	0.110	-0.234
-540.223	-16.758	-0.221	0.139
-539.208	800.000	0.061	-0.260
-538.193	-95.337	-0.111	-0.030
-537.179	-126.978	-0.225	-0.033
-536.164	152.877	0.015	0.021
-535.150	307.905	0.019	-0.034
-534.135	-85.734	-0.358	0.110
-533.121	-43.570	0.167	-0.084
-532.106	137.533	0.188	-0.245
-531.091	-78.571	-0.090	-0.031
-530.077	-108.238	0.378	0.081
-529.062	-9.883	-0.064	0.043
-528.048	521.330	-0.111	0.258
-527.033	224.004	-0.059	0.094
-526.018	628.799	-0.075	0.188
-525.004	32.433	0.231	-0.198
-523.989	-21.828	0.320	0.193
-522.975	23.913	-0.117	0.096
-521.960	800.000	0.077	0.276
-520.945	21.673	-0.151	0.122
-519.931	-32.218	0.063	-0.035
-518.916	465.668	-0.127	-0.283
-517.902	-118.383	0.497	-0.088
-516.887	800.000	0.048	0.197
-515.872	-121.078	0.232	0.039
-514.858	84.003	0.056	-0.060
-513.843	-42.707	-0.440	-0.222
-512.829	800.000	-0.056	0.162
-511.814	-147.050	0.159	-0.014
-510.799	-70.812	0.264	0.099
-509.785	-91.970	-0.186	0.052
-508.770	-41.234	-0.071	0.037
-507.756	17.703	0.326	0.257
-506.741	800.000	0.036	0.129
-505.726	-200.000	0.016	0.137
-504.712	779.284	0.028	-0.077
-503.697	800.000	0.058	-0.208
-502.683	234.078	0.168	0.275
-501.668	33.865	0.041	0.036
-500.653	-44.804	0.260	0.129
-499.639	-127.268	-0.247	-0.036
-498.624	449.065	-0.049	-0.107
-497.610	137.105	-0.098	-0.127
-496.595	800.000	0.080	-0.304
-495.581	-88.059	-0.114	0.034
-494.566	-200.000	0.051	-0.305
-493.551	-4.023	0.217	0.150
-492.537	59.235	-0.171	-0.167
-491.522	381.659	-0.061	-0.124
-490.508	42.124	-0.200	0.181
-489.493	125.587	-0.036	0.045
-488.478	-200.000	-0.063	0.451
-487.464	-200.000	-0.052	-0.253
-486.449	-61.910	-0.080	-0.033
-485.435	-200.000	0.023	0.162
-484.420	-26.551	-0.100	-0.058
-483.405	227.530	-0.100	0.161
-482.391	-98.929	-0.225	0.057
-481.376	633.032	0.100	0.253
-480.362	-10.451	0.136	0.090
-479.347	622.063	0.117	-0.292
-478.332	-6.950	0.183	-0.123
-477.318	-117.697	0.313	0.056
-476.303	-119.463	0.133	-0.023
-475.289	-163.378	0.191	0.009
-474.274	-78.871	-0.197	-0.067
-473.259	-200.000	0.020	-0.093
-472.245	351.219	-0.049	-0.096
-471.230	372.487	0.212	0.427
-470.216	800.000	-0.016	-0.066
-469.201	-1.773	-0.107	-0.075
-468.186	-109.307	-0.215	0.045
-467.172	402.416	-0.180	-0.375
-466.157	-71.746	0.133	0.049
-465.143	-200.000	-0.050	0.315
-464.128	-127.425	-0.344	-0.050
-463.113	751.825	-0.137	0.367
-462.099	-85.799	0.093	0.029
-461.084	-59.010	0.159	-0.068
-460.070	30.948	-0.217	0.184
-459.055	-58.599	0.266	0.114
-458.040	-32.635	-0.120	-0.066
-457.026	-99.362	-0.317	0.079
-456.011	-67.953	0.404	0.156
-454.997	-200.000	-0.018	0.166
-453.982	-82.644	0.155	-0.050
-452.968	-7.289	0.121	-0.081
-451.953	-106.601	-0.444	-0.098
-450.938	-200.000	0.059	-0.313
-449.924	-200.000	0.043	0.551
-448.909	49.574	0.280	0.261
-447.895	-111.892	-0.225	-0.045
-446.880	-57.035	-0.342	-0.150
-445.865	-200.000	0.009	0.135
-444.851	-200.000	-0.021	-0.110
-443.836	7.136	0.101	-0.074
-442.822	-200.000	0.012	0.116
-441.807	16.730	0.074	-0.058
-440.792	5.551	-0.246	0.180
-439.778	-151.086	-0.177	-0.013
-438.763	-144.049	0.334	0.031
-437.749	-24.254	-0.178	0.105
-436.734	-200.000	0.023	0.115
-435.719	24.665	0.202	0.166
-434.705	800.000	-0.075	-0.281
-433.690	-200.000	-0.004	0.112
-432.676	-78.575	-0.390	0.132
-431.661	800.000	0.030	-0.105
-430.646	701.247	-0.060	0.155
-429.632	258.050	0.152	0.259
-428.617	-99.051	-0.042	-0.011
-427.603	-200.000	-0.011	-0.148
-426.588	-200.000	0.037	-0.193
-425.573	169.374	-0.173	-0.245
-424.559	-17.206	-0.120	-0.075
-423.544	-116.496	-0.149	-0.027
-422.530	202.464	0.046	-0.070
-421.515	-146.448	-0.276	-0.024
-420.500	800.000	0.062	-0.217
-419.486	-16.070	0.355	-0.223
-418.471	-71.270	0.287	-0.107
-417.457	800.000	0.082	-0.240
-416.442	106.178	0.118	0.138
-415.428	-200.000	0.039	0.238
-414.413	-46.104	-0.259	0.126
-413.398	238.225	0.086	-0.141
-412.384	153.790	-0.177	-0.240
-411.369	153.182	-0.049	-0.066
-410.355	0.963	0.061	0.043
-409.340	-56.734	-0.044	-0.019
-408.325	-63.489	-0.160	-0.065
-407.311	-125.225	-0.178	0.027
-406.296	-63.298	-0.064	-0.026
-405.282	-128.521	0.157	0.022
-404.267	294.082	0.071	-0.128
-403.252	455.609	0.061	-0.133
-402.238	-149.178	-0.064	-0.005
-401.223	-28.080	0.035	-0.020
-400.209	142.765	0.063	-0.083
-399.194	-51.455	0.065	0.030
-398.179	13.803	-0.085	-0.065
-397.165	-101.858	0.172	0.041
-396.150	-91.635	0.244	-0.069
-395.136	125.248	0.165	0.206
-394.121	-200.000	0.001	-0.276
-393.106	5.849	-0.092	0.067
-392.092	229.043	0.137	0.221
-391.077	447.276	-0.108	-0.234
-390.063	257.385	0.273	0.463
-389.048	-58.309	0.280	0.120
-388.033	36.319	-0.175	0.152
-387.019	800.000	-0.126	0.392
-386.004	-102.557	-0.111	0.026
-384.990	-200.000	-0.002	0.112
-383.975	-139.306	-0.043	0.005
-382.960	-200.000	-0.069	-0.395
-381.946	-97.031	0.331	-0.086
-380.931	235.184	0.124	-0.203
-379.917	-200.000	0.030	0.177
-378.902	-88.934	-0.210	-0.061
-377.888	-12.376	0.284	-0.184
-376.873	-200.000	0.009	-0.219
-375.858	177.050	0.086	-0.123
-374.844	800.000	-0.029	0.094
-373.829	-80.092	-0.294	-0.097
-372.815	-200.000	0.014	-0.306
-371.800	360.323	0.133	0.263
-370.785	800.000	-0.071	0.283
-369.771	46.312	-0.192	0.176
-368.756	132.724	-0.057	0.073
-367.742	324.331	-0.084	0.158
-366.727	778.058	-0.106	0.287
-365.712	-200.000	-0.007	-0.056
-364.698	366.856	0.090	0.180
-363.683	-31.964	-0.294	-0.162
-362.669	466.683	-0.089	-0.196
-361.654	682.907	0.145	-0.375
-360.639	-45.924	-0.221	0.108
-359.625	158.736	-0.105	-0.144
-358.610	-108.765	0.346	-0.073
-357.596	34.977	0.191	-0.165
-356.581	-200.000	0.002	-0.416
-355.566	37.000	0.201	0.176
-354.552	162.085	0.150	-0.207
-353.537	-154.465	-0.398	0.026
-352.523	800.000	-0.042	0.125
-351.508	800.000	-0.055	0.219
-350.493	-41.488	-0.176	-0.089
-349.479	-112.395	-0.068	-0.013
-348.464	9.920	-0.193	0.145
-347.450	-200.000	0.006	0.211
-346.435	-17.197	-0.092	0.057
-345.420	326.513	0.098	-0.184
-344.406	-48.022	-0.224	0.107
-343.391	-114.215	0.547	-0.104
-342.377	-54.846	0.246	-0.110
-341.362	-198.337	0.262	-0.001
-340.348	-46.103	0.135	-0.065
-339.333	145.433	0.095	0.125
-338.318	-21.335	-0.044	0.026
-337.304	-106.600	0.440	0.097
-336.289	456.175	0.139	0.304
-335.275	733.839	0.083	0.220
-334.260	10.346	-0.187	0.141
-333.245	-200.000	-0.058	0.275
-332.231	-104.787	0.430	-0.098
-331.216	800.000	-0.039	-0.165
-330.202	-200.000	-0.023	0.354
-329.187	-200.000	0.025	0.174
-328.172	-64.243	0.308	0.124
-327.158	29.154	-0.202	-0.169
-326.143	31.695	-0.162	0.138
-325.129	234.226	-0.068	-0.111
-324.114	552.665	-0.071	0.169
-323.099	-58.568	-0.028	0.012
-322.085	80.587	-0.114	-0.121
-321.070	66.278	-0.232	0.233
-320.056	296.128	0.052	0.094
-319.041	448.751	-0.164	-0.356
-318.026	-67.964	0.202	-0.078
-317.012	-123.145	-0.168	-0.027
-315.997	-200.000	0.014	-0.185
-314.983	185.527	0.269	-0.394
-313.968	-13.098	0.148	-0.095
-312.953	148.576	0.137	0.182
-311.939	87.668	-0.137	0.150
-310.924	-70.225	-0.219	-0.082
-309.910	-67.941	0.350	0.134
-308.895	800.000	-0.016	-0.056
-307.880	-200.000	0.036	0.180
-306.866	-102.126	0.351	-0.083
-305.851	-143.599	-0.241	0.023
-304.837	96.458	0.106	0.120
-303.822	-173.250	-0.184	0.006
-302.807	423.840	-0.163	0.346
-301.793	357.166	-0.068	-0.133
-300.778	-39.964	0.082	-0.042
-299.764	-79.856	0.162	0.054
-298.749	349.156	0.147	-0.285
-297.735	-200.000	-0.080	0.511
-296.720	167.966	0.136	-0.191
-295.705	800.000	0.083	0.285
-294.691	398.667	0.055	-0.113
-293.676	29.621	-0.366	0.307
-292.662	-165.439	0.273	-0.012
-291.647	-61.228	0.288	-0.119
-290.632	-67.455	-0.138	0.053
-289.618	79.120	0.217	-0.229
-288.603	48.747	-0.167	0.154
-287.589	-92.933	0.319	-0.088
-286.574	-98.470	0.145	0.037
-285.559	126.198	-0.217	0.270
-284.545	-13.243	0.510	0.326
-283.530	61.296	-0.181	0.177
-282.516	-59.365	-0.179	0.076
-281.501	204.935	0.035	0.053
-280.486	-94.265	0.146	0.039
-279.472	-200.000	-0.076	0.334
-278.457	-28.349	0.191	0.109
-277.443	-90.884	0.200	0.057
-276.428	-200.000	-0.065	-0.418
-275.413	85.694	0.264	-0.285
-274.399	55.141	-0.155	0.148
-273.384	-57.962	0.170	0.073
-272.370	-12.242	0.259	-0.167
-271.355	-124.847	-0.264	-0.040
-270.340	-200.000	0.021	0.162
-269.326	800.000	-0.053	0.201
-268.311	-117.013	0.349	0.063
-267.297	21.284	0.098	-0.079
-266.282	-200.000	-0.044	-0.430
-265.267	-107.480	-0.306	0.066
-264.253	-164.858	-0.582	0.026
-263.238	-200.000	0.006	-0.074
-262.224	345.189	-0.180	-0.349
-261.209	-200.000	-0.006	0.076
-260.195	-200.000	0.044	-0.204
-259.180	-40.589	0.321	0.164
-258.165	-200.000	0.025	-0.135
-257.151	20.698	-0.146	-0.116
-256.136	41.133	0.207	-0.184
-255.122	433.587	-0.167	-0.357
-254.107	235.664	-0.181	0.294
-253.092	218.621	0.170	-0.268
-252.078	420.677	0.079	0.166
-251.063	-150.510	0.148	0.011
-250.049	-123.141	-0.335	-0.053
-249.034	-200.000	0.025	0.442
-248.019	17.356	0.105	0.082
-247.005	-200.000	0.074	-0.320
-245.990	10.614	-0.207	0.155
-244.976	-72.028	0.073	-0.027
-243.961	132.280	-0.169	-0.214
-242.946	800.000	0.094	0.270
-241.932	800.000	-0.078	-0.276
-240.917	299.575	0.113	-0.204
-239.903	800.000	-0.074	0.290
-238.888	-54.882	0.529	0.234
-237.873	119.021	0.161	0.196
-236.859	-25.057	-0.106	-0.062
-235.844	-57.901	-0.328	0.141
-234.830	-200.000	-0.025	-0.485
-233.815	-200.000	0.032	0.197
-232.800	11.084	0.436	0.327
-231.786	800.000	0.007	0.027
-230.771	-26.978	-0.168	0.096
-229.757	-149.021	-0.259	-0.021
-228.742	81.187	-0.195	-0.207
-227.727	115.448	-0.026	0.031
-226.713	-101.772	-0.286	0.068
-225.698	800.000	0.098	0.304
-224.684	-54.901	0.106	0.047
-223.669	269.998	-0.137	0.237
-222.655	405.093	0.080	-0.166
-221.640	713.315	-0.084	0.218
-220.625	343.989	-0.092	-0.177
-219.611	-56.071	-0.203	0.089
-218.596	-200.000	-0.049	-0.413
-217.582	-9.921	-0.360	-0.235
-216.567	-10.099	0.378	0.247
-215.552	193.841	-0.123	-0.183
-214.538	-200.000	-0.070	-0.371
-213.523	800.000	0.063	0.206
-212.509	-77.242	0.030	0.010
-211.494	800.000	0.020	0.074
-210.479	373.349	-0.101	0.202
-209.465	99.249	0.179	0.203
-208.450	-200.000	0.014	0.134
-207.436	-31.974	-0.291	-0.160
-206.421	-35.045	-0.251	-0.134
-205.406	-26.304	0.158	-0.091
-204.392	-4.374	0.300	0.204
-203.377	554.495	0.097	-0.229
-202.363	15.021	-0.206	0.158
-201.348	-116.904	-0.035	-0.006
-200.333	69.109	-0.134	-0.135
-199.319	-200.000	0.024	0.131
-198.304	-4.190	-0.086	-0.059
-197.290	149.972	-0.210	-0.280
-196.275	34.774	-0.293	0.251
-195.260	601.257	0.091	-0.221
-194.246	-36.810	-0.332	-0.175
-193.231	-9.757	0.233	0.152
-192.217	800.000	0.034	0.141
-191.202	-200.000	-0.020	0.161
-190.187	-200.000	-0.017	-0.328
-189.173	41.224	0.068	0.060
-188.158	-200.000	-0.052	0.339
-187.144	-200.000	0.054	-0.317
-186.129	4.382	0.198	0.142
-185.114	-97.092	-0.112	0.029
-184.100	-185.679	-0.074	0.001
-183.085	76.092	0.116	0.120
-182.071	800.000	0.080	-0.263
-181.056	-48.626	-0.029	0.014
-180.042	151.876	-0.159	0.212
-179.027	-200.000	0.021	0.106
-178.012	-162.655	-0.203	-0.010
-176.998	516.093	0.089	-0.205
-175.983	-168.096	-0.065	-0.002
-174.969	307.453	-0.170	0.311
-173.954	-145.236	0.227	-0.020
-172.939	-180.166	-0.158	-0.003
-171.925	-1.361	-0.202	-0.139
-170.910	-154.960	-0.173	0.011
-169.896	92.169	-0.116	0.128
-168.881	-200.000	0.009	0.255
-167.866	-150.610	0.226	-0.017
-166.852	-200.000	0.038	-0.259
-165.837	126.066	0.068	-0.085
-164.823	328.897	0.133	0.251
-163.808	-62.481	0.319	0.130
-162.793	98.138	-0.110	-0.124
-161.779	27.335	0.087	-0.071
-160.764	9.501	0.156	-0.115
-159.750	-32.351	0.303	-0.166
-158.735	356.825	0.104	-0.203
-157.720	78.681	0.216	-0.226
-156.706	-8.380	-0.181	-0.119
-155.691	625.727	-0.103	0.254
-154.677	39.840	0.255	-0.224
-153.662	12.610	0.270	-0.204
-152.647	-200.000	-0.063	0.272
-151.633	161.536	0.081	0.111
-150.618	-72.498	-0.071	0.026
-149.604	518.040	0.042	0.096
-148.589	48.277	0.182	-0.167
-147.574	-54.968	-0.394	-0.174
-146.560	72.593	0.142	0.145
-145.545	-74.521	0.123	0.043
-144.531	-40.260	-0.108	0.055
-143.516	-105.369	-0.201	-0.045
-142.502	-200.000	-0.051	-0.274
-141.487	152.797	0.103	-0.138
-140.472	557.443	0.145	-0.343
-139.458	800.000	0.064	0.186
-138.443	800.000	0.071	-0.245
-137.429	327.378	-0.108	-0.202
-136.414	-188.383	-0.121	-0.001
-135.399	250.615	0.021	0.036
-134.385	-31.280	0.217	0.120
-133.370	-200.000	-0.010	0.111
-132.356	-67.618	0.260	-0.099
-131.341	19.939	0.099	0.078
-130.326	800.000	-0.050	-0.138
-129.312	-41.215	0.087	-0.044
-128.297	-71.694	-0.146	0.053
-127.283	277.404	0.116	-0.201
-126.268	134.823	-0.214	-0.272
-125.253	-149.741	0.272	-0.021
-124.239	90.225	0.132	0.144
-123.224	96.018	-0.084	-0.094
-122.210	106.290	-0.128	0.148
-121.195	236.596	0.123	0.199
-120.180	-147.016	0.165	0.014
-119.166	33.890	-0.164	-0.140
-118.151	-122.677	-0.143	-0.023
-117.137	-151.780	0.201	0.014
-116.122	-135.401	-0.282	-0.033
-115.107	15.269	0.177	-0.135
-114.093	800.000	0.084	-0.251
-113.078	103.343	0.154	0.177
-112.064	800.000	-0.056	0.208
-111.049	105.144	-0.081	0.094
-110.034	-76.009	0.283	-0.098
-109.020	45.772	0.166	0.150
-108.005	159.191	-0.021	0.028
-106.991	-66.205	0.054	0.021
-105.976	473.216	-0.161	-0.356
-104.962	-37.715	-0.253	0.132
-103.947	-84.619	-0.206	0.064
-102.932	800.000	0.054	0.158
-101.918	-54.473	-0.151	0.067
-100.903	-200.000	-0.102	-0.456
-99.889	800.000	0.069	-0.216
-98.874	18.419	0.109	0.085
-97.859	-200.000	-0.006	0.041
-96.845	-114.470	0.141	-0.027
-95.830	28.294	-0.262	0.216
-94.816	319.164	0.125	0.232
-93.801	-22.310	0.138	-0.082
-92.786	-200.000	0.010	-0.204
-91.772	800.000	0.114	0.343
-90.757	-200.000	-0.004	0.138
-89.743	223.637	0.058	-0.092
-88.728	800.000	0.043	-0.164
-87.713	-72.390	-0.570	-0.206
-86.699	220.834	0.240	-0.377
-85.684	-99.590	-0.206	-0.050
-84.670	-91.644	-0.063	0.017
-83.655	-200.000	0.005	0.458
-82.640	-19.936	-0.200	0.121
-81.626	658.152	-0.038	-0.094
-80.611	15.675	0.115	0.088
-79.597	800.000	0.036	0.137
-78.582	-118.254	-0.376	0.065
-77.567	-200.000	0.004	0.295
-76.553	-36.157	0.380	0.200
-75.538	591.711	-0.031	0.075
-74.524	800.000	0.063	0.200
-73.509	-200.000	0.001	0.340
-72.494	127.913	0.420	0.521
-71.480	-200.000	-0.042	-0.274
-70.465	89.873	0.099	0.108
-69.451	385.348	0.167	0.336
-68.436	172.561	-0.091	0.128
-67.422	581.551	0.033	0.079
-66.407	616.158	0.027	0.066
-65.392	800.000	-0.068	0.220
-64.378	-45.287	-0.237	-0.115
-63.363	-125.860	0.304	0.045
-62.349	-157.404	-0.213	0.013
-61.334	147.201	-0.988	-1.297
-60.319	-30.759	0.928	0.512
-59.305	575.811	-0.593	-1.414
-58.290	800.000	0.408	1.374
-57.276	283.889	0.793	1.390
-56.261	-200.000	124.658	668.374
-55.246	431.461	1566.013	3309.767
-54.232	143.799	2718.701	3534.549
-53.217	97.363	2147.223	2404.665
-52.203	34.899	1583.151	1351.265
-51.188	26.607	1327.851	1083.928
-50.173	23.989	1290.680	1038.283
-49.159	52.472	1360.438	1266.487
-48.144	49.066	1371.735	1256.549
-47.130	26.624	1320.025	1077.466
-46.115	23.457	1300.698	1043.050
-45.100	23.239	1295.413	1037.490
-44.086	23.153	1293.147	1035.131
-43.071	23.169	1290.626	1033.166
-42.057	23.130	1288.682	1031.340
-41.042	23.303	1286.468	1030.540
-40.027	23.185	1285.334	1028.901
-39.013	23.295	1283.268	1027.846
-37.998	23.200	1281.959	1026.207
-36.984	23.342	1280.173	1025.557
-35.969	23.222	1278.601	1023.566
-34.954	23.296	1276.939	1022.621
-33.940	23.278	1275.800	1021.563
-32.925	23.326	1274.128	1020.458
-31.911	23.404	1272.705	1019.730
-30.896	23.478	1271.112	1018.835
-29.881	23.471	1270.046	1017.904
-28.867	23.388	1268.993	1016.545
-27.852	23.413	1267.955	1015.812
-26.838	23.439	1266.135	1014.467
-25.823	23.400	1265.150	1013.414
-24.809	23.489	1263.703	1012.723
-23.794	23.394	1262.591	1011.245
-22.779	23.451	1260.475	1009.836
-21.765	23.459	1259.169	1008.796
-20.750	23.392	1258.374	1007.736
-19.736	23.258	1257.050	1005.874
-18.721	23.241	1256.000	1004.900
-17.706	23.308	1254.730	1004.223
-16.692	23.292	1253.897	1003.428
-15.677	23.127	1252.895	1001.650
-14.663	23.136	1251.784	1000.772
-13.648	23.174	1250.485	999.911
-12.633	23.333	1249.508	999.986
-11.619	23.291	1248.727	999.086
-10.604	23.322	1247.870	998.532
-9.590	23.268	1247.004	997.500
-8.575	23.284	1246.123	996.846
-7.560	23.304	1245.101	996.097
-6.546	23.205	1244.701	995.183
-5.531	23.154	1243.361	993.788
-4.517	23.169	1243.054	993.587
-3.502	23.254	1241.758	992.985
-2.487	23.259	1240.776	992.192
-1.473	23.213	1237.039	988.904
-0.458	21.635	1221.675	967.869
0.556	16.532	1206.799	931.638
1.571	13.064	1214.396	918.164
2.586	12.322	1229.825	925.567
3.600	12.308	1217.880	916.415
4.615	8.901	1146.994	845.071
5.629	3.024	1076.920	764.215
6.644	0.297	1060.258	738.966
7.659	0.127	1058.088	736.558
8.673	0.068	1057.393	735.721
9.688	0.127	1055.850	734.870
10.702	0.181	1053.629	733.522
11.717	3.888	1057.960	754.581
12.731	10.777	1067.031	794.782
13.746	15.583	1073.047	822.782
14.761	16.686	1073.784	828.681
15.775	15.860	1072.570	823.629
16.790	14.998	1070.253	817.569
17.804	14.188	1069.136	812.683
18.819	13.886	1067.600	809.976
19.834	13.762	1066.899	808.764
20.848	13.499	1065.721	806.522
21.863	13.283	1065.070	804.903
22.877	13.083	1064.107	803.132
23.892	13.095	1063.478	802.645
24.907	13.137	1062.637	802.145
25.921	13.317	1061.692	802.235
26.936	13.118	1061.352	800.938
27.950	13.312	1060.632	801.263
28.965	13.171	1059.158	799.401
29.980	13.344	1057.817	799.153
30.994	13.395	1056.917	798.646
32.009	13.347	1055.560	797.321
33.023	13.324	1054.735	796.514
34.038	13.324	1054.027	795.909
35.053	13.253	1053.155	794.840
36.067	13.283	1052.033	794.067
37.082	13.223	1051.861	793.579
38.096	13.330	1050.463	792.968
39.111	13.331	1050.045	792.587
40.126	13.239	1048.955	791.253
41.140	13.021	1047.695	789.189
42.155	13.110	1046.650	788.758
43.169	13.043	1045.527	787.525
44.184	13.120	1044.226	786.840
45.199	13.019	1043.539	785.770
46.213	13.075	1042.389	785.101
47.228	13.221	1041.553	785.096
48.242	13.366	1040.122	784.638
49.257	13.120	1039.241	782.736
50.271	13.242	1038.133	782.410
51.286	13.247	1037.414	781.822
52.301	13.251	1036.781	781.294
53.315	13.173	1035.575	779.952
54.330	13.142	1034.868	779.202
55.344	13.109	1033.779	778.158
56.359	13.234	1033.212	778.250
57.374	13.248	1031.603	777.037
58.388	13.022	1031.359	775.720
59.403	13.016	1030.522	774.996
60.417	13.060	1029.822	774.608
61.432	13.071	1028.888	773.885
62.447	13.062	1027.790	772.950
63.461	12.979	1027.308	772.130
64.476	13.085	1026.212	771.737
65.490	13.034	1025.700	771.042
66.505	13.011	1024.790	770.182
67.520	13.119	1024.019	770.041
68.534	13.117	1023.552	769.610
69.549	13.048	1022.664	768.552
70.563	12.965	1021.867	767.499
71.578	12.906	1021.031	766.530
72.593	13.003	1020.250	766.327
73.607	12.959	1019.652	765.608
74.622	12.907	1019.405	765.111
75.636	12.979	1018.445	764.658
76.651	13.013	1017.656	764.156
77.666	13.002	1017.128	763.639
78.680	12.919	1016.870	762.994
79.695	13.049	1015.888	762.791
80.709	12.993	1015.660	762.295
81.724	13.014	1015.076	761.884
82.739	13.121	1013.748	761.315
83.753	13.075	1013.313	760.709
84.768	13.320	1012.057	760.822
85.782	13.243	1011.236	759.786
86.797	13.215	1010.395	758.959
87.812	13.167	1009.607	758.080
88.826	13.310	1008.001	757.463
89.841	13.350	1007.235	757.000
90.855	13.267	1006.717	756.165
91.870	13.127	1006.285	755.134
92.884	13.395	1004.814	755.189
93.899	13.456	1003.870	754.689
94.914	13.456	1003.191	754.113
95.928	13.339	1002.828	753.237
96.943	13.254	1002.078	752.223
97.957	13.334	1000.953	751.674
98.972	13.318	1000.291	751.041
99.987	13.297	999.347	750.170
101.001	13.276	998.427	749.316
102.016	13.315	997.845	748.991
103.030	13.352	996.893	748.377
104.045	13.236	995.995	747.113
105.060	13.235	995.137	746.399
106.074	13.146	994.345	745.336
107.089	13.289	992.638	744.634
108.103	13.228	992.088	743.880
109.118	13.328	990.835	743.325
110.133	13.106	990.458	741.981
111.147	13.175	989.673	741.637
112.162	13.201	988.718	740.969
113.176	13.081	988.230	740.004
114.191	13.324	986.917	740.040
115.206	13.268	986.576	739.470
116.220	13.256	985.348	738.428
117.235	13.256	984.468	737.703
118.249	13.210	984.223	737.252
119.264	13.176	983.278	736.325
120.279	13.120	982.715	735.590
121.293	13.293	981.382	735.297
122.308	13.234	980.630	734.404
123.322	13.167	979.833	733.448
124.337	13.138	978.545	732.287
125.352	13.104	977.698	731.441
126.366	13.241	976.385	730.999
127.381	13.188	975.301	729.891
128.395	13.218	974.378	729.265
129.410	13.222	973.631	728.659
130.424	13.187	972.795	727.814
131.439	13.360	972.030	727.938
132.454	13.231	971.263	726.735
133.468	13.298	970.589	726.461
134.483	13.275	969.499	725.480
135.497	13.167	968.784	724.407
136.512	13.301	968.122	724.432
137.527	13.408	967.003	723.999
138.541	13.290	966.617	723.131
139.556	13.321	965.938	722.695
140.570	13.265	964.823	721.551
141.585	13.360	964.192	721.430
142.600	13.517	963.236	721.334
143.614	13.327	962.372	719.797
144.629	13.413	962.311	720.064
145.643	13.440	960.694	718.905
146.658	13.528	959.600	718.405
147.673	13.416	958.946	717.369
148.687	13.334	958.127	716.335
149.702	13.448	957.292	716.140
150.716	13.326	956.403	714.886
151.731	13.334	956.268	714.758
152.746	13.467	954.807	714.176
153.760	13.459	954.092	713.543
154.775	13.574	953.963	713.876
155.789	13.577	953.222	713.274
156.804	13.482	952.478	712.244
157.819	13.532	951.728	711.836
158.833	13.577	951.257	711.616
159.848	13.698	949.944	711.087
160.862	13.561	949.432	710.055
161.877	13.569	948.319	709.193
162.892	13.537	947.717	708.545
163.906	13.484	946.576	707.401
164.921	13.517	945.791	706.892
165.935	13.575	944.656	706.229
166.950	13.637	944.204	706.093
167.964	13.642	942.981	705.138
168.979	13.494	942.269	703.913
169.994	13.529	941.576	703.484
171.008	13.629	940.997	703.413
172.023	13.781	939.942	703.205
173.037	13.615	939.344	701.993
174.052	13.771	938.569	702.010
175.067	13.588	938.522	701.140
176.081	13.637	937.459	700.491
177.096	13.582	937.143	699.960
178.110	13.669	935.993	699.408
179.125	13.739	935.587	699.335
180.140	13.702	935.178	698.814
181.154	13.715	934.941	698.631
182.169	13.758	934.275	698.252
183.183	13.863	933.395	697.974
184.198	13.799	932.620	697.064
185.213	13.878	932.009	696.876
186.227	13.920	931.293	696.454
187.242	13.929	930.717	696.002
188.256	14.005	929.841	695.602
189.271	13.879	929.556	694.800
190.286	13.754	928.547	693.461
191.300	13.752	927.998	692.980
192.315	13.726	927.310	692.297
193.329	13.646	926.947	691.634
194.344	13.778	926.339	691.668
195.359	13.857	925.582	691.368
196.373	13.801	925.115	690.727
197.388	13.995	924.645	691.120
198.402	14.034	923.816	690.605
199.417	13.934	923.365	689.790
200.432	14.110	922.638	689.916
201.446	14.126	921.950	689.405
202.461	14.130	921.927	689.346
203.475	14.179	921.190	688.937
204.490	14.085	920.342	687.850
205.504	14.011	919.638	686.961
206.519	14.176	918.903	687.029
207.534	14.065	918.028	685.859
208.548	13.993	917.945	685.438
209.563	14.083	916.600	684.743
210.577	14.074	916.154	684.314
211.592	14.181	915.541	684.233
212.607	14.248	914.792	683.888
213.621	14.245	913.832	683.097
214.636	14.341	913.082	682.870
215.650	14.466	912.194	682.660
216.665	14.420	911.919	682.204
217.680	14.285	911.747	681.462
218.694	14.311	910.934	680.900
219.709	14.337	909.719	680.041
220.723	14.381	909.256	679.813
221.738	14.322	908.602	679.021
222.753	14.250	908.025	678.239
223.767	14.412	907.272	678.274
224.782	14.486	907.098	678.388
225.796	14.611	906.080	678.075
226.811	14.434	905.433	676.807
227.826	14.349	904.831	675.956
228.840	14.413	904.327	675.779
229.855	14.422	903.406	675.066
230.869	14.434	902.477	674.362
231.884	14.498	902.081	674.264
232.899	14.501	901.086	673.472
233.913	14.414	900.445	672.582
234.928	14.412	899.658	671.929
235.942	14.502	899.176	671.872
236.957	14.462	898.680	671.280
237.972	14.481	898.212	670.947
238.986	14.578	897.251	670.559
240.001	14.445	896.847	669.663
241.015	14.489	896.509	669.528
242.030	14.434	896.064	668.916
243.045	14.635	895.084	668.934
244.059	14.714	894.621	668.844
245.074	14.465	894.443	667.653
246.088	14.563	892.912	666.842
247.103	14.707	892.879	667.337
248.117	14.817	891.854	666.950
249.132	14.769	891.081	666.120
250.147	14.818	890.347	665.709
251.161	14.941	890.045	665.912
252.176	14.812	889.301	664.785
253.190	14.921	888.484	664.550
254.205	14.872	888.084	663.994
255.220	14.993	887.239	663.784
256.234	15.060	886.751	663.626
257.249	15.009	886.092	662.873
258.263	15.044	885.357	662.402
259.278	14.969	884.905	661.710
260.293	14.939	884.017	660.868
261.307	15.114	883.509	661.122
262.322	14.976	883.214	660.298
263.336	15.030	882.266	659.744
264.351	15.106	881.690	659.554
265.366	15.021	880.969	658.620
266.380	15.018	880.386	658.114
267.395	15.137	879.372	657.768
268.409	15.173	879.176	657.704
269.424	15.214	878.131	657.024
270.439	14.993	877.498	655.627
271.453	15.147	876.711	655.584
272.468	15.175	876.209	655.258
273.482	15.222	875.390	654.774
274.497	15.209	875.124	654.465
275.512	15.128	874.599	653.698
276.526	15.317	874.147	654.040
277.541	15.328	873.680	653.677
278.555	15.238	873.271	652.962
279.570	15.308	872.485	652.588
280.585	15.379	871.608	652.149
281.599	15.326	870.467	651.035
282.614	15.449	869.811	650.962
283.628	15.286	869.648	650.152
284.643	15.337	869.250	649.994
285.657	15.487	868.033	649.605
286.672	15.336	867.885	648.854
287.687	15.535	866.729	648.701
288.701	15.473	866.444	648.189
289.716	15.410	865.679	647.318
290.730	15.490	865.319	647.299
291.745	15.511	864.649	646.823
292.760	15.521	863.944	646.276
293.774	15.699	862.967	646.172
294.789	15.758	862.402	645.917
295.803	15.431	862.205	644.460
296.818	15.556	861.447	644.315
297.833	15.745	860.420	644.212
298.847	15.626	859.987	643.378
299.862	15.657	859.740	643.253
300.876	15.625	859.206	642.673
301.891	15.702	858.443	642.341
302.906	15.706	858.168	642.092
303.920	15.738	857.540	641.690
304.935	15.660	857.177	641.062
305.949	15.734	856.421	640.723
306.964	15.761	855.551	640.118
307.979	15.804	855.176	639.946
308.993	15.831	854.774	639.691
310.008	15.813	854.209	639.143
311.022	15.817	853.383	638.481
312.037	15.817	852.807	637.993
313.052	15.682	852.292	637.041
314.066	15.677	851.995	636.743
315.081	15.725	850.965	636.101
316.095	15.772	850.189	635.640
317.110	15.711	849.975	635.193
318.125	15.791	849.521	635.101
319.139	15.856	849.115	634.986
320.154	15.845	848.655	634.547
321.168	15.793	847.976	633.783
322.183	15.840	847.366	633.451
323.197	16.027	846.794	633.671
324.212	15.997	846.184	633.044
325.227	15.962	845.931	632.668
326.241	15.783	845.510	631.627
327.256	15.864	845.186	631.629
328.270	15.780	844.160	630.493
329.285	15.978	843.481	630.671
330.300	15.937	843.011	630.110
331.314	15.964	842.239	629.579
332.329	15.932	842.024	629.242
333.343	16.141	841.452	629.542
334.358	15.939	841.491	628.761
335.373	16.124	840.550	628.692
336.387	16.135	840.067	628.315
337.402	16.185	840.160	628.514
338.416	16.289	839.766	628.553
339.431	16.177	839.025	627.526
340.446	16.314	838.504	627.590
341.460	16.276	838.337	627.266
342.475	16.382	837.840	627.234
343.489	16.369	837.529	626.898
344.504	16.432	837.160	626.798
345.519	16.385	836.830	626.323
346.533	16.315	836.124	625.479
347.548	16.189	835.832	624.739
348.562	16.213	835.086	624.214
349.577	16.367	834.393	624.210
350.592	16.348	833.458	623.387
351.606	16.405	833.101	623.273
352.621	16.264	832.691	622.392
353.635	16.346	831.798	621.972
354.650	16.428	831.608	622.076
355.665	16.478	830.984	621.738
356.679	16.440	830.235	620.985
357.694	16.424	829.303	620.174
358.708	16.367	828.999	619.681
359.723	16.317	828.403	618.999
360.738	16.375	827.603	618.559
361.752	16.621	826.862	618.848
362.767	16.346	826.570	617.572
363.781	16.736	825.838	618.393
364.796	16.608	825.115	617.331
365.810	16.643	825.530	617.715
366.825	16.812	824.511	617.513
367.840	16.663	824.382	616.816
368.854	16.701	823.836	616.492
369.869	16.717	823.563	616.292
370.883	16.770	823.019	616.023
371.898	16.775	822.669	615.724
372.913	16.803	822.257	615.465
373.927	16.870	821.665	615.211
374.942	16.824	821.365	614.765
375.956	16.908	820.745	614.550
376.971	16.809	820.500	613.955
377.986	16.852	820.107	613.761
379.000	16.833	819.787	613.396
380.015	16.949	819.139	613.280
381.029	17.018	818.005	612.625
382.044	17.076	817.546	612.435
383.059	16.958	816.860	611.442
384.073	16.983	816.811	611.442
385.088	16.940	815.859	610.521
386.102	17.089	815.214	610.521
387.117	16.884	815.226	609.736
388.132	16.912	814.413	609.175
389.146	16.925	813.996	608.856
390.161	17.070	813.782	609.165
391.175	17.048	813.047	608.480
392.190	17.064	812.622	608.166
393.205	17.029	812.042	607.552
394.219	17.060	811.749	607.391
395.234	17.190	810.929	607.188
396.248	16.876	811.171	606.194
397.263	17.000	810.624	606.174
398.278	17.001	810.212	605.814
399.292	17.159	809.628	605.890
400.307	16.999	809.152	604.909
401.321	17.140	808.430	604.816
402.336	17.199	808.120	604.743
403.350	17.075	807.932	604.106
404.365	17.165	807.437	604.004
405.380	17.159	806.993	603.594
406.394	17.174	806.547	603.261
407.409	17.383	805.907	603.470
408.423	17.317	805.452	602.843
409.438	17.315	805.374	602.725
410.453	17.244	804.931	602.089
411.467	17.371	804.561	602.209
412.482	17.373	804.112	601.826
413.496	17.384	804.047	601.763
414.511	17.439	803.469	601.472
415.526	17.483	802.783	601.061
416.540	17.462	802.522	600.737
417.555	17.390	802.041	600.068
418.569	17.346	801.819	599.696
419.584	17.500	801.240	599.753
420.599	17.600	800.699	599.644
421.613	113.996	1298.556	1487.308
422.628	98.290	1371.059	1487.377
