DTS Sentinel unit serial number:	SN413079Multiplexer serial number:	ORYXHardware model number:	OX4-SRSoftware version number:	ORYX F/W v4.00 Oryx Data Collector v3.7.2.0data status	okinstallation	princeton_trtdifferential loss correction	single-endedforward channel	channel 1reverse channel	N/Adate	2019/09/19time	05:54:35forward acquisition time	60.00reverse acquisition time	0.00gamma	496.2192k internal	0.2343k external	0.2343temperature offset calibration	1.0023default loss term (dB/km)	0.3790temperature slope calibration	1.0000multiplexer offset coefficient	1.0000multiplexer slope coefficient	1.0000fibre end	0.00T internal ref (°C)	19.19T ext. ref 1 (°C)	0.59T ext. ref 2 (°C)	12.74length (m)	temperature (°C)	Stokes	anti-Stokes-747.200	20.920	0.257	0.209
-746.185	157.301	-0.206	0.286
-745.171	-107.894	-0.254	0.055
-744.156	-200.000	0.007	-0.128
-743.142	-200.000	-0.027	0.266
-742.127	-45.491	-0.278	0.138
-741.112	114.143	0.117	0.142
-740.098	-146.746	0.100	0.009
-739.083	-150.699	0.047	-0.004
-738.069	14.719	-0.304	0.238
-737.054	-200.000	-0.054	0.278
-736.039	800.000	-0.048	0.140
-735.025	-183.073	0.246	-0.004
-734.010	433.232	-0.133	0.289
-732.996	-200.000	0.033	-0.217
-731.981	-63.129	0.180	-0.074
-730.966	225.947	-0.054	0.088
-729.952	-78.556	-0.267	-0.091
-728.937	115.977	-0.075	-0.092
-727.923	70.518	-0.171	-0.177
-726.908	-4.759	-0.223	0.154
-725.894	-197.229	-0.166	0.001
-724.879	-50.442	-0.024	0.011
-723.864	153.529	0.106	-0.145
-722.850	583.040	-0.042	-0.104
-721.835	-51.254	0.244	-0.114
-720.821	197.940	0.056	0.085
-719.806	719.685	0.106	-0.282
-718.791	-66.905	0.117	0.046
-717.777	-167.697	-0.460	-0.018
-716.762	-70.764	-0.396	-0.150
-715.748	4.754	0.029	-0.021
-714.733	800.000	-0.012	-0.042
-713.718	129.041	0.057	0.073
-712.704	290.163	-0.147	-0.267
-711.689	84.718	0.088	0.097
-710.675	72.009	-0.169	0.176
-709.660	-104.556	-0.226	0.052
-708.645	-122.755	0.262	-0.042
-707.631	165.976	0.152	0.215
-706.616	-30.669	-0.115	-0.065
-705.602	135.658	-0.144	-0.188
-704.587	-82.320	0.061	0.020
-703.572	357.950	-0.185	-0.370
-702.558	-39.823	-0.120	0.063
-701.543	-13.190	0.134	0.087
-700.529	-57.165	0.229	0.101
-699.514	66.942	-0.133	-0.135
-698.499	-200.000	-0.009	0.100
-697.485	-200.000	-0.042	0.415
-696.470	111.909	0.149	0.180
-695.456	-43.726	0.058	0.029
-694.441	188.543	0.078	0.116
-693.426	-62.196	0.136	0.057
-692.412	-200.000	0.024	0.413
-691.397	-200.000	-0.062	0.312
-690.383	-162.724	0.138	0.007
-689.368	-27.223	-0.272	0.158
-688.354	723.955	-0.014	-0.038
-687.339	-200.000	0.015	0.618
-686.324	-200.000	0.043	0.246
-685.310	243.483	-0.054	-0.091
-684.295	-80.218	-0.045	-0.015
-683.281	284.804	-0.179	-0.322
-682.266	-29.974	0.054	-0.031
-681.251	103.296	-0.202	-0.237
-680.237	-44.596	0.281	-0.140
-679.222	82.513	0.184	-0.199
-678.208	-2.116	-0.174	-0.122
-677.193	660.930	0.146	0.376
-676.178	319.317	0.077	-0.146
-675.164	800.000	-0.124	-0.367
-674.149	28.899	0.043	0.036
-673.135	112.318	-0.088	0.106
-672.120	173.950	-0.052	0.075
-671.105	123.269	0.173	0.216
-670.091	800.000	0.103	-0.299
-669.076	-99.533	0.111	0.028
-668.062	88.475	0.194	-0.215
-667.047	436.705	0.051	-0.111
-666.032	101.775	-0.042	0.049
-665.018	-55.005	-0.328	-0.148
-664.003	158.449	0.244	-0.338
-662.989	135.950	0.054	-0.070
-661.974	-57.797	-0.228	-0.100
-660.959	518.758	-0.042	-0.098
-659.945	-200.000	0.019	-0.452
-658.930	209.794	-0.113	0.177
-657.916	77.958	-0.132	-0.141
-656.901	-124.561	-0.271	-0.042
-655.886	24.508	0.200	-0.165
-654.872	-87.214	0.175	-0.053
-653.857	7.166	-0.083	-0.062
-652.843	127.046	0.074	0.093
-651.828	-200.000	0.027	0.210
-650.814	49.499	-0.082	-0.077
-649.799	-17.808	-0.274	0.172
-648.784	-62.745	0.169	-0.070
-647.770	-84.700	0.319	0.100
-646.755	-200.000	0.033	-0.164
-645.741	-68.039	0.228	-0.089
-644.726	-94.249	0.096	0.026
-643.711	-200.000	-0.024	0.153
-642.697	-122.849	0.280	0.045
-641.682	229.809	0.044	-0.071
-640.668	109.660	-0.093	0.111
-639.653	-200.000	0.028	-0.133
-638.638	-129.353	-0.387	-0.054
-637.624	249.228	0.169	0.285
-636.609	-42.949	0.348	0.176
-635.595	-118.735	-0.357	0.063
-634.580	46.805	-0.163	-0.151
-633.565	-200.000	0.024	0.271
-632.551	-200.000	0.054	0.246
-631.536	-89.462	-0.200	-0.059
-630.522	-26.393	-0.199	0.117
-629.507	107.647	-0.129	-0.153
-628.492	38.291	0.081	-0.072
-627.478	430.516	-0.099	-0.213
-626.463	-138.614	-0.085	-0.009
-625.449	-88.875	-0.169	-0.050
-624.434	8.966	-0.027	0.021
-623.419	-75.590	-0.271	-0.096
-622.405	-162.913	0.514	-0.025
-621.390	800.000	0.029	0.107
-620.376	800.000	0.102	0.395
-619.361	-125.722	-0.656	-0.099
-618.346	-41.812	0.155	-0.079
-617.332	228.125	-0.110	0.179
-616.317	781.336	-0.017	0.046
-615.303	-113.104	-0.071	0.014
-614.288	325.230	0.069	-0.131
-613.273	-111.666	-0.027	0.005
-612.259	362.652	0.077	-0.154
-611.244	57.078	0.111	-0.108
-610.230	38.394	-0.108	-0.096
-609.215	40.907	0.262	0.236
-608.201	-10.655	-0.233	-0.154
-607.186	800.000	0.043	0.126
-606.171	-102.741	0.207	0.049
-605.157	168.321	0.028	0.040
-604.142	-55.636	-0.069	0.031
-603.128	-134.387	-0.105	0.013
-602.113	-200.000	0.061	0.287
-601.098	390.181	-0.089	0.185
-600.084	199.743	0.071	-0.108
-599.069	-200.000	0.030	0.170
-598.055	-156.994	0.164	0.010
-597.040	-98.385	-0.039	-0.010
-596.025	633.285	-0.061	0.153
-595.011	-108.224	-0.269	-0.058
-593.996	-163.382	-0.154	0.007
-592.982	152.358	-0.173	0.236
-591.967	93.934	-0.179	0.202
-590.952	800.000	-0.055	-0.171
-589.938	744.352	-0.023	0.063
-588.923	-88.616	-0.478	-0.142
-587.909	797.972	-0.097	-0.266
-586.894	505.199	-0.064	0.148
-585.879	163.244	-0.113	0.158
-584.865	159.151	0.175	-0.242
-583.850	250.337	-0.139	0.235
-582.836	112.141	0.033	-0.039
-581.821	573.036	0.083	-0.201
-580.806	-101.182	-0.128	0.031
-579.792	-179.126	0.146	-0.003
-578.777	-130.171	-0.087	0.012
-577.763	800.000	-0.003	-0.011
-576.748	-200.000	0.005	0.316
-575.733	80.771	0.117	-0.126
-574.719	71.432	0.184	-0.190
-573.704	74.891	-0.276	-0.289
-572.690	-34.650	0.299	-0.163
-571.675	-36.361	-0.070	-0.038
-570.661	-200.000	-0.041	0.373
-569.646	-68.177	-0.175	0.068
-568.631	81.783	0.206	-0.222
-567.617	57.320	-0.070	-0.068
-566.602	-74.186	0.249	-0.090
-565.588	92.429	-0.022	-0.025
-564.573	-71.721	-0.155	0.057
-563.558	123.360	0.206	-0.256
-562.544	-75.436	-0.189	0.067
-561.529	720.803	0.070	-0.186
-560.515	-60.219	-0.073	-0.031
-559.500	-200.000	-0.039	0.276
-558.485	501.373	-0.157	0.361
-557.471	206.543	-0.055	-0.086
-556.456	-153.485	0.098	-0.007
-555.442	702.870	0.032	-0.084
-554.427	800.000	-0.048	0.171
-553.412	-67.395	-0.309	0.121
-552.398	16.329	-0.102	0.080
-551.383	800.000	-0.068	0.209
-550.369	-200.000	-0.023	0.238
-549.354	800.000	-0.058	-0.234
-548.339	496.597	-0.057	0.131
-547.325	104.602	0.060	-0.070
-546.310	172.840	0.058	0.084
-545.296	-124.475	0.305	-0.047
-544.281	-32.371	0.124	-0.069
-543.266	-58.841	-0.257	0.111
-542.252	-136.410	-0.372	-0.043
-541.237	289.549	-0.114	-0.206
-540.223	221.426	0.126	-0.201
-539.208	-164.529	-0.326	0.015
-538.193	241.869	0.058	-0.097
-537.179	-200.000	0.038	0.166
-536.164	-40.093	-0.091	-0.047
-535.150	-200.000	-0.007	-0.229
-534.135	119.231	-0.218	0.267
-533.121	-200.000	-0.297	-0.001
-532.106	19.107	0.119	-0.094
-531.091	253.655	-0.062	-0.106
-530.077	497.788	0.079	0.181
-529.062	33.954	-0.304	-0.263
-528.048	-131.995	0.370	-0.048
-527.033	209.578	-0.222	-0.346
-526.018	242.482	0.229	-0.380
-525.004	-12.986	0.120	0.078
-523.989	-200.000	-0.001	0.150
-522.975	150.352	-0.127	-0.171
-521.960	800.000	0.055	0.167
-520.945	316.502	-0.122	0.230
-519.931	-157.545	0.118	-0.007
-518.916	800.000	0.099	-0.292
-517.902	800.000	0.076	-0.219
-516.887	240.425	0.172	0.284
-515.872	9.559	0.290	0.218
-514.858	29.014	-0.175	-0.147
-513.843	178.997	0.061	0.089
-512.829	-78.278	-0.165	0.056
-511.814	103.770	-0.361	-0.421
-510.799	732.592	0.176	-0.468
-509.785	707.422	-0.108	-0.284
-508.770	106.751	0.273	-0.321
-507.756	-71.867	0.152	-0.056
-506.741	-118.389	0.119	0.021
-505.726	150.918	0.126	-0.170
-504.712	-200.000	-0.043	-0.356
-503.697	-15.128	0.141	-0.090
-502.683	-200.000	-0.030	-0.324
-501.668	-75.429	0.167	-0.059
-500.653	-27.519	-0.115	0.066
-499.639	-200.000	-0.065	0.506
-498.624	800.000	-0.056	-0.232
-497.610	-110.988	0.135	-0.028
-496.595	-49.569	0.308	0.145
-495.581	362.992	0.133	-0.265
-494.566	134.686	0.195	-0.251
-493.551	-94.985	-0.229	-0.062
-492.537	123.515	-0.132	0.164
-491.522	16.464	0.219	-0.172
-490.508	-60.115	0.126	-0.053
-489.493	-118.425	-0.262	-0.046
-488.478	-101.079	0.347	0.084
-487.464	7.020	-0.314	0.232
-486.449	-9.300	-0.076	-0.050
-485.435	428.976	0.062	0.134
-484.420	-200.000	0.004	0.093
-483.405	-119.511	0.195	0.033
-482.391	48.272	0.341	0.316
-481.376	176.868	-0.089	0.128
-480.362	-200.000	-0.019	-0.258
-479.347	69.240	0.035	-0.036
-478.332	800.000	0.010	-0.033
-477.318	800.000	0.063	0.211
-476.303	698.530	0.049	0.129
-475.289	-107.893	0.050	0.011
-474.274	-200.000	-0.002	0.204
-473.259	800.000	0.088	-0.249
-472.245	-105.993	-0.135	0.030
-471.230	178.090	-0.088	0.127
-470.216	31.368	0.150	0.127
-469.201	164.770	-0.049	-0.068
-468.186	-200.000	0.046	-0.243
-467.172	-49.084	-0.416	0.197
-466.157	66.712	-0.229	-0.231
-465.143	-93.061	-0.269	-0.074
-464.128	644.188	0.102	-0.257
-463.113	-85.052	0.227	-0.070
-462.099	128.018	-0.215	0.271
-461.084	-81.712	-0.205	-0.067
-460.070	37.220	0.155	0.136
-459.055	-11.893	-0.137	0.089
-458.040	1.739	-0.259	-0.185
-457.026	71.329	-0.222	-0.228
-456.011	-175.544	-0.463	-0.012
-454.997	-200.000	0.023	-0.174
-453.982	-164.878	-0.148	0.007
-452.968	-200.000	0.017	0.097
-451.953	66.940	0.203	-0.205
-450.938	-74.220	0.373	-0.134
-449.924	85.000	-0.192	0.209
-448.909	107.403	0.038	-0.045
-447.895	172.256	-0.081	-0.115
-446.880	3.831	0.136	0.099
-445.865	800.000	0.067	0.213
-444.851	-50.714	0.205	-0.096
-443.836	100.257	-0.146	0.167
-442.822	-111.574	0.251	-0.050
-441.807	-200.000	-0.020	-0.316
-440.792	-200.000	-0.050	-0.280
-439.778	-88.590	-0.241	0.071
-438.763	759.291	0.089	0.240
-437.749	-200.000	-0.025	-0.217
-436.734	250.428	0.079	-0.133
-435.719	800.000	-0.044	0.139
-434.705	-200.000	-0.007	0.210
-433.690	-200.000	0.010	-0.186
-432.676	-200.000	-0.095	0.538
-431.661	-29.878	-0.143	0.080
-430.646	133.611	0.155	-0.199
-429.632	-80.276	0.217	0.072
-428.617	193.171	0.182	0.271
-427.603	-83.849	-0.223	0.070
-426.588	800.000	0.057	0.240
-425.573	800.000	0.132	0.476
-424.559	-28.607	-0.017	0.010
-423.544	-184.614	-0.194	-0.003
-422.530	160.942	0.101	-0.139
-421.515	-200.000	0.009	0.093
-420.500	800.000	-0.041	-0.169
-419.486	34.463	-0.218	-0.188
-418.471	55.220	0.045	-0.043
-417.457	-188.096	0.177	0.002
-416.442	230.818	0.237	0.383
-415.428	-200.000	-0.017	0.174
-414.413	-97.010	-0.226	0.058
-413.398	-36.243	-0.084	0.045
-412.384	-158.208	0.600	-0.035
-411.369	-42.981	-0.056	-0.028
-410.355	774.599	-0.085	-0.230
-409.340	17.066	0.041	-0.032
-408.325	448.710	0.109	0.238
-407.311	800.000	-0.036	0.133
-406.296	800.000	-0.044	0.126
-405.282	800.000	0.087	-0.306
-404.267	485.032	-0.089	-0.200
-403.252	31.254	-0.147	0.125
-402.238	338.269	0.053	-0.101
-401.223	-7.178	-0.058	0.039
-400.209	109.594	0.017	-0.020
-399.194	800.000	0.088	-0.246
-398.179	-53.391	0.097	-0.044
-397.165	-184.605	0.271	0.004
-396.150	33.007	0.091	-0.078
-395.136	675.272	0.028	0.071
-394.121	331.439	0.033	0.062
-393.106	230.113	-0.195	-0.316
-392.092	-42.341	0.220	0.111
-391.077	-200.000	0.003	-0.108
-390.063	-161.890	-0.215	0.011
-389.048	800.000	-0.056	0.218
-388.033	-200.000	0.059	0.272
-387.019	-105.811	0.128	0.029
-386.004	228.738	0.161	0.260
-384.990	10.282	0.181	-0.136
-383.975	-191.934	-0.006	0.000
-382.960	800.000	0.027	0.089
-381.946	604.751	-0.060	0.148
-380.931	209.906	0.174	0.269
-379.917	160.938	-0.106	0.146
-378.902	-200.000	-0.026	0.129
-377.888	-98.344	0.167	-0.042
-376.873	800.000	0.060	0.194
-375.858	471.470	-0.136	-0.301
-374.844	21.489	0.327	0.262
-373.829	800.000	0.012	0.039
-372.815	-16.744	0.190	0.119
-371.800	-93.031	-0.058	0.016
-370.785	-200.000	-0.028	-0.190
-369.771	28.885	0.297	-0.248
-368.756	20.040	0.145	-0.115
-367.742	800.000	-0.127	-0.410
-366.727	-94.664	0.235	0.063
-365.712	149.710	0.033	0.045
-364.698	-77.102	-0.190	-0.065
-363.683	-90.560	-0.408	0.116
-362.669	-36.192	-0.191	0.102
-361.654	-93.098	-0.426	0.117
-360.639	-53.816	0.212	0.096
-359.625	800.000	-0.111	-0.370
-358.610	451.181	0.062	-0.136
-357.596	746.365	-0.106	0.281
-356.581	83.478	0.116	-0.125
-355.566	76.368	0.114	-0.119
-354.552	-21.440	-0.028	0.017
-353.537	20.699	0.176	-0.141
-352.523	21.265	-0.209	-0.167
-351.508	407.696	0.054	-0.112
-350.493	490.573	-0.112	0.252
-349.479	-122.515	-0.038	-0.006
-348.464	50.030	-0.086	0.080
-347.450	-200.000	0.020	-0.195
-346.435	120.898	0.192	0.235
-345.420	-100.332	-0.226	0.055
-344.406	71.438	0.218	-0.223
-343.391	530.980	0.203	-0.474
-342.377	-94.886	0.195	-0.052
-341.362	99.997	-0.287	-0.327
-340.348	30.866	-0.111	0.094
-339.333	342.506	-0.050	-0.097
-338.318	141.630	0.168	0.219
-337.304	44.886	-0.246	0.223
-336.289	130.919	0.097	-0.123
-335.275	-15.588	0.231	0.145
-334.260	4.170	0.053	0.038
-333.245	-200.000	0.002	-0.208
-332.231	-200.000	0.018	0.341
-331.216	-175.670	0.209	-0.006
-330.202	-19.221	-0.032	0.020
-329.187	565.049	-0.139	-0.332
-328.172	-148.413	-0.448	-0.036
-327.158	-200.000	0.065	-0.326
-326.143	-20.740	-0.270	-0.163
-325.129	57.028	0.151	0.145
-324.114	-49.205	0.132	0.062
-323.099	-124.609	-0.306	0.047
-322.085	-29.805	0.156	0.088
-321.070	-65.423	0.296	0.117
-320.056	323.294	-0.162	-0.305
-319.041	-16.463	-0.123	-0.077
-318.026	31.295	0.240	0.203
-317.012	800.000	0.062	-0.202
-315.997	800.000	-0.092	-0.376
-314.983	351.977	0.119	-0.231
-313.968	375.115	-0.036	-0.072
-312.953	-200.000	-0.018	-0.145
-311.939	-79.154	-0.113	-0.038
-310.924	800.000	-0.081	0.334
-309.910	73.125	0.048	-0.050
-308.895	-187.468	-0.151	-0.002
-307.880	-109.678	0.270	0.056
-306.866	-77.586	0.283	-0.097
-305.851	-200.000	-0.005	-0.159
-304.837	204.059	-0.067	-0.101
-303.822	31.580	0.187	0.158
-302.807	65.178	0.064	0.064
-301.793	140.461	0.112	-0.145
-300.778	-43.079	0.280	-0.140
-299.764	192.171	-0.142	0.210
-298.749	388.973	-0.118	0.240
-297.735	800.000	0.071	0.244
-296.720	-71.354	0.218	0.080
-295.705	438.983	-0.199	0.427
-294.691	366.361	0.105	0.209
-293.676	313.646	-0.133	0.247
-292.662	383.003	-0.144	-0.291
-291.647	-122.509	0.084	0.013
-290.632	-152.349	0.083	0.006
-289.618	-123.487	-0.273	0.043
-288.603	-76.952	-0.081	-0.028
-287.589	-74.904	0.309	0.109
-286.574	203.670	-0.155	0.236
-285.559	475.938	-0.073	0.163
-284.545	-200.000	0.035	0.215
-283.530	-76.745	-0.322	0.111
-282.516	176.000	0.151	0.215
-281.501	30.849	-0.154	-0.130
-280.486	556.996	-0.053	0.126
-279.472	21.150	-0.376	-0.300
-278.457	-200.000	-0.039	-0.291
-277.443	134.182	-0.050	0.063
-276.428	-124.832	-0.266	-0.040
-275.413	-68.334	-0.122	-0.047
-274.399	800.000	0.075	0.260
-273.384	-181.794	-0.245	0.005
-272.370	-81.178	-0.134	-0.044
-271.355	800.000	-0.122	0.466
-270.340	188.386	-0.113	-0.166
-269.326	-34.902	0.167	-0.090
-268.311	269.931	0.123	-0.212
-267.297	795.506	0.148	-0.400
-266.282	-8.407	0.184	-0.121
-265.267	162.931	0.120	0.166
-264.253	333.285	-0.173	0.329
-263.238	-122.606	-0.203	-0.032
-262.224	591.254	0.078	-0.189
-261.209	2.811	-0.119	-0.085
-260.195	-63.410	-0.304	-0.123
-259.180	800.000	-0.031	-0.118
-258.165	690.110	0.039	-0.100
-257.151	328.181	-0.110	-0.208
-256.136	550.519	0.108	0.254
-255.122	257.388	0.069	-0.116
-254.107	681.091	0.073	0.187
-253.092	-200.000	0.018	0.186
-252.078	-9.721	-0.095	0.062
-251.063	-200.000	-0.014	-0.085
-250.049	-200.000	-0.053	-0.322
-249.034	-73.312	0.250	0.090
-248.019	-200.000	-0.058	-0.328
-247.005	-159.804	0.099	-0.005
-245.990	-9.164	0.185	0.121
-244.976	-97.695	-0.243	0.062
-243.961	-200.000	-0.040	0.288
-242.946	781.197	0.105	0.282
-241.932	-200.000	-0.046	0.327
-240.917	-88.498	-0.191	-0.056
-239.903	190.772	-0.196	-0.290
-238.888	150.264	-0.076	0.101
-237.873	550.556	-0.064	0.152
-236.859	-142.071	0.278	-0.027
-235.844	-94.175	-0.369	0.099
-234.830	-200.000	0.068	0.552
-233.815	347.477	-0.129	0.249
-232.800	-10.933	0.111	0.072
-231.786	-200.000	0.007	0.057
-230.771	90.464	0.079	0.087
-229.757	-200.000	-0.029	-0.163
-228.742	-195.411	-0.370	0.003
-227.727	29.490	0.271	-0.226
-226.713	72.615	-0.109	0.112
-225.698	800.000	-0.050	-0.150
-224.684	-18.462	0.089	-0.055
-223.669	-103.013	-0.241	-0.056
-222.655	108.280	-0.107	-0.126
-221.640	-200.000	0.064	0.353
-220.625	281.529	0.141	0.248
-219.611	-200.000	0.006	0.157
-218.596	-200.000	0.057	-0.360
-217.582	-82.938	-0.280	0.089
-216.567	-36.080	-0.300	-0.159
-215.552	-90.610	0.179	-0.051
-214.538	-200.000	0.029	-0.327
-213.523	732.019	0.110	0.289
-212.509	-200.000	0.196	0.001
-211.494	-200.000	0.028	-0.139
-210.479	101.134	-0.177	-0.202
-209.465	-200.000	-0.012	-0.284
-208.450	268.282	0.098	0.168
-207.436	-200.000	0.005	-0.236
-206.421	-77.728	0.447	-0.152
-205.406	800.000	0.059	-0.185
-204.392	745.014	-0.013	0.035
-203.377	778.837	0.063	-0.169
-202.363	-200.000	-0.011	0.264
-201.348	387.480	0.105	0.213
-200.333	-10.061	0.095	-0.062
-199.319	-4.898	0.113	0.076
-198.304	165.596	0.140	-0.194
-197.290	-200.000	0.037	-0.202
-196.275	355.148	-0.022	-0.042
-195.260	-30.854	-0.184	0.102
-194.246	-54.261	-0.075	0.033
-193.231	-200.000	0.003	-0.060
-192.217	-200.000	0.029	0.154
-191.202	-84.195	0.041	-0.013
-190.187	240.351	0.102	-0.167
-189.173	800.000	-0.097	0.344
-188.158	-105.570	0.156	-0.035
-187.144	-200.000	0.009	0.070
-186.129	-83.718	0.530	0.166
-185.114	165.936	-0.134	0.186
-184.100	-114.243	-0.272	-0.051
-183.085	800.000	0.057	-0.184
-182.071	97.624	0.140	0.158
-181.056	1.475	0.177	-0.124
-180.042	-103.661	0.287	0.066
-179.027	-126.641	0.286	0.042
-178.012	800.000	-0.077	0.309
-176.998	175.263	0.298	-0.423
-175.983	385.717	-0.055	-0.111
-174.969	-63.129	0.402	-0.162
-173.954	-123.088	0.125	0.020
-172.939	-73.282	-0.023	0.008
-171.925	-102.011	-0.320	-0.076
-170.910	540.923	0.144	0.336
-169.896	-200.000	-0.007	0.127
-168.881	-23.728	-0.181	-0.106
-167.866	-20.012	0.188	-0.114
-166.852	221.317	0.261	0.410
-165.837	-152.700	0.172	-0.012
-164.823	60.322	0.072	0.070
-163.808	-19.953	0.085	0.052
-162.793	212.346	0.166	-0.257
-161.779	-149.124	0.198	-0.016
-160.764	-32.004	-0.123	-0.068
-159.750	-96.842	-0.152	-0.039
-158.735	59.122	-0.128	-0.124
-157.720	800.000	0.040	0.159
-156.706	109.432	-0.108	-0.127
-155.691	-200.000	0.005	-0.033
-154.677	800.000	-0.019	-0.076
-153.662	-32.447	0.346	0.189
-152.647	74.505	-0.203	0.209
-151.633	-81.054	-0.302	-0.098
-150.618	800.000	-0.059	-0.201
-149.604	-115.162	-0.153	-0.028
-148.589	-19.871	-0.216	0.130
-147.574	265.879	-0.121	0.206
-146.560	-87.730	0.314	0.093
-145.545	-25.290	0.054	0.031
-144.531	769.276	0.110	0.294
-143.516	126.690	0.042	-0.052
-142.502	99.624	0.084	0.095
-141.487	-184.966	-0.057	-0.001
-140.472	-127.362	0.320	0.046
-139.458	-80.100	-0.246	0.081
-138.443	-99.864	-0.283	-0.069
-137.429	800.000	-0.040	0.162
-136.414	-89.242	0.196	0.057
-135.399	-29.932	-0.215	-0.120
-134.385	-200.000	-0.013	0.153
-133.370	-22.405	-0.349	-0.207
-132.356	402.689	0.159	-0.327
-131.341	-104.967	0.315	0.071
-130.326	-200.000	0.011	0.221
-129.312	-115.137	-0.243	-0.045
-128.297	-38.064	0.300	0.156
-127.283	-200.000	0.001	0.088
-126.268	62.915	-0.246	-0.240
-125.253	-143.733	0.526	-0.049
-124.239	800.000	-0.083	0.342
-123.224	-158.722	-0.304	-0.017
-122.210	491.688	0.165	0.369
-121.195	800.000	0.069	-0.247
-120.180	57.297	-0.077	-0.073
-119.166	7.430	-0.090	-0.065
-118.151	800.000	-0.018	0.054
-117.137	-200.000	-0.050	-0.297
-116.122	-26.122	-0.155	0.089
-115.107	135.911	0.162	-0.207
-114.093	122.074	0.063	0.077
-113.078	309.965	0.087	-0.159
-112.064	-112.531	0.196	0.038
-111.049	237.182	0.125	-0.202
-110.034	800.000	0.114	0.405
-109.020	-138.581	0.219	-0.023
-108.005	-0.312	-0.085	0.059
-106.991	384.528	-0.034	0.069
-105.976	150.636	-0.323	0.429
-104.962	-134.062	-0.301	-0.036
-103.947	-88.766	0.186	0.054
-102.932	-87.688	0.241	0.071
-101.918	-153.943	-0.327	0.022
-100.903	7.813	-0.183	0.134
-99.889	-126.219	0.305	0.045
-98.874	181.406	0.169	-0.243
-97.859	-137.629	-0.273	-0.030
-96.845	-6.563	-0.143	-0.095
-95.830	391.149	-0.056	0.114
-94.816	251.944	0.020	0.033
-93.801	-200.000	-0.010	-0.459
-92.786	-164.296	-0.202	-0.009
-91.772	203.589	-0.173	0.262
-90.757	3.832	0.155	0.111
-89.743	5.491	0.271	0.195
-88.728	-38.672	-0.399	-0.206
-87.713	-16.807	0.105	0.065
-86.699	225.637	-0.037	-0.059
-85.684	63.458	0.073	0.071
-84.670	51.821	0.086	0.080
-83.655	-150.198	0.040	-0.003
-82.640	800.000	-0.106	-0.343
-81.626	-130.717	-0.077	-0.010
-80.611	67.730	-0.079	0.079
-79.597	33.967	-0.074	0.063
-78.582	54.178	-0.161	0.151
-77.567	117.894	-0.230	0.276
-76.553	-200.000	0.017	0.183
-75.538	-122.922	0.214	0.034
-74.524	800.000	-0.067	0.182
-73.509	-63.056	0.036	0.015
-72.494	178.277	-0.212	0.302
-71.480	-61.976	0.334	-0.136
-70.465	-200.000	-0.010	-0.157
-69.451	-16.576	0.204	-0.126
-68.436	-13.591	0.238	0.151
-67.422	-39.050	0.181	-0.093
-66.407	163.517	-0.048	0.065
-65.392	-16.690	-0.098	0.060
-64.378	-104.774	0.442	0.099
-63.363	284.626	0.070	-0.124
-62.349	47.348	0.327	-0.297
-61.334	107.724	-1.114	-1.293
-60.319	67.236	0.659	0.655
-59.305	-200.000	-0.305	-1.393
-58.290	194.145	1.018	1.503
-57.276	200.587	1.016	1.523
-56.261	-200.000	136.234	628.390
-55.246	345.101	1634.718	3129.141
-54.232	137.911	2768.045	3535.450
-53.217	81.978	2151.692	2272.284
-52.203	29.704	1589.126	1318.497
-51.188	22.181	1342.293	1068.135
-50.173	20.371	1308.019	1030.092
-49.159	46.732	1382.622	1251.560
-48.144	42.016	1391.394	1230.553
-47.130	22.262	1339.457	1066.197
-46.115	19.344	1320.866	1033.887
-45.100	19.231	1315.498	1028.970
-44.086	19.182	1312.726	1026.472
-43.071	19.021	1311.140	1024.229
-42.057	18.978	1309.044	1022.298
-41.042	19.054	1307.500	1021.503
-40.027	19.149	1305.620	1020.554
-39.013	19.094	1303.877	1018.828
-37.998	19.207	1301.411	1017.527
-36.984	19.194	1300.149	1016.420
-35.969	19.263	1297.965	1015.083
-34.954	19.177	1296.776	1013.605
-33.940	19.258	1295.277	1012.871
-32.925	19.286	1294.019	1012.010
-31.911	19.253	1292.776	1010.804
-30.896	19.299	1290.450	1009.216
-29.881	19.342	1289.599	1008.758
-28.867	19.245	1288.826	1007.551
-27.852	19.308	1286.799	1006.293
-26.838	19.383	1285.510	1005.682
-25.823	19.402	1284.001	1004.575
-24.809	19.339	1282.701	1003.151
-23.794	19.156	1281.865	1001.393
-22.779	19.227	1280.677	1000.833
-21.765	19.353	1278.933	1000.162
-20.750	19.296	1277.837	998.939
-19.736	19.158	1276.631	997.155
-18.721	19.252	1275.264	996.590
-17.706	19.199	1274.325	995.514
-16.692	19.199	1272.532	994.070
-15.677	19.024	1272.319	992.857
-14.663	19.041	1270.745	991.684
-13.648	19.016	1269.684	990.675
-12.633	19.132	1268.669	990.509
-11.619	19.066	1268.277	989.787
-10.604	19.068	1267.436	989.100
-9.590	19.136	1266.206	988.491
-8.575	19.019	1265.779	987.451
-7.560	19.072	1264.625	986.813
-6.546	19.038	1263.779	985.919
-5.531	19.068	1262.484	985.041
-4.517	19.136	1261.770	984.832
-3.502	19.191	1260.720	984.291
-2.487	19.092	1260.233	983.306
-1.473	19.080	1255.740	979.690
-0.458	17.405	1240.514	958.350
0.556	13.090	1225.149	921.709
1.571	9.604	1233.805	908.512
2.586	8.996	1248.935	916.098
3.600	9.181	1236.497	907.943
4.615	6.902	1165.408	843.515
5.629	2.690	1097.540	773.122
6.644	0.745	1082.202	752.572
7.659	0.578	1080.589	750.552
8.673	0.514	1080.310	749.975
9.688	0.533	1078.423	748.694
10.702	0.780	1075.719	747.970
11.717	3.319	1078.090	762.128
12.731	9.368	1086.058	797.766
13.746	14.976	1093.780	831.310
14.761	17.096	1096.145	843.580
15.775	16.550	1094.158	839.266
16.790	15.559	1092.010	832.636
17.804	14.900	1090.772	828.351
18.819	14.549	1089.701	825.729
19.834	14.243	1089.292	823.830
20.848	14.138	1088.180	822.398
21.863	13.998	1086.829	820.612
22.877	13.742	1086.340	818.908
23.892	13.689	1085.419	817.879
24.907	13.631	1085.351	817.472
25.921	13.632	1084.501	816.765
26.936	13.727	1083.331	816.275
27.950	13.853	1081.875	815.725
28.965	13.863	1080.837	814.921
29.980	13.814	1079.963	813.951
30.994	13.869	1078.730	813.219
32.009	13.916	1077.542	812.479
33.023	13.793	1076.990	811.391
34.038	13.936	1075.632	810.993
35.053	13.839	1074.605	809.676
36.067	13.848	1073.488	808.803
37.082	13.993	1072.716	808.859
38.096	13.893	1072.303	807.987
39.111	13.760	1071.752	806.856
40.126	13.796	1070.084	805.703
41.140	13.752	1069.173	804.733
42.155	13.667	1068.136	803.471
43.169	13.592	1067.129	802.276
44.184	13.717	1065.907	801.891
45.199	13.703	1065.008	801.079
46.213	13.740	1063.629	800.145
47.228	13.762	1062.486	799.321
48.242	13.695	1061.486	798.175
49.257	13.781	1060.820	798.021
50.271	13.765	1059.261	796.699
51.286	13.755	1058.890	796.303
52.301	13.863	1057.530	795.725
53.315	13.684	1057.017	794.411
54.330	13.695	1055.744	793.440
55.344	13.807	1054.512	792.975
56.359	13.791	1053.449	792.033
57.374	13.673	1053.323	791.304
58.388	13.699	1052.203	790.514
59.403	13.642	1050.947	789.233
60.417	13.644	1050.633	788.937
61.432	13.635	1049.578	788.028
62.447	13.545	1049.105	787.178
63.461	13.652	1048.098	786.859
64.476	13.562	1047.127	785.632
65.490	13.714	1045.841	785.320
66.505	13.721	1045.489	785.020
67.520	13.831	1044.647	784.835
68.534	13.675	1044.388	783.836
69.549	13.622	1043.692	782.996
70.563	13.545	1042.780	781.876
71.578	13.716	1041.642	781.761
72.593	13.579	1041.256	780.759
73.607	13.536	1040.381	779.827
74.622	13.632	1039.482	779.535
75.636	13.603	1039.251	779.160
76.651	13.566	1038.384	778.266
77.666	13.612	1037.319	777.614
78.680	13.584	1037.017	777.188
79.695	13.557	1036.263	776.426
80.709	13.562	1035.863	776.081
81.724	13.719	1034.723	775.893
82.739	13.759	1033.967	775.448
83.753	13.744	1033.413	774.891
84.768	13.773	1032.734	774.452
85.782	13.859	1031.353	773.749
86.797	13.786	1030.525	772.717
87.812	13.724	1029.421	771.531
88.826	13.716	1028.954	771.077
89.841	13.816	1027.621	770.472
90.855	13.777	1027.037	769.788
91.870	13.748	1026.439	769.136
92.884	13.858	1025.248	768.685
93.899	13.841	1024.462	767.950
94.914	13.768	1023.911	767.129
95.928	13.816	1022.980	766.585
96.943	13.853	1021.798	765.804
97.957	13.891	1021.102	765.390
98.972	13.830	1020.350	764.480
99.987	13.964	1018.973	763.993
101.001	13.783	1018.235	762.541
102.016	13.706	1017.602	761.646
103.030	13.794	1017.080	761.593
104.045	13.936	1016.061	761.412
105.060	13.762	1015.340	760.007
106.074	13.777	1014.288	759.223
107.089	13.770	1013.540	758.563
108.103	13.737	1012.335	757.443
109.118	13.775	1011.558	756.970
110.133	13.672	1010.794	755.862
111.147	13.711	1009.653	755.119
112.162	13.691	1009.201	754.620
113.176	13.776	1008.299	754.268
114.191	13.768	1007.349	753.453
115.206	13.808	1006.600	753.006
116.220	13.939	1005.325	752.581
117.235	13.701	1004.437	750.771
118.249	13.814	1003.527	750.538
119.264	13.854	1003.123	750.351
120.279	13.872	1002.362	749.796
121.293	13.783	1001.397	748.607
122.308	13.727	1000.318	747.479
123.322	13.830	999.309	747.125
124.337	13.685	998.664	745.925
125.352	13.768	997.284	745.198
126.366	13.785	996.083	744.313
127.381	13.777	995.678	743.906
128.395	13.589	994.346	742.006
129.410	13.615	993.495	741.421
130.424	13.869	992.229	741.546
131.439	13.903	991.485	741.074
132.454	13.785	990.915	740.059
133.468	13.902	989.995	739.828
134.483	13.845	989.118	738.854
135.497	13.752	988.289	737.752
136.512	13.664	987.512	736.719
137.527	13.953	986.210	736.964
138.541	13.785	986.151	736.109
139.556	13.750	985.318	735.267
140.570	13.837	984.618	735.066
141.585	13.914	983.829	734.751
142.600	13.903	983.055	734.060
143.614	13.947	981.533	733.051
144.629	14.106	981.173	733.419
145.643	14.024	980.104	732.195
146.658	14.063	978.973	731.458
147.673	14.052	978.126	730.708
148.687	13.900	977.664	729.631
149.702	13.992	976.393	729.024
150.716	14.046	975.616	728.617
151.731	14.059	975.005	728.150
152.746	13.904	974.674	727.162
153.760	13.983	973.938	726.894
154.775	13.967	973.475	726.413
155.789	14.151	972.394	726.345
156.804	14.209	971.296	725.713
157.819	14.137	971.035	725.141
158.833	14.059	970.799	724.563
159.848	14.225	969.598	724.324
160.862	14.245	968.464	723.499
161.877	14.247	967.315	722.583
162.892	14.022	966.844	721.195
163.906	14.052	966.050	720.665
164.921	14.115	965.129	720.190
165.935	14.049	964.338	719.252
166.950	14.107	963.303	718.665
167.964	14.079	962.555	717.921
168.979	14.179	961.277	717.335
169.994	14.197	960.886	717.061
171.008	14.228	960.319	716.708
172.023	14.209	959.335	715.825
173.037	14.186	958.276	714.874
174.052	14.195	957.696	714.419
175.067	14.266	957.009	714.144
176.081	14.172	956.433	713.249
177.096	14.073	956.212	712.598
178.110	14.280	955.072	712.570
179.125	14.328	954.463	712.260
180.140	14.301	954.486	712.099
181.154	14.277	953.706	711.350
182.169	14.498	952.953	711.667
183.183	14.336	952.338	710.456
184.198	14.465	951.868	710.592
185.213	14.362	950.993	709.437
186.227	14.511	949.805	709.121
187.242	14.465	949.648	708.746
188.256	14.600	948.969	708.751
189.271	14.455	948.239	707.528
190.286	14.361	947.560	706.558
191.300	14.375	946.926	706.084
192.315	14.321	946.269	705.300
193.329	14.291	945.816	704.773
194.344	14.453	944.733	704.592
195.359	14.515	944.046	704.280
196.373	14.530	943.432	703.819
197.388	14.513	943.125	703.456
198.402	14.542	942.647	703.160
199.417	14.541	941.801	702.465
200.432	14.654	941.174	702.410
201.446	14.679	940.669	702.075
202.461	14.724	940.083	701.767
203.475	14.820	939.382	701.583
204.490	14.533	938.900	699.955
205.504	14.650	937.915	699.650
206.519	14.724	937.328	699.459
207.534	14.665	936.339	698.414
208.548	14.770	936.077	698.595
209.563	14.758	935.150	697.793
210.577	14.753	934.455	697.190
211.592	14.816	933.753	696.866
212.607	14.826	932.832	696.162
213.621	14.823	932.208	695.623
214.636	14.761	931.657	694.891
215.650	14.892	930.498	694.507
216.665	14.741	930.377	693.729
217.680	14.834	929.428	693.347
218.694	14.894	928.824	693.082
219.709	14.839	928.282	692.390
220.723	14.881	927.395	691.841
221.738	14.794	927.177	691.258
222.753	14.830	926.518	690.853
223.767	14.957	925.552	690.598
224.782	15.029	925.124	690.512
225.796	14.944	924.446	689.596
226.811	15.033	923.254	689.013
227.826	14.940	923.244	688.561
228.840	14.970	922.379	687.976
229.855	15.054	921.111	687.316
230.869	14.970	920.559	686.498
231.884	14.988	920.099	686.167
232.899	14.835	919.316	684.897
233.913	15.099	918.674	685.440
234.928	14.868	918.466	684.279
235.942	14.991	917.524	684.020
236.957	15.122	916.327	683.601
237.972	15.007	916.235	683.002
238.986	15.168	915.166	682.800
240.001	15.041	914.873	682.004
241.015	15.176	914.412	682.148
242.030	14.952	913.861	680.767
243.045	15.143	913.202	680.991
244.059	15.099	912.501	680.230
245.074	15.083	911.907	679.663
246.088	15.199	911.037	679.425
247.103	15.262	910.372	679.126
248.117	15.157	910.330	678.607
249.132	15.402	909.124	678.639
250.147	15.516	908.023	678.216
251.161	15.404	907.663	677.436
252.176	15.412	907.194	677.057
253.190	15.454	906.467	676.626
254.205	15.551	905.612	676.318
255.220	15.472	905.180	675.617
256.234	15.538	904.332	675.191
257.249	15.518	903.661	674.549
258.263	15.491	903.013	673.899
259.278	15.518	902.431	673.510
260.293	15.542	902.216	673.388
261.307	15.586	901.301	672.822
262.322	15.594	900.551	672.236
263.336	15.544	899.807	671.419
264.351	15.610	899.171	671.151
265.366	15.802	898.242	671.164
266.380	15.521	897.882	669.712
267.395	15.530	897.643	669.511
268.409	15.661	896.182	668.884
269.424	15.732	895.398	668.522
270.439	15.706	895.042	668.092
271.453	15.716	894.275	667.503
272.468	15.737	893.746	667.132
273.482	15.706	893.116	666.478
274.497	15.659	892.493	665.769
275.512	15.791	891.470	665.470
276.526	15.830	891.507	665.591
277.541	15.822	891.281	665.332
278.555	15.947	890.112	664.895
279.570	15.963	889.639	664.547
280.585	15.918	888.541	663.491
281.599	15.900	887.679	662.717
282.614	15.920	887.255	662.419
283.628	15.957	886.628	662.039
284.643	15.873	886.267	661.382
285.657	15.874	885.490	660.745
286.672	15.762	885.019	659.897
287.687	16.103	884.114	660.498
288.701	16.017	883.706	659.798
289.716	15.963	883.017	659.016
290.730	15.853	882.705	658.293
291.745	16.160	881.603	658.614
292.760	16.064	881.073	657.785
293.774	16.204	880.484	657.834
294.789	16.225	879.736	657.297
295.803	16.198	879.147	656.694
296.818	16.135	878.067	655.584
297.833	16.042	877.792	654.960
298.847	16.069	877.656	654.906
299.862	16.163	876.579	654.406
300.876	16.208	876.200	654.239
301.891	16.137	875.625	653.481
302.906	16.255	874.756	653.228
303.920	16.298	874.536	653.176
304.935	16.516	873.729	653.354
305.949	16.277	873.227	651.999
306.964	16.327	872.526	651.611
307.979	16.366	872.384	651.597
308.993	16.393	871.374	650.890
310.008	16.549	870.522	650.795
311.022	16.350	870.101	649.658
312.037	16.253	869.641	648.886
313.052	16.371	869.195	648.949
314.066	16.435	868.285	648.458
315.081	16.466	867.938	648.259
316.095	16.354	867.092	647.142
317.110	16.425	866.903	647.213
318.125	16.389	866.391	646.639
319.139	16.387	865.849	646.167
320.154	16.447	865.541	646.109
321.168	16.464	864.866	645.615
322.183	16.551	864.121	645.331
323.197	16.509	863.805	644.880
324.212	16.554	862.908	644.325
325.227	16.589	862.562	644.143
326.241	16.454	861.982	643.137
327.256	16.519	861.596	643.041
328.270	16.509	861.148	642.610
329.285	16.511	860.289	641.919
330.300	16.498	859.644	641.336
331.314	16.325	859.404	640.441
332.329	16.532	858.631	640.593
333.343	16.582	857.996	640.252
334.358	16.679	857.589	640.260
335.373	16.508	857.489	639.482
336.387	16.520	857.187	639.245
337.402	16.665	856.969	639.571
338.416	16.699	856.551	639.332
339.431	16.676	856.342	639.032
340.446	16.851	855.521	639.022
341.460	16.816	855.250	638.632
342.475	16.815	854.642	638.118
343.489	16.785	854.362	637.741
344.504	16.859	853.925	637.636
345.519	16.952	853.112	637.321
346.533	16.908	852.378	636.551
347.548	16.859	851.870	635.932
348.562	16.857	851.592	635.660
349.577	16.854	851.103	635.229
350.592	16.878	850.476	634.796
351.606	16.999	849.658	634.581
352.621	17.046	848.883	634.121
353.635	16.970	848.476	633.476
354.650	16.959	847.770	632.851
355.665	16.916	847.300	632.285
356.679	17.054	846.448	632.109
357.694	17.010	845.579	631.239
358.708	16.973	845.151	630.726
359.723	16.992	844.613	630.341
360.738	17.140	843.906	630.305
361.752	17.077	843.409	629.644
362.767	17.132	842.617	629.202
363.781	17.098	842.477	628.916
364.796	17.040	841.965	628.262
365.810	17.252	841.431	628.593
366.825	17.251	841.146	628.323
367.840	17.373	840.069	627.910
368.854	17.324	839.744	627.433
369.869	17.167	839.697	626.762
370.883	17.259	839.448	626.861
371.898	17.263	839.108	626.567
372.913	17.278	838.641	626.216
373.927	17.457	837.893	626.263
374.942	17.451	837.296	625.738
375.956	17.370	837.372	625.443
376.971	17.460	836.601	625.142
377.986	17.484	836.094	624.794
379.000	17.527	835.378	624.361
380.015	17.502	835.043	623.967
381.029	17.470	834.463	623.360
382.044	17.659	833.725	623.445
383.059	17.445	833.512	622.447
384.073	17.647	833.023	622.763
385.088	17.646	832.057	621.985
386.102	17.530	831.915	621.399
387.117	17.576	830.802	620.681
388.132	17.772	830.168	620.866
389.146	17.645	829.784	620.061
390.161	17.661	829.320	619.717
391.175	17.551	829.267	619.223
392.190	17.592	828.550	618.784
393.205	17.576	828.239	618.439
394.219	17.660	828.064	618.556
395.234	17.629	827.366	617.870
396.248	17.659	826.789	617.493
397.263	17.626	826.732	617.275
398.278	17.564	825.967	616.425
399.292	17.558	825.854	616.263
400.307	17.550	825.573	615.970
401.321	17.694	824.340	615.515
402.336	17.784	824.008	615.540
403.350	17.641	823.849	614.851
404.365	17.908	823.256	615.316
405.380	18.017	822.553	615.128
406.394	17.856	822.388	614.372
407.409	17.697	822.116	613.541
408.423	17.876	822.080	614.103
409.438	17.947	820.918	613.438
410.453	18.062	820.525	613.502
411.467	17.886	820.111	612.505
412.482	18.004	819.782	612.629
413.496	18.125	819.316	612.658
414.511	18.049	818.999	612.097
415.526	18.100	818.421	611.794
416.540	18.095	818.118	611.495
417.555	17.904	817.614	610.381
418.569	18.092	817.296	610.760
419.584	18.144	816.630	610.394
420.599	18.163	815.998	609.936
421.613	116.055	1301.144	1492.616
422.628	100.593	1371.777	1492.662
