DTS Sentinel unit serial number:	SN413079Multiplexer serial number:	ORYXHardware model number:	OX4-SRSoftware version number:	ORYX F/W v4.00 Oryx Data Collector v3.7.2.0data status	okinstallation	princeton_trtdifferential loss correction	single-endedforward channel	channel 1reverse channel	N/Adate	2019/09/14time	14:02:35forward acquisition time	60.00reverse acquisition time	0.00gamma	496.2192k internal	0.2293k external	0.2293temperature offset calibration	1.0074default loss term (dB/km)	0.3790temperature slope calibration	1.0000multiplexer offset coefficient	1.0000multiplexer slope coefficient	1.0000fibre end	0.00T internal ref (°C)	38.06T ext. ref 1 (°C)	4.97T ext. ref 2 (°C)	36.94length (m)	temperature (°C)	Stokes	anti-Stokes-747.200	800.000	0.105	0.379
-746.185	-44.036	-0.304	-0.156
-745.171	-160.315	-0.233	-0.013
-744.156	94.666	-0.198	0.230
-743.142	467.299	0.114	0.261
-742.127	326.044	-0.099	0.195
-741.112	-200.000	-0.011	-0.083
-740.098	-153.772	-0.279	0.020
-739.083	106.394	-0.261	0.317
-738.069	-3.738	-0.181	-0.128
-737.054	-80.757	0.246	-0.083
-736.039	-105.912	0.230	-0.053
-735.025	-200.000	0.014	0.150
-734.010	-30.617	-0.112	0.065
-732.996	-20.618	-0.221	-0.139
-731.981	-144.174	-0.332	-0.032
-730.966	800.000	-0.024	0.089
-729.952	112.065	-0.177	0.218
-728.937	185.223	-0.069	0.105
-727.923	-134.955	-0.264	0.033
-726.908	-200.000	0.026	0.212
-725.894	2.001	-0.291	-0.215
-724.879	-37.587	-0.221	0.120
-723.864	800.000	-0.019	0.069
-722.850	-124.648	0.074	0.012
-721.835	-133.543	-0.141	-0.018
-720.821	404.702	-0.084	-0.181
-719.806	-49.325	0.120	-0.059
-718.791	800.000	-0.135	-0.384
-717.777	800.000	0.091	0.274
-716.762	453.776	-0.007	0.017
-715.748	215.991	-0.129	-0.210
-714.733	135.941	-0.053	0.070
-713.718	453.610	-0.118	0.268
-712.704	-38.713	0.507	0.273
-711.689	800.000	0.013	-0.059
-710.675	800.000	-0.036	-0.122
-709.660	800.000	0.095	-0.269
-708.645	-200.000	0.328	-0.000
-707.631	302.517	-0.081	0.154
-706.616	24.920	-0.200	0.169
-705.602	151.383	0.164	-0.228
-704.587	-8.855	0.216	0.148
-703.572	492.017	-0.065	-0.152
-702.558	-152.140	-0.103	-0.008
-701.543	282.376	0.064	-0.117
-700.529	141.361	0.091	0.124
-699.514	400.130	0.099	-0.213
-698.499	-138.902	-0.301	-0.033
-697.485	-79.194	0.111	0.038
-696.470	800.000	-0.057	-0.163
-695.456	-200.000	0.008	-0.509
-694.441	-102.134	0.307	0.075
-693.426	73.916	-0.160	-0.171
-692.412	281.736	0.119	-0.217
-691.397	575.554	-0.112	-0.278
-690.383	56.744	0.135	-0.134
-689.368	43.073	-0.168	-0.156
-688.354	74.950	-0.091	-0.098
-687.339	800.000	0.097	0.297
-686.324	48.617	0.118	-0.113
-685.310	142.579	-0.073	-0.099
-684.295	30.901	0.148	0.130
-683.281	-200.000	0.025	-0.298
-682.266	800.000	-0.029	0.119
-681.251	-200.000	-0.040	-0.457
-680.237	137.724	0.171	0.229
-679.222	-53.666	0.164	-0.076
-678.208	156.963	0.104	-0.147
-677.193	416.178	-0.087	-0.188
-676.178	800.000	-0.115	-0.398
-675.164	84.601	0.125	0.140
-674.149	-200.000	0.000	0.011
-673.135	18.254	-0.171	0.140
-672.120	37.932	-0.146	-0.133
-671.105	-48.649	-0.148	0.073
-670.091	-95.099	-0.244	0.067
-669.076	127.922	-0.175	-0.226
-668.062	-132.634	-0.053	-0.007
-667.047	-200.000	-0.043	-0.239
-666.032	145.637	-0.010	0.014
-665.018	359.570	-0.052	-0.107
-664.003	449.623	-0.025	0.056
-662.989	-64.182	-0.225	-0.094
-661.974	395.150	-0.059	-0.125
-660.959	800.000	-0.051	0.177
-659.945	800.000	0.092	0.309
-658.930	86.425	0.128	-0.144
-657.916	-108.448	0.163	0.036
-656.901	-36.215	0.117	-0.065
-655.886	-200.000	0.036	-0.373
-654.872	-144.351	-0.330	-0.031
-653.857	129.655	-0.109	-0.142
-652.843	-115.649	-0.152	0.029
-651.828	10.951	0.274	-0.213
-650.814	-170.983	-0.154	0.005
-649.799	103.314	0.179	0.214
-648.784	23.693	0.086	0.072
-647.770	642.616	0.043	0.112
-646.755	800.000	0.083	-0.340
-645.741	-2.172	-0.270	0.193
-644.726	-200.000	-0.012	-0.217
-643.711	603.737	-0.069	0.174
-642.697	-200.000	0.009	0.251
-641.682	-200.000	0.081	-0.471
-640.668	8.105	-0.298	-0.228
-639.653	27.358	0.206	0.176
-638.638	800.000	0.053	-0.215
-637.624	-96.700	-0.243	0.065
-636.609	-58.680	0.074	-0.033
-635.595	-137.214	0.309	-0.036
-634.580	-55.155	0.101	0.046
-633.565	800.000	0.080	0.260
-632.551	-102.553	0.316	-0.077
-631.536	173.045	-0.122	-0.178
-630.522	-88.882	-0.297	-0.090
-629.507	-57.491	0.105	0.047
-628.492	364.869	0.102	-0.210
-627.478	-200.000	-0.006	-0.309
-626.463	-52.581	0.127	-0.060
-625.449	710.914	0.106	-0.285
-624.434	730.166	-0.073	0.199
-623.419	101.330	-0.176	0.209
-622.405	323.400	0.144	-0.279
-621.390	-2.072	0.274	0.196
-620.376	800.000	-0.003	-0.011
-619.361	-51.867	-0.171	-0.081
-618.346	144.069	0.329	-0.447
-617.332	118.116	-0.121	0.151
-616.317	39.182	0.079	0.072
-615.303	22.164	-0.101	-0.084
-614.288	66.944	-0.127	0.132
-613.273	533.938	-0.061	-0.146
-612.259	-200.000	-0.002	-0.079
-611.244	-124.732	0.107	0.017
-610.230	-111.622	-0.290	-0.060
-609.215	-111.313	-0.070	0.015
-608.201	-29.158	0.159	-0.093
-607.186	38.456	0.104	-0.095
-606.171	-156.201	-0.273	-0.018
-605.157	-200.000	-0.046	0.214
-604.142	38.546	0.121	0.110
-603.128	-200.000	0.003	-0.171
-602.113	-146.150	-0.303	0.027
-601.098	800.000	0.081	0.254
-600.084	189.927	-0.108	-0.164
-599.069	462.246	-0.140	-0.317
-598.055	-71.498	-0.343	0.131
-597.040	-200.000	0.004	0.162
-596.025	-65.434	-0.192	-0.078
-595.011	126.506	-0.221	0.285
-593.996	150.231	-0.021	0.029
-592.982	524.168	-0.105	-0.251
-591.967	71.599	-0.243	0.257
-590.952	-200.000	-0.032	0.155
-589.938	61.101	0.112	0.114
-588.923	-81.514	0.235	-0.079
-587.909	169.098	-0.121	-0.176
-586.894	-43.706	0.126	-0.064
-585.879	69.164	0.060	-0.063
-584.865	-72.814	-0.105	0.039
-583.850	29.860	0.134	-0.116
-582.836	-64.082	0.423	0.176
-581.821	-200.000	-0.018	-0.109
-580.806	-118.675	0.114	0.020
-579.792	-152.543	0.320	-0.023
-578.777	-200.000	-0.009	0.272
-577.763	58.375	0.079	-0.079
-576.748	8.361	-0.216	0.165
-575.733	-200.000	0.008	-0.136
-574.719	72.113	-0.128	-0.136
-573.704	-20.942	0.054	0.034
-572.690	-183.657	-0.209	0.004
-571.675	800.000	0.068	-0.195
-570.661	-200.000	-0.039	0.210
-569.646	-5.161	-0.045	0.031
-568.631	653.962	0.077	-0.202
-567.617	-96.463	-0.210	0.056
-566.602	-37.876	-0.317	0.171
-565.588	263.593	0.169	-0.298
-564.573	-105.372	-0.396	0.092
-563.558	63.369	0.050	0.051
-562.544	-200.000	0.018	0.209
-561.529	800.000	0.087	-0.264
-560.515	147.604	-0.047	-0.065
-559.500	380.330	0.070	-0.145
-558.485	692.652	0.087	-0.232
-557.471	264.491	0.131	0.231
-556.456	205.008	-0.103	0.163
-555.442	31.269	0.334	0.291
-554.427	800.000	-0.109	0.320
-553.412	20.166	-0.074	0.061
-552.398	800.000	-0.034	0.097
-551.383	-86.928	-0.144	-0.045
-550.369	-76.659	-0.259	-0.092
-549.354	800.000	-0.032	-0.096
-548.339	540.649	-0.061	-0.149
-547.325	-25.339	-0.224	-0.134
-546.310	-72.449	0.239	0.090
-545.296	-90.839	0.087	0.025
-544.281	-200.000	-0.029	-0.186
-543.266	-80.824	-0.262	0.088
-542.252	-129.424	-0.221	-0.031
-541.237	55.437	-0.324	0.318
-540.223	68.181	0.134	-0.140
-539.208	468.097	0.067	0.152
-538.193	542.244	0.156	-0.377
-537.179	-97.545	0.146	-0.039
-536.164	-200.000	-0.012	0.068
-535.150	-3.912	0.241	0.169
-534.135	800.000	0.067	-0.191
-533.121	422.172	-0.133	0.291
-532.106	-106.535	0.313	0.071
-531.091	800.000	-0.025	-0.072
-530.077	693.749	0.083	-0.220
-529.062	-163.979	0.443	-0.021
-528.048	-13.468	0.090	-0.059
-527.033	30.542	-0.119	0.103
-526.018	572.111	-0.054	-0.134
-525.004	102.661	0.144	-0.171
-523.989	-163.465	0.091	0.004
-522.975	36.465	-0.078	-0.070
-521.960	-7.461	0.146	0.101
-520.945	800.000	-0.106	-0.301
-519.931	112.557	0.141	0.173
-518.916	-200.000	-0.037	-0.301
-517.902	156.794	0.305	-0.427
-516.887	348.045	-0.124	0.248
-515.872	314.500	-0.217	-0.414
-514.858	33.079	0.236	-0.207
-513.843	631.854	-0.080	-0.205
-512.829	68.752	-0.374	-0.389
-511.814	96.409	-0.075	0.087
-510.799	-156.402	0.258	-0.016
-509.785	88.564	-0.040	0.045
-508.770	-190.158	0.383	0.004
-507.756	-69.972	-0.357	-0.138
-506.741	-200.000	-0.016	0.093
-505.726	-200.000	-0.003	0.206
-504.712	131.020	0.231	0.300
-503.697	-200.000	0.030	0.331
-502.683	60.892	-0.153	0.154
-501.668	546.375	-0.199	0.481
-500.653	-200.000	-0.003	0.697
-499.639	-50.299	-0.412	-0.197
-498.624	-200.000	-0.002	-0.083
-497.610	63.995	0.059	-0.061
-496.595	-200.000	0.004	-0.196
-495.581	-63.928	0.267	-0.110
-494.566	-90.283	0.073	0.022
-493.551	11.237	-0.199	0.155
-492.537	-51.468	-0.160	0.076
-491.522	375.861	-0.130	-0.268
-490.508	49.870	0.214	0.205
-489.493	236.696	-0.148	-0.249
-488.478	800.000	0.016	-0.062
-487.464	76.385	0.229	0.245
-486.449	-200.000	-0.033	0.321
-485.435	214.446	0.125	0.201
-484.420	-87.608	-0.310	-0.095
-483.405	-200.000	0.029	-0.161
-482.391	-111.153	-0.210	0.044
-481.376	-1.738	-0.062	-0.044
-480.362	-77.348	-0.153	-0.054
-479.347	153.987	-0.061	0.085
-478.332	-200.000	0.007	-0.161
-477.318	-200.000	0.020	-0.155
-476.303	59.300	-0.131	0.131
-475.289	33.628	0.213	-0.188
-474.274	-200.000	-0.050	-0.431
-473.259	-16.068	-0.058	-0.037
-472.245	488.230	-0.116	-0.269
-471.230	800.000	0.006	-0.023
-470.216	149.198	-0.032	0.043
-469.201	15.547	0.147	-0.117
-468.186	136.170	-0.113	-0.149
-467.172	317.478	-0.091	0.175
-466.157	-26.896	0.249	-0.147
-465.143	-200.000	-0.002	-0.058
-464.128	76.421	-0.143	-0.153
-463.113	211.740	0.145	-0.231
-462.099	-127.058	0.266	-0.039
-461.084	39.756	-0.209	0.190
-460.070	59.656	0.213	-0.213
-459.055	-109.816	0.235	0.050
-458.040	800.000	-0.016	0.064
-457.026	-24.219	-0.198	0.119
-456.011	55.235	-0.105	0.103
-454.997	202.037	-0.078	-0.122
-453.982	-33.701	0.274	0.153
-452.968	-91.423	0.206	0.060
-451.953	-84.314	0.119	-0.038
-450.938	229.225	0.137	0.226
-449.924	-200.000	-0.040	0.192
-448.909	-72.550	-0.218	-0.082
-447.895	-40.870	0.017	-0.009
-446.880	12.606	-0.180	-0.141
-445.865	800.000	0.105	0.365
-444.851	-2.938	0.170	0.120
-443.836	-142.884	0.360	-0.035
-442.822	-164.167	-0.443	-0.021
-441.807	800.000	-0.026	0.084
-440.792	536.174	0.060	-0.144
-439.778	102.702	-0.237	0.281
-438.763	-65.813	-0.236	0.095
-437.749	800.000	0.058	0.181
-436.734	216.057	0.078	-0.125
-435.719	800.000	-0.074	0.217
-434.705	-127.933	-0.247	0.036
-433.690	-33.692	-0.166	0.092
-432.676	24.130	-0.171	0.143
-431.661	634.716	-0.095	0.244
-430.646	-159.420	0.086	0.005
-429.632	111.298	0.125	-0.153
-428.617	60.488	0.153	0.153
-427.603	-31.643	0.169	-0.096
-426.588	-54.297	0.226	-0.104
-425.573	29.961	0.147	0.127
-424.559	-10.597	-0.095	0.064
-423.544	-47.440	0.406	0.200
-422.530	-49.104	0.293	-0.142
-421.515	800.000	-0.100	0.399
-420.500	-200.000	0.019	0.137
-419.486	-172.025	0.490	-0.016
-418.471	292.973	-0.217	-0.401
-417.457	79.995	-0.146	0.159
-416.442	-89.474	0.192	0.057
-415.428	7.132	-0.185	0.139
-414.413	-138.819	0.171	-0.019
-413.398	266.898	0.108	0.191
-412.384	286.569	-0.191	-0.348
-411.369	99.421	0.066	-0.077
-410.355	-110.102	0.191	-0.040
-409.340	800.000	-0.048	0.134
-408.325	-200.000	0.026	-0.188
-407.311	800.000	0.094	-0.301
-406.296	-31.588	0.115	-0.065
-405.282	-107.786	0.435	-0.096
-404.267	513.064	-0.030	-0.070
-403.252	640.246	-0.097	-0.249
-402.238	-200.000	-0.026	0.130
-401.223	580.410	-0.092	0.228
-400.209	-185.428	0.292	-0.005
-399.194	18.332	-0.270	-0.217
-398.179	312.644	0.081	0.154
-397.165	-117.357	0.205	0.038
-396.150	-200.000	-0.043	-0.395
-395.136	36.580	0.073	0.065
-394.121	800.000	0.071	-0.225
-393.106	303.103	-0.064	-0.121
-392.092	210.957	0.038	-0.060
-391.077	238.220	0.134	-0.225
-390.063	164.260	-0.099	0.141
-389.048	-200.000	0.058	0.272
-388.033	-200.000	-0.034	-0.327
-387.019	-164.077	0.022	0.001
-386.004	-48.588	0.293	0.142
-384.990	428.883	-0.099	0.216
-383.975	800.000	-0.077	0.295
-382.960	44.089	-0.114	-0.105
-381.946	-200.000	0.073	0.343
-380.931	29.003	0.068	0.058
-379.917	-72.704	-0.211	-0.079
-378.902	-102.714	0.049	0.012
-377.888	73.017	0.120	-0.127
-376.873	-200.000	0.083	-0.446
-375.858	-130.906	-0.051	-0.007
-374.844	-71.376	-0.025	-0.009
-373.829	800.000	0.038	-0.147
-372.815	800.000	-0.023	0.086
-371.800	-104.845	0.111	-0.026
-370.785	-166.025	-0.290	-0.012
-369.771	5.263	0.157	0.117
-368.756	-111.192	0.278	-0.057
-367.742	-63.829	-0.092	0.038
-366.727	375.870	-0.100	-0.206
-365.712	166.891	0.119	0.170
-364.698	334.559	0.094	-0.183
-363.683	800.000	0.064	-0.195
-362.669	78.681	-0.104	0.112
-361.654	-176.176	0.317	-0.008
-360.639	142.175	0.215	0.287
-359.625	-91.738	-0.158	-0.045
-358.610	-70.819	-0.104	-0.040
-357.596	-117.207	-0.259	-0.047
-356.581	347.813	-0.124	-0.247
-355.566	-200.000	0.049	-0.257
-354.552	34.823	0.300	0.264
-353.537	-33.707	0.180	0.100
-352.523	-182.685	0.122	-0.002
-351.508	-33.438	0.184	0.102
-350.493	48.916	-0.184	0.174
-349.479	-49.551	0.216	0.104
-348.464	127.138	-0.197	-0.252
-347.450	172.218	0.049	-0.070
-346.435	264.247	0.141	0.248
-345.420	-103.864	0.226	-0.053
-344.406	-146.322	-0.330	0.029
-343.391	54.551	0.226	-0.219
-342.377	261.446	-0.066	0.115
-341.362	800.000	0.061	0.236
-340.348	-200.000	-0.030	-0.514
-339.333	-150.912	-0.256	-0.020
-338.318	-123.851	-0.312	-0.050
-337.304	-74.294	0.215	-0.078
-336.289	-59.095	-0.050	-0.022
-335.275	-200.000	0.002	-0.016
-334.260	-200.000	-0.052	0.451
-333.245	-116.348	0.022	0.004
-332.231	-188.187	-0.266	0.003
-331.216	-200.000	0.032	0.279
-330.202	-38.349	0.113	0.060
-329.187	-185.823	-0.252	0.004
-328.172	-200.000	0.049	0.276
-327.158	84.274	-0.051	0.056
-326.143	-200.000	0.040	0.456
-325.129	-3.818	0.180	-0.126
-324.114	42.953	0.055	0.051
-323.099	68.624	0.049	0.051
-322.085	-105.600	-0.265	-0.061
-321.070	-200.000	0.015	0.345
-320.056	-200.000	-0.001	-0.022
-319.041	-60.039	-0.140	0.060
-318.026	316.049	0.100	-0.191
-317.012	-45.239	-0.079	-0.040
-315.997	436.345	-0.110	0.241
-314.983	-103.174	-0.216	-0.051
-313.968	-140.849	-0.064	-0.007
-312.953	-200.000	0.004	0.359
-311.939	800.000	0.086	-0.278
-310.924	-117.817	0.111	-0.020
-309.910	110.092	0.156	0.189
-308.895	800.000	-0.010	-0.035
-307.880	-200.000	-0.010	-0.196
-306.866	98.379	-0.176	0.204
-305.851	-88.414	-0.038	-0.011
-304.837	327.466	0.034	-0.065
-303.822	-200.000	-0.063	-0.409
-302.807	-200.000	0.022	0.187
-301.793	-200.000	-0.014	-0.124
-300.778	213.584	0.078	-0.124
-299.764	-68.402	0.158	0.062
-298.749	-120.325	-0.212	0.036
-297.735	88.060	0.104	0.115
-296.720	800.000	-0.062	0.191
-295.705	138.135	0.014	0.019
-294.691	-27.976	-0.325	0.189
-293.676	5.085	-0.096	-0.071
-292.662	-200.000	-0.077	0.368
-291.647	502.794	0.005	0.013
-290.632	-200.000	-0.020	0.176
-289.618	253.608	-0.039	0.067
-288.603	-200.000	-0.050	-0.343
-287.589	-200.000	-0.004	0.127
-286.574	73.514	-0.143	0.150
-285.559	-58.889	-0.260	0.113
-284.545	800.000	0.033	-0.120
-283.530	-19.822	0.156	0.097
-282.516	298.486	-0.161	-0.298
-281.501	-200.000	-0.005	0.089
-280.486	188.710	-0.220	-0.330
-279.472	800.000	0.031	0.124
-278.457	-20.949	0.116	0.071
-277.443	557.040	0.074	-0.178
-276.428	32.734	0.281	-0.244
-275.413	188.811	0.130	0.196
-274.399	-139.493	-0.078	0.008
-273.384	-168.244	-0.176	-0.007
-272.370	-200.000	-0.056	-0.258
-271.355	8.842	0.207	0.156
-270.340	143.271	-0.233	-0.312
-269.326	-69.880	0.076	0.029
-268.311	-114.072	0.206	-0.040
-267.297	-9.068	0.081	-0.054
-266.282	-63.545	-0.366	-0.151
-265.267	-53.396	0.231	0.106
-264.253	616.817	0.084	-0.211
-263.238	397.167	-0.070	-0.146
-262.224	78.204	0.165	-0.177
-261.209	-3.810	-0.215	-0.150
-260.195	96.383	-0.115	0.132
-259.180	-197.165	-0.463	0.003
-258.165	-174.875	0.129	0.004
-257.151	-46.337	0.253	0.125
-256.136	800.000	-0.044	0.157
-255.122	75.518	-0.101	-0.107
-254.107	114.458	0.226	0.276
-253.092	179.702	0.129	0.189
-252.078	561.153	-0.037	0.090
-251.063	-68.397	-0.390	0.152
-250.049	-80.499	0.145	0.049
-249.034	-85.144	0.226	-0.071
-248.019	452.418	0.057	-0.126
-247.005	131.222	0.073	0.094
-245.990	22.867	-0.182	-0.150
-244.976	-64.333	0.184	-0.075
-243.961	94.745	-0.061	-0.070
-242.946	159.498	-0.015	-0.021
-241.932	-55.619	0.090	0.040
-240.917	50.186	0.131	0.125
-239.903	-15.254	0.177	0.114
-238.888	-200.000	0.030	-0.199
-237.873	181.908	0.053	0.078
-236.859	-200.000	-0.034	0.163
-235.844	106.020	-0.077	-0.091
-234.830	267.249	0.025	-0.044
-233.815	94.925	-0.151	0.172
-232.800	2.016	0.202	-0.146
-231.786	-200.000	0.062	-0.301
-230.771	-98.670	0.146	0.037
-229.757	-33.193	-0.179	-0.099
-228.742	-168.730	-0.454	-0.017
-227.727	-200.000	-0.005	-0.408
-226.713	60.410	-0.166	0.165
-225.698	-200.000	-0.030	-0.319
-224.684	72.984	-0.192	-0.202
-223.669	800.000	-0.047	0.132
-222.655	45.738	0.147	-0.136
-221.640	-122.931	-0.088	-0.014
-220.625	-200.000	-0.008	0.070
-219.611	-56.653	-0.024	0.011
-218.596	312.839	-0.162	-0.306
-217.582	-46.602	0.084	0.041
-216.567	-200.000	-0.024	0.262
-215.552	800.000	-0.086	0.254
-214.538	-158.525	-0.251	-0.015
-213.523	99.547	0.120	-0.140
-212.509	-85.262	0.040	-0.013
-211.494	366.644	-0.159	0.322
-210.479	-14.748	-0.040	-0.026
-209.465	62.986	-0.064	0.064
-208.450	445.391	-0.098	-0.217
-207.436	-200.000	0.005	-0.081
-206.421	-30.184	-0.094	-0.053
-205.406	800.000	-0.074	0.208
-204.392	576.644	-0.017	-0.042
-203.377	-200.000	-0.032	-0.215
-202.363	-118.451	-0.274	-0.049
-201.348	-200.000	-0.011	0.170
-200.333	-83.623	0.099	-0.032
-199.319	-43.344	0.175	0.089
-198.304	-183.915	0.141	0.002
-197.290	177.858	0.155	-0.226
-196.275	200.561	0.044	-0.068
-195.260	79.074	0.124	0.133
-194.246	63.099	0.358	0.359
-193.231	-121.874	-0.076	0.013
-192.217	-112.049	-0.176	0.035
-191.202	68.773	0.185	-0.190
-190.187	-141.376	0.118	-0.012
-189.173	-138.333	0.299	-0.033
-188.158	-63.389	-0.271	-0.111
-187.144	-160.814	-0.352	-0.019
-186.129	332.816	-0.137	-0.265
-185.114	-53.897	0.080	-0.036
-184.100	-67.259	-0.111	-0.044
-183.085	800.000	-0.089	0.292
-182.071	122.050	0.138	0.172
-181.056	-48.875	0.154	0.074
-180.042	213.297	-0.040	-0.063
-179.027	57.898	-0.136	-0.133
-178.012	800.000	-0.042	0.125
-176.998	-19.997	-0.125	-0.077
-175.983	-200.000	0.005	-0.294
-174.969	75.994	-0.082	-0.087
-173.954	-200.000	-0.010	0.220
-172.939	6.018	0.224	0.166
-171.925	-200.000	-0.035	0.239
-170.910	-4.438	-0.155	-0.107
-169.896	-103.438	0.117	-0.027
-168.881	-50.258	0.162	0.077
-167.866	800.000	0.177	-0.577
-166.852	247.923	-0.102	0.173
-165.837	-147.865	-0.194	0.016
-164.823	800.000	-0.056	0.192
-163.808	-121.865	0.386	-0.064
-162.793	141.038	0.154	0.204
-161.779	107.780	-0.028	-0.034
-160.764	800.000	-0.039	0.165
-159.750	-200.000	0.010	0.065
-158.735	-131.776	0.194	-0.025
-157.720	130.252	-0.300	-0.384
-156.706	800.000	0.022	-0.075
-155.691	314.186	-0.166	0.313
-154.677	-200.000	0.004	0.304
-153.662	800.000	-0.129	0.389
-152.647	-200.000	0.015	0.434
-151.633	-93.107	0.150	0.042
-150.618	-118.478	0.356	-0.063
-149.604	800.000	-0.058	0.199
-148.589	-51.946	-0.032	0.015
-147.574	178.688	-0.260	-0.379
-146.560	800.000	0.012	0.037
-145.545	-49.471	0.146	0.070
-144.531	-200.000	-0.042	-0.242
-143.516	-87.784	0.275	-0.083
-142.502	439.949	0.106	-0.231
-141.487	800.000	0.120	0.423
-140.472	28.831	0.242	0.205
-139.458	-200.000	0.021	-0.384
-138.443	-10.702	-0.345	-0.228
-137.429	37.472	0.098	-0.087
-136.414	227.846	0.136	-0.221
-135.399	740.013	0.142	-0.381
-134.385	99.389	-0.160	-0.185
-133.370	101.980	-0.164	-0.191
-132.356	5.071	-0.143	-0.105
-131.341	47.780	0.441	-0.412
-130.326	-61.043	0.233	-0.098
-129.312	-166.434	0.457	-0.019
-128.297	196.651	0.208	0.317
-127.283	800.000	-0.095	-0.271
-126.268	-123.001	0.154	0.025
-125.253	-5.676	-0.075	-0.052
-124.239	50.485	-0.205	-0.193
-123.224	-144.365	-0.088	0.008
-122.210	-91.881	0.170	0.048
-121.195	800.000	0.118	0.443
-120.180	-9.939	-0.307	-0.204
-119.166	76.903	-0.095	-0.101
-118.151	-200.000	-0.038	-0.205
-117.137	309.129	0.041	0.077
-116.122	193.669	-0.043	-0.065
-115.107	-81.115	-0.177	0.058
-114.093	-135.185	0.197	-0.024
-113.078	68.729	0.184	-0.189
-112.064	170.325	0.144	-0.206
-111.049	-30.144	0.132	-0.075
-110.034	-100.622	-0.115	0.028
-109.020	185.057	-0.109	0.161
-108.005	0.863	0.124	-0.088
-106.991	-115.445	0.329	0.062
-105.976	800.000	-0.038	-0.123
-104.962	341.174	-0.161	0.314
-103.947	222.628	-0.094	0.151
-102.932	176.861	0.140	-0.203
-101.918	-16.147	-0.450	0.286
-100.903	45.208	-0.025	-0.023
-99.889	31.983	-0.115	-0.099
-98.874	-149.876	0.314	0.024
-97.859	-21.961	0.181	0.110
-96.845	800.000	-0.095	-0.324
-95.830	-200.000	0.022	-0.285
-94.816	533.519	0.094	-0.223
-93.801	-108.214	0.225	-0.049
-92.786	92.138	0.281	0.315
-91.772	800.000	-0.094	-0.320
-90.757	601.466	0.013	-0.032
-89.743	-200.000	-0.021	-0.099
-88.728	-200.000	0.060	-0.309
-87.713	111.396	0.215	0.258
-86.699	-200.000	0.039	-0.254
-85.684	-0.107	0.209	0.148
-84.670	800.000	0.051	-0.152
-83.655	560.888	-0.066	0.158
-82.640	-67.037	0.300	-0.118
-81.626	-136.773	0.248	0.028
-80.611	-200.000	0.005	-0.031
-79.597	-114.752	-0.223	-0.043
-78.582	-140.577	-0.072	-0.007
-77.567	-107.977	-0.132	0.029
-76.553	-0.299	0.254	0.180
-75.538	584.519	0.010	0.025
-74.524	-200.000	0.016	-0.381
-73.509	712.342	0.140	-0.371
-72.494	79.243	-0.088	0.094
-71.480	-200.000	0.029	0.244
-70.465	-200.000	-0.016	-0.129
-69.451	-77.660	-0.091	0.032
-68.436	548.342	-0.058	0.138
-67.422	-60.153	-0.307	0.130
-66.407	16.018	0.248	-0.195
-65.392	-200.000	-0.002	0.018
-64.378	25.425	0.121	0.100
-63.363	-200.000	0.002	-0.020
-62.349	436.539	-0.131	0.283
-61.334	15.576	-0.750	-0.587
-60.319	-8.626	0.325	0.217
-59.305	-200.000	-0.007	-0.927
-58.290	800.000	0.202	0.706
-57.276	800.000	0.472	1.482
-56.261	-200.000	83.261	493.048
-55.246	531.228	1379.909	3249.495
-54.232	181.984	2607.249	3824.259
-53.217	118.299	2239.829	2751.241
-52.203	48.837	1686.155	1575.536
-51.188	41.315	1416.249	1275.393
-50.173	38.119	1371.929	1215.577
-49.159	56.450	1412.820	1367.806
-48.144	61.128	1431.263	1415.115
-47.130	41.856	1391.151	1255.993
-46.115	38.168	1373.977	1217.506
-45.100	38.012	1369.041	1212.113
-44.086	37.890	1366.673	1209.210
-43.071	37.873	1364.192	1206.860
-42.057	37.795	1362.246	1204.609
-41.042	37.821	1360.689	1203.345
-40.027	38.038	1358.586	1202.774
-39.013	38.024	1356.256	1200.580
-37.998	38.024	1354.718	1199.172
-36.984	38.077	1353.536	1198.403
-35.969	38.067	1351.585	1196.566
-34.954	38.034	1349.816	1194.749
-33.940	38.167	1347.519	1193.483
-32.925	38.188	1346.558	1192.712
-31.911	38.202	1345.091	1191.448
-30.896	38.016	1344.062	1189.356
-29.881	38.171	1342.536	1188.905
-28.867	38.154	1341.310	1187.671
-27.852	38.110	1339.803	1186.022
-26.838	38.138	1338.683	1185.153
-25.823	38.180	1336.961	1183.836
-24.809	38.124	1335.655	1182.290
-23.794	38.142	1334.155	1181.029
-22.779	38.147	1332.706	1179.730
-21.765	38.174	1331.385	1178.673
-20.750	38.120	1330.620	1177.623
-19.736	38.029	1328.874	1175.481
-18.721	38.029	1327.595	1174.306
-17.706	37.938	1326.740	1172.957
-16.692	38.041	1324.834	1171.841
-15.677	38.120	1323.634	1171.207
-14.663	38.068	1322.685	1170.010
-13.648	38.015	1321.707	1168.780
-12.633	37.997	1320.845	1167.865
-11.619	37.889	1320.035	1166.456
-10.604	37.938	1319.157	1165.925
-9.590	38.040	1317.817	1165.309
-8.575	38.038	1316.764	1164.313
-7.560	37.947	1315.947	1163.003
-6.546	38.053	1315.052	1162.797
-5.531	37.957	1314.082	1161.322
-4.517	38.022	1313.188	1160.872
-3.502	37.925	1312.469	1159.618
-2.487	38.006	1311.328	1159.041
-1.473	38.051	1307.936	1156.265
-0.458	37.405	1293.601	1139.763
0.556	34.993	1274.432	1102.468
1.571	31.162	1278.673	1083.845
2.586	29.690	1292.284	1086.636
3.600	27.538	1279.151	1062.960
4.615	20.374	1201.590	959.005
5.629	10.057	1119.522	840.066
6.644	5.175	1096.678	797.945
7.659	4.753	1094.099	793.847
8.673	5.011	1092.727	794.094
9.688	4.942	1091.568	792.830
10.702	5.069	1090.216	792.424
11.717	10.916	1099.437	828.936
12.731	19.803	1111.658	883.684
13.746	21.698	1113.033	894.381
14.761	19.787	1110.116	882.222
15.775	18.727	1107.561	874.717
16.790	17.665	1105.312	867.458
17.804	16.922	1104.195	862.728
18.819	16.573	1102.864	859.837
19.834	16.460	1101.662	858.251
20.848	16.125	1100.744	855.759
21.863	15.943	1100.030	854.207
22.877	15.798	1099.360	852.876
23.892	15.822	1098.356	852.141
24.907	15.774	1097.853	851.432
25.921	15.831	1096.430	850.544
26.936	15.794	1095.634	849.660
27.950	15.959	1093.714	848.931
28.965	15.986	1092.414	847.984
29.980	16.136	1090.778	847.390
30.994	16.111	1089.471	846.174
32.009	16.116	1088.718	845.542
33.023	16.133	1087.379	844.512
34.038	16.045	1086.609	843.397
35.053	15.992	1085.389	842.109
36.067	15.893	1084.368	840.750
37.082	15.973	1083.908	840.717
38.096	16.159	1082.981	840.854
39.111	16.067	1082.237	839.741
40.126	15.995	1081.074	838.408
41.140	15.863	1079.346	836.335
42.155	15.761	1078.277	834.931
43.169	15.563	1077.544	833.306
44.184	15.624	1076.299	832.570
45.199	15.614	1075.485	831.820
46.213	15.706	1074.024	831.068
47.228	15.843	1073.500	831.268
48.242	15.972	1071.958	830.635
49.257	15.739	1071.437	829.011
50.271	15.902	1070.323	828.876
51.286	15.819	1070.209	828.308
52.301	15.859	1068.713	827.275
53.315	15.784	1067.344	825.770
54.330	15.824	1066.161	824.978
55.344	15.739	1065.598	824.056
56.359	15.793	1064.633	823.499
57.374	15.836	1063.538	822.791
58.388	15.750	1062.546	821.531
59.403	15.562	1062.063	820.165
60.417	15.746	1060.877	820.074
61.432	15.588	1060.448	818.900
62.447	15.563	1059.411	817.904
63.461	15.580	1058.609	817.297
64.476	15.465	1057.909	816.127
65.490	15.586	1056.322	815.415
66.505	15.512	1056.268	814.942
67.520	15.519	1055.414	814.247
68.534	15.687	1054.532	814.306
69.549	15.502	1053.852	812.812
70.563	15.557	1052.598	812.038
71.578	15.414	1052.270	811.024
72.593	15.415	1051.234	810.157
73.607	15.355	1050.834	809.489
74.622	15.500	1049.866	809.372
75.636	15.371	1049.388	808.308
76.651	15.344	1048.430	807.370
77.666	15.398	1047.976	807.208
78.680	15.485	1047.184	806.945
79.695	15.472	1046.722	806.457
80.709	15.622	1045.906	806.478
81.724	15.820	1045.029	806.678
82.739	15.741	1044.150	805.551
83.753	15.941	1043.683	806.073
84.768	15.945	1042.995	805.493
85.782	16.050	1041.906	805.082
86.797	16.118	1040.840	804.513
87.812	15.868	1040.143	802.707
88.826	15.875	1038.959	801.756
89.841	15.917	1038.104	801.227
90.855	16.095	1037.081	801.213
91.870	16.036	1036.112	800.110
92.884	16.095	1034.887	799.377
93.899	16.119	1034.257	798.933
94.914	16.158	1033.644	798.570
95.928	16.090	1033.100	797.760
96.943	16.076	1031.941	796.729
97.957	15.943	1030.997	795.299
98.972	15.968	1030.148	794.693
99.987	16.023	1029.318	794.241
101.001	15.927	1028.213	792.865
102.016	15.974	1027.155	792.203
103.030	16.103	1026.394	792.152
104.045	16.048	1025.679	791.270
105.060	15.947	1024.730	789.994
106.074	15.891	1023.571	788.767
107.089	15.700	1022.465	786.955
108.103	15.639	1021.584	785.920
109.118	15.727	1020.665	785.555
110.133	15.576	1019.711	784.045
111.147	15.697	1018.600	783.688
112.162	15.587	1018.123	782.740
113.176	15.821	1017.405	783.206
114.191	15.770	1016.646	782.317
115.206	15.851	1015.691	781.885
116.220	15.800	1014.677	780.802
117.235	15.676	1014.149	779.751
118.249	15.821	1012.849	779.353
119.264	15.540	1012.415	777.649
120.279	15.598	1011.495	777.141
121.293	15.588	1011.019	776.663
122.308	15.597	1009.812	775.708
123.322	15.511	1008.895	774.538
124.337	15.545	1007.681	773.693
125.352	15.591	1006.986	773.302
126.366	15.624	1005.218	772.028
127.381	15.646	1003.989	771.120
128.395	15.616	1003.795	770.764
129.410	15.678	1002.700	770.138
130.424	15.792	1001.409	769.601
131.439	15.866	1001.051	769.593
132.454	15.881	1000.377	769.078
133.468	15.840	999.438	768.103
134.483	15.819	998.753	767.411
135.497	15.786	998.100	766.690
136.512	15.857	996.983	766.088
137.527	15.977	995.678	765.562
138.541	15.835	995.425	764.653
139.556	15.875	994.900	764.363
140.570	15.947	994.378	764.222
141.585	16.145	993.375	764.285
142.600	16.153	992.636	763.681
143.614	16.129	991.680	762.769
144.629	16.082	990.972	761.949
145.643	16.123	989.875	761.222
146.658	16.008	989.103	760.039
147.673	15.971	987.661	758.701
148.687	15.827	986.745	757.278
149.702	15.933	985.891	757.033
150.716	15.898	985.251	756.318
151.731	15.870	984.333	755.423
152.746	15.882	983.665	754.894
153.760	16.015	983.107	754.998
154.775	16.055	982.477	754.626
155.789	16.065	981.768	754.057
156.804	15.919	981.172	752.882
157.819	16.089	980.309	752.914
158.833	16.149	979.781	752.706
159.848	16.249	979.436	752.822
160.862	16.140	977.950	751.127
161.877	16.038	976.437	749.448
162.892	16.070	975.291	748.641
163.906	15.877	974.724	747.285
164.921	15.909	974.093	746.876
165.935	15.988	972.955	746.287
166.950	15.978	972.284	745.661
167.964	15.998	971.339	744.962
168.979	15.964	970.317	743.962
169.994	16.075	969.395	743.680
171.008	16.064	968.542	742.909
172.023	16.083	968.371	742.794
173.037	16.177	967.693	742.622
174.052	16.152	966.689	741.676
175.067	16.007	965.817	740.304
176.081	16.004	965.187	739.746
177.096	16.002	964.685	739.287
178.110	16.084	964.197	739.205
179.125	16.077	963.675	738.708
180.140	16.108	963.353	738.535
181.154	16.150	962.677	738.133
182.169	16.360	962.171	738.597
183.183	16.284	961.497	737.683
184.198	16.250	960.641	736.814
185.213	16.344	959.922	736.607
186.227	16.436	959.217	736.402
187.242	16.399	958.527	735.645
188.256	16.525	957.934	735.671
189.271	16.528	956.959	734.874
190.286	16.145	956.148	732.522
191.300	16.049	955.097	731.236
192.315	16.034	954.248	730.454
193.329	15.992	953.970	729.996
194.344	16.053	953.376	729.741
195.359	16.110	952.838	729.511
196.373	16.337	952.288	730.004
197.388	16.471	951.912	730.234
198.402	16.544	951.389	730.083
199.417	16.674	950.908	730.208
200.432	16.705	949.863	729.477
201.446	16.619	949.830	729.017
202.461	16.746	949.425	729.187
203.475	16.655	949.067	728.457
204.490	16.647	947.590	727.224
205.504	16.526	946.877	726.093
206.519	16.592	945.977	725.622
207.534	16.487	945.295	724.583
208.548	16.500	944.993	724.342
209.563	16.430	943.794	723.062
210.577	16.499	943.221	722.853
211.592	16.682	942.575	723.077
212.607	16.801	941.077	722.370
213.621	16.783	940.706	721.944
214.636	16.706	940.545	721.428
215.650	16.765	939.482	720.803
216.665	16.832	938.824	720.518
217.680	16.924	938.048	720.250
218.694	16.876	937.625	719.658
219.709	16.856	937.083	719.094
220.723	16.921	936.299	718.704
221.738	16.958	935.240	717.984
222.753	16.791	935.079	717.087
223.767	16.782	934.374	716.447
224.782	17.036	933.668	716.913
225.796	17.094	933.361	716.859
226.811	16.991	932.641	715.809
227.826	16.900	931.638	714.594
228.840	16.941	930.759	714.027
229.855	16.897	930.164	713.321
230.869	16.788	929.463	712.265
231.884	16.821	928.773	711.810
232.899	16.876	927.912	711.321
233.913	16.651	927.469	709.971
234.928	16.887	926.053	709.815
235.942	16.723	925.997	709.022
236.957	16.801	925.354	708.792
237.972	16.763	924.805	708.150
238.986	16.759	924.274	707.663
240.001	16.636	923.669	706.627
241.015	16.784	922.970	706.644
242.030	16.834	922.487	706.422
243.045	16.886	921.798	706.046
244.059	16.904	921.088	705.517
245.074	16.998	920.444	705.354
246.088	17.016	919.933	704.972
247.103	17.133	918.946	704.639
248.117	17.185	918.634	704.553
249.132	17.373	918.190	704.931
250.147	17.398	917.617	704.531
251.161	17.536	916.771	704.391
252.176	17.501	916.398	703.897
253.190	17.551	915.690	703.497
254.205	17.552	915.044	702.941
255.220	17.558	914.588	702.553
256.234	17.680	913.390	702.076
257.249	17.643	912.572	701.230
258.263	17.497	912.152	700.249
259.278	17.588	911.557	700.103
260.293	17.653	910.831	699.747
261.307	17.709	910.533	699.690
262.322	17.533	910.204	698.653
263.336	17.647	909.103	698.212
264.351	17.524	908.316	697.043
265.366	17.793	907.822	697.703
266.380	17.685	907.227	696.742
267.395	17.626	906.350	695.765
268.409	17.579	905.426	694.802
269.424	17.652	904.542	694.360
270.439	17.581	904.169	693.724
271.453	17.544	902.964	692.586
272.468	17.684	902.213	692.519
273.482	17.667	901.880	692.134
274.497	17.703	901.415	691.861
275.512	17.475	901.328	690.807
276.526	17.580	900.708	690.695
277.541	17.699	900.051	690.614
278.555	17.791	899.325	690.367
279.570	17.841	898.600	689.954
280.585	17.854	897.700	689.254
281.599	17.778	896.863	688.243
282.614	17.705	896.311	687.462
283.628	17.790	895.940	687.461
284.643	17.794	895.102	686.773
285.657	17.741	894.459	686.005
286.672	17.936	893.988	686.367
287.687	17.866	893.455	685.617
288.701	17.829	892.968	685.033
289.716	17.887	892.069	684.516
290.730	17.883	891.628	684.102
291.745	17.787	891.169	683.302
292.760	17.901	890.272	683.013
293.774	18.145	889.661	683.460
294.789	18.153	889.032	682.948
295.803	18.094	887.979	681.842
296.818	17.931	887.443	680.719
297.833	17.864	887.274	680.265
298.847	17.937	886.106	679.597
299.862	17.901	886.025	679.331
300.876	18.052	885.222	679.257
301.891	18.116	884.952	679.244
302.906	18.256	883.974	678.988
303.920	18.377	883.842	679.306
304.935	18.219	883.470	678.334
305.949	18.340	882.225	677.797
306.964	18.216	881.909	677.006
307.979	18.145	881.400	676.275
308.993	18.208	880.779	675.986
310.008	18.336	880.080	675.894
311.022	18.200	879.831	675.108
312.037	18.068	879.263	674.093
313.052	18.219	878.179	673.796
314.066	17.990	877.951	672.657
315.081	18.015	877.247	672.159
316.095	18.230	876.247	672.175
317.110	18.196	875.924	671.735
318.125	18.123	875.747	671.253
319.139	18.060	875.185	670.517
320.154	18.127	874.608	670.278
321.168	18.075	874.234	669.729
322.183	18.124	873.235	669.095
323.197	18.141	872.971	668.900
324.212	18.330	872.085	668.903
325.227	18.146	871.732	667.851
326.241	18.173	871.075	667.396
327.256	18.211	870.595	667.118
328.270	18.376	869.800	667.093
329.285	18.167	869.207	665.763
330.300	18.239	868.572	665.498
331.314	18.214	868.280	665.117
332.329	18.209	868.277	665.040
333.343	18.395	867.443	665.065
334.358	18.563	866.818	665.177
335.373	18.461	866.642	664.586
336.387	18.594	866.174	664.685
337.402	18.584	866.328	664.707
338.416	18.563	866.081	664.377
339.431	18.623	865.548	664.142
340.446	18.702	865.118	664.057
341.460	18.713	864.722	663.736
342.475	18.778	864.090	663.445
343.489	18.874	863.569	663.357
344.504	18.962	863.230	663.377
345.519	19.055	862.491	663.108
346.533	19.017	861.726	662.315
347.548	18.742	861.518	661.040
348.562	18.638	860.729	659.977
349.577	18.754	860.284	660.023
350.592	18.578	859.581	658.749
351.606	18.339	859.013	657.338
352.621	18.676	857.716	657.578
353.635	18.694	857.197	657.190
354.650	18.733	856.563	656.794
355.665	18.769	856.242	656.628
356.679	18.910	855.448	656.501
357.694	18.850	854.743	655.671
358.708	18.814	854.560	655.336
359.723	18.840	853.777	654.775
360.738	18.915	853.186	654.550
361.752	18.746	852.543	653.357
362.767	18.888	852.171	653.554
363.781	19.066	851.710	653.818
364.796	19.105	851.498	653.748
365.810	19.064	851.256	653.348
366.825	19.235	850.705	653.514
367.840	19.071	849.942	652.250
368.854	19.201	849.079	652.021
369.869	19.095	848.796	651.347
370.883	19.097	848.561	651.115
371.898	19.187	847.876	650.872
372.913	19.232	847.841	650.960
373.927	19.149	846.698	649.711
374.942	19.193	846.493	649.660
375.956	19.184	846.438	649.525
376.971	19.354	845.603	649.469
377.986	19.344	845.391	649.211
379.000	19.326	845.115	648.875
380.015	19.352	844.372	648.346
381.029	19.549	843.396	648.276
382.044	19.411	842.886	647.310
383.059	19.468	842.192	646.932
384.073	19.217	842.107	645.869
385.088	19.187	841.128	644.951
386.102	19.306	840.463	644.827
387.117	19.330	839.712	644.283
388.132	19.195	839.571	643.616
389.146	19.316	839.096	643.644
390.161	19.308	838.892	643.403
391.175	19.401	838.127	643.105
392.190	19.324	837.322	642.145
393.205	19.399	836.756	641.933
394.219	19.381	836.537	641.642
395.234	19.344	836.257	641.229
396.248	19.113	835.909	640.047
397.263	19.304	835.131	640.104
398.278	19.044	835.238	639.166
399.292	19.215	834.374	639.081
400.307	19.212	833.716	638.511
401.321	19.459	833.220	638.988
402.336	19.371	832.526	638.076
403.350	19.301	832.459	637.706
404.365	19.511	832.048	638.112
405.380	19.590	831.599	638.002
406.394	19.631	831.213	637.803
407.409	19.634	830.735	637.390
408.423	19.805	830.383	637.696
409.438	19.656	830.577	637.237
410.453	19.847	829.532	637.083
411.467	19.832	829.007	636.567
412.482	19.991	828.425	636.648
413.496	19.908	828.767	636.550
414.511	20.011	828.196	636.433
415.526	19.965	827.345	635.555
416.540	19.870	826.805	634.737
417.555	19.920	826.430	634.574
418.569	19.970	825.865	634.268
419.584	19.920	825.632	633.851
420.599	19.912	824.976	633.262
421.613	151.957	1368.288	1777.027
422.628	132.457	1447.478	1777.128
