DTS Sentinel unit serial number:	SN413079Multiplexer serial number:	ORYXHardware model number:	OX4-SRSoftware version number:	ORYX F/W v4.00 Oryx Data Collector v3.7.2.0data status	okinstallation	princeton_trtdifferential loss correction	single-endedforward channel	channel 1reverse channel	N/Adate	2019/09/13time	13:30:35forward acquisition time	60.00reverse acquisition time	0.00gamma	496.2192k internal	0.2304k external	0.2304temperature offset calibration	1.0165default loss term (dB/km)	0.3790temperature slope calibration	1.0000multiplexer offset coefficient	1.0000multiplexer slope coefficient	1.0000fibre end	0.00T internal ref (°C)	35.03T ext. ref 1 (°C)	4.57T ext. ref 2 (°C)	31.00length (m)	temperature (°C)	Stokes	anti-Stokes-747.200	800.000	0.085	-0.273
-746.185	349.062	-0.085	0.171
-745.171	96.340	-0.115	0.134
-744.156	214.903	-0.112	0.180
-743.142	-24.907	0.380	0.230
-742.127	311.395	0.142	0.270
-741.112	800.000	-0.010	0.039
-740.098	-200.000	-0.002	0.175
-739.083	-178.976	-0.150	0.003
-738.069	-185.551	-0.102	-0.002
-737.054	-158.829	-0.034	0.002
-736.039	664.083	0.050	-0.132
-735.025	-39.986	-0.380	0.202
-734.010	-128.624	-0.204	0.029
-732.996	24.433	-0.197	-0.165
-731.981	-124.006	0.132	-0.021
-730.966	46.459	-0.151	-0.143
-729.952	-107.880	0.111	-0.025
-728.937	-29.593	0.300	0.174
-727.923	800.000	0.032	0.144
-726.908	339.240	-0.066	-0.131
-725.894	279.808	0.084	0.152
-724.879	-95.728	0.352	-0.096
-723.864	-57.079	-0.298	-0.134
-722.850	-16.112	-0.287	0.186
-721.835	107.874	0.030	0.036
-720.821	7.719	0.195	0.149
-719.806	-112.353	-0.324	0.066
-718.791	82.653	0.047	-0.052
-717.777	-200.000	-0.012	0.227
-716.762	-99.985	0.230	-0.058
-715.748	-28.457	-0.086	-0.051
-714.733	227.583	0.036	0.059
-713.718	174.818	-0.103	-0.152
-712.704	6.570	0.086	0.065
-711.689	75.430	-0.190	0.204
-710.675	426.191	-0.056	-0.123
-709.660	-120.299	0.419	0.073
-708.645	-100.333	-0.217	-0.055
-707.631	466.618	-0.080	0.182
-706.616	-67.739	0.118	0.047
-705.602	-80.933	-0.079	0.026
-704.587	-200.000	0.023	0.515
-703.572	-11.779	0.161	0.107
-702.558	76.998	0.102	0.110
-701.543	151.600	-0.052	-0.072
-700.529	166.614	0.133	-0.192
-699.514	-200.000	0.049	0.384
-698.499	-63.541	0.199	-0.083
-697.485	800.000	0.147	-0.504
-696.470	-50.773	0.391	0.187
-695.456	-72.667	-0.262	-0.098
-694.441	-38.120	-0.098	-0.053
-693.426	-68.070	-0.219	-0.087
-692.412	-110.553	0.157	-0.033
-691.397	-3.420	-0.205	0.145
-690.383	-163.911	0.268	-0.013
-689.368	34.944	-0.237	-0.211
-688.354	152.532	-0.253	0.351
-687.339	-12.419	-0.177	0.117
-686.324	-102.812	-0.385	0.093
-685.310	-16.800	0.150	-0.096
-684.295	500.321	0.054	-0.126
-683.281	693.664	-0.062	-0.165
-682.266	-80.729	0.141	0.048
-681.251	770.563	-0.077	-0.212
-680.237	-200.000	-0.024	-0.128
-679.222	-200.000	0.003	0.072
-678.208	-44.251	-0.200	-0.102
-677.193	-200.000	-0.031	0.207
-676.178	221.174	-0.248	-0.405
-675.164	-8.697	-0.204	-0.139
-674.149	1.761	-0.151	0.111
-673.135	-152.764	-0.260	0.019
-672.120	-25.036	-0.354	-0.213
-671.105	-129.396	-0.309	0.044
-670.091	-200.000	0.011	-0.237
-669.076	480.396	-0.053	-0.122
-668.062	22.055	0.192	-0.159
-667.047	738.091	-0.098	-0.266
-666.032	-129.434	-0.325	-0.046
-665.018	800.000	-0.057	0.179
-664.003	-98.530	0.199	0.052
-662.989	296.775	-0.062	0.115
-661.974	-71.779	-0.099	-0.038
-660.959	230.021	-0.117	0.193
-659.945	-200.000	-0.045	0.373
-658.930	-144.718	-0.188	-0.018
-657.916	-155.070	0.327	-0.022
-656.901	-200.000	-0.010	0.374
-655.886	-167.681	0.060	0.002
-654.872	800.000	-0.103	0.310
-653.857	97.773	-0.259	-0.302
-652.843	-200.000	0.040	-0.376
-651.828	728.944	-0.029	-0.078
-650.814	90.902	-0.142	0.162
-649.799	558.074	0.132	-0.322
-648.784	187.426	-0.059	0.090
-647.770	-117.168	-0.266	-0.049
-646.755	-25.413	0.095	0.057
-645.741	-90.024	-0.059	0.018
-644.726	-145.483	-0.221	-0.020
-643.711	800.000	-0.150	-0.421
-642.697	-132.786	-0.188	-0.024
-641.682	-187.924	-0.070	0.001
-640.668	620.564	0.120	0.306
-639.653	-13.762	-0.036	0.023
-638.638	-200.000	0.017	0.282
-637.624	90.167	0.253	0.286
-636.609	-104.312	-0.172	-0.040
-635.595	-200.000	0.017	-0.148
-634.580	-133.462	-0.160	0.020
-633.565	27.159	-0.169	-0.144
-632.551	-83.674	-0.236	-0.076
-631.536	800.000	-0.068	-0.238
-630.522	800.000	0.043	-0.167
-629.507	800.000	0.067	-0.202
-628.492	283.250	0.140	-0.254
-627.478	-200.000	0.024	0.118
-626.463	-65.382	0.100	0.041
-625.449	-200.000	0.005	0.408
-624.434	22.080	0.195	0.161
-623.419	-151.634	0.094	0.007
-622.405	10.500	-0.340	0.262
-621.390	-78.539	0.255	0.088
-620.376	-200.000	-0.004	0.065
-619.361	215.924	-0.111	-0.179
-618.346	85.029	-0.031	-0.034
-617.332	300.365	-0.086	-0.160
-616.317	-23.372	0.100	-0.061
-615.303	149.519	0.113	-0.155
-614.288	110.184	0.153	-0.186
-613.273	-200.000	-0.014	0.144
-612.259	-52.935	-0.124	-0.058
-611.244	15.003	0.027	0.021
-610.230	-127.892	0.141	0.021
-609.215	-168.895	-0.022	-0.001
-608.201	33.860	-0.266	-0.235
-607.186	324.608	0.102	-0.198
-606.171	-200.000	-0.012	0.105
-605.157	620.102	-0.140	-0.356
-604.142	131.045	-0.090	-0.117
-603.128	-96.067	-0.134	-0.036
-602.113	-200.000	-0.059	0.327
-601.098	-76.721	-0.137	-0.049
-600.084	-91.722	0.280	-0.080
-599.069	629.627	-0.087	-0.223
-598.055	-106.096	0.201	0.046
-597.040	-95.011	-0.245	-0.067
-596.025	-200.000	-0.021	-0.232
-595.011	800.000	-0.051	0.194
-593.996	800.000	0.040	-0.127
-592.982	-200.000	-0.003	-0.096
-591.967	800.000	0.095	0.320
-590.952	-144.479	0.114	0.011
-589.938	91.114	0.084	0.095
-588.923	13.664	0.057	-0.044
-587.909	264.183	-0.127	0.224
-586.894	82.050	-0.056	0.061
-585.879	653.912	-0.102	-0.265
-584.865	-94.560	-0.432	0.119
-583.850	17.503	0.131	-0.105
-582.836	195.992	0.267	0.411
-581.821	-66.396	-0.114	0.046
-580.806	-200.000	0.043	0.214
-579.792	-13.662	0.102	0.067
-578.777	800.000	-0.096	-0.410
-577.763	800.000	-0.116	-0.357
-576.748	-148.945	0.212	-0.017
-575.733	345.177	-0.036	0.072
-574.719	191.980	-0.179	-0.272
-573.704	87.325	-0.189	-0.211
-572.690	-87.030	-0.332	-0.102
-571.675	503.281	-0.087	0.202
-570.661	156.395	-0.108	-0.151
-569.646	166.503	-0.024	-0.035
-568.631	-181.255	0.046	0.001
-567.617	-200.000	0.008	0.134
-566.602	-200.000	0.019	0.137
-565.588	165.079	-0.149	-0.213
-564.573	225.707	-0.150	-0.245
-563.558	329.330	-0.094	0.182
-562.544	-200.000	-0.042	0.251
-561.529	118.181	0.160	-0.199
-560.515	-15.049	-0.068	-0.044
-559.500	-72.921	-0.347	0.129
-558.485	-126.007	-0.270	0.041
-557.471	-105.142	0.168	0.039
-556.456	800.000	0.094	0.274
-555.442	194.743	-0.130	-0.200
-554.427	-66.999	0.050	-0.020
-553.412	347.940	0.069	-0.137
-552.398	800.000	-0.026	0.084
-551.383	85.307	-0.130	0.145
-550.369	323.462	-0.264	0.509
-549.354	115.004	-0.127	0.157
-548.339	134.277	0.168	0.220
-547.325	44.941	0.166	-0.155
-546.310	176.295	-0.123	-0.181
-545.296	-129.817	-0.172	-0.024
-544.281	-71.525	0.120	-0.045
-543.266	800.000	-0.021	0.076
-542.252	434.995	-0.093	-0.205
-541.237	-71.634	-0.109	0.041
-540.223	590.677	-0.177	-0.441
-539.208	-73.625	-0.413	-0.152
-538.193	155.739	0.125	0.174
-537.179	-53.329	-0.093	0.043
-536.164	62.105	0.201	0.202
-535.150	-85.977	0.195	-0.061
-534.135	355.326	0.041	0.083
-533.121	-200.000	-0.087	-0.431
-532.106	272.400	-0.064	-0.115
-531.091	557.580	-0.085	-0.207
-530.077	-62.038	0.201	-0.085
-529.062	45.667	0.198	0.184
-528.048	800.000	-0.100	0.413
-527.033	175.877	0.251	-0.367
-526.018	-51.426	0.501	0.236
-525.004	160.481	0.108	0.152
-523.989	-200.000	-0.066	0.338
-522.975	-14.039	0.378	-0.246
-521.960	800.000	-0.038	-0.123
-520.945	-34.341	-0.276	-0.153
-519.931	-132.768	-0.182	0.023
-518.916	789.065	-0.069	0.191
-517.902	-200.000	-0.004	-0.074
-516.887	-97.631	-0.139	-0.036
-515.872	169.699	-0.245	-0.354
-514.858	41.937	-0.200	-0.183
-513.843	237.366	0.069	-0.116
-512.829	-65.635	-0.162	0.066
-511.814	800.000	0.042	-0.163
-510.799	24.498	0.041	-0.034
-509.785	-166.211	-0.041	-0.002
-508.770	-86.289	-0.231	0.072
-507.756	-46.330	0.177	0.088
-506.741	62.620	-0.247	0.249
-505.726	-98.451	0.290	-0.075
-504.712	504.334	-0.092	0.216
-503.697	-189.801	0.223	0.003
-502.683	151.843	-0.212	-0.292
-501.668	78.624	-0.060	0.064
-500.653	-173.318	0.240	-0.007
-499.639	-156.854	0.306	-0.019
-498.624	21.525	0.053	-0.043
-497.610	-24.845	0.265	-0.159
-496.595	-158.556	-0.123	0.007
-495.581	246.811	-0.049	0.083
-494.566	-14.063	0.244	0.159
-493.551	21.612	0.359	-0.295
-492.537	-35.068	0.035	0.019
-491.522	25.321	-0.206	0.173
-490.508	-23.036	-0.457	0.278
-489.493	8.742	0.326	0.248
-488.478	-143.785	0.060	-0.006
-487.464	257.855	-0.064	0.111
-486.449	800.000	0.145	-0.529
-485.435	-70.996	-0.266	0.101
-484.420	-69.968	0.415	0.159
-483.405	-1.429	-0.053	0.037
-482.391	-124.487	-0.354	0.056
-481.376	135.011	-0.163	0.213
-480.362	-23.377	0.194	-0.118
-479.347	-18.002	0.138	-0.087
-478.332	-90.916	-0.080	0.023
-477.318	114.199	-0.018	-0.022
-476.303	524.516	0.099	-0.236
-475.289	-200.000	-0.019	-0.121
-474.274	-55.615	0.081	-0.037
-473.259	164.222	-0.176	0.250
-472.245	-14.367	0.139	0.090
-471.230	-116.974	-0.324	-0.060
-470.216	-200.000	-0.037	-0.165
-469.201	92.439	0.098	0.111
-468.186	93.020	0.076	-0.087
-467.172	800.000	0.106	-0.367
-466.157	108.745	-0.149	0.179
-465.143	516.344	-0.117	0.276
-464.128	23.375	-0.088	-0.073
-463.113	-38.949	0.272	-0.144
-462.099	-95.371	-0.210	0.057
-461.084	-200.000	-0.002	-0.100
-460.070	-200.000	-0.003	-0.197
-459.055	0.990	0.082	0.059
-458.040	260.851	0.100	-0.174
-457.026	-21.670	0.130	0.080
-456.011	212.767	0.105	0.167
-454.997	-34.979	-0.468	-0.257
-453.982	-67.349	-0.180	-0.071
-452.968	-65.846	0.100	-0.040
-451.953	-100.192	0.072	-0.018
-450.938	-61.833	-0.026	-0.011
-449.924	-132.488	0.338	-0.044
-448.909	-200.000	-0.072	-0.333
-447.895	-200.000	0.008	0.166
-446.880	800.000	0.072	-0.258
-445.865	-46.089	-0.098	0.049
-444.851	-123.100	0.114	-0.018
-443.836	-67.443	-0.127	-0.050
-442.822	-95.488	0.305	0.082
-441.807	16.075	-0.035	0.028
-440.792	-76.860	0.112	-0.039
-439.778	800.000	-0.097	-0.303
-438.763	-200.000	0.005	0.071
-437.749	73.623	0.143	-0.150
-436.734	268.218	-0.154	-0.272
-435.719	-34.154	-0.273	0.151
-434.705	-121.022	-0.284	0.048
-433.690	215.663	0.215	-0.343
-432.676	800.000	0.097	-0.297
-431.661	-137.884	-0.353	-0.040
-430.646	-200.000	-0.003	0.041
-429.632	-47.616	0.350	-0.171
-428.617	-200.000	-0.003	-0.030
-427.603	-75.651	0.213	-0.076
-426.588	431.683	0.153	-0.333
-425.573	284.831	0.034	0.061
-424.559	-200.000	-0.035	-0.220
-423.544	134.633	-0.186	0.243
-422.530	398.948	0.046	0.096
-421.515	-122.052	-0.473	-0.078
-420.500	23.597	0.086	0.071
-419.486	-132.301	0.288	0.037
-418.471	-127.581	0.120	0.018
-417.457	-78.680	0.332	0.114
-416.442	-200.000	-0.078	0.000
-415.428	55.767	-0.103	-0.100
-414.413	-18.842	-0.250	-0.156
-413.398	-200.000	-0.011	-0.172
-412.384	-21.397	-0.345	-0.212
-411.369	800.000	0.075	-0.301
-410.355	510.825	0.080	0.187
-409.340	141.924	-0.185	-0.247
-408.325	146.403	-0.063	-0.085
-407.311	141.199	0.126	-0.168
-406.296	800.000	0.022	-0.082
-405.282	758.288	0.075	0.204
-404.267	-134.814	0.317	0.039
-403.252	638.289	0.009	-0.024
-402.238	-136.467	-0.438	-0.051
-401.223	-200.000	0.031	0.279
-400.209	89.211	0.064	-0.072
-399.194	115.272	-0.134	-0.165
-398.179	-151.987	-0.243	0.018
-397.165	39.412	-0.062	0.056
-396.150	-28.814	0.083	-0.048
-395.136	-110.862	0.339	-0.070
-394.121	112.286	0.122	0.149
-393.106	-200.000	-0.025	-0.180
-392.092	173.164	-0.128	-0.186
-391.077	-99.310	-0.260	-0.066
-390.063	-69.158	0.053	0.021
-389.048	-200.000	-0.043	0.211
-388.033	800.000	-0.040	-0.125
-387.019	427.406	0.011	0.023
-386.004	-151.454	0.162	0.012
-384.990	-99.420	0.098	-0.025
-383.975	15.321	0.150	-0.118
-382.960	-123.719	0.061	-0.010
-381.946	59.964	0.128	0.127
-380.931	-77.720	-0.227	0.079
-379.917	778.082	0.060	-0.165
-378.902	-64.931	-0.375	-0.152
-377.888	-108.208	-0.328	0.071
-376.873	208.759	0.136	-0.213
-375.858	443.584	-0.106	0.232
-374.844	49.804	0.202	0.191
-373.829	228.287	-0.201	-0.329
-372.815	-200.000	-0.031	0.192
-371.800	260.741	0.111	0.193
-370.785	372.959	-0.159	0.324
-369.771	94.920	-0.227	0.260
-368.756	-60.787	0.122	-0.052
-367.742	40.594	0.287	-0.260
-366.727	-105.086	0.141	0.032
-365.712	148.438	-0.033	-0.045
-364.698	-56.331	-0.054	0.024
-363.683	710.808	-0.103	0.272
-362.669	262.825	0.259	0.452
-361.654	-148.906	-0.264	0.021
-360.639	-26.628	-0.116	0.068
-359.625	-3.541	-0.219	0.153
-358.610	-200.000	0.004	-0.054
-357.596	800.000	0.025	0.095
-356.581	65.228	-0.055	-0.056
-355.566	149.635	-0.242	0.329
-354.552	44.184	0.101	0.092
-353.537	-200.000	-0.004	0.197
-352.523	-200.000	-0.032	-0.298
-351.508	-49.201	-0.240	0.115
-350.493	-17.960	0.305	0.192
-349.479	57.440	0.233	-0.229
-348.464	-53.863	0.133	0.061
-347.450	260.914	0.205	-0.356
-346.435	-36.143	-0.183	-0.099
-345.420	800.000	0.080	-0.235
-344.406	-129.745	0.191	-0.026
-343.391	2.005	-0.258	0.187
-342.377	665.644	-0.058	0.149
-341.362	9.335	0.258	0.196
-340.348	-30.893	-0.272	0.154
-339.333	67.093	-0.059	0.060
-338.318	-116.006	0.185	0.034
-337.304	123.956	0.324	-0.407
-336.289	-109.077	-0.366	0.078
-335.275	153.077	0.038	0.052
-334.260	40.567	0.144	0.130
-333.245	-67.241	-0.434	0.171
-332.231	-74.678	0.237	-0.085
-331.216	800.000	0.053	0.181
-330.202	121.128	0.121	0.151
-329.187	-55.926	0.054	-0.024
-328.172	58.510	0.197	0.193
-327.158	140.489	0.076	0.101
-326.143	777.265	-0.034	0.094
-325.129	556.251	0.171	-0.413
-324.114	800.000	-0.136	0.407
-323.099	-89.939	0.263	-0.077
-322.085	-200.000	-0.023	-0.237
-321.070	-200.000	-0.035	0.167
-320.056	-54.336	0.071	-0.032
-319.041	-179.483	-0.100	-0.002
-318.026	800.000	0.134	-0.425
-317.012	-80.171	0.228	0.076
-315.997	-64.877	-0.378	0.153
-314.983	-40.000	-0.189	-0.099
-313.968	37.434	0.077	-0.068
-312.953	-200.000	0.028	-0.207
-311.939	-157.947	-0.222	0.013
-310.924	99.031	-0.182	0.210
-309.910	345.685	-0.092	0.181
-308.895	-193.874	-0.367	-0.003
-307.880	133.313	0.016	-0.021
-306.866	-102.440	-0.125	0.030
-305.851	293.001	0.105	0.191
-304.837	-5.424	-0.038	-0.026
-303.822	185.857	-0.050	0.074
-302.807	-200.000	0.009	-0.191
-301.793	367.043	0.069	-0.139
-300.778	548.396	-0.042	-0.100
-299.764	135.276	0.046	-0.060
-298.749	-45.932	-0.487	0.241
-297.735	-151.065	0.308	0.023
-296.720	372.246	-0.114	0.232
-295.705	319.469	0.027	0.052
-294.691	-200.000	-0.013	-0.084
-293.676	-200.000	0.059	0.266
-292.662	-124.600	-0.156	-0.024
-291.647	62.615	0.278	-0.278
-290.632	286.862	0.047	0.085
-289.618	671.860	-0.067	-0.173
-288.603	-168.320	0.374	0.014
-287.589	-115.524	-0.307	-0.058
-286.574	179.089	-0.105	-0.153
-285.559	21.241	0.229	0.186
-284.545	-11.289	-0.156	-0.103
-283.530	800.000	0.008	-0.030
-282.516	-49.458	0.076	0.036
-281.501	58.941	0.082	0.081
-280.486	-124.453	0.368	0.057
-279.472	-85.766	0.225	0.070
-278.457	573.805	-0.068	0.165
-277.443	-138.325	-0.240	0.026
-276.428	-21.716	-0.192	-0.117
-275.413	160.575	0.174	0.242
-274.399	-200.000	-0.014	-0.351
-273.384	-52.181	-0.119	-0.055
-272.370	38.692	-0.408	0.364
-271.355	166.364	-0.029	0.040
-270.340	800.000	-0.039	-0.119
-269.326	-78.647	-0.195	-0.067
-268.311	-200.000	0.009	-0.058
-267.297	-200.000	-0.006	0.302
-266.282	328.972	0.079	0.153
-265.267	-123.095	0.178	-0.029
-264.253	-28.549	-0.144	0.083
-263.238	307.376	-0.076	0.141
-262.224	-200.000	0.036	0.204
-261.209	-200.000	-0.009	0.190
-260.195	-79.045	-0.255	-0.087
-259.180	-82.516	0.156	-0.051
-258.165	-86.103	-0.217	-0.067
-257.151	-26.686	0.342	0.200
-256.136	-18.107	-0.449	0.281
-255.122	-97.989	0.049	0.013
-254.107	587.335	0.090	0.222
-253.092	-93.935	0.136	0.037
-252.078	-200.000	-0.020	-0.123
-251.063	168.354	0.152	-0.216
-250.049	-81.861	0.137	0.045
-249.034	223.948	0.230	-0.370
-248.019	-89.740	0.041	0.012
-247.005	-33.496	0.138	-0.076
-245.990	98.491	0.096	-0.110
-244.976	-92.708	-0.281	-0.079
-243.961	19.394	0.020	-0.016
-242.946	-200.000	0.023	-0.127
-241.932	-200.000	-0.017	-0.086
-240.917	-144.418	0.138	0.013
-239.903	-168.633	0.208	0.008
-238.888	128.601	-0.209	-0.266
-237.873	-200.000	-0.020	0.230
-236.859	-83.022	0.129	0.041
-235.844	-76.674	0.111	0.039
-234.830	455.200	-0.150	0.331
-233.815	131.744	-0.198	0.254
-232.800	800.000	-0.054	-0.234
-231.786	57.618	0.076	-0.074
-230.771	-76.259	-0.149	-0.052
-229.757	342.517	-0.029	0.056
-228.742	-3.561	0.105	0.073
-227.727	-182.392	0.271	-0.005
-226.713	53.899	0.195	-0.187
-225.698	-83.479	0.217	0.069
-224.684	179.492	0.114	0.166
-223.669	800.000	0.101	0.334
-222.655	64.150	-0.157	-0.158
-221.640	731.631	0.096	0.256
-220.625	800.000	-0.083	0.252
-219.611	7.983	0.126	0.094
-218.596	-200.000	-0.042	-0.203
-217.582	-15.691	0.274	-0.174
-216.567	800.000	-0.077	0.282
-215.552	158.487	-0.055	-0.076
-214.538	636.733	0.068	0.173
-213.523	800.000	0.086	0.361
-212.509	800.000	0.045	-0.159
-211.494	540.376	0.038	0.090
-210.479	-152.418	0.377	0.027
-209.465	-200.000	0.003	0.230
-208.450	5.576	0.156	0.115
-207.436	-200.000	0.017	0.268
-206.421	-200.000	0.046	0.394
-205.406	-122.099	0.259	-0.042
-204.392	105.417	-0.073	0.087
-203.377	800.000	-0.036	0.127
-202.363	-190.829	0.248	-0.003
-201.348	18.580	0.118	0.094
-200.333	-7.269	-0.088	-0.060
-199.319	-118.386	-0.096	0.017
-198.304	-200.000	0.077	-0.429
-197.290	800.000	-0.024	0.086
-196.275	-115.019	-0.197	-0.037
-195.260	107.219	-0.074	0.087
-194.246	198.072	0.060	0.091
-193.231	-86.662	0.074	-0.023
-192.217	-104.785	-0.259	0.059
-191.202	295.009	0.058	0.106
-190.187	-38.672	-0.095	0.050
-189.173	-39.124	0.088	-0.046
-188.158	280.755	0.180	-0.320
-187.144	-46.845	0.226	0.110
-186.129	120.777	0.127	-0.158
-185.114	-130.734	-0.175	0.023
-184.100	-55.355	-0.259	0.116
-183.085	165.467	0.069	0.097
-182.071	800.000	0.074	0.206
-181.056	-23.844	-0.040	0.024
-180.042	-83.544	-0.218	-0.069
-179.027	-68.732	0.069	0.027
-178.012	17.566	-0.153	-0.121
-176.998	-200.000	0.003	-0.064
-175.983	-75.134	0.129	-0.046
-174.969	407.798	0.124	-0.261
-173.954	-200.000	0.007	-0.064
-172.939	-98.511	0.112	-0.028
-171.925	10.768	0.134	0.102
-170.910	-118.461	0.349	-0.062
-169.896	-27.548	-0.167	0.096
-168.881	-80.486	0.304	-0.101
-167.866	-138.949	-0.100	-0.011
-166.852	-200.000	0.016	0.248
-165.837	-136.965	-0.044	-0.005
-164.823	-200.000	0.030	0.176
-163.808	81.951	0.195	0.210
-162.793	-200.000	0.047	-0.256
-161.779	800.000	0.044	-0.141
-160.764	32.551	-0.058	0.050
-159.750	-104.259	0.298	0.069
-158.735	603.458	0.123	-0.304
-157.720	20.171	-0.173	0.139
-156.706	-121.031	0.331	0.055
-155.691	800.000	0.047	0.129
-154.677	-49.061	-0.153	-0.073
-153.662	-20.686	-0.077	-0.047
-152.647	-127.046	0.236	0.034
-151.633	128.602	0.168	0.213
-150.618	-157.424	-0.102	0.006
-149.604	416.904	0.098	0.209
-148.589	68.410	-0.152	-0.155
-147.574	4.981	0.264	-0.193
-146.560	107.630	-0.133	-0.157
-145.545	-57.515	-0.051	0.022
-144.531	209.843	0.098	0.153
-143.516	-120.433	0.161	0.027
-142.502	720.775	0.054	-0.142
-141.487	-67.592	0.219	0.085
-140.472	337.188	0.158	-0.306
-139.458	-200.000	0.025	-0.421
-138.443	-200.000	-0.013	0.330
-137.429	-100.629	0.288	0.071
-136.414	226.117	0.086	0.139
-135.399	272.258	-0.119	-0.208
-134.385	-114.520	0.139	0.027
-133.370	-200.000	0.015	0.177
-132.356	800.000	-0.022	-0.079
-131.341	-58.793	0.150	0.064
-130.326	-40.689	-0.038	-0.020
-129.312	60.064	0.119	-0.117
-128.297	-173.139	0.055	0.002
-127.283	206.941	-0.037	0.058
-126.268	9.350	0.078	0.058
-125.253	800.000	0.027	0.107
-124.239	-53.750	-0.058	0.026
-123.224	452.454	0.063	0.139
-122.210	-200.000	0.060	0.326
-121.195	-60.355	0.130	0.055
-120.180	636.552	-0.092	-0.232
-119.166	129.711	0.342	0.435
-118.151	-200.000	-0.010	-0.296
-117.137	269.533	0.066	-0.114
-116.122	-128.720	-0.120	0.017
-115.107	-158.700	0.319	-0.018
-114.093	67.202	0.216	0.218
-113.078	-200.000	0.017	0.281
-112.064	-36.561	-0.183	0.098
-111.049	-89.331	0.194	-0.057
-110.034	-37.460	0.138	-0.073
-109.020	-138.090	0.252	-0.028
-108.005	800.000	0.093	-0.335
-106.991	800.000	-0.092	-0.284
-105.976	433.075	0.117	0.252
-104.962	-153.137	-0.378	-0.026
-103.947	-200.000	-0.008	0.216
-102.932	160.988	0.072	0.100
-101.918	2.689	-0.127	0.092
-100.903	-141.667	0.534	-0.053
-99.889	-66.274	-0.101	0.040
-98.874	69.761	-0.190	0.194
-97.859	-24.064	-0.044	0.026
-96.845	79.315	-0.321	0.341
-95.830	-200.000	-0.021	0.164
-94.816	-63.812	-0.337	0.137
-93.801	-114.392	0.163	-0.031
-92.786	-16.543	-0.045	0.028
-91.772	-82.504	0.287	-0.092
-90.757	-200.000	-0.018	0.087
-89.743	157.111	0.109	0.150
-88.728	-136.807	-0.073	-0.008
-87.713	541.231	0.138	-0.327
-86.699	2.741	-0.109	-0.078
-85.684	-39.941	0.328	0.170
-84.670	152.413	-0.190	0.258
-83.655	-200.000	-0.004	-0.180
-82.640	289.238	0.033	-0.059
-81.626	83.671	-0.215	-0.233
-80.611	-36.271	-0.168	0.090
-79.597	-54.536	0.305	0.137
-78.582	92.476	0.141	0.157
-77.567	-3.413	0.120	0.083
-76.553	-92.904	0.120	-0.033
-75.538	800.000	0.053	-0.164
-74.524	101.850	-0.219	0.253
-73.509	-200.000	0.025	0.120
-72.494	123.322	0.092	-0.114
-71.480	-200.000	0.019	-0.160
-70.465	136.582	-0.155	-0.200
-69.451	-200.000	-0.063	0.313
-68.436	39.022	-0.304	0.270
-67.422	-97.588	0.074	0.019
-66.407	-73.112	0.339	0.123
-65.392	-148.161	-0.073	0.006
-64.378	-99.707	-0.146	0.036
-63.363	23.969	-0.017	0.014
-62.349	-44.675	-0.265	0.131
-61.334	-7.909	-0.917	-0.614
-60.319	197.705	0.364	0.551
-59.305	-200.000	-0.183	-1.015
-58.290	53.358	0.674	0.640
-57.276	-200.000	0.346	1.699
-56.261	-200.000	95.382	560.104
-55.246	632.085	1384.192	3474.794
-54.232	185.411	2606.733	3836.345
-53.217	122.686	2197.222	2723.999
-52.203	46.986	1647.243	1518.230
-51.188	38.579	1380.806	1220.506
-50.173	35.174	1337.982	1161.998
-49.159	55.467	1386.845	1330.235
-48.144	60.012	1404.516	1375.170
-47.130	38.876	1359.268	1203.097
-46.115	35.104	1341.378	1164.335
-45.100	35.033	1336.234	1159.397
-44.086	34.875	1334.211	1156.637
-43.071	34.782	1331.897	1154.022
-42.057	34.763	1329.590	1151.865
-41.042	34.757	1328.591	1150.917
-40.027	34.985	1325.990	1149.988
-39.013	35.009	1324.030	1148.390
-37.998	35.070	1321.872	1146.840
-36.984	34.963	1320.536	1144.991
-35.969	34.987	1318.914	1143.684
-34.954	35.055	1317.218	1142.572
-33.940	35.071	1315.617	1141.234
-32.925	35.102	1314.259	1140.198
-31.911	35.177	1312.911	1139.427
-30.896	35.169	1311.110	1137.769
-29.881	35.281	1309.538	1137.028
-28.867	35.177	1308.683	1135.623
-27.852	35.129	1307.355	1134.140
-26.838	35.131	1305.783	1132.745
-25.823	35.159	1304.764	1131.982
-24.809	35.087	1303.034	1130.010
-23.794	35.097	1301.263	1128.487
-22.779	35.147	1299.936	1127.588
-21.765	35.050	1299.352	1126.467
-20.750	35.023	1297.992	1125.083
-19.736	34.996	1296.515	1123.599
-18.721	34.980	1295.045	1122.189
-17.706	35.007	1293.666	1121.104
-16.692	34.978	1292.736	1120.086
-15.677	34.932	1291.883	1119.034
-14.663	34.960	1290.513	1117.963
-13.648	35.043	1289.109	1117.187
-12.633	35.016	1288.314	1116.297
-11.619	34.966	1287.708	1115.435
-10.604	34.925	1286.522	1114.126
-9.590	34.932	1285.745	1113.450
-8.575	34.896	1284.750	1112.335
-7.560	34.916	1284.315	1112.030
-6.546	34.970	1283.087	1111.238
-5.531	34.892	1282.328	1110.083
-4.517	34.931	1281.027	1109.139
-3.502	34.835	1280.530	1108.105
-2.487	34.924	1279.697	1107.861
-1.473	35.000	1275.437	1104.567
-0.458	33.595	1259.623	1082.813
0.556	31.643	1240.052	1039.392
1.571	27.209	1243.675	1017.584
2.586	25.621	1257.540	1019.842
3.600	23.808	1245.037	999.432
4.615	17.902	1171.424	908.907
5.629	9.169	1094.352	805.415
6.644	5.020	1073.385	769.474
7.659	4.548	1070.615	765.099
8.673	4.327	1069.598	763.217
9.688	4.387	1067.974	762.286
10.702	5.067	1066.548	764.532
11.717	10.815	1075.247	799.032
12.731	19.198	1087.597	849.667
13.746	22.448	1090.155	867.629
14.761	21.955	1089.381	864.507
15.775	21.064	1087.467	858.529
16.790	19.966	1085.498	851.505
17.804	19.341	1083.889	847.095
18.819	18.946	1083.166	844.516
19.834	18.907	1082.435	843.679
20.848	18.766	1081.485	842.175
21.863	18.664	1080.844	841.101
22.877	18.492	1079.632	839.242
23.892	18.405	1079.430	838.584
24.907	18.475	1078.448	838.088
25.921	18.425	1077.171	836.778
26.936	18.431	1075.936	835.774
27.950	18.563	1074.309	835.079
28.965	18.590	1073.159	834.245
29.980	18.716	1072.110	833.968
30.994	18.833	1071.016	833.608
32.009	18.891	1070.021	833.044
33.023	18.806	1068.535	831.402
34.038	18.698	1067.450	829.960
35.053	18.536	1066.434	828.314
36.067	18.620	1065.440	827.876
37.082	18.597	1064.926	827.292
38.096	18.751	1064.205	827.401
39.111	18.718	1063.795	826.848
40.126	18.553	1061.919	824.522
41.140	18.299	1060.735	822.313
42.155	18.215	1059.497	820.877
43.169	18.160	1058.149	819.496
44.184	18.128	1056.894	818.298
45.199	18.072	1056.307	817.504
46.213	18.338	1055.260	817.890
47.228	18.655	1054.315	818.600
48.242	18.634	1053.477	817.775
49.257	18.515	1053.053	816.807
50.271	18.621	1052.129	816.525
51.286	18.656	1051.090	815.812
52.301	18.696	1050.162	815.207
53.315	18.455	1048.848	812.975
54.330	18.433	1047.884	812.051
55.344	18.245	1047.343	810.670
56.359	18.334	1046.442	810.321
57.374	18.202	1045.833	809.154
58.388	18.211	1044.280	807.924
59.403	18.046	1044.156	806.978
60.417	18.006	1043.149	805.936
61.432	18.067	1042.077	805.327
62.447	17.995	1041.291	804.310
63.461	17.955	1040.463	803.409
64.476	18.015	1039.258	802.690
65.490	17.923	1038.457	801.565
66.505	17.992	1037.849	801.353
67.520	18.090	1037.086	801.151
68.534	18.050	1036.122	800.149
69.549	18.000	1035.885	799.658
70.563	17.858	1034.996	798.236
71.578	17.773	1033.742	796.805
72.593	17.767	1032.979	796.115
73.607	17.802	1032.439	795.792
74.622	17.744	1032.230	795.293
75.636	17.871	1031.161	794.991
76.651	17.822	1030.634	794.286
77.666	17.922	1029.949	794.153
78.680	17.798	1029.378	793.067
79.695	17.988	1028.497	793.197
80.709	17.964	1028.291	792.857
81.724	18.142	1027.584	793.069
82.739	18.222	1026.829	792.788
83.753	18.513	1026.201	793.579
84.768	18.753	1025.693	794.226
85.782	18.857	1024.860	793.989
86.797	18.804	1023.757	792.821
87.812	18.582	1022.932	791.087
88.826	18.728	1021.856	790.860
89.841	18.725	1020.915	790.045
90.855	18.853	1019.974	789.838
91.870	18.865	1019.315	789.310
92.884	18.864	1018.204	788.379
93.899	18.893	1017.468	787.872
94.914	18.908	1016.593	787.193
95.928	18.729	1016.406	786.158
96.943	18.636	1015.191	784.723
97.957	18.657	1014.166	783.957
98.972	18.573	1013.742	783.176
99.987	18.741	1012.259	782.727
101.001	18.746	1011.340	781.972
102.016	18.669	1010.727	781.075
103.030	18.798	1009.753	780.842
104.045	18.712	1009.138	779.908
105.060	18.656	1007.867	778.603
106.074	18.227	1006.924	775.861
107.089	18.144	1005.569	774.369
108.103	18.118	1004.607	773.441
109.118	18.017	1003.303	771.916
110.133	18.021	1002.979	771.615
111.147	18.053	1001.804	770.788
112.162	17.995	1001.324	770.089
113.176	18.352	1000.302	770.840
114.191	18.314	999.443	769.939
115.206	18.200	999.036	769.045
116.220	18.185	998.175	768.249
117.235	18.225	997.049	767.494
118.249	18.082	996.308	766.212
119.264	18.026	995.395	765.194
120.279	17.963	994.711	764.316
121.293	17.909	994.013	763.472
122.308	17.804	993.018	762.174
123.322	17.918	991.297	761.294
124.337	17.928	990.439	760.610
125.352	17.892	989.192	759.423
126.366	17.881	988.255	758.591
127.381	17.838	987.567	757.803
128.395	17.851	986.841	757.236
129.410	17.931	985.915	756.814
130.424	18.162	985.230	757.245
131.439	18.236	984.641	757.049
132.454	18.197	983.791	756.158
133.468	18.267	983.012	755.801
134.483	18.166	982.444	754.854
135.497	18.352	981.286	754.715
136.512	18.376	980.511	754.160
137.527	18.298	979.514	752.983
138.541	18.284	979.028	752.481
139.556	18.419	978.431	752.547
140.570	18.553	978.046	752.773
141.585	18.700	977.269	752.755
142.600	18.823	975.861	752.142
143.614	18.882	975.195	751.818
144.629	18.827	974.971	751.341
145.643	18.724	973.765	749.895
146.658	18.545	972.265	747.890
147.673	18.470	971.345	746.791
148.687	18.411	970.229	745.611
149.702	18.262	969.397	744.257
150.716	18.217	968.556	743.348
151.731	18.474	967.630	743.689
152.746	18.272	967.483	742.633
153.760	18.524	966.417	742.843
154.775	18.538	965.955	742.483
155.789	18.602	965.217	742.124
156.804	18.629	964.502	741.625
157.819	18.661	964.127	741.412
158.833	18.676	964.135	741.416
159.848	18.886	962.622	741.091
160.862	18.746	961.687	739.703
161.877	18.511	960.314	737.574
162.892	18.346	959.202	735.942
163.906	18.311	958.207	734.964
164.921	18.380	957.288	734.491
165.935	18.418	956.238	733.783
166.950	18.481	955.944	733.760
167.964	18.472	954.909	732.864
168.979	18.335	954.194	731.664
169.994	18.411	953.053	731.051
171.008	18.544	952.421	731.066
172.023	18.625	951.868	730.923
173.037	18.751	951.286	730.950
174.052	18.778	950.370	730.296
175.067	18.388	949.799	728.133
176.081	18.347	948.674	727.034
177.096	18.452	948.105	726.977
178.110	18.487	947.506	726.601
179.125	18.391	947.622	726.219
180.140	18.497	946.370	725.646
181.154	18.811	946.128	726.724
182.169	18.827	946.247	726.818
183.183	18.929	945.108	726.310
184.198	18.833	944.369	725.274
185.213	18.843	943.709	724.744
186.227	18.824	943.234	724.235
187.242	19.019	942.493	724.426
188.256	19.200	942.030	724.764
189.271	19.025	941.597	723.632
190.286	18.587	940.717	721.050
191.300	18.279	939.277	718.589
192.315	18.302	938.478	718.013
193.329	18.234	938.163	717.423
194.344	18.376	937.850	717.714
195.359	18.678	937.037	718.294
196.373	18.813	936.295	718.227
197.388	18.855	936.411	718.429
198.402	19.068	935.755	718.751
199.417	19.120	935.242	718.509
200.432	19.250	934.589	718.484
201.446	19.335	934.353	718.594
202.461	19.398	933.996	718.518
203.475	19.338	933.185	717.584
204.490	19.004	932.182	715.357
205.504	18.973	931.196	714.408
206.519	18.869	930.322	713.244
207.534	18.942	929.774	713.063
208.548	18.959	928.917	712.412
209.563	19.061	928.251	712.261
210.577	19.134	927.223	711.713
211.592	19.235	927.466	712.254
212.607	19.326	926.776	712.035
213.621	19.317	925.334	710.828
214.636	19.101	925.124	709.712
215.650	19.312	924.166	709.786
216.665	19.367	923.846	709.701
217.680	19.425	923.201	709.385
218.694	19.390	922.655	708.756
219.709	19.319	921.768	707.722
220.723	19.371	921.089	707.349
221.738	19.280	920.306	706.316
222.753	19.268	919.678	705.719
223.767	19.331	919.989	706.156
224.782	19.436	919.156	705.883
225.796	19.591	918.131	705.668
226.811	19.458	917.401	704.501
227.826	19.333	916.595	703.310
228.840	19.274	915.458	702.132
229.855	19.247	915.176	701.744
230.869	19.262	913.801	700.690
231.884	19.335	913.213	700.473
232.899	19.161	913.008	699.547
233.913	19.144	912.006	698.648
234.928	19.144	911.147	697.930
235.942	19.003	910.866	697.079
236.957	19.080	910.274	696.877
237.972	19.006	909.741	696.109
238.986	19.153	908.685	695.832
240.001	19.256	908.004	695.664
241.015	19.217	907.788	695.281
242.030	19.223	907.385	694.935
243.045	19.256	907.176	694.845
244.059	19.362	906.365	694.592
245.074	19.536	905.807	694.801
246.088	19.558	905.102	694.290
247.103	19.618	904.453	693.971
248.117	19.720	904.370	694.254
249.132	19.982	904.146	695.074
250.147	20.101	903.633	695.096
251.161	20.086	903.059	694.531
252.176	20.024	902.549	693.830
253.190	20.272	901.614	694.043
254.205	20.413	900.566	693.737
255.220	20.322	900.093	692.948
256.234	20.055	899.684	691.505
257.249	20.149	898.783	691.127
258.263	20.141	898.092	690.505
259.278	20.260	897.533	690.484
260.293	20.155	897.178	689.736
261.307	20.363	896.061	689.642
262.322	20.441	895.366	689.355
263.336	20.336	894.727	688.386
264.351	20.326	894.337	687.983
265.366	20.399	893.758	687.766
266.380	20.378	892.784	686.874
267.395	20.282	892.055	685.871
268.409	20.126	891.126	684.481
269.424	20.286	890.367	684.469
270.439	20.103	889.782	683.237
271.453	20.070	889.442	682.784
272.468	20.222	888.408	682.530
273.482	20.018	888.271	681.561
274.497	20.148	887.438	681.373
275.512	20.100	886.889	680.703
276.526	20.134	886.687	680.621
277.541	20.232	886.161	680.542
278.555	20.341	885.688	680.544
279.570	20.569	884.871	680.749
280.585	20.419	884.384	679.729
281.599	20.270	883.222	678.193
282.614	20.205	882.535	677.351
283.628	20.155	882.160	676.807
284.643	20.142	881.657	676.312
285.657	20.342	880.792	676.367
286.672	20.318	880.443	675.949
287.687	20.261	879.661	675.064
288.701	20.076	879.578	674.222
289.716	20.185	878.516	673.770
290.730	20.304	877.934	673.728
291.745	20.313	877.346	673.252
292.760	20.415	876.847	673.206
293.774	20.704	876.135	673.718
294.789	20.538	875.573	672.585
295.803	20.364	874.489	671.017
296.818	20.312	873.947	670.341
297.833	20.322	873.206	669.752
298.847	20.448	872.307	669.491
299.862	20.371	872.418	669.218
300.876	20.491	871.862	669.197
301.891	20.573	871.125	668.888
302.906	20.726	870.962	669.291
303.920	21.005	870.217	669.730
304.935	20.747	870.552	668.937
305.949	20.831	868.823	667.873
306.964	20.618	868.415	666.681
307.979	20.706	867.910	666.572
308.993	20.853	867.056	666.421
310.008	21.006	866.920	666.841
311.022	20.726	865.975	664.986
312.037	20.569	865.471	663.941
313.052	20.534	864.789	663.228
314.066	20.370	864.583	662.384
315.081	20.492	863.309	661.814
316.095	20.520	862.656	661.360
317.110	20.412	862.179	660.526
318.125	20.360	861.544	659.785
319.139	20.252	861.571	659.335
320.154	20.286	861.325	659.219
321.168	20.537	860.635	659.582
322.183	20.478	859.513	658.445
323.197	20.548	859.524	658.659
324.212	20.602	858.823	658.267
325.227	20.582	857.965	657.476
326.241	20.496	857.526	656.757
327.256	20.455	857.205	656.298
328.270	20.406	856.242	655.317
329.285	20.482	855.568	655.028
330.300	20.688	854.948	655.273
331.314	20.596	854.811	654.765
332.329	20.872	854.302	655.354
333.343	20.886	853.979	655.100
334.358	20.894	853.576	654.764
335.373	20.848	853.277	654.305
336.387	21.014	852.575	654.330
337.402	20.977	852.840	654.338
338.416	21.208	852.109	654.584
339.431	21.169	852.014	654.307
340.446	21.208	851.691	654.149
341.460	21.338	851.356	654.318
342.475	21.443	850.857	654.270
343.489	21.431	850.403	653.817
344.504	21.360	850.110	653.268
345.519	21.566	849.604	653.592
346.533	21.411	848.796	652.336
347.548	21.138	848.016	650.660
348.562	21.023	847.529	649.800
349.577	20.951	846.515	648.697
350.592	20.881	846.167	648.112
351.606	20.841	845.367	647.295
352.621	20.906	844.674	646.946
353.635	20.914	844.182	646.543
354.650	20.937	843.893	646.350
355.665	21.152	842.802	646.254
356.679	21.248	842.369	646.221
357.694	21.193	842.011	645.683
358.708	21.285	840.951	645.153
359.723	21.306	840.766	645.031
360.738	21.236	840.031	644.154
361.752	21.356	839.434	644.081
362.767	21.418	839.387	644.215
363.781	21.494	838.478	643.741
364.796	21.730	838.379	644.476
365.810	21.763	837.878	644.156
366.825	21.842	837.443	644.054
367.840	21.759	836.982	643.336
368.854	21.603	836.417	642.274
369.869	21.671	835.701	641.917
370.883	21.561	835.389	641.217
371.898	21.591	835.313	641.213
372.913	21.624	834.825	640.904
373.927	21.662	834.049	640.389
374.942	21.811	833.498	640.455
375.956	21.697	833.878	640.273
376.971	21.737	833.509	640.076
377.986	22.017	832.628	640.367
379.000	22.040	832.008	639.917
380.015	21.792	831.465	638.540
381.029	21.961	830.704	638.513
382.044	21.832	830.221	637.616
383.059	21.977	829.550	637.572
384.073	21.793	829.028	636.444
385.088	21.668	828.199	635.301
386.102	21.535	827.640	634.331
387.117	21.706	826.819	634.266
388.132	21.696	826.271	633.753
389.146	21.521	826.219	633.024
390.161	21.920	825.477	633.843
391.175	21.833	825.037	633.133
392.190	21.745	824.312	632.204
393.205	21.611	823.909	631.356
394.219	21.591	823.606	630.994
395.234	21.651	823.123	630.787
396.248	21.623	822.794	630.378
397.263	21.519	822.159	629.460
398.278	21.322	822.302	628.806
399.292	21.506	821.093	628.485
400.307	21.515	820.685	628.151
401.321	21.666	819.886	628.023
402.336	21.602	819.964	627.800
403.350	21.753	819.550	627.967
404.365	21.852	819.481	628.213
405.380	22.101	818.832	628.553
406.394	22.087	818.280	628.025
407.409	22.209	817.937	628.141
408.423	22.149	817.782	627.751
409.438	22.261	817.509	627.886
410.453	22.277	816.996	627.492
411.467	22.337	816.347	627.155
412.482	22.392	816.132	627.128
413.496	22.523	816.042	627.471
414.511	22.453	815.329	626.617
415.526	22.275	815.133	625.778
416.540	22.406	814.367	625.599
417.555	22.355	813.901	625.007
418.569	22.384	813.197	624.513
419.584	22.344	813.027	624.184
420.599	22.458	812.516	624.142
421.613	158.940	1370.363	1788.637
422.628	138.345	1451.662	1788.757
