DTS Sentinel unit serial number:	SN413079Multiplexer serial number:	ORYXHardware model number:	OX4-SRSoftware version number:	ORYX F/W v4.00 Oryx Data Collector v3.7.2.0data status	okinstallation	princeton_trtdifferential loss correction	single-endedforward channel	channel 1reverse channel	N/Adate	2019/09/18time	21:22:35forward acquisition time	60.00reverse acquisition time	0.00gamma	496.2192k internal	0.2341k external	0.2341temperature offset calibration	1.0023default loss term (dB/km)	0.3790temperature slope calibration	1.0000multiplexer offset coefficient	1.0000multiplexer slope coefficient	1.0000fibre end	0.00T internal ref (°C)	25.56T ext. ref 1 (°C)	0.83T ext. ref 2 (°C)	18.17length (m)	temperature (°C)	Stokes	anti-Stokes-747.200	-132.896	0.285	-0.036
-746.185	-42.947	0.111	-0.057
-745.171	-34.070	-0.074	-0.041
-744.156	57.571	-0.062	0.061
-743.142	-200.000	0.011	-0.137
-742.127	1.642	0.047	-0.034
-741.112	-3.096	0.206	0.144
-740.098	-32.362	-0.517	0.289
-739.083	-200.000	-0.013	-0.093
-738.069	-113.956	-0.112	0.022
-737.054	-135.230	-0.089	0.011
-736.039	-144.706	-0.240	-0.022
-735.025	-94.354	0.387	0.106
-734.010	48.693	-0.183	-0.172
-732.996	800.000	0.069	-0.199
-731.981	-153.975	-0.201	-0.014
-730.966	800.000	0.048	0.155
-729.952	-113.444	0.128	-0.025
-728.937	57.791	-0.309	-0.302
-727.923	800.000	0.100	-0.397
-726.908	-91.596	-0.053	0.015
-725.894	113.427	-0.162	-0.197
-724.879	-200.000	0.022	-0.104
-723.864	-112.388	-0.092	0.018
-722.850	73.633	0.131	-0.138
-721.835	-94.024	-0.154	0.042
-720.821	800.000	0.058	-0.209
-719.806	78.423	-0.063	0.067
-718.791	38.456	-0.054	0.048
-717.777	19.600	0.192	0.155
-716.762	-200.000	-0.074	0.377
-715.748	800.000	-0.155	0.523
-714.733	800.000	-0.090	-0.340
-713.718	-153.312	0.224	-0.016
-712.704	-33.322	-0.160	0.089
-711.689	-200.000	-0.033	0.197
-710.675	31.015	0.245	0.210
-709.660	-200.000	-0.008	-0.173
-708.645	192.124	-0.044	-0.066
-707.631	-200.000	-0.004	0.143
-706.616	688.903	0.081	0.213
-705.602	-23.815	0.164	-0.099
-704.587	121.059	0.194	-0.241
-703.572	34.645	0.051	0.044
-702.558	48.183	0.078	0.073
-701.543	-82.444	0.286	-0.093
-700.529	-200.000	-0.039	-0.408
-699.514	-69.681	0.331	0.127
-698.499	-71.674	-0.114	-0.042
-697.485	-140.869	-0.202	-0.021
-696.470	-200.000	0.008	0.091
-695.456	-3.975	0.212	-0.147
-694.441	66.127	-0.185	-0.188
-693.426	171.700	-0.053	0.076
-692.412	52.548	0.184	-0.175
-691.397	133.689	-0.141	0.183
-690.383	-33.115	0.088	-0.049
-689.368	47.411	-0.379	-0.353
-688.354	271.026	-0.139	-0.246
-687.339	-200.000	-0.008	-0.249
-686.324	35.777	-0.122	-0.107
-685.310	291.715	-0.174	0.316
-684.295	-200.000	-0.022	-0.224
-683.281	471.045	-0.066	0.148
-682.266	800.000	-0.041	-0.159
-681.251	582.446	-0.090	-0.222
-680.237	-77.738	0.343	-0.119
-679.222	-0.101	0.161	0.115
-678.208	137.432	0.236	0.308
-677.193	-165.995	-0.140	-0.006
-676.178	126.898	0.063	0.080
-675.164	-60.302	-0.211	-0.090
-674.149	-87.141	-0.253	0.077
-673.135	160.771	-0.107	-0.149
-672.120	7.797	0.107	-0.080
-671.105	46.881	-0.081	-0.075
-670.091	-23.600	0.040	0.024
-669.076	-200.000	-0.002	-0.039
-668.062	-200.000	-0.046	0.000
-667.047	-188.758	-0.226	0.003
-666.032	717.379	-0.121	-0.321
-665.018	493.732	-0.080	-0.184
-664.003	407.282	0.101	-0.213
-662.989	-38.687	0.152	-0.080
-661.974	-200.000	0.035	-0.237
-660.959	800.000	-0.103	-0.436
-659.945	767.241	0.036	0.099
-658.930	266.903	-0.150	-0.261
-657.916	-67.780	0.066	0.026
-656.901	800.000	0.076	0.221
-655.886	550.694	-0.111	0.265
-654.872	800.000	-0.032	-0.121
-653.857	800.000	0.082	-0.244
-652.843	242.542	-0.116	0.194
-651.828	27.574	0.136	-0.114
-650.814	100.178	0.142	-0.165
-649.799	-114.731	0.208	-0.040
-648.784	-86.074	0.126	0.039
-647.770	-200.000	-0.051	-0.335
-646.755	538.940	-0.096	0.229
-645.741	799.678	0.085	-0.233
-644.726	-50.731	0.219	-0.103
-643.711	-143.097	-0.171	0.016
-642.697	500.022	0.137	0.316
-641.682	-84.518	-0.243	-0.077
-640.668	-3.825	0.135	-0.094
-639.653	-200.000	-0.015	-0.287
-638.638	-115.997	-0.215	-0.040
-637.624	49.056	0.277	0.259
-636.609	-110.239	0.120	-0.025
-635.595	-123.459	-0.192	-0.031
-634.580	85.972	0.113	-0.124
-633.565	-81.912	0.086	0.028
-632.551	254.889	0.132	0.225
-631.536	-147.293	0.255	0.022
-630.522	-200.000	-0.032	-0.158
-629.507	275.696	0.149	-0.263
-628.492	-90.906	0.197	0.056
-627.478	-96.457	0.256	-0.067
-626.463	-39.663	0.383	-0.200
-625.449	-117.433	-0.259	-0.047
-624.434	421.070	-0.030	-0.064
-623.419	681.015	-0.052	0.135
-622.405	295.511	0.165	-0.302
-621.390	800.000	0.033	0.100
-620.376	-77.948	-0.157	0.054
-619.361	800.000	0.137	-0.580
-618.346	-200.000	-0.010	0.157
-617.332	346.802	-0.053	-0.103
-616.317	-48.281	0.140	-0.067
-615.303	-50.051	-0.008	-0.004
-614.288	-200.000	0.010	0.256
-613.273	-120.901	-0.239	0.040
-612.259	641.662	0.031	-0.077
-611.244	53.008	0.216	0.206
-610.230	417.794	-0.127	-0.272
-609.215	-200.000	0.010	0.165
-608.201	447.900	-0.104	-0.229
-607.186	-52.777	-0.186	0.085
-606.171	800.000	0.036	0.101
-605.157	373.516	-0.132	0.268
-604.142	-185.717	-0.182	-0.003
-603.128	-200.000	-0.063	0.400
-602.113	33.510	-0.166	0.144
-601.098	-200.000	0.034	0.245
-600.084	148.200	-0.107	0.144
-599.069	-133.825	-0.341	0.042
-598.055	634.754	-0.123	0.311
-597.040	800.000	-0.053	0.190
-596.025	-137.705	-0.097	-0.011
-595.011	100.662	0.075	0.087
-593.996	-200.000	0.129	-0.683
-592.982	-200.000	0.020	-0.241
-591.967	-200.000	-0.030	-0.351
-590.952	18.952	0.225	-0.180
-589.938	754.266	0.069	0.186
-588.923	-200.000	0.016	0.079
-587.909	-200.000	-0.008	0.067
-586.894	-113.793	0.103	-0.020
-585.879	800.000	0.013	0.046
-584.865	119.944	-0.066	-0.081
-583.850	-85.850	0.282	-0.087
-582.836	136.182	-0.106	-0.138
-581.821	-85.251	0.399	-0.124
-580.806	-36.176	0.257	0.138
-579.792	800.000	-0.062	0.227
-578.777	102.810	0.067	0.078
-577.763	480.665	0.112	-0.254
-576.748	54.852	-0.198	-0.190
-575.733	-65.995	-0.216	-0.086
-574.719	-200.000	0.025	-0.397
-573.704	221.313	0.104	-0.166
-572.690	103.567	0.175	-0.204
-571.675	-200.000	-0.017	-0.265
-570.661	128.199	0.231	0.293
-569.646	-200.000	-0.028	0.309
-568.631	232.770	0.067	0.109
-567.617	71.529	-0.195	-0.201
-566.602	-200.000	-0.008	-0.061
-565.588	11.312	0.147	-0.112
-564.573	-200.000	-0.009	0.337
-563.558	-108.623	-0.061	0.013
-562.544	-13.947	0.422	0.271
-561.529	-43.497	0.123	-0.062
-560.515	290.603	0.092	0.167
-559.500	130.603	-0.211	0.269
-558.485	-200.000	-0.019	0.168
-557.471	-121.317	-0.156	0.026
-556.456	-200.000	0.060	-0.329
-555.442	69.209	0.062	-0.064
-554.427	-136.425	-0.127	0.015
-553.412	-150.162	0.308	-0.024
-552.398	22.428	-0.399	-0.324
-551.383	165.935	-0.196	0.275
-550.369	244.519	0.171	0.285
-549.354	800.000	-0.064	-0.237
-548.339	235.244	-0.223	-0.366
-547.325	-200.000	0.048	-0.376
-546.310	34.553	0.134	0.117
-545.296	678.373	-0.156	-0.402
-544.281	-60.716	-0.140	0.059
-543.266	-58.261	0.223	0.097
-542.252	113.566	0.215	0.260
-541.237	800.000	-0.090	0.312
-540.223	158.003	-0.115	0.158
-539.208	-8.843	-0.113	0.075
-538.193	101.062	0.078	-0.090
-537.179	250.820	-0.062	0.104
-536.164	207.817	-0.126	-0.195
-535.150	-67.524	0.080	0.031
-534.135	800.000	0.147	-0.434
-533.121	-57.635	-0.197	0.086
-532.106	-101.266	0.452	0.110
-531.091	370.071	0.216	0.434
-530.077	287.512	0.054	-0.098
-529.062	800.000	-0.050	-0.203
-528.048	-94.133	0.074	-0.020
-527.033	800.000	-0.071	0.217
-526.018	-200.000	0.013	0.067
-525.004	-200.000	-0.014	-0.146
-523.989	78.017	0.053	-0.056
-522.975	-200.000	0.010	0.068
-521.960	-0.394	0.183	-0.129
-520.945	-200.000	-0.010	-0.161
-519.931	-15.680	0.227	-0.144
-518.916	-47.438	0.031	-0.015
-517.902	332.145	0.130	-0.249
-516.887	-49.644	-0.275	-0.130
-515.872	-115.498	-0.170	-0.032
-514.858	26.262	-0.118	-0.098
-513.843	85.788	-0.178	0.195
-512.829	-200.000	0.010	0.176
-511.814	-44.614	-0.117	-0.058
-510.799	800.000	-0.130	0.469
-509.785	189.869	-0.252	-0.375
-508.770	134.319	0.167	0.215
-507.756	199.553	0.132	0.201
-506.741	800.000	0.051	-0.214
-505.726	590.214	0.029	0.071
-504.712	-175.860	-0.181	-0.005
-503.697	-56.681	-0.113	-0.050
-502.683	800.000	0.052	0.192
-501.668	-200.000	0.008	0.128
-500.653	-137.021	0.203	-0.023
-499.639	-80.571	0.413	-0.137
-498.624	495.897	0.120	-0.274
-497.610	-200.000	-0.025	-0.124
-496.595	26.409	0.195	-0.162
-495.581	-200.000	-0.009	0.062
-494.566	-200.000	0.000	0.002
-493.551	61.144	-0.154	-0.152
-492.537	800.000	-0.062	-0.203
-491.522	-93.503	0.356	-0.098
-490.508	29.591	0.235	-0.199
-489.493	41.290	-0.130	0.117
-488.478	22.432	0.189	0.154
-487.464	-200.000	-0.063	-0.279
-486.449	-26.460	0.251	0.146
-485.435	-114.531	0.112	-0.021
-484.420	-16.613	-0.350	-0.220
-483.405	-78.321	0.192	-0.065
-482.391	9.372	-0.456	-0.342
-481.376	-75.021	-0.120	-0.043
-480.362	49.854	-0.100	0.093
-479.347	320.359	0.156	-0.294
-478.332	216.693	0.142	-0.225
-477.318	72.542	-0.072	0.075
-476.303	-174.703	-0.257	0.007
-475.289	9.927	0.175	0.131
-474.274	800.000	-0.063	-0.218
-473.259	-200.000	0.022	0.238
-472.245	374.532	0.255	0.516
-471.230	-61.103	0.169	0.071
-470.216	-147.297	-0.377	-0.032
-469.201	325.760	0.126	-0.239
-468.186	-188.245	0.122	-0.002
-467.172	88.877	-0.121	-0.133
-466.157	-145.941	-0.068	-0.006
-465.143	81.911	0.079	-0.085
-464.128	-200.000	-0.188	-0.001
-463.113	-33.464	-0.026	-0.014
-462.099	-176.047	0.376	-0.010
-461.084	-200.000	0.019	-0.138
-460.070	-200.000	0.073	-0.389
-459.055	-175.289	-0.125	0.003
-458.040	411.503	0.077	-0.163
-457.026	-144.055	0.191	0.018
-456.011	0.152	-0.175	-0.124
-454.997	17.661	-0.111	0.087
-453.982	180.495	0.191	-0.278
-452.968	-200.000	-0.043	-0.300
-451.953	-64.447	-0.072	0.029
-450.938	-200.000	-0.015	0.152
-449.924	74.600	0.133	-0.139
-448.909	800.000	0.021	-0.089
-447.895	122.450	-0.097	0.120
-446.880	702.984	-0.033	0.085
-445.865	109.338	-0.174	0.207
-444.851	-42.995	-0.208	-0.104
-443.836	237.905	0.153	0.251
-442.822	-149.190	-0.079	-0.006
-441.807	-78.306	0.242	0.082
-440.792	-69.779	0.181	-0.069
-439.778	430.610	0.079	0.169
-438.763	148.687	0.099	0.133
-437.749	152.700	0.031	0.041
-436.734	800.000	0.081	-0.250
-435.719	18.670	0.158	0.125
-434.705	-164.824	-0.344	-0.015
-433.690	-3.839	0.088	-0.061
-432.676	800.000	0.021	-0.059
-431.661	-200.000	0.035	-0.324
-430.646	-173.779	0.211	0.006
-429.632	41.120	-0.188	-0.168
-428.617	16.996	-0.070	0.055
-427.603	-200.000	0.025	-0.200
-426.588	622.259	0.121	-0.303
-425.573	-200.000	0.031	-0.240
-424.559	-16.246	0.209	-0.131
-423.544	154.259	-0.150	-0.204
-422.530	-200.000	0.001	0.025
-421.515	-87.158	0.344	-0.103
-420.500	-90.035	0.106	-0.031
-419.486	-119.207	0.282	0.049
-418.471	-71.361	0.104	0.039
-417.457	800.000	-0.138	0.388
-416.442	-103.259	-0.412	-0.096
-415.428	326.193	-0.129	-0.245
-414.413	-7.538	0.166	-0.111
-413.398	-176.778	0.144	-0.004
-412.384	476.488	-0.080	-0.180
-411.369	183.249	-0.126	0.183
-410.355	-18.705	-0.315	-0.194
-409.340	-86.697	0.051	0.016
-408.325	-53.596	0.254	-0.115
-407.311	-10.030	0.172	-0.113
-406.296	686.285	0.107	-0.276
-405.282	800.000	-0.056	0.181
-404.267	-16.978	-0.180	0.113
-403.252	47.309	-0.141	-0.130
-402.238	162.065	0.140	0.194
-401.223	-93.124	0.137	0.038
-400.209	-16.593	0.249	0.156
-399.194	718.080	0.132	0.346
-398.179	-196.140	-0.321	0.002
-397.165	-112.327	0.154	0.031
-396.150	261.931	-0.150	0.258
-395.136	-200.000	-0.013	-0.257
-394.121	800.000	0.062	0.246
-393.106	-93.444	0.053	0.014
-392.092	-137.810	-0.303	0.034
-391.077	-127.930	0.062	-0.009
-390.063	-82.649	0.146	0.047
-389.048	-107.682	-0.206	0.044
-388.033	-31.933	-0.317	0.175
-387.019	69.653	-0.408	-0.415
-386.004	255.638	0.103	0.174
-384.990	-200.000	0.007	-0.289
-383.975	-65.904	-0.237	-0.093
-382.960	174.223	0.145	0.207
-381.946	-42.595	-0.378	-0.190
-380.931	54.460	0.167	0.159
-379.917	-129.553	0.301	-0.041
-378.902	-200.000	0.011	-0.321
-377.888	-134.167	0.079	0.010
-376.873	-200.000	-0.023	0.103
-375.858	-156.437	0.089	0.005
-374.844	800.000	0.021	0.068
-373.829	-200.000	-0.018	-0.119
-372.815	-128.896	0.214	-0.030
-371.800	350.958	0.082	-0.161
-370.785	-89.843	0.167	0.048
-369.771	221.065	0.144	0.228
-368.756	-76.483	0.221	0.077
-367.742	-200.000	0.041	0.456
-366.727	535.456	-0.127	0.296
-365.712	435.559	-0.094	0.201
-364.698	-200.000	-0.003	0.105
-363.683	-200.000	-0.006	-0.082
-362.669	-200.000	-0.049	0.262
-361.654	-81.299	-0.126	0.041
-360.639	-200.000	-0.017	0.152
-359.625	-41.060	-0.060	-0.030
-358.610	800.000	-0.009	-0.032
-357.596	-137.718	-0.068	0.008
-356.581	-74.799	-0.373	-0.132
-355.566	83.423	0.205	0.220
-354.552	491.503	0.079	-0.178
-353.537	108.110	0.172	-0.203
-352.523	133.359	-0.207	-0.264
-351.508	404.892	0.075	0.156
-350.493	800.000	-0.095	0.360
-349.479	19.295	-0.165	0.131
-348.464	-102.664	-0.283	0.067
-347.450	-104.563	-0.064	0.015
-346.435	-88.111	-0.212	-0.063
-345.420	119.673	-0.316	-0.386
-344.406	-200.000	-0.002	0.136
-343.391	-72.868	-0.171	-0.062
-342.377	-200.000	-0.068	0.324
-341.362	-75.591	-0.140	-0.049
-340.348	-197.115	0.062	0.000
-339.333	-45.364	0.250	0.122
-338.318	20.349	0.258	-0.206
-337.304	-200.000	-0.034	0.183
-336.289	-87.899	0.124	0.037
-335.275	65.621	0.083	-0.083
-334.260	362.488	-0.255	-0.505
-333.245	800.000	0.053	0.206
-332.231	62.052	0.195	0.191
-331.216	800.000	0.073	0.308
-330.202	259.945	0.128	0.218
-329.187	-8.637	-0.291	-0.193
-328.172	-114.179	-0.262	0.050
-327.158	53.175	-0.112	-0.106
-326.143	-200.000	-0.056	-0.243
-325.129	-200.000	0.025	-0.161
-324.114	-129.584	-0.073	-0.010
-323.099	547.431	0.050	0.118
-322.085	-59.239	0.172	-0.073
-321.070	-200.000	0.071	0.392
-320.056	-200.000	0.026	0.193
-319.041	11.923	-0.208	0.158
-318.026	28.032	0.144	0.120
-317.012	-119.181	-0.300	0.052
-315.997	-21.591	0.080	-0.048
-314.983	34.919	0.247	0.213
-313.968	-145.637	-0.236	-0.021
-312.953	-198.734	0.273	-0.001
-311.939	-200.000	-0.002	0.033
-310.924	-83.862	-0.164	0.051
-309.910	-200.000	-0.036	0.236
-308.895	-132.279	0.128	-0.016
-307.880	346.444	-0.025	-0.048
-306.866	-200.000	-0.044	-0.226
-305.851	172.919	0.123	-0.175
-304.837	57.873	0.078	0.075
-303.822	45.152	0.198	0.180
-302.807	-200.000	-0.000	0.630
-301.793	654.325	0.097	0.245
-300.778	-109.056	0.233	0.049
-299.764	24.818	0.232	-0.189
-298.749	-138.455	-0.159	0.017
-297.735	800.000	-0.029	0.094
-296.720	27.335	-0.058	0.048
-295.705	52.645	0.135	0.127
-294.691	315.908	-0.075	0.139
-293.676	-200.000	0.027	-0.200
-292.662	-66.698	-0.183	-0.072
-291.647	152.970	-0.118	-0.159
-290.632	-78.899	-0.353	-0.118
-289.618	-29.643	-0.325	0.183
-288.603	207.799	0.213	-0.327
-287.589	-111.253	-0.181	-0.036
-286.574	-115.222	0.260	0.048
-285.559	-131.928	0.033	-0.004
-284.545	800.000	-0.043	-0.171
-283.530	-200.000	-0.047	-0.213
-282.516	-92.674	0.169	-0.047
-281.501	238.394	-0.021	-0.034
-280.486	-149.824	0.327	0.025
-279.472	-200.000	-0.075	0.409
-278.457	-141.690	-0.087	-0.009
-277.443	800.000	-0.125	-0.442
-276.428	-200.000	-0.016	-0.184
-275.413	167.330	0.089	0.124
-274.399	-8.600	0.286	0.189
-273.384	-200.000	-0.041	0.431
-272.370	-69.429	0.421	-0.159
-271.355	-30.426	-0.144	-0.080
-270.340	68.996	0.195	0.197
-269.326	53.931	-0.203	0.192
-268.311	149.658	0.230	0.306
-267.297	800.000	0.106	0.335
-266.282	152.910	-0.277	0.373
-265.267	-18.206	-0.271	0.167
-264.253	192.627	-0.157	0.234
-263.238	-122.058	0.327	0.053
-262.224	142.980	-0.227	0.297
-261.209	800.000	-0.134	-0.488
-260.195	14.070	-0.298	-0.228
-259.180	-105.532	-0.272	-0.061
-258.165	233.221	0.126	-0.204
-257.151	-75.195	-0.129	-0.045
-256.136	776.371	-0.043	0.116
-255.122	-200.000	0.010	0.081
-254.107	-123.128	0.223	-0.035
-253.092	-9.527	-0.179	-0.118
-252.078	-16.871	0.028	0.017
-251.063	-11.635	-0.108	0.070
-250.049	-109.275	0.292	0.061
-249.034	-40.747	-0.351	-0.179
-248.019	0.250	-0.298	0.209
-247.005	-73.185	0.082	0.029
-245.990	-51.070	-0.117	0.054
-244.976	110.673	0.080	-0.094
-243.961	-57.390	-0.124	0.054
-242.946	-159.651	-0.032	0.002
-241.932	-200.000	-0.080	0.344
-240.917	-123.809	-0.214	-0.033
-239.903	800.000	-0.034	-0.118
-238.888	800.000	0.058	-0.169
-237.873	506.921	-0.048	-0.110
-236.859	-200.000	-0.097	0.418
-235.844	5.887	-0.327	0.238
-234.830	-200.000	0.021	0.163
-233.815	-89.840	0.361	-0.104
-232.800	-200.000	-0.011	-0.214
-231.786	269.848	-0.115	-0.198
-230.771	-200.000	-0.009	0.307
-229.757	-89.172	0.200	0.058
-228.742	-106.400	-0.232	-0.051
-227.727	-85.421	-0.177	0.054
-226.713	320.032	-0.032	-0.060
-225.698	800.000	-0.079	-0.234
-224.684	599.316	0.124	0.301
-223.669	65.739	-0.238	-0.237
-222.655	-40.382	0.148	0.075
-221.640	-24.588	-0.421	-0.246
-220.625	273.855	0.039	0.068
-219.611	-200.000	0.000	0.250
-218.596	517.443	-0.035	0.080
-217.582	800.000	-0.018	-0.065
-216.567	-32.182	0.046	-0.025
-215.552	264.933	-0.016	-0.027
-214.538	-200.000	-0.003	0.301
-213.523	800.000	-0.023	0.098
-212.509	190.156	-0.164	-0.241
-211.494	497.882	-0.136	0.307
-210.479	-190.125	-0.114	-0.001
-209.465	177.866	0.051	-0.073
-208.450	-52.882	-0.012	0.006
-207.436	37.939	-0.359	0.314
-206.421	187.648	-0.129	0.190
-205.406	16.349	0.393	0.305
-204.392	-68.835	0.043	0.016
-203.377	159.803	-0.092	0.126
-202.363	-200.000	0.009	-0.123
-201.348	-26.754	0.134	-0.077
-200.333	132.368	-0.088	0.111
-199.319	-200.000	-0.001	0.360
-198.304	-200.000	-0.008	-0.263
-197.290	787.428	-0.118	-0.318
-196.275	-168.265	0.127	-0.005
-195.260	34.207	-0.205	-0.175
-194.246	800.000	-0.008	0.026
-193.231	-28.590	-0.048	0.027
-192.217	800.000	0.052	0.148
-191.202	-200.000	-0.002	0.270
-190.187	45.659	0.239	-0.217
-189.173	-122.873	-0.017	0.003
-188.158	-67.217	0.210	-0.081
-187.144	-88.122	-0.406	-0.119
-186.129	-174.992	-0.551	0.015
-185.114	-33.180	0.158	0.086
-184.100	-58.831	-0.250	0.106
-183.085	32.109	-0.068	0.058
-182.071	-158.636	0.277	-0.016
-181.056	112.958	0.192	-0.228
-180.042	-150.604	-0.094	0.007
-179.027	97.894	0.095	0.108
-178.012	-200.000	-0.053	0.261
-176.998	94.239	0.094	0.104
-175.983	102.642	0.195	-0.223
-174.969	800.000	-0.054	-0.203
-173.954	-128.634	0.189	-0.026
-172.939	-200.000	0.065	-0.399
-171.925	112.466	0.230	0.273
-170.910	313.119	-0.056	0.103
-169.896	-69.038	-0.220	0.083
-168.881	-70.768	-0.229	0.085
-167.866	105.763	0.186	0.215
-166.852	800.000	0.038	-0.122
-165.837	-62.742	-0.254	-0.103
-164.823	-87.149	-0.475	-0.141
-163.808	39.853	-0.100	-0.088
-162.793	-166.516	0.032	0.001
-161.779	-2.027	-0.156	0.107
-160.764	-200.000	0.008	0.036
-159.750	800.000	0.049	0.193
-158.735	46.860	-0.065	0.059
-157.720	0.498	0.377	-0.264
-156.706	-173.401	0.421	-0.012
-155.691	-50.389	0.272	0.126
-154.677	50.458	-0.124	-0.115
-153.662	800.000	0.077	0.280
-152.647	-200.000	-0.045	-0.337
-151.633	-200.000	-0.056	-0.308
-150.618	1.660	-0.108	0.076
-149.604	192.153	-0.049	-0.072
-148.589	-153.601	0.358	0.024
-147.574	-157.807	0.160	0.009
-146.560	48.402	-0.153	-0.140
-145.545	21.286	-0.203	0.161
-144.531	-158.430	0.447	-0.025
-143.516	-114.708	0.282	-0.053
-142.502	33.932	0.116	-0.099
-141.487	595.485	0.101	0.245
-140.472	102.864	-0.182	0.208
-139.458	-20.808	0.327	-0.196
-138.443	-144.198	-0.205	-0.019
-137.429	-32.233	0.166	0.091
-136.414	-200.000	0.054	-0.502
-135.399	-131.187	0.108	0.014
-134.385	-59.851	0.224	0.094
-133.370	404.660	-0.204	-0.420
-132.356	70.971	0.079	-0.080
-131.341	800.000	-0.093	-0.271
-130.326	184.412	-0.182	-0.264
-129.312	-163.917	0.118	-0.005
-128.297	-77.742	0.221	0.075
-127.283	-109.395	0.390	0.081
-126.268	50.330	-0.220	0.204
-125.253	800.000	0.072	-0.265
-124.239	800.000	-0.043	0.165
-123.224	-12.363	0.215	0.137
-122.210	-99.167	0.213	0.053
-121.195	800.000	-0.022	0.073
-120.180	515.075	-0.138	0.315
-119.166	-98.596	-0.310	-0.077
-118.151	140.073	0.118	-0.152
-117.137	-200.000	0.019	0.422
-116.122	-18.216	-0.291	-0.178
-115.107	-200.000	0.045	0.309
-114.093	-81.661	0.321	-0.103
-113.078	-200.000	0.011	0.136
-112.064	800.000	-0.064	0.255
-111.049	280.146	-0.095	0.166
-110.034	-4.055	0.078	0.053
-109.020	603.220	-0.077	0.187
-108.005	800.000	0.024	-0.101
-106.991	-113.258	-0.378	-0.073
-105.976	-36.132	-0.280	-0.148
-104.962	-200.000	-0.032	0.332
-103.947	-54.070	0.095	0.042
-102.932	84.445	0.114	0.122
-101.918	649.983	-0.035	0.088
-100.903	800.000	-0.024	0.084
-99.889	2.581	0.228	0.161
-98.874	-22.201	-0.417	0.247
-97.859	544.471	-0.066	0.153
-96.845	163.604	0.220	0.303
-95.830	-108.794	-0.272	-0.057
-94.816	-200.000	-0.026	0.245
-93.801	40.783	0.193	0.170
-92.786	-56.902	-0.182	0.078
-91.772	-200.000	0.011	0.113
-90.757	-134.590	0.275	0.033
-89.743	-149.987	-0.148	-0.011
-88.728	-78.311	-0.199	0.067
-87.713	79.856	0.139	-0.146
-86.699	70.228	0.028	-0.028
-85.684	-200.000	-0.002	-0.044
-84.670	-47.503	-0.050	0.024
-83.655	-200.000	-0.019	0.356
-82.640	800.000	0.125	0.339
-81.626	-83.398	0.046	0.015
-80.611	-99.101	0.044	-0.011
-79.597	549.937	0.128	0.299
-78.582	503.964	0.176	-0.398
-77.567	-13.530	0.182	-0.115
-76.553	-200.000	-0.041	-0.208
-75.538	72.773	-0.325	-0.332
-74.524	-200.000	0.025	-0.128
-73.509	31.149	-0.375	-0.314
-72.494	99.257	0.180	0.203
-71.480	5.330	0.294	-0.212
-70.465	190.003	0.073	-0.106
-69.451	164.412	-0.102	0.140
-68.436	-11.006	-0.142	0.091
-67.422	-9.401	0.148	-0.097
-66.407	-200.000	0.047	-0.551
-65.392	800.000	0.027	-0.106
-64.378	-46.267	-0.151	0.073
-63.363	129.389	0.093	0.116
-62.349	-115.818	-0.330	-0.060
-61.334	24.327	-0.974	-0.785
-60.319	15.274	0.823	0.630
-59.305	800.000	-0.377	-1.083
-58.290	400.323	0.736	1.505
-57.276	800.000	0.426	1.293
-56.261	-200.000	118.973	624.218
-55.246	412.481	1536.592	3184.871
-54.232	148.405	2684.215	3535.369
-53.217	98.862	2127.874	2395.880
-52.203	36.645	1574.298	1355.959
-51.188	28.698	1321.167	1090.900
-50.173	26.068	1283.674	1044.698
-49.159	50.725	1349.338	1245.863
-48.144	49.018	1362.124	1247.450
-47.130	28.917	1311.481	1084.021
-46.115	25.724	1292.618	1049.805
-45.100	25.540	1287.811	1044.790
-44.086	25.390	1285.961	1042.375
-43.071	25.448	1283.194	1040.427
-42.057	25.371	1281.367	1038.457
-41.042	25.384	1279.720	1037.158
-40.027	25.430	1278.045	1036.027
-39.013	25.475	1276.306	1034.833
-37.998	25.532	1273.942	1033.204
-36.984	25.433	1273.196	1031.988
-35.969	25.525	1271.193	1030.849
-34.954	25.545	1269.701	1029.714
-33.940	25.566	1268.488	1028.813
-32.925	25.630	1266.712	1027.696
-31.911	25.673	1265.224	1026.693
-30.896	25.712	1263.758	1025.687
-29.881	25.647	1262.494	1024.247
-28.867	25.677	1261.135	1023.276
-27.852	25.705	1260.172	1022.609
-26.838	25.587	1258.600	1020.629
-25.823	25.750	1256.593	1019.883
-24.809	25.593	1255.797	1018.304
-23.794	25.597	1254.679	1017.380
-22.779	25.673	1253.314	1016.666
-21.765	25.599	1252.493	1015.539
-20.750	25.565	1250.981	1014.082
-19.736	25.559	1249.934	1013.162
-18.721	25.602	1248.600	1012.282
-17.706	25.558	1247.594	1011.176
-16.692	25.529	1246.339	1009.956
-15.677	25.550	1245.269	1009.164
-14.663	25.552	1244.348	1008.394
-13.648	25.417	1243.346	1006.782
-12.633	25.551	1241.993	1006.398
-11.619	25.522	1241.449	1005.753
-10.604	25.444	1240.633	1004.620
-9.590	25.519	1239.557	1004.128
-8.575	25.497	1238.338	1002.976
-7.560	25.498	1237.654	1002.387
-6.546	25.528	1236.417	1001.513
-5.531	25.528	1235.962	1001.106
-4.517	25.595	1234.840	1000.529
-3.502	25.674	1234.168	1000.385
-2.487	25.598	1232.739	998.762
-1.473	25.407	1228.551	994.276
-0.458	23.513	1213.415	971.623
0.556	18.481	1196.850	930.388
1.571	14.474	1202.956	913.143
2.586	13.543	1218.289	919.536
3.600	13.481	1206.341	910.098
4.615	10.338	1136.987	841.394
5.629	4.138	1066.225	758.675
6.644	0.974	1048.992	731.089
7.659	0.694	1047.363	728.537
8.673	0.839	1046.451	728.542
9.688	0.823	1045.434	727.692
10.702	1.120	1042.980	727.341
11.717	4.777	1047.375	747.939
12.731	11.895	1056.173	788.538
13.746	16.422	1061.639	814.414
14.761	17.538	1062.565	820.434
15.775	16.788	1061.079	815.602
16.790	15.870	1058.490	809.130
17.804	15.145	1057.634	804.921
18.819	14.694	1056.563	801.871
19.834	14.556	1055.390	800.246
20.848	14.222	1054.387	797.815
21.863	14.128	1053.795	796.846
22.877	13.952	1053.136	795.433
23.892	13.792	1052.530	794.142
24.907	13.854	1051.613	793.674
25.921	13.784	1050.931	792.758
26.936	13.894	1049.886	792.424
27.950	13.844	1049.211	791.606
28.965	13.993	1047.943	791.289
29.980	13.920	1046.885	790.071
30.994	14.177	1045.614	790.264
32.009	13.945	1045.235	788.803
33.023	14.107	1043.467	788.170
34.038	14.030	1042.274	786.835
35.053	14.003	1041.996	786.424
36.067	13.916	1041.479	785.556
37.082	14.030	1040.353	785.176
38.096	14.005	1039.575	784.402
39.111	14.022	1038.812	783.836
40.126	14.010	1037.649	782.834
41.140	13.823	1036.578	781.074
42.155	13.764	1035.945	780.253
43.169	13.721	1034.838	779.148
44.184	13.799	1033.776	778.644
45.199	13.730	1033.060	777.711
46.213	13.962	1031.420	777.494
47.228	13.945	1030.296	776.497
48.242	13.826	1029.771	775.477
49.257	13.826	1028.683	774.589
50.271	13.934	1027.341	774.013
51.286	13.913	1026.764	773.413
52.301	13.964	1025.788	772.849
53.315	13.964	1024.994	772.181
54.330	13.989	1023.436	771.056
55.344	13.887	1023.131	770.286
56.359	13.847	1022.161	769.301
57.374	13.812	1021.589	768.638
58.388	13.755	1020.591	767.556
59.403	13.761	1020.044	767.104
60.417	13.818	1019.155	766.635
61.432	13.827	1017.886	765.650
62.447	13.741	1017.326	764.768
63.461	13.703	1016.693	764.048
64.476	13.674	1015.607	763.029
65.490	13.886	1014.668	763.232
66.505	13.769	1014.002	762.126
67.520	13.763	1013.343	761.535
68.534	13.681	1013.024	760.854
69.549	13.880	1011.878	760.837
70.563	13.841	1011.050	759.967
71.578	13.642	1011.086	759.018
72.593	13.816	1009.630	758.653
73.607	13.744	1008.843	757.662
74.622	13.738	1008.550	757.348
75.636	13.779	1007.553	756.719
76.651	13.553	1007.251	755.398
77.666	13.759	1006.685	755.842
78.680	13.767	1005.531	754.946
79.695	13.828	1005.104	754.837
80.709	13.880	1004.398	754.477
81.724	13.854	1003.913	753.927
82.739	13.836	1003.000	753.094
83.753	13.876	1002.738	753.013
84.768	13.978	1001.567	752.526
85.782	13.866	1000.580	751.214
86.797	13.834	999.968	750.543
87.812	13.857	998.642	749.586
88.826	13.950	997.646	749.188
89.841	14.013	996.610	748.628
90.855	14.014	996.241	748.290
91.870	14.033	994.953	747.344
92.884	14.085	994.369	747.072
93.899	14.132	993.244	746.373
94.914	14.052	992.715	745.547
95.928	14.054	991.856	744.848
96.943	13.890	991.303	743.633
97.957	14.088	989.975	743.453
98.972	14.121	989.389	743.097
99.987	14.014	988.574	741.939
101.001	13.995	987.516	740.997
102.016	14.050	986.622	740.505
103.030	14.045	986.105	740.027
104.045	14.094	985.202	739.505
105.060	13.970	984.456	738.326
106.074	13.911	983.571	737.337
107.089	13.944	982.828	736.860
108.103	13.975	981.626	736.029
109.118	13.875	980.916	734.989
110.133	13.969	979.661	734.402
111.147	13.893	978.752	733.321
112.162	13.901	978.442	733.060
113.176	13.944	977.560	732.521
114.191	14.005	976.931	732.253
115.206	14.065	976.083	731.816
116.220	13.858	975.305	730.260
117.235	13.964	974.054	729.723
118.249	14.002	973.333	729.285
119.264	13.998	972.699	728.727
120.279	13.926	971.958	727.792
121.293	13.876	971.349	727.055
122.308	13.958	969.894	726.261
123.322	13.966	969.151	725.673
124.337	13.851	968.252	724.435
125.352	13.973	967.079	724.026
126.366	13.978	965.936	723.124
127.381	14.089	964.978	722.828
128.395	13.967	963.860	721.397
129.410	13.962	963.270	720.870
130.424	14.035	962.629	720.642
131.439	14.033	961.486	719.715
132.454	14.077	960.913	719.411
133.468	13.989	959.967	718.261
134.483	14.060	958.961	717.749
135.497	14.075	957.945	716.990
136.512	14.166	957.309	716.843
137.527	14.000	956.600	715.536
138.541	14.050	956.205	715.390
139.556	14.106	955.513	715.049
140.570	14.145	954.587	714.461
141.585	14.108	953.885	713.716
142.600	14.195	952.704	713.141
143.614	14.214	952.093	712.701
144.629	14.206	951.561	712.207
145.643	14.308	950.520	711.800
146.658	14.134	949.273	710.059
147.673	14.249	948.310	709.767
148.687	14.091	948.093	708.870
149.702	14.159	946.981	708.265
150.716	14.079	946.579	707.561
151.731	14.099	945.653	706.890
152.746	14.106	944.902	706.297
153.760	14.182	944.291	706.100
154.775	14.289	943.755	706.091
155.789	14.149	943.383	705.156
156.804	14.229	942.247	704.583
157.819	14.268	941.494	704.124
158.833	14.304	940.757	703.663
159.848	14.267	940.235	703.055
160.862	14.436	939.144	702.889
161.877	14.339	938.214	701.719
162.892	14.283	937.266	700.713
163.906	14.403	936.153	700.324
164.921	14.322	935.309	699.289
165.935	14.378	934.490	698.850
166.950	14.288	933.919	697.987
167.964	14.430	932.939	697.785
168.979	14.396	932.252	697.067
169.994	14.297	931.755	696.222
171.008	14.382	930.605	695.657
172.023	14.405	929.996	695.233
173.037	14.402	929.436	694.741
174.052	14.415	928.389	693.953
175.067	14.336	928.205	693.425
176.081	14.289	927.771	692.844
177.096	14.518	926.976	693.137
178.110	14.303	926.419	691.770
179.125	14.408	925.982	691.819
180.140	14.499	925.039	691.428
181.154	14.495	924.696	691.095
182.169	14.642	924.031	691.144
183.183	14.547	923.276	690.127
184.198	14.606	922.552	689.767
185.213	14.493	921.575	688.510
186.227	14.654	920.967	688.658
187.242	14.686	920.440	688.335
188.256	14.548	920.032	687.403
189.271	14.715	919.096	687.329
190.286	14.545	918.566	686.170
191.300	14.558	917.947	685.703
192.315	14.310	917.842	684.544
193.329	14.400	917.075	684.282
194.344	14.592	916.338	684.459
195.359	14.628	915.356	683.811
196.373	14.615	914.797	683.279
197.388	14.695	914.742	683.505
198.402	14.736	914.048	683.094
199.417	14.690	913.383	682.349
200.432	14.750	912.645	681.982
201.446	14.798	912.269	681.836
202.461	14.807	911.895	681.532
203.475	14.907	911.035	681.238
204.490	14.776	910.543	680.276
205.504	14.839	909.718	679.856
206.519	14.806	908.909	679.059
207.534	14.861	908.048	678.576
208.548	14.834	907.582	678.059
209.563	14.921	906.678	677.676
210.577	14.948	906.349	677.479
211.592	15.059	905.411	677.169
212.607	15.045	904.869	676.648
213.621	14.906	904.191	675.519
214.636	14.899	903.554	674.953
215.650	15.005	902.754	674.725
216.665	15.174	902.097	674.856
217.680	15.137	901.405	674.128
218.694	15.128	900.832	673.604
219.709	15.087	900.087	672.823
220.723	15.088	899.562	672.376
221.738	15.071	898.740	671.634
222.753	15.245	897.737	671.522
223.767	15.294	897.427	671.426
224.782	15.102	897.049	670.313
225.796	15.192	896.414	670.141
226.811	15.115	895.904	669.393
227.826	15.191	895.088	669.027
228.840	15.233	894.720	668.862
229.855	15.318	893.187	667.992
230.869	15.142	893.102	667.171
231.884	15.126	891.937	666.177
232.899	15.079	891.324	665.475
233.913	15.213	890.673	665.463
234.928	15.300	889.875	665.153
235.942	15.260	889.601	664.728
236.957	15.185	888.804	663.776
237.972	15.190	888.153	663.252
238.986	15.204	887.925	663.077
240.001	15.048	887.197	661.858
241.015	15.352	886.337	662.359
242.030	15.291	885.687	661.575
243.045	15.339	885.421	661.508
244.059	15.305	884.924	660.943
245.074	15.404	884.138	660.689
246.088	15.264	883.422	659.545
247.103	15.447	882.748	659.702
248.117	15.328	882.420	658.930
249.132	15.470	881.911	659.047
250.147	15.561	881.079	658.728
251.161	15.521	880.562	658.126
252.176	15.622	879.624	657.759
253.190	15.671	879.136	657.527
254.205	15.621	878.217	656.588
255.220	15.606	877.738	656.115
256.234	15.713	876.975	655.901
257.249	15.622	876.512	655.144
258.263	15.693	875.901	654.906
259.278	15.675	874.945	654.062
260.293	15.671	874.779	653.866
261.307	15.726	873.978	653.424
262.322	15.954	872.787	653.360
263.336	16.009	872.427	653.243
264.351	15.887	871.647	652.132
265.366	15.841	871.374	651.691
266.380	15.854	870.708	651.185
267.395	15.785	870.191	650.473
268.409	15.948	869.057	650.198
269.424	15.925	868.237	649.436
270.439	15.951	867.999	649.303
271.453	15.957	867.159	648.639
272.468	15.979	866.638	648.276
273.482	15.950	866.185	647.771
274.497	15.965	865.724	647.425
275.512	16.055	864.699	646.946
276.526	16.051	864.557	646.767
277.541	16.066	864.174	646.482
278.555	16.080	863.184	645.738
279.570	16.163	862.735	645.663
280.585	16.023	861.903	644.447
281.599	16.131	861.097	644.199
282.614	16.179	860.275	643.712
283.628	16.067	860.063	643.068
284.643	16.097	859.624	642.796
285.657	16.163	858.802	642.378
286.672	16.228	858.233	642.143
287.687	16.270	857.266	641.520
288.701	16.224	857.216	641.254
289.716	16.205	856.570	640.639
290.730	16.209	855.864	640.071
291.745	16.304	854.991	639.721
292.760	16.294	854.848	639.522
293.774	16.234	854.303	638.829
294.789	16.354	853.393	638.547
295.803	16.279	852.634	637.638
296.818	16.318	851.808	637.109
297.833	16.328	851.584	636.923
298.847	16.295	851.149	636.417
299.862	16.348	850.626	636.169
300.876	16.348	850.172	635.773
301.891	16.455	849.185	635.381
302.906	16.490	848.715	635.105
303.920	16.524	848.141	634.750
304.935	16.524	847.679	634.345
305.949	16.550	846.662	633.626
306.964	16.454	846.515	633.100
307.979	16.409	845.929	632.439
308.993	16.549	845.032	632.235
310.008	16.569	844.500	631.855
311.022	16.689	843.869	631.775
312.037	16.540	843.621	630.976
313.052	16.392	843.035	629.932
314.066	16.457	842.535	629.745
315.081	16.630	841.901	629.859
316.095	16.627	840.965	629.092
317.110	16.520	840.887	628.582
318.125	16.604	840.146	628.283
319.139	16.619	839.674	627.930
320.154	16.567	839.636	627.651
321.168	16.590	838.958	627.175
322.183	16.548	837.994	626.246
323.197	16.649	837.784	626.407
324.212	16.536	837.437	625.672
325.227	16.721	836.119	625.317
326.241	16.732	835.654	624.953
327.256	16.712	835.372	624.615
328.270	16.806	834.574	624.308
329.285	16.769	834.165	623.811
330.300	16.724	833.762	623.290
331.314	16.791	833.171	623.037
332.329	16.731	832.898	622.559
333.343	16.747	832.723	622.430
334.358	16.829	832.393	622.430
335.373	16.797	831.609	621.671
336.387	16.840	831.235	621.495
337.402	16.820	831.199	621.340
338.416	16.840	830.865	621.108
339.431	16.892	830.361	620.868
340.446	16.966	829.699	620.589
341.460	16.977	829.401	620.349
342.475	16.919	829.411	620.090
343.489	17.075	828.634	620.025
344.504	17.004	828.152	619.348
345.519	17.181	827.536	619.479
346.533	17.197	826.925	619.027
347.548	17.040	826.731	618.254
348.562	17.133	826.148	618.103
349.577	17.197	825.178	617.554
350.592	17.129	824.910	617.053
351.606	16.997	823.993	615.834
352.621	17.185	823.587	616.157
353.635	17.145	822.825	615.388
354.650	17.156	822.329	615.002
355.665	17.189	821.936	614.773
356.679	17.231	820.942	614.124
357.694	17.134	820.851	613.654
358.708	17.342	819.918	613.654
359.723	17.333	819.661	613.373
360.738	17.243	818.798	612.347
361.752	17.279	818.349	612.089
362.767	17.322	817.817	611.791
363.781	17.315	817.120	611.192
364.796	17.432	816.576	611.149
365.810	17.377	816.433	610.792
366.825	17.412	815.971	610.515
367.840	17.481	815.211	610.139
368.854	17.421	814.931	609.662
369.869	17.444	814.587	609.433
370.883	17.562	814.119	609.451
371.898	17.452	814.102	608.993
372.913	17.426	813.484	608.382
373.927	17.575	812.945	608.460
374.942	17.574	812.484	608.054
375.956	17.644	812.017	607.904
376.971	17.572	811.579	607.264
377.986	17.727	810.957	607.296
379.000	17.654	810.646	606.752
380.015	17.658	810.235	606.403
381.029	17.680	809.368	605.777
382.044	17.754	808.696	605.487
383.059	17.677	808.404	604.938
384.073	17.854	807.673	604.968
385.088	17.746	807.207	604.182
386.102	17.807	806.412	603.748
387.117	17.693	806.034	603.010
388.132	17.687	805.872	602.812
389.146	17.760	805.081	602.427
390.161	17.869	804.399	602.246
391.175	18.032	803.774	602.301
392.190	17.807	803.364	601.148
393.205	17.696	803.558	600.846
394.219	17.865	802.738	600.776
395.234	17.784	802.480	600.245
396.248	17.800	802.080	599.949
397.263	17.747	801.760	599.472
398.278	17.845	801.114	599.280
399.292	17.876	800.775	599.081
400.307	17.786	800.679	598.642
401.321	17.841	799.797	598.121
402.336	17.889	799.419	597.953
403.350	18.057	798.911	598.108
404.365	17.833	798.601	597.039
405.380	18.157	797.916	597.606
406.394	17.928	797.810	596.674
407.409	18.119	797.133	596.783
408.423	18.055	797.114	596.491
409.438	18.114	796.654	596.300
410.453	18.225	795.827	596.017
411.467	18.150	795.279	595.291
412.482	18.149	795.273	595.230
413.496	18.189	795.098	595.187
414.511	18.231	794.917	595.145
415.526	18.403	793.546	594.662
416.540	18.319	793.375	594.190
417.555	18.321	793.117	593.952
418.569	18.397	792.703	593.851
419.584	18.237	792.092	592.787
420.599	18.295	791.596	592.563
421.613	116.087	1296.372	1488.330
422.628	99.986	1369.885	1488.419
