DTS Sentinel unit serial number:	SN413079Multiplexer serial number:	ORYXHardware model number:	OX4-SRSoftware version number:	ORYX F/W v4.00 Oryx Data Collector v3.7.2.0data status	okinstallation	princeton_trtdifferential loss correction	single-endedforward channel	channel 1reverse channel	N/Adate	2019/09/19time	09:10:35forward acquisition time	60.00reverse acquisition time	0.00gamma	496.2192k internal	0.2342k external	0.2342temperature offset calibration	1.0001default loss term (dB/km)	0.3790temperature slope calibration	1.0000multiplexer offset coefficient	1.0000multiplexer slope coefficient	1.0000fibre end	0.00T internal ref (°C)	21.91T ext. ref 1 (°C)	0.61T ext. ref 2 (°C)	19.12length (m)	temperature (°C)	Stokes	anti-Stokes-747.200	-111.765	0.492	-0.100
-746.185	-77.175	0.209	-0.073
-745.171	-200.000	-0.002	0.130
-744.156	-162.509	-0.259	0.013
-743.142	-90.368	0.241	0.070
-742.127	-200.000	0.090	0.555
-741.112	800.000	0.080	0.258
-740.098	-47.082	0.101	0.049
-739.083	156.410	0.140	0.193
-738.069	-200.000	0.060	0.280
-737.054	196.199	-0.089	-0.136
-736.039	-177.303	-0.362	0.009
-735.025	-90.019	0.108	0.031
-734.010	-168.788	-0.457	0.017
-732.996	-59.736	0.064	0.028
-731.981	-57.743	-0.196	0.086
-730.966	231.259	-0.156	-0.255
-729.952	800.000	-0.063	-0.219
-728.937	204.204	-0.167	0.259
-727.923	-75.967	-0.134	0.048
-726.908	-99.585	-0.248	-0.062
-725.894	0.333	-0.234	-0.167
-724.879	694.120	-0.168	0.441
-723.864	-84.701	-0.431	0.136
-722.850	32.023	0.143	0.123
-721.835	-23.049	-0.127	-0.076
-720.821	-160.729	-0.161	0.009
-719.806	-89.527	-0.107	-0.032
-718.791	-43.019	0.286	0.145
-717.777	38.113	-0.056	-0.050
-716.762	-157.559	-0.247	0.015
-715.748	140.101	-0.180	0.238
-714.733	439.308	0.090	-0.196
-713.718	209.179	-0.171	-0.268
-712.704	-67.828	-0.130	-0.051
-711.689	136.819	-0.127	0.165
-710.675	132.536	0.180	-0.232
-709.660	-64.758	-0.142	-0.057
-708.645	87.124	0.088	0.097
-707.631	-91.433	0.099	0.028
-706.616	614.067	-0.128	0.321
-705.602	-134.101	-0.117	0.014
-704.587	12.064	-0.214	0.165
-703.572	175.969	-0.061	0.088
-702.558	156.618	-0.141	-0.195
-701.543	27.936	-0.359	-0.303
-700.529	440.993	-0.113	-0.246
-699.514	-76.611	-0.132	-0.046
-698.499	-64.359	0.185	-0.075
-697.485	-200.000	0.070	-0.367
-696.470	123.886	-0.199	-0.249
-695.456	-107.661	0.113	-0.025
-694.441	-31.219	-0.197	0.111
-693.426	-65.378	-0.126	-0.051
-692.412	518.466	-0.053	-0.125
-691.397	71.689	0.100	0.104
-690.383	-168.527	0.038	0.001
-689.368	-104.329	-0.243	-0.056
-688.354	508.440	0.037	0.086
-687.339	22.154	0.251	0.205
-686.324	-66.384	-0.043	-0.017
-685.310	-10.766	0.050	-0.033
-684.295	-37.878	-0.096	-0.051
-683.281	23.497	-0.130	0.107
-682.266	90.845	0.175	0.196
-681.251	-129.499	-0.244	-0.034
-680.237	-200.000	-0.054	0.308
-679.222	-24.986	-0.227	-0.135
-678.208	-200.000	0.003	0.021
-677.193	-48.743	0.238	-0.114
-676.178	186.903	0.057	0.085
-675.164	66.873	-0.185	0.189
-674.149	-87.921	0.114	0.034
-673.135	-138.515	-0.189	-0.021
-672.120	227.320	-0.095	0.154
-671.105	-200.000	0.012	-0.138
-670.091	-1.410	0.148	-0.104
-669.076	800.000	-0.052	0.173
-668.062	539.413	-0.114	-0.272
-667.047	-0.148	0.340	0.241
-666.032	-114.988	-0.236	0.045
-665.018	-98.471	-0.163	0.042
-664.003	155.477	-0.139	-0.191
-662.989	-200.000	-0.012	0.191
-661.974	-200.000	0.003	-0.069
-660.959	-78.271	0.229	-0.078
-659.945	195.818	-0.145	-0.219
-658.930	-114.732	-0.199	0.038
-657.916	603.323	-0.033	0.083
-656.901	-96.798	0.287	-0.075
-655.886	-147.374	0.130	-0.011
-654.872	216.473	0.266	0.422
-653.857	-118.834	0.397	0.070
-652.843	-151.600	0.190	-0.014
-651.828	-40.837	-0.260	-0.134
-650.814	55.799	-0.148	-0.143
-649.799	-200.000	0.011	-0.811
-648.784	-161.598	0.123	0.006
-647.770	-200.000	-0.012	-0.656
-646.755	68.507	-0.049	-0.050
-645.741	318.411	0.173	0.327
-644.726	185.216	-0.131	-0.194
-643.711	487.058	-0.131	-0.297
-642.697	431.810	0.070	-0.152
-641.682	-91.414	-0.359	0.102
-640.668	800.000	-0.049	-0.204
-639.653	588.913	-0.074	-0.182
-638.638	16.823	0.189	0.149
-637.624	-102.135	-0.189	-0.045
-636.609	31.638	-0.257	-0.220
-635.595	-99.261	-0.191	-0.048
-634.580	239.710	0.093	-0.155
-633.565	44.340	0.365	0.334
-632.551	-200.000	-0.060	0.307
-631.536	7.222	0.131	-0.097
-630.522	-177.245	0.321	0.008
-629.507	257.931	0.265	-0.455
-628.492	44.294	-0.095	0.087
-627.478	73.536	-0.188	-0.196
-626.463	112.862	0.018	0.022
-625.449	-200.000	0.004	-0.206
-624.434	8.917	0.184	-0.138
-623.419	595.861	-0.078	-0.193
-622.405	53.666	-0.157	0.150
-621.390	-36.533	0.166	0.089
-620.376	18.466	-0.376	0.300
-619.361	231.375	0.201	0.328
-618.346	697.738	0.067	0.174
-617.332	800.000	-0.070	0.196
-616.317	7.004	0.106	0.079
-615.303	-29.880	0.074	0.042
-614.288	55.825	0.123	0.118
-613.273	496.528	-0.059	0.136
-612.259	672.400	-0.171	-0.443
-611.244	36.369	-0.107	0.094
-610.230	-57.981	0.144	0.063
-609.215	11.508	0.214	-0.164
-608.201	-31.060	0.189	0.106
-607.186	-1.643	-0.146	-0.103
-606.171	178.883	0.020	-0.029
-605.157	-100.273	-0.220	-0.054
-604.142	-170.676	-0.407	-0.014
-603.128	800.000	0.021	-0.066
-602.113	-162.625	0.132	-0.006
-601.098	203.381	-0.271	-0.418
-600.084	264.060	0.072	-0.124
-599.069	293.156	-0.064	-0.116
-598.055	581.055	-0.145	0.354
-597.040	5.323	0.138	-0.101
-596.025	800.000	0.026	0.100
-595.011	642.902	-0.064	0.163
-593.996	31.035	-0.194	0.166
-592.982	199.481	0.137	-0.209
-591.967	292.728	-0.086	0.156
-590.952	-200.000	-0.003	0.122
-589.938	-106.616	-0.292	0.065
-588.923	-77.670	-0.169	-0.058
-587.909	452.719	-0.075	-0.165
-586.894	242.451	0.149	-0.249
-585.879	-33.690	0.021	0.011
-584.865	264.310	0.072	0.124
-583.850	62.876	0.028	-0.028
-582.836	110.457	-0.262	-0.314
-581.821	184.992	-0.170	0.251
-580.806	152.239	-0.172	0.233
-579.792	-200.000	0.020	-0.258
-578.777	-141.471	-0.143	0.014
-577.763	-88.927	-0.249	-0.074
-576.748	-168.007	0.245	-0.010
-575.733	96.357	0.151	0.172
-574.719	-122.211	-0.315	-0.051
-573.704	117.141	-0.093	0.114
-572.690	800.000	-0.051	0.220
-571.675	197.840	0.252	-0.383
-570.661	-200.000	-0.001	-0.078
-569.646	-200.000	0.076	0.508
-568.631	-20.647	0.295	0.180
-567.617	199.324	-0.229	-0.349
-566.602	230.560	0.203	-0.330
-565.588	350.836	-0.256	-0.504
-564.573	-200.000	0.061	-0.270
-563.558	128.550	0.098	0.124
-562.544	800.000	-0.036	-0.135
-561.529	79.266	0.032	0.034
-560.515	234.014	-0.088	0.145
-559.500	-42.620	0.010	-0.005
-558.485	205.871	-0.107	0.166
-557.471	367.140	-0.095	0.190
-556.456	-103.455	0.414	-0.097
-555.442	391.765	0.029	0.060
-554.427	-200.000	-0.040	0.367
-553.412	-83.052	0.280	0.090
-552.398	126.079	-0.110	0.138
-551.383	-200.000	0.266	0.000
-550.369	-115.253	-0.433	0.081
-549.354	16.330	0.301	0.236
-548.339	-120.289	0.245	0.042
-547.325	-124.217	-0.202	0.031
-546.310	-200.000	-0.003	0.131
-545.296	-128.547	-0.057	0.008
-544.281	176.567	0.088	-0.128
-543.266	-200.000	-0.016	0.148
-542.252	226.109	0.158	-0.255
-541.237	-140.577	-0.337	-0.035
-540.223	-104.877	-0.097	0.022
-539.208	800.000	0.048	-0.147
-538.193	-41.839	-0.058	0.030
-537.179	800.000	-0.030	0.099
-536.164	-200.000	-0.011	0.169
-535.150	-157.508	-0.357	0.021
-534.135	-46.860	-0.082	-0.040
-533.121	-183.396	0.322	-0.006
-532.106	-34.615	-0.113	0.061
-531.091	466.245	-0.160	0.356
-530.077	40.585	-0.215	0.193
-529.062	-148.169	0.149	0.012
-528.048	120.898	0.131	0.162
-527.033	800.000	-0.027	0.085
-526.018	479.262	-0.008	-0.019
-525.004	-177.818	0.314	-0.007
-523.989	-200.000	0.032	0.249
-522.975	-47.481	-0.257	0.124
-521.960	-200.000	-0.066	0.338
-520.945	-102.816	0.158	0.037
-519.931	438.810	-0.128	0.278
-518.916	-200.000	-0.018	0.173
-517.902	-200.000	0.045	0.302
-516.887	-200.000	0.026	0.127
-515.872	324.210	0.136	0.257
-514.858	-19.007	-0.257	0.159
-513.843	130.192	0.073	-0.093
-512.829	-150.468	0.203	0.016
-511.814	403.942	0.028	-0.059
-510.799	800.000	-0.111	-0.356
-509.785	-200.000	0.000	0.058
-508.770	800.000	0.113	0.370
-507.756	64.197	0.132	-0.132
-506.741	93.175	-0.194	-0.217
-505.726	625.164	0.032	0.081
-504.712	-100.756	-0.418	0.102
-503.697	-200.000	0.073	0.480
-502.683	43.611	0.140	0.127
-501.668	94.213	0.281	-0.316
-500.653	-132.698	-0.122	-0.016
-499.639	-41.144	-0.161	-0.083
-498.624	-200.000	0.017	0.145
-497.610	-40.089	-0.202	-0.104
-496.595	-160.610	0.333	-0.018
-495.581	-4.303	-0.196	0.134
-494.566	-200.000	0.012	0.126
-493.551	501.218	-0.009	0.020
-492.537	-200.000	0.034	-0.171
-491.522	-67.483	-0.191	-0.075
-490.508	361.156	0.073	-0.144
-489.493	95.775	-0.059	0.067
-488.478	800.000	-0.065	-0.275
-487.464	-25.344	0.088	0.051
-486.449	800.000	0.032	0.118
-485.435	98.993	-0.223	-0.255
-484.420	299.642	-0.197	-0.359
-483.405	289.938	0.168	0.302
-482.391	-106.243	0.191	-0.043
-481.376	355.680	-0.094	-0.186
-480.362	1.540	-0.179	-0.128
-479.347	196.438	-0.180	0.271
-478.332	-200.000	0.029	-0.166
-477.318	-38.565	0.144	0.076
-476.303	730.112	-0.131	-0.347
-475.289	-29.964	-0.359	0.203
-474.274	800.000	0.055	-0.157
-473.259	292.277	-0.101	-0.183
-472.245	-139.655	0.306	0.032
-471.230	144.616	-0.120	-0.160
-470.216	50.972	-0.050	-0.047
-469.201	-200.000	0.015	-0.078
-468.186	138.498	-0.136	-0.178
-467.172	-200.000	-0.023	0.221
-466.157	-200.000	0.330	0.002
-465.143	75.559	0.109	-0.114
-464.128	-21.991	-0.148	-0.089
-463.113	181.477	0.092	0.134
-462.099	20.695	0.148	-0.118
-461.084	800.000	-0.119	-0.379
-460.070	-99.502	0.441	0.110
-459.055	150.394	0.084	0.113
-458.040	-115.437	0.140	0.026
-457.026	-145.885	-0.430	0.038
-456.011	-104.519	0.336	-0.077
-454.997	-126.823	0.441	0.065
-453.982	800.000	0.050	0.144
-452.968	-92.616	0.241	0.067
-451.953	-56.287	0.189	0.083
-450.938	-200.000	0.029	-0.175
-449.924	277.824	-0.139	0.244
-448.909	-3.282	-0.291	0.201
-447.895	7.009	0.134	-0.099
-446.880	-138.787	0.203	0.022
-445.865	-32.974	0.245	-0.135
-444.851	209.578	0.127	-0.197
-443.836	-17.987	-0.157	-0.097
-442.822	38.032	-0.123	0.109
-441.807	-42.792	-0.097	-0.049
-440.792	19.148	0.405	-0.321
-439.778	348.376	0.022	-0.042
-438.763	-154.520	-0.087	0.006
-437.749	-200.000	-0.013	-0.428
-436.734	-44.711	0.159	-0.079
-435.719	427.138	-0.099	-0.211
-434.705	800.000	0.099	0.418
-433.690	800.000	-0.105	0.313
-432.676	-32.843	0.339	0.186
-431.661	153.778	-0.244	-0.331
-430.646	800.000	0.091	0.287
-429.632	-49.852	0.240	-0.113
-428.617	-142.496	-0.274	-0.027
-427.603	-146.533	0.483	0.042
-426.588	-141.113	-0.167	0.017
-425.573	242.548	-0.116	-0.192
-424.559	-118.021	0.225	0.040
-423.544	360.729	0.129	-0.255
-422.530	-141.207	0.310	0.031
-421.515	-21.758	-0.466	0.281
-420.500	36.614	0.456	0.399
-419.486	26.307	0.172	-0.142
-418.471	-83.603	-0.275	-0.087
-417.457	548.460	-0.134	0.317
-416.442	800.000	-0.030	-0.116
-415.428	-127.077	0.149	-0.022
-414.413	-141.815	0.108	-0.011
-413.398	800.000	-0.077	0.304
-412.384	-32.327	0.145	0.080
-411.369	-91.095	0.249	0.071
-410.355	800.000	-0.054	-0.170
-409.340	-200.000	-0.047	-0.217
-408.325	538.907	-0.206	-0.484
-407.311	653.947	-0.031	-0.078
-406.296	-137.432	-0.211	-0.024
-405.282	-120.952	0.063	-0.010
-404.267	-155.942	-0.162	0.010
-403.252	-117.452	-0.276	0.049
-402.238	-200.000	-0.081	-0.621
-401.223	-198.465	0.144	0.001
-400.209	512.515	0.037	-0.085
-399.194	-100.850	0.320	0.078
-398.179	172.280	-0.100	-0.142
-397.165	17.071	-0.365	0.286
-396.150	-200.000	-0.030	0.280
-395.136	-108.780	-0.136	-0.029
-394.121	-36.440	0.139	-0.074
-393.106	-15.519	-0.078	0.049
-392.092	-56.667	0.236	0.103
-391.077	-200.000	-0.011	0.064
-390.063	-200.000	-0.044	0.233
-389.048	69.371	-0.042	0.042
-388.033	6.195	0.169	0.124
-387.019	-38.591	0.375	0.195
-386.004	25.527	-0.205	-0.168
-384.990	-105.733	-0.245	0.055
-383.975	-33.934	0.145	0.079
-382.960	109.582	-0.371	-0.440
-381.946	-7.894	0.205	-0.137
-380.931	-3.676	0.218	0.150
-379.917	397.495	-0.099	-0.204
-378.902	77.394	0.162	-0.170
-377.888	55.113	0.108	0.103
-376.873	-159.047	0.028	-0.002
-375.858	48.919	0.096	0.089
-374.844	-13.786	0.320	0.204
-373.829	-200.000	0.026	-0.154
-372.815	-34.815	-0.164	0.089
-371.800	-2.455	0.054	0.037
-370.785	450.684	0.074	0.162
-369.771	-200.000	-0.041	-0.371
-368.756	173.162	-0.128	0.182
-367.742	800.000	-0.019	-0.065
-366.727	800.000	0.080	0.297
-365.712	17.341	-0.131	0.103
-364.698	-55.747	-0.227	-0.100
-363.683	-200.000	-0.016	0.359
-362.669	-59.545	0.271	-0.115
-361.654	-119.861	0.183	0.031
-360.639	432.412	-0.054	0.115
-359.625	179.894	0.061	0.089
-358.610	800.000	0.103	0.308
-357.596	-200.000	0.015	-0.295
-356.581	-28.756	-0.366	-0.208
-355.566	301.705	0.056	0.102
-354.552	-77.107	0.363	-0.125
-353.537	800.000	-0.022	0.088
-352.523	-56.477	0.169	-0.074
-351.508	19.690	0.252	0.200
-350.493	-84.257	-0.283	-0.089
-349.479	412.602	-0.071	-0.149
-348.464	581.842	-0.019	-0.046
-347.450	186.751	0.268	-0.393
-346.435	800.000	0.092	-0.286
-345.420	121.970	-0.126	0.156
-344.406	-40.042	0.359	-0.184
-343.391	120.818	-0.108	0.132
-342.377	-87.769	-0.564	0.168
-341.362	-45.617	-0.195	0.095
-340.348	-63.054	-0.114	0.047
-339.333	-200.000	-0.054	-0.270
-338.318	-97.394	0.244	-0.063
-337.304	144.725	-0.328	0.432
-336.289	52.618	-0.248	-0.234
-335.275	-200.000	0.073	-0.325
-334.260	-63.510	0.076	0.031
-333.245	-162.998	0.061	0.003
-332.231	153.588	0.118	0.159
-331.216	130.532	-0.129	-0.163
-330.202	-200.000	0.021	0.188
-329.187	-200.000	-0.027	-0.363
-328.172	800.000	0.036	-0.149
-327.158	426.801	0.184	0.391
-326.143	800.000	0.067	0.225
-325.129	-97.015	0.201	-0.052
-324.114	800.000	0.102	0.296
-323.099	2.107	-0.012	0.009
-322.085	800.000	-0.046	-0.134
-321.070	-46.759	0.250	0.120
-320.056	361.033	-0.087	-0.172
-319.041	-119.604	0.250	0.043
-318.026	-120.575	-0.432	0.072
-317.012	-80.921	-0.284	-0.093
-315.997	108.895	0.155	0.183
-314.983	179.018	-0.232	0.334
-313.968	-200.000	-0.010	0.051
-312.953	-84.721	-0.156	-0.048
-311.939	241.619	0.124	-0.204
-310.924	-55.898	0.100	-0.044
-309.910	-26.289	0.112	-0.065
-308.895	76.129	-0.209	0.218
-307.880	-33.672	-0.318	-0.173
-306.866	-155.653	-0.107	0.007
-305.851	-80.891	0.242	-0.079
-304.837	-39.781	0.169	-0.087
-303.822	179.930	0.192	0.277
-302.807	-99.341	0.200	0.050
-301.793	82.836	0.180	-0.192
-300.778	133.478	0.189	-0.241
-299.764	376.918	0.069	-0.139
-298.749	-146.705	0.267	-0.023
-297.735	195.615	-0.075	0.113
-296.720	47.782	-0.070	0.064
-295.705	-106.498	0.369	0.081
-294.691	-35.544	-0.366	-0.196
-293.676	800.000	-0.061	-0.204
-292.662	142.576	0.015	0.019
-291.647	-92.488	-0.261	-0.072
-290.632	-200.000	-0.038	0.349
-289.618	-127.371	0.230	-0.033
-288.603	209.668	0.130	0.201
-287.589	-80.397	-0.077	0.025
-286.574	-90.382	-0.468	0.134
-285.559	107.703	-0.155	0.182
-284.545	800.000	-0.118	-0.329
-283.530	-109.470	-0.092	0.019
-282.516	-1.332	-0.093	-0.065
-281.501	786.265	0.047	-0.128
-280.486	-89.183	0.135	-0.039
-279.472	400.242	0.090	-0.185
-278.457	-40.667	0.322	-0.164
-277.443	174.409	-0.273	-0.388
-276.428	4.922	-0.163	0.118
-275.413	270.161	0.136	0.236
-274.399	-200.000	0.000	0.078
-273.384	-200.000	0.055	0.432
-272.370	91.158	0.118	-0.130
-271.355	366.606	-0.168	0.334
-270.340	-86.976	-0.252	0.075
-269.326	-63.865	-0.199	-0.080
-268.311	522.989	0.183	0.422
-267.297	-200.000	-0.062	0.401
-266.282	-49.959	-0.167	-0.078
-265.267	497.287	-0.027	0.060
-264.253	800.000	-0.012	-0.036
-263.238	800.000	0.107	-0.290
-262.224	-7.340	0.433	-0.288
-261.209	-18.957	0.038	0.023
-260.195	-156.974	-0.310	0.019
-259.180	-66.202	-0.272	-0.107
-258.165	-200.000	-0.036	0.436
-257.151	-112.852	-0.205	0.040
-256.136	4.006	-0.150	-0.108
-255.122	-150.230	-0.184	0.014
-254.107	-123.521	-0.146	-0.023
-253.092	-81.079	-0.559	0.182
-252.078	-200.000	-0.025	-0.361
-251.063	-150.052	0.098	0.007
-250.049	23.339	-0.263	-0.212
-249.034	-178.330	0.107	-0.002
-248.019	181.335	-0.151	0.219
-247.005	45.109	-0.200	-0.181
-245.990	-85.973	-0.675	-0.205
-244.976	-4.130	0.132	-0.090
-243.961	96.086	0.093	0.104
-242.946	-200.000	-0.018	-0.294
-241.932	13.054	-0.174	-0.133
-240.917	-172.418	-0.364	-0.011
-239.903	-188.823	0.052	-0.001
-238.888	800.000	0.026	0.090
-237.873	-200.000	0.029	-0.275
-236.859	-9.295	0.175	-0.115
-235.844	-119.634	0.128	-0.022
-234.830	800.000	0.027	0.105
-233.815	320.165	-0.124	0.231
-232.800	228.714	-0.192	-0.307
-231.786	435.580	-0.140	-0.298
-230.771	119.471	0.129	-0.157
-229.757	-109.092	0.346	0.072
-228.742	-92.873	-0.164	-0.045
-227.727	-23.358	-0.174	0.103
-226.713	800.000	0.047	-0.182
-225.698	-200.000	-0.024	0.169
-224.684	-39.256	-0.188	-0.097
-223.669	-163.119	0.402	-0.019
-222.655	-200.000	0.049	0.454
-221.640	-200.000	0.035	-0.370
-220.625	131.972	0.161	-0.204
-219.611	-128.626	0.254	0.035
-218.596	58.731	0.057	0.055
-217.582	-54.220	0.253	0.113
-216.567	-200.000	0.022	0.302
-215.552	675.868	-0.057	0.145
-214.538	-26.463	-0.218	0.125
-213.523	224.438	-0.111	0.176
-212.509	-129.152	-0.273	-0.037
-211.494	556.116	0.135	0.320
-210.479	-200.000	0.076	-0.370
-209.465	-59.298	-0.140	-0.059
-208.450	120.054	-0.037	-0.045
-207.436	90.990	-0.207	0.228
-206.421	157.912	-0.058	-0.078
-205.406	306.013	-0.050	-0.091
-204.392	203.244	0.152	0.231
-203.377	-139.483	-0.287	0.030
-202.363	-122.535	0.054	-0.009
-201.348	-95.560	0.222	0.058
-200.333	-24.940	-0.254	-0.148
-199.319	73.874	-0.132	-0.136
-198.304	231.480	-0.139	-0.223
-197.290	62.363	-0.193	0.189
-196.275	259.361	-0.216	0.366
-195.260	-200.000	-0.038	-0.324
-194.246	-34.661	0.328	-0.176
-193.231	800.000	0.064	-0.209
-192.217	-200.000	-0.034	-0.202
-191.202	-200.000	0.012	-0.188
-190.187	-200.000	-0.003	-0.018
-189.173	800.000	-0.086	0.239
-188.158	699.996	-0.127	-0.328
-187.144	17.258	-0.028	0.022
-186.129	-200.000	-0.008	-0.048
-185.114	800.000	-0.087	-0.339
-184.100	-35.962	0.285	0.151
-183.085	-200.000	0.010	0.161
-182.071	270.059	0.194	0.334
-181.056	62.732	-0.061	0.060
-180.042	-48.135	0.315	0.149
-179.027	138.396	-0.232	0.298
-178.012	235.664	0.105	0.170
-176.998	127.332	0.164	0.204
-175.983	-34.122	-0.147	0.079
-174.969	-147.239	0.373	0.031
-173.954	85.365	0.234	0.252
-172.939	-166.195	0.215	-0.009
-171.925	-84.047	0.257	-0.080
-170.910	448.368	-0.034	0.073
-169.896	335.312	-0.151	0.287
-168.881	-29.444	0.322	0.180
-167.866	-107.150	0.060	-0.013
-166.852	-89.339	-0.252	-0.073
-165.837	5.630	0.153	-0.111
-164.823	146.352	0.206	0.271
-163.808	-200.000	-0.068	0.308
-162.793	102.487	0.207	-0.237
-161.779	-21.558	0.192	0.114
-160.764	-35.565	0.272	0.145
-159.750	-179.592	-0.142	0.003
-158.735	71.368	-0.085	-0.086
-157.720	-200.000	0.009	-0.264
-156.706	88.011	0.175	-0.190
-155.691	215.782	0.122	-0.190
-154.677	-200.000	-0.049	0.386
-153.662	-96.770	0.195	-0.050
-152.647	-185.783	0.200	0.003
-151.633	800.000	-0.074	-0.256
-150.618	-137.016	-0.431	0.048
-149.604	-15.783	0.063	0.040
-148.589	163.727	-0.139	0.191
-147.574	-103.082	-0.224	-0.052
-146.560	-200.000	-0.021	0.137
-145.545	127.462	-0.064	-0.080
-144.531	-42.000	-0.170	0.085
-143.516	70.906	0.079	0.080
-142.502	74.381	0.124	0.128
-141.487	-200.000	-0.004	-0.121
-140.472	-200.000	0.003	-0.209
-139.458	469.800	-0.090	-0.197
-138.443	800.000	0.024	-0.092
-137.429	18.939	0.114	-0.089
-136.414	28.528	0.058	-0.048
-135.399	-200.000	-0.022	0.216
-134.385	421.711	-0.030	0.063
-133.370	-7.886	-0.024	0.016
-132.356	-200.000	-0.004	0.029
-131.341	-35.895	0.174	-0.092
-130.326	800.000	0.079	0.233
-129.312	-90.487	-0.219	0.062
-128.297	800.000	-0.096	0.301
-127.283	-63.984	-0.235	-0.094
-126.268	-11.741	-0.121	-0.078
-125.253	-200.000	-0.027	0.126
-124.239	110.548	0.275	0.324
-123.224	-12.407	0.345	-0.220
-122.210	-145.584	-0.328	0.029
-121.195	800.000	-0.034	-0.141
-120.180	800.000	-0.070	0.264
-119.166	-48.623	-0.029	-0.014
-118.151	288.017	-0.178	-0.315
-117.137	105.862	0.248	-0.286
-116.122	-145.254	0.422	0.037
-115.107	212.055	0.072	0.111
-114.093	-54.072	-0.081	-0.036
-113.078	-200.000	0.017	0.309
-112.064	-54.881	-0.243	-0.107
-111.049	-200.000	0.035	0.182
-110.034	-32.015	0.307	-0.168
-109.020	-144.743	-0.173	-0.016
-108.005	162.376	0.119	0.163
-106.991	628.611	0.042	0.104
-105.976	-200.000	-0.052	0.395
-104.962	-104.114	0.421	0.096
-103.947	-200.000	-0.001	0.006
-102.932	57.546	0.140	-0.134
-101.918	-200.000	0.043	-0.385
-100.903	-200.000	0.014	0.140
-99.889	-131.197	0.435	0.057
-98.874	-152.009	-0.101	0.007
-97.859	271.811	-0.083	-0.143
-96.845	-200.000	-0.033	-0.304
-95.830	622.821	0.258	0.634
-94.816	-200.000	-0.019	0.142
-93.801	-173.021	-0.341	-0.010
-92.786	-200.000	0.034	0.244
-91.772	800.000	0.063	0.249
-90.757	-200.000	0.030	0.461
-89.743	-8.650	0.214	-0.140
-88.728	800.000	-0.047	-0.157
-87.713	-96.822	0.143	0.037
-86.699	-200.000	0.008	-0.473
-85.684	-58.812	0.158	-0.067
-84.670	-50.875	0.237	0.109
-83.655	42.627	-0.268	0.238
-82.640	677.674	0.040	0.102
-81.626	148.697	-0.138	-0.182
-80.611	-70.817	-0.082	-0.030
-79.597	-65.031	0.087	0.034
-78.582	177.788	0.111	-0.157
-77.567	-200.000	0.008	0.074
-76.553	-72.455	0.249	0.090
-75.538	113.325	0.087	-0.103
-74.524	16.661	0.137	0.106
-73.509	305.958	-0.143	0.260
-72.494	-81.948	-0.383	0.122
-71.480	233.212	0.146	0.235
-70.465	-99.558	-0.222	-0.055
-69.451	87.312	-0.237	0.256
-68.436	137.461	-0.205	-0.262
-67.422	-71.530	0.256	-0.093
-66.407	740.202	0.053	0.139
-65.392	348.971	0.031	-0.061
-64.378	-122.565	-0.209	0.033
-63.363	-161.822	-0.225	-0.011
-62.349	800.000	-0.120	0.336
-61.334	92.446	-1.169	-1.285
-60.319	3.351	0.902	0.640
-59.305	800.000	-0.534	-1.468
-58.290	181.002	0.965	1.383
-57.276	800.000	0.468	1.276
-56.261	-200.000	128.818	631.537
-55.246	353.491	1636.083	3166.940
-54.232	133.213	2805.026	3534.541
-53.217	89.998	2192.982	2389.480
-52.203	33.400	1614.123	1366.544
-51.188	25.000	1355.581	1096.450
-50.173	22.601	1317.830	1051.578
-49.159	49.821	1388.043	1275.796
-48.144	46.477	1399.752	1265.990
-47.130	25.272	1346.864	1090.875
-46.115	21.996	1327.612	1055.578
-45.100	21.848	1322.101	1050.270
-44.086	21.959	1319.334	1048.695
-43.071	21.870	1317.233	1046.452
-42.057	21.716	1315.573	1044.172
-41.042	21.734	1314.002	1042.991
-40.027	21.831	1311.741	1041.730
-39.013	21.799	1310.304	1040.357
-37.998	21.761	1308.488	1038.651
-36.984	21.900	1306.869	1038.144
-35.969	21.947	1304.833	1036.768
-34.954	21.846	1303.549	1035.109
-33.940	21.914	1301.877	1034.144
-32.925	21.975	1300.444	1033.323
-31.911	21.904	1299.563	1032.163
-30.896	22.034	1297.657	1031.370
-29.881	22.064	1296.344	1030.461
-28.867	21.984	1295.198	1029.039
-27.852	21.879	1294.183	1027.577
-26.838	22.145	1292.229	1027.542
-25.823	22.001	1291.322	1025.939
-24.809	22.026	1289.433	1024.542
-23.794	22.032	1287.929	1023.342
-22.779	21.959	1287.390	1022.450
-21.765	22.040	1285.984	1021.763
-20.750	22.068	1284.582	1020.770
-19.736	21.901	1283.290	1018.735
-18.721	21.867	1282.264	1017.682
-17.706	21.928	1280.918	1016.925
-16.692	21.891	1280.133	1016.051
-15.677	21.813	1279.115	1014.751
-14.663	21.779	1278.233	1013.815
-13.648	21.936	1276.099	1012.984
-12.633	21.955	1275.317	1012.436
-11.619	21.809	1274.771	1011.121
-10.604	21.838	1274.235	1010.824
-9.590	21.789	1273.013	1009.532
-8.575	21.778	1272.458	1008.984
-7.560	21.802	1271.049	1007.967
-6.546	21.865	1270.385	1007.763
-5.531	21.800	1269.596	1006.725
-4.517	21.918	1268.669	1006.628
-3.502	21.871	1267.749	1005.585
-2.487	21.761	1266.903	1004.243
-1.473	21.964	1262.842	1002.143
-0.458	20.691	1249.308	984.171
0.556	16.862	1234.325	952.260
1.571	13.806	1243.731	942.109
2.586	13.167	1259.193	950.058
3.600	12.814	1246.154	938.132
4.615	9.359	1172.743	864.252
5.629	3.509	1100.917	781.667
6.644	0.794	1084.610	756.456
7.659	0.625	1082.724	754.226
8.673	0.501	1081.926	752.988
9.688	0.500	1080.542	751.954
10.702	0.600	1078.563	751.006
11.717	4.242	1081.922	771.418
12.731	10.702	1090.535	809.798
13.746	15.433	1097.183	838.348
14.761	17.103	1098.443	847.580
15.775	16.450	1096.376	842.656
16.790	15.379	1094.865	836.089
17.804	14.937	1092.601	832.086
18.819	14.332	1092.423	828.866
19.834	14.218	1091.011	827.157
20.848	13.906	1090.462	825.117
21.863	13.703	1088.982	822.915
22.877	13.488	1088.575	821.470
23.892	13.452	1087.944	820.742
24.907	13.368	1087.715	820.081
25.921	13.454	1086.577	819.577
26.936	13.517	1085.328	818.870
27.950	13.549	1084.557	818.375
28.965	13.497	1083.734	817.427
29.980	13.691	1081.939	816.953
30.994	13.617	1080.770	815.635
32.009	13.710	1079.813	815.300
33.023	13.709	1078.812	814.468
34.038	13.807	1077.263	813.706
35.053	13.660	1076.871	812.616
36.067	13.632	1076.171	811.878
37.082	13.608	1075.032	810.831
38.096	13.694	1074.217	810.565
39.111	13.652	1073.247	809.558
40.126	13.597	1072.582	808.713
41.140	13.526	1071.024	807.123
42.155	13.416	1070.350	806.009
43.169	13.428	1069.322	805.222
44.184	13.361	1068.276	804.037
45.199	13.318	1067.461	803.142
46.213	13.375	1065.976	802.231
47.228	13.574	1064.819	802.250
48.242	13.514	1063.895	801.195
49.257	13.523	1063.009	800.500
50.271	13.581	1061.956	799.915
51.286	13.581	1061.334	799.376
52.301	13.549	1060.622	798.614
53.315	13.481	1058.925	796.942
54.330	13.526	1058.009	796.396
55.344	13.501	1057.187	795.589
56.359	13.556	1056.046	794.924
57.374	13.472	1055.426	793.983
58.388	13.549	1054.834	793.834
59.403	13.486	1053.932	792.788
60.417	13.450	1053.278	792.050
61.432	13.422	1052.750	791.451
62.447	13.512	1051.389	790.788
63.461	13.454	1050.850	790.036
64.476	13.460	1049.895	789.274
65.490	13.417	1048.645	788.062
66.505	13.483	1048.057	787.862
67.520	13.498	1047.425	787.388
68.534	13.460	1046.891	786.739
69.549	13.557	1046.027	786.478
70.563	13.408	1045.005	784.935
71.578	13.384	1044.621	784.464
72.593	13.394	1043.509	783.604
73.607	13.298	1043.233	782.877
74.622	13.413	1042.668	782.924
75.636	13.458	1041.753	782.384
76.651	13.423	1040.971	781.562
77.666	13.385	1040.367	780.861
78.680	13.408	1039.404	780.174
79.695	13.341	1038.738	779.291
80.709	13.494	1038.019	779.403
81.724	13.490	1037.505	778.928
82.739	13.544	1036.611	778.441
83.753	13.510	1036.205	777.910
84.768	13.656	1035.137	777.725
85.782	13.639	1033.808	776.578
86.797	13.536	1033.218	775.580
87.812	13.503	1032.494	774.817
88.826	13.544	1031.075	773.876
89.841	13.614	1030.209	773.483
90.855	13.573	1029.223	772.482
91.870	13.626	1028.766	772.318
92.884	13.647	1027.875	771.679
93.899	13.636	1026.831	770.775
94.914	13.746	1025.903	770.521
95.928	13.694	1025.096	769.606
96.943	13.818	1024.156	769.407
97.957	13.677	1023.421	768.132
98.972	13.721	1022.365	767.475
99.987	13.637	1021.609	766.452
101.001	13.717	1020.714	766.084
102.016	13.682	1019.687	765.083
103.030	13.698	1018.766	764.399
104.045	13.713	1018.176	763.959
105.060	13.659	1017.452	763.099
106.074	13.469	1016.739	761.622
107.089	13.556	1015.634	761.127
108.103	13.621	1014.084	760.194
109.118	13.575	1013.694	759.623
110.133	13.583	1012.919	759.012
111.147	13.687	1011.783	758.573
112.162	13.512	1011.570	757.545
113.176	13.689	1010.274	757.314
114.191	13.728	1009.472	756.824
115.206	13.611	1008.882	755.781
116.220	13.729	1007.729	755.386
117.235	13.633	1006.926	754.281
118.249	13.584	1005.968	753.274
119.264	13.589	1005.326	752.751
120.279	13.647	1004.177	752.086
121.293	13.642	1003.762	751.686
122.308	13.610	1003.023	750.921
123.322	13.602	1001.960	750.023
124.337	13.627	1000.512	748.986
125.352	13.584	999.389	747.883
126.366	13.579	998.473	747.109
127.381	13.587	997.543	746.383
128.395	13.674	996.514	745.940
129.410	13.566	995.842	744.888
130.424	13.576	994.908	744.167
131.439	13.509	994.248	743.307
132.454	13.761	993.142	743.544
133.468	13.673	992.697	742.751
134.483	13.614	991.583	741.588
135.497	13.661	990.666	741.048
136.512	13.647	989.856	740.311
137.527	13.621	988.639	739.218
138.541	13.602	988.119	738.680
139.556	13.602	987.505	738.156
140.570	13.776	986.880	738.399
141.585	13.772	986.039	737.685
142.600	13.683	984.971	736.428
143.614	13.893	984.022	736.584
144.629	13.907	983.291	736.032
145.643	13.886	982.345	735.169
146.658	13.765	981.287	733.777
147.673	13.830	980.503	733.410
148.687	13.742	980.023	732.598
149.702	13.808	979.215	732.220
150.716	13.795	978.552	731.603
151.731	13.788	977.181	730.485
152.746	13.643	976.964	729.617
153.760	13.827	976.159	729.762
154.775	13.924	975.206	729.408
155.789	13.947	974.912	729.224
156.804	13.922	973.741	728.175
157.819	13.964	973.386	728.032
158.833	13.904	972.785	727.254
159.848	13.943	971.576	726.458
160.862	14.024	970.679	726.077
161.877	13.954	969.795	725.045
162.892	13.906	968.700	723.952
163.906	13.927	968.003	723.460
164.921	13.931	967.387	722.950
165.935	13.990	966.526	722.499
166.950	13.939	965.606	721.530
167.964	13.869	965.129	720.803
168.979	13.954	963.840	720.148
169.994	13.995	963.004	719.634
171.008	13.982	962.060	718.811
172.023	14.104	961.630	718.952
173.037	14.002	961.101	718.054
174.052	14.133	959.967	717.707
175.067	13.911	959.653	716.454
176.081	14.023	958.946	716.342
177.096	14.047	958.367	715.949
178.110	14.141	957.437	715.597
179.125	14.053	957.229	714.998
180.140	14.070	956.727	714.635
181.154	14.151	956.086	714.439
182.169	14.130	955.455	713.816
183.183	14.292	954.893	714.026
184.198	14.200	954.093	712.970
185.213	14.287	952.989	712.456
186.227	14.357	952.476	712.308
187.242	14.206	952.186	711.381
188.256	14.260	951.468	711.015
189.271	14.244	950.364	710.056
190.286	14.332	949.388	709.641
191.300	14.272	949.241	709.213
192.315	14.119	948.466	707.919
193.329	14.190	947.759	707.632
194.344	14.205	947.235	707.241
195.359	14.272	946.196	706.688
196.373	14.356	945.641	706.567
197.388	14.311	945.268	706.036
198.402	14.373	945.064	706.083
199.417	14.553	944.109	706.067
200.432	14.483	943.833	705.505
201.446	14.472	943.339	705.024
202.461	14.612	942.612	705.011
203.475	14.422	942.150	703.802
204.490	14.474	941.068	703.150
205.504	14.364	940.654	702.316
206.519	14.514	939.748	702.208
207.534	14.630	938.486	701.688
208.548	14.507	938.472	701.102
209.563	14.449	937.990	700.435
210.577	14.509	937.014	699.896
211.592	14.486	936.523	699.370
212.607	14.652	935.213	699.025
213.621	14.547	934.818	698.228
214.636	14.663	933.767	697.869
215.650	14.642	932.751	696.960
216.665	14.730	932.480	697.062
217.680	14.649	931.968	696.281
218.694	14.779	931.011	696.043
219.709	14.626	930.359	694.859
220.723	14.735	929.781	694.820
221.738	14.658	928.987	693.842
222.753	14.761	928.516	693.858
223.767	14.699	928.029	693.175
224.782	14.946	926.743	693.178
225.796	14.723	927.032	692.408
226.811	14.800	926.269	692.097
227.826	14.895	925.357	691.745
228.840	14.833	924.781	691.000
229.855	14.823	923.854	690.203
230.869	14.740	923.167	689.287
231.884	14.693	922.552	688.573
232.899	14.867	921.487	688.432
233.913	14.791	920.718	687.486
234.928	14.769	920.541	687.203
235.942	14.719	919.969	686.506
236.957	14.824	919.444	686.489
237.972	14.765	918.387	685.396
238.986	14.998	917.801	685.850
240.001	14.784	917.329	684.562
241.015	15.082	916.485	685.090
242.030	14.922	915.984	684.004
243.045	14.906	915.387	683.428
244.059	14.944	914.781	683.074
245.074	15.007	913.870	682.587
246.088	14.958	913.243	681.861
247.103	15.028	912.467	681.505
248.117	15.075	912.106	681.366
249.132	15.015	911.529	680.633
250.147	15.052	911.192	680.470
251.161	15.263	910.191	680.517
252.176	15.119	909.549	679.394
253.190	15.252	908.609	679.172
254.205	15.202	907.949	678.416
255.220	15.246	907.248	678.011
256.234	15.316	906.902	677.973
257.249	15.423	906.100	677.745
258.263	15.304	905.456	676.724
259.278	15.397	904.539	676.353
260.293	15.283	903.805	675.285
261.307	15.532	903.293	675.845
262.322	15.460	903.085	675.342
263.336	15.561	902.118	674.965
264.351	15.430	901.399	673.842
265.366	15.523	901.015	673.868
266.380	15.494	900.582	673.365
267.395	15.420	899.473	672.184
268.409	15.513	898.721	671.934
269.424	15.537	897.902	671.356
270.439	15.433	897.629	670.676
271.453	15.592	896.420	670.352
272.468	15.650	896.162	670.330
273.482	15.557	895.582	669.466
274.497	15.579	895.042	669.091
275.512	15.501	894.385	668.227
276.526	15.477	894.218	667.949
277.541	15.561	893.755	667.878
278.555	15.540	892.688	666.939
279.570	15.779	891.738	667.120
280.585	15.671	891.214	666.238
281.599	15.615	890.574	665.480
282.614	15.758	889.786	665.399
283.628	15.825	889.109	665.095
284.643	15.633	889.038	664.228
285.657	15.846	887.947	664.194
286.672	15.780	887.554	663.580
287.687	15.807	886.575	662.894
288.701	15.740	886.320	662.382
289.716	15.823	885.600	662.114
290.730	15.895	884.757	661.708
291.745	15.926	884.227	661.374
292.760	15.830	883.902	660.694
293.774	15.897	882.967	660.199
294.789	15.929	882.152	659.660
295.803	15.908	881.756	659.220
296.818	15.972	880.644	658.583
297.833	15.929	880.180	658.008
298.847	15.929	879.847	657.701
299.862	16.027	879.177	657.525
300.876	15.800	878.673	656.203
301.891	16.085	877.943	656.710
302.906	16.060	877.272	656.053
303.920	16.073	877.095	655.916
304.935	16.205	875.938	655.505
305.949	16.078	875.816	654.860
306.964	16.168	875.164	654.665
307.979	16.185	874.836	654.427
308.993	16.180	874.144	653.834
310.008	16.249	873.317	653.425
311.022	16.211	872.568	652.657
312.037	16.308	871.690	652.320
313.052	16.116	871.647	651.487
314.066	16.135	871.086	651.085
315.081	16.130	870.796	650.790
316.095	16.108	869.783	649.892
317.110	16.256	869.211	649.976
318.125	16.224	868.623	649.354
319.139	16.301	868.048	649.164
320.154	16.288	867.868	648.923
321.168	16.310	866.978	648.284
322.183	16.419	866.613	648.370
323.197	16.210	866.622	647.518
324.212	16.297	865.717	647.119
325.227	16.357	864.756	646.572
326.241	16.326	864.376	646.112
327.256	16.272	863.751	645.383
328.270	16.384	863.180	645.328
329.285	16.323	862.750	644.715
330.300	16.224	862.147	643.831
331.314	16.243	861.657	643.480
332.329	16.383	861.308	643.697
333.343	16.404	861.069	643.541
334.358	16.467	860.685	643.437
335.373	16.320	859.912	642.241
336.387	16.443	859.265	642.170
337.402	16.446	859.109	642.007
338.416	16.516	858.912	642.068
339.431	16.732	858.070	642.202
340.446	16.648	857.957	641.741
341.460	16.381	857.633	640.431
342.475	16.702	857.002	641.117
343.489	16.773	856.815	641.189
344.504	16.834	856.042	640.788
345.519	16.679	855.956	640.079
346.533	16.646	855.404	639.485
347.548	16.626	855.127	639.146
348.562	16.558	854.659	638.483
349.577	16.701	853.644	638.208
350.592	16.697	852.939	637.608
351.606	16.880	851.972	637.517
352.621	16.767	851.526	636.704
353.635	16.694	851.242	636.161
354.650	16.700	850.330	635.445
355.665	16.663	849.669	634.755
356.679	16.955	848.995	635.290
357.694	16.759	848.410	634.063
358.708	16.912	847.641	634.004
359.723	16.850	847.226	633.403
360.738	16.789	846.976	632.935
361.752	16.905	846.231	632.755
362.767	16.982	845.165	632.187
363.781	16.918	844.984	631.759
364.796	17.117	844.963	632.429
365.810	17.100	843.856	631.481
366.825	16.976	843.957	631.039
367.840	17.089	843.251	630.876
368.854	16.986	842.688	630.016
369.869	17.076	842.237	629.956
370.883	17.052	841.831	629.510
371.898	17.182	842.038	630.089
372.913	17.215	841.030	629.402
373.927	17.185	840.296	628.686
374.942	17.209	839.826	628.366
375.956	17.279	839.410	628.261
376.971	17.210	839.361	627.912
377.986	17.297	838.519	627.548
379.000	17.355	838.081	627.379
380.015	17.238	837.849	626.718
381.029	17.317	836.797	626.165
382.044	17.388	836.313	626.010
383.059	17.466	835.847	625.893
384.073	17.476	835.058	625.283
385.088	17.515	834.355	624.846
386.102	17.285	834.258	623.874
387.117	17.368	833.619	623.642
388.132	17.325	833.050	623.006
389.146	17.489	832.146	622.875
390.161	17.380	832.170	622.438
391.175	17.525	831.663	622.535
392.190	17.328	831.105	621.343
393.205	17.432	830.671	621.342
394.219	17.338	830.317	620.677
395.234	17.493	829.803	620.804
396.248	17.467	829.436	620.379
397.263	17.383	829.142	619.799
398.278	17.410	828.342	619.244
399.292	17.402	828.182	619.042
400.307	17.451	827.758	618.849
401.321	17.554	827.419	618.913
402.336	17.377	826.699	617.681
403.350	17.413	826.242	617.412
404.365	17.624	825.536	617.595
405.380	17.661	825.199	617.423
406.394	17.632	824.631	616.839
407.409	17.654	824.119	616.480
408.423	17.713	823.669	616.304
409.438	17.651	823.608	615.977
410.453	17.782	822.911	615.874
411.467	17.879	822.073	615.545
412.482	17.779	821.974	615.056
413.496	17.756	822.027	614.957
414.511	17.822	821.460	614.715
415.526	17.700	821.173	614.007
416.540	17.856	820.528	614.030
417.555	17.912	819.802	613.637
418.569	17.976	819.628	613.682
419.584	17.974	819.169	613.276
420.599	17.955	818.601	612.727
421.613	114.586	1299.909	1487.876
422.628	99.337	1369.991	1487.920
