DTS Sentinel unit serial number:	SN413079Multiplexer serial number:	ORYXHardware model number:	OX4-SRSoftware version number:	ORYX F/W v4.00 Oryx Data Collector v3.7.2.0data status	okinstallation	princeton_trtdifferential loss correction	single-endedforward channel	channel 1reverse channel	N/Adate	2019/09/16time	05:22:35forward acquisition time	60.00reverse acquisition time	0.00gamma	496.2192k internal	0.2332k external	0.2332temperature offset calibration	0.9982default loss term (dB/km)	0.3790temperature slope calibration	1.0000multiplexer offset coefficient	1.0000multiplexer slope coefficient	1.0000fibre end	0.00T internal ref (°C)	27.25T ext. ref 1 (°C)	11.10T ext. ref 2 (°C)	22.08length (m)	temperature (°C)	Stokes	anti-Stokes-747.200	32.231	0.036	0.032
-746.185	-57.810	-0.330	0.145
-745.171	251.866	0.073	-0.125
-744.156	93.242	-0.084	-0.096
-743.142	369.928	-0.034	0.070
-742.127	-200.000	-0.099	0.505
-741.112	173.317	-0.388	-0.563
-740.098	270.407	-0.133	0.235
-739.083	34.808	0.169	0.149
-738.069	800.000	0.065	-0.224
-737.054	105.583	0.213	-0.253
-736.039	216.503	-0.126	0.202
-735.025	-200.000	0.039	0.299
-734.010	800.000	-0.044	-0.162
-732.996	-200.000	0.006	0.026
-731.981	-10.004	-0.202	-0.135
-730.966	-104.034	-0.143	-0.034
-729.952	800.000	-0.074	-0.287
-728.937	800.000	0.076	-0.337
-727.923	-43.303	0.107	0.054
-726.908	496.201	-0.116	-0.268
-725.894	338.683	0.045	-0.087
-724.879	644.533	0.107	-0.275
-723.864	-128.144	-0.398	0.057
-722.850	274.866	0.069	-0.124
-721.835	-78.746	0.281	0.097
-720.821	139.576	0.090	0.120
-719.806	52.525	-0.318	-0.306
-718.791	258.617	-0.088	-0.152
-717.777	800.000	0.049	-0.183
-716.762	-119.209	0.268	-0.047
-715.748	-200.000	-0.032	0.158
-714.733	168.681	0.077	0.110
-713.718	-111.800	-0.220	0.045
-712.704	-200.000	0.012	-0.120
-711.689	800.000	0.083	-0.247
-710.675	201.016	0.073	0.113
-709.660	-200.000	-0.013	-0.226
-708.645	102.965	0.130	-0.153
-707.631	125.043	-0.143	-0.181
-706.616	197.641	0.087	0.134
-705.602	436.761	0.024	-0.052
-704.587	-103.967	-0.380	0.089
-703.572	-171.865	0.138	-0.005
-702.558	-83.281	0.057	0.018
-701.543	800.000	-0.123	-0.357
-700.529	-183.617	0.204	-0.004
-699.514	-47.780	0.426	0.207
-698.499	557.295	0.081	-0.196
-697.485	-200.000	-0.008	-0.160
-696.470	-37.286	0.212	-0.114
-695.456	-200.000	0.001	-0.415
-694.441	800.000	-0.013	-0.042
-693.426	229.396	0.028	0.046
-692.412	-39.470	-0.125	-0.066
-691.397	23.683	0.082	0.068
-690.383	-55.428	-0.104	0.047
-689.368	-3.668	0.167	0.117
-688.354	-65.723	0.087	-0.035
-687.339	62.893	-0.039	0.040
-686.324	235.886	0.200	0.332
-685.310	218.194	0.121	0.194
-684.295	-126.591	-0.160	-0.024
-683.281	-200.000	-0.013	-0.333
-682.266	53.017	-0.146	0.140
-681.251	-200.000	-0.071	-0.512
-680.237	-4.949	-0.207	0.143
-679.222	43.254	0.213	0.195
-678.208	-200.000	-0.088	-0.521
-677.193	240.455	0.122	-0.204
-676.178	448.732	-0.162	-0.357
-675.164	800.000	0.058	0.244
-674.149	689.444	0.130	-0.342
-673.135	41.532	0.154	-0.140
-672.120	-163.115	0.351	0.017
-671.105	60.083	-0.203	0.202
-670.091	-200.000	0.010	0.265
-669.076	-81.225	-0.291	-0.096
-668.062	-200.000	0.017	-0.253
-667.047	319.782	-0.156	-0.297
-666.032	-43.824	-0.185	-0.093
-665.018	-72.679	-0.172	0.064
-664.003	-3.996	0.050	0.035
-662.989	-200.000	0.016	-0.112
-661.974	-123.468	-0.681	-0.109
-660.959	-97.040	-0.154	-0.040
-659.945	5.033	0.079	0.058
-658.930	14.310	-0.040	-0.031
-657.916	-178.964	0.326	-0.007
-656.901	-13.848	0.183	0.119
-655.886	45.320	0.200	0.185
-654.872	800.000	-0.057	-0.179
-653.857	-200.000	-0.023	-0.129
-652.843	-78.963	-0.379	-0.129
-651.828	800.000	-0.102	0.291
-650.814	285.469	-0.110	0.198
-649.799	216.627	0.113	-0.180
-648.784	16.720	0.184	-0.146
-647.770	72.369	0.181	-0.189
-646.755	0.463	-0.199	0.142
-645.741	-29.325	-0.220	-0.126
-644.726	-156.651	-0.320	-0.020
-643.711	131.509	-0.028	0.036
-642.697	29.637	-0.047	-0.040
-641.682	-96.728	-0.216	0.057
-640.668	237.688	0.180	0.299
-639.653	-200.000	0.036	-0.167
-638.638	-86.447	-0.328	0.101
-637.624	-200.000	0.036	-0.257
-636.609	471.999	-0.167	-0.376
-635.595	103.005	0.032	0.038
-634.580	21.654	-0.179	0.146
-633.565	-70.104	-0.017	0.007
-632.551	-200.000	0.022	0.260
-631.536	302.291	0.172	-0.318
-630.522	49.753	0.141	0.133
-629.507	-52.792	0.172	0.079
-628.492	7.931	-0.191	0.143
-627.478	77.226	0.009	-0.010
-626.463	37.023	0.282	-0.249
-625.449	800.000	0.105	0.295
-624.434	800.000	0.061	0.203
-623.419	74.040	0.079	0.083
-622.405	25.816	-0.242	-0.202
-621.390	-52.608	0.189	0.087
-620.376	-152.952	0.192	0.014
-619.361	-106.915	0.150	0.033
-618.346	-194.196	-0.281	0.002
-617.332	40.291	-0.061	0.055
-616.317	-81.599	-0.370	-0.122
-615.303	139.476	-0.123	0.162
-614.288	-46.322	-0.076	-0.037
-613.273	-108.907	0.095	0.020
-612.259	47.568	-0.258	-0.241
-611.244	-43.448	-0.067	-0.034
-610.230	-98.733	-0.424	0.108
-609.215	231.913	-0.143	-0.234
-608.201	800.000	-0.063	-0.191
-607.186	-55.653	-0.360	-0.161
-606.171	-200.000	0.005	0.025
-605.157	193.902	0.151	-0.229
-604.142	-200.000	-0.076	-0.384
-603.128	91.970	0.056	0.063
-602.113	269.483	0.071	-0.125
-601.098	800.000	0.071	-0.263
-600.084	41.500	0.044	-0.040
-599.069	-107.626	-0.271	0.059
-598.055	692.595	-0.081	-0.212
-597.040	-10.628	0.137	-0.091
-596.025	725.955	0.157	0.418
-595.011	-200.000	0.013	-0.211
-593.996	-117.126	0.337	0.061
-592.982	472.505	-0.091	-0.204
-591.967	-30.053	0.272	0.155
-590.952	800.000	0.051	-0.176
-589.938	-147.710	-0.373	-0.031
-588.923	-160.419	-0.209	0.011
-587.909	9.168	-0.138	-0.105
-586.894	-174.852	0.102	0.003
-585.879	800.000	0.013	0.052
-584.865	800.000	0.076	0.241
-583.850	33.825	0.185	-0.161
-582.836	-200.000	-0.004	0.216
-581.821	41.668	-0.168	0.152
-580.806	403.569	0.011	-0.022
-579.792	-106.707	0.200	0.044
-578.777	-18.973	0.166	0.103
-577.763	-13.428	0.217	-0.141
-576.748	-58.873	-0.266	-0.115
-575.733	34.662	-0.311	0.271
-574.719	800.000	0.036	0.143
-573.704	-75.341	0.116	-0.041
-572.690	-200.000	-0.041	-0.249
-571.675	-49.609	0.285	0.135
-570.661	190.019	0.082	-0.123
-569.646	255.118	0.209	-0.357
-568.631	800.000	0.045	-0.145
-567.617	359.948	-0.148	0.296
-566.602	-131.409	0.297	-0.039
-565.588	-200.000	0.005	-0.163
-564.573	-200.000	-0.003	0.089
-563.558	800.000	-0.114	0.440
-562.544	-54.886	-0.267	0.120
-561.529	8.988	0.362	0.273
-560.515	32.099	0.148	0.127
-559.500	-167.942	0.241	0.009
-558.485	-200.000	0.021	0.127
-557.471	2.930	0.415	-0.301
-556.456	167.185	-0.266	0.377
-555.442	-200.000	0.022	0.342
-554.427	800.000	-0.086	-0.242
-553.412	185.587	-0.096	0.143
-552.398	31.318	-0.023	0.020
-551.383	8.431	0.207	0.156
-550.369	417.965	0.091	0.195
-549.354	-200.000	0.016	-0.073
-548.339	-172.881	-0.404	0.013
-547.325	-52.961	-0.273	-0.125
-546.310	9.134	0.321	-0.242
-545.296	-200.000	0.017	-0.087
-544.281	441.425	0.045	-0.098
-543.266	305.970	0.057	-0.105
-542.252	-36.296	-0.206	-0.111
-541.237	200.695	-0.121	-0.186
-540.223	-200.000	0.069	0.309
-539.208	-72.765	-0.260	0.095
-538.193	203.900	-0.176	0.272
-537.179	572.997	-0.105	0.254
-536.164	80.884	-0.322	-0.346
-535.150	-94.506	-0.617	-0.168
-534.135	-200.000	-0.003	0.097
-533.121	-31.743	-0.220	-0.123
-532.106	256.250	0.183	-0.314
-531.091	-92.051	-0.080	0.023
-530.077	-200.000	-0.003	-0.392
-529.062	28.122	0.174	0.146
-528.048	79.376	0.181	0.194
-527.033	-200.000	-0.034	-0.241
-526.018	720.758	0.118	0.314
-525.004	-101.605	-0.049	-0.012
-523.989	52.984	-0.239	-0.228
-522.975	-200.000	-0.043	-0.335
-521.960	163.754	-0.141	-0.198
-520.945	-63.762	-0.214	-0.087
-519.931	-47.547	-0.247	-0.119
-518.916	-171.650	0.364	-0.012
-517.902	-200.000	-0.009	-0.291
-516.887	-36.099	0.244	0.131
-515.872	-66.555	-0.126	0.050
-514.858	32.266	-0.349	0.300
-513.843	521.545	-0.136	0.318
-512.829	332.142	-0.096	-0.185
-511.814	-200.000	-0.017	0.202
-510.799	419.873	0.064	0.137
-509.785	-130.880	-0.285	0.038
-508.770	800.000	0.077	0.250
-507.756	-62.602	0.311	0.128
-506.741	-156.531	0.265	0.016
-505.726	63.926	-0.242	0.242
-504.712	40.060	-0.091	-0.081
-503.697	128.696	-0.136	0.173
-502.683	-200.000	0.071	0.355
-501.668	-16.390	0.142	0.090
-500.653	-118.513	0.190	-0.034
-499.639	-70.383	0.364	0.138
-498.624	445.695	0.098	-0.216
-497.610	511.021	0.156	0.362
-496.595	-93.097	0.208	-0.058
-495.581	-50.192	0.096	0.045
-494.566	-116.186	-0.258	-0.048
-493.551	-112.013	0.091	0.018
-492.537	-105.649	-0.153	-0.034
-491.522	-200.000	0.026	0.153
-490.508	-83.889	0.266	-0.084
-489.493	-200.000	0.005	0.401
-488.478	519.006	-0.125	-0.292
-487.464	-80.833	0.350	-0.116
-486.449	505.666	-0.062	-0.143
-485.435	-200.000	-0.018	-0.307
-484.420	692.249	0.072	-0.187
-483.405	-43.035	0.251	-0.127
-482.391	249.625	0.148	-0.250
-481.376	696.538	-0.009	-0.023
-480.362	105.303	0.297	0.349
-479.347	800.000	-0.093	0.305
-478.332	-7.423	-0.128	-0.086
-477.318	-200.000	0.045	0.352
-476.303	67.338	-0.126	-0.128
-475.289	266.589	-0.055	-0.095
-474.274	-109.991	0.085	-0.018
-473.259	-48.724	-0.172	-0.082
-472.245	-156.543	-0.446	0.028
-471.230	-56.614	-0.196	0.086
-470.216	-26.283	-0.236	0.138
-469.201	269.254	-0.232	0.405
-468.186	129.836	0.102	0.130
-467.172	-18.307	0.186	0.116
-466.157	69.195	-0.117	-0.119
-465.143	-42.805	0.276	0.140
-464.128	800.000	0.020	0.083
-463.113	98.448	-0.347	0.398
-462.099	800.000	0.047	0.130
-461.084	717.338	0.008	0.020
-460.070	745.404	0.152	-0.407
-459.055	-129.734	0.323	0.044
-458.040	45.348	0.237	0.217
-457.026	-113.254	-0.186	-0.036
-456.011	-157.988	-0.290	0.017
-454.997	-102.624	0.024	-0.006
-453.982	-56.916	-0.143	0.063
-452.968	-142.627	0.177	-0.017
-451.953	21.828	-0.232	-0.188
-450.938	-200.000	0.034	-0.168
-449.924	50.929	-0.116	0.109
-448.909	-157.969	0.296	-0.017
-447.895	-173.302	0.145	-0.004
-446.880	202.830	0.264	0.406
-445.865	-44.041	-0.180	0.090
-444.851	-175.567	0.015	-0.000
-443.836	-24.530	0.248	-0.147
-442.822	457.647	-0.133	0.293
-441.807	800.000	0.066	0.269
-440.792	-200.000	0.002	-0.186
-439.778	22.575	0.362	0.295
-438.763	245.865	-0.027	-0.046
-437.749	1.297	0.203	0.145
-436.734	-159.931	0.133	-0.007
-435.719	-47.517	0.164	0.079
-434.705	123.379	0.068	0.085
-433.690	-100.543	-0.115	0.028
-432.676	204.407	-0.067	-0.103
-431.661	298.565	-0.176	0.322
-430.646	800.000	-0.045	-0.154
-429.632	210.209	0.306	-0.477
-428.617	-1.707	-0.137	-0.096
-427.603	28.499	0.208	-0.175
-426.588	800.000	-0.033	0.098
-425.573	-81.206	0.211	0.069
-424.559	106.441	0.087	-0.102
-423.544	-76.121	0.099	-0.035
-422.530	-100.509	-0.243	0.060
-421.515	-121.094	-0.179	-0.030
-420.500	-86.177	0.118	-0.036
-419.486	182.773	-0.198	0.290
-418.471	189.412	-0.203	0.302
-417.457	-56.482	0.123	-0.054
-416.442	-139.386	-0.121	-0.013
-415.428	136.142	0.032	0.042
-414.413	-122.643	0.155	-0.025
-413.398	-137.650	-0.202	-0.023
-412.384	777.102	0.060	0.162
-411.369	85.539	0.340	0.371
-410.355	-200.000	-0.032	0.327
-409.340	208.288	0.087	0.135
-408.325	-123.671	0.139	0.022
-407.311	160.973	0.057	-0.079
-406.296	53.147	-0.168	0.160
-405.282	-200.000	0.054	-0.268
-404.267	100.053	0.108	-0.124
-403.252	-83.036	0.088	-0.028
-402.238	-200.000	-0.006	0.137
-401.223	-200.000	0.032	0.585
-400.209	-45.647	-0.215	-0.105
-399.194	205.705	-0.124	-0.191
-398.179	19.278	-0.128	0.102
-397.165	257.918	0.179	0.305
-396.150	-35.305	-0.062	-0.033
-395.136	-157.731	-0.497	0.029
-394.121	294.746	0.228	0.414
-393.106	174.039	0.137	-0.196
-392.092	746.276	0.088	0.235
-391.077	65.442	0.069	-0.069
-390.063	-72.224	-0.126	-0.046
-389.048	800.000	-0.067	-0.283
-388.033	-200.000	0.062	-0.597
-387.019	-200.000	0.006	-0.097
-386.004	7.484	0.237	0.175
-384.990	24.839	-0.077	-0.064
-383.975	150.792	0.133	0.179
-382.960	-200.000	-0.012	-0.135
-381.946	-2.572	-0.058	-0.040
-380.931	182.038	-0.057	-0.083
-379.917	501.125	-0.131	-0.299
-378.902	250.428	0.094	-0.158
-377.888	492.616	-0.100	0.227
-376.873	11.746	-0.332	0.252
-375.858	-70.905	-0.448	-0.167
-374.844	19.333	0.342	0.273
-373.829	-10.151	0.234	0.154
-372.815	261.632	-0.059	-0.102
-371.800	24.229	-0.402	-0.329
-370.785	-65.726	0.244	0.097
-369.771	-200.000	0.013	-0.061
-368.756	-111.038	0.291	0.059
-367.742	136.260	0.107	0.138
-366.727	-124.541	-0.099	0.015
-365.712	-94.913	0.154	0.041
-364.698	108.747	-0.140	-0.165
-363.683	21.248	-0.125	0.101
-362.669	16.392	0.034	0.027
-361.654	-26.621	0.164	-0.095
-360.639	126.688	0.223	-0.280
-359.625	-124.621	0.156	0.024
-358.610	-200.000	-0.006	-0.027
-357.596	800.000	0.058	-0.167
-356.581	-58.144	0.233	0.101
-355.566	-102.760	0.158	-0.037
-354.552	33.586	0.125	-0.108
-353.537	-90.164	-0.096	0.028
-352.523	-101.872	0.215	0.051
-351.508	144.661	0.198	0.262
-350.493	17.251	0.189	0.149
-349.479	378.517	0.092	-0.186
-348.464	-200.000	-0.002	0.043
-347.450	94.765	0.162	0.182
-346.435	183.648	-0.073	-0.106
-345.420	26.800	0.055	0.046
-344.406	-200.000	-0.025	0.120
-343.391	286.412	-0.102	-0.183
-342.377	-200.000	0.046	-0.222
-341.362	-200.000	-0.070	0.499
-340.348	800.000	-0.039	0.116
-339.333	370.977	0.197	-0.396
-338.318	-200.000	-0.014	-0.221
-337.304	-123.880	-0.267	0.042
-336.289	-200.000	-0.013	-0.116
-335.275	-200.000	0.001	0.147
-334.260	-142.180	-0.325	-0.032
-333.245	281.573	-0.155	-0.275
-332.231	800.000	0.147	-0.626
-331.216	262.087	-0.193	0.331
-330.202	-100.599	-0.257	0.063
-329.187	-200.000	0.021	0.161
-328.172	99.817	-0.013	-0.015
-327.158	-157.537	0.131	0.008
-326.143	-89.953	-0.181	-0.052
-325.129	-200.000	0.034	-0.218
-324.114	696.449	-0.061	-0.159
-323.099	47.587	-0.132	-0.122
-322.085	171.708	-0.071	0.101
-321.070	-93.513	0.485	0.133
-320.056	85.386	-0.147	0.160
-319.041	-34.045	0.292	0.159
-318.026	54.713	0.228	-0.217
-317.012	-110.399	-0.186	0.038
-315.997	-159.421	-0.182	0.010
-314.983	-135.561	-0.252	0.030
-313.968	-150.835	-0.310	-0.023
-312.953	-21.963	-0.119	-0.072
-311.939	235.947	0.199	-0.325
-310.924	-5.667	0.247	0.167
-309.910	-200.000	-0.036	-0.179
-308.895	-139.848	-0.079	0.008
-307.880	-136.164	0.188	-0.022
-306.866	-140.014	0.175	-0.018
-305.851	-46.828	0.026	-0.012
-304.837	800.000	-0.096	-0.400
-303.822	-39.357	0.160	0.083
-302.807	800.000	0.034	-0.140
-301.793	-39.654	0.148	0.076
-300.778	-116.165	0.156	0.029
-299.764	-109.112	-0.190	0.040
-298.749	-200.000	-0.064	-0.000
-297.735	800.000	0.053	-0.203
-296.720	-127.106	-0.309	-0.045
-295.705	46.921	-0.205	0.188
-294.691	154.126	-0.134	-0.181
-293.676	-180.645	-0.172	0.003
-292.662	-128.608	0.197	0.028
-291.647	58.768	0.226	-0.220
-290.632	97.965	0.060	-0.068
-289.618	344.877	0.056	-0.109
-288.603	169.349	0.188	0.265
-287.589	-85.599	-0.119	-0.036
-286.574	662.429	-0.147	-0.375
-285.559	-108.044	0.256	0.055
-284.545	-6.885	-0.200	-0.134
-283.530	105.549	0.228	-0.266
-282.516	800.000	-0.039	-0.153
-281.501	259.097	-0.164	-0.280
-280.486	-200.000	-0.030	-0.299
-279.472	10.328	0.237	-0.178
-278.457	94.110	-0.163	-0.183
-277.443	-54.698	-0.088	-0.039
-276.428	-94.440	-0.108	-0.029
-275.413	364.583	0.011	0.021
-274.399	-200.000	0.018	-0.134
-273.384	688.370	0.120	0.310
-272.370	94.317	0.115	-0.129
-271.355	-30.344	0.167	-0.094
-270.340	800.000	-0.025	0.081
-269.326	-27.447	0.123	0.070
-268.311	800.000	-0.031	0.132
-267.297	-68.943	-0.155	0.059
-266.282	10.820	0.151	-0.114
-265.267	223.015	-0.163	-0.260
-264.253	6.398	0.125	-0.092
-263.238	-200.000	0.006	0.229
-262.224	-50.803	-0.628	-0.291
-261.209	-200.000	-0.027	0.187
-260.195	-96.462	0.172	-0.045
-259.180	-157.484	0.149	0.009
-258.165	85.417	-0.180	-0.195
-257.151	-64.384	-0.144	-0.058
-256.136	-187.473	0.297	0.004
-255.122	-200.000	-0.034	-0.168
-254.107	-45.111	0.063	0.031
-253.092	-61.800	-0.155	-0.064
-252.078	800.000	-0.065	0.245
-251.063	-91.000	0.020	0.006
-250.049	-71.267	-0.088	0.033
-249.034	-200.000	-0.006	-0.074
-248.019	271.538	0.035	0.060
-247.005	67.710	0.255	-0.257
-245.990	-87.574	-0.189	-0.056
-244.976	-4.863	-0.258	0.175
-243.961	134.951	0.271	-0.347
-242.946	-3.303	0.225	0.155
-241.932	-61.956	-0.279	-0.115
-240.917	-200.000	-0.046	0.308
-239.903	-53.129	0.164	0.074
-238.888	68.766	0.239	0.242
-237.873	800.000	0.093	0.270
-236.859	673.478	0.066	-0.169
-235.844	-190.293	-0.279	0.003
-234.830	800.000	-0.073	0.264
-233.815	-200.000	-0.007	-0.125
-232.800	-38.299	-0.464	-0.242
-231.786	64.780	-0.173	0.173
-230.771	-200.000	-0.021	0.216
-229.757	-108.720	-0.256	-0.054
-228.742	-200.000	-0.018	0.092
-227.727	-200.000	0.009	0.206
-226.713	-200.000	-0.019	0.434
-225.698	-200.000	0.037	-0.206
-224.684	21.646	-0.044	-0.035
-223.669	-42.814	0.146	-0.073
-222.655	-93.474	-0.219	-0.060
-221.640	-116.177	-0.289	0.053
-220.625	20.564	0.276	-0.220
-219.611	258.091	0.094	-0.159
-218.596	55.850	-0.433	0.414
-217.582	-145.787	0.055	0.005
-216.567	-88.885	0.219	0.064
-215.552	25.628	0.215	-0.176
-214.538	-150.655	-0.234	-0.018
-213.523	-113.679	-0.290	-0.056
-212.509	-164.721	0.309	-0.014
-211.494	-148.443	0.255	0.021
-210.479	-95.589	-0.133	-0.035
-209.465	-19.355	-0.037	0.023
-208.450	116.538	0.176	0.213
-207.436	-70.588	0.054	0.020
-206.421	237.840	0.134	-0.219
-205.406	677.941	-0.028	0.071
-204.392	49.576	0.045	0.042
-203.377	45.926	-0.119	0.108
-202.363	800.000	0.083	-0.238
-201.348	-200.000	0.006	0.462
-200.333	-200.000	0.000	0.017
-199.319	154.410	0.152	0.206
-198.304	-140.407	-0.117	-0.012
-197.290	-31.817	0.330	0.182
-196.275	-143.822	-0.129	0.012
-195.260	-200.000	-0.023	-0.126
-194.246	-103.023	-0.093	0.022
-193.231	-130.359	0.244	0.033
-192.217	-142.090	-0.154	0.015
-191.202	123.783	0.189	-0.233
-190.187	181.551	0.126	0.183
-189.173	160.438	0.091	0.126
-188.158	-68.093	-0.137	0.053
-187.144	800.000	-0.121	-0.335
-186.129	194.851	-0.034	0.051
-185.114	-200.000	-0.026	-0.193
-184.100	-46.781	-0.066	0.032
-183.085	-42.470	-0.191	0.096
-182.071	38.453	0.194	-0.170
-181.056	203.341	0.149	-0.226
-180.042	-144.189	0.361	0.033
-179.027	594.176	0.086	-0.209
-178.012	-65.109	0.268	0.106
-176.998	-200.000	0.024	0.221
-175.983	-106.797	-0.181	-0.039
-174.969	-200.000	-0.017	-0.282
-173.954	800.000	0.075	-0.209
-172.939	266.945	-0.140	0.241
-171.925	-122.309	-0.332	-0.053
-170.910	-175.113	0.073	0.002
-169.896	800.000	-0.082	0.245
-168.881	-77.682	0.364	-0.124
-167.866	-74.840	0.108	-0.038
-166.852	19.239	0.172	-0.136
-165.837	396.322	0.076	0.155
-164.823	76.402	0.160	-0.167
-163.808	595.709	0.057	-0.138
-162.793	304.616	-0.097	0.177
-161.779	-162.106	-0.143	-0.007
-160.764	-67.727	-0.303	-0.117
-159.750	21.719	0.245	0.196
-158.735	-21.449	-0.077	0.046
-157.720	-136.073	-0.343	-0.040
-156.706	-19.698	-0.286	-0.174
-155.691	800.000	-0.041	0.129
-154.677	-61.307	-0.203	0.084
-153.662	800.000	0.085	0.241
-152.647	-154.339	0.085	-0.006
-151.633	190.512	0.020	0.029
-150.618	4.192	0.175	0.126
-149.604	561.314	-0.066	0.156
-148.589	-200.000	-0.001	0.379
-147.574	19.245	-0.227	0.179
-146.560	63.164	0.243	0.239
-145.545	308.754	0.186	0.342
-144.531	-138.060	0.237	-0.026
-143.516	-68.866	0.060	-0.023
-142.502	88.370	0.176	-0.192
-141.487	391.205	0.053	0.108
-140.472	-162.425	0.166	0.008
-139.458	360.484	0.125	-0.246
-138.443	-200.000	-0.032	0.181
-137.429	92.656	-0.352	-0.390
-136.414	421.950	0.107	-0.225
-135.399	37.955	0.184	-0.161
-134.385	114.489	0.176	-0.211
-133.370	395.811	-0.108	-0.221
-132.356	-200.000	-0.051	0.266
-131.341	-83.304	0.058	-0.018
-130.326	800.000	0.087	-0.275
-129.312	-200.000	0.042	0.322
-128.297	-67.372	-0.262	-0.101
-127.283	-175.452	0.213	0.006
-126.268	89.366	-0.171	0.188
-125.253	117.604	-0.144	-0.173
-124.239	46.142	0.040	0.036
-123.224	-54.367	-0.205	0.091
-122.210	-117.940	0.079	-0.014
-121.195	-200.000	-0.021	-0.107
-120.180	-9.756	-0.057	-0.037
-119.166	-200.000	0.029	0.255
-118.151	-54.502	-0.243	-0.108
-117.137	59.980	0.187	0.181
-116.122	-103.978	-0.387	0.089
-115.107	155.749	0.307	0.415
-114.093	282.134	0.092	-0.161
-113.078	774.161	0.079	0.213
-112.064	-200.000	0.028	0.358
-111.049	-192.266	0.248	-0.002
-110.034	126.495	0.032	0.039
-109.020	-200.000	-0.046	0.234
-108.005	-90.631	0.420	-0.119
-106.991	264.560	-0.039	-0.067
-105.976	35.885	-0.172	0.149
-104.962	-158.694	0.437	0.025
-103.947	-24.847	0.129	-0.075
-102.932	800.000	0.076	-0.226
-101.918	172.725	0.195	-0.276
-100.903	-52.023	0.316	0.144
-99.889	-30.682	0.132	0.073
-98.874	-200.000	0.041	0.338
-97.859	-200.000	0.048	-0.400
-96.845	22.976	0.267	-0.215
-95.830	92.363	0.109	0.121
-94.816	-117.346	0.196	0.035
-93.801	-26.203	0.245	-0.141
-92.786	40.137	-0.056	0.050
-91.772	-200.000	-0.006	0.066
-90.757	-110.739	0.349	-0.071
-89.743	800.000	-0.086	-0.239
-88.728	800.000	0.026	0.098
-87.713	-111.140	-0.372	0.075
-86.699	-100.037	0.098	0.024
-85.684	70.771	0.178	0.181
-84.670	624.339	-0.037	0.092
-83.655	-200.000	0.000	0.140
-82.640	-27.456	0.187	0.107
-81.626	-62.353	-0.144	-0.059
-80.611	-200.000	-0.043	0.239
-79.597	59.586	-0.132	-0.127
-78.582	559.716	-0.062	0.146
-77.567	-116.714	-0.226	-0.041
-76.553	-140.721	0.257	0.026
-75.538	-200.000	0.004	0.049
-74.524	-200.000	-0.010	-0.185
-73.509	800.000	0.073	-0.210
-72.494	12.950	0.110	0.083
-71.480	721.099	-0.104	-0.271
-70.465	-96.750	-0.289	0.075
-69.451	177.545	0.048	-0.068
-68.436	763.640	0.093	0.248
-67.422	-12.015	-0.201	0.129
-66.407	-21.154	0.178	0.107
-65.392	-200.000	0.041	0.334
-64.378	113.018	-0.218	-0.259
-63.363	14.962	0.133	-0.102
-62.349	46.366	0.362	0.329
-61.334	106.086	-0.995	-1.154
-60.319	-99.953	0.654	0.160
-59.305	-200.000	-0.217	-1.057
-58.290	142.217	0.923	1.199
-57.276	433.344	0.697	1.482
-56.261	-200.000	114.180	643.180
-55.246	465.007	1511.490	3310.730
-54.232	146.931	2677.390	3524.959
-53.217	103.175	2154.544	2472.481
-52.203	38.639	1599.914	1397.413
-51.188	30.485	1345.621	1126.085
-50.173	27.767	1307.342	1077.979
-49.159	55.581	1363.248	1292.332
-48.144	53.743	1378.100	1295.316
-47.130	30.791	1333.648	1117.726
-46.115	27.378	1316.147	1082.755
-45.100	27.148	1311.178	1077.261
-44.086	27.000	1308.615	1074.237
-43.071	27.192	1305.725	1072.954
-42.057	27.057	1304.082	1070.764
-41.042	27.068	1302.717	1069.668
-40.027	27.093	1301.019	1068.377
-39.013	27.021	1299.199	1066.417
-37.998	27.205	1296.751	1065.441
-36.984	27.156	1295.479	1064.070
-35.969	27.143	1293.400	1062.246
-34.954	27.220	1292.212	1061.676
-33.940	27.333	1290.433	1060.831
-32.925	27.251	1289.630	1059.648
-31.911	27.380	1287.681	1058.758
-30.896	27.260	1286.635	1057.159
-29.881	27.374	1285.138	1056.550
-28.867	27.436	1283.119	1055.205
-27.852	27.502	1281.699	1054.378
-26.838	27.449	1280.323	1052.899
-25.823	27.285	1279.520	1051.250
-24.809	27.221	1278.390	1049.910
-23.794	27.413	1276.542	1049.455
-22.779	27.415	1275.243	1048.355
-21.765	27.359	1274.293	1047.213
-20.750	27.328	1273.287	1046.166
-19.736	27.204	1271.705	1044.111
-18.721	27.230	1270.102	1042.906
-17.706	27.274	1268.963	1042.183
-16.692	27.254	1268.149	1041.357
-15.677	27.191	1267.481	1040.405
-14.663	27.232	1265.943	1039.335
-13.648	27.189	1264.935	1038.219
-12.633	27.212	1263.973	1037.523
-11.619	27.281	1263.104	1037.159
-10.604	27.197	1262.415	1036.075
-9.590	27.194	1261.087	1034.924
-8.575	27.127	1260.356	1033.906
-7.560	27.112	1259.856	1033.368
-6.546	27.154	1258.460	1032.423
-5.531	27.134	1257.751	1031.683
-4.517	27.153	1257.064	1031.191
-3.502	27.202	1255.880	1030.455
-2.487	27.162	1254.585	1029.126
-1.473	27.279	1250.125	1026.084
-0.458	25.822	1236.060	1006.367
0.556	21.105	1219.678	970.154
1.571	17.596	1226.165	955.583
2.586	16.909	1241.197	963.309
3.600	16.986	1230.352	955.241
4.615	15.555	1163.857	895.907
5.629	12.734	1097.565	830.595
6.644	11.216	1080.898	810.364
7.659	11.039	1079.266	808.192
8.673	11.045	1077.240	806.632
9.688	11.081	1076.498	806.184
10.702	11.129	1074.432	804.802
11.717	12.960	1075.717	814.743
12.731	15.763	1079.972	831.775
13.746	17.690	1081.517	842.421
14.761	17.737	1080.720	841.962
15.775	16.648	1078.984	835.161
16.790	15.565	1077.266	828.421
17.804	14.851	1075.374	823.374
18.819	14.524	1073.822	820.509
19.834	14.152	1073.214	818.142
20.848	14.076	1072.057	816.813
21.863	13.664	1071.278	814.126
22.877	13.650	1070.644	813.501
23.892	13.405	1070.318	811.978
24.907	13.437	1069.359	811.335
25.921	13.466	1068.088	810.444
26.936	13.479	1066.868	809.508
27.950	13.639	1065.184	808.942
28.965	13.704	1063.798	808.132
29.980	13.768	1062.221	807.177
30.994	13.813	1061.086	806.460
32.009	13.898	1060.179	806.110
33.023	13.801	1059.146	804.786
34.038	13.749	1058.007	803.595
35.053	13.708	1057.145	802.672
36.067	13.754	1056.008	801.961
37.082	13.762	1055.255	801.356
38.096	13.852	1054.463	801.120
39.111	13.783	1053.960	800.333
40.126	13.767	1052.633	799.176
41.140	13.445	1051.533	796.721
42.155	13.516	1050.174	795.960
43.169	13.456	1049.284	794.931
44.184	13.594	1047.805	794.400
45.199	13.457	1047.505	793.444
46.213	13.492	1046.162	792.526
47.228	13.665	1045.050	792.440
48.242	13.613	1043.864	791.220
49.257	13.623	1043.094	790.616
50.271	13.685	1041.823	789.877
51.286	13.791	1040.893	789.606
52.301	13.683	1040.536	788.753
53.315	13.611	1038.873	787.082
54.330	13.603	1038.064	786.361
55.344	13.579	1037.151	785.485
56.359	13.586	1036.210	784.736
57.374	13.562	1035.175	783.770
58.388	13.481	1034.563	782.854
59.403	13.464	1033.688	782.044
60.417	13.518	1032.695	781.475
61.432	13.322	1032.195	780.105
62.447	13.455	1030.839	779.636
63.461	13.400	1030.429	778.999
64.476	13.394	1029.451	778.164
65.490	13.268	1028.884	777.075
66.505	13.470	1028.057	777.327
67.520	13.609	1027.072	777.167
68.534	13.454	1026.595	776.009
69.549	13.526	1026.090	775.899
70.563	13.524	1024.649	774.730
71.578	13.455	1023.942	773.804
72.593	13.495	1023.357	773.480
73.607	13.467	1023.077	773.071
74.622	13.470	1022.466	772.552
75.636	13.378	1021.689	771.469
76.651	13.383	1020.847	770.790
77.666	13.265	1020.791	770.130
78.680	13.405	1019.678	769.874
79.695	13.455	1019.026	769.547
80.709	13.477	1018.375	769.087
81.724	13.440	1017.580	768.245
82.739	13.599	1016.952	768.440
83.753	13.756	1015.747	768.190
84.768	13.750	1015.568	767.961
85.782	13.804	1014.444	767.289
86.797	13.694	1013.620	766.090
87.812	13.688	1012.136	764.873
88.826	13.697	1011.191	764.134
89.841	13.698	1010.624	763.643
90.855	13.876	1009.590	763.614
91.870	13.828	1008.818	762.739
92.884	13.813	1007.772	761.816
93.899	13.806	1007.345	761.393
94.914	13.866	1006.769	761.162
95.928	13.769	1005.882	759.983
96.943	13.730	1004.902	758.997
97.957	13.747	1003.783	758.160
98.972	13.731	1003.107	757.512
99.987	13.816	1002.196	757.144
101.001	13.891	1000.748	756.325
102.016	13.756	1000.511	755.465
103.030	13.805	999.747	755.042
104.045	13.769	998.645	753.980
105.060	13.804	997.893	753.502
106.074	13.731	996.901	752.359
107.089	13.575	995.921	750.845
108.103	13.608	995.257	750.429
109.118	13.631	994.024	749.535
110.133	13.600	993.286	748.772
111.147	13.570	992.192	747.744
112.162	13.505	991.772	747.069
113.176	13.644	991.036	747.078
114.191	13.620	990.186	746.261
115.206	13.581	989.372	745.407
116.220	13.644	988.397	744.886
117.235	13.656	987.425	744.144
118.249	13.487	987.201	743.150
119.264	13.537	985.925	742.349
120.279	13.601	985.243	742.057
121.293	13.646	983.923	741.198
122.308	13.478	983.438	740.014
123.322	13.649	982.321	739.872
124.337	13.524	981.425	738.576
125.352	13.706	980.074	738.305
126.366	13.613	978.916	736.953
127.381	13.549	978.457	736.258
128.395	13.509	977.257	735.113
129.410	13.618	976.466	734.936
130.424	13.713	975.234	734.362
131.439	13.632	975.056	733.804
132.454	13.685	974.164	733.303
133.468	13.663	973.629	732.737
134.483	13.704	972.106	731.707
135.497	13.634	971.719	731.043
136.512	13.809	970.797	731.058
137.527	13.707	969.449	729.527
138.541	13.797	969.155	729.639
139.556	13.745	968.845	729.111
140.570	13.880	967.420	728.567
141.585	13.954	966.867	728.411
142.600	13.869	966.015	727.333
143.614	13.861	965.163	726.591
144.629	13.784	964.824	725.935
145.643	13.878	963.516	725.298
146.658	13.839	962.486	724.286
147.673	13.779	961.702	723.374
148.687	13.705	960.952	722.423
149.702	13.711	960.051	721.705
150.716	13.797	958.948	721.189
151.731	13.835	958.681	721.086
152.746	13.807	957.768	720.216
153.760	13.869	956.786	719.681
154.775	13.921	956.302	719.481
155.789	13.848	956.043	718.907
156.804	13.924	955.310	718.618
157.819	14.044	954.481	718.453
158.833	13.900	954.312	717.637
159.848	14.036	952.871	717.079
160.862	13.955	951.862	715.905
161.877	13.929	950.672	714.836
162.892	13.956	949.878	714.289
163.906	13.945	948.816	713.384
164.921	13.857	948.312	712.563
165.935	13.973	947.331	712.259
166.950	13.972	946.366	711.467
167.964	13.861	945.945	710.611
168.979	14.033	944.834	710.451
169.994	13.978	943.693	709.293
171.008	14.090	943.055	709.231
172.023	14.072	942.683	708.811
173.037	14.161	941.955	708.580
174.052	13.992	941.564	707.503
175.067	13.949	940.842	706.717
176.081	13.894	939.932	705.737
177.096	13.829	939.565	705.119
178.110	14.133	938.534	705.576
179.125	13.964	938.214	704.553
180.140	13.974	937.630	704.098
181.154	14.040	937.454	704.184
182.169	14.112	936.890	703.999
183.183	14.176	935.927	703.484
184.198	14.272	935.016	703.145
185.213	14.321	934.066	702.574
186.227	14.282	933.761	702.117
187.242	14.198	933.630	701.604
188.256	14.449	932.459	701.719
189.271	14.372	931.664	700.734
190.286	14.270	931.064	699.792
191.300	14.145	930.234	698.582
192.315	14.010	930.016	697.788
193.329	14.022	929.336	697.265
194.344	14.236	928.314	697.335
195.359	14.147	928.160	696.786
196.373	14.196	927.370	696.336
197.388	14.345	927.113	696.705
198.402	14.321	926.584	696.146
199.417	14.500	925.856	696.281
200.432	14.477	925.524	695.875
201.446	14.523	925.183	695.752
202.461	14.499	924.269	694.903
203.475	14.510	923.940	694.637
204.490	14.523	922.799	693.772
205.504	14.432	922.139	692.835
206.519	14.508	921.289	692.451
207.534	14.435	920.624	691.589
208.548	14.574	919.855	691.526
209.563	14.460	919.439	690.681
210.577	14.556	918.695	690.459
211.592	14.654	917.989	690.270
212.607	14.702	917.320	689.906
213.621	14.644	916.797	689.212
214.636	14.639	915.721	688.322
215.650	14.665	915.304	688.053
216.665	14.689	914.476	687.469
217.680	14.761	913.823	687.213
218.694	14.666	913.285	686.358
219.709	14.778	912.464	686.138
220.723	14.802	911.631	685.551
221.738	14.636	911.272	684.541
222.753	14.707	910.588	684.255
223.767	14.836	910.012	684.292
224.782	14.865	909.384	683.875
225.796	14.968	908.985	683.938
226.811	14.864	908.401	683.011
227.826	14.843	907.549	682.227
228.840	14.741	906.817	681.199
229.855	14.846	905.774	680.782
230.869	14.847	905.132	680.247
231.884	14.769	904.487	679.384
232.899	14.720	903.604	678.462
233.913	14.797	903.207	678.414
234.928	14.754	902.509	677.656
235.942	14.722	902.198	677.232
236.957	14.858	901.333	677.073
237.972	14.770	900.795	676.253
238.986	14.798	900.270	675.911
240.001	14.782	899.535	675.237
241.015	14.911	899.044	675.328
242.030	14.953	898.067	674.705
243.045	14.883	897.842	674.194
244.059	15.007	897.013	674.011
245.074	14.917	896.681	673.342
246.088	15.044	895.887	673.196
247.103	15.096	895.080	672.738
248.117	15.113	894.877	672.593
249.132	15.261	894.032	672.494
250.147	15.271	893.404	672.004
251.161	15.245	892.948	671.495
252.176	15.425	891.863	671.339
253.190	15.422	891.599	671.072
254.205	15.517	890.551	670.602
255.220	15.246	890.445	669.381
256.234	15.316	889.505	668.892
257.249	15.262	889.148	668.352
258.263	15.403	888.264	668.188
259.278	15.360	887.706	667.539
260.293	15.439	887.081	667.323
261.307	15.335	886.540	666.443
262.322	15.510	885.628	666.396
263.336	15.509	885.179	665.993
264.351	15.609	884.519	665.834
265.366	15.675	883.761	665.468
266.380	15.633	882.788	664.507
267.395	15.628	882.154	663.951
268.409	15.582	881.879	663.506
269.424	15.579	880.864	662.671
270.439	15.542	880.197	661.964
271.453	15.626	879.284	661.550
272.468	15.543	879.011	660.959
273.482	15.518	878.484	660.407
274.497	15.636	877.856	660.340
275.512	15.431	877.525	659.227
276.526	15.679	877.055	659.791
277.541	15.711	876.292	659.283
278.555	15.757	875.443	658.764
279.570	15.727	875.094	658.328
280.585	15.776	874.059	657.682
281.599	15.810	873.425	657.279
282.614	15.765	872.789	656.565
283.628	15.684	872.118	655.690
284.643	15.877	871.507	655.922
285.657	15.719	871.304	655.097
286.672	15.718	870.429	654.377
287.687	15.848	869.607	654.208
288.701	15.832	869.178	653.764
289.716	15.858	868.556	653.340
290.730	15.828	868.294	652.969
291.745	15.983	867.603	652.991
292.760	16.014	866.750	652.410
293.774	15.977	866.085	651.710
294.789	15.904	865.602	651.007
295.803	15.938	864.788	650.466
296.818	15.959	864.343	650.157
297.833	15.950	863.433	649.379
298.847	16.038	862.892	649.257
299.862	16.018	862.339	648.705
300.876	16.090	861.664	648.415
301.891	15.972	861.390	647.700
302.906	16.015	860.625	647.229
303.920	16.216	860.334	647.728
304.935	16.214	859.730	647.207
305.949	16.170	859.240	646.613
306.964	16.213	858.460	646.133
307.979	16.132	857.889	645.336
308.993	16.104	857.526	644.900
310.008	16.226	857.069	644.964
311.022	16.137	856.534	644.163
312.037	16.140	855.527	643.363
313.052	16.153	854.793	642.803
314.066	16.162	854.223	642.351
315.081	16.065	854.033	641.781
316.095	16.147	853.280	641.471
317.110	16.100	852.804	640.880
318.125	16.242	851.827	640.628
319.139	16.238	851.528	640.328
320.154	16.084	851.818	639.905
321.168	16.147	850.860	639.367
322.183	16.227	849.894	638.890
323.197	16.287	849.763	638.961
324.212	16.239	849.289	638.368
325.227	16.302	848.538	637.984
326.241	16.331	847.713	637.416
327.256	16.257	847.052	636.584
328.270	16.283	846.943	636.546
329.285	16.261	846.195	635.841
330.300	16.195	845.639	635.120
331.314	16.384	844.904	635.222
332.329	16.467	844.573	635.231
333.343	16.387	844.418	634.758
334.358	16.354	844.472	634.616
335.373	16.483	843.460	634.282
336.387	16.460	842.944	633.754
337.402	16.456	842.893	633.644
338.416	16.431	842.906	633.504
339.431	16.547	842.413	633.512
340.446	16.616	841.925	633.348
341.460	16.597	841.279	632.736
342.475	16.692	841.192	632.969
343.489	16.753	840.281	632.452
344.504	16.656	839.784	631.662
345.519	16.827	839.368	631.930
346.533	16.790	838.945	631.418
347.548	16.730	838.147	630.538
348.562	16.723	837.846	630.231
349.577	16.695	836.826	629.303
350.592	16.569	836.330	628.406
351.606	16.601	836.119	628.311
352.621	16.685	834.798	627.576
353.635	16.608	834.659	627.130
354.650	16.740	833.706	626.848
355.665	16.858	833.129	626.794
356.679	16.872	832.634	626.419
357.694	16.797	832.300	625.832
358.708	16.627	831.611	624.633
359.723	16.772	830.995	624.648
360.738	16.881	830.394	624.544
361.752	16.963	829.942	624.452
362.767	16.994	829.273	624.006
363.781	16.973	828.749	623.479
364.796	17.034	828.155	623.202
365.810	17.092	828.128	623.338
366.825	17.105	827.532	622.884
367.840	17.090	827.216	622.536
368.854	17.203	826.393	622.273
369.869	17.168	826.031	621.819
370.883	17.013	825.733	620.973
371.898	17.083	825.516	621.012
372.913	17.095	825.107	620.692
373.927	17.232	824.238	620.484
374.942	17.344	824.058	620.700
375.956	17.225	823.595	619.866
376.971	17.289	823.195	619.742
377.986	17.364	822.389	619.354
379.000	17.366	822.118	619.100
380.015	17.427	821.353	618.693
381.029	17.246	821.161	617.836
382.044	17.605	820.304	618.440
383.059	17.443	819.356	617.081
384.073	17.392	819.340	616.830
385.088	17.302	818.689	615.960
386.102	17.293	818.254	615.544
387.117	17.354	817.837	615.399
388.132	17.206	817.197	614.328
389.146	17.394	816.299	614.277
390.161	17.501	815.878	614.291
391.175	17.411	815.877	613.911
392.190	17.354	815.044	613.024
393.205	17.399	814.633	612.824
394.219	17.424	814.265	612.583
395.234	17.356	813.942	612.040
396.248	17.239	813.505	611.237
397.263	17.338	812.901	611.083
398.278	17.454	812.620	611.237
399.292	17.426	812.444	610.947
400.307	17.316	811.740	609.970
401.321	17.527	810.680	609.878
402.336	17.479	810.591	609.585
403.350	17.466	810.555	609.456
404.365	17.520	809.873	609.083
405.380	17.604	809.361	608.945
406.394	17.747	808.465	608.725
407.409	17.763	808.417	608.694
408.423	17.704	808.456	608.457
409.438	17.856	807.603	608.305
410.453	17.887	807.447	608.241
411.467	17.817	806.510	607.236
412.482	17.707	806.520	606.796
413.496	17.864	806.377	607.196
414.511	17.825	805.429	606.288
415.526	17.762	805.238	605.867
416.540	17.795	805.014	605.761
417.555	17.905	804.354	605.602
418.569	17.923	803.913	605.279
419.584	18.028	803.608	605.368
420.599	17.965	803.000	604.635
421.613	111.757	1295.180	1477.251
422.628	96.361	1366.860	1477.346
