DTS Sentinel unit serial number:	SN413079Multiplexer serial number:	ORYXHardware model number:	OX4-SRSoftware version number:	ORYX F/W v4.00 Oryx Data Collector v3.7.2.0data status	okinstallation	princeton_trtdifferential loss correction	single-endedforward channel	channel 1reverse channel	N/Adate	2019/09/12time	14:28:11forward acquisition time	60.00reverse acquisition time	0.00gamma	496.2192k internal	0.2293k external	0.2293temperature offset calibration	1.0055default loss term (dB/km)	0.3790temperature slope calibration	1.0000multiplexer offset coefficient	1.0000multiplexer slope coefficient	1.0000fibre end	0.00T internal ref (°C)	40.08T ext. ref 1 (°C)	2.26T ext. ref 2 (°C)	35.71length (m)	temperature (°C)	Stokes	anti-Stokes-747.200	37.317	-0.223	0.202
-746.185	-107.445	0.070	0.016
-745.171	765.616	-0.109	0.303
-744.156	312.752	-0.136	0.260
-743.142	261.728	-0.072	-0.128
-742.127	71.938	-0.249	-0.265
-741.112	-128.189	0.146	-0.021
-740.098	121.071	0.226	-0.287
-739.083	17.676	0.112	-0.091
-738.069	43.270	-0.165	0.154
-737.054	-200.000	0.022	0.148
-736.039	42.739	0.292	-0.272
-735.025	-200.000	0.018	0.351
-734.010	-40.456	-0.361	0.192
-732.996	-110.102	-0.161	0.034
-731.981	163.128	-0.173	0.248
-730.966	-72.559	-0.230	0.087
-729.952	-200.000	0.019	0.194
-728.937	189.133	-0.118	-0.180
-727.923	190.934	-0.228	0.350
-726.908	616.500	0.017	-0.044
-725.894	68.613	-0.214	0.224
-724.879	50.759	-0.088	0.086
-723.864	800.000	-0.053	-0.169
-722.850	-66.240	-0.149	0.061
-721.835	245.451	-0.043	0.074
-720.821	-140.528	-0.166	-0.018
-719.806	648.142	0.057	-0.149
-718.791	-91.639	-0.171	-0.050
-717.777	-39.166	-0.163	-0.088
-716.762	-200.000	0.105	-0.498
-715.748	72.735	0.023	-0.024
-714.733	-73.698	-0.312	0.116
-713.718	-10.097	-0.163	0.111
-712.704	126.177	0.074	-0.096
-711.689	-173.348	0.255	0.008
-710.675	15.269	0.081	-0.065
-709.660	422.582	-0.126	-0.276
-708.645	-200.000	0.038	-0.188
-707.631	800.000	-0.053	0.203
-706.616	41.350	0.047	0.043
-705.602	393.185	-0.070	-0.149
-704.587	800.000	-0.054	0.191
-703.572	-200.000	0.038	0.294
-702.558	-200.000	-0.026	-0.174
-701.543	-190.703	-0.425	0.005
-700.529	-32.378	-0.328	0.187
-699.514	-111.925	-0.185	-0.038
-698.499	92.939	-0.172	0.199
-697.485	170.286	-0.217	-0.317
-696.470	319.952	-0.216	-0.419
-695.456	-114.863	-0.174	0.034
-694.441	-200.000	0.009	-0.196
-693.426	-89.952	0.199	-0.059
-692.412	-200.000	0.034	0.483
-691.397	-123.264	-0.153	-0.025
-690.383	20.370	-0.172	-0.142
-689.368	147.310	-0.117	-0.161
-688.354	91.322	0.119	-0.136
-687.339	-200.000	0.001	0.202
-686.324	-63.921	0.233	-0.097
-685.310	-72.604	-0.141	0.053
-684.295	-38.979	0.182	0.098
-683.281	126.309	-0.229	-0.296
-682.266	-74.712	-0.023	0.009
-681.251	68.709	-0.153	-0.160
-680.237	492.660	-0.017	-0.039
-679.222	-200.000	-0.008	-0.047
-678.208	-43.626	-0.109	0.056
-677.193	-63.112	0.514	-0.217
-676.178	800.000	-0.051	-0.180
-675.164	-3.608	0.265	-0.188
-674.149	-77.118	-0.320	0.114
-673.135	800.000	0.033	-0.139
-672.120	-17.812	0.196	-0.125
-671.105	-61.470	-0.154	0.066
-670.091	469.401	-0.113	0.258
-669.076	-32.100	-0.150	0.085
-668.062	-110.479	-0.099	-0.021
-667.047	-200.000	-0.053	-0.242
-666.032	-130.299	-0.287	-0.040
-665.018	69.428	0.081	-0.085
-664.003	-200.000	0.018	-0.132
-662.989	800.000	-0.100	-0.327
-661.974	5.826	0.034	-0.025
-660.959	-2.369	0.150	-0.108
-659.945	-30.548	-0.208	-0.120
-658.930	135.862	0.189	0.251
-657.916	64.003	0.189	-0.194
-656.901	-132.491	0.316	-0.041
-655.886	136.664	-0.088	-0.117
-654.872	9.275	0.058	-0.045
-653.857	-200.000	0.015	-0.108
-652.843	800.000	0.028	0.124
-651.828	410.637	-0.145	0.313
-650.814	354.948	-0.097	0.197
-649.799	-200.000	0.001	-0.180
-648.784	-125.354	0.274	0.043
-647.770	-25.413	0.166	0.100
-646.755	-99.235	-0.101	0.026
-645.741	627.406	0.133	0.343
-644.726	360.347	-0.099	0.201
-643.711	-134.594	-0.133	0.017
-642.697	134.112	-0.160	-0.211
-641.682	-200.000	0.002	-0.425
-640.668	378.008	-0.126	0.262
-639.653	-200.000	-0.021	0.149
-638.638	260.960	-0.096	-0.169
-637.624	146.571	-0.151	0.207
-636.609	77.291	0.145	-0.157
-635.595	-134.012	-0.214	0.027
-634.580	45.066	0.040	0.037
-633.565	-200.000	-0.024	0.292
-632.551	52.654	0.247	-0.240
-631.536	-54.914	-0.553	-0.254
-630.522	-169.595	-0.168	-0.006
-629.507	800.000	-0.041	0.133
-628.492	578.186	-0.034	-0.084
-627.478	195.571	0.028	-0.043
-626.463	-200.000	0.008	-0.230
-625.449	-8.059	0.196	-0.135
-624.434	567.982	0.063	0.156
-623.419	-102.961	0.116	-0.028
-622.405	38.681	0.166	0.151
-621.390	-53.325	0.175	-0.081
-620.376	89.829	-0.044	0.050
-619.361	800.000	0.094	-0.417
-618.346	93.968	-0.093	0.108
-617.332	-91.422	0.128	0.037
-616.317	-171.101	0.207	0.007
-615.303	-3.559	0.268	-0.190
-614.288	-200.000	0.092	-0.000
-613.273	353.266	0.067	-0.135
-612.259	448.749	0.103	0.231
-611.244	-200.000	-0.021	0.116
-610.230	-50.676	-0.127	-0.061
-609.215	60.798	0.236	-0.238
-608.201	48.705	0.047	0.045
-607.186	-67.797	-0.141	-0.056
-606.171	-32.631	0.311	0.176
-605.157	128.489	0.011	-0.014
-604.142	-200.000	-0.005	0.058
-603.128	-68.052	0.207	0.082
-602.113	-146.700	0.177	-0.016
-601.098	800.000	-0.043	-0.131
-600.084	-59.176	-0.238	0.104
-599.069	-200.000	0.013	-0.089
-598.055	800.000	-0.078	-0.240
-597.040	142.476	-0.174	0.235
-596.025	168.653	0.163	-0.236
-595.011	-200.000	-0.001	0.024
-593.996	119.107	-0.097	-0.121
-592.982	-60.081	0.219	-0.095
-591.967	140.780	0.247	0.331
-590.952	738.288	0.102	0.278
-589.938	-87.533	0.477	-0.147
-588.923	-190.358	-0.275	-0.003
-587.909	-71.224	-0.104	-0.040
-586.894	-200.000	-0.146	-0.000
-585.879	-33.353	-0.297	-0.167
-584.865	-73.927	0.238	0.088
-583.850	-0.377	0.210	-0.151
-582.836	86.652	-0.070	-0.078
-581.821	-200.000	-0.052	0.286
-580.806	-54.708	-0.171	0.079
-579.792	-124.088	-0.172	0.028
-578.777	-48.230	-0.288	-0.141
-577.763	-48.569	0.121	0.059
-576.748	-200.000	0.040	0.328
-575.733	-128.335	0.176	-0.026
-574.719	-70.736	-0.120	0.046
-573.704	-200.000	-0.001	-0.152
-572.690	-36.958	-0.227	-0.124
-571.675	783.296	-0.090	-0.250
-570.661	141.717	-0.231	-0.311
-569.646	-200.000	0.034	0.167
-568.631	153.886	0.262	0.365
-567.617	-166.447	-0.158	0.007
-566.602	-200.000	-0.042	-0.253
-565.588	-111.596	-0.259	-0.053
-564.573	94.941	-0.209	0.242
-563.558	123.297	-0.143	-0.183
-562.544	157.430	-0.085	0.119
-561.529	9.879	-0.301	0.232
-560.515	800.000	0.025	-0.088
-559.500	-200.000	0.005	0.090
-558.485	255.236	-0.113	-0.197
-557.471	-143.317	0.148	-0.014
-556.456	-48.512	-0.100	-0.049
-555.442	-53.597	-0.253	0.118
-554.427	108.211	0.077	0.093
-553.412	-44.630	-0.206	0.104
-552.398	79.226	0.172	-0.188
-551.383	149.752	-0.216	0.297
-550.369	33.448	0.138	0.122
-549.354	114.963	-0.201	-0.250
-548.339	318.467	-0.118	-0.227
-547.325	-165.591	0.172	0.008
-546.310	-88.779	-0.365	-0.110
-545.296	-133.259	-0.367	-0.047
-544.281	-50.879	-0.305	-0.145
-543.266	-11.174	0.129	0.087
-542.252	800.000	-0.062	-0.191
-541.237	800.000	0.019	0.078
-540.223	-138.822	-0.323	-0.036
-539.208	-31.538	-0.079	-0.045
-538.193	140.237	0.183	0.245
-537.179	26.878	-0.135	-0.115
-536.164	-98.162	-0.213	0.055
-535.150	-60.780	0.133	-0.057
-534.135	70.014	-0.133	0.139
-533.121	-60.016	0.064	0.028
-532.106	800.000	-0.059	-0.177
-531.091	-34.467	-0.199	0.111
-530.077	-10.700	-0.226	-0.151
-529.062	-0.216	-0.139	-0.100
-528.048	-179.914	0.379	0.008
-527.033	443.652	0.089	0.197
-526.018	-12.959	0.237	-0.156
-525.004	-131.163	0.220	-0.030
-523.989	232.627	0.246	0.410
-522.975	-50.139	-0.105	0.050
-521.960	196.260	-0.257	-0.396
-520.945	89.695	0.178	0.201
-519.931	44.055	0.177	-0.164
-518.916	-108.243	-0.370	-0.081
-517.902	-22.199	0.235	-0.144
-516.887	-168.124	-0.154	-0.006
-515.872	290.259	-0.077	0.142
-514.858	-85.211	0.160	-0.051
-513.843	-73.169	0.289	0.107
-512.829	-200.000	0.039	0.356
-511.814	373.269	0.045	0.093
-510.799	196.670	0.176	-0.272
-509.785	-200.000	0.012	-0.071
-508.770	451.177	0.020	0.044
-507.756	-200.000	-0.019	0.174
-506.741	60.888	0.071	0.071
-505.726	800.000	-0.072	0.246
-504.712	72.534	-0.300	-0.317
-503.697	800.000	-0.151	0.476
-502.683	800.000	0.137	0.443
-501.668	800.000	0.061	0.231
-500.653	-16.576	-0.193	-0.124
-499.639	376.780	0.045	-0.092
-498.624	-200.000	0.009	-0.265
-497.610	-155.649	-0.245	0.016
-496.595	800.000	0.044	0.134
-495.581	77.805	0.129	-0.140
-494.566	71.070	-0.159	-0.167
-493.551	-113.684	-0.244	-0.048
-492.537	6.771	0.223	-0.168
-491.522	213.363	0.110	-0.176
-490.508	-200.000	0.005	0.035
-489.493	-200.000	-0.001	0.111
-488.478	283.438	0.203	0.370
-487.464	39.452	0.131	-0.119
-486.449	374.982	-0.178	-0.368
-485.435	-42.256	-0.209	-0.108
-484.420	-200.000	-0.024	-0.364
-483.405	616.339	-0.115	-0.293
-482.391	-75.893	0.275	-0.099
-481.376	37.340	-0.091	0.082
-480.362	-148.019	-0.160	-0.013
-479.347	399.785	0.138	0.294
-478.332	-38.846	-0.190	0.101
-477.318	-79.189	0.129	-0.044
-476.303	72.788	0.195	0.206
-475.289	129.198	-0.077	0.099
-474.274	-112.277	-0.501	-0.102
-473.259	-200.000	0.006	0.122
-472.245	-90.462	0.036	0.011
-471.230	-53.083	0.226	-0.105
-470.216	-38.163	-0.223	0.119
-469.201	800.000	-0.063	0.210
-468.186	-200.000	-0.010	0.142
-467.172	153.882	0.141	-0.195
-466.157	800.000	0.018	-0.058
-465.143	-15.727	-0.251	0.162
-464.128	159.034	0.060	-0.085
-463.113	-6.491	0.383	0.264
-462.099	79.072	-0.179	-0.194
-461.084	53.500	-0.160	-0.155
-460.070	48.281	-0.340	0.322
-459.055	-92.156	0.122	0.035
-458.040	-167.807	-0.275	-0.011
-457.026	-138.445	-0.339	0.038
-456.011	-9.904	0.194	-0.130
-454.997	800.000	-0.032	0.096
-453.982	115.628	-0.048	0.059
-452.968	-200.000	0.076	-0.403
-451.953	205.529	-0.051	-0.079
-450.938	800.000	-0.056	0.207
-449.924	-200.000	-0.029	-0.196
-448.909	-16.652	0.203	0.130
-447.895	-200.000	0.059	-0.401
-446.880	426.224	0.071	-0.155
-445.865	800.000	-0.062	-0.192
-444.851	-200.000	0.016	0.362
-443.836	-96.631	-0.146	0.039
-442.822	43.907	0.127	0.117
-441.807	81.661	0.206	-0.225
-440.792	-44.915	0.317	0.160
-439.778	800.000	0.051	-0.209
-438.763	-74.198	0.204	-0.075
-437.749	-71.549	0.369	0.140
-436.734	-200.000	-0.005	-0.268
-435.719	116.147	-0.257	-0.318
-434.705	116.564	-0.181	-0.225
-433.690	-200.000	-0.065	-0.356
-432.676	3.316	-0.151	-0.111
-431.661	800.000	0.025	0.088
-430.646	26.331	-0.212	0.179
-429.632	85.378	-0.164	0.182
-428.617	-71.302	0.252	0.096
-427.603	800.000	0.032	-0.093
-426.588	199.399	-0.114	0.177
-425.573	-137.286	-0.114	-0.013
-424.559	-108.686	0.149	-0.032
-423.544	-108.982	-0.110	-0.024
-422.530	-200.000	-0.003	0.034
-421.515	361.726	-0.088	-0.178
-420.500	-35.785	0.173	0.094
-419.486	94.723	0.195	0.223
-418.471	470.436	0.022	-0.051
-417.457	-200.000	-0.003	0.063
-416.442	-151.778	-0.171	-0.013
-415.428	-200.000	-0.019	0.118
-414.413	-33.036	0.038	0.021
-413.398	177.997	-0.250	-0.369
-412.384	390.826	-0.077	-0.161
-411.369	-106.756	0.235	-0.053
-410.355	212.595	0.153	0.243
-409.340	800.000	-0.004	-0.013
-408.325	-200.000	-0.029	-0.240
-407.311	59.334	-0.014	-0.013
-406.296	125.033	0.179	-0.227
-405.282	800.000	-0.111	-0.385
-404.267	-84.391	0.266	0.085
-403.252	512.926	0.002	0.006
-402.238	249.870	-0.020	0.034
-401.223	-200.000	0.031	-0.184
-400.209	128.609	0.099	-0.128
-399.194	-49.348	-0.218	0.105
-398.179	-200.000	-0.013	0.133
-397.165	-200.000	0.018	0.170
-396.150	-2.612	0.019	0.014
-395.136	800.000	0.045	0.171
-394.121	-82.761	-0.276	0.090
-393.106	800.000	-0.064	0.204
-392.092	-113.725	-0.164	0.032
-391.077	-200.000	0.014	0.099
-390.063	125.123	0.131	-0.166
-389.048	203.248	-0.084	-0.131
-388.033	-6.369	-0.103	-0.071
-387.019	455.835	0.154	-0.344
-386.004	131.015	0.090	-0.116
-384.990	631.961	0.040	-0.103
-383.975	376.235	-0.165	-0.339
-382.960	800.000	0.078	-0.225
-381.946	23.417	0.016	-0.014
-380.931	-200.000	0.049	-0.276
-379.917	19.208	0.168	-0.136
-378.902	4.861	-0.150	0.111
-377.888	53.758	-0.118	0.114
-376.873	39.135	0.214	0.193
-375.858	-200.000	-0.002	0.253
-374.844	-151.390	-0.190	0.014
-373.829	-162.687	-0.290	0.014
-372.815	-200.000	0.036	0.524
-371.800	-90.687	-0.067	-0.019
-370.785	120.018	0.171	-0.214
-369.771	-27.468	-0.255	-0.150
-368.756	6.250	-0.159	0.119
-367.742	58.750	0.169	0.167
-366.727	66.653	-0.104	0.107
-365.712	34.560	0.169	0.149
-364.698	-200.000	-0.028	-0.270
-363.683	-200.000	0.019	-0.100
-362.669	-23.286	0.142	0.086
-361.654	-55.794	-0.328	-0.148
-360.639	-137.114	-0.141	-0.016
-359.625	45.545	0.115	0.107
-358.610	229.982	0.108	-0.178
-357.596	714.969	-0.037	0.098
-356.581	-200.000	-0.032	-0.211
-355.566	-200.000	0.026	-0.124
-354.552	338.443	-0.156	-0.305
-353.537	4.393	0.383	0.283
-352.523	113.085	-0.090	0.110
-351.508	-156.380	0.244	-0.015
-350.493	-113.697	-0.218	-0.043
-349.479	73.803	-0.043	-0.045
-348.464	8.759	-0.095	-0.072
-347.450	-200.000	-0.027	0.325
-346.435	-162.966	0.101	0.005
-345.420	262.102	-0.139	-0.243
-344.406	-1.868	0.214	-0.152
-343.391	-135.073	0.373	0.045
-342.377	117.318	-0.131	-0.163
-341.362	-38.866	-0.219	0.116
-340.348	800.000	0.067	0.210
-339.333	-123.817	0.191	-0.030
-338.318	-17.498	0.242	0.153
-337.304	415.510	0.051	-0.109
-336.289	-7.421	-0.036	0.024
-335.275	687.447	0.068	0.178
-334.260	-151.757	0.315	0.023
-333.245	-48.092	-0.113	0.055
-332.231	12.025	-0.138	0.107
-331.216	-56.331	0.400	0.179
-330.202	800.000	-0.068	0.223
-329.187	422.763	-0.108	-0.234
-328.172	328.585	0.162	0.314
-327.158	7.078	-0.076	0.057
-326.143	242.552	-0.157	0.265
-325.129	-132.767	-0.144	0.018
-324.114	53.687	0.108	-0.105
-323.099	-21.147	0.183	-0.112
-322.085	-149.808	0.100	0.008
-321.070	-89.591	-0.195	-0.058
-320.056	-82.358	-0.014	-0.005
-319.041	-123.073	0.362	0.058
-318.026	-83.228	-0.103	0.033
-317.012	800.000	-0.034	-0.113
-315.997	100.646	-0.276	0.322
-314.983	-45.363	-0.126	0.063
-313.968	90.043	0.032	0.036
-312.953	-200.000	0.005	-0.164
-311.939	19.614	0.264	0.214
-310.924	-61.990	0.336	-0.141
-309.910	800.000	0.100	0.383
-308.895	105.569	0.151	-0.179
-307.880	123.641	-0.043	-0.055
-306.866	-200.000	0.002	-0.041
-305.851	-200.000	-0.023	0.123
-304.837	-45.300	-0.278	-0.139
-303.822	-45.898	0.235	-0.117
-302.807	-85.520	-0.093	0.029
-301.793	49.481	0.283	0.268
-300.778	-94.290	-0.109	0.030
-299.764	59.773	-0.143	-0.142
-298.749	-3.213	0.085	0.059
-297.735	-72.526	0.479	0.178
-296.720	-112.787	0.338	0.067
-295.705	-69.190	0.150	0.058
-294.691	-184.043	0.040	-0.001
-293.676	161.894	0.096	0.135
-292.662	-48.776	0.312	-0.150
-291.647	-53.289	0.241	-0.111
-290.632	-147.200	-0.056	0.005
-289.618	-137.185	0.132	-0.015
-288.603	290.483	-0.071	0.130
-287.589	800.000	0.062	-0.234
-286.574	-200.000	0.002	0.061
-285.559	215.474	0.132	0.211
-284.545	-144.196	-0.165	0.016
-283.530	-85.131	0.288	0.090
-282.516	-185.980	0.096	-0.001
-281.501	-200.000	0.054	-0.342
-280.486	-64.143	-0.003	0.001
-279.472	410.423	-0.075	-0.159
-278.457	169.485	-0.178	-0.256
-277.443	53.688	-0.143	-0.138
-276.428	6.581	-0.211	0.157
-275.413	800.000	-0.092	0.400
-274.399	124.418	-0.127	-0.160
-273.384	-174.227	-0.240	0.007
-272.370	729.929	0.052	-0.140
-271.355	240.915	-0.134	0.225
-270.340	800.000	0.082	-0.292
-269.326	-119.325	-0.247	-0.043
-268.311	800.000	-0.098	0.315
-267.297	-152.220	0.278	-0.020
-266.282	121.735	-0.035	0.044
-265.267	-49.079	0.478	0.229
-264.253	-120.228	-0.323	0.055
-263.238	-137.381	-0.473	0.054
-262.224	-59.888	-0.213	0.091
-261.209	-53.624	0.155	0.071
-260.195	-104.437	-0.267	0.062
-259.180	-97.669	0.120	-0.031
-258.165	797.163	0.067	0.184
-257.151	528.469	0.066	-0.156
-256.136	-119.265	-0.250	0.044
-255.122	-200.000	0.045	0.252
-254.107	7.147	0.113	-0.084
-253.092	-200.000	0.050	0.300
-252.078	800.000	-0.032	-0.092
-251.063	-200.000	-0.001	0.023
-250.049	614.601	0.059	-0.149
-249.034	579.448	0.089	-0.220
-248.019	264.032	0.053	-0.093
-247.005	-114.984	0.138	0.026
-245.990	-18.167	-0.190	-0.120
-244.976	-74.718	0.105	-0.038
-243.961	133.778	0.167	-0.217
-242.946	97.562	-0.257	-0.296
-241.932	23.553	0.273	-0.225
-240.917	-200.000	0.011	0.085
-239.903	34.238	-0.109	-0.095
-238.888	455.227	0.112	-0.249
-237.873	-200.000	0.020	-0.242
-236.859	-26.376	0.124	0.073
-235.844	-165.035	0.171	0.008
-234.830	319.727	0.139	0.264
-233.815	-200.000	-0.002	-0.119
-232.800	420.462	-0.089	-0.192
-231.786	800.000	-0.051	0.155
-230.771	800.000	0.104	0.350
-229.757	297.390	0.045	-0.083
-228.742	-4.897	0.103	-0.071
-227.727	96.817	0.071	0.081
-226.713	-200.000	0.002	0.021
-225.698	220.325	0.192	0.308
-224.684	-24.067	-0.132	0.079
-223.669	-58.729	-0.067	-0.029
-222.655	-200.000	-0.028	-0.355
-221.640	-68.801	-0.168	0.065
-220.625	546.233	-0.009	-0.021
-219.611	-78.274	-0.265	0.091
-218.596	-200.000	0.024	-0.257
-217.582	-88.071	0.234	0.070
-216.567	-200.000	0.013	0.154
-215.552	-139.411	0.225	-0.024
-214.538	159.387	0.199	0.277
-213.523	-200.000	-0.040	0.223
-212.509	-60.993	0.249	0.105
-211.494	-42.012	0.140	0.072
-210.479	-82.095	-0.384	-0.126
-209.465	386.741	-0.121	0.250
-208.450	-80.368	-0.087	-0.029
-207.436	-18.306	-0.106	-0.066
-206.421	-11.542	-0.098	-0.065
-205.406	-111.288	-0.352	0.072
-204.392	800.000	-0.043	-0.169
-203.377	-13.483	-0.094	-0.061
-202.363	-134.863	-0.324	-0.039
-201.348	190.817	-0.263	-0.397
-200.333	387.844	0.051	-0.106
-199.319	-19.995	-0.140	0.087
-198.304	10.637	0.084	0.064
-197.290	-48.640	-0.128	-0.061
-196.275	-69.531	-0.175	0.067
-195.260	-93.323	0.118	0.033
-194.246	-160.177	0.230	0.013
-193.231	-200.000	0.013	0.327
-192.217	71.097	0.151	-0.156
-191.202	78.847	0.125	0.134
-190.187	-200.000	-0.032	-0.249
-189.173	-38.918	-0.195	-0.103
-188.158	35.720	0.206	-0.181
-187.144	52.281	0.225	-0.215
-186.129	-82.680	-0.110	-0.036
-185.114	-99.227	-0.235	0.059
-184.100	-129.249	-0.411	-0.057
-183.085	110.536	0.054	0.065
-182.071	-91.420	0.444	0.127
-181.056	-86.505	-0.110	0.034
-180.042	-200.000	-0.092	-0.406
-179.027	-21.144	0.647	0.396
-178.012	320.248	-0.187	0.356
-176.998	800.000	0.051	-0.212
-175.983	-200.000	-0.010	0.259
-174.969	53.738	0.131	-0.126
-173.954	108.649	-0.174	-0.208
-172.939	57.979	-0.210	0.205
-171.925	-33.736	0.385	0.213
-170.910	498.373	0.119	-0.274
-169.896	52.821	0.104	0.099
-168.881	346.523	0.107	0.211
-167.866	-51.050	0.092	0.043
-166.852	-40.034	-0.344	0.179
-165.837	-200.000	-0.071	0.342
-164.823	-32.130	0.129	0.072
-163.808	800.000	0.010	-0.041
-162.793	-30.900	0.198	0.112
-161.779	-40.721	0.036	0.018
-160.764	-15.230	-0.034	-0.022
-159.750	800.000	0.081	0.324
-158.735	-64.678	0.158	0.064
-157.720	-56.007	0.050	0.022
-156.706	-45.858	0.157	0.077
-155.691	-51.891	0.013	0.006
-154.677	12.045	-0.106	-0.081
-153.662	118.212	-0.189	0.233
-152.647	-152.925	0.085	0.006
-151.633	718.263	-0.101	-0.269
-150.618	-130.104	-0.166	-0.023
-149.604	-200.000	0.027	-0.332
-148.589	-122.643	0.164	0.027
-147.574	3.290	0.160	-0.116
-146.560	-118.367	0.283	0.050
-145.545	-105.931	-0.238	0.054
-144.531	-38.217	0.209	0.111
-143.516	480.258	0.194	-0.440
-142.502	-165.886	0.421	0.018
-141.487	126.796	0.181	-0.229
-140.472	-200.000	0.007	0.255
-139.458	657.216	-0.009	-0.022
-138.443	423.139	0.091	0.195
-137.429	-81.117	0.149	-0.049
-136.414	-115.004	-0.324	-0.062
-135.399	7.923	0.212	-0.159
-134.385	174.821	0.051	-0.073
-133.370	-125.572	0.318	0.048
-132.356	453.516	-0.112	0.248
-131.341	437.162	0.097	0.211
-130.326	474.025	-0.011	0.026
-129.312	-121.519	0.235	-0.039
-128.297	-200.000	0.033	0.195
-127.283	-92.482	-0.108	-0.030
-126.268	307.461	0.095	0.176
-125.253	-125.589	0.258	-0.039
-124.239	800.000	-0.018	-0.072
-123.224	69.760	0.078	-0.080
-122.210	-58.624	0.311	-0.135
-121.195	246.156	-0.107	0.180
-120.180	-37.007	0.158	0.085
-119.166	67.549	0.158	0.161
-118.151	-5.475	0.122	0.084
-117.137	-167.151	-0.118	0.005
-116.122	-15.462	-0.087	-0.056
-115.107	80.550	-0.159	-0.171
-114.093	-63.369	-0.276	-0.113
-113.078	775.636	-0.074	0.203
-112.064	-121.403	-0.303	0.050
-111.049	85.718	-0.174	-0.191
-110.034	276.256	-0.148	-0.263
-109.020	598.616	0.065	-0.162
-108.005	297.546	-0.249	0.456
-106.991	-200.000	-0.024	0.327
-105.976	41.657	0.267	-0.241
-104.962	146.281	-0.182	-0.244
-103.947	-105.186	0.130	0.030
-102.932	-58.271	0.262	-0.114
-101.918	3.756	0.092	-0.067
-100.903	-41.776	0.318	0.163
-99.889	-4.749	0.214	0.147
-98.874	-200.000	0.039	-0.367
-97.859	423.835	-0.083	-0.178
-96.845	90.893	0.080	0.089
-95.830	-144.141	0.074	0.007
-94.816	76.504	-0.044	0.046
-93.801	-200.000	-0.006	-0.066
-92.786	120.523	-0.140	-0.173
-91.772	202.885	-0.195	0.300
-90.757	-200.000	0.010	-0.108
-89.743	-70.991	0.147	0.055
-88.728	-45.104	0.088	-0.044
-87.713	-200.000	0.004	0.034
-86.699	-129.994	0.355	0.048
-85.684	-150.074	0.100	0.008
-84.670	-200.000	0.061	-0.450
-83.655	-200.000	0.063	0.446
-82.640	91.210	-0.220	0.246
-81.626	-165.145	0.153	-0.007
-80.611	-200.000	0.032	0.187
-79.597	-200.000	-0.025	-0.113
-78.582	48.588	0.231	0.215
-77.567	29.610	-0.313	0.265
-76.553	369.961	0.136	0.274
-75.538	478.535	0.127	0.286
-74.524	144.590	0.154	-0.206
-73.509	-89.309	-0.131	-0.038
-72.494	-134.423	0.081	-0.010
-71.480	256.865	0.144	0.247
-70.465	471.074	-0.024	-0.054
-69.451	305.650	0.109	-0.202
-68.436	-200.000	-0.015	-0.077
-67.422	-88.213	-0.136	0.041
-66.407	800.000	0.076	-0.252
-65.392	287.311	0.240	-0.432
-64.378	-49.872	-0.114	-0.054
-63.363	47.814	0.229	0.213
-62.349	23.409	0.101	0.083
-61.334	89.395	-0.781	-0.867
-60.319	149.360	0.102	0.138
-59.305	-200.000	-0.012	-0.841
-58.290	800.000	0.149	0.591
-57.276	-200.000	0.038	1.304
-56.261	-200.000	77.963	510.007
-55.246	506.165	1335.850	3083.094
-54.232	147.798	2560.536	3436.548
-53.217	114.458	2224.033	2696.994
-52.203	51.263	1677.618	1585.288
-51.188	43.606	1406.612	1280.897
-50.173	40.189	1361.517	1218.786
-49.159	58.375	1398.178	1365.141
-48.144	64.830	1417.387	1423.968
-47.130	44.100	1378.991	1258.614
-46.115	40.117	1362.461	1218.993
-45.100	40.048	1357.917	1214.454
-44.086	39.958	1355.402	1211.606
-43.071	39.863	1352.979	1208.810
-42.057	39.788	1350.965	1206.506
-41.042	39.880	1349.066	1205.324
-40.027	39.942	1347.613	1204.355
-39.013	39.900	1346.144	1202.740
-37.998	39.957	1343.535	1200.703
-36.984	40.076	1342.018	1200.024
-35.969	40.131	1340.489	1198.943
-34.954	40.119	1338.439	1196.991
-33.940	40.112	1337.208	1195.799
-32.925	40.210	1335.780	1195.063
-31.911	40.146	1334.617	1193.590
-30.896	40.259	1332.420	1192.262
-29.881	40.171	1331.081	1190.488
-28.867	40.192	1329.853	1189.467
-27.852	40.233	1328.003	1188.010
-26.838	40.143	1327.036	1186.559
-25.823	40.128	1325.764	1185.285
-24.809	40.220	1323.932	1184.147
-23.794	40.197	1322.586	1182.760
-22.779	40.109	1321.313	1181.050
-21.765	40.211	1319.730	1180.194
-20.750	40.210	1318.666	1179.192
-19.736	40.102	1317.059	1177.066
-18.721	40.027	1316.000	1175.626
-17.706	39.966	1315.083	1174.396
-16.692	40.098	1313.248	1173.498
-15.677	39.951	1312.674	1172.067
-14.663	39.979	1311.299	1170.955
-13.648	39.931	1310.459	1169.877
-12.633	40.018	1309.039	1169.074
-11.619	39.963	1308.902	1168.580
-10.604	40.001	1307.903	1167.867
-9.590	40.063	1306.271	1166.734
-8.575	40.087	1305.461	1166.103
-7.560	39.979	1305.023	1165.030
-6.546	40.029	1304.227	1164.568
-5.531	39.978	1303.299	1163.391
-4.517	40.067	1302.201	1162.887
-3.502	40.071	1300.839	1161.648
-2.487	39.987	1300.265	1160.594
-1.473	40.022	1296.294	1157.213
-0.458	38.758	1281.009	1136.202
0.556	35.220	1261.533	1094.344
1.571	31.201	1265.614	1074.707
2.586	30.010	1281.125	1080.839
3.600	28.502	1269.848	1062.495
4.615	20.623	1191.811	954.081
5.629	8.356	1107.140	823.334
6.644	2.836	1083.362	777.671
7.659	2.186	1080.322	772.137
8.673	2.072	1079.040	770.574
9.688	1.949	1077.767	768.979
10.702	2.315	1076.448	769.812
11.717	9.290	1087.200	812.799
12.731	20.300	1103.395	881.034
13.746	25.175	1109.162	910.375
14.761	25.420	1109.392	911.723
15.775	25.415	1108.933	911.243
16.790	25.284	1108.035	909.761
17.804	25.189	1107.236	908.541
18.819	25.453	1106.671	909.331
19.834	25.574	1105.860	909.198
20.848	25.452	1106.108	908.705
21.863	25.454	1105.361	908.023
22.877	25.504	1104.481	907.472
23.892	25.372	1103.605	906.003
24.907	25.374	1103.158	905.570
25.921	25.311	1102.551	904.673
26.936	25.389	1100.696	903.464
27.950	25.536	1098.897	902.644
28.965	25.207	1097.729	899.955
29.980	25.244	1096.174	898.784
30.994	25.586	1094.904	899.373
32.009	25.514	1094.299	898.441
33.023	25.354	1092.638	896.196
34.038	25.374	1092.008	895.698
35.053	25.504	1091.071	895.501
36.067	25.618	1090.246	895.311
37.082	25.556	1090.061	894.773
38.096	25.721	1088.940	894.594
39.111	25.774	1088.530	894.441
40.126	25.677	1086.708	892.380
41.140	25.254	1085.185	888.956
42.155	25.009	1083.987	886.684
43.169	25.069	1083.006	886.099
44.184	25.115	1081.928	885.367
45.199	24.973	1081.427	884.179
46.213	25.131	1080.021	883.730
47.228	25.273	1079.758	884.138
48.242	25.319	1078.657	883.383
49.257	25.271	1078.133	882.640
50.271	25.454	1077.114	882.626
51.286	25.549	1076.422	882.448
52.301	25.659	1075.079	881.808
53.315	25.407	1074.521	880.038
54.330	25.393	1073.546	879.095
55.344	25.466	1072.541	878.550
56.359	25.345	1071.846	877.310
57.374	25.079	1070.756	875.041
58.388	25.209	1069.870	874.874
59.403	25.108	1069.566	874.056
60.417	25.060	1068.252	872.671
61.432	25.023	1067.971	872.186
62.447	25.074	1067.300	871.807
63.461	25.228	1066.219	871.594
64.476	25.091	1065.507	870.272
65.490	24.964	1064.422	868.692
66.505	25.110	1064.189	869.133
67.520	25.190	1063.309	868.726
68.534	25.016	1061.884	866.644
69.549	24.598	1061.040	863.855
70.563	24.688	1060.317	863.627
71.578	24.662	1059.459	862.724
72.593	24.527	1058.329	861.077
73.607	24.694	1057.926	861.477
74.622	24.845	1057.879	862.089
75.636	24.927	1056.929	861.636
76.651	24.817	1056.119	860.369
77.666	24.831	1055.034	859.476
78.680	24.911	1054.312	859.197
79.695	24.947	1053.859	858.925
80.709	25.101	1052.975	858.864
81.724	24.993	1052.218	857.657
82.739	25.074	1051.602	857.465
83.753	25.321	1051.032	858.105
84.768	25.696	1050.256	859.185
85.782	25.775	1049.876	859.176
86.797	25.792	1048.405	857.977
87.812	25.513	1047.437	855.780
88.826	25.697	1046.730	856.004
89.841	25.661	1046.054	855.205
90.855	25.745	1044.974	854.644
91.870	25.559	1044.128	852.996
92.884	25.546	1042.839	851.804
93.899	25.592	1041.827	851.119
94.914	25.692	1040.970	850.818
95.928	25.482	1040.283	849.186
96.943	25.320	1038.618	846.987
97.957	25.059	1037.632	844.879
98.972	24.920	1036.604	843.314
99.987	25.336	1035.408	844.224
101.001	25.337	1035.288	844.053
102.016	25.379	1034.086	843.198
103.030	25.300	1033.430	842.218
104.045	25.151	1032.351	840.566
105.060	24.976	1031.500	838.976
106.074	25.178	1030.388	838.945
107.089	25.353	1030.202	839.538
108.103	25.328	1029.290	838.602
109.118	25.188	1028.183	836.973
110.133	25.106	1027.022	835.573
111.147	24.937	1025.943	833.832
112.162	24.740	1024.893	831.992
113.176	25.058	1024.395	832.989
114.191	25.087	1023.429	832.266
115.206	24.810	1021.900	829.663
116.220	24.595	1021.705	828.437
117.235	24.908	1020.888	829.149
118.249	24.790	1020.247	828.012
119.264	24.763	1018.860	826.687
120.279	24.797	1018.588	826.550
121.293	24.838	1017.756	825.992
122.308	24.823	1016.803	825.075
123.322	24.757	1015.823	823.904
124.337	24.648	1014.422	822.194
125.352	24.196	1012.670	818.624
126.366	24.185	1011.268	817.367
127.381	24.850	1011.879	820.838
128.395	25.295	1011.215	822.268
129.410	25.412	1010.595	822.228
130.424	25.405	1009.614	821.323
131.439	25.428	1008.768	820.666
132.454	25.356	1008.046	819.680
133.468	25.170	1007.148	818.029
134.483	25.511	1005.945	818.530
135.497	25.583	1005.752	818.629
136.512	25.576	1005.101	817.996
137.527	25.733	1003.897	817.656
138.541	25.578	1003.309	816.403
139.556	25.645	1002.671	816.113
140.570	25.654	1001.805	815.377
141.585	25.784	1000.381	814.733
142.600	25.609	999.267	812.963
143.614	25.997	998.522	814.040
144.629	26.050	997.973	813.759
145.643	25.830	996.574	811.554
146.658	25.578	995.538	809.504
147.673	25.534	994.467	808.364
148.687	25.416	993.207	806.738
149.702	25.352	992.387	805.713
150.716	25.316	991.353	804.642
151.731	25.519	990.783	805.015
152.746	25.700	990.197	805.281
153.760	25.807	989.656	805.246
154.775	25.791	989.006	804.574
155.789	25.691	988.308	803.489
156.804	25.712	987.378	802.757
157.819	25.894	986.184	802.526
158.833	25.930	986.185	802.616
159.848	25.977	984.896	801.703
160.862	25.676	983.503	799.165
161.877	25.671	982.467	798.228
162.892	25.795	981.647	798.042
163.906	25.679	980.391	796.435
164.921	25.780	979.019	795.699
165.935	25.780	978.677	795.350
166.950	25.719	977.702	794.220
167.964	25.751	976.936	793.666
168.979	25.585	975.718	791.876
169.994	25.585	974.908	791.149
171.008	25.762	974.550	791.567
172.023	25.747	973.693	790.735
173.037	25.627	972.751	789.372
174.052	25.388	971.556	787.287
175.067	25.515	970.329	786.776
176.081	25.552	970.339	786.878
177.096	25.594	969.589	786.383
178.110	25.273	968.626	784.129
179.125	25.101	967.970	782.778
180.140	25.165	967.403	782.529
181.154	25.219	967.389	782.687
182.169	25.593	967.167	784.068
183.183	25.696	966.903	784.233
184.198	25.743	965.636	783.340
185.213	25.591	965.097	782.175
186.227	25.717	964.727	782.352
187.242	25.756	963.896	781.778
188.256	25.909	962.751	781.443
189.271	25.848	962.285	780.730
190.286	25.618	960.989	778.615
191.300	24.831	959.932	774.286
192.315	24.214	957.812	769.842
193.329	23.954	957.977	768.784
194.344	25.009	958.141	773.405
195.359	25.550	958.099	775.637
196.373	25.789	957.693	776.270
197.388	25.721	956.624	775.040
198.402	25.611	956.334	774.266
199.417	25.700	955.466	773.876
200.432	25.362	954.804	771.821
201.446	25.226	953.960	770.484
202.461	25.260	953.409	770.117
203.475	24.485	951.697	765.345
204.490	23.802	950.002	760.992
205.504	24.536	950.345	764.342
206.519	25.305	950.357	767.574
207.534	25.392	949.752	767.390
208.548	25.815	949.961	769.296
209.563	25.589	948.767	767.299
210.577	25.359	948.088	765.699
211.592	25.913	947.904	767.843
212.607	25.808	947.090	766.668
213.621	25.827	946.305	766.049
214.636	25.825	945.818	765.579
215.650	25.865	945.039	765.046
216.665	25.953	944.654	765.041
217.680	25.864	943.646	763.780
218.694	25.578	942.140	761.284
219.709	25.160	941.989	759.326
220.723	25.508	941.662	760.470
221.738	25.671	940.482	760.134
222.753	25.595	940.428	759.706
223.767	25.761	939.991	759.986
224.782	25.926	939.731	760.404
225.796	25.918	938.739	759.497
226.811	25.207	937.407	755.363
227.826	24.648	936.157	751.936
228.840	24.863	935.013	751.855
229.855	24.902	934.712	751.708
230.869	24.553	933.684	749.353
231.884	25.042	933.752	751.392
232.899	25.618	933.999	753.938
233.913	25.643	933.341	753.446
234.928	25.566	932.589	752.449
235.942	25.374	932.459	751.473
236.957	25.169	931.212	749.548
237.972	25.155	930.969	749.227
238.986	25.270	930.490	749.256
240.001	25.292	929.977	748.866
241.015	25.381	929.269	748.602
242.030	25.515	928.478	748.458
243.045	25.675	928.301	748.914
244.059	25.845	927.669	749.045
245.074	25.632	926.532	747.176
246.088	25.292	925.901	745.190
247.103	25.507	925.538	745.723
248.117	26.077	925.714	748.161
249.132	26.386	924.850	748.677
250.147	26.471	924.343	748.554
251.161	26.560	924.084	748.644
252.176	26.531	923.299	747.825
253.190	26.583	922.832	747.593
254.205	26.738	922.378	747.801
255.220	26.534	921.985	746.574
256.234	26.561	920.775	745.638
257.249	26.516	919.865	744.651
258.263	26.563	919.377	744.381
259.278	26.480	918.917	743.605
260.293	26.540	918.613	743.536
261.307	26.475	918.083	742.775
262.322	26.242	917.021	740.897
263.336	25.580	915.013	736.497
264.351	24.517	913.229	730.649
265.366	24.743	912.407	730.853
266.380	25.620	913.385	735.156
267.395	26.084	913.115	736.769
268.409	26.134	912.471	736.386
269.424	26.378	911.989	736.928
270.439	26.398	911.080	736.211
271.453	26.363	910.739	735.727
272.468	26.535	910.459	736.134
273.482	26.599	910.011	735.966
274.497	26.353	908.409	733.611
275.512	25.897	907.399	730.880
276.526	26.285	907.270	732.285
277.541	26.484	907.165	732.942
278.555	26.164	906.411	730.971
279.570	26.228	905.367	730.322
280.585	26.275	905.133	730.261
281.599	26.152	904.345	729.062
282.614	25.554	902.956	725.466
283.628	25.584	902.062	724.805
284.643	25.980	902.187	726.437
285.657	25.445	901.463	723.634
286.672	25.246	900.294	721.835
287.687	25.887	900.141	724.226
288.701	25.979	899.501	724.015
289.716	25.684	898.829	722.226
290.730	25.515	898.254	721.023
291.745	25.431	897.057	719.662
292.760	25.535	897.313	720.218
293.774	26.583	897.757	724.709
294.789	26.857	897.630	725.637
295.803	26.917	896.715	725.073
296.818	26.992	896.071	724.791
297.833	26.474	894.844	721.666
298.847	26.371	893.866	720.403
299.862	26.703	893.808	721.615
300.876	27.004	893.664	722.634
301.891	26.797	892.721	720.984
302.906	26.233	892.156	718.224
303.920	26.513	892.168	719.283
304.935	26.860	891.567	720.111
305.949	26.840	890.823	719.369
306.964	26.422	889.702	716.742
307.979	26.666	889.619	717.578
308.993	26.920	889.158	718.150
310.008	26.971	888.748	717.954
311.022	26.631	887.768	715.758
312.037	26.534	887.093	714.768
313.052	26.349	886.008	713.098
314.066	25.451	884.244	708.079
315.081	25.004	883.880	705.964
316.095	25.946	884.185	709.858
317.110	26.495	884.251	712.008
318.125	25.584	882.401	706.878
319.139	24.594	880.669	701.542
320.154	24.574	880.678	701.407
321.168	25.496	881.100	705.301
322.183	26.299	880.854	708.189
323.197	26.449	880.843	708.705
324.212	26.553	880.672	708.915
325.227	26.562	880.170	708.483
326.241	26.473	879.129	707.233
327.256	26.361	878.599	706.308
328.270	26.281	877.655	705.172
329.285	26.149	876.632	703.773
330.300	25.887	876.030	702.207
331.314	26.190	875.577	702.964
332.329	26.671	875.586	704.780
333.343	26.687	875.578	704.774
334.358	26.754	874.958	704.473
335.373	26.754	875.019	704.457
336.387	27.016	874.743	705.193
337.402	27.142	874.319	705.277
338.416	27.027	874.037	704.541
339.431	27.174	873.713	704.787
340.446	27.433	873.257	705.360
341.460	27.239	872.676	704.079
342.475	27.020	872.063	702.673
343.489	27.168	872.145	703.251
344.504	27.358	871.778	703.625
345.519	27.715	871.105	704.400
346.533	27.638	870.819	703.808
347.548	27.610	870.246	703.175
348.562	27.558	869.608	702.398
349.577	27.468	869.115	701.590
350.592	27.638	867.751	701.083
351.606	27.590	867.412	700.561
352.621	27.428	866.874	699.440
353.635	27.341	865.460	697.907
354.650	26.523	864.260	693.741
355.665	25.606	862.832	689.023
356.679	26.077	862.624	690.598
357.694	26.685	862.044	692.399
358.708	26.350	862.002	691.021
359.723	26.772	862.034	692.600
360.738	27.226	861.206	693.608
361.752	27.239	860.918	693.361
362.767	27.601	860.371	694.241
363.781	27.829	860.039	694.780
364.796	27.782	860.014	694.519
365.810	27.869	859.760	694.581
366.825	27.963	859.059	694.310
367.840	27.635	857.774	691.967
368.854	27.255	857.062	689.891
369.869	27.284	856.963	689.858
370.883	27.299	856.456	689.447
371.898	27.182	855.857	688.461
372.913	27.405	855.399	688.876
373.927	27.547	854.863	688.920
374.942	27.559	854.674	688.752
375.956	27.533	854.350	688.332
376.971	27.783	853.857	688.817
377.986	27.773	853.833	688.699
379.000	27.959	852.811	688.513
380.015	27.857	851.965	687.385
381.029	27.720	851.857	686.721
382.044	27.881	851.122	686.674
383.059	27.989	850.532	686.546
384.073	27.908	850.213	685.922
385.088	27.696	849.571	684.547
386.102	27.618	848.514	683.342
387.117	27.458	848.025	682.290
388.132	27.129	846.788	680.003
389.146	26.839	845.714	677.995
390.161	27.224	845.674	679.344
391.175	27.490	845.751	680.337
392.190	27.270	844.680	678.597
393.205	25.920	842.625	671.857
394.219	24.296	840.770	664.274
395.234	24.014	840.971	663.321
396.248	25.775	841.977	670.621
397.263	27.330	842.412	676.698
398.278	27.405	842.089	676.656
399.292	27.127	841.433	675.038
400.307	27.123	840.882	674.520
401.321	27.336	840.372	674.843
402.336	27.535	840.936	675.972
403.350	27.961	840.941	677.498
404.365	28.135	840.856	678.012
405.380	28.536	840.216	678.923
406.394	28.468	839.640	678.143
407.409	28.541	839.215	678.010
408.423	28.417	838.794	677.153
409.438	28.482	838.346	676.971
410.453	28.536	838.241	677.027
411.467	28.623	837.339	676.558
412.482	28.539	836.845	675.790
413.496	28.587	836.519	675.646
414.511	28.567	836.211	675.263
415.526	28.505	835.714	674.573
416.540	28.443	835.144	673.827
417.555	28.319	834.314	672.642
418.569	28.169	833.743	671.572
419.584	28.302	833.081	671.467
420.599	28.113	832.659	670.375
421.613	96.739	1270.672	1388.555
422.628	83.738	1334.527	1388.655
