DTS Sentinel unit serial number:	SN413079Multiplexer serial number:	ORYXHardware model number:	OX4-SRSoftware version number:	ORYX F/W v4.00 Oryx Data Collector v3.7.2.0data status	okinstallation	princeton_trtdifferential loss correction	single-endedforward channel	channel 1reverse channel	N/Adate	2019/09/12time	19:36:34forward acquisition time	15.00reverse acquisition time	0.00gamma	496.2192k internal	0.2322k external	0.2322temperature offset calibration	1.0125default loss term (dB/km)	0.3790temperature slope calibration	1.0000multiplexer offset coefficient	1.0000multiplexer slope coefficient	1.0000fibre end	0.00T internal ref (°C)	32.19T ext. ref 1 (°C)	3.39T ext. ref 2 (°C)	26.72length (m)	temperature (°C)	Stokes	anti-Stokes-747.200	-25.480	-0.709	-0.423
-746.185	316.606	-0.434	0.828
-745.171	-3.960	-0.697	-0.488
-744.156	-21.134	-0.580	0.358
-743.142	246.787	0.473	0.806
-742.127	133.496	-0.427	-0.558
-741.112	800.000	0.130	-0.365
-740.098	231.146	0.386	0.639
-739.083	-64.872	0.985	-0.402
-738.069	-110.554	-0.418	0.087
-737.054	182.566	0.114	0.170
-736.039	-200.000	0.068	-1.143
-735.025	48.339	-0.528	0.500
-734.010	207.077	0.154	0.243
-732.996	144.985	0.224	-0.303
-731.981	132.979	0.196	0.255
-730.966	-200.000	-0.021	0.102
-729.952	-200.000	-0.121	0.703
-728.937	37.544	0.565	0.506
-727.923	58.864	-0.615	-0.610
-726.908	41.057	-0.647	0.590
-725.894	18.897	0.567	0.459
-724.879	-200.000	-0.074	0.810
-723.864	-185.126	0.626	-0.010
-722.850	-30.401	-0.421	-0.241
-721.835	263.519	-0.154	-0.270
-720.821	29.598	-1.163	-0.998
-719.806	-130.665	-0.144	0.020
-718.791	800.000	0.037	-0.149
-717.777	101.913	0.430	-0.506
-716.762	117.134	-0.018	0.022
-715.748	54.621	0.446	-0.434
-714.733	133.720	-0.235	-0.307
-713.718	312.428	-0.268	-0.508
-712.704	141.419	-0.450	-0.602
-711.689	337.359	0.217	-0.426
-710.675	-29.090	-0.528	-0.306
-709.660	75.498	-0.334	0.356
-708.645	168.265	-0.230	-0.330
-707.631	17.473	-0.299	-0.240
-706.616	-124.956	0.531	0.082
-705.602	5.856	-0.470	-0.350
-704.587	-99.705	-0.849	0.215
-703.572	-200.000	0.122	-1.346
-702.558	202.874	0.403	-0.628
-701.543	-165.085	0.368	-0.016
-700.529	-153.576	-0.624	-0.043
-699.514	44.008	0.063	-0.058
-698.499	-156.769	0.458	-0.028
-697.485	-200.000	0.012	-0.283
-696.470	-200.000	0.103	0.688
-695.456	402.871	-0.121	0.257
-694.441	330.067	0.046	0.089
-693.426	-103.649	-0.548	-0.130
-692.412	17.477	0.461	0.369
-691.397	200.508	0.126	0.195
-690.383	-62.232	-0.876	0.368
-689.368	294.885	-0.305	-0.563
-688.354	800.000	-0.218	-0.644
-687.339	439.393	-0.103	-0.227
-686.324	-87.296	-0.623	-0.190
-685.310	275.059	-0.232	-0.415
-684.295	-44.622	0.651	0.328
-683.281	-69.872	-0.753	-0.290
-682.266	3.473	-0.465	-0.341
-681.251	-200.000	-0.012	0.660
-680.237	-80.285	0.477	-0.161
-679.222	494.474	-0.158	-0.365
-678.208	-69.591	0.545	-0.210
-677.193	-89.951	-0.480	-0.141
-676.178	-102.942	0.171	-0.041
-675.164	800.000	0.067	0.191
-674.149	178.969	-0.263	0.387
-673.135	21.302	-0.520	0.426
-672.120	62.277	-0.556	-0.559
-671.105	32.052	0.916	-0.795
-670.091	-63.519	0.289	-0.120
-669.076	104.116	-0.161	0.190
-668.062	-69.148	-0.867	-0.336
-667.047	-18.149	-0.294	-0.185
-666.032	-71.188	0.375	0.142
-665.018	-10.744	-0.316	0.211
-664.003	-107.720	0.752	-0.165
-662.989	-107.575	-0.514	-0.113
-661.974	-200.000	0.039	-0.775
-660.959	800.000	0.241	1.002
-659.945	568.270	0.118	0.288
-658.930	800.000	0.181	0.747
-657.916	-200.000	0.021	-0.475
-656.901	17.581	-0.116	0.093
-655.886	-35.696	0.181	0.099
-654.872	-200.000	0.015	-1.035
-653.857	334.315	0.328	-0.639
-652.843	800.000	-0.497	-1.400
-651.828	-159.520	0.579	0.032
-650.814	636.959	0.210	0.538
-649.799	-22.357	0.671	-0.409
-648.784	-70.289	-0.733	0.280
-647.770	-162.900	0.944	0.046
-646.755	-200.000	0.138	-0.877
-645.741	-169.465	0.454	0.017
-644.726	315.626	0.258	-0.490
-643.711	-147.997	0.060	-0.005
-642.697	-139.489	-1.115	0.120
-641.682	-200.000	0.003	0.490
-640.668	646.873	-0.040	0.102
-639.653	-8.095	-0.389	0.263
-638.638	-200.000	0.025	0.814
-637.624	329.702	0.180	-0.348
-636.609	-200.000	-0.005	0.284
-635.595	-124.497	0.835	0.131
-634.580	-113.311	0.141	0.028
-633.565	183.464	-0.547	-0.813
-632.551	1.205	0.301	0.217
-631.536	-27.261	-0.332	0.194
-630.522	800.000	0.309	-1.075
-629.507	-200.000	-0.162	0.727
-628.492	800.000	0.185	0.642
-627.478	800.000	0.307	-0.888
-626.463	50.392	0.337	0.321
-625.449	-148.483	0.375	0.031
-624.434	-34.505	0.493	0.271
-623.419	800.000	0.221	0.618
-622.405	-200.000	0.142	0.862
-621.390	251.676	-0.312	-0.534
-620.376	-200.000	-0.034	-0.294
-619.361	-145.413	-0.310	0.028
-618.346	-63.908	0.203	-0.083
-617.332	-8.046	0.508	-0.344
-616.317	102.610	-0.241	-0.283
-615.303	-200.000	0.054	0.619
-614.288	136.161	1.113	1.459
-613.273	19.888	0.619	0.501
-612.259	800.000	0.115	-0.351
-611.244	-200.000	-0.024	0.255
-610.230	395.538	-0.134	0.280
-609.215	-200.000	0.133	-0.842
-608.201	-35.263	-0.153	0.084
-607.186	260.151	0.247	-0.429
-606.171	141.353	-0.256	-0.340
-605.157	-138.375	0.365	0.041
-604.142	1.711	0.354	-0.256
-603.128	126.034	-0.535	0.679
-602.113	800.000	-0.054	0.221
-601.098	800.000	0.046	0.162
-600.084	800.000	-0.030	0.096
-599.069	-76.557	1.207	-0.426
-598.055	-94.728	0.195	0.053
-597.040	191.760	0.179	0.272
-596.025	16.890	0.316	-0.252
-595.011	-20.422	-0.410	0.253
-593.996	283.578	-0.222	-0.401
-592.982	151.388	0.062	0.085
-591.967	-200.000	-0.065	-0.294
-590.952	800.000	-0.266	0.761
-589.938	391.256	-0.192	0.400
-588.923	584.965	-0.180	0.444
-587.909	128.950	0.253	0.324
-586.894	93.310	-0.271	-0.308
-585.879	55.655	0.232	0.226
-584.865	800.000	-0.136	0.456
-583.850	5.704	0.718	0.533
-582.836	-200.000	0.061	0.566
-581.821	-200.000	0.169	0.746
-580.806	-200.000	0.123	-0.953
-579.792	348.091	-0.110	-0.217
-578.777	-81.529	0.537	0.177
-577.763	-96.843	-0.557	0.147
-576.748	182.998	0.195	0.288
-575.733	800.000	0.047	0.195
-574.719	800.000	0.317	-0.893
-573.704	-127.565	0.455	0.066
-572.690	-200.000	-0.043	-0.557
-571.675	23.429	0.435	0.359
-570.661	-113.238	-0.670	0.132
-569.646	-200.000	0.023	0.238
-568.631	-132.052	0.561	-0.073
-567.617	-143.550	-0.482	0.046
-566.602	-34.009	0.769	0.424
-565.588	164.567	0.285	0.403
-564.573	-19.045	-0.110	0.068
-563.558	800.000	0.197	0.554
-562.544	-76.185	0.383	0.135
-561.529	238.921	0.261	-0.435
-560.515	-8.898	0.505	0.339
-559.500	-100.509	-0.318	0.079
-558.485	-49.068	-0.994	0.477
-557.471	-111.762	0.868	0.176
-556.456	-49.177	0.253	0.121
-555.442	133.471	-0.288	0.374
-554.427	7.384	-0.588	-0.440
-553.412	-79.323	-0.670	-0.228
-552.398	-200.000	0.130	-0.582
-551.383	-64.525	0.196	0.080
-550.369	100.130	0.888	-1.032
-549.354	-136.946	0.442	0.051
-548.339	307.987	-0.358	0.670
-547.325	-128.495	-0.584	0.083
-546.310	332.811	-0.239	-0.462
-545.296	-200.000	0.065	-0.456
-544.281	-62.842	0.597	-0.248
-543.266	-36.464	-0.706	-0.381
-542.252	-99.416	-0.780	-0.197
-541.237	33.315	1.290	1.122
-540.223	-26.323	-0.232	0.137
-539.208	61.231	0.220	-0.219
-538.193	-79.134	0.558	-0.190
-537.179	-73.446	0.237	-0.087
-536.164	521.852	0.179	0.422
-535.150	372.818	0.098	-0.199
-534.135	-160.623	-0.454	-0.024
-533.121	232.429	-0.403	0.663
-532.106	800.000	-0.281	-0.880
-531.091	67.730	-0.698	-0.715
-530.077	-122.752	-0.295	-0.048
-529.062	-200.000	-0.017	-0.796
-528.048	-200.000	0.009	-0.239
-527.033	276.370	-0.086	0.153
-526.018	110.315	0.473	-0.569
-525.004	-25.520	-0.315	0.187
-523.989	-51.845	-0.469	-0.219
-522.975	-200.000	0.056	0.471
-521.960	-200.000	0.089	0.428
-520.945	-200.000	-0.022	-0.343
-519.931	-156.703	0.442	0.027
-518.916	-4.961	-0.519	-0.358
-517.902	-200.000	-0.007	-0.493
-516.887	-13.295	-0.324	-0.210
-515.872	431.041	-0.131	-0.285
-514.858	-200.000	-0.040	-0.328
-513.843	280.198	0.380	-0.681
-512.829	-200.000	-0.077	0.732
-511.814	-101.979	0.523	0.126
-510.799	-85.090	-0.651	-0.204
-509.785	-200.000	-0.002	0.163
-508.770	-23.133	-0.164	0.099
-507.756	442.941	0.197	0.431
-506.741	-122.879	-0.485	0.078
-505.726	52.316	-0.693	0.661
-504.712	-200.000	0.007	-0.406
-503.697	-200.000	-0.126	0.916
-502.683	117.119	-0.443	-0.544
-501.668	-73.648	-0.916	-0.334
-500.653	-200.000	-0.068	0.441
-499.639	-163.131	-0.663	-0.032
-498.624	-91.256	0.946	0.271
-497.610	445.955	0.278	0.611
-496.595	800.000	0.195	0.694
-495.581	137.480	0.179	-0.234
-494.566	-200.000	-0.004	-0.528
-493.551	23.307	0.549	0.452
-492.537	31.253	0.505	0.434
-491.522	-115.924	0.242	0.045
-490.508	-43.709	0.639	-0.322
-489.493	-164.943	-1.298	0.058
-488.478	-200.000	0.040	0.908
-487.464	800.000	0.134	0.443
-486.449	-200.000	-0.028	0.128
-485.435	-46.786	-0.551	0.270
-484.420	481.218	0.112	0.254
-483.405	127.167	-0.186	0.235
-482.391	370.823	0.252	-0.511
-481.376	-200.000	0.083	0.543
-480.362	-200.000	0.022	0.282
-479.347	672.273	0.137	-0.355
-478.332	-200.000	-0.075	-0.382
-477.318	-156.686	-1.149	0.071
-476.303	141.781	0.176	-0.233
-475.289	-73.705	0.419	-0.152
-474.274	-189.285	0.028	0.000
-473.259	-200.000	0.106	-0.723
-472.245	800.000	0.093	0.311
-471.230	-108.809	0.482	0.103
-470.216	-54.760	0.781	0.352
-469.201	800.000	0.157	0.534
-468.186	-99.897	-0.599	-0.150
-467.172	-200.000	-0.007	0.555
-466.157	22.167	0.296	-0.241
-465.143	-163.331	-0.804	0.038
-464.128	110.709	0.132	-0.158
-463.113	-200.000	-0.052	0.248
-462.099	800.000	-0.133	0.402
-461.084	-33.634	0.678	0.374
-460.070	-152.074	-0.361	-0.026
-459.055	-95.140	-0.574	0.155
-458.040	-200.000	-0.007	0.536
-457.026	250.026	-0.085	-0.145
-456.011	-200.000	-0.003	-0.247
-454.997	157.539	-0.667	0.923
-453.982	800.000	-0.062	-0.259
-452.968	348.876	0.214	-0.422
-451.953	661.846	-0.145	-0.374
-450.938	429.870	-0.289	-0.624
-449.924	-36.878	-0.191	0.102
-448.909	-35.675	-0.462	-0.250
-447.895	25.486	-0.496	-0.412
-446.880	239.417	0.249	0.413
-445.865	176.788	-0.270	0.392
-444.851	-21.479	-0.808	0.492
-443.836	-38.111	0.148	0.078
-442.822	-200.000	0.076	-0.369
-441.807	-200.000	-0.043	0.218
-440.792	-170.401	0.831	-0.029
-439.778	-47.293	-0.829	-0.403
-438.763	10.741	-0.911	-0.694
-437.749	-81.436	-0.966	0.317
-436.734	47.376	-0.330	0.307
-435.719	-35.923	-0.665	-0.359
-434.705	800.000	-0.187	0.547
-433.690	-85.340	0.705	0.220
-432.676	586.315	-0.148	-0.364
-431.661	14.020	-0.256	0.199
-430.646	25.805	0.434	-0.361
-429.632	-16.497	-0.435	-0.275
-428.617	-200.000	0.070	-0.437
-427.603	-200.000	0.165	-1.219
-426.588	7.239	0.584	0.435
-425.573	640.143	-0.242	0.614
-424.559	-200.000	-0.017	0.358
-423.544	47.453	-0.077	-0.072
-422.530	365.364	0.453	-0.911
-421.515	-200.000	0.014	0.201
-420.500	453.246	-0.323	0.712
-419.486	26.669	-0.215	0.179
-418.471	33.016	-0.254	-0.220
-417.457	29.137	0.750	0.635
-416.442	-89.295	0.482	-0.142
-415.428	20.560	0.506	-0.409
-414.413	800.000	0.112	-0.333
-413.398	-200.000	-0.005	-0.284
-412.384	-2.689	-0.543	0.379
-411.369	85.303	0.473	0.518
-410.355	-200.000	0.114	-0.659
-409.340	-134.855	-0.626	-0.076
-408.325	-200.000	-0.004	0.390
-407.311	-43.297	-0.558	-0.281
-406.296	-12.156	0.717	-0.468
-405.282	-200.000	-0.509	-0.000
-404.267	-200.000	0.030	0.247
-403.252	800.000	0.154	0.430
-402.238	2.182	0.153	0.110
-401.223	410.407	-0.398	0.841
-400.209	-90.773	-0.969	-0.279
-399.194	178.322	0.501	-0.729
-398.179	-200.000	0.074	0.480
-397.165	283.891	0.121	-0.217
-396.150	-200.000	0.014	0.208
-395.136	384.311	-0.177	0.362
-394.121	-200.000	0.039	-0.183
-393.106	-41.402	0.280	-0.144
-392.092	-200.000	-0.053	0.584
-391.077	-93.010	-0.778	0.216
-390.063	-200.000	0.187	0.965
-389.048	-88.871	-0.339	0.100
-388.033	349.682	-0.142	-0.280
-387.019	-122.626	1.528	-0.247
-386.004	-52.974	-0.253	-0.116
-384.990	50.998	0.622	-0.587
-383.975	-119.733	0.475	0.082
-382.960	587.761	-0.544	-1.334
-381.946	185.828	-0.355	0.525
-380.931	-21.997	-0.785	0.475
-379.917	342.439	-0.331	-0.645
-378.902	800.000	0.082	-0.324
-377.888	262.177	0.125	0.216
-376.873	118.066	-0.223	-0.273
-375.858	-200.000	-0.052	0.602
-374.844	50.086	0.481	0.452
-373.829	683.993	-0.117	-0.305
-372.815	-200.000	0.109	-0.566
-371.800	354.600	0.451	-0.893
-370.785	-200.000	0.237	-0.001
-369.771	487.562	0.166	-0.378
-368.756	121.145	-0.412	-0.510
-367.742	-64.030	-0.714	0.290
-366.727	-87.950	0.555	-0.166
-365.712	-200.000	-0.092	0.436
-364.698	800.000	0.219	-0.656
-363.683	328.329	-0.206	0.395
-362.669	413.577	-0.208	0.440
-361.654	800.000	0.149	0.443
-360.639	-38.143	-0.665	0.351
-359.625	-54.933	0.596	0.267
-358.610	-200.000	-0.021	0.160
-357.596	800.000	-0.147	-0.549
-356.581	601.330	0.272	-0.672
-355.566	233.669	-0.364	-0.596
-354.552	136.451	-0.103	-0.133
-353.537	-22.072	0.619	0.374
-352.523	19.461	-0.333	-0.267
-351.508	458.908	0.073	-0.162
-350.493	-200.000	0.042	0.286
-349.479	516.106	0.125	0.291
-348.464	-124.000	0.377	-0.059
-347.450	130.381	-0.259	-0.330
-346.435	-70.296	0.035	-0.013
-345.420	-131.987	0.683	-0.088
-344.406	502.999	-0.215	0.494
-343.391	108.293	-0.501	-0.594
-342.377	187.639	0.578	-0.858
-341.362	-200.000	0.087	0.670
-340.348	-64.570	0.288	-0.116
-339.333	-37.236	0.573	0.305
-338.318	-200.000	-0.139	-0.805
-337.304	-200.000	0.117	-0.836
-336.289	106.856	0.169	0.199
-335.275	-200.000	-0.051	0.650
-334.260	-200.000	0.064	-0.461
-333.245	13.147	0.265	-0.204
-332.231	-130.838	-0.126	0.017
-331.216	-114.451	-0.598	0.114
-330.202	-60.191	0.728	-0.309
-329.187	-200.000	-0.059	-0.581
-328.172	424.098	-0.276	0.589
-327.158	382.039	0.220	-0.449
-326.143	-89.216	0.356	0.105
-325.129	-159.569	-0.441	-0.024
-324.114	18.384	-0.571	-0.454
-323.099	-174.535	-0.656	0.019
-322.085	76.192	-0.703	0.739
-321.070	-200.000	0.006	0.077
-320.056	-37.035	-0.515	-0.274
-319.041	25.559	-0.385	0.318
-318.026	-200.000	-0.111	0.657
-317.012	-57.142	0.410	-0.179
-315.997	297.709	0.471	-0.860
-314.983	52.583	-0.252	-0.239
-313.968	-170.402	-0.419	0.015
-312.953	-200.000	-0.012	-0.259
-311.939	333.625	0.039	0.074
-310.924	110.533	-0.391	-0.467
-309.910	0.531	0.488	-0.347
-308.895	-200.000	-0.080	0.860
-307.880	-40.889	-0.762	0.392
-306.866	-200.000	-0.130	-0.664
-305.851	710.321	-0.156	0.409
-304.837	-101.369	0.452	0.109
-303.822	-179.875	-0.411	0.009
-302.807	76.915	-0.275	-0.290
-301.793	440.564	0.113	0.245
-300.778	717.046	0.211	0.557
-299.764	165.667	0.081	0.113
-298.749	-200.000	-0.005	-0.064
-297.735	-142.396	0.343	-0.034
-296.720	95.514	-0.346	-0.392
-295.705	479.508	0.283	0.636
-294.691	-102.528	-0.256	-0.061
-293.676	800.000	0.147	0.555
-292.662	507.269	0.265	0.611
-291.647	-69.513	0.317	-0.121
-290.632	-71.243	-0.594	0.221
-289.618	85.825	0.207	-0.225
-288.603	122.172	0.243	0.301
-287.589	252.849	0.183	0.310
-286.574	19.182	-0.483	-0.385
-285.559	-60.888	0.919	-0.386
-284.545	-44.505	-0.444	0.220
-283.530	-47.389	0.407	0.196
-282.516	-94.720	-0.456	0.123
-281.501	-78.712	0.675	-0.229
-280.486	-200.000	-0.153	-0.900
-279.472	653.409	-0.378	0.961
-278.457	-117.163	0.729	0.132
-277.443	-67.921	0.585	-0.227
-276.428	-92.212	0.348	-0.098
-275.413	-200.000	0.110	-0.633
-274.399	588.820	-0.260	0.636
-273.384	283.038	0.168	-0.299
-272.370	308.818	-0.250	0.462
-271.355	432.082	-0.222	-0.478
-270.340	75.373	0.573	-0.599
-269.326	-200.000	-0.117	-0.631
-268.311	-162.591	0.261	-0.013
-267.297	53.983	0.335	-0.319
-266.282	73.534	0.262	-0.273
-265.267	5.472	0.504	0.369
-264.253	-151.596	-0.490	0.036
-263.238	800.000	-0.073	-0.274
-262.224	-16.807	-0.625	-0.392
-261.209	-62.925	0.436	0.179
-260.195	-22.826	-0.396	0.237
-259.180	76.712	0.636	0.668
-258.165	-150.100	-0.525	0.040
-257.151	6.552	-0.831	-0.612
-256.136	60.223	0.398	0.390
-255.122	-68.405	-0.555	0.214
-254.107	67.900	0.314	0.318
-253.092	-200.000	-0.019	-0.450
-252.078	-200.000	0.012	0.096
-251.063	12.711	-0.443	-0.339
-250.049	514.616	-0.305	-0.705
-249.034	-146.326	0.436	-0.038
-248.019	167.349	-0.263	0.370
-247.005	78.503	0.285	-0.302
-245.990	-200.000	0.077	-0.673
-244.976	687.506	-0.483	-1.250
-243.961	-171.057	0.576	-0.019
-242.946	2.322	-0.806	-0.578
-241.932	-119.069	-0.609	-0.106
-240.917	361.135	-0.267	-0.530
-239.903	-151.487	0.359	0.026
-238.888	72.759	-0.472	-0.488
-237.873	-42.459	0.865	0.437
-236.859	-160.347	-0.559	0.030
-235.844	-132.525	0.700	-0.089
-234.830	800.000	-0.172	-0.679
-233.815	-37.829	-0.168	-0.088
-232.800	-200.000	0.152	0.816
-231.786	45.030	0.089	-0.081
-230.771	-146.987	0.551	-0.047
-229.757	-81.864	-0.695	-0.225
-228.742	431.754	0.254	0.544
-227.727	-51.690	0.360	0.166
-226.713	800.000	0.072	-0.274
-225.698	119.028	0.115	-0.140
-224.684	339.319	0.235	0.453
-223.669	-125.991	0.427	0.063
-222.655	-200.000	-0.038	-0.380
-221.640	-200.000	-0.010	-0.560
-220.625	159.986	-0.973	1.342
-219.611	-133.865	0.597	0.073
-218.596	-34.824	0.273	-0.147
-217.582	-10.242	-0.481	0.316
-216.567	-60.189	-1.272	0.537
-215.552	-54.394	0.289	0.130
-214.538	-200.000	-0.118	-0.869
-213.523	-114.400	-0.239	0.046
-212.509	800.000	0.149	-0.427
-211.494	-200.000	-0.068	0.639
-210.479	-200.000	0.136	0.732
-209.465	-56.479	0.243	-0.107
-208.450	547.781	0.224	-0.531
-207.436	-33.346	-0.346	-0.189
-206.421	435.760	0.465	1.001
-205.406	800.000	-0.026	-0.078
-204.392	-47.971	0.384	0.184
-203.377	162.320	-0.295	-0.409
-202.363	-8.644	-0.419	-0.278
-201.348	-4.965	0.723	0.493
-200.333	-163.677	1.375	0.064
-199.319	-200.000	-0.057	-0.367
-198.304	430.980	-0.249	-0.533
-197.290	-147.612	0.629	-0.052
-196.275	326.853	-0.206	0.390
-195.260	-200.000	-0.057	-0.618
-194.246	139.162	0.239	-0.311
-193.231	105.393	-0.161	-0.188
-192.217	121.107	-0.320	0.394
-191.202	-200.000	0.005	0.465
-190.187	-118.141	0.250	-0.044
-189.173	-98.939	-0.815	0.204
-188.158	800.000	-0.101	0.283
-187.144	-20.851	0.176	-0.107
-186.129	-200.000	-0.160	-0.801
-185.114	44.384	-0.492	0.447
-184.100	800.000	-0.350	1.000
-183.085	800.000	0.153	0.621
-182.071	52.000	-0.526	-0.495
-181.056	54.732	-0.173	-0.165
-180.042	94.898	0.626	-0.704
-179.027	-58.048	-0.490	-0.211
-178.012	53.427	0.283	-0.268
-176.998	17.344	0.448	-0.352
-175.983	480.085	-0.213	0.477
-174.969	731.273	0.119	0.313
-173.954	-200.000	0.077	0.630
-172.939	-159.450	-0.254	-0.014
-171.925	-116.578	-0.423	-0.077
-170.910	800.000	0.070	0.243
-169.896	357.759	-0.521	1.027
-168.881	29.063	0.331	-0.277
-167.866	124.499	0.317	-0.394
-166.852	-144.074	0.109	-0.010
-165.837	-172.316	-0.277	-0.009
-164.823	800.000	0.171	-0.483
-163.808	377.766	-0.244	-0.492
-162.793	694.806	-0.154	0.399
-161.779	150.666	0.065	0.087
-160.764	318.439	0.245	-0.458
-159.750	403.546	0.346	-0.719
-158.735	54.021	-0.215	-0.204
-157.720	-39.964	0.305	0.157
-156.706	143.374	0.197	-0.259
-155.691	-63.109	-0.650	0.265
-154.677	-82.029	0.215	-0.069
-153.662	219.989	0.048	0.075
-152.647	-4.101	-0.301	-0.206
-151.633	-200.000	-0.000	0.495
-150.618	487.888	-0.028	-0.063
-149.604	99.953	0.205	-0.235
-148.589	-181.382	-1.306	-0.025
-147.574	19.250	-0.709	0.562
-146.560	215.380	0.279	0.436
-145.545	5.476	0.447	0.326
-144.531	21.150	-0.421	-0.338
-143.516	56.710	-0.411	-0.395
-142.502	800.000	-0.087	0.289
-141.487	134.321	-0.796	-1.018
-140.472	-200.000	0.011	0.379
-139.458	-114.022	0.445	-0.085
-138.443	-200.000	-0.106	-0.608
-137.429	-76.508	-0.475	0.165
-136.414	-59.921	0.859	0.362
-135.399	-25.015	0.485	-0.284
-134.385	536.845	-0.133	-0.312
-133.370	332.423	0.060	-0.115
-132.356	-112.814	0.498	0.097
-131.341	800.000	0.086	0.368
-130.326	145.177	0.036	-0.048
-129.312	397.923	-0.444	0.916
-128.297	19.065	-0.680	0.538
-127.283	-170.060	0.582	-0.020
-126.268	-161.760	0.302	0.015
-125.253	-3.316	-0.363	-0.249
-124.239	-71.317	-0.540	0.200
-123.224	77.528	-0.459	-0.482
-122.210	2.541	-0.288	-0.206
-121.195	64.062	-0.236	-0.235
-120.180	0.380	-0.372	-0.262
-119.166	-90.661	0.764	0.218
-118.151	-82.182	0.789	-0.254
-117.137	128.264	-0.375	-0.470
-116.122	-65.965	0.360	-0.142
-115.107	-200.000	-0.074	-0.653
-114.093	-131.246	0.464	-0.061
-113.078	-177.102	-0.473	-0.012
-112.064	215.274	0.402	0.629
-111.049	800.000	-0.082	0.287
-110.034	-200.000	0.023	-0.410
-109.020	573.233	-0.258	-0.620
-108.005	121.717	0.443	-0.544
-106.991	-200.000	0.063	0.546
-105.976	83.085	-0.055	0.059
-104.962	206.130	0.535	0.820
-103.947	203.007	-0.290	0.441
-102.932	47.272	-0.582	0.534
-101.918	800.000	-0.260	0.788
-100.903	-200.000	-0.587	-0.002
-99.889	-112.410	0.885	0.174
-98.874	23.293	-0.424	-0.343
-97.859	-37.690	-0.392	-0.206
-96.845	6.375	0.892	0.652
-95.830	-118.335	-0.622	-0.109
-94.816	86.213	0.581	0.631
-93.801	62.181	0.103	0.101
-92.786	227.383	0.157	-0.251
-91.772	-200.000	0.052	-0.694
-90.757	76.376	0.232	-0.242
-89.743	-84.707	-0.542	0.168
-88.728	-54.415	-0.515	-0.230
-87.713	-46.296	0.980	0.475
-86.699	0.829	0.129	0.091
-85.684	66.416	0.140	-0.140
-84.670	198.746	0.173	-0.260
-83.655	65.286	0.262	-0.261
-82.640	57.671	0.839	0.807
-81.626	-77.040	0.623	0.214
-80.611	-129.408	-0.191	-0.026
-79.597	800.000	0.181	-0.546
-78.582	-157.066	-0.346	-0.021
-77.567	56.554	0.119	0.114
-76.553	-107.670	-0.441	0.095
-75.538	11.634	-0.701	-0.529
-74.524	199.245	-0.377	-0.568
-73.509	405.507	0.069	-0.143
-72.494	-36.811	-0.653	-0.345
-71.480	-59.849	-0.824	-0.347
-70.465	800.000	0.061	-0.192
-69.451	-73.087	0.102	0.037
-68.436	792.386	0.058	-0.158
-67.422	110.149	-0.328	0.388
-66.407	101.205	0.614	0.704
-65.392	5.280	0.699	0.507
-64.378	285.473	-0.297	0.527
-63.363	239.897	-0.236	0.386
-62.349	83.366	0.258	0.276
-61.334	112.115	-0.974	-1.158
-60.319	411.921	0.403	0.842
-59.305	800.000	-0.316	-0.893
-58.290	800.000	0.249	0.691
-57.276	-200.000	0.076	1.797
-56.261	-200.000	96.361	602.630
-55.246	676.800	1352.630	3456.820
-54.232	204.381	2518.779	3839.186
-53.217	120.830	2119.941	2592.098
-52.203	44.195	1589.071	1433.376
-51.188	35.508	1331.115	1148.954
-50.173	32.615	1288.879	1095.660
-49.159	56.997	1338.724	1282.889
-48.144	57.828	1354.799	1303.151
-47.130	36.017	1313.792	1136.824
-46.115	32.563	1295.382	1100.710
-45.100	32.192	1290.842	1094.646
-44.086	32.258	1288.298	1092.834
-43.071	31.888	1286.239	1088.893
-42.057	32.186	1282.833	1087.692
-41.042	32.265	1281.217	1086.734
-40.027	32.215	1280.113	1085.470
-39.013	32.046	1279.158	1083.639
-37.998	32.234	1276.575	1082.489
-36.984	32.128	1276.083	1081.420
-35.969	32.412	1273.053	1080.438
-34.954	32.099	1271.632	1077.395
-33.940	31.977	1270.655	1075.828
-32.925	32.057	1269.784	1075.503
-31.911	32.296	1266.715	1074.226
-30.896	32.405	1265.764	1074.002
-29.881	32.028	1265.980	1071.990
-28.867	32.256	1263.628	1071.254
-27.852	32.345	1261.604	1070.004
-26.838	32.394	1261.216	1069.907
-25.823	32.437	1258.794	1068.055
-24.809	32.199	1258.832	1066.698
-23.794	32.234	1257.118	1065.397
-22.779	32.210	1255.525	1063.872
-21.765	32.343	1253.415	1062.792
-20.750	31.992	1253.669	1060.984
-19.736	32.261	1251.430	1060.562
-18.721	32.092	1250.840	1059.065
-17.706	32.149	1249.927	1058.575
-16.692	32.121	1248.343	1057.031
-15.677	32.210	1246.694	1056.092
-14.663	32.124	1245.857	1054.863
-13.648	32.329	1244.587	1054.893
-12.633	32.097	1244.588	1053.553
-11.619	31.935	1243.566	1051.734
-10.604	32.221	1242.636	1052.511
-9.590	32.026	1241.923	1050.774
-8.575	32.494	1238.666	1050.588
-7.560	32.355	1239.236	1050.251
-6.546	32.253	1238.078	1048.661
-5.531	31.847	1238.243	1046.496
-4.517	32.207	1237.462	1047.797
-3.502	32.061	1236.171	1045.849
-2.487	31.891	1235.496	1044.293
-1.473	32.079	1230.986	1041.484
-0.458	30.443	1215.997	1019.786
0.556	27.986	1198.765	981.207
1.571	24.205	1203.463	964.546
2.586	23.123	1217.094	969.457
3.600	22.726	1206.217	958.551
4.615	17.199	1134.848	873.423
5.629	7.932	1060.283	771.255
6.644	3.703	1039.362	735.857
7.659	3.559	1037.757	733.973
8.673	3.111	1036.256	730.715
9.688	3.189	1035.609	730.570
10.702	3.572	1034.002	731.183
11.717	9.321	1041.210	763.584
12.731	18.702	1054.315	818.036
13.746	23.535	1060.449	845.827
14.761	24.535	1061.082	851.025
15.775	23.827	1060.437	847.060
16.790	23.746	1058.680	845.197
17.804	23.231	1058.665	842.656
18.819	23.224	1058.508	842.427
19.834	23.522	1057.295	842.799
20.848	23.400	1057.289	842.142
21.863	23.385	1056.304	841.210
22.877	23.260	1055.511	839.914
23.892	23.391	1054.132	839.362
24.907	23.037	1053.943	837.460
25.921	23.427	1051.707	837.455
26.936	23.191	1049.793	834.743
27.950	23.169	1048.930	833.878
28.965	23.192	1048.030	833.195
29.980	23.285	1046.952	832.703
30.994	23.157	1047.185	832.211
32.009	23.526	1045.087	832.206
33.023	23.366	1043.208	829.885
34.038	23.327	1043.090	829.533
35.053	22.851	1043.023	827.179
36.067	23.054	1041.486	826.835
37.082	22.849	1041.613	825.905
38.096	23.067	1041.607	826.846
39.111	23.319	1039.945	826.630
40.126	23.072	1039.084	824.721
41.140	22.850	1036.373	821.461
42.155	22.574	1034.760	818.830
43.169	22.356	1034.822	817.795
44.184	22.743	1032.753	817.879
45.199	22.692	1032.407	817.300
46.213	22.813	1032.178	817.605
47.228	23.382	1031.426	819.569
48.242	23.400	1031.045	819.279
49.257	23.440	1029.175	817.905
50.271	23.462	1028.949	817.752
51.286	23.535	1029.233	818.241
52.301	23.399	1028.907	817.284
53.315	23.231	1027.365	815.215
54.330	23.234	1025.806	813.919
55.344	22.965	1025.178	812.112
56.359	22.891	1024.763	811.371
57.374	22.885	1023.321	810.131
58.388	22.831	1021.447	808.328
59.403	22.879	1021.134	808.230
60.417	22.633	1020.943	806.880
61.432	22.856	1019.822	806.941
62.447	22.844	1019.521	806.576
63.461	22.644	1018.218	804.562
64.476	22.647	1017.302	803.783
65.490	22.492	1016.150	802.096
66.505	22.650	1015.753	802.431
67.520	22.227	1015.512	800.244
68.534	22.502	1013.310	799.687
69.549	22.477	1013.279	799.478
70.563	22.306	1012.098	797.699
71.578	21.888	1011.561	795.309
72.593	21.761	1010.868	794.122
73.607	21.858	1010.068	793.861
74.622	22.240	1009.795	795.303
75.636	22.030	1009.081	793.721
76.651	22.273	1008.900	794.605
77.666	22.295	1007.812	793.779
78.680	22.471	1005.804	792.920
79.695	22.166	1006.693	792.178
80.709	22.325	1006.039	792.308
81.724	22.384	1004.912	791.615
82.739	22.694	1003.894	792.138
83.753	23.157	1004.037	794.259
84.768	23.659	1003.659	796.140
85.782	23.813	1003.460	796.602
86.797	23.754	1002.698	795.662
87.812	23.414	1001.658	793.244
88.826	23.730	999.699	793.033
89.841	23.516	1000.468	792.618
90.855	23.575	998.756	791.455
91.870	23.570	998.242	790.955
92.884	23.537	996.810	789.602
93.899	23.354	995.891	787.991
94.914	23.613	995.253	788.568
95.928	23.486	994.424	787.278
96.943	23.178	994.059	785.555
97.957	23.032	992.261	783.416
98.972	23.389	990.725	783.714
99.987	23.303	990.578	783.148
101.001	22.845	990.652	781.112
102.016	23.331	988.400	781.410
103.030	23.317	989.045	781.790
104.045	23.922	986.284	782.200
105.060	23.693	985.293	780.337
106.074	23.269	984.543	777.811
107.089	23.051	984.640	776.865
108.103	22.810	983.021	774.460
109.118	22.457	982.061	772.087
110.133	22.355	980.942	770.691
111.147	22.116	980.045	768.876
112.162	22.216	979.167	768.552
113.176	22.429	977.653	768.227
114.191	22.806	977.256	769.491
115.206	22.585	976.600	767.942
116.220	22.431	975.386	766.253
117.235	22.625	975.330	766.983
118.249	22.222	974.050	764.158
119.264	22.111	973.061	762.831
120.279	22.358	971.173	762.354
121.293	22.081	971.450	761.304
122.308	21.683	970.902	759.085
123.322	21.666	969.532	757.869
124.337	21.982	967.960	757.939
125.352	21.867	967.528	757.040
126.366	22.030	966.478	756.855
127.381	22.437	965.649	757.890
128.395	22.317	965.068	756.849
129.410	22.466	965.202	757.530
130.424	22.910	962.828	757.502
131.439	22.802	963.374	757.401
132.454	22.738	963.092	756.839
133.468	22.640	961.492	755.096
134.483	22.790	960.344	754.768
135.497	23.138	959.446	755.481
136.512	22.783	959.728	754.119
137.527	22.579	959.808	753.244
138.541	22.787	957.159	751.986
139.556	22.937	956.924	752.374
140.570	23.145	956.745	753.052
141.585	23.306	956.228	753.264
142.600	23.602	954.949	753.448
143.614	23.731	954.362	753.463
144.629	23.784	953.331	752.806
145.643	23.476	953.765	751.777
146.658	23.355	950.674	748.764
147.673	22.914	950.186	746.450
148.687	22.834	948.513	744.734
149.702	22.899	947.980	744.522
150.716	22.919	947.352	744.046
151.731	23.018	946.450	743.689
152.746	23.100	946.327	743.870
153.760	23.245	945.360	743.653
154.775	23.297	945.165	743.653
155.789	23.569	944.059	743.856
156.804	23.347	943.213	742.198
157.819	23.131	943.433	741.398
158.833	23.598	942.163	742.289
159.848	23.562	942.026	741.964
160.862	23.770	940.640	741.676
161.877	23.098	939.582	737.973
162.892	22.850	938.147	735.747
163.906	22.796	937.484	734.938
164.921	23.053	935.761	734.588
165.935	23.084	934.763	733.871
166.950	23.367	934.244	734.571
167.964	22.999	934.615	733.271
168.979	23.083	932.213	731.671
169.994	22.915	931.813	730.597
171.008	23.328	931.314	731.847
172.023	23.587	931.860	733.279
173.037	23.668	930.359	732.371
174.052	23.097	929.455	729.241
175.067	22.669	928.246	726.465
176.081	22.721	927.198	725.792
177.096	22.537	926.826	724.681
178.110	22.922	925.428	725.104
179.125	22.849	924.856	724.293
180.140	22.787	925.422	724.416
181.154	22.610	925.934	724.027
182.169	23.087	925.182	725.331
183.183	23.474	923.612	725.619
184.198	23.222	923.235	724.229
185.213	23.253	923.030	724.133
186.227	23.209	923.010	723.872
187.242	23.215	921.858	722.928
188.256	23.544	921.783	724.150
189.271	23.747	920.261	723.716
190.286	23.059	920.049	720.682
191.300	22.321	918.300	716.245
192.315	22.476	916.573	715.465
193.329	22.560	916.552	715.728
194.344	22.657	916.221	715.799
195.359	23.030	915.437	716.634
196.373	23.089	916.462	717.614
197.388	23.631	914.933	718.549
198.402	23.795	915.098	719.276
199.417	23.895	914.058	718.799
200.432	23.895	914.891	719.390
201.446	24.164	913.169	719.062
202.461	23.858	912.728	717.417
203.475	23.611	912.393	716.094
204.490	23.056	911.158	712.824
205.504	23.296	910.080	712.881
206.519	23.118	910.217	712.208
207.534	23.287	909.022	711.891
208.548	23.222	909.211	711.715
209.563	23.220	907.940	710.649
210.577	23.228	906.509	709.498
211.592	23.932	907.461	713.005
212.607	23.840	906.580	711.880
213.621	23.490	906.583	710.417
214.636	23.407	905.359	709.062
215.650	23.534	904.128	708.543
216.665	23.607	903.421	708.217
217.680	23.756	902.428	707.973
218.694	24.057	902.139	708.881
219.709	23.333	903.091	706.679
220.723	23.118	902.015	704.918
221.738	23.025	900.519	703.315
222.753	23.052	899.999	702.956
223.767	23.642	899.647	704.963
224.782	23.956	898.087	704.920
225.796	24.092	897.959	705.296
226.811	23.620	896.835	702.485
227.826	23.263	896.898	701.059
228.840	23.381	895.906	700.687
229.855	23.052	894.990	698.610
230.869	23.295	893.860	698.625
231.884	23.027	893.839	697.488
232.899	23.120	894.359	698.199
233.913	22.971	892.439	696.052
234.928	22.679	891.692	694.259
235.942	22.738	890.751	693.699
236.957	22.886	889.976	693.614
237.972	22.747	889.943	692.979
238.986	22.704	889.544	692.440
240.001	22.796	889.374	692.606
241.015	22.729	888.016	691.227
242.030	22.722	888.308	691.363
243.045	22.979	887.881	691.979
244.059	23.206	887.204	692.275
245.074	23.297	886.512	692.030
246.088	23.220	885.948	691.228
247.103	23.628	885.839	692.675
248.117	23.774	885.620	693.011
249.132	24.458	885.481	695.506
250.147	24.552	885.168	695.568
251.161	24.509	884.475	694.792
252.176	24.400	884.578	694.389
253.190	24.782	882.893	694.489
254.205	24.584	883.309	693.984
255.220	24.614	882.713	693.572
256.234	24.162	881.012	690.422
257.249	24.231	880.100	689.915
258.263	24.149	879.769	689.276
259.278	24.405	879.292	689.832
260.293	24.265	879.130	689.101
261.307	24.369	878.863	689.232
262.322	24.210	877.974	687.862
263.336	24.432	876.630	687.604
264.351	24.185	875.970	686.075
265.366	24.347	875.387	686.180
266.380	24.399	874.884	685.926
267.395	24.621	874.646	686.531
268.409	24.234	874.501	684.871
269.424	24.171	873.108	683.476
270.439	24.030	871.736	681.801
271.453	24.311	871.381	682.538
272.468	24.080	871.851	681.963
273.482	24.095	870.824	681.154
274.497	24.137	869.901	680.532
275.512	24.179	870.396	681.023
276.526	24.494	868.614	680.768
277.541	24.299	868.877	680.168
278.555	24.619	868.154	680.765
279.570	24.472	868.695	680.566
280.585	24.826	866.344	680.010
281.599	24.375	865.532	677.602
282.614	24.349	864.742	676.824
283.628	23.829	864.770	674.810
284.643	23.923	865.050	675.326
285.657	24.019	863.503	674.424
286.672	24.188	862.408	674.149
287.687	24.478	862.074	674.922
288.701	24.176	860.740	672.680
289.716	24.517	861.016	674.124
290.730	24.472	860.398	673.409
291.745	24.536	859.481	672.873
292.760	24.672	859.254	673.151
293.774	24.744	859.373	673.455
294.789	24.605	858.652	672.305
295.803	24.610	858.220	671.929
296.818	24.150	858.015	669.977
297.833	24.062	856.376	668.308
298.847	24.270	855.447	668.305
299.862	23.910	856.221	667.498
300.876	24.465	855.505	668.963
301.891	24.700	855.321	669.639
302.906	24.693	855.981	670.070
303.920	24.619	855.281	669.185
304.935	24.956	854.081	669.448
305.949	25.127	852.128	668.494
306.964	24.686	851.155	666.032
307.979	24.707	850.472	665.517
308.993	24.540	851.407	665.564
310.008	24.729	850.688	665.649
311.022	24.367	850.144	663.816
312.037	24.672	848.886	663.910
313.052	24.244	848.038	661.598
314.066	23.690	847.450	659.027
315.081	23.959	846.487	659.216
316.095	23.811	846.403	658.543
317.110	24.279	845.179	659.264
318.125	24.053	844.586	657.910
319.139	23.785	844.250	656.598
320.154	23.471	843.799	655.031
321.168	24.028	843.408	656.724
322.183	23.988	842.531	655.834
323.197	24.281	841.612	656.139
324.212	24.328	841.710	656.333
325.227	24.193	840.922	655.162
326.241	23.981	840.685	654.143
327.256	24.038	840.637	654.257
328.270	23.940	839.919	653.278
329.285	23.828	838.843	651.972
330.300	23.855	837.888	651.272
331.314	24.128	837.709	652.073
332.329	24.521	837.387	653.206
333.343	24.397	838.112	653.260
334.358	24.427	836.981	652.427
335.373	24.329	837.266	652.235
336.387	24.261	837.565	652.161
337.402	25.089	836.116	653.997
338.416	25.195	836.154	654.355
339.431	25.201	835.301	653.654
340.446	25.311	836.048	654.579
341.460	25.176	834.864	653.105
342.475	25.137	835.717	653.573
343.489	25.595	834.969	654.597
344.504	25.801	833.750	654.329
345.519	25.476	833.984	653.277
346.533	25.190	833.859	652.080
347.548	25.222	832.275	650.899
348.562	24.922	831.642	649.258
349.577	24.563	831.932	648.128
350.592	24.918	830.186	647.992
351.606	24.383	829.913	645.788
352.621	24.421	829.237	645.342
353.635	24.755	827.078	644.810
354.650	24.742	826.667	644.385
355.665	24.797	826.247	644.199
356.679	24.812	825.926	643.944
357.694	24.832	825.082	643.301
358.708	24.646	824.577	642.181
359.723	24.543	824.019	641.320
360.738	24.589	823.790	641.253
361.752	24.611	824.080	641.501
362.767	25.196	824.084	643.545
363.781	25.144	823.173	642.592
364.796	25.550	821.925	643.011
365.810	25.493	822.633	643.305
366.825	25.611	821.924	643.117
367.840	25.331	820.728	641.123
368.854	25.390	819.940	640.659
369.869	25.237	820.247	640.296
370.883	25.070	820.111	639.539
371.898	25.236	819.933	639.936
372.913	25.373	818.814	639.493
373.927	25.034	817.283	637.037
374.942	24.913	817.946	637.067
375.956	25.397	817.328	638.251
376.971	25.787	816.970	639.298
377.986	25.775	816.958	639.188
379.000	25.786	815.512	638.039
380.015	25.671	815.488	637.559
381.029	25.412	815.192	636.354
382.044	25.387	815.138	636.165
383.059	25.869	813.763	636.741
384.073	25.261	813.542	634.363
385.088	25.211	812.101	633.007
386.102	24.767	811.415	630.850
387.117	24.638	811.787	630.628
388.132	24.409	810.351	628.651
389.146	24.753	809.590	629.216
390.161	25.361	810.420	631.944
391.175	25.613	810.313	632.689
392.190	25.271	808.989	630.400
393.205	25.226	807.450	628.989
394.219	24.414	807.316	625.979
395.234	24.337	806.663	625.148
396.248	24.848	805.906	626.298
397.263	24.740	805.100	625.236
398.278	24.371	805.777	624.416
399.292	24.463	804.417	623.627
400.307	24.089	805.177	622.852
401.321	24.481	803.568	622.923
402.336	24.994	802.835	624.088
403.350	25.445	802.768	625.550
404.365	25.026	804.554	625.424
405.380	25.632	803.818	626.909
406.394	26.143	802.509	627.610
407.409	26.129	802.102	627.187
408.423	26.236	801.870	627.321
409.438	26.048	801.382	626.230
410.453	25.673	801.437	624.917
411.467	25.911	800.294	624.796
412.482	25.943	800.251	624.819
413.496	26.090	800.075	625.134
414.511	25.929	799.037	623.712
415.526	25.697	798.763	622.641
416.540	25.885	798.808	623.268
417.555	25.600	798.651	622.107
418.569	25.827	797.852	622.212
419.584	25.882	796.631	621.397
420.599	25.990	795.862	621.112
421.613	161.343	1370.076	1792.515
422.628	139.951	1453.696	1792.541
