DTS Sentinel unit serial number:	SN413079Multiplexer serial number:	ORYXHardware model number:	OX4-SRSoftware version number:	ORYX F/W v4.00 Oryx Data Collector v3.7.2.0data status	okinstallation	princeton_trtdifferential loss correction	single-endedforward channel	channel 1reverse channel	N/Adate	2019/09/12time	23:34:35forward acquisition time	60.00reverse acquisition time	0.00gamma	496.2192k internal	0.2328k external	0.2328temperature offset calibration	1.0146default loss term (dB/km)	0.3790temperature slope calibration	1.0000multiplexer offset coefficient	1.0000multiplexer slope coefficient	1.0000fibre end	0.00T internal ref (°C)	28.94T ext. ref 1 (°C)	3.76T ext. ref 2 (°C)	23.60length (m)	temperature (°C)	Stokes	anti-Stokes-747.200	-18.304	-0.132	0.083
-746.185	-55.090	0.089	0.040
-745.171	-69.272	0.062	0.024
-744.156	-70.183	0.153	0.058
-743.142	693.871	-0.099	0.261
-742.127	-200.000	-0.031	0.244
-741.112	-87.987	0.115	-0.035
-740.098	-200.000	0.061	0.291
-739.083	244.347	-0.105	0.177
-738.069	-56.231	-0.173	0.078
-737.054	-89.772	-0.166	0.049
-736.039	477.209	0.016	0.035
-735.025	800.000	-0.107	0.367
-734.010	3.122	-0.304	-0.223
-732.996	800.000	0.053	-0.222
-731.981	-81.867	-0.047	0.016
-730.966	-117.085	0.282	-0.052
-729.952	80.475	-0.158	-0.171
-728.937	234.003	0.149	-0.247
-727.923	271.800	-0.178	-0.317
-726.908	-9.475	-0.142	0.096
-725.894	-200.000	0.043	-0.213
-724.879	296.813	-0.165	-0.305
-723.864	-20.060	0.195	-0.121
-722.850	352.387	0.102	0.204
-721.835	-200.000	-0.050	-0.258
-720.821	-174.640	-0.227	0.007
-719.806	-145.520	0.152	0.014
-718.791	-103.708	0.113	-0.027
-717.777	161.463	0.120	0.169
-716.762	34.383	0.065	0.057
-715.748	37.641	-0.128	-0.114
-714.733	-64.354	-0.298	0.122
-713.718	-27.376	0.135	-0.079
-712.704	-36.900	0.137	-0.074
-711.689	-1.367	-0.009	-0.006
-710.675	15.447	-0.270	-0.213
-709.660	180.229	0.206	0.304
-708.645	285.928	0.061	-0.110
-707.631	-154.134	-0.426	0.029
-706.616	-81.061	0.191	-0.063
-705.602	-56.125	0.288	0.129
-704.587	393.270	0.040	-0.084
-703.572	-200.000	-0.014	0.084
-702.558	223.945	-0.146	-0.236
-701.543	-74.613	0.218	-0.079
-700.529	52.613	0.137	0.132
-699.514	-111.512	-0.294	0.060
-698.499	800.000	0.060	0.181
-697.485	28.529	-0.091	0.078
-696.470	84.659	0.292	0.322
-695.456	800.000	0.084	-0.253
-694.441	-71.036	0.167	0.063
-693.426	-200.000	0.024	0.290
-692.412	170.651	-0.279	0.402
-691.397	20.657	-0.164	-0.134
-690.383	391.613	-0.090	-0.189
-689.368	220.483	-0.081	-0.131
-688.354	57.207	0.102	0.100
-687.339	56.410	0.185	0.181
-686.324	-140.615	-0.155	0.016
-685.310	86.513	-0.133	0.148
-684.295	-13.326	0.133	-0.087
-683.281	-66.827	-0.032	-0.013
-682.266	726.261	-0.170	0.455
-681.251	72.069	0.195	-0.204
-680.237	202.842	0.153	0.238
-679.222	-54.499	-0.173	-0.079
-678.208	-124.313	-0.156	-0.025
-677.193	-3.628	0.269	0.188
-676.178	-200.000	-0.028	0.171
-675.164	-1.346	-0.016	-0.011
-674.149	-30.857	0.106	-0.060
-673.135	-165.849	-0.225	-0.010
-672.120	-188.495	0.156	-0.002
-671.105	105.230	0.070	-0.083
-670.091	-189.001	-0.076	-0.001
-669.076	-200.000	-0.025	-0.261
-668.062	-56.154	0.130	-0.058
-667.047	800.000	0.048	-0.167
-666.032	307.637	-0.080	0.150
-665.018	64.316	-0.337	0.341
-664.003	121.653	-0.190	-0.237
-662.989	-1.939	0.144	0.102
-661.974	800.000	0.108	-0.363
-660.959	607.669	-0.094	0.235
-659.945	134.510	0.063	-0.083
-658.930	-90.975	0.172	0.050
-657.916	-4.912	-0.276	0.191
-656.901	67.161	-0.238	-0.243
-655.886	-58.991	0.181	-0.078
-654.872	425.671	0.100	0.217
-653.857	29.662	0.368	0.314
-652.843	31.767	0.170	0.147
-651.828	-200.000	-0.000	0.085
-650.814	-59.028	0.234	-0.101
-649.799	-48.246	-0.497	-0.240
-648.784	800.000	-0.099	-0.370
-647.770	-135.013	-0.281	0.034
-646.755	44.084	0.183	0.169
-645.741	-35.127	-0.194	-0.106
-644.726	477.742	0.136	0.309
-643.711	-144.268	0.092	0.009
-642.697	117.741	0.146	0.181
-641.682	298.746	-0.092	0.171
-640.668	108.488	-0.205	-0.245
-639.653	233.588	0.102	-0.168
-638.638	83.725	0.393	-0.430
-637.624	-86.274	-0.438	-0.135
-636.609	0.282	0.170	0.121
-635.595	-200.000	-0.008	-0.048
-634.580	-121.081	-0.284	-0.048
-633.565	30.282	0.037	0.032
-632.551	222.436	-0.325	-0.525
-631.536	617.892	-0.094	-0.238
-630.522	-200.000	0.003	0.185
-629.507	248.649	0.150	-0.255
-628.492	800.000	0.072	0.276
-627.478	-124.676	-0.233	-0.036
-626.463	460.094	0.030	-0.067
-625.449	-80.261	0.173	0.058
-624.434	263.286	0.053	-0.092
-623.419	800.000	-0.084	0.294
-622.405	-169.690	0.473	0.017
-621.390	-115.880	-0.166	0.031
-620.376	-120.070	0.147	-0.025
-619.361	-200.000	0.010	0.215
-618.346	25.084	-0.016	0.013
-617.332	65.906	-0.095	0.097
-616.317	15.789	-0.135	0.106
-615.303	-95.683	-0.149	0.040
-614.288	356.193	-0.007	-0.014
-613.273	-22.558	-0.083	0.050
-612.259	-73.561	0.087	-0.032
-611.244	-200.000	0.023	-0.134
-610.230	-200.000	-0.039	0.229
-609.215	511.698	0.106	-0.246
-608.201	23.884	0.180	-0.149
-607.186	-64.724	-0.198	0.080
-606.171	-200.000	0.009	-0.204
-605.157	36.760	-0.369	0.327
-604.142	-35.557	0.183	0.100
-603.128	173.636	0.064	0.092
-602.113	800.000	-0.018	0.078
-601.098	-200.000	0.007	0.145
-600.084	295.427	0.015	0.028
-599.069	-200.000	0.043	0.352
-598.055	-186.321	0.158	-0.002
-597.040	270.931	0.094	0.165
-596.025	800.000	0.068	0.292
-595.011	-48.873	0.213	-0.103
-593.996	125.338	0.246	-0.311
-592.982	371.758	0.086	-0.175
-591.967	800.000	-0.072	0.214
-590.952	-21.898	-0.358	-0.218
-589.938	-19.497	-0.367	-0.228
-588.923	-60.820	-0.267	0.113
-587.909	475.093	0.112	-0.253
-586.894	571.413	0.045	-0.109
-585.879	-69.944	0.152	-0.058
-584.865	559.567	0.056	-0.136
-583.850	-17.922	-0.354	-0.222
-582.836	393.347	0.165	-0.344
-581.821	-63.616	0.247	-0.102
-580.806	-122.926	-0.166	-0.027
-579.792	-200.000	0.000	0.001
-578.777	-200.000	0.030	-0.297
-577.763	-62.183	-0.154	0.064
-576.748	-128.358	0.200	-0.029
-575.733	16.463	-0.216	-0.171
-574.719	223.471	-0.192	-0.310
-573.704	28.068	-0.380	-0.321
-572.690	580.295	0.095	-0.232
-571.675	-200.000	-0.044	-0.270
-570.661	-22.244	-0.193	-0.117
-569.646	800.000	-0.135	-0.475
-568.631	-165.326	-0.244	-0.011
-567.617	-200.000	-0.086	0.456
-566.602	-51.312	-0.367	-0.172
-565.588	800.000	0.050	-0.143
-564.573	-105.197	-0.268	0.061
-563.558	800.000	-0.041	0.119
-562.544	-120.653	0.217	-0.037
-561.529	-125.263	0.100	0.015
-560.515	370.598	0.180	0.366
-559.500	800.000	0.071	-0.267
-558.485	295.322	0.099	0.182
-557.471	-142.189	-0.398	0.039
-556.456	718.930	0.083	-0.221
-555.442	-128.524	-0.201	0.028
-554.427	-200.000	-0.030	0.268
-553.412	-68.844	0.358	0.138
-552.398	-200.000	-0.036	-0.203
-551.383	7.291	-0.146	0.109
-550.369	-148.756	0.213	-0.017
-549.354	25.097	0.306	-0.254
-548.339	24.735	-0.306	-0.254
-547.325	800.000	0.044	0.136
-546.310	277.744	-0.123	-0.219
-545.296	800.000	0.017	-0.054
-544.281	-97.550	-0.227	-0.059
-543.266	-200.000	0.009	0.058
-542.252	-200.000	-0.041	0.309
-541.237	-152.413	-0.313	-0.022
-540.223	275.108	-0.111	-0.196
-539.208	28.287	-0.215	-0.181
-538.193	-200.000	0.020	0.107
-537.179	-200.000	-0.011	0.167
-536.164	243.485	-0.063	0.106
-535.150	38.724	-0.198	-0.177
-534.135	-50.909	0.157	0.074
-533.121	-187.784	0.302	0.004
-532.106	33.193	0.190	-0.165
-531.091	800.000	-0.048	-0.152
-530.077	124.856	-0.062	-0.078
-529.062	131.726	-0.138	0.177
-528.048	278.082	-0.107	-0.190
-527.033	-200.000	0.026	0.000
-526.018	-24.922	-0.142	-0.084
-525.004	-200.000	-0.016	0.229
-523.989	-200.000	-0.019	0.213
-522.975	-101.758	-0.087	-0.021
-521.960	-67.361	0.128	-0.050
-520.945	280.425	0.149	0.266
-519.931	21.701	0.305	0.248
-518.916	190.084	-0.073	0.109
-517.902	-5.514	-0.394	-0.270
-516.887	261.723	-0.251	-0.434
-515.872	-63.113	0.181	-0.075
-514.858	-88.879	0.172	0.051
-513.843	180.032	0.041	0.060
-512.829	-44.814	-0.203	-0.101
-511.814	646.555	-0.070	0.179
-510.799	35.427	0.180	0.158
-509.785	395.521	0.013	-0.028
-508.770	-127.375	0.539	-0.078
-507.756	-200.000	0.012	0.129
-506.741	79.384	0.243	-0.261
-505.726	800.000	-0.083	-0.335
-504.712	338.138	0.154	0.300
-503.697	-142.096	-0.134	-0.013
-502.683	143.274	0.051	0.068
-501.668	-98.321	0.092	-0.024
-500.653	-185.926	0.207	0.003
-499.639	148.691	-0.254	0.342
-498.624	-200.000	0.017	-0.091
-497.610	59.894	0.069	-0.068
-496.595	-200.000	0.000	0.068
-495.581	-56.465	0.029	-0.013
-494.566	289.958	0.132	-0.238
-493.551	485.537	-0.140	-0.319
-492.537	-200.000	-0.000	-0.426
-491.522	-200.000	-0.084	0.384
-490.508	-139.062	-0.100	-0.011
-489.493	-117.883	0.279	0.050
-488.478	-159.388	-0.068	0.004
-487.464	800.000	0.028	-0.086
-486.449	58.337	-0.114	0.111
-485.435	18.712	0.258	0.206
-484.420	3.302	-0.453	-0.329
-483.405	43.792	-0.245	0.224
-482.391	41.704	-0.160	-0.145
-481.376	-113.169	-0.180	0.035
-480.362	342.381	0.028	-0.054
-479.347	-20.164	0.175	0.108
-478.332	415.066	-0.126	0.268
-477.318	-200.000	0.001	-0.182
-476.303	-200.000	-0.018	-0.101
-475.289	-200.000	-0.024	0.176
-474.274	-177.108	-0.157	-0.004
-473.259	67.497	-0.125	-0.127
-472.245	-135.158	-0.263	-0.032
-471.230	90.247	-0.308	0.344
-470.216	151.114	-0.196	0.265
-469.201	800.000	0.178	0.565
-468.186	-41.885	0.054	-0.028
-467.172	569.461	-0.095	-0.229
-466.157	800.000	0.059	-0.252
-465.143	60.557	0.136	-0.135
-464.128	-98.991	-0.282	-0.071
-463.113	53.290	-0.112	-0.107
-462.099	7.995	-0.019	-0.014
-461.084	623.508	0.054	-0.136
-460.070	-29.131	-0.129	0.074
-459.055	626.239	0.170	-0.428
-458.040	-200.000	-0.139	0.000
-457.026	464.924	0.121	0.270
-456.011	-109.633	-0.268	-0.056
-454.997	10.703	-0.157	-0.119
-453.982	-200.000	0.014	-0.370
-452.968	-18.515	-0.065	-0.040
-451.953	-56.091	-0.279	-0.124
-450.938	-108.455	-0.149	-0.032
-449.924	-71.166	-0.311	-0.116
-448.909	800.000	0.049	-0.152
-447.895	-67.033	-0.083	0.032
-446.880	161.449	0.125	0.174
-445.865	160.442	-0.173	-0.240
-444.851	39.867	0.098	0.088
-443.836	289.281	-0.079	0.142
-442.822	-58.300	-0.114	0.049
-441.807	139.008	-0.089	-0.117
-440.792	101.239	0.112	0.130
-439.778	-40.728	0.236	0.122
-438.763	-87.782	-0.483	-0.145
-437.749	-109.349	-0.171	-0.036
-436.734	-200.000	-0.012	-0.140
-435.719	307.219	-0.085	-0.158
-434.705	169.907	0.168	-0.239
-433.690	25.971	0.170	0.141
-432.676	339.064	-0.126	0.244
-431.661	36.968	-0.165	0.145
-430.646	744.975	0.094	-0.252
-429.632	180.610	-0.060	0.088
-428.617	-65.386	-0.105	0.042
-427.603	17.091	-0.173	0.136
-426.588	228.849	-0.066	0.106
-425.573	-150.484	0.209	0.016
-424.559	-3.035	0.161	0.112
-423.544	-165.101	0.459	0.020
-422.530	800.000	-0.063	0.201
-421.515	108.780	-0.187	0.223
-420.500	131.071	0.190	0.242
-419.486	254.320	-0.100	-0.170
-418.471	-54.137	-0.009	-0.004
-417.457	230.435	0.117	0.190
-416.442	-75.397	0.350	0.124
-415.428	-28.066	-0.079	0.045
-414.413	125.482	0.174	0.218
-413.398	-200.000	0.096	0.532
-412.384	-59.952	0.033	-0.014
-411.369	65.716	0.032	-0.032
-410.355	-79.385	0.085	0.028
-409.340	67.172	-0.216	0.219
-408.325	448.803	-0.109	-0.240
-407.311	-200.000	0.001	-0.036
-406.296	-92.785	-0.277	-0.077
-405.282	-5.896	-0.323	0.220
-404.267	-65.878	0.295	0.117
-403.252	800.000	0.086	-0.344
-402.238	-100.063	-0.107	-0.026
-401.223	197.786	-0.149	-0.227
-400.209	-165.063	0.149	-0.007
-399.194	-100.256	0.187	0.046
-398.179	-73.324	0.181	0.066
-397.165	-42.139	-0.200	-0.101
-396.150	327.624	0.105	0.201
-395.136	-200.000	0.038	0.309
-394.121	202.897	0.220	-0.337
-393.106	800.000	0.068	-0.186
-392.092	-113.226	0.353	-0.069
-391.077	-91.993	0.268	0.075
-390.063	-119.900	-0.251	0.043
-389.048	265.557	-0.070	0.122
-388.033	-180.303	0.008	-0.000
-387.019	347.014	0.043	0.085
-386.004	-41.643	0.315	-0.161
-384.990	53.021	0.149	0.141
-383.975	183.663	0.186	0.273
-382.960	800.000	-0.033	0.099
-381.946	-44.780	-0.215	-0.107
-380.931	183.442	-0.151	0.222
-379.917	3.975	-0.137	-0.100
-378.902	-200.000	0.044	0.217
-377.888	123.231	0.245	0.305
-376.873	-200.000	0.029	0.310
-375.858	107.591	-0.326	0.385
-374.844	-95.278	0.156	-0.042
-373.829	-86.724	-0.119	0.036
-372.815	-147.299	-0.252	-0.021
-371.800	398.470	0.163	-0.340
-370.785	-94.165	-0.269	-0.073
-369.771	-66.535	0.259	0.102
-368.756	-84.581	0.200	-0.063
-367.742	-11.206	0.332	-0.217
-366.727	97.462	-0.086	0.098
-365.712	-200.000	-0.040	0.187
-364.698	48.844	0.211	0.196
-363.683	-21.973	0.156	-0.094
-362.669	-92.902	-0.256	0.071
-361.654	-200.000	-0.043	0.274
-360.639	800.000	0.027	0.079
-359.625	-86.055	-0.322	0.099
-358.610	-15.415	0.219	0.139
-357.596	136.474	-0.094	-0.122
-356.581	-98.859	-0.424	0.107
-355.566	-84.500	-0.162	-0.051
-354.552	-200.000	-0.020	-0.249
-353.537	-16.545	0.543	0.341
-352.523	-200.000	0.016	-0.232
-351.508	-78.405	-0.097	0.033
-350.493	97.060	0.363	0.413
-349.479	-135.630	-0.270	-0.032
-348.464	-200.000	0.012	-0.166
-347.450	453.519	0.053	-0.117
-346.435	-75.251	0.230	0.082
-345.420	-200.000	-0.002	-0.103
-344.406	800.000	0.065	0.222
-343.391	350.778	0.065	-0.128
-342.377	-200.000	-0.034	-0.321
-341.362	-112.191	0.280	0.056
-340.348	586.140	0.018	-0.044
-339.333	353.839	-0.093	-0.183
-338.318	-200.000	0.002	0.250
-337.304	-153.457	-0.257	0.018
-336.289	117.890	-0.166	0.203
-335.275	-19.409	0.263	0.161
-334.260	-97.828	0.181	-0.046
-333.245	-49.511	0.098	0.046
-332.231	-200.000	0.041	0.189
-331.216	582.319	0.047	0.114
-330.202	59.257	-0.075	-0.073
-329.187	682.086	-0.071	-0.185
-328.172	800.000	-0.058	0.211
-327.158	-97.383	-0.221	0.057
-326.143	-200.000	-0.000	0.203
-325.129	-200.000	0.016	-0.136
-324.114	-43.257	-0.292	-0.147
-323.099	-44.325	0.384	-0.191
-322.085	-70.335	0.326	-0.123
-321.070	800.000	0.054	-0.175
-320.056	268.622	0.032	0.056
-319.041	-200.000	-0.003	0.057
-318.026	127.490	0.065	0.082
-317.012	759.985	0.147	0.394
-315.997	-52.708	0.204	-0.093
-314.983	-125.314	-0.184	0.028
-313.968	-160.872	0.265	-0.014
-312.953	-50.482	-0.239	0.112
-311.939	36.354	0.044	0.038
-310.924	-119.867	0.112	-0.019
-309.910	-200.000	0.005	0.043
-308.895	169.422	0.095	-0.134
-307.880	216.279	0.074	-0.117
-306.866	-48.564	0.175	-0.083
-305.851	-102.398	-0.243	-0.058
-304.837	-200.000	-0.025	0.244
-303.822	46.453	0.128	0.118
-302.807	10.062	-0.109	-0.082
-301.793	-10.543	0.111	-0.073
-300.778	275.520	-0.106	0.187
-299.764	133.425	-0.186	0.238
-298.749	-200.000	-0.007	-0.309
-297.735	5.113	0.103	-0.075
-296.720	37.090	-0.220	0.193
-295.705	70.539	-0.162	-0.166
-294.691	-51.848	0.280	-0.129
-293.676	-42.257	0.143	-0.072
-292.662	-106.267	-0.133	-0.030
-291.647	-70.509	0.378	0.141
-290.632	96.206	-0.056	0.063
-289.618	223.705	-0.066	0.106
-288.603	-42.547	0.375	0.189
-287.589	81.501	-0.304	-0.325
-286.574	800.000	-0.076	-0.222
-285.559	-200.000	-0.033	-0.185
-284.545	-49.957	0.378	-0.178
-283.530	-40.232	-0.226	0.116
-282.516	131.842	-0.048	-0.061
-281.501	-63.030	0.260	-0.106
-280.486	-110.039	0.192	-0.040
-279.472	-13.305	0.139	0.089
-278.457	-23.236	-0.272	0.162
-277.443	-88.803	0.148	-0.044
-276.428	-50.440	-0.172	0.080
-275.413	-200.000	-0.025	0.140
-274.399	800.000	-0.088	0.323
-273.384	178.658	0.091	0.132
-272.370	351.678	-0.146	0.287
-271.355	800.000	-0.113	0.342
-270.340	611.950	-0.118	-0.292
-269.326	286.325	0.037	-0.067
-268.311	-107.210	0.023	-0.005
-267.297	-200.000	-0.053	0.282
-266.282	-200.000	-0.001	-0.314
-265.267	-189.889	-0.284	-0.003
-264.253	-200.000	-0.068	0.311
-263.238	282.470	0.047	0.084
-262.224	-98.061	0.254	-0.065
-261.209	-200.000	0.011	-0.138
-260.195	-42.202	-0.312	0.158
-259.180	800.000	0.079	0.248
-258.165	66.481	0.205	0.206
-257.151	-33.029	-0.091	-0.050
-256.136	-200.000	0.003	0.102
-255.122	-51.438	0.136	0.063
-254.107	-150.956	0.098	-0.007
-253.092	10.835	0.098	0.074
-252.078	-79.113	-0.093	-0.031
-251.063	-200.000	0.041	-0.325
-250.049	-58.394	0.164	0.070
-249.034	-25.485	0.204	-0.119
-248.019	192.045	0.163	-0.243
-247.005	-200.000	-0.005	-0.112
-245.990	726.465	0.048	0.126
-244.976	-88.160	-0.177	-0.052
-243.961	203.513	0.074	-0.113
-242.946	177.664	0.127	0.182
-241.932	308.867	0.006	-0.012
-240.917	800.000	0.043	0.186
-239.903	-200.000	-0.051	-0.229
-238.888	-200.000	0.039	0.199
-237.873	27.870	0.250	-0.208
-236.859	90.652	0.259	-0.286
-235.844	207.124	-0.072	0.112
-234.830	-104.557	0.198	-0.045
-233.815	-121.181	-0.074	0.012
-232.800	-82.922	-0.318	-0.101
-231.786	373.311	-0.028	0.056
-230.771	37.191	0.191	-0.167
-229.757	14.709	0.160	0.124
-228.742	459.447	0.121	-0.265
-227.727	-97.734	0.140	0.036
-226.713	494.842	-0.157	0.355
-225.698	-14.147	0.160	0.102
-224.684	495.600	-0.166	0.376
-223.669	320.607	-0.110	0.207
-222.655	-180.568	-0.209	0.004
-221.640	-200.000	-0.019	0.181
-220.625	-106.220	-0.245	-0.054
-219.611	-200.000	-0.014	-0.210
-218.596	-137.470	-0.172	0.019
-217.582	27.930	0.230	-0.191
-216.567	45.405	0.199	-0.181
-215.552	-91.684	0.031	0.009
-214.538	595.427	0.083	-0.202
-213.523	285.210	0.076	0.136
-212.509	-153.632	0.145	-0.010
-211.494	-114.225	0.184	0.035
-210.479	-123.160	0.245	-0.039
-209.465	-13.396	-0.001	-0.001
-208.450	-174.146	0.224	-0.006
-207.436	-200.000	0.014	-0.091
-206.421	88.333	0.178	0.196
-205.406	621.723	-0.145	-0.360
-204.392	153.511	-0.064	-0.087
-203.377	480.938	0.122	-0.274
-202.363	100.196	0.242	-0.276
-201.348	-183.313	-0.257	0.004
-200.333	220.053	0.122	-0.194
-199.319	-25.908	0.270	-0.157
-198.304	167.564	-0.067	-0.093
-197.290	540.959	-0.105	-0.246
-196.275	240.731	-0.034	0.056
-195.260	10.758	-0.486	0.366
-194.246	-170.349	-0.011	0.000
-193.231	19.437	0.239	-0.189
-192.217	105.059	-0.183	0.213
-191.202	800.000	-0.089	0.358
-190.187	-173.747	-0.321	-0.009
-189.173	800.000	-0.074	0.244
-188.158	219.744	0.086	0.136
-187.144	651.338	-0.029	-0.072
-186.129	-81.458	0.174	0.056
-185.114	-61.646	0.202	0.084
-184.100	15.701	-0.133	0.103
-183.085	83.918	0.212	0.229
-182.071	107.946	0.113	0.133
-181.056	269.476	-0.059	0.102
-180.042	609.119	0.090	0.222
-179.027	-132.403	0.041	0.005
-178.012	263.761	0.105	0.180
-176.998	800.000	-0.036	-0.118
-175.983	-91.168	-0.226	-0.064
-174.969	-12.270	-0.030	-0.020
-173.954	-200.000	0.016	0.108
-172.939	32.728	0.168	0.143
-171.925	-82.906	0.180	-0.057
-170.910	150.608	-0.066	0.088
-169.896	-140.620	-0.229	-0.023
-168.881	-87.646	0.097	0.029
-167.866	-200.000	-0.039	-0.258
-166.852	-200.000	-0.011	-0.168
-165.837	244.334	0.318	0.526
-164.823	-56.269	0.089	-0.039
-163.808	-200.000	0.078	-0.397
-162.793	11.077	0.066	0.050
-161.779	-52.010	0.317	0.145
-160.764	800.000	-0.051	-0.208
-159.750	455.507	-0.078	0.171
-158.735	281.715	0.075	-0.133
-157.720	-126.645	-0.179	-0.026
-156.706	295.441	-0.128	0.230
-155.691	800.000	0.084	-0.232
-154.677	-123.489	0.237	-0.037
-153.662	306.497	-0.145	-0.266
-152.647	-200.000	0.038	-0.330
-151.633	22.902	0.150	-0.121
-150.618	-64.561	-0.197	0.079
-149.604	-118.649	0.190	-0.033
-148.589	-200.000	0.001	0.125
-147.574	-80.435	0.369	0.121
-146.560	-186.837	-0.402	-0.006
-145.545	-93.415	0.085	-0.023
-144.531	-120.680	0.227	-0.038
-143.516	136.735	-0.182	0.234
-142.502	135.151	0.102	0.130
-141.487	-114.512	-0.217	0.041
-140.472	-200.000	-0.003	-0.031
-139.458	416.424	0.018	-0.037
-138.443	-200.000	-0.037	0.268
-137.429	193.935	-0.061	-0.091
-136.414	-200.000	-0.043	0.194
-135.399	-50.146	-0.264	-0.123
-134.385	-200.000	-0.039	-0.310
-133.370	-16.613	-0.214	0.133
-132.356	-133.398	0.079	0.010
-131.341	-152.936	0.328	-0.023
-130.326	-200.000	-0.049	-0.266
-129.312	90.313	-0.123	0.136
-128.297	-200.000	-0.024	0.138
-127.283	0.813	-0.287	0.202
-126.268	215.853	-0.130	0.204
-125.253	800.000	-0.105	0.325
-124.239	61.092	-0.078	0.076
-123.224	-155.827	-0.117	-0.007
-122.210	142.729	0.134	-0.175
-121.195	-110.321	0.106	0.022
-120.180	161.351	-0.129	0.177
-119.166	800.000	0.061	-0.178
-118.151	108.498	0.084	0.098
-117.137	-83.811	0.268	0.084
-116.122	84.399	0.097	-0.104
-115.107	-200.000	0.001	-0.179
-114.093	-17.886	0.051	0.031
-113.078	516.819	-0.144	-0.332
-112.064	182.425	0.064	-0.092
-111.049	-58.876	0.214	-0.091
-110.034	-60.583	-0.165	0.069
-109.020	151.624	0.230	0.308
-108.005	-60.964	0.078	0.032
-106.991	-6.730	-0.137	-0.091
-105.976	800.000	0.100	0.289
-104.962	-200.000	0.003	0.112
-103.947	-92.500	-0.173	-0.048
-102.932	800.000	-0.122	0.338
-101.918	-184.678	0.403	0.006
-100.903	800.000	-0.084	-0.325
-99.889	394.067	-0.093	-0.189
-98.874	-156.387	-0.146	-0.009
-97.859	-8.683	-0.139	-0.092
-96.845	363.981	-0.074	-0.147
-95.830	-100.606	0.250	0.061
-94.816	-200.000	-0.006	0.087
-93.801	-66.200	0.161	-0.063
-92.786	122.950	-0.073	0.090
-91.772	289.682	-0.043	0.077
-90.757	-200.000	-0.035	0.232
-89.743	-200.000	-0.045	0.218
-88.728	253.538	-0.013	-0.022
-87.713	72.251	0.193	0.198
-86.699	-200.000	0.019	-0.090
-85.684	-137.591	-0.474	0.052
-84.670	-111.858	-0.062	0.012
-83.655	-41.355	0.238	0.121
-82.640	-200.000	-0.016	-0.187
-81.626	204.987	0.179	0.273
-80.611	800.000	0.074	0.263
-79.597	109.042	-0.127	-0.149
-78.582	-200.000	-0.063	0.349
-77.567	-167.017	-0.153	-0.006
-76.553	-63.835	0.107	0.043
-75.538	-200.000	0.015	-0.160
-74.524	-200.000	0.014	-0.063
-73.509	34.077	0.065	0.055
-72.494	759.599	0.066	0.176
-71.480	-200.000	-0.007	0.119
-70.465	222.537	-0.144	0.227
-69.451	800.000	0.071	0.266
-68.436	-200.000	0.019	0.279
-67.422	-200.000	-0.017	-0.112
-66.407	-57.894	-0.079	-0.034
-65.392	38.017	0.158	-0.138
-64.378	800.000	-0.070	-0.240
-63.363	501.047	0.147	-0.333
-62.349	-14.822	-0.074	-0.047
-61.334	46.619	-0.985	-0.897
-60.319	60.283	0.555	0.539
-59.305	-200.000	-0.131	-1.242
-58.290	-200.000	0.191	1.334
-57.276	196.228	0.902	1.347
-56.261	-200.000	111.360	613.815
-55.246	508.147	1514.641	3449.281
-54.232	177.194	2691.321	3842.934
-53.217	109.954	2151.735	2532.087
-52.203	40.396	1598.426	1411.149
-51.188	32.521	1340.645	1136.242
-50.173	29.388	1301.073	1084.277
-49.159	53.901	1357.285	1279.033
-48.144	53.656	1372.160	1291.528
-47.130	32.543	1326.247	1123.993
-46.115	29.124	1308.158	1088.449
-45.100	28.923	1303.678	1083.490
-44.086	28.866	1301.015	1080.899
-43.071	28.907	1298.180	1078.743
-42.057	28.765	1296.281	1076.288
-41.042	28.772	1295.054	1075.269
-40.027	28.808	1293.349	1074.022
-39.013	28.937	1291.201	1072.949
-37.998	28.875	1289.665	1071.271
-36.984	28.926	1288.099	1070.223
-35.969	28.982	1285.701	1068.510
-34.954	28.847	1284.939	1067.055
-33.940	28.945	1283.341	1066.253
-32.925	28.940	1282.007	1065.069
-31.911	29.064	1280.304	1064.330
-30.896	29.002	1279.021	1062.864
-29.881	29.112	1277.722	1062.379
-28.867	28.987	1276.152	1060.313
-27.852	29.011	1274.826	1059.304
-26.838	29.007	1273.589	1058.210
-25.823	29.087	1272.074	1057.370
-24.809	29.055	1270.644	1055.956
-23.794	29.011	1269.278	1054.525
-22.779	29.011	1268.213	1053.599
-21.765	28.969	1267.429	1052.664
-20.750	29.050	1265.543	1051.522
-19.736	29.038	1264.108	1050.220
-18.721	28.921	1263.102	1048.674
-17.706	28.961	1261.889	1047.855
-16.692	28.862	1261.277	1046.740
-15.677	28.898	1259.733	1045.620
-14.663	28.857	1258.679	1044.474
-13.648	28.911	1257.339	1043.624
-12.633	28.894	1256.610	1042.881
-11.619	28.752	1256.512	1041.953
-10.604	28.980	1255.141	1042.067
-9.590	28.857	1254.032	1040.407
-8.575	28.797	1252.956	1039.134
-7.560	28.809	1252.389	1038.694
-6.546	28.838	1251.707	1038.247
-5.531	28.901	1250.957	1037.944
-4.517	28.869	1249.857	1036.809
-3.502	28.979	1249.308	1036.929
-2.487	28.979	1247.723	1035.576
-1.473	28.806	1244.255	1031.685
-0.458	27.287	1228.903	1010.481
0.556	25.284	1210.942	972.021
1.571	21.333	1215.752	954.267
2.586	20.432	1229.963	960.356
3.600	20.178	1218.565	949.979
4.615	15.418	1147.434	869.835
5.629	7.663	1074.577	776.753
6.644	4.096	1056.038	746.127
7.659	3.770	1053.385	742.623
8.673	3.579	1052.337	740.900
9.688	3.577	1050.712	739.680
10.702	3.960	1048.919	740.188
11.717	8.991	1055.944	769.253
12.731	17.541	1068.002	819.271
13.746	22.379	1074.209	847.311
14.761	23.013	1074.774	850.731
15.775	22.523	1072.791	846.734
16.790	21.739	1071.256	841.686
17.804	21.159	1070.140	837.947
18.819	21.066	1069.321	836.788
19.834	21.181	1068.511	836.628
20.848	21.102	1068.367	836.066
21.863	21.014	1067.516	834.902
22.877	20.849	1066.776	833.462
23.892	20.712	1066.137	832.234
24.907	20.722	1065.153	831.440
25.921	20.592	1064.023	829.862
26.936	20.602	1062.417	828.584
27.950	20.594	1061.388	827.669
28.965	20.534	1060.320	826.482
29.980	20.927	1058.450	826.812
30.994	21.076	1057.817	826.952
32.009	21.076	1056.750	826.045
33.023	20.908	1055.775	824.415
34.038	20.958	1054.775	823.800
35.053	20.668	1053.877	821.654
36.067	20.567	1053.048	820.460
37.082	20.737	1052.108	820.455
38.096	20.797	1051.810	820.433
39.111	20.911	1051.124	820.361
40.126	20.664	1049.457	817.827
41.140	20.420	1047.243	814.884
42.155	20.225	1046.261	813.135
43.169	20.087	1045.657	811.947
44.184	20.094	1044.609	811.094
45.199	20.055	1043.955	810.334
46.213	20.347	1042.917	810.817
47.228	20.603	1042.647	811.731
48.242	20.690	1041.763	811.376
49.257	20.716	1040.395	810.363
50.271	20.901	1039.574	810.511
51.286	20.937	1039.389	810.464
52.301	20.909	1037.939	809.129
53.315	20.679	1037.307	807.497
54.330	20.587	1035.815	805.838
55.344	20.395	1035.160	804.371
56.359	20.458	1033.985	803.674
57.374	20.324	1033.217	802.391
58.388	20.243	1032.406	801.313
59.403	19.978	1032.190	799.851
60.417	20.019	1031.510	799.443
61.432	20.121	1030.173	798.808
62.447	19.835	1030.076	797.344
63.461	19.789	1028.849	796.109
64.476	19.896	1027.738	795.674
65.490	19.768	1026.689	794.201
66.505	19.859	1026.707	794.562
67.520	20.024	1025.909	794.634
68.534	19.820	1025.023	792.942
69.549	19.711	1024.054	791.623
70.563	19.647	1023.158	790.568
71.578	19.461	1022.592	789.207
72.593	19.339	1021.262	787.557
73.607	19.331	1021.157	787.369
74.622	19.577	1020.269	787.738
75.636	19.633	1019.625	787.425
76.651	19.604	1019.363	787.020
77.666	19.675	1018.613	786.695
78.680	19.692	1017.854	786.115
79.695	19.731	1017.174	785.697
80.709	20.097	1016.425	786.714
81.724	20.025	1016.212	786.151
82.739	20.138	1015.944	786.389
83.753	20.581	1015.380	787.888
84.768	21.046	1014.680	789.382
85.782	21.204	1013.695	789.261
86.797	21.156	1013.547	788.858
87.812	20.855	1012.296	786.454
88.826	21.034	1010.851	786.069
89.841	21.002	1010.328	785.448
90.855	21.185	1009.287	785.394
91.870	21.183	1008.630	784.802
92.884	20.997	1007.890	783.322
93.899	21.046	1006.892	782.697
94.914	21.070	1005.788	781.878
95.928	21.064	1005.005	781.173
96.943	20.967	1003.672	779.637
97.957	20.795	1002.993	778.269
98.972	20.978	1001.895	778.167
99.987	20.847	1001.760	777.406
101.001	20.980	1000.325	776.815
102.016	20.790	999.628	775.360
103.030	21.012	998.873	775.696
104.045	21.048	997.932	775.057
105.060	20.743	997.117	772.999
106.074	20.475	995.697	770.643
107.089	20.187	994.890	768.671
108.103	20.057	993.319	766.816
109.118	19.838	992.569	765.203
110.133	19.835	991.128	764.009
111.147	19.907	989.949	763.348
112.162	19.885	989.947	763.184
113.176	20.117	989.573	763.851
114.191	20.307	988.632	763.895
115.206	20.158	988.021	762.698
116.220	20.033	986.489	760.899
117.235	19.970	985.871	760.077
118.249	19.840	985.283	758.986
119.264	19.810	984.049	757.838
120.279	19.719	983.598	757.025
121.293	19.637	982.680	755.891
122.308	19.588	981.713	754.869
123.322	19.428	980.694	753.320
124.337	19.522	979.560	752.793
125.352	19.407	978.527	751.429
126.366	19.411	977.841	750.856
127.381	19.595	976.889	750.856
128.395	19.723	976.052	750.702
129.410	19.657	974.957	749.510
130.424	19.864	974.469	749.966
131.439	19.991	973.773	749.911
132.454	20.030	973.484	749.791
133.468	19.993	972.529	748.829
134.483	20.075	971.685	748.467
135.497	20.060	970.498	747.423
136.512	20.168	969.440	747.007
137.527	20.032	968.705	745.789
138.541	20.163	968.273	745.953
139.556	20.229	967.554	745.618
140.570	20.401	967.400	746.174
141.585	20.756	966.457	746.903
142.600	20.837	965.769	746.652
143.614	20.949	965.164	746.596
144.629	21.111	963.969	746.301
145.643	20.940	962.690	744.512
146.658	20.580	961.459	741.960
147.673	20.422	960.547	740.519
148.687	20.255	959.499	738.930
149.702	20.174	958.259	737.566
150.716	20.037	957.835	736.594
151.731	20.209	957.187	736.759
152.746	20.310	955.966	736.185
153.760	20.351	955.544	735.968
154.775	20.514	955.183	736.314
155.789	20.676	954.336	736.284
156.804	20.550	953.633	735.143
157.819	20.602	953.480	735.181
158.833	20.877	952.676	735.654
159.848	20.935	951.710	735.090
160.862	20.832	950.200	733.424
161.877	20.304	949.217	730.378
162.892	20.080	947.791	728.274
163.906	20.181	946.325	727.508
164.921	20.103	946.013	726.876
165.935	20.153	945.716	726.793
166.950	20.344	944.438	726.549
167.964	20.383	943.559	725.972
168.979	20.236	942.190	724.240
169.994	20.189	941.650	723.563
171.008	20.452	940.885	724.007
172.023	20.710	940.611	724.807
173.037	20.898	940.269	725.262
174.052	20.605	939.126	723.099
175.067	20.199	937.701	720.251
176.081	20.079	936.965	719.125
177.096	19.998	936.461	718.338
178.110	20.013	936.253	718.178
179.125	19.997	935.970	717.829
180.140	20.292	935.192	718.393
181.154	20.505	935.125	719.160
182.169	20.717	934.959	719.843
183.183	20.628	934.075	718.731
184.198	20.576	933.540	718.042
185.213	20.422	933.217	717.096
186.227	20.766	932.171	717.644
187.242	20.864	931.546	717.503
188.256	21.003	931.388	717.891
189.271	21.040	930.389	717.208
190.286	20.644	928.863	714.343
191.300	20.137	927.229	710.946
192.315	19.886	926.738	709.476
193.329	19.903	926.683	709.442
194.344	20.221	926.135	710.262
195.359	20.251	925.647	709.949
196.373	20.571	925.217	710.864
197.388	20.677	925.110	711.151
198.402	20.980	924.696	712.011
199.417	21.043	924.388	711.965
200.432	21.355	923.679	712.629
201.446	21.393	923.778	712.796
202.461	21.495	923.088	712.618
203.475	21.264	922.126	710.873
204.490	20.947	921.120	708.746
205.504	20.792	920.190	707.335
206.519	20.679	919.743	706.473
207.534	20.705	918.704	705.718
208.548	20.643	918.268	705.067
209.563	20.826	917.524	705.175
210.577	20.849	917.127	704.901
211.592	21.011	916.865	705.291
212.607	21.214	915.714	705.166
213.621	21.097	914.860	703.970
214.636	21.104	914.076	703.335
215.650	21.022	913.682	702.641
216.665	21.236	912.579	702.591
217.680	21.296	912.585	702.775
218.694	21.455	911.491	702.508
219.709	21.092	911.340	700.871
220.723	21.070	910.630	700.176
221.738	21.055	909.823	699.434
222.753	21.001	908.996	698.519
223.767	21.154	909.168	699.200
224.782	21.390	908.440	699.525
225.796	21.395	908.167	699.271
226.811	21.156	907.027	697.376
227.826	20.875	906.316	695.649
228.840	20.846	905.803	695.078
229.855	20.891	904.501	694.195
230.869	20.890	904.063	693.794
231.884	20.794	903.435	692.868
232.899	20.771	902.420	691.935
233.913	20.641	901.864	690.935
234.928	20.510	901.225	689.864
235.942	20.446	900.424	688.936
236.957	20.538	900.230	689.089
237.972	20.490	899.497	688.280
238.986	20.444	899.155	687.772
240.001	20.481	897.918	686.914
241.015	20.663	897.553	687.291
242.030	20.757	897.547	687.597
243.045	20.905	897.025	687.723
244.059	20.790	896.215	686.584
245.074	20.946	895.808	686.829
246.088	20.980	895.603	686.744
247.103	21.357	895.043	687.736
248.117	21.608	894.913	688.564
249.132	21.904	894.778	689.563
250.147	22.230	894.412	690.498
251.161	22.119	893.989	689.675
252.176	22.378	893.176	690.005
253.190	22.434	892.586	689.707
254.205	22.317	891.929	688.680
255.220	22.296	891.244	688.009
256.234	22.090	890.442	686.522
257.249	22.186	889.577	686.169
258.263	21.985	888.826	684.748
259.278	22.012	888.626	684.635
260.293	22.140	887.701	684.360
261.307	22.331	887.220	684.675
262.322	22.380	886.966	684.609
263.336	22.264	886.073	683.406
264.351	22.180	885.160	682.315
265.366	22.281	884.894	682.443
266.380	22.300	884.056	681.812
267.395	22.218	883.131	680.717
268.409	22.019	882.595	679.476
269.424	22.117	881.438	678.901
270.439	21.967	881.117	678.017
271.453	21.666	880.520	676.336
272.468	21.783	879.873	676.228
273.482	21.832	879.230	675.864
274.497	21.785	878.760	675.263
275.512	21.756	878.364	674.788
276.526	21.808	878.059	674.692
277.541	21.989	877.411	674.830
278.555	22.211	877.130	675.408
279.570	22.426	876.595	675.762
280.585	22.417	875.446	674.783
281.599	22.110	874.528	672.839
282.614	21.742	873.655	670.700
283.628	21.725	873.692	670.605
284.643	21.738	872.923	670.002
285.657	21.986	872.495	670.563
286.672	21.965	871.573	669.715
287.687	21.972	871.014	669.253
288.701	21.954	870.292	668.572
289.716	21.911	869.808	667.978
290.730	21.884	869.833	667.834
291.745	21.998	868.953	667.532
292.760	22.110	868.922	667.875
293.774	22.393	868.316	668.425
294.789	22.310	867.259	667.238
295.803	22.026	866.188	665.278
296.818	21.780	865.844	664.024
297.833	21.920	865.133	663.948
298.847	21.876	864.644	663.350
299.862	22.050	863.796	663.298
300.876	22.308	863.489	663.976
301.891	22.569	863.182	664.665
302.906	22.629	862.702	664.464
303.920	22.686	862.647	664.576
304.935	22.784	862.066	664.438
305.949	22.588	861.206	662.982
306.964	22.357	860.212	661.288
307.979	22.420	859.547	660.958
308.993	22.398	859.268	660.600
310.008	22.639	858.590	660.924
311.022	22.351	858.375	659.620
312.037	22.219	857.399	658.317
313.052	21.787	856.624	656.047
314.066	21.620	855.910	654.820
315.081	21.822	855.303	655.053
316.095	21.945	854.229	654.632
317.110	21.791	854.191	653.969
318.125	21.848	853.281	653.426
319.139	21.725	853.246	652.884
320.154	21.794	852.715	652.677
321.168	21.877	852.265	652.585
322.183	21.917	851.626	652.183
323.197	22.032	851.104	652.156
324.212	21.951	850.387	651.249
325.227	21.823	849.907	650.345
326.241	21.775	849.238	649.600
327.256	21.861	848.689	649.441
328.270	21.920	847.872	648.976
329.285	21.739	847.402	647.889
330.300	21.689	846.799	647.188
331.314	21.823	846.409	647.325
332.329	22.061	846.438	648.171
333.343	22.222	845.882	648.282
334.358	22.304	845.542	648.266
335.373	22.268	844.928	647.603
336.387	22.474	844.889	648.276
337.402	22.525	844.912	648.424
338.416	22.620	844.514	648.408
339.431	22.990	844.032	649.344
340.446	23.034	843.810	649.276
341.460	23.013	843.685	649.044
342.475	23.149	843.240	649.144
343.489	23.212	843.092	649.202
344.504	23.317	842.148	648.802
345.519	23.396	841.789	648.757
346.533	23.112	841.077	647.113
347.548	22.798	840.244	645.266
348.562	22.493	839.916	643.843
349.577	22.339	839.155	642.640
350.592	22.242	838.155	641.465
351.606	22.263	837.326	640.850
352.621	22.302	836.922	640.625
353.635	22.358	836.481	640.435
354.650	22.420	835.697	640.005
355.665	22.662	835.123	640.387
356.679	22.720	834.610	640.149
357.694	22.598	834.016	639.195
358.708	22.525	833.527	638.496
359.723	22.763	832.555	638.558
360.738	22.661	831.856	637.597
361.752	22.755	831.685	637.749
362.767	22.934	831.400	638.121
363.781	23.120	831.151	638.543
364.796	23.353	830.949	639.173
365.810	23.409	831.003	639.359
366.825	23.414	830.422	638.873
367.840	23.364	829.691	638.076
368.854	23.108	828.580	636.242
369.869	23.153	828.265	636.106
370.883	23.002	828.171	635.435
371.898	23.243	827.796	635.959
372.913	23.517	826.806	636.122
373.927	23.162	826.749	634.752
374.942	23.304	826.280	634.845
375.956	23.305	826.017	634.590
376.971	23.494	825.346	634.695
377.986	23.600	824.898	634.671
379.000	23.779	824.264	634.767
380.015	23.666	823.786	633.942
381.029	23.559	823.583	633.346
382.044	23.590	822.589	632.638
383.059	23.779	821.761	632.616
384.073	23.366	821.203	630.661
385.088	23.096	820.351	628.991
386.102	22.908	819.642	627.721
387.117	23.015	819.125	627.651
388.132	22.999	818.501	627.061
389.146	22.998	818.489	626.992
390.161	23.380	817.913	627.852
391.175	23.456	817.398	627.668
392.190	23.299	816.870	626.650
393.205	23.053	815.783	624.893
394.219	22.954	815.315	624.131
395.234	22.811	815.158	623.448
396.248	22.763	815.027	623.123
397.263	22.925	813.668	622.602
398.278	22.642	813.555	621.464
399.292	22.616	812.950	620.854
400.307	22.728	812.436	620.799
401.321	22.800	812.266	620.870
402.336	22.870	812.164	620.983
403.350	23.179	811.679	621.640
404.365	23.322	811.521	621.969
405.380	23.555	811.142	622.441
406.394	23.709	810.814	622.672
407.409	23.824	810.519	622.795
408.423	23.954	810.224	622.968
409.438	23.935	809.779	622.505
410.453	23.880	809.438	621.994
411.467	24.116	808.608	622.125
412.482	24.076	808.554	621.889
413.496	24.150	808.345	621.934
414.511	23.847	807.936	620.505
415.526	23.821	807.554	620.066
416.540	23.886	806.970	619.791
417.555	23.937	806.002	619.169
418.569	23.650	806.159	618.237
419.584	23.758	805.430	617.996
420.599	23.979	804.778	618.210
421.613	163.619	1371.532	1796.850
422.628	142.293	1454.100	1796.941
