DTS Sentinel unit serial number:	SN413079Multiplexer serial number:	ORYXHardware model number:	OX4-SRSoftware version number:	ORYX F/W v4.00 Oryx Data Collector v3.7.2.0data status	okinstallation	princeton_trtdifferential loss correction	single-endedforward channel	channel 1reverse channel	N/Adate	2019/09/18time	08:50:35forward acquisition time	60.00reverse acquisition time	0.00gamma	496.2192k internal	0.2336k external	0.2336temperature offset calibration	0.9975default loss term (dB/km)	0.3790temperature slope calibration	1.0000multiplexer offset coefficient	1.0000multiplexer slope coefficient	1.0000fibre end	0.00T internal ref (°C)	24.80T ext. ref 1 (°C)	0.23T ext. ref 2 (°C)	20.73length (m)	temperature (°C)	Stokes	anti-Stokes-747.200	430.642	0.012	0.027
-746.185	22.813	-0.085	0.070
-745.171	92.520	-0.064	0.072
-744.156	-200.000	-0.002	0.315
-743.142	800.000	-0.171	0.643
-742.127	-78.163	-0.303	-0.104
-741.112	-0.297	-0.151	0.108
-740.098	268.189	-0.052	0.091
-739.083	110.668	0.154	-0.186
-738.069	-165.892	-0.336	0.014
-737.054	-200.000	0.013	0.158
-736.039	-85.237	-0.355	-0.111
-735.025	-2.859	0.323	0.227
-734.010	800.000	0.034	-0.120
-732.996	107.708	0.090	-0.108
-731.981	-200.000	-0.016	-0.411
-730.966	-75.940	0.032	0.011
-729.952	365.299	-0.186	-0.377
-728.937	770.741	-0.114	0.311
-727.923	-151.188	0.260	0.020
-726.908	800.000	-0.024	-0.069
-725.894	501.659	-0.087	0.202
-724.879	-81.677	-0.101	-0.033
-723.864	239.888	-0.122	0.203
-722.850	354.839	0.139	0.277
-721.835	-3.482	-0.417	-0.291
-720.821	116.743	0.086	-0.106
-719.806	58.207	0.021	-0.021
-718.791	-49.359	-0.221	0.106
-717.777	800.000	0.046	0.127
-716.762	526.489	-0.045	-0.107
-715.748	-47.918	-0.257	0.125
-714.733	286.257	0.206	0.374
-713.718	157.206	-0.293	-0.406
-712.704	-200.000	-0.028	-0.252
-711.689	-19.030	-0.275	-0.171
-710.675	-200.000	-0.024	-0.174
-709.660	742.414	-0.097	-0.261
-708.645	800.000	-0.047	0.142
-707.631	800.000	-0.078	-0.245
-706.616	17.314	0.085	0.068
-705.602	-200.000	0.022	-0.161
-704.587	-108.962	0.197	0.042
-703.572	78.869	-0.196	-0.210
-702.558	-179.269	0.077	0.002
-701.543	-200.000	-0.033	0.273
-700.529	-200.000	0.008	-0.122
-699.514	-121.163	-0.081	-0.014
-698.499	15.769	-0.067	0.053
-697.485	84.211	0.094	0.103
-696.470	-109.259	-0.121	0.026
-695.456	800.000	-0.037	0.115
-694.441	-200.000	-0.019	-0.353
-693.426	25.098	0.140	-0.116
-692.412	-77.536	-0.308	-0.107
-691.397	-85.903	0.196	0.061
-690.383	486.010	0.043	0.097
-689.368	-200.000	-0.014	-0.165
-688.354	-148.700	0.576	0.047
-687.339	5.252	-0.437	-0.323
-686.324	-177.659	-0.265	-0.006
-685.310	-0.914	-0.542	0.384
-684.295	184.093	-0.088	0.131
-683.281	-11.811	-0.160	-0.105
-682.266	69.246	0.249	0.256
-681.251	275.330	-0.110	0.196
-680.237	-200.000	0.020	0.328
-679.222	-53.944	-0.102	-0.047
-678.208	-200.000	0.001	-0.175
-677.193	246.922	-0.079	-0.133
-676.178	729.040	0.088	-0.235
-675.164	130.239	-0.069	-0.088
-674.149	-37.836	-0.078	-0.042
-673.135	140.832	-0.011	0.014
-672.120	800.000	-0.024	0.070
-671.105	89.892	-0.234	-0.261
-670.091	-200.000	0.000	-0.166
-669.076	-47.549	-0.099	0.048
-668.062	5.443	0.245	0.181
-667.047	-193.918	-0.258	0.002
-666.032	125.022	0.057	-0.072
-665.018	305.986	0.111	-0.207
-664.003	-127.400	-0.107	-0.016
-662.989	32.597	-0.176	-0.153
-661.974	112.206	0.132	0.160
-660.959	-117.348	-0.454	0.082
-659.945	665.774	0.075	-0.193
-658.930	-81.573	0.241	0.079
-657.916	161.589	0.098	-0.137
-656.901	97.477	-0.227	-0.261
-655.886	-178.107	0.410	-0.010
-654.872	49.193	-0.102	-0.096
-653.857	540.693	0.196	0.468
-652.843	347.803	-0.121	-0.238
-651.828	39.228	0.300	-0.269
-650.814	800.000	-0.093	-0.332
-649.799	499.284	0.054	-0.126
-648.784	29.763	-0.318	0.271
-647.770	-4.057	0.115	-0.080
-646.755	-134.072	-0.117	-0.014
-645.741	-200.000	0.059	0.464
-644.726	-199.790	0.073	-0.000
-643.711	800.000	-0.028	-0.106
-642.697	-130.096	-0.393	-0.054
-641.682	-11.693	-0.119	-0.078
-640.668	-111.357	0.240	0.049
-639.653	18.978	-0.131	-0.105
-638.638	154.494	-0.116	0.160
-637.624	-105.864	0.125	0.028
-636.609	-200.000	0.051	0.375
-635.595	-187.390	-0.238	0.003
-634.580	-200.000	0.012	-0.255
-633.565	48.290	0.208	0.195
-632.551	-76.060	-0.254	0.090
-631.536	-198.140	0.116	0.001
-630.522	-200.000	0.021	-0.118
-629.507	6.327	-0.171	-0.127
-628.492	106.655	0.052	-0.062
-627.478	516.201	0.038	-0.089
-626.463	-74.285	0.225	0.081
-625.449	75.930	0.208	0.220
-624.434	-6.382	-0.243	-0.166
-623.419	220.455	-0.129	0.207
-622.405	-200.000	0.014	-0.222
-621.390	184.828	-0.079	0.117
-620.376	800.000	0.026	0.077
-619.361	-7.358	0.183	-0.124
-618.346	480.781	-0.224	-0.508
-617.332	204.717	0.024	0.038
-616.317	-90.115	-0.169	0.049
-615.303	-38.575	0.067	-0.035
-614.288	62.815	0.121	0.121
-613.273	-44.143	0.184	0.092
-612.259	-200.000	-0.038	0.346
-611.244	-15.923	-0.116	0.074
-610.230	15.905	-0.226	0.178
-609.215	609.828	-0.099	-0.247
-608.201	-135.321	0.228	0.027
-607.186	-93.253	-0.236	0.066
-606.171	800.000	0.088	-0.265
-605.157	-32.063	-0.196	0.109
-604.142	-200.000	-0.028	-0.175
-603.128	170.986	0.040	-0.058
-602.113	3.489	-0.073	0.053
-601.098	-57.864	0.152	-0.066
-600.084	-200.000	0.028	-0.123
-599.069	76.291	-0.150	0.159
-598.055	212.839	-0.108	-0.170
-597.040	592.764	-0.047	-0.117
-596.025	-138.763	0.159	-0.017
-595.011	-200.000	0.060	-0.326
-593.996	-87.736	0.019	-0.006
-592.982	-145.225	0.118	0.011
-591.967	71.007	-0.062	-0.064
-590.952	-103.985	0.277	0.064
-589.938	4.546	-0.105	-0.077
-588.923	800.000	0.048	-0.175
-587.909	199.140	-0.069	0.106
-586.894	146.815	0.126	0.169
-585.879	-12.737	-0.125	-0.081
-584.865	34.634	0.160	0.140
-583.850	229.517	0.075	-0.123
-582.836	132.007	0.172	0.221
-581.821	-28.389	-0.130	-0.075
-580.806	109.440	0.059	0.071
-579.792	87.414	0.051	0.056
-578.777	-200.000	0.005	-0.160
-577.763	-31.198	-0.247	0.139
-576.748	24.559	-0.229	0.189
-575.733	97.128	-0.103	-0.118
-574.719	-30.877	-0.301	-0.170
-573.704	16.760	0.055	-0.044
-572.690	11.512	-0.152	-0.116
-571.675	800.000	0.031	0.092
-570.661	206.514	-0.092	0.143
-569.646	264.843	0.060	-0.103
-568.631	-59.058	-0.534	0.230
-567.617	800.000	0.026	-0.088
-566.602	117.002	-0.340	0.417
-565.588	-200.000	-0.026	0.163
-564.573	133.199	0.172	0.222
-563.558	-200.000	-0.036	-0.258
-562.544	-21.205	0.261	0.159
-561.529	800.000	0.071	-0.203
-560.515	-31.084	0.244	0.137
-559.500	18.061	0.209	0.166
-558.485	225.463	0.119	0.192
-557.471	-79.864	-0.215	-0.072
-556.456	-85.285	-0.364	-0.113
-555.442	-200.000	0.023	-0.322
-554.427	5.039	-0.064	0.047
-553.412	800.000	0.060	0.169
-552.398	-200.000	-0.047	-0.367
-551.383	-105.080	0.176	-0.040
-550.369	-73.770	0.069	-0.025
-549.354	129.750	0.174	0.221
-548.339	-34.281	-0.160	-0.088
-547.325	-70.908	0.258	-0.097
-546.310	143.680	0.090	-0.119
-545.296	-200.000	-0.054	0.388
-544.281	800.000	0.045	0.142
-543.266	421.188	0.090	-0.193
-542.252	-99.162	0.179	0.045
-541.237	-200.000	-0.020	-0.099
-540.223	181.555	-0.085	0.124
-539.208	-1.678	0.158	0.111
-538.193	-72.580	0.182	-0.067
-537.179	-200.000	-0.027	-0.152
-536.164	-35.558	-0.123	-0.067
-535.150	-18.665	-0.243	-0.151
-534.135	19.014	0.149	-0.119
-533.121	-200.000	-0.013	-0.354
-532.106	12.931	0.167	0.128
-531.091	-3.019	-0.237	0.165
-530.077	23.421	0.090	-0.073
-529.062	-112.253	-0.497	0.099
-528.048	316.352	0.185	-0.347
-527.033	-121.132	-0.184	0.031
-526.018	-174.077	0.104	-0.003
-525.004	-107.492	0.342	-0.075
-523.989	-38.142	-0.073	0.039
-522.975	-200.000	0.053	0.372
-521.960	753.883	0.100	-0.268
-520.945	-38.567	0.157	0.083
-519.931	-141.115	-0.157	0.016
-518.916	800.000	-0.081	-0.295
-517.902	387.782	0.125	-0.257
-516.887	452.025	-0.115	-0.253
-515.872	381.397	0.135	0.275
-514.858	-200.000	0.007	-0.252
-513.843	-200.000	0.007	-0.151
-512.829	220.781	0.225	-0.360
-511.814	131.429	0.027	-0.034
-510.799	-200.000	0.043	0.296
-509.785	333.100	-0.082	-0.158
-508.770	-200.000	-0.045	0.325
-507.756	78.565	0.079	-0.084
-506.741	-133.535	0.297	0.037
-505.726	64.741	-0.157	-0.158
-504.712	800.000	0.063	-0.231
-503.697	-200.000	0.006	-0.078
-502.683	-200.000	-0.018	0.200
-501.668	112.959	-0.298	-0.359
-500.653	146.045	0.264	0.352
-499.639	-200.000	-0.013	0.194
-498.624	-200.000	0.063	-0.328
-497.610	570.891	0.050	0.120
-496.595	15.893	-0.340	0.267
-495.581	193.275	0.115	-0.172
-494.566	-45.136	0.384	0.190
-493.551	51.695	0.326	0.309
-492.537	-200.000	-0.215	-0.001
-491.522	-80.612	0.280	0.093
-490.508	-68.982	-0.118	-0.045
-489.493	170.198	0.247	0.352
-488.478	62.239	0.235	-0.233
-487.464	40.966	-0.167	-0.150
-486.449	-200.000	-0.047	-0.320
-485.435	61.184	0.189	0.187
-484.420	-53.698	0.245	-0.111
-483.405	-99.636	-0.079	0.020
-482.391	-127.693	0.070	0.010
-481.376	71.991	0.034	-0.035
-480.362	-200.000	0.002	0.092
-479.347	-72.653	0.126	-0.046
-478.332	-51.925	-0.144	-0.066
-477.318	-102.987	-0.284	-0.067
-476.303	126.199	0.140	0.176
-475.289	-140.515	-0.111	-0.012
-474.274	-26.322	0.161	-0.094
-473.259	78.862	-0.146	0.155
-472.245	-200.000	-0.002	-0.105
-471.230	25.226	0.256	0.211
-470.216	193.139	-0.280	-0.421
-469.201	-18.612	-0.190	0.118
-468.186	-137.795	-0.449	-0.050
-467.172	-66.134	-0.272	0.108
-466.157	-200.000	0.075	0.351
-465.143	307.146	-0.072	0.133
-464.128	-16.973	-0.282	0.177
-463.113	-127.710	-0.141	-0.020
-462.099	-200.000	0.023	-0.143
-461.084	-23.545	0.360	-0.214
-460.070	-140.703	0.140	0.014
-459.055	-200.000	0.030	-0.215
-458.040	-50.049	-0.210	-0.099
-457.026	164.373	0.149	0.208
-456.011	-200.000	0.017	-0.235
-454.997	-140.703	0.146	0.015
-453.982	352.638	-0.042	-0.083
-452.968	153.616	-0.170	0.232
-451.953	387.434	0.116	0.237
-450.938	-24.356	-0.226	-0.134
-449.924	446.760	-0.044	-0.096
-448.909	-1.421	0.424	-0.297
-447.895	526.017	0.211	-0.492
-446.880	415.112	-0.117	-0.247
-445.865	-200.000	-0.006	0.025
-444.851	21.375	0.243	0.196
-443.836	800.000	-0.073	0.309
-442.822	-113.893	-0.445	-0.086
-441.807	-78.206	0.106	-0.036
-440.792	32.833	0.017	0.014
-439.778	-122.779	-0.237	0.038
-438.763	-200.000	-0.009	-0.363
-437.749	-184.507	-0.290	-0.005
-436.734	-166.575	-0.329	-0.014
-435.719	-22.505	0.141	-0.085
-434.705	-127.537	0.202	0.029
-433.690	62.522	0.108	0.107
-432.676	130.929	-0.261	0.332
-431.661	316.274	0.149	0.279
-430.646	-109.566	-0.347	0.073
-429.632	800.000	0.054	0.165
-428.617	800.000	-0.054	-0.229
-427.603	-74.063	0.329	-0.118
-426.588	180.802	0.114	0.166
-425.573	-31.082	-0.224	0.126
-424.559	44.243	0.104	0.095
-423.544	-200.000	0.002	-0.135
-422.530	-112.901	0.122	0.024
-421.515	800.000	0.060	-0.236
-420.500	800.000	0.113	-0.335
-419.486	-114.934	0.270	-0.051
-418.471	414.131	-0.115	-0.243
-417.457	800.000	-0.032	0.117
-416.442	281.577	0.132	-0.235
-415.428	-200.000	0.011	0.062
-414.413	230.626	-0.212	-0.345
-413.398	208.771	0.015	0.024
-412.384	-200.000	-0.024	-0.288
-411.369	71.593	0.138	-0.142
-410.355	5.189	0.284	-0.208
-409.340	130.099	0.190	0.241
-408.325	63.714	-0.192	0.192
-407.311	32.270	0.128	-0.109
-406.296	305.628	0.030	0.055
-405.282	323.997	0.063	0.120
-404.267	-200.000	0.034	0.297
-403.252	131.836	-0.090	0.115
-402.238	-200.000	0.037	-0.407
-401.223	415.935	0.090	0.191
-400.209	-200.000	0.013	-0.078
-399.194	-178.853	-0.142	0.003
-398.179	785.574	-0.060	-0.164
-397.165	-200.000	0.008	-0.080
-396.150	-151.827	0.209	-0.015
-395.136	-117.163	0.142	0.026
-394.121	-24.843	-0.054	0.032
-393.106	449.294	0.078	0.171
-392.092	-14.052	0.329	0.210
-391.077	757.828	0.064	-0.172
-390.063	57.029	0.203	-0.196
-389.048	-133.710	0.140	0.017
-388.033	107.716	-0.172	-0.203
-387.019	635.385	-0.108	0.272
-386.004	473.742	0.089	0.199
-384.990	-200.000	0.026	-0.162
-383.975	336.291	0.045	0.086
-382.960	-200.000	0.043	0.197
-381.946	-200.000	0.033	-0.255
-380.931	171.095	-0.188	-0.267
-379.917	83.409	0.215	-0.232
-378.902	-190.526	0.437	-0.005
-377.888	13.985	-0.129	0.100
-376.873	-131.073	-0.371	0.049
-375.858	-1.241	0.134	0.094
-374.844	66.553	0.334	-0.336
-373.829	-77.031	-0.208	-0.072
-372.815	-200.000	0.022	-0.149
-371.800	112.001	-0.301	-0.359
-370.785	-86.460	-0.247	0.075
-369.771	551.653	-0.072	0.171
-368.756	-10.634	0.177	0.116
-367.742	-142.133	0.166	0.016
-366.727	-34.165	0.092	0.050
-365.712	800.000	0.084	-0.311
-364.698	-200.000	-0.072	-0.000
-363.683	800.000	-0.077	-0.215
-362.669	624.773	0.029	0.073
-361.654	-78.494	-0.081	-0.027
-360.639	-151.375	-0.382	-0.028
-359.625	138.628	0.079	-0.103
-358.610	136.031	-0.129	0.166
-357.596	424.393	-0.097	0.207
-356.581	-14.385	-0.323	-0.206
-355.566	111.124	0.095	-0.114
-354.552	162.549	-0.028	-0.039
-353.537	800.000	0.048	-0.152
-352.523	-63.217	-0.093	-0.038
-351.508	-91.486	-0.293	0.083
-350.493	-87.165	0.196	0.059
-349.479	-200.000	0.012	0.094
-348.464	-150.189	-0.082	0.006
-347.450	-96.430	-0.229	-0.060
-346.435	84.742	-0.092	-0.100
-345.420	-90.804	-0.269	-0.077
-344.406	800.000	0.020	0.074
-343.391	-32.546	0.240	-0.132
-342.377	-131.864	0.142	0.018
-341.362	-40.825	-0.066	-0.034
-340.348	-152.375	-0.218	-0.016
-339.333	-113.527	-0.215	0.042
-338.318	-10.344	0.236	0.154
-337.304	-200.000	0.014	0.176
-336.289	-161.666	-0.172	0.009
-335.275	42.856	-0.097	-0.088
-334.260	-10.454	0.101	0.066
-333.245	98.586	0.105	-0.120
-332.231	-1.775	0.060	0.042
-331.216	309.271	0.062	-0.114
-330.202	-152.192	-0.142	0.010
-329.187	102.618	-0.111	-0.129
-328.172	18.230	-0.081	0.064
-327.158	800.000	0.050	-0.139
-326.143	128.447	-0.064	0.081
-325.129	133.317	-0.140	-0.179
-324.114	-175.900	-0.703	0.018
-323.099	206.665	-0.073	0.112
-322.085	-200.000	-0.042	-0.244
-321.070	-48.476	-0.156	-0.074
-320.056	800.000	0.061	-0.230
-319.041	-22.007	0.212	0.127
-318.026	81.289	-0.060	0.065
-317.012	-35.888	-0.173	-0.093
-315.997	338.422	0.063	0.122
-314.983	138.273	0.176	0.227
-313.968	-48.612	0.240	-0.114
-312.953	305.841	0.148	0.273
-311.939	625.727	0.076	0.190
-310.924	-169.281	0.231	0.008
-309.910	11.183	0.190	0.143
-308.895	-94.450	-0.014	-0.004
-307.880	-79.686	-0.143	0.048
-306.866	-34.553	0.193	-0.104
-305.851	-157.063	-0.352	0.021
-304.837	294.966	-0.092	0.166
-303.822	-84.715	0.036	0.011
-302.807	-14.441	0.176	0.112
-301.793	10.200	-0.034	0.026
-300.778	-136.210	0.293	-0.034
-299.764	325.587	-0.048	-0.090
-298.749	17.209	-0.290	0.227
-297.735	349.614	-0.049	0.096
-296.720	800.000	-0.064	-0.212
-295.705	450.168	0.031	0.067
-294.691	408.302	0.074	0.154
-293.676	175.808	-0.068	-0.097
-292.662	-111.715	-0.211	0.042
-291.647	-118.163	-0.187	0.033
-290.632	-200.000	-0.021	-0.314
-289.618	-112.263	0.208	0.041
-288.603	800.000	-0.039	0.127
-287.589	-200.000	0.016	-0.104
-286.574	-31.539	0.263	0.146
-285.559	74.147	-0.281	-0.291
-284.545	-169.094	-0.277	-0.010
-283.530	-200.000	0.050	-0.234
-282.516	-130.999	0.125	0.016
-281.501	71.411	-0.127	0.130
-280.486	337.886	-0.064	-0.124
-279.472	-85.062	0.126	0.039
-278.457	-53.991	0.376	0.169
-277.443	-110.889	0.197	-0.040
-276.428	-110.615	0.173	0.035
-275.413	800.000	0.063	-0.252
-274.399	4.773	-0.150	0.109
-273.384	-60.847	0.043	0.018
-272.370	122.100	-0.135	-0.166
-271.355	-25.930	0.185	0.107
-270.340	82.528	-0.234	-0.251
-269.326	222.367	0.083	-0.132
-268.311	213.194	0.132	-0.205
-267.297	-200.000	0.030	-0.135
-266.282	-47.121	0.238	-0.115
-265.267	-105.629	0.313	-0.070
-264.253	156.584	-0.058	-0.080
-263.238	-79.815	0.156	-0.052
-262.224	-107.243	-0.266	-0.058
-261.209	-20.182	0.065	-0.040
-260.195	176.384	0.080	-0.115
-259.180	800.000	-0.008	-0.033
-258.165	-110.699	0.374	-0.076
-257.151	-200.000	0.025	0.185
-256.136	129.601	-0.142	0.178
-255.122	800.000	-0.078	0.221
-254.107	-89.360	0.134	0.039
-253.092	177.791	0.358	0.515
-252.078	-200.000	-0.039	0.309
-251.063	-30.741	-0.109	-0.061
-250.049	-200.000	-0.003	-0.076
-249.034	800.000	-0.081	-0.232
-248.019	-115.688	0.312	0.058
-247.005	-107.782	-0.516	0.111
-245.990	-200.000	0.030	-0.375
-244.976	800.000	0.147	-0.558
-243.961	-200.000	-0.016	0.199
-242.946	277.434	-0.137	-0.240
-241.932	-200.000	-0.002	0.167
-240.917	-134.464	0.098	0.012
-239.903	-8.916	-0.284	0.187
-238.888	12.868	-0.086	0.065
-237.873	365.072	-0.028	0.055
-236.859	15.007	0.058	0.045
-235.844	411.471	0.012	0.026
-234.830	168.693	0.063	-0.089
-233.815	2.119	-0.054	-0.038
-232.800	58.974	0.258	0.249
-231.786	157.342	0.111	0.151
-230.771	-40.697	-0.278	0.142
-229.757	-200.000	-0.036	0.384
-228.742	-200.000	0.016	-0.267
-227.727	-115.212	0.314	0.058
-226.713	96.448	-0.211	0.238
-225.698	-25.040	0.314	-0.183
-224.684	603.502	0.027	-0.067
-223.669	11.582	0.376	0.284
-222.655	375.259	-0.160	-0.321
-221.640	322.403	-0.181	0.338
-220.625	49.116	0.215	-0.199
-219.611	-68.596	-0.190	0.072
-218.596	7.888	0.206	0.152
-217.582	-200.000	0.029	0.141
-216.567	1.810	-0.387	0.274
-215.552	-158.646	-0.159	-0.009
-214.538	472.125	0.057	0.127
-213.523	327.849	0.130	0.246
-212.509	16.017	0.064	-0.049
-211.494	-83.815	-0.418	0.131
-210.479	-200.000	-0.006	0.238
-209.465	-52.725	0.310	0.141
-208.450	-93.357	0.147	0.040
-207.436	-147.742	-0.469	-0.039
-206.421	353.477	0.084	-0.163
-205.406	357.667	0.120	0.235
-204.392	-90.957	-0.129	0.036
-203.377	-200.000	-0.042	0.193
-202.363	-129.062	-0.479	0.066
-201.348	-137.335	-0.251	0.028
-200.333	395.425	-0.194	0.397
-199.319	-200.000	-0.041	0.208
-198.304	-118.051	-0.288	0.051
-197.290	-200.000	0.007	-0.117
-196.275	641.954	-0.125	0.314
-195.260	104.726	0.160	0.186
-194.246	-200.000	-0.007	0.493
-193.231	114.783	0.105	0.126
-192.217	11.091	0.287	0.215
-191.202	-21.912	-0.260	-0.155
-190.187	-200.000	0.014	-0.093
-189.173	800.000	-0.068	-0.291
-188.158	92.643	0.216	-0.240
-187.144	-27.737	-0.159	0.091
-186.129	-200.000	-0.023	0.202
-185.114	44.873	-0.144	-0.131
-184.100	557.212	-0.104	-0.246
-183.085	800.000	-0.089	-0.259
-182.071	800.000	0.122	-0.390
-181.056	-164.973	0.093	-0.004
-180.042	-68.521	0.053	0.020
-179.027	-1.204	0.084	0.058
-178.012	425.213	-0.086	0.181
-176.998	800.000	0.054	0.148
-175.983	-152.571	0.291	0.020
-174.969	800.000	0.055	0.199
-173.954	-60.806	0.220	0.091
-172.939	-167.748	0.209	0.008
-171.925	-200.000	0.249	-0.001
-170.910	-112.388	-0.371	0.073
-169.896	-100.172	0.466	-0.114
-168.881	-95.393	0.158	-0.042
-167.866	800.000	0.033	0.114
-166.852	253.363	0.254	0.426
-165.837	604.446	0.056	0.136
-164.823	800.000	0.046	0.165
-163.808	-155.698	-0.145	-0.009
-162.793	592.143	-0.176	-0.428
-161.779	800.000	0.110	0.338
-160.764	-55.115	0.099	0.044
-159.750	478.327	-0.028	-0.061
-158.735	-40.173	-0.070	-0.036
-157.720	-28.595	0.177	-0.100
-156.706	-137.890	-0.454	-0.050
-155.691	257.988	0.188	-0.317
-154.677	8.100	-0.245	-0.181
-153.662	252.733	-0.297	0.497
-152.647	800.000	0.059	-0.175
-151.633	25.426	0.129	0.106
-150.618	-200.000	0.023	0.569
-149.604	120.604	0.314	0.382
-148.589	800.000	0.074	-0.218
-147.574	-74.611	0.157	0.055
-146.560	8.185	-0.061	0.045
-145.545	-90.787	0.233	-0.066
-144.531	-200.000	0.031	-0.139
-143.516	633.703	-0.134	-0.334
-142.502	206.508	0.034	0.051
-141.487	308.909	-0.120	-0.221
-140.472	-200.000	-0.064	0.340
-139.458	-89.083	-0.055	-0.016
-138.443	-103.342	-0.127	0.029
-137.429	-176.895	-0.332	-0.008
-136.414	800.000	-0.071	0.202
-135.399	-109.498	0.418	0.087
-134.385	-79.140	0.394	-0.131
-133.370	78.698	-0.032	-0.033
-132.356	-200.000	0.009	0.134
-131.341	-37.488	-0.080	-0.042
-130.326	-15.867	0.183	0.114
-129.312	284.838	0.165	-0.292
-128.297	67.782	-0.141	-0.142
-127.283	20.104	0.091	-0.072
-126.268	146.319	0.134	-0.176
-125.253	-150.326	0.115	-0.009
-124.239	125.595	0.011	0.013
-123.224	-97.842	0.205	0.052
-122.210	182.720	0.191	0.276
-121.195	694.979	0.126	-0.325
-120.180	800.000	0.039	-0.163
-119.166	800.000	-0.056	0.216
-118.151	501.692	-0.098	0.221
-117.137	800.000	-0.053	0.215
-116.122	800.000	0.037	-0.121
-115.107	-99.689	-0.174	0.043
-114.093	-65.332	0.214	0.084
-113.078	-145.647	-0.133	0.012
-112.064	420.501	-0.212	0.445
-111.049	-68.080	0.234	0.089
-110.034	-200.000	0.001	-0.079
-109.020	-200.000	-0.020	0.333
-108.005	-33.469	0.202	0.109
-106.991	6.970	-0.178	-0.130
-105.976	620.576	-0.062	0.154
-104.962	55.341	0.077	-0.073
-103.947	429.376	0.047	-0.100
-102.932	21.189	-0.093	-0.074
-101.918	-75.081	-0.264	-0.092
-100.903	-68.888	0.230	-0.087
-99.889	-79.380	0.240	-0.080
-98.874	243.322	-0.042	-0.069
-97.859	53.737	-0.258	0.243
-96.845	21.850	0.070	-0.056
-95.830	-200.000	-0.007	0.093
-94.816	-200.000	0.020	-0.189
-93.801	449.692	0.087	0.188
-92.786	-77.340	0.076	-0.026
-91.772	218.736	-0.118	0.185
-90.757	111.724	-0.215	0.254
-89.743	-136.630	0.116	0.013
-88.728	93.177	-0.248	0.275
-87.713	-49.465	0.121	0.056
-86.699	-47.477	-0.261	-0.124
-85.684	800.000	0.055	0.163
-84.670	214.826	-0.283	0.438
-83.655	800.000	0.038	0.144
-82.640	-102.502	0.378	-0.088
-81.626	-200.000	0.008	0.146
-80.611	-70.469	-0.287	-0.106
-79.597	800.000	0.068	0.209
-78.582	-148.103	0.058	0.005
-77.567	47.865	0.134	0.123
-76.553	-134.818	-0.191	-0.023
-75.538	110.681	-0.110	-0.130
-74.524	-72.106	-0.198	0.072
-73.509	-200.000	0.012	0.193
-72.494	-96.994	-0.212	-0.054
-71.480	-138.319	0.222	-0.024
-70.465	-93.896	-0.109	0.029
-69.451	-131.180	-0.251	-0.033
-68.436	800.000	0.146	0.403
-67.422	79.939	-0.241	-0.254
-66.407	-129.321	0.184	0.025
-65.392	800.000	0.080	0.243
-64.378	-61.729	-0.079	0.032
-63.363	87.811	-0.147	-0.160
-62.349	440.635	-0.136	0.291
-61.334	116.620	-0.980	-1.176
-60.319	54.345	0.593	0.558
-59.305	-200.000	-0.202	-1.225
-58.290	446.826	0.615	1.323
-57.276	800.000	0.645	1.760
-56.261	-200.000	121.697	613.686
-55.246	386.348	1572.543	3174.025
-54.232	140.429	2737.078	3531.633
-53.217	94.754	2174.248	2417.073
-52.203	35.921	1604.018	1379.336
-51.188	28.009	1346.445	1109.976
-50.173	25.376	1307.632	1062.382
-49.159	50.324	1371.935	1267.035
-48.144	48.556	1385.321	1268.607
-47.130	28.190	1335.433	1101.812
-46.115	25.001	1316.756	1067.392
-45.100	24.770	1311.440	1061.668
-44.086	24.703	1309.095	1059.332
-43.071	24.656	1306.709	1057.079
-42.057	24.554	1305.239	1055.245
-41.042	24.624	1303.528	1054.233
-40.027	24.765	1301.822	1053.647
-39.013	24.647	1300.470	1051.816
-37.998	24.710	1298.333	1050.412
-36.984	24.775	1296.309	1049.116
-35.969	24.760	1294.591	1047.593
-34.954	24.852	1293.379	1047.111
-33.940	24.938	1291.338	1045.918
-32.925	24.842	1290.463	1044.610
-31.911	24.899	1288.924	1043.657
-30.896	24.950	1287.317	1042.610
-29.881	24.883	1286.523	1041.532
-28.867	24.911	1284.739	1040.212
-27.852	24.842	1283.942	1039.126
-26.838	24.955	1281.843	1038.038
-25.823	24.906	1280.692	1036.780
-24.809	24.836	1279.768	1035.586
-23.794	24.898	1277.808	1034.320
-22.779	24.772	1277.254	1033.102
-21.765	24.939	1275.396	1032.524
-20.750	24.834	1274.546	1031.189
-19.736	24.717	1273.368	1029.519
-18.721	24.757	1272.070	1028.660
-17.706	24.767	1270.693	1027.561
-16.692	24.723	1269.494	1026.300
-15.677	24.785	1268.657	1025.937
-14.663	24.668	1267.603	1024.376
-13.648	24.715	1266.208	1023.474
-12.633	24.729	1265.421	1022.881
-11.619	24.745	1264.797	1022.425
-10.604	24.791	1262.936	1021.144
-9.590	24.789	1262.419	1020.673
-8.575	24.724	1261.516	1019.534
-7.560	24.722	1260.785	1018.888
-6.546	24.744	1259.989	1018.333
-5.531	24.786	1258.815	1017.581
-4.517	24.767	1258.432	1017.120
-3.502	24.668	1257.805	1016.013
-2.487	24.800	1256.493	1015.664
-1.473	24.746	1252.147	1011.802
-0.458	23.541	1237.844	993.464
0.556	19.117	1222.562	960.460
1.571	15.749	1230.465	947.639
2.586	15.055	1245.982	955.546
3.600	14.854	1234.144	945.248
4.615	10.814	1161.158	867.732
5.629	3.696	1088.409	777.563
6.644	0.415	1070.296	748.297
7.659	0.136	1068.867	745.847
8.673	0.188	1067.237	744.901
9.688	0.171	1066.149	743.993
10.702	0.341	1064.211	743.413
11.717	4.599	1069.674	768.239
12.731	11.964	1078.853	811.352
13.746	16.076	1083.783	835.409
14.761	16.700	1084.076	838.648
15.775	16.016	1082.710	834.135
16.790	15.102	1080.500	827.843
17.804	14.401	1078.835	823.032
18.819	14.020	1077.609	820.145
19.834	13.913	1076.656	818.820
20.848	13.519	1075.948	816.265
21.863	13.317	1075.247	814.666
22.877	13.132	1074.463	813.090
23.892	13.150	1073.648	812.488
24.907	13.232	1072.808	812.183
25.921	13.236	1072.184	811.661
26.936	13.222	1071.406	810.932
27.950	13.297	1070.105	810.244
28.965	13.305	1069.309	809.608
29.980	13.367	1067.737	808.648
30.994	13.371	1066.734	807.837
32.009	13.349	1066.111	807.185
33.023	13.377	1065.215	806.571
34.038	13.379	1063.507	805.217
35.053	13.313	1062.917	804.380
36.067	13.273	1062.054	803.462
37.082	13.264	1061.452	802.890
38.096	13.292	1060.995	802.610
39.111	13.341	1059.561	801.691
40.126	13.182	1058.872	800.330
41.140	13.151	1057.949	799.412
42.155	13.110	1056.757	798.243
43.169	13.156	1055.449	797.404
44.184	13.135	1054.452	796.480
45.199	13.116	1053.234	795.395
46.213	13.057	1052.584	794.554
47.228	13.193	1051.495	794.314
48.242	13.176	1050.526	793.430
49.257	13.347	1048.924	792.968
50.271	13.223	1048.721	792.152
51.286	13.243	1047.813	791.492
52.301	13.338	1046.016	790.517
53.315	13.273	1045.125	789.462
54.330	13.195	1044.473	788.530
55.344	13.133	1043.617	787.519
56.359	13.123	1042.759	786.753
57.374	13.183	1042.003	786.401
58.388	13.143	1041.056	785.426
59.403	13.252	1040.279	785.289
60.417	13.082	1039.151	783.560
61.432	13.172	1038.749	783.615
62.447	12.969	1038.006	782.020
63.461	12.959	1037.120	781.236
64.476	13.005	1036.116	780.632
65.490	13.048	1035.426	780.244
66.505	13.014	1034.761	779.511
67.520	13.179	1033.568	779.325
68.534	13.077	1033.814	778.958
69.549	13.177	1032.336	778.250
70.563	13.211	1031.231	777.505
71.578	13.090	1030.725	776.488
72.593	13.131	1029.807	775.919
73.607	13.070	1029.464	775.305
74.622	13.079	1028.839	774.810
75.636	13.064	1027.991	774.029
76.651	13.148	1027.110	773.691
77.666	13.060	1026.430	772.698
78.680	13.104	1025.765	772.337
79.695	13.140	1025.286	772.076
80.709	13.144	1024.235	771.234
81.724	13.177	1024.222	771.312
82.739	13.306	1023.386	771.216
83.753	13.287	1022.434	770.341
84.768	13.265	1021.399	769.392
85.782	13.350	1020.489	769.032
86.797	13.249	1019.988	768.118
87.812	13.244	1018.374	766.810
88.826	13.248	1017.639	766.206
89.841	13.209	1016.634	765.205
90.855	13.242	1015.638	764.537
91.870	13.246	1015.092	764.076
92.884	13.384	1014.776	764.408
93.899	13.456	1013.435	763.666
94.914	13.370	1012.715	762.657
95.928	13.400	1012.118	762.279
96.943	13.330	1011.336	761.302
97.957	13.353	1010.439	760.663
98.972	13.342	1009.229	759.634
99.987	13.388	1008.227	759.024
101.001	13.333	1007.360	758.051
102.016	13.186	1006.799	756.892
103.030	13.477	1005.294	757.021
104.045	13.311	1004.955	755.943
105.060	13.362	1003.967	755.363
106.074	13.167	1003.452	754.022
107.089	13.182	1002.067	752.983
108.103	13.086	1001.474	752.033
109.118	13.199	1000.308	751.604
110.133	13.261	999.256	751.030
111.147	13.275	998.667	750.583
112.162	13.254	997.920	749.859
113.176	13.384	997.021	749.709
114.191	13.453	995.972	749.163
115.206	13.251	995.946	748.164
116.220	13.284	994.703	747.311
117.235	13.314	993.620	746.570
118.249	13.261	993.060	745.842
119.264	13.335	992.251	745.503
120.279	13.253	991.562	744.549
121.293	13.291	990.075	743.537
122.308	13.202	989.862	742.910
123.322	13.165	988.557	741.701
124.337	13.239	987.717	741.335
125.352	13.350	986.474	740.837
126.366	13.239	985.384	739.457
127.381	13.217	984.290	738.473
128.395	13.203	983.547	737.787
129.410	13.225	982.708	737.189
130.424	13.334	981.687	736.843
131.439	13.400	980.806	736.409
132.454	13.432	980.002	735.886
133.468	13.362	979.443	735.089
134.483	13.310	978.438	734.039
135.497	13.342	977.765	733.609
136.512	13.354	976.753	732.841
137.527	13.408	975.827	732.319
138.541	13.315	975.164	731.346
139.556	13.306	974.822	730.985
140.570	13.365	974.283	730.777
141.585	13.524	973.025	730.468
142.600	13.456	972.318	729.576
143.614	13.431	971.797	729.009
144.629	13.438	971.005	728.379
145.643	13.487	969.622	727.493
146.658	13.341	968.723	726.116
147.673	13.531	967.670	726.092
148.687	13.409	967.226	725.159
149.702	13.324	966.527	724.200
150.716	13.390	965.401	723.583
151.731	13.370	964.951	723.093
152.746	13.565	964.064	723.214
153.760	13.589	963.745	723.017
154.775	13.496	962.807	721.845
155.789	13.589	962.109	721.661
156.804	13.510	961.755	720.987
157.819	13.542	960.811	720.355
158.833	13.586	960.253	720.068
159.848	13.579	959.263	719.230
160.862	13.631	958.234	718.619
161.877	13.642	957.351	717.942
162.892	13.571	956.290	716.777
163.906	13.551	955.631	716.132
164.921	13.473	954.734	715.061
165.935	13.607	953.362	714.548
166.950	13.540	952.945	713.883
167.964	13.719	952.049	713.917
168.979	13.647	951.164	712.881
169.994	13.665	950.601	712.475
171.008	13.756	949.253	711.790
172.023	13.753	949.183	711.662
173.037	13.605	948.772	710.656
174.052	13.813	947.366	710.429
175.067	13.840	946.565	709.881
176.081	13.720	946.410	709.190
177.096	13.666	945.514	708.224
178.110	13.754	945.219	708.320
179.125	13.669	944.665	707.477
180.140	13.799	943.842	707.351
181.154	13.705	943.377	706.543
182.169	13.812	942.934	706.604
183.183	13.827	942.472	706.259
184.198	13.943	941.487	705.951
185.213	13.945	940.586	705.221
186.227	13.904	939.987	704.536
187.242	13.840	939.657	703.956
188.256	13.895	939.069	703.685
189.271	13.915	937.848	702.793
190.286	13.816	937.393	701.970
191.300	13.800	936.769	701.373
192.315	13.774	936.109	700.706
193.329	13.728	935.432	699.943
194.344	13.910	935.007	700.332
195.359	13.897	934.146	699.569
196.373	13.847	933.331	698.688
197.388	13.993	933.218	699.156
198.402	14.055	932.362	698.711
199.417	14.167	931.383	698.387
200.432	14.210	931.240	698.398
201.446	14.147	930.901	697.820
202.461	14.293	929.973	697.672
203.475	14.197	929.615	696.939
204.490	14.088	928.803	695.815
205.504	13.974	928.527	695.069
206.519	14.182	927.285	694.947
207.534	14.080	926.443	693.829
208.548	14.192	926.013	693.911
209.563	14.142	925.462	693.228
210.577	14.233	924.508	692.832
211.592	14.365	923.841	692.821
212.607	14.286	923.079	691.860
213.621	14.307	922.042	691.107
214.636	14.330	921.825	690.981
215.650	14.234	921.215	690.064
216.665	14.414	920.140	689.940
217.680	14.464	919.583	689.670
218.694	14.436	919.038	689.083
219.709	14.302	918.580	688.125
220.723	14.403	917.834	687.923
221.738	14.415	916.803	687.139
222.753	14.462	915.929	686.617
223.767	14.435	915.946	686.460
224.782	14.407	915.253	685.765
225.796	14.457	914.901	685.645
226.811	14.529	914.253	685.392
227.826	14.486	913.354	684.483
228.840	14.533	912.363	683.874
229.855	14.505	911.783	683.264
230.869	14.412	911.261	682.430
231.884	14.470	910.087	681.727
232.899	14.472	909.646	681.343
233.913	14.452	908.643	680.451
234.928	14.572	908.192	680.545
235.942	14.559	907.786	680.126
236.957	14.570	907.016	679.533
237.972	14.540	906.309	678.822
238.986	14.468	905.846	678.122
240.001	14.443	905.254	677.517
241.015	14.527	904.501	677.233
242.030	14.613	904.016	677.161
243.045	14.548	903.590	676.518
244.059	14.680	902.471	676.154
245.074	14.617	902.405	675.791
246.088	14.635	901.144	674.861
247.103	14.737	900.989	675.097
248.117	14.738	900.287	674.516
249.132	14.800	899.793	674.332
250.147	14.860	898.683	673.686
251.161	14.854	898.604	673.542
252.176	14.765	898.133	672.771
253.190	14.868	897.163	672.401
254.205	15.007	896.182	672.164
255.220	15.060	895.339	671.684
256.234	14.907	895.199	670.907
257.249	15.003	894.419	670.648
258.263	14.997	893.408	669.806
259.278	14.957	892.816	669.143
260.293	15.040	892.308	669.032
261.307	15.088	892.303	669.161
262.322	15.171	891.112	668.544
263.336	15.213	890.095	667.888
264.351	15.248	889.598	667.596
265.366	15.227	888.869	666.906
266.380	15.261	888.271	666.531
267.395	15.261	887.802	666.121
268.409	15.297	886.905	665.532
269.424	15.166	886.693	664.792
270.439	15.196	885.668	664.087
271.453	15.245	884.896	663.641
272.468	15.219	884.766	663.382
273.482	15.311	884.134	663.214
274.497	15.258	883.524	662.487
275.512	15.265	882.641	661.796
276.526	15.301	882.376	661.682
277.541	15.283	881.942	661.224
278.555	15.382	881.421	661.167
279.570	15.340	880.581	660.311
280.585	15.400	879.486	659.671
281.599	15.443	878.726	659.208
282.614	15.400	878.401	658.739
283.628	15.543	877.789	658.783
284.643	15.380	877.419	657.805
285.657	15.450	876.613	657.419
286.672	15.462	875.859	656.843
287.687	15.517	875.338	656.608
288.701	15.525	874.626	656.049
289.716	15.483	874.373	655.634
290.730	15.641	873.731	655.711
291.745	15.571	872.887	654.747
292.760	15.544	872.719	654.459
293.774	15.686	872.041	654.447
294.789	15.716	871.085	653.787
295.803	15.526	870.422	652.493
296.818	15.647	869.773	652.420
297.833	15.572	869.008	651.495
298.847	15.442	868.597	650.627
299.862	15.652	868.027	650.955
300.876	15.661	867.460	650.509
301.891	15.770	866.771	650.353
302.906	15.737	866.222	649.759
303.920	15.837	865.653	649.659
304.935	15.812	865.083	649.077
305.949	15.710	864.565	648.240
306.964	15.776	863.913	647.946
307.979	15.924	863.391	648.066
308.993	15.958	862.516	647.484
310.008	15.775	862.294	646.558
311.022	15.800	861.565	646.049
312.037	15.824	860.930	645.606
313.052	15.861	860.350	645.259
314.066	15.867	859.961	644.933
315.081	15.811	859.305	644.168
316.095	15.854	858.588	643.738
317.110	15.877	858.096	643.402
318.125	16.013	857.293	643.261
319.139	15.850	857.101	642.436
320.154	15.971	856.420	642.330
321.168	15.947	855.967	641.843
322.183	15.994	855.333	641.491
323.197	15.887	855.206	640.929
324.212	16.000	854.727	640.946
325.227	15.983	853.729	640.077
326.241	16.015	853.188	639.736
327.256	16.110	852.497	639.521
328.270	16.088	851.925	638.949
329.285	16.001	851.584	638.311
330.300	16.001	850.745	637.624
331.314	16.074	850.381	637.569
332.329	16.103	849.973	637.317
333.343	16.182	849.292	637.049
334.358	16.165	849.109	636.790
335.373	16.358	848.360	636.903
336.387	16.177	848.281	636.102
337.402	16.119	848.090	635.684
338.416	16.155	847.945	635.657
339.431	16.196	847.128	635.140
340.446	16.277	846.507	634.925
341.460	16.327	846.505	635.054
342.475	16.230	846.229	634.427
343.489	16.459	845.297	634.530
344.504	16.279	844.970	633.555
345.519	16.411	844.308	633.499
346.533	16.320	843.912	632.804
347.548	16.412	843.514	632.791
348.562	16.408	843.183	632.475
349.577	16.269	842.374	631.289
350.592	16.409	841.460	631.075
351.606	16.456	840.912	630.780
352.621	16.444	840.320	630.238
353.635	16.372	840.057	629.716
354.650	16.441	839.039	629.153
355.665	16.402	838.548	628.586
356.679	16.454	838.111	628.396
357.694	16.427	837.251	627.593
358.708	16.523	836.533	627.357
359.723	16.401	836.429	626.770
360.738	16.491	835.685	626.491
361.752	16.541	835.224	626.276
362.767	16.682	834.145	625.934
363.781	16.710	833.977	625.856
364.796	16.669	833.306	625.143
365.810	16.855	832.797	625.392
366.825	16.711	832.743	624.764
367.840	16.799	832.132	624.577
368.854	16.815	831.425	624.051
369.869	16.766	831.316	623.734
370.883	16.793	830.910	623.471
371.898	16.927	830.398	623.524
372.913	16.870	830.074	623.015
373.927	16.922	829.260	622.542
374.942	16.899	829.511	622.591
375.956	16.778	829.011	621.717
376.971	16.893	828.141	621.431
377.986	16.925	828.124	621.479
379.000	16.970	827.304	620.976
380.015	16.987	826.897	620.676
381.029	16.942	826.218	619.947
382.044	16.996	825.644	619.657
383.059	17.029	824.944	619.198
384.073	17.159	824.269	619.111
385.088	17.247	823.337	618.678
386.102	17.101	823.289	618.055
387.117	17.122	822.599	617.558
388.132	17.018	822.173	616.808
389.146	16.992	821.710	616.308
390.161	17.257	821.121	616.776
391.175	17.163	820.633	616.015
392.190	17.050	820.067	615.124
393.205	16.930	820.014	614.594
394.219	17.067	819.527	614.674
395.234	16.991	819.177	614.080
396.248	16.968	818.680	613.569
397.263	17.127	817.985	613.568
398.278	16.986	817.374	612.548
399.292	17.205	817.110	613.087
400.307	17.105	816.649	612.324
401.321	17.228	816.287	612.443
402.336	17.223	815.566	611.829
403.350	17.196	815.393	611.550
404.365	17.124	815.127	611.035
405.380	17.333	814.339	611.141
406.394	17.332	813.926	610.775
407.409	17.301	813.334	610.165
408.423	17.526	812.854	610.560
409.438	17.468	812.825	610.275
410.453	17.455	812.249	609.741
411.467	17.548	811.621	609.549
412.482	17.509	811.623	609.355
413.496	17.502	811.238	608.990
414.511	17.449	810.908	608.496
415.526	17.409	810.387	607.911
416.540	17.537	809.733	607.821
417.555	17.693	809.178	607.909
418.569	17.531	809.039	607.172
419.584	17.685	808.205	607.043
420.599	17.581	807.884	606.376
421.613	112.787	1298.485	1484.740
422.628	97.392	1369.902	1484.790
