DTS Sentinel unit serial number:	SN413079Multiplexer serial number:	ORYXHardware model number:	OX4-SRSoftware version number:	ORYX F/W v4.00 Oryx Data Collector v3.7.2.0data status	okinstallation	princeton_trtdifferential loss correction	single-endedforward channel	channel 1reverse channel	N/Adate	2019/09/15time	06:58:35forward acquisition time	60.00reverse acquisition time	0.00gamma	496.2192k internal	0.2325k external	0.2325temperature offset calibration	0.9995default loss term (dB/km)	0.3790temperature slope calibration	1.0000multiplexer offset coefficient	1.0000multiplexer slope coefficient	1.0000fibre end	0.00T internal ref (°C)	30.50T ext. ref 1 (°C)	4.87T ext. ref 2 (°C)	25.57length (m)	temperature (°C)	Stokes	anti-Stokes-747.200	-38.522	-0.059	0.031
-746.185	-200.000	0.025	0.382
-745.171	-133.238	0.036	-0.005
-744.156	-65.784	-0.254	0.103
-743.142	-100.193	0.150	0.038
-742.127	65.494	0.058	-0.059
-741.112	153.128	-0.140	0.193
-740.098	800.000	-0.027	0.099
-739.083	800.000	-0.043	-0.122
-738.069	-200.000	-0.056	0.321
-737.054	800.000	-0.028	0.124
-736.039	194.424	-0.119	-0.182
-735.025	194.011	0.099	-0.151
-734.010	-200.000	0.029	-0.165
-732.996	-200.000	-0.025	0.247
-731.981	-200.000	-0.034	0.245
-730.966	-39.875	0.308	0.162
-729.952	-200.000	0.007	0.049
-728.937	800.000	-0.044	-0.166
-727.923	800.000	0.064	-0.217
-726.908	153.832	-0.027	-0.037
-725.894	-200.000	-0.004	-0.033
-724.879	-128.446	-0.049	-0.007
-723.864	32.213	-0.109	0.095
-722.850	134.891	-0.032	-0.042
-721.835	-200.000	-0.067	0.386
-720.821	-66.003	-0.279	-0.113
-719.806	758.304	0.095	-0.260
-718.791	-171.754	-0.049	-0.002
-717.777	-196.435	0.136	0.001
-716.762	282.010	0.152	-0.274
-715.748	92.855	0.123	-0.140
-714.733	-200.000	0.004	0.071
-713.718	-200.000	0.010	0.163
-712.704	15.655	-0.284	0.225
-711.689	-200.000	-0.017	-0.160
-710.675	800.000	0.012	0.045
-709.660	800.000	0.055	0.224
-708.645	-200.000	-0.059	0.290
-707.631	-51.022	0.214	-0.101
-706.616	800.000	-0.162	-0.547
-705.602	-200.000	0.029	-0.130
-704.587	-193.492	-0.186	-0.002
-703.572	207.571	0.098	0.155
-702.558	-43.110	0.058	-0.030
-701.543	-137.693	0.187	-0.021
-700.529	560.968	0.081	-0.197
-699.514	478.534	-0.132	-0.302
-698.499	339.639	0.058	-0.114
-697.485	-165.030	-0.403	-0.018
-696.470	26.075	-0.179	-0.151
-695.456	-12.162	0.227	0.150
-694.441	140.309	-0.284	-0.377
-693.426	88.017	0.149	-0.166
-692.412	56.841	-0.232	-0.227
-691.397	-37.913	0.198	-0.106
-690.383	-200.000	-0.006	-0.099
-689.368	64.366	-0.069	0.070
-688.354	-200.000	-0.011	0.212
-687.339	44.071	0.091	0.084
-686.324	438.068	-0.135	0.296
-685.310	-119.884	-0.152	0.026
-684.295	800.000	-0.029	-0.099
-683.281	-32.090	-0.147	-0.083
-682.266	467.915	-0.121	0.273
-681.251	800.000	0.058	-0.221
-680.237	22.436	-0.291	-0.239
-679.222	-200.000	0.005	0.113
-678.208	309.236	-0.128	-0.240
-677.193	-82.052	-0.218	-0.072
-676.178	-200.000	-0.055	-0.316
-675.164	-95.643	-0.112	0.030
-674.149	-55.509	-0.286	-0.129
-673.135	300.363	-0.053	0.098
-672.120	-113.036	0.276	0.055
-671.105	-32.002	-0.298	-0.168
-670.091	-49.399	0.054	-0.026
-669.076	-200.000	0.018	-0.307
-668.062	23.942	-0.145	0.120
-667.047	-200.000	-0.020	0.091
-666.032	-200.000	-0.004	-0.144
-665.018	291.097	-0.135	-0.246
-664.003	-200.000	-0.024	-0.154
-662.989	-141.528	0.069	0.007
-661.974	-200.000	-0.007	0.051
-660.959	-18.698	-0.089	-0.056
-659.945	22.572	0.111	-0.092
-658.930	-200.000	0.034	-0.195
-657.916	528.644	-0.089	-0.211
-656.901	-60.182	0.192	-0.082
-655.886	29.468	0.043	0.037
-654.872	-154.194	-0.172	-0.012
-653.857	243.555	-0.117	-0.197
-652.843	-31.794	0.069	0.039
-651.828	20.518	-0.124	0.101
-650.814	-200.000	-0.021	0.118
-649.799	164.463	0.175	0.248
-648.784	751.935	-0.122	-0.331
-647.770	602.242	-0.070	-0.175
-646.755	-200.000	0.036	-0.347
-645.741	159.044	-0.070	0.097
-644.726	-200.000	-0.012	0.133
-643.711	-27.982	-0.445	-0.259
-642.697	-121.678	0.294	-0.049
-641.682	-60.991	-0.211	-0.090
-640.668	-147.765	-0.117	0.010
-639.653	466.521	0.050	-0.113
-638.638	586.565	-0.072	0.178
-637.624	564.716	-0.065	-0.159
-636.609	-200.000	0.049	-0.314
-635.595	-28.504	0.077	0.045
-634.580	-200.000	-0.061	0.271
-633.565	55.887	0.096	0.093
-632.551	-171.470	-0.079	-0.003
-631.536	-55.395	0.350	-0.158
-630.522	800.000	-0.065	-0.265
-629.507	-48.708	0.190	-0.091
-628.492	304.150	-0.111	0.207
-627.478	-40.394	0.105	-0.055
-626.463	59.675	0.078	-0.077
-625.449	212.071	-0.125	-0.197
-624.434	11.747	-0.097	0.075
-623.419	20.439	-0.071	-0.057
-622.405	-113.630	0.115	0.023
-621.390	-54.916	0.130	-0.059
-620.376	-24.312	0.181	0.109
-619.361	-88.041	-0.369	0.111
-618.346	50.624	0.232	-0.221
-617.332	-102.272	-0.310	-0.075
-616.317	70.052	-0.194	0.202
-615.303	-89.329	0.066	0.020
-614.288	-117.531	-0.498	0.090
-613.273	-57.218	0.060	0.027
-612.259	800.000	0.137	-0.423
-611.244	-132.202	-0.122	-0.016
-610.230	800.000	0.095	-0.288
-609.215	27.141	0.064	0.054
-608.201	-119.456	-0.321	0.056
-607.186	23.852	-0.158	-0.131
-606.171	-60.315	0.253	-0.108
-605.157	-200.000	-0.024	-0.244
-604.142	800.000	-0.025	0.087
-603.128	329.400	-0.068	0.131
-602.113	-78.569	0.326	-0.112
-601.098	450.244	-0.102	0.225
-600.084	-136.587	0.176	-0.020
-599.069	39.519	0.117	-0.106
-598.055	-200.000	-0.074	0.414
-597.040	800.000	0.032	-0.117
-596.025	-111.712	0.064	-0.013
-595.011	-31.757	0.172	0.097
-593.996	36.409	-0.118	0.104
-592.982	-200.000	-0.006	0.137
-591.967	-75.057	0.303	0.109
-590.952	115.161	0.288	-0.352
-589.938	4.477	-0.092	-0.067
-588.923	445.525	-0.166	0.367
-587.909	-200.000	-0.021	0.472
-586.894	393.630	0.126	-0.264
-585.879	-13.239	0.092	-0.060
-584.865	543.416	0.073	-0.174
-583.850	-102.361	0.098	0.024
-582.836	169.559	-0.084	0.120
-581.821	800.000	0.006	-0.019
-580.806	-161.567	0.139	0.007
-579.792	30.486	-0.107	0.092
-578.777	-200.000	0.048	0.227
-577.763	53.158	0.235	0.226
-576.748	-175.597	-0.411	0.011
-575.733	-69.910	0.204	0.078
-574.719	-4.007	0.370	0.257
-573.704	464.545	0.084	-0.189
-572.690	-200.000	0.009	-0.342
-571.675	800.000	-0.129	-0.388
-570.661	-102.181	0.074	-0.018
-569.646	800.000	-0.071	0.278
-568.631	204.678	-0.090	-0.140
-567.617	-200.000	-0.038	0.233
-566.602	800.000	-0.038	-0.111
-565.588	207.671	0.090	-0.141
-564.573	-85.973	0.182	0.056
-563.558	58.960	-0.218	0.215
-562.544	-111.199	-0.211	0.043
-561.529	-64.148	0.272	-0.111
-560.515	-39.311	-0.025	0.013
-559.500	-200.000	0.064	-0.504
-558.485	-31.031	0.211	-0.120
-557.471	468.708	0.179	-0.402
-556.456	-200.000	0.007	-0.108
-555.442	716.107	0.063	-0.168
-554.427	92.083	0.220	-0.248
-553.412	-106.023	0.186	-0.042
-552.398	-21.256	-0.105	-0.065
-551.383	800.000	-0.041	0.175
-550.369	369.006	-0.157	-0.317
-549.354	-200.000	0.018	0.128
-548.339	271.034	0.051	-0.091
-547.325	-169.799	-0.339	0.012
-546.310	-94.894	0.217	-0.059
-545.296	-34.031	-0.120	0.066
-544.281	-43.865	0.052	0.026
-543.266	-128.917	-0.111	-0.016
-542.252	-130.382	0.146	0.020
-541.237	-200.000	0.042	0.187
-540.223	127.626	0.092	-0.117
-539.208	180.210	0.146	0.215
-538.193	-82.665	-0.250	0.081
-537.179	60.252	0.138	0.136
-536.164	-183.674	0.088	0.001
-535.150	14.197	0.125	-0.097
-534.135	-200.000	0.041	0.302
-533.121	800.000	0.031	0.125
-532.106	-200.000	-0.007	-0.057
-531.091	-43.765	-0.199	0.100
-530.077	-200.000	0.038	-0.330
-529.062	-6.198	-0.124	-0.085
-528.048	-200.000	0.070	0.386
-527.033	800.000	0.108	0.307
-526.018	-36.590	-0.093	0.050
-525.004	-63.846	0.146	-0.060
-523.989	-171.501	-0.196	-0.007
-522.975	800.000	0.047	0.175
-521.960	353.336	0.142	0.281
-520.945	-51.634	0.309	0.144
-519.931	-157.220	0.096	0.006
-518.916	-42.346	0.050	0.026
-517.902	-200.000	-0.014	-0.218
-516.887	-14.346	0.448	0.289
-515.872	-79.664	-0.313	0.106
-514.858	218.747	0.056	-0.090
-513.843	-72.144	0.326	-0.121
-512.829	98.959	0.097	0.112
-511.814	184.979	-0.129	-0.191
-510.799	132.537	-0.211	0.272
-509.785	-59.248	0.090	-0.039
-508.770	-55.195	-0.223	0.100
-507.756	472.644	0.049	-0.111
-506.741	-83.666	0.203	-0.065
-505.726	-31.824	-0.213	-0.119
-504.712	-200.000	0.012	-0.289
-503.697	343.615	0.109	0.214
-502.683	-55.239	-0.284	0.128
-501.668	231.144	-0.087	0.142
-500.653	800.000	-0.061	0.253
-499.639	-77.415	0.270	-0.094
-498.624	-200.000	0.015	-0.385
-497.610	-83.158	-0.005	0.002
-496.595	-200.000	0.010	-0.377
-495.581	-24.297	0.196	0.117
-494.566	-20.497	0.119	-0.073
-493.551	36.194	-0.057	-0.050
-492.537	-119.337	-0.429	0.075
-491.522	-200.000	0.001	0.086
-490.508	-200.000	0.022	0.100
-489.493	-96.387	-0.120	-0.032
-488.478	-200.000	-0.013	0.095
-487.464	-200.000	0.001	-0.204
-486.449	-100.239	0.069	0.017
-485.435	-34.599	-0.339	0.185
-484.420	-14.966	-0.137	0.088
-483.405	-56.335	-0.226	0.101
-482.391	-200.000	-0.043	0.213
-481.376	20.306	0.154	0.124
-480.362	-200.000	-0.019	0.104
-479.347	128.844	0.124	-0.159
-478.332	252.308	-0.053	0.090
-477.318	2.366	0.049	0.035
-476.303	-61.915	-0.041	0.017
-475.289	46.302	-0.103	0.095
-474.274	165.555	0.174	-0.246
-473.259	-200.000	-0.032	-0.316
-472.245	800.000	-0.049	-0.160
-471.230	-45.748	0.202	-0.100
-470.216	-54.680	0.311	-0.141
-469.201	345.744	-0.074	0.146
-468.186	-8.270	0.294	-0.197
-467.172	-90.513	0.106	0.031
-466.157	-200.000	0.022	0.125
-465.143	54.457	0.161	-0.155
-464.128	-122.716	0.204	-0.033
-463.113	-135.752	-0.226	0.027
-462.099	-16.981	-0.237	0.150
-461.084	800.000	-0.065	0.256
-460.070	383.913	0.045	0.092
-459.055	-102.172	-0.176	0.042
-458.040	117.686	0.243	-0.299
-457.026	-200.000	-0.006	0.328
-456.011	-200.000	0.035	-0.201
-454.997	800.000	-0.035	-0.144
-453.982	120.828	-0.084	0.105
-452.968	197.891	-0.210	0.320
-451.953	212.888	-0.104	0.163
-450.938	800.000	-0.101	-0.334
-449.924	-20.855	0.101	-0.062
-448.909	727.211	-0.024	-0.064
-447.895	-45.011	-0.177	-0.088
-446.880	-133.465	0.130	-0.016
-445.865	167.847	0.068	0.097
-444.851	-200.000	0.025	-0.276
-443.836	-6.734	-0.239	0.162
-442.822	227.440	-0.043	-0.069
-441.807	35.876	0.150	-0.131
-440.792	160.287	0.152	0.211
-439.778	-24.885	-0.175	0.104
-438.763	114.084	-0.073	-0.089
-437.749	584.133	0.096	-0.235
-436.734	-200.000	0.004	-0.102
-435.719	800.000	0.111	-0.385
-434.705	93.182	0.060	-0.068
-433.690	-26.851	0.274	-0.160
-432.676	-111.472	0.101	-0.020
-431.661	-200.000	-0.004	-0.158
-430.646	465.998	-0.090	0.201
-429.632	107.139	0.052	-0.061
-428.617	608.686	0.130	-0.322
-427.603	139.419	0.036	0.047
-426.588	67.365	0.336	0.342
-425.573	-28.779	0.264	0.151
-424.559	-200.000	-0.002	-0.181
-423.544	114.525	0.158	-0.191
-422.530	-84.289	0.040	0.012
-421.515	-20.509	0.069	0.043
-420.500	800.000	-0.046	-0.140
-419.486	125.655	-0.114	0.144
-418.471	-17.733	-0.280	0.175
-417.457	-17.101	-0.110	-0.069
-416.442	-79.687	0.452	0.152
-415.428	263.817	0.253	0.438
-414.413	-43.111	-0.192	0.097
-413.398	-11.130	-0.112	-0.074
-412.384	-74.114	-0.100	-0.036
-411.369	170.192	0.049	-0.070
-410.355	-200.000	0.002	0.082
-409.340	-74.165	-0.085	-0.031
-408.325	-51.906	-0.278	-0.129
-407.311	-69.593	0.024	0.009
-406.296	-200.000	0.027	-0.142
-405.282	111.894	0.185	0.223
-404.267	-200.000	-0.025	0.143
-403.252	387.564	0.121	-0.248
-402.238	-200.000	0.001	-0.321
-401.223	7.794	0.101	0.075
-400.209	-118.953	-0.328	-0.057
-399.194	-114.800	0.306	0.058
-398.179	-108.435	-0.279	-0.060
-397.165	170.409	-0.102	-0.145
-396.150	-29.957	-0.122	-0.069
-395.136	198.080	-0.132	0.200
-394.121	123.545	0.049	-0.061
-393.106	-200.000	-0.001	-0.285
-392.092	253.348	-0.141	0.240
-391.077	-190.133	-0.238	-0.003
-390.063	169.857	-0.071	0.102
-389.048	491.181	0.064	-0.147
-388.033	-200.000	0.037	0.242
-387.019	-102.847	0.361	-0.085
-386.004	-200.000	0.016	-0.207
-384.990	14.362	-0.113	-0.088
-383.975	255.024	0.061	0.103
-382.960	-102.453	-0.327	-0.078
-381.946	140.289	-0.073	-0.096
-380.931	800.000	-0.131	-0.441
-379.917	-110.992	-0.115	0.023
-378.902	-7.747	-0.264	-0.177
-377.888	-200.000	-0.022	0.277
-376.873	406.140	-0.073	0.154
-375.858	84.616	0.266	-0.290
-374.844	715.745	0.137	-0.362
-373.829	-84.776	0.029	0.009
-372.815	-170.049	0.194	0.007
-371.800	-149.651	0.064	-0.005
-370.785	109.415	0.080	0.095
-369.771	228.610	0.069	-0.112
-368.756	800.000	0.049	-0.146
-367.742	-164.644	0.050	0.002
-366.727	261.165	-0.163	-0.280
-365.712	781.537	0.051	0.140
-364.698	-118.635	-0.184	0.032
-363.683	298.573	0.074	0.135
-362.669	528.339	0.009	0.021
-361.654	785.985	-0.118	-0.322
-360.639	800.000	-0.016	-0.062
-359.625	-61.829	-0.274	-0.114
-358.610	-90.308	0.216	0.062
-357.596	-23.745	-0.306	0.182
-356.581	-200.000	-0.010	-0.346
-355.566	-200.000	-0.016	0.155
-354.552	-111.688	-0.134	0.027
-353.537	-89.801	0.514	-0.149
-352.523	216.132	0.044	-0.070
-351.508	800.000	-0.078	0.214
-350.493	482.492	0.098	-0.222
-349.479	-7.621	-0.163	0.110
-348.464	-170.680	0.241	-0.008
-347.450	62.637	0.213	-0.212
-346.435	-200.000	0.012	-0.181
-345.420	-91.196	-0.183	0.052
-344.406	-120.251	0.177	-0.030
-343.391	702.024	0.040	-0.105
-342.377	-163.804	-0.289	-0.013
-341.362	-18.646	-0.160	0.099
-340.348	57.154	0.187	0.181
-339.333	-0.706	0.110	0.077
-338.318	-3.382	-0.215	0.149
-337.304	161.811	0.058	-0.080
-336.289	-22.124	-0.248	0.149
-335.275	-200.000	0.006	-0.052
-334.260	31.980	0.053	0.045
-333.245	-5.769	0.189	-0.128
-332.231	109.704	-0.142	0.169
-331.216	-200.000	-0.054	0.338
-330.202	30.809	-0.049	0.042
-329.187	56.254	0.144	0.139
-328.172	-200.000	0.046	-0.286
-327.158	-41.690	0.055	-0.028
-326.143	50.639	0.117	-0.110
-325.129	-96.622	0.153	0.040
-324.114	-27.666	-0.275	0.159
-323.099	-88.897	0.161	0.048
-322.085	-146.474	-0.370	-0.032
-321.070	-46.798	0.221	-0.107
-320.056	87.840	-0.163	0.179
-319.041	89.653	0.195	0.216
-318.026	-200.000	-0.178	0.000
-317.012	53.788	-0.220	0.210
-315.997	800.000	0.026	-0.080
-314.983	22.228	0.123	0.100
-313.968	75.205	0.080	0.083
-312.953	800.000	0.104	0.325
-311.939	-200.000	-0.082	0.381
-310.924	-5.060	-0.136	-0.093
-309.910	15.269	-0.099	-0.077
-308.895	-97.373	-0.152	-0.039
-307.880	304.198	0.059	-0.108
-306.866	-112.417	-0.162	0.032
-305.851	800.000	-0.073	0.285
-304.837	-102.485	0.209	0.050
-303.822	-94.143	0.164	-0.045
-302.807	90.071	-0.047	-0.052
-301.793	173.082	-0.045	-0.064
-300.778	-87.782	-0.328	0.098
-299.764	-109.270	0.066	0.014
-298.749	-152.620	0.184	-0.013
-297.735	-200.000	0.006	-0.036
-296.720	109.204	0.278	-0.330
-295.705	-60.378	0.073	-0.031
-294.691	-137.622	-0.346	0.039
-293.676	800.000	-0.031	0.096
-292.662	28.790	0.223	-0.187
-291.647	31.193	-0.080	-0.068
-290.632	12.807	-0.180	-0.138
-289.618	-56.147	-0.171	0.075
-288.603	-111.792	0.203	-0.041
-287.589	-200.000	-0.009	0.082
-286.574	-125.608	-0.126	-0.019
-285.559	-149.934	-0.352	0.027
-284.545	-119.324	-0.131	-0.023
-283.530	800.000	-0.041	-0.143
-282.516	27.356	0.135	0.113
-281.501	-56.318	-0.424	-0.187
-280.486	-142.368	-0.203	-0.020
-279.472	-38.382	0.261	0.137
-278.457	388.029	-0.110	0.225
-277.443	32.207	-0.084	0.072
-276.428	-121.654	0.223	0.037
-275.413	-138.084	-0.110	-0.012
-274.399	161.932	0.019	0.027
-273.384	-65.792	-0.215	0.085
-272.370	-134.567	-0.325	-0.039
-271.355	-200.000	0.005	-0.391
-270.340	64.959	0.142	-0.142
-269.326	98.091	0.173	-0.197
-268.311	-200.000	0.036	0.243
-267.297	25.289	0.210	-0.173
-266.282	195.046	0.121	-0.182
-265.267	800.000	0.047	0.164
-264.253	800.000	-0.081	0.284
-263.238	10.776	0.252	-0.191
-262.224	-158.988	-0.156	0.009
-261.209	-137.053	-0.086	0.010
-260.195	-67.528	0.040	-0.015
-259.180	-200.000	-0.017	-0.117
-258.165	323.034	0.030	0.057
-257.151	-200.000	0.040	0.228
-256.136	299.006	-0.133	0.242
-255.122	-147.327	-0.410	0.034
-254.107	-48.541	-0.133	-0.064
-253.092	201.815	0.084	0.128
-252.078	-100.318	0.250	0.061
-251.063	-89.187	-0.171	0.050
-250.049	7.036	-0.211	-0.155
-249.034	-90.801	-0.249	-0.071
-248.019	-78.117	0.169	0.058
-247.005	-132.608	-0.177	-0.023
-245.990	-132.071	-0.369	-0.047
-244.976	-200.000	0.132	-0.001
-243.961	-20.555	-0.261	0.159
-242.946	-133.285	-0.242	0.030
-241.932	638.578	0.027	0.067
-240.917	-200.000	-0.011	-0.129
-239.903	382.689	-0.160	0.325
-238.888	-11.493	0.096	0.063
-237.873	16.269	0.251	0.196
-236.859	9.368	-0.343	0.256
-235.844	-82.897	-0.178	0.057
-234.830	-0.506	0.110	0.077
-233.815	-128.890	-0.149	0.021
-232.800	-200.000	0.038	-0.181
-231.786	-64.492	0.277	-0.111
-230.771	109.915	0.042	-0.049
-229.757	-200.000	-0.004	0.128
-228.742	-34.698	-0.243	0.132
-227.727	-89.602	0.213	-0.062
-226.713	-200.000	0.002	-0.011
-225.698	192.792	-0.304	0.454
-224.684	-6.348	0.332	-0.224
-223.669	-200.000	-0.020	-0.173
-222.655	-2.194	0.147	-0.102
-221.640	190.598	-0.110	-0.164
-220.625	-80.182	-0.120	-0.040
-219.611	-137.195	0.150	-0.017
-218.596	53.335	0.175	-0.165
-217.582	162.698	-0.055	-0.076
-216.567	107.988	0.056	0.066
-215.552	-32.088	0.252	-0.139
-214.538	327.594	0.087	-0.166
-213.523	-50.846	0.102	0.047
-212.509	56.153	0.058	-0.055
-211.494	280.394	-0.161	0.284
-210.479	-25.199	-0.094	-0.055
-209.465	584.127	-0.096	0.232
-208.450	800.000	0.020	-0.056
-207.436	147.488	0.068	-0.091
-206.421	-72.917	-0.153	0.055
-205.406	800.000	0.042	-0.128
-204.392	800.000	-0.044	-0.134
-203.377	-21.323	-0.110	0.067
-202.363	69.082	0.371	0.377
-201.348	373.169	0.068	0.137
-200.333	-17.494	-0.145	-0.090
-199.319	681.081	0.077	-0.198
-198.304	-37.317	0.202	-0.107
-197.290	-127.165	0.297	0.043
-196.275	17.272	0.096	-0.075
-195.260	129.764	-0.088	-0.111
-194.246	-200.000	0.040	0.216
-193.231	-200.000	-0.020	0.165
-192.217	405.471	0.133	0.278
-191.202	-200.000	0.003	0.093
-190.187	-17.535	0.252	0.156
-189.173	-81.016	-0.162	-0.053
-188.158	-95.655	-0.017	0.004
-187.144	30.355	0.199	-0.168
-186.129	800.000	0.044	0.179
-185.114	800.000	-0.018	-0.074
-184.100	84.446	-0.196	0.212
-183.085	-141.144	0.300	-0.030
-182.071	226.480	0.071	-0.114
-181.056	800.000	0.139	-0.384
-180.042	-130.379	-0.281	-0.038
-179.027	72.508	0.276	0.284
-178.012	-200.000	-0.005	0.081
-176.998	800.000	-0.090	0.321
-175.983	-200.000	0.010	0.236
-174.969	-166.194	-0.139	0.006
-173.954	11.218	-0.120	-0.091
-172.939	384.006	0.184	-0.373
-171.925	-200.000	-0.039	0.226
-170.910	12.312	-0.233	-0.177
-169.896	-7.725	0.105	0.070
-168.881	35.637	0.177	0.153
-167.866	62.108	-0.357	0.351
-166.852	54.242	-0.202	-0.192
-165.837	630.527	-0.073	0.182
-164.823	342.620	0.127	0.245
-163.808	-200.000	-0.003	-0.174
-162.793	280.174	0.066	-0.116
-161.779	-90.660	-0.094	-0.027
-160.764	-81.757	0.173	-0.056
-159.750	-98.144	0.230	0.058
-158.735	54.269	-0.231	-0.219
-157.720	4.425	-0.059	0.043
-156.706	-200.000	0.003	0.249
-155.691	-15.275	-0.245	0.155
-154.677	-154.716	-0.116	0.008
-153.662	-25.872	0.066	0.038
-152.647	73.956	0.141	0.145
-151.633	243.841	-0.211	0.349
-150.618	-114.330	-0.160	0.030
-149.604	-97.176	0.066	-0.017
-148.589	1.787	0.089	-0.063
-147.574	-38.147	-0.080	-0.042
-146.560	542.218	0.174	-0.408
-145.545	-170.715	0.185	0.006
-144.531	190.380	0.176	0.260
-143.516	-200.000	-0.060	0.426
-142.502	800.000	-0.117	-0.358
-141.487	213.751	-0.051	0.080
-140.472	158.519	-0.064	0.088
-139.458	-138.534	0.085	0.009
-138.443	93.878	-0.026	0.029
-137.429	63.857	0.042	-0.041
-136.414	540.073	-0.193	0.453
-135.399	-2.098	0.132	0.091
-134.385	-143.471	-0.066	-0.006
-133.370	10.525	0.176	0.132
-132.356	-79.275	0.313	0.104
-131.341	-200.000	0.007	-0.043
-130.326	-200.000	-0.044	-0.260
-129.312	-72.544	0.045	0.016
-128.297	100.960	-0.040	0.046
-127.283	-1.385	-0.089	0.062
-126.268	-200.000	-0.012	0.091
-125.253	277.841	0.080	-0.140
-124.239	-80.871	-0.093	0.030
-123.224	34.391	0.081	-0.070
-122.210	800.000	-0.109	-0.376
-121.195	-200.000	-0.011	-0.125
-120.180	-200.000	-0.063	-0.311
-119.166	-21.353	-0.059	-0.036
-118.151	-42.055	0.179	0.090
-117.137	-200.000	-0.047	0.267
-116.122	157.924	0.075	0.102
-115.107	-136.430	-0.500	-0.057
-114.093	-86.539	0.315	0.095
-113.078	68.838	0.242	0.245
-112.064	82.410	-0.125	0.133
-111.049	19.024	0.142	-0.112
-110.034	-27.562	-0.184	-0.105
-109.020	-134.382	-0.236	0.029
-108.005	-109.704	0.046	-0.009
-106.991	-200.000	0.052	-0.549
-105.976	-148.714	0.119	0.010
-104.962	39.225	0.310	0.273
-103.947	78.531	0.202	0.213
-102.932	152.647	0.033	-0.045
-101.918	19.042	0.160	0.126
-100.903	82.817	0.214	-0.228
-99.889	47.544	-0.107	0.098
-98.874	-200.000	0.024	0.164
-97.859	-112.948	0.158	0.031
-96.845	99.857	0.079	0.091
-95.830	99.886	-0.101	-0.115
-94.816	-55.788	0.153	-0.067
-93.801	-116.192	0.320	0.058
-92.786	-125.035	-0.402	-0.061
-91.772	-155.719	-0.295	0.019
-90.757	-183.437	0.171	-0.003
-89.743	-134.632	-0.131	-0.016
-88.728	86.719	0.150	-0.163
-87.713	-200.000	-0.018	0.258
-86.699	-53.413	-0.278	0.125
-85.684	-88.041	0.061	0.018
-84.670	-52.252	0.281	0.128
-83.655	-34.138	-0.067	0.036
-82.640	-200.000	-0.005	-0.234
-81.626	21.690	0.115	0.092
-80.611	-21.977	-0.316	0.189
-79.597	-85.011	-0.239	0.074
-78.582	24.093	-0.317	-0.258
-77.567	200.645	0.213	-0.322
-76.553	363.117	0.146	0.287
-75.538	-140.104	-0.291	-0.030
-74.524	224.567	-0.080	-0.127
-73.509	800.000	0.048	-0.179
-72.494	-73.459	0.101	0.036
-71.480	-113.572	-0.323	-0.062
-70.465	591.556	-0.175	0.424
-69.451	228.548	0.225	0.361
-68.436	-200.000	0.049	0.228
-67.422	800.000	-0.041	0.117
-66.407	-104.648	0.132	-0.030
-65.392	165.965	0.036	-0.050
-64.378	-72.917	0.207	-0.075
-63.363	800.000	0.088	-0.306
-62.349	-43.649	0.245	-0.122
-61.334	-14.043	-0.973	-0.617
-60.319	30.917	0.583	0.491
-59.305	391.100	-0.539	-1.100
-58.290	137.538	0.851	1.094
-57.276	800.000	0.499	1.709
-56.261	-200.000	103.083	596.589
-55.246	561.509	1437.975	3415.629
-54.232	186.508	2627.051	3841.735
-53.217	117.888	2147.964	2598.942
-52.203	42.549	1593.731	1424.460
-51.188	33.910	1328.994	1136.407
-50.173	30.844	1287.010	1082.672
-49.159	54.811	1339.061	1269.130
-48.144	55.944	1354.935	1290.828
-47.130	34.190	1311.219	1122.685
-46.115	30.605	1293.430	1086.506
-45.100	30.380	1288.762	1081.233
-44.086	30.468	1285.596	1079.041
-43.071	30.465	1283.499	1077.226
-42.057	30.388	1281.284	1074.875
-41.042	30.411	1279.555	1073.516
-40.027	30.396	1278.821	1072.770
-39.013	30.401	1276.548	1070.847
-37.998	30.502	1274.751	1069.880
-36.984	30.592	1272.877	1068.786
-35.969	30.508	1271.448	1067.060
-34.954	30.516	1270.269	1066.074
-33.940	30.432	1268.686	1064.223
-32.925	30.493	1267.229	1063.304
-31.911	30.661	1265.368	1062.661
-30.896	30.685	1264.116	1061.707
-29.881	30.676	1262.572	1060.314
-28.867	30.666	1261.274	1059.128
-27.852	30.634	1260.179	1057.982
-26.838	30.630	1259.033	1056.954
-25.823	30.657	1256.919	1055.290
-24.809	30.551	1255.950	1053.838
-23.794	30.628	1254.930	1053.376
-22.779	30.704	1253.091	1052.219
-21.765	30.650	1251.825	1050.810
-20.750	30.586	1250.781	1049.532
-19.736	30.400	1250.007	1047.791
-18.721	30.464	1248.568	1046.901
-17.706	30.375	1247.461	1045.432
-16.692	30.565	1245.675	1044.960
-15.677	30.395	1245.044	1043.436
-14.663	30.415	1243.983	1042.618
-13.648	30.460	1242.952	1041.964
-12.633	30.446	1241.873	1040.941
-11.619	30.440	1241.237	1040.330
-10.604	30.396	1240.280	1039.243
-9.590	30.378	1239.523	1038.468
-8.575	30.270	1238.277	1036.777
-7.560	30.292	1237.629	1036.315
-6.546	30.383	1236.471	1035.813
-5.531	30.376	1235.612	1035.013
-4.517	30.429	1235.013	1034.764
-3.502	30.411	1234.195	1033.939
-2.487	30.398	1233.201	1032.995
-1.473	30.463	1228.936	1029.742
-0.458	29.096	1214.214	1009.871
0.556	24.545	1197.550	973.286
1.571	20.985	1202.935	958.052
2.586	20.051	1217.897	964.683
3.600	19.705	1206.789	953.887
4.615	15.154	1137.345	875.196
5.629	8.097	1065.531	785.206
6.644	5.027	1047.442	756.925
7.659	4.868	1044.560	754.006
8.673	4.763	1043.726	752.829
9.688	4.812	1041.880	751.670
10.702	4.855	1040.742	750.989
11.717	9.062	1045.797	774.914
12.731	15.863	1055.434	815.023
13.746	18.619	1058.312	830.532
14.761	18.097	1057.033	826.930
15.775	17.032	1054.920	820.063
16.790	15.954	1052.657	813.029
17.804	15.279	1051.176	808.558
18.819	14.848	1050.136	805.612
19.834	14.662	1049.417	804.090
20.848	14.455	1048.664	802.449
21.863	14.231	1047.847	800.673
22.877	14.120	1046.863	799.316
23.892	14.091	1046.398	798.753
24.907	14.028	1045.205	797.468
25.921	14.048	1044.438	796.908
26.936	14.073	1043.060	795.905
27.950	14.264	1041.585	795.626
28.965	14.290	1039.974	794.449
29.980	14.250	1038.910	793.374
30.994	14.326	1037.965	792.944
32.009	14.291	1036.898	791.892
33.023	14.423	1035.911	791.696
34.038	14.366	1034.649	790.391
35.053	14.216	1033.784	788.947
36.067	14.233	1032.976	788.343
37.082	14.289	1032.426	788.116
38.096	14.277	1031.662	787.409
39.111	14.210	1031.278	786.728
40.126	14.196	1029.506	785.242
41.140	13.914	1028.543	783.108
42.155	13.931	1027.059	781.989
43.169	13.972	1025.946	781.264
44.184	13.946	1025.611	780.819
45.199	14.070	1024.221	780.273
46.213	14.093	1023.189	779.525
47.228	14.147	1022.039	778.835
48.242	14.262	1020.663	778.252
49.257	14.114	1020.084	777.052
50.271	14.259	1019.039	776.864
51.286	14.178	1018.964	776.358
52.301	14.194	1017.460	775.220
53.315	14.223	1015.817	774.036
54.330	14.162	1015.274	773.270
55.344	14.102	1014.701	772.486
56.359	14.102	1013.716	771.664
57.374	14.082	1012.642	770.689
58.388	14.025	1012.095	769.938
59.403	14.089	1010.970	769.311
60.417	13.994	1010.213	768.228
61.432	13.826	1010.040	767.250
62.447	13.935	1008.778	766.730
63.461	13.819	1007.881	765.445
64.476	13.865	1007.067	764.969
65.490	14.028	1006.011	764.853
66.505	13.909	1005.589	763.916
67.520	13.864	1005.081	763.253
68.534	13.935	1004.294	762.914
69.549	13.999	1003.348	762.424
70.563	13.900	1002.393	761.177
71.578	13.791	1002.016	760.322
72.593	13.823	1001.256	759.824
73.607	13.887	999.761	758.917
74.622	13.845	999.413	758.395
75.636	13.781	999.264	757.922
76.651	13.868	998.540	757.699
77.666	13.847	997.840	757.007
78.680	13.831	997.213	756.391
79.695	13.869	996.704	756.112
80.709	13.931	996.287	756.014
81.724	13.988	995.523	755.625
82.739	14.080	994.995	755.575
83.753	14.122	993.938	754.894
84.768	14.280	993.089	754.898
85.782	14.328	992.138	754.328
86.797	14.354	991.345	753.776
87.812	14.217	990.395	752.367
88.826	14.073	989.564	751.021
89.841	14.298	988.880	751.451
90.855	14.296	987.869	750.605
91.870	14.302	987.462	750.258
92.884	14.324	986.215	749.342
93.899	14.427	985.191	748.963
94.914	14.331	984.782	748.153
95.928	14.320	983.985	747.431
96.943	14.363	982.597	746.503
97.957	14.328	981.774	745.656
98.972	14.341	981.112	745.146
99.987	14.315	980.137	744.222
101.001	14.329	979.202	743.508
102.016	14.320	978.405	742.797
103.030	14.296	977.688	742.080
104.045	14.225	977.071	741.230
105.060	14.359	976.044	740.980
106.074	14.127	975.034	739.118
107.089	13.940	974.216	737.602
108.103	13.953	973.545	737.088
109.118	14.099	972.390	736.794
110.133	13.960	971.446	735.401
111.147	14.080	970.433	735.098
112.162	14.106	969.428	734.385
113.176	14.028	969.488	734.022
114.191	14.219	968.081	733.736
115.206	14.183	967.203	732.844
116.220	14.097	966.650	731.985
117.235	14.107	965.989	731.462
118.249	14.101	965.222	730.791
119.264	14.153	964.173	730.160
120.279	14.111	963.598	729.475
121.293	13.991	962.910	728.364
122.308	14.016	961.683	727.481
123.322	14.056	960.949	727.036
124.337	13.897	960.004	725.564
125.352	14.084	958.841	725.436
126.366	14.003	957.897	724.302
127.381	14.180	956.590	724.021
128.395	13.956	956.295	722.760
129.410	14.055	955.304	722.378
130.424	14.044	954.544	721.690
131.439	14.119	953.554	721.202
132.454	14.192	952.937	720.990
133.468	14.115	952.321	720.124
134.483	14.078	951.615	719.369
135.497	14.195	950.602	719.043
136.512	14.086	949.909	717.987
137.527	14.189	949.016	717.693
138.541	14.302	948.360	717.618
139.556	14.441	947.167	717.252
140.570	14.379	946.939	716.749
141.585	14.440	946.464	716.588
142.600	14.415	945.349	715.572
143.614	14.429	944.463	714.900
144.629	14.491	943.937	714.705
145.643	14.424	942.546	713.299
146.658	14.354	941.625	712.240
147.673	14.201	941.296	711.275
148.687	14.092	940.316	710.005
149.702	14.204	939.217	709.592
150.716	14.257	938.401	709.137
151.731	14.181	938.276	708.657
152.746	14.238	937.161	707.994
153.760	14.307	936.642	707.833
154.775	14.416	936.104	707.827
155.789	14.388	935.343	707.072
156.804	14.464	934.616	706.781
157.819	14.532	933.857	706.429
158.833	14.523	933.495	706.059
159.848	14.601	932.655	705.687
160.862	14.487	931.888	704.565
161.877	14.246	931.139	702.918
162.892	14.275	929.560	701.787
163.906	14.375	928.487	701.337
164.921	14.314	927.826	700.518
165.935	14.354	927.190	700.141
166.950	14.465	926.368	699.927
167.964	14.453	925.192	698.928
168.979	14.275	924.664	697.719
169.994	14.410	923.479	697.327
171.008	14.433	923.394	697.299
172.023	14.382	922.464	696.322
173.037	14.497	921.785	696.226
174.052	14.551	920.801	695.648
175.067	14.438	920.133	694.610
176.081	14.442	919.690	694.233
177.096	14.311	919.444	693.441
178.110	14.407	918.576	693.122
179.125	14.414	917.971	692.634
180.140	14.578	917.398	692.822
181.154	14.630	917.218	692.840
182.169	14.689	916.240	692.285
183.183	14.557	915.822	691.361
184.198	14.729	914.744	691.199
185.213	14.744	914.139	690.741
186.227	14.597	914.236	690.145
187.242	14.795	913.024	689.989
188.256	14.774	912.357	689.335
189.271	14.769	911.699	688.757
190.286	14.578	911.020	687.395
191.300	14.351	910.259	685.826
192.315	14.477	909.528	685.733
193.329	14.419	909.075	685.093
194.344	14.518	908.622	685.098
195.359	14.689	907.730	685.067
196.373	14.658	907.292	684.548
197.388	14.726	907.216	684.707
198.402	14.902	906.314	684.687
199.417	14.911	905.757	684.243
200.432	15.019	905.260	684.251
201.446	14.983	905.172	683.973
202.461	15.137	904.219	683.821
203.475	14.986	903.859	682.873
204.490	15.118	902.391	682.243
205.504	14.884	902.197	681.084
206.519	14.804	901.547	680.206
207.534	14.882	901.043	680.083
208.548	14.905	900.319	679.567
209.563	14.889	899.638	678.931
210.577	15.014	899.271	679.099
211.592	14.975	898.310	678.157
212.607	15.198	897.355	678.278
213.621	15.001	896.762	676.973
214.636	15.106	896.229	676.936
215.650	15.155	895.559	676.566
216.665	15.104	894.667	675.628
217.680	15.097	894.165	675.159
218.694	15.016	893.744	674.458
219.709	15.175	893.119	674.565
220.723	15.056	891.993	673.175
221.738	14.965	891.885	672.669
222.753	15.200	890.919	672.824
223.767	15.169	890.730	672.498
224.782	15.285	890.163	672.476
225.796	15.340	889.265	671.959
226.811	15.326	888.720	671.432
227.826	15.243	888.112	670.580
228.840	15.325	887.355	670.278
229.855	15.297	886.440	669.416
230.869	15.260	885.746	668.684
231.884	15.180	885.141	667.850
232.899	15.209	884.320	667.285
233.913	15.263	883.698	666.972
234.928	15.261	882.889	666.293
235.942	15.164	882.452	665.520
236.957	15.259	882.011	665.508
237.972	15.234	881.320	664.827
238.986	15.271	880.383	664.207
240.001	15.147	880.522	663.761
241.015	15.086	879.598	662.767
242.030	15.175	879.377	662.892
243.045	15.408	878.332	662.968
244.059	15.395	877.574	662.287
245.074	15.411	877.263	662.054
246.088	15.359	876.862	661.488
247.103	15.422	876.148	661.139
248.117	15.513	875.582	661.012
249.132	15.574	875.131	660.855
250.147	15.627	874.584	660.592
251.161	15.694	873.875	660.261
252.176	15.777	873.186	660.005
253.190	15.662	872.680	659.115
254.205	15.822	871.953	659.133
255.220	15.807	871.541	658.704
256.234	15.882	870.446	658.113
257.249	15.876	870.020	657.709
258.263	15.901	869.373	657.261
259.278	15.825	868.367	656.145
260.293	15.951	867.861	656.197
261.307	15.927	867.606	655.850
262.322	15.919	866.924	655.244
263.336	16.087	865.748	654.951
264.351	16.116	865.031	654.465
265.366	16.051	864.599	653.828
266.380	16.017	863.851	653.072
267.395	15.960	863.355	652.420
268.409	15.934	862.862	651.888
269.424	16.080	861.799	651.592
270.439	15.985	861.055	650.604
271.453	16.022	860.474	650.248
272.468	16.024	860.054	649.884
273.482	16.011	859.214	649.140
274.497	16.049	858.942	649.026
275.512	15.891	858.604	648.102
276.526	15.984	858.148	648.058
277.541	15.991	857.401	647.466
278.555	16.025	856.873	647.139
279.570	16.248	856.288	647.495
280.585	16.255	855.159	646.611
281.599	16.170	854.519	645.745
282.614	16.077	853.902	644.867
283.628	16.180	853.327	644.768
284.643	16.097	852.837	644.025
285.657	16.160	851.782	643.409
286.672	16.285	851.385	643.532
287.687	15.970	851.522	642.377
288.701	16.113	850.731	642.266
289.716	16.239	849.950	642.098
290.730	16.180	849.593	641.550
291.745	16.283	848.713	641.218
292.760	16.373	848.054	641.006
293.774	16.470	847.690	641.040
294.789	16.367	846.963	640.047
295.803	16.409	845.950	639.383
296.818	16.222	845.640	638.385
297.833	16.320	844.903	638.141
298.847	16.349	844.339	637.769
299.862	16.332	844.039	637.421
300.876	16.400	843.532	637.238
301.891	16.449	842.828	636.834
302.906	16.519	842.623	636.888
303.920	16.671	841.821	636.797
304.935	16.723	841.091	636.384
305.949	16.620	840.649	635.605
306.964	16.693	839.615	635.040
307.979	16.665	839.485	634.781
308.993	16.673	839.030	634.411
310.008	16.532	838.519	633.441
311.022	16.750	837.697	633.581
312.037	16.553	837.196	632.407
313.052	16.419	836.454	631.291
314.066	16.532	835.801	631.163
315.081	16.493	835.825	630.981
316.095	16.521	835.016	630.419
317.110	16.569	834.619	630.243
318.125	16.553	833.724	629.452
319.139	16.517	833.273	628.922
320.154	16.609	832.748	628.810
321.168	16.677	832.550	628.860
322.183	16.670	831.912	628.294
323.197	16.595	831.630	627.750
324.212	16.654	831.081	627.497
325.227	16.625	830.144	626.626
326.241	16.701	829.581	626.428
327.256	16.726	829.156	626.144
328.270	16.731	828.502	625.615
329.285	16.677	828.236	625.159
330.300	16.605	827.795	624.502
331.314	16.699	827.168	624.320
332.329	16.684	826.831	623.958
333.343	16.854	826.493	624.272
334.358	16.863	825.760	623.698
335.373	16.827	825.370	623.216
336.387	16.828	824.926	622.829
337.402	16.829	825.086	622.895
338.416	16.839	824.738	622.615
339.431	16.844	824.172	622.152
340.446	16.944	823.852	622.224
341.460	17.036	823.168	621.986
342.475	17.068	823.025	621.941
343.489	17.012	822.553	621.325
344.504	17.232	821.918	621.597
345.519	17.218	821.779	621.386
346.533	17.089	821.170	620.397
347.548	17.012	820.329	619.426
348.562	17.048	819.753	619.068
349.577	16.989	819.240	618.410
350.592	17.089	818.532	618.184
351.606	16.898	818.115	617.119
352.621	16.953	817.579	616.861
353.635	16.979	816.692	616.232
354.650	17.164	815.554	615.991
355.665	17.021	815.636	615.478
356.679	17.128	814.973	615.312
357.694	17.043	814.218	614.380
358.708	17.275	813.707	614.779
359.723	17.168	813.109	613.887
360.738	17.129	812.557	613.274
361.752	17.205	812.076	613.131
362.767	17.332	811.376	613.007
363.781	17.427	811.098	613.086
364.796	17.432	810.507	612.603
365.810	17.576	810.021	612.699
366.825	17.598	809.866	612.607
367.840	17.485	809.386	611.783
368.854	17.363	808.914	610.934
369.869	17.436	808.807	611.060
370.883	17.571	808.096	610.955
371.898	17.568	807.555	610.480
372.913	17.730	807.489	610.957
373.927	17.552	806.606	609.597
374.942	17.651	806.211	609.598
375.956	17.686	805.946	609.471
376.971	17.703	805.233	608.938
377.986	17.754	804.898	608.813
379.000	17.826	804.346	608.596
380.015	17.614	804.213	607.688
381.029	17.793	803.524	607.752
382.044	17.880	802.653	607.347
383.059	17.617	802.320	606.105
384.073	17.761	801.678	606.080
385.088	17.799	800.736	605.449
386.102	17.736	800.127	604.710
387.117	17.758	799.812	604.497
388.132	17.686	799.374	603.858
389.146	17.712	798.904	603.543
390.161	17.722	798.721	603.385
391.175	17.862	798.126	603.377
392.190	17.766	797.396	602.431
393.205	17.709	797.285	602.095
394.219	17.658	797.120	601.737
395.234	17.678	796.580	601.345
396.248	17.568	796.007	600.471
397.263	17.446	795.966	599.960
398.278	17.720	795.219	600.306
399.292	17.597	794.877	599.565
400.307	17.747	794.150	599.488
401.321	17.765	793.530	599.032
402.336	17.713	793.011	598.404
403.350	17.774	792.912	598.490
404.365	17.878	792.307	598.343
405.380	18.048	791.989	598.649
406.394	18.080	791.493	598.331
407.409	18.060	790.904	597.764
408.423	18.157	790.656	597.861
409.438	18.026	790.717	597.397
410.453	18.196	789.807	597.252
411.467	18.246	789.510	597.148
412.482	18.225	789.094	596.708
413.496	18.206	788.902	596.441
414.511	18.213	788.680	596.245
415.526	18.133	788.045	595.437
416.540	18.215	787.225	595.049
417.555	18.272	786.858	594.917
418.569	18.365	786.632	595.015
419.584	18.279	786.481	594.550
420.599	18.165	785.768	593.564
421.613	157.251	1370.132	1794.552
422.628	135.910	1455.280	1794.646
