DTS Sentinel unit serial number:	SN413079Multiplexer serial number:	ORYXHardware model number:	OX4-SRSoftware version number:	ORYX F/W v4.00 Oryx Data Collector v3.7.2.0data status	okinstallation	princeton_trtdifferential loss correction	single-endedforward channel	channel 1reverse channel	N/Adate	2019/09/18time	05:26:35forward acquisition time	60.00reverse acquisition time	0.00gamma	496.2192k internal	0.2339k external	0.2339temperature offset calibration	0.9980default loss term (dB/km)	0.3790temperature slope calibration	1.0000multiplexer offset coefficient	1.0000multiplexer slope coefficient	1.0000fibre end	0.00T internal ref (°C)	23.44T ext. ref 1 (°C)	0.20T ext. ref 2 (°C)	17.09length (m)	temperature (°C)	Stokes	anti-Stokes-747.200	10.100	-0.155	-0.118
-746.185	-200.000	-0.002	0.182
-745.171	78.414	-0.345	0.370
-744.156	-25.943	-0.169	-0.100
-743.142	800.000	-0.012	-0.039
-742.127	-127.924	-0.350	0.050
-741.112	-95.005	0.351	0.095
-740.098	-200.000	0.021	0.284
-739.083	-72.213	0.068	0.025
-738.069	243.879	-0.191	0.322
-737.054	174.373	-0.158	0.229
-736.039	219.274	-0.196	-0.314
-735.025	-31.843	0.099	-0.056
-734.010	160.647	-0.370	-0.518
-732.996	-139.128	-0.051	0.005
-731.981	779.540	-0.039	-0.108
-730.966	1.463	-0.164	0.118
-729.952	22.837	-0.141	-0.115
-728.937	-24.101	0.045	0.027
-727.923	338.031	0.129	0.251
-726.908	237.740	-0.214	-0.356
-725.894	88.478	-0.218	-0.243
-724.879	-62.745	0.179	-0.074
-723.864	168.179	-0.175	-0.249
-722.850	800.000	0.010	0.031
-721.835	800.000	0.100	0.375
-720.821	800.000	0.090	-0.289
-719.806	84.853	-0.161	0.177
-718.791	800.000	0.028	-0.110
-717.777	-53.079	-0.416	-0.191
-716.762	9.818	0.323	-0.245
-715.748	-200.000	0.069	0.405
-714.733	-79.509	-0.357	-0.121
-713.718	5.542	0.074	-0.055
-712.704	27.168	0.300	-0.252
-711.689	226.591	0.217	-0.352
-710.675	800.000	-0.071	0.290
-709.660	105.338	0.129	-0.152
-708.645	31.367	0.126	0.108
-707.631	-177.208	0.196	-0.005
-706.616	800.000	0.064	-0.202
-705.602	-91.229	-0.041	-0.012
-704.587	-200.000	0.021	-0.178
-703.572	-200.000	-0.002	0.023
-702.558	-200.000	-0.012	0.096
-701.543	-189.742	0.300	0.003
-700.529	282.989	-0.163	-0.293
-699.514	31.277	-0.182	-0.156
-698.499	-25.426	-0.144	-0.085
-697.485	21.012	0.047	0.038
-696.470	11.260	-0.101	-0.078
-695.456	159.293	-0.283	0.394
-694.441	-134.999	-0.329	-0.040
-693.426	-107.564	-0.195	-0.043
-692.412	-35.877	-0.098	-0.053
-691.397	-46.703	-0.417	-0.205
-690.383	155.735	-0.116	0.160
-689.368	-34.225	-0.198	0.109
-688.354	-65.900	0.118	-0.047
-687.339	-200.000	0.014	0.208
-686.324	-120.012	-0.195	0.033
-685.310	-200.000	0.009	0.065
-684.295	436.430	-0.065	-0.142
-683.281	-200.000	-0.022	0.228
-682.266	-200.000	-0.015	0.148
-681.251	800.000	0.065	0.197
-680.237	-101.122	-0.102	-0.025
-679.222	800.000	0.035	0.115
-678.208	-200.000	0.044	0.296
-677.193	-200.000	0.018	-0.422
-676.178	-200.000	-0.009	-0.127
-675.164	-21.992	-0.263	-0.160
-674.149	354.396	-0.102	0.203
-673.135	-36.958	0.132	-0.071
-672.120	-32.334	-0.184	-0.103
-671.105	2.921	0.181	0.132
-670.091	-82.755	0.321	0.104
-669.076	-161.941	-0.211	-0.011
-668.062	10.888	-0.153	-0.117
-667.047	202.792	-0.219	0.338
-666.032	450.417	0.049	0.108
-665.018	19.442	0.094	-0.076
-664.003	-200.000	-0.044	-0.337
-662.989	-57.108	-0.184	-0.081
-661.974	-149.873	-0.266	0.021
-660.959	-76.421	0.122	0.043
-659.945	1.126	-0.409	-0.293
-658.930	-23.043	-0.148	-0.089
-657.916	-55.526	0.211	-0.095
-656.901	-175.276	0.204	-0.006
-655.886	-27.593	-0.173	0.100
-654.872	-141.723	-0.174	-0.017
-653.857	-148.395	-0.290	0.024
-652.843	290.154	0.064	-0.116
-651.828	-96.804	0.284	-0.075
-650.814	-200.000	0.003	-0.057
-649.799	-146.151	0.319	0.028
-648.784	-12.513	-0.239	-0.156
-647.770	800.000	-0.028	0.089
-646.755	291.476	0.087	0.159
-645.741	-45.951	0.200	0.099
-644.726	28.077	0.072	0.061
-643.711	-146.682	0.249	-0.022
-642.697	800.000	0.084	0.239
-641.682	-200.000	-0.019	-0.176
-640.668	781.969	0.112	-0.306
-639.653	63.138	0.339	0.340
-638.638	174.641	-0.123	-0.177
-637.624	800.000	0.046	0.136
-636.609	-36.756	-0.242	0.130
-635.595	92.745	-0.310	-0.349
-634.580	27.554	-0.324	0.272
-633.565	107.014	-0.293	0.348
-632.551	-200.000	-0.002	-0.193
-631.536	-96.449	0.205	-0.054
-630.522	-83.185	0.252	0.081
-629.507	-200.000	-0.012	-0.135
-628.492	-200.000	-0.075	0.353
-627.478	-42.293	-0.084	-0.043
-626.463	4.018	-0.199	-0.145
-625.449	15.436	-0.228	-0.179
-624.434	88.925	0.180	-0.200
-623.419	-53.918	0.264	-0.120
-622.405	-154.590	-0.402	0.027
-621.390	108.004	-0.034	-0.040
-620.376	444.419	0.093	0.203
-619.361	800.000	-0.005	0.018
-618.346	-11.521	0.219	-0.143
-617.332	-51.229	-0.334	-0.156
-616.317	-32.007	-0.213	0.119
-615.303	-200.000	0.041	0.195
-614.288	-26.574	-0.113	-0.066
-613.273	201.324	0.078	0.120
-612.259	36.437	-0.116	-0.103
-611.244	321.997	0.260	-0.494
-610.230	554.025	-0.137	-0.329
-609.215	40.547	0.037	0.033
-608.201	233.575	-0.093	-0.153
-607.186	-60.690	0.496	0.210
-606.171	-200.000	-0.026	-0.502
-605.157	-11.786	-0.275	-0.180
-604.142	-28.349	0.120	0.069
-603.128	92.175	-0.157	-0.177
-602.113	-200.000	-0.004	0.132
-601.098	-111.290	0.363	0.074
-600.084	143.679	0.158	0.210
-599.069	-14.259	-0.326	-0.210
-598.055	9.127	-0.177	0.134
-597.040	-5.950	-0.071	-0.049
-596.025	31.828	0.202	0.173
-595.011	-200.000	0.006	-0.087
-593.996	800.000	-0.036	-0.114
-592.982	48.219	-0.214	0.199
-591.967	-116.851	-0.160	-0.029
-590.952	-16.265	-0.233	-0.148
-589.938	-3.635	0.361	-0.250
-588.923	-55.147	-0.285	0.128
-587.909	280.210	0.108	-0.192
-586.894	217.781	0.183	0.291
-585.879	800.000	0.017	0.069
-584.865	96.637	-0.079	-0.090
-583.850	800.000	0.082	-0.278
-582.836	-152.648	-0.263	0.019
-581.821	93.092	0.143	-0.161
-580.806	-200.000	0.029	0.199
-579.792	800.000	0.069	0.221
-578.777	-200.000	0.047	-0.245
-577.763	-141.886	0.460	-0.046
-576.748	-120.342	-0.226	-0.038
-575.733	4.640	-0.150	-0.110
-574.719	-200.000	0.025	0.190
-573.704	-95.945	0.236	-0.063
-572.690	504.869	0.026	-0.060
-571.675	-77.097	-0.362	-0.126
-570.661	1.319	-0.028	-0.020
-569.646	-11.143	0.034	-0.023
-568.631	-93.040	0.135	-0.038
-567.617	-175.242	0.206	0.006
-566.602	800.000	0.029	0.086
-565.588	800.000	0.080	0.253
-564.573	106.776	-0.318	0.376
-563.558	272.166	-0.205	0.361
-562.544	800.000	0.031	0.100
-561.529	486.571	-0.060	-0.137
-560.515	-98.171	0.184	-0.047
-559.500	-200.000	-0.067	0.295
-558.485	-38.747	0.108	-0.057
-557.471	25.311	0.220	-0.182
-556.456	-24.290	-0.145	-0.086
-555.442	1.751	-0.286	0.205
-554.427	-34.381	0.169	-0.092
-553.412	133.714	0.060	-0.077
-552.398	-12.228	-0.329	-0.214
-551.383	-126.404	-0.168	-0.025
-550.369	-200.000	-0.046	-0.248
-549.354	-55.171	-0.117	0.052
-548.339	366.039	-0.122	-0.246
-547.325	195.307	0.081	-0.123
-546.310	-72.864	-0.245	-0.090
-545.296	-145.936	0.355	-0.031
-544.281	-200.000	0.008	-0.100
-543.266	359.679	-0.040	0.079
-542.252	-200.000	0.025	0.281
-541.237	-200.000	-0.006	-0.083
-540.223	117.886	0.130	-0.159
-539.208	800.000	-0.071	-0.197
-538.193	-37.101	-0.069	-0.037
-537.179	-200.000	0.000	0.054
-536.164	-200.000	-0.027	0.159
-535.150	-76.620	0.121	0.042
-534.135	78.768	0.164	0.174
-533.121	13.793	0.046	0.036
-532.106	56.692	-0.167	-0.162
-531.091	800.000	-0.058	-0.223
-530.077	112.636	-0.165	-0.199
-529.062	-200.000	0.011	-0.065
-528.048	-200.000	0.018	0.277
-527.033	800.000	-0.029	-0.096
-526.018	466.667	0.043	0.095
-525.004	-21.418	0.269	-0.163
-523.989	-200.000	0.025	0.149
-522.975	13.561	0.262	0.202
-521.960	800.000	0.060	0.191
-520.945	800.000	-0.096	0.314
-519.931	-40.825	0.070	0.036
-518.916	181.340	0.239	0.349
-517.902	424.440	0.055	0.118
-516.887	581.688	0.042	0.103
-515.872	-169.134	-0.064	-0.002
-514.858	-200.000	-0.000	0.048
-513.843	457.148	-0.153	0.338
-512.829	237.211	-0.047	-0.078
-511.814	410.865	-0.176	-0.371
-510.799	-129.001	0.078	0.011
-509.785	60.212	-0.162	0.160
-508.770	22.908	-0.068	-0.055
-507.756	-200.000	0.012	-0.315
-506.741	-200.000	-0.004	-0.091
-505.726	-73.900	0.199	-0.072
-504.712	-67.477	-0.089	0.035
-503.697	-33.078	-0.185	0.102
-502.683	-105.851	0.296	0.066
-501.668	-200.000	0.048	0.232
-500.653	-33.249	-0.085	0.047
-499.639	800.000	0.069	0.258
-498.624	60.067	0.101	-0.099
-497.610	-46.126	0.250	-0.122
-496.595	-85.470	-0.284	0.088
-495.581	800.000	-0.071	-0.203
-494.566	-167.212	-0.221	-0.009
-493.551	-65.782	0.128	0.051
-492.537	151.668	-0.122	0.165
-491.522	-5.496	-0.215	0.146
-490.508	-23.035	0.043	-0.026
-489.493	-55.537	0.107	0.047
-488.478	-27.335	-0.313	-0.181
-487.464	800.000	-0.040	-0.134
-486.449	-8.184	-0.262	0.175
-485.435	177.589	0.206	-0.299
-484.420	280.403	0.074	-0.132
-483.405	184.271	-0.158	0.232
-482.391	541.334	-0.144	0.342
-481.376	-123.779	-0.292	-0.046
-480.362	800.000	-0.107	-0.360
-479.347	286.754	-0.091	-0.164
-478.332	42.813	0.248	0.225
-477.318	800.000	0.110	0.389
-476.303	505.256	0.051	-0.118
-475.289	462.147	0.179	-0.397
-474.274	-6.492	0.164	0.111
-473.259	230.067	0.110	0.179
-472.245	-200.000	0.026	0.116
-471.230	-144.916	0.074	0.007
-470.216	-200.000	-0.031	0.465
-469.201	-200.000	-0.015	-0.307
-468.186	149.193	0.099	-0.133
-467.172	-200.000	0.000	-0.147
-466.157	-29.828	-0.389	0.220
-465.143	-85.056	0.058	-0.018
-464.128	16.569	0.074	0.058
-463.113	800.000	-0.081	0.257
-462.099	-119.971	0.094	-0.016
-461.084	-174.000	0.306	0.009
-460.070	505.415	0.078	0.178
-459.055	38.261	-0.180	0.159
-458.040	308.395	-0.073	0.136
-457.026	-200.000	0.004	-0.097
-456.011	-37.121	-0.066	0.035
-454.997	104.896	0.161	-0.188
-453.982	142.408	0.042	-0.055
-452.968	-57.087	-0.136	0.060
-451.953	-200.000	0.003	-0.114
-450.938	-145.672	0.172	-0.015
-449.924	800.000	0.122	0.391
-448.909	40.946	-0.082	0.073
-447.895	800.000	-0.058	0.186
-446.880	-200.000	-0.002	0.107
-445.865	-158.187	0.474	0.027
-444.851	316.656	0.045	0.084
-443.836	-200.000	-0.018	0.085
-442.822	-34.358	0.310	-0.169
-441.807	183.238	-0.081	0.119
-440.792	105.757	0.128	-0.150
-439.778	-72.782	-0.128	0.047
-438.763	-200.000	0.013	-0.314
-437.749	-77.191	-0.086	0.030
-436.734	213.516	0.134	-0.210
-435.719	-39.880	0.432	-0.223
-434.705	-200.000	-0.045	-0.388
-433.690	45.267	0.056	-0.051
-432.676	-109.571	0.118	0.025
-431.661	327.731	-0.081	-0.153
-430.646	-62.243	0.029	0.012
-429.632	-200.000	0.029	0.146
-428.617	-200.000	0.010	-0.156
-427.603	-200.000	-0.017	-0.146
-426.588	800.000	-0.010	0.038
-425.573	-200.000	-0.015	-0.321
-424.559	-200.000	0.007	0.259
-423.544	263.893	-0.037	-0.064
-422.530	-183.626	-0.105	-0.002
-421.515	-137.760	-0.525	-0.058
-420.500	-57.367	0.293	-0.127
-419.486	-89.678	-0.090	0.026
-418.471	740.699	0.035	0.094
-417.457	169.154	-0.083	-0.117
-416.442	-48.540	0.101	0.048
-415.428	118.227	0.212	-0.259
-414.413	-88.622	0.166	0.049
-413.398	800.000	-0.122	-0.341
-412.384	262.868	-0.078	0.134
-411.369	800.000	-0.034	0.127
-410.355	785.666	-0.058	-0.159
-409.340	-61.961	-0.201	-0.083
-408.325	-119.688	-0.358	0.061
-407.311	800.000	-0.080	-0.221
-406.296	479.813	0.038	-0.085
-405.282	415.652	0.134	-0.283
-404.267	-200.000	-0.022	-0.224
-403.252	-27.757	-0.045	-0.026
-402.238	-21.944	-0.129	-0.077
-401.223	-143.963	0.231	0.022
-400.209	-200.000	-0.004	-0.048
-399.194	-84.047	-0.095	-0.030
-398.179	-200.000	-0.086	-0.449
-397.165	6.941	-0.076	0.056
-396.150	-32.447	-0.303	0.167
-395.136	5.319	0.160	0.117
-394.121	115.570	0.061	-0.073
-393.106	-39.882	0.069	-0.036
-392.092	87.916	-0.080	-0.088
-391.077	349.799	-0.047	0.092
-390.063	-109.537	-0.176	0.037
-389.048	4.922	-0.208	-0.151
-388.033	-200.000	0.006	-0.145
-387.019	115.072	0.144	0.174
-386.004	-200.000	0.015	0.172
-384.990	-78.906	0.204	0.069
-383.975	86.491	-0.110	0.120
-382.960	-119.014	0.270	0.047
-381.946	-200.000	-0.038	-0.188
-380.931	-49.894	-0.129	-0.060
-379.917	-200.000	-0.006	-0.121
-378.902	-142.256	-0.246	-0.024
-377.888	166.273	0.120	-0.168
-376.873	444.414	0.108	0.235
-375.858	800.000	-0.073	-0.289
-374.844	-142.694	-0.431	0.042
-373.829	-156.963	-0.206	-0.012
-372.815	75.148	0.208	0.217
-371.800	-59.628	-0.283	-0.120
-370.785	421.787	-0.144	0.306
-369.771	175.424	0.111	0.159
-368.756	-200.000	0.048	0.249
-367.742	-200.000	-0.011	0.151
-366.727	230.217	-0.156	0.251
-365.712	558.263	-0.100	0.239
-364.698	-179.219	0.188	-0.004
-363.683	-7.526	0.194	0.130
-362.669	19.259	-0.170	-0.135
-361.654	-134.319	0.136	-0.016
-360.639	-153.547	-0.315	-0.021
-359.625	-98.846	0.272	0.068
-358.610	-94.599	-0.052	-0.014
-357.596	228.062	0.070	-0.112
-356.581	-81.995	-0.011	0.004
-355.566	-200.000	-0.044	0.282
-354.552	-116.542	0.128	0.023
-353.537	800.000	0.039	0.165
-352.523	-110.701	-0.088	0.018
-351.508	-200.000	-0.003	0.138
-350.493	800.000	-0.073	0.245
-349.479	-37.418	-0.137	0.072
-348.464	693.865	0.066	0.171
-347.450	625.595	-0.193	0.481
-346.435	280.705	-0.089	-0.158
-345.420	222.400	-0.108	0.172
-344.406	126.216	-0.062	-0.077
-343.391	69.675	0.151	-0.153
-342.377	-77.141	0.218	0.075
-341.362	658.608	0.126	-0.320
-340.348	-47.481	0.319	-0.153
-339.333	800.000	-0.068	0.248
-338.318	141.847	-0.133	-0.174
-337.304	-123.671	-0.164	-0.026
-336.289	-123.604	-0.306	0.048
-335.275	-99.355	0.211	-0.053
-334.260	70.448	0.252	-0.257
-333.245	-200.000	0.283	-0.000
-332.231	239.076	0.079	0.130
-331.216	-52.868	-0.173	0.079
-330.202	800.000	0.101	0.405
-329.187	314.845	-0.186	0.347
-328.172	-88.595	0.080	0.023
-327.158	-141.561	-0.262	0.026
-326.143	-200.000	-0.010	0.264
-325.129	-69.512	0.371	-0.140
-324.114	-200.000	-0.016	-0.153
-323.099	-200.000	-0.008	0.368
-322.085	-137.913	-0.283	0.031
-321.070	5.713	-0.295	0.215
-320.056	359.694	-0.148	0.291
-319.041	55.907	-0.184	0.176
-318.026	-25.338	-0.416	0.243
-317.012	651.289	0.113	0.286
-315.997	511.046	0.060	-0.137
-314.983	-41.853	-0.106	-0.054
-313.968	154.152	0.075	-0.102
-312.953	86.545	-0.043	-0.046
-311.939	-200.000	-0.035	0.306
-310.924	-97.328	0.174	-0.045
-309.910	-37.739	0.510	-0.268
-308.895	-77.896	0.212	-0.072
-307.880	-68.104	-0.417	-0.160
-306.866	-200.000	-0.009	0.232
-305.851	-200.000	-0.013	-0.089
-304.837	-50.060	0.364	0.170
-303.822	-71.529	-0.186	-0.069
-302.807	-67.492	-0.334	-0.129
-301.793	453.431	-0.080	-0.175
-300.778	800.000	-0.023	0.094
-299.764	202.170	-0.109	-0.166
-298.749	-200.000	-0.007	0.072
-297.735	102.998	-0.250	0.289
-296.720	800.000	0.069	-0.196
-295.705	-200.000	0.036	-0.304
-294.691	-200.000	0.005	0.029
-293.676	99.494	-0.197	-0.225
-292.662	28.947	0.164	0.137
-291.647	-200.000	0.061	0.349
-290.632	22.017	-0.259	-0.208
-289.618	800.000	0.091	0.287
-288.603	800.000	0.120	-0.408
-287.589	239.889	0.198	-0.325
-286.574	-117.496	0.407	0.072
-285.559	107.152	0.125	-0.146
-284.545	511.520	-0.028	0.063
-283.530	157.604	0.272	-0.371
-282.516	-116.614	-0.277	-0.050
-281.501	23.358	-0.129	-0.105
-280.486	-122.757	0.375	0.060
-279.472	-37.437	-0.351	-0.185
-278.457	-34.142	-0.112	0.061
-277.443	-161.128	0.366	-0.019
-276.428	-132.405	0.064	0.008
-275.413	12.139	-0.047	-0.035
-274.399	-108.624	-0.209	0.044
-273.384	800.000	-0.087	-0.337
-272.370	-61.804	0.057	0.023
-271.355	800.000	0.081	-0.248
-270.340	-200.000	-0.055	-0.457
-269.326	271.134	0.108	-0.187
-268.311	-181.365	-0.153	-0.003
-267.297	56.682	-0.123	0.118
-266.282	-49.730	-0.259	0.121
-265.267	205.087	-0.090	-0.137
-264.253	-19.050	-0.086	-0.053
-263.238	190.285	0.242	-0.358
-262.224	-99.177	0.342	0.085
-261.209	122.104	-0.093	-0.114
-260.195	800.000	0.037	0.133
-259.180	-20.456	-0.163	0.098
-258.165	-178.653	-0.125	0.003
-257.151	358.132	0.110	0.216
-256.136	259.565	0.021	0.036
-255.122	222.126	0.120	-0.190
-254.107	583.493	0.204	-0.492
-253.092	-129.429	0.247	0.034
-252.078	501.251	-0.151	0.343
-251.063	-54.217	-0.301	0.135
-250.049	800.000	-0.039	0.149
-249.034	-20.040	0.249	-0.151
-248.019	-200.000	0.013	-0.110
-247.005	-113.521	0.148	0.029
-245.990	-31.562	-0.090	-0.050
-244.976	224.683	0.116	0.185
-243.961	57.428	0.174	-0.167
-242.946	-200.000	0.008	-0.278
-241.932	-200.000	-0.020	-0.235
-240.917	-36.084	-0.172	0.091
-239.903	-200.000	-0.004	-0.022
-238.888	800.000	0.191	0.636
-237.873	-60.791	0.124	-0.051
-236.859	620.041	0.125	-0.309
-235.844	800.000	0.024	0.082
-234.830	785.534	-0.057	-0.154
-233.815	800.000	0.023	-0.096
-232.800	88.075	0.052	0.057
-231.786	-18.473	-0.113	-0.069
-230.771	120.558	-0.070	-0.085
-229.757	553.962	-0.173	-0.410
-228.742	772.543	0.084	-0.224
-227.727	70.857	-0.184	-0.187
-226.713	-74.210	-0.033	0.012
-225.698	-59.085	0.182	-0.077
-224.684	800.000	0.052	-0.174
-223.669	306.428	-0.080	0.145
-222.655	8.087	0.060	-0.044
-221.640	800.000	-0.043	-0.187
-220.625	294.689	0.071	-0.127
-219.611	-200.000	0.020	-0.266
-218.596	27.225	-0.076	-0.063
-217.582	522.543	-0.039	0.090
-216.567	133.185	-0.169	0.214
-215.552	421.919	-0.043	-0.091
-214.538	800.000	-0.009	-0.034
-213.523	-142.715	0.166	0.016
-212.509	-68.361	-0.098	0.037
-211.494	800.000	0.081	-0.289
-210.479	277.454	-0.119	0.207
-209.465	800.000	0.042	-0.136
-208.450	114.615	-0.076	-0.091
-207.436	-151.473	0.167	0.012
-206.421	-49.664	0.080	-0.038
-205.406	-31.207	-0.256	-0.142
-204.392	-59.017	0.039	0.016
-203.377	79.852	0.097	0.102
-202.363	-121.908	0.192	-0.031
-201.348	691.671	0.015	0.039
-200.333	-116.204	0.302	-0.055
-199.319	204.909	0.183	0.278
-198.304	327.045	-0.111	0.209
-197.290	425.175	0.045	-0.095
-196.275	269.379	0.193	-0.333
-195.260	-44.998	-0.308	-0.150
-194.246	57.796	-0.269	-0.259
-193.231	-56.175	0.342	-0.150
-192.217	800.000	0.218	0.645
-191.202	-105.372	0.473	0.106
-190.187	-200.000	0.015	-0.185
-189.173	800.000	-0.049	-0.134
-188.158	-200.000	-0.007	-0.099
-187.144	-200.000	0.060	0.524
-186.129	790.436	0.054	0.147
-185.114	213.775	-0.051	0.079
-184.100	-66.653	0.135	0.052
-183.085	800.000	0.015	-0.046
-182.071	-55.326	0.091	0.040
-181.056	158.985	-0.123	-0.167
-180.042	800.000	0.012	-0.042
-179.027	-77.015	-0.050	-0.017
-178.012	-200.000	-0.015	-0.125
-176.998	-111.472	0.210	0.042
-175.983	-85.405	-0.225	-0.069
-174.969	23.648	-0.177	0.143
-173.954	800.000	0.152	0.519
-172.939	-98.187	-0.347	0.087
-171.925	14.263	0.232	-0.177
-170.910	-128.927	0.255	0.035
-169.896	-48.080	-0.166	0.079
-168.881	-200.000	-0.014	0.271
-167.866	-200.000	0.064	0.302
-166.852	-30.971	-0.044	-0.025
-165.837	-173.191	-0.129	0.004
-164.823	-200.000	0.040	0.548
-163.808	542.839	0.113	-0.265
-162.793	-158.365	-0.086	0.005
-161.779	4.859	0.152	0.109
-160.764	800.000	-0.067	0.226
-159.750	-200.000	-0.080	-0.518
-158.735	47.227	0.148	0.135
-157.720	-45.299	0.110	0.053
-156.706	255.615	0.126	0.212
-155.691	-200.000	0.023	0.317
-154.677	45.198	0.074	0.067
-153.662	15.924	-0.275	0.212
-152.647	-2.461	-0.090	0.062
-151.633	-200.000	0.016	0.346
-150.618	-17.892	0.170	0.104
-149.604	157.438	0.086	0.116
-148.589	203.833	-0.134	0.203
-147.574	-200.000	-0.025	0.172
-146.560	83.494	0.220	0.235
-145.545	-99.979	-0.367	0.090
-144.531	52.691	0.166	-0.155
-143.516	-5.661	-0.069	0.046
-142.502	595.575	0.137	-0.333
-141.487	578.930	0.053	0.128
-140.472	-27.207	0.338	0.193
-139.458	234.454	0.161	0.261
-138.443	59.618	-0.275	-0.266
-137.429	60.121	0.109	-0.106
-136.414	203.889	0.140	-0.212
-135.399	-200.000	-0.052	-0.258
-134.385	-48.066	0.320	-0.152
-133.370	417.251	0.014	-0.029
-132.356	-200.000	0.025	-0.301
-131.341	-97.967	0.235	-0.059
-130.326	800.000	-0.097	0.308
-129.312	-43.822	-0.274	-0.135
-128.297	-79.864	0.135	0.045
-127.283	-44.464	-0.055	0.027
-126.268	800.000	0.074	0.260
-125.253	17.647	0.307	0.239
-124.239	-127.752	-0.499	-0.070
-123.224	-200.000	-0.006	0.204
-122.210	-141.484	-0.348	0.034
-121.195	222.125	0.120	0.189
-120.180	323.082	-0.051	0.096
-119.166	800.000	-0.055	-0.154
-118.151	-42.165	0.129	-0.064
-117.137	2.153	0.082	0.058
-116.122	-200.000	-0.022	-0.150
-115.107	-71.972	-0.344	-0.125
-114.093	-159.014	-0.120	-0.007
-113.078	-200.000	0.054	-0.330
-112.064	-141.511	-0.126	0.012
-111.049	327.444	-0.026	-0.049
-110.034	-106.561	0.062	-0.014
-109.020	800.000	0.065	-0.199
-108.005	-68.149	0.175	0.067
-106.991	24.849	0.082	0.067
-105.976	800.000	-0.022	-0.063
-104.962	-27.372	-0.229	0.130
-103.947	97.842	-0.118	0.133
-102.932	-200.000	0.038	-0.293
-101.918	-200.000	0.097	-0.658
-100.903	-104.565	-0.185	-0.042
-99.889	-94.703	0.310	0.082
-98.874	664.348	-0.028	0.071
-97.859	46.620	-0.323	0.294
-96.845	-139.004	0.058	0.006
-95.830	-39.496	0.220	-0.113
-94.816	156.579	0.102	0.137
-93.801	-50.886	0.334	0.153
-92.786	-200.000	0.032	0.217
-91.772	-112.972	0.132	-0.026
-90.757	-200.000	0.135	0.650
-89.743	-175.790	0.079	0.002
-88.728	-168.964	0.256	0.009
-87.713	-6.716	-0.214	0.142
-86.699	800.000	0.053	0.170
-85.684	-28.092	-0.245	0.139
-84.670	213.284	-0.168	0.259
-83.655	468.586	-0.144	-0.315
-82.640	14.671	0.124	0.095
-81.626	307.176	-0.112	0.203
-80.611	-56.016	0.422	-0.184
-79.597	-63.324	-0.170	-0.068
-78.582	55.197	-0.082	0.078
-77.567	-124.502	0.259	-0.039
-76.553	79.271	0.199	-0.209
-75.538	-20.892	-0.231	-0.139
-74.524	16.393	0.273	0.210
-73.509	283.595	0.105	0.185
-72.494	360.423	-0.047	-0.091
-71.480	-65.248	0.286	-0.112
-70.465	4.913	-0.112	-0.081
-69.451	-200.000	-0.011	0.073
-68.436	-86.099	0.346	-0.104
-67.422	453.702	0.020	-0.042
-66.407	-64.528	0.255	0.101
-65.392	-200.000	-0.039	0.173
-64.378	242.112	0.099	0.162
-63.363	27.468	-0.376	-0.309
-62.349	-200.000	0.035	0.180
-61.334	7.848	-1.273	-0.932
-60.319	-10.266	0.915	0.593
-59.305	800.000	-0.278	-1.012
-58.290	238.316	0.799	1.296
-57.276	552.894	0.642	1.507
-56.261	-200.000	124.525	650.914
-55.246	414.967	1566.410	3258.081
-54.232	142.428	2726.257	3533.616
-53.217	96.381	2164.842	2417.926
-52.203	35.239	1596.000	1365.866
-51.188	26.713	1339.744	1095.244
-50.173	24.138	1302.676	1049.746
-49.159	51.525	1371.339	1272.104
-48.144	48.745	1383.344	1266.360
-47.130	26.837	1331.022	1088.684
-46.115	23.656	1311.658	1053.954
-45.100	23.401	1306.817	1048.516
-44.086	23.349	1304.595	1046.383
-43.071	23.279	1302.090	1043.920
-42.057	23.302	1299.665	1042.069
-41.042	23.223	1298.794	1040.866
-40.027	23.358	1296.973	1040.156
-39.013	23.311	1295.376	1038.558
-37.998	23.288	1293.173	1036.616
-36.984	23.352	1291.328	1035.473
-35.969	23.430	1289.613	1034.508
-34.954	23.418	1288.415	1033.442
-33.940	23.546	1286.652	1032.731
-32.925	23.496	1285.818	1031.726
-31.911	23.434	1284.407	1030.197
-30.896	23.520	1282.861	1029.415
-29.881	23.531	1281.782	1028.567
-28.867	23.553	1280.598	1027.704
-27.852	23.527	1279.037	1026.263
-26.838	23.612	1277.592	1025.552
-25.823	23.497	1276.526	1023.993
-24.809	23.459	1274.870	1022.402
-23.794	23.578	1273.608	1022.036
-22.779	23.521	1272.394	1020.695
-21.765	23.613	1270.691	1019.818
-20.750	23.538	1269.718	1018.565
-19.736	23.478	1267.858	1016.689
-18.721	23.411	1266.988	1015.565
-17.706	23.483	1265.550	1014.786
-16.692	23.372	1265.033	1013.693
-15.677	23.462	1263.115	1012.635
-14.663	23.417	1262.365	1011.736
-13.648	23.420	1261.288	1010.847
-12.633	23.345	1260.698	1009.905
-11.619	23.327	1260.076	1009.264
-10.604	23.436	1259.227	1009.167
-9.590	23.347	1258.508	1008.047
-8.575	23.366	1256.938	1006.853
-7.560	23.348	1256.247	1006.160
-6.546	23.379	1255.671	1005.836
-5.531	23.272	1255.202	1004.812
-4.517	23.418	1253.782	1004.462
-3.502	23.370	1253.255	1003.726
-2.487	23.462	1251.884	1003.112
-1.473	23.455	1247.245	999.315
-0.458	21.715	1232.592	977.835
0.556	16.590	1216.652	940.171
1.571	13.044	1224.340	926.163
2.586	12.447	1239.234	933.956
3.600	12.503	1227.556	925.388
4.615	9.159	1155.675	853.382
5.629	3.094	1085.026	770.813
6.644	0.287	1068.062	744.835
7.659	0.046	1066.361	742.392
8.673	0.233	1064.531	741.971
9.688	0.224	1063.540	741.174
10.702	0.321	1061.426	740.111
11.717	4.029	1065.895	761.421
12.731	10.921	1074.945	801.900
13.746	15.516	1080.664	828.824
14.761	16.781	1081.689	835.782
15.775	16.087	1079.711	830.761
16.790	15.148	1078.266	824.953
17.804	14.437	1076.516	820.044
18.819	14.066	1075.594	817.446
19.834	13.713	1074.922	815.129
20.848	13.696	1073.395	813.816
21.863	13.212	1072.775	810.897
22.877	13.079	1072.213	809.752
23.892	13.097	1071.534	809.254
24.907	13.125	1070.844	808.797
25.921	13.171	1069.975	808.297
26.936	13.176	1069.330	807.761
27.950	13.201	1067.976	806.787
28.965	13.313	1066.848	806.411
29.980	13.403	1065.300	805.611
30.994	13.416	1064.509	805.000
32.009	13.564	1063.130	804.606
33.023	13.324	1062.893	803.190
34.038	13.388	1061.722	802.548
35.053	13.352	1060.907	801.685
36.067	13.301	1060.036	800.708
37.082	13.270	1059.146	799.818
38.096	13.341	1058.735	799.775
39.111	13.328	1057.547	798.749
40.126	13.170	1056.721	797.291
41.140	13.139	1055.448	796.107
42.155	13.175	1053.721	794.907
43.169	13.192	1053.161	794.501
44.184	13.184	1051.850	793.400
45.199	13.127	1051.232	792.591
46.213	13.081	1049.777	791.205
47.228	13.266	1048.951	791.394
48.242	13.238	1047.564	790.147
49.257	13.155	1046.887	789.167
50.271	13.284	1045.819	788.911
51.286	13.275	1045.168	788.305
52.301	13.348	1043.832	787.577
53.315	13.191	1042.680	785.890
54.330	13.250	1041.428	785.157
55.344	13.241	1041.092	784.792
56.359	13.287	1040.169	784.244
57.374	13.314	1039.110	783.505
58.388	13.228	1038.481	782.556
59.403	13.132	1037.880	781.578
60.417	13.165	1036.873	780.907
61.432	13.164	1036.036	780.203
62.447	13.148	1035.519	779.670
63.461	13.047	1035.042	778.766
64.476	12.988	1033.970	777.609
65.490	13.105	1032.819	777.229
66.505	13.066	1031.876	776.267
67.520	13.102	1031.545	776.119
68.534	13.187	1030.670	775.786
69.549	13.128	1030.092	775.006
70.563	13.008	1029.012	773.565
71.578	12.987	1028.689	773.155
72.593	12.907	1028.119	772.283
73.607	13.004	1026.892	771.745
74.622	13.038	1026.213	771.328
75.636	13.074	1025.511	770.901
76.651	13.097	1024.794	770.402
77.666	13.050	1023.990	769.506
78.680	12.976	1023.512	768.736
79.695	13.101	1022.886	768.780
80.709	13.271	1021.773	768.666
81.724	13.056	1021.877	767.676
82.739	13.310	1020.700	767.902
83.753	13.210	1020.023	766.860
84.768	13.372	1018.976	766.761
85.782	13.326	1018.118	765.832
86.797	13.228	1017.480	764.829
87.812	13.312	1016.392	764.335
88.826	13.158	1015.849	763.145
89.841	13.315	1014.749	762.976
90.855	13.231	1014.064	762.006
91.870	13.335	1013.128	761.716
92.884	13.378	1012.203	761.147
93.899	13.394	1011.267	760.452
94.914	13.234	1010.956	759.414
95.928	13.278	1010.066	758.881
96.943	13.344	1008.886	758.232
97.957	13.381	1007.988	757.657
98.972	13.367	1007.349	757.047
99.987	13.443	1006.428	756.637
101.001	13.396	1005.399	755.579
102.016	13.236	1004.769	754.308
103.030	13.404	1003.848	754.315
104.045	13.353	1003.219	753.545
105.060	13.279	1002.512	752.610
106.074	13.323	1001.296	751.834
107.089	13.228	1000.112	750.446
108.103	13.282	999.155	749.906
109.118	13.220	998.480	749.053
110.133	13.173	998.019	748.425
111.147	13.165	996.846	747.446
112.162	13.334	995.717	747.296
113.176	13.226	995.348	746.464
114.191	13.267	995.078	746.381
115.206	13.340	993.554	745.501
116.220	13.265	992.969	744.659
117.235	13.266	992.204	744.024
118.249	13.261	991.175	743.164
119.264	13.351	990.495	742.992
120.279	13.350	989.538	742.202
121.293	13.243	988.859	741.148
122.308	13.208	988.172	740.411
123.322	13.396	987.009	740.314
124.337	13.292	986.030	739.052
125.352	13.335	984.604	738.108
126.366	13.260	983.946	737.218
127.381	13.198	983.051	736.207
128.395	13.201	982.078	735.425
129.410	13.409	980.867	735.378
130.424	13.403	979.972	734.614
131.439	13.263	979.524	733.592
132.454	13.477	978.444	733.668
133.468	13.268	978.425	732.663
134.483	13.307	977.180	731.839
135.497	13.392	975.495	730.886
136.512	13.389	974.910	730.369
137.527	13.374	974.581	729.990
138.541	13.278	974.144	729.176
139.556	13.359	973.018	728.625
140.570	13.339	972.491	728.077
141.585	13.401	971.593	727.615
142.600	13.395	971.089	727.145
143.614	13.506	970.148	726.864
144.629	13.472	969.263	725.989
145.643	13.542	968.128	725.379
146.658	13.471	967.078	724.218
147.673	13.444	965.933	723.180
148.687	13.461	964.980	722.478
149.702	13.360	964.197	721.389
150.716	13.423	963.691	721.217
151.731	13.430	962.940	720.625
152.746	13.565	961.961	720.415
153.760	13.428	961.791	719.627
154.775	13.479	961.371	719.469
155.789	13.509	960.642	718.990
156.804	13.544	959.905	718.527
157.819	13.514	959.453	717.995
158.833	13.629	958.501	717.720
159.848	13.702	957.871	717.500
160.862	13.686	956.004	715.969
161.877	13.594	955.785	715.345
162.892	13.588	954.817	714.528
163.906	13.588	953.917	713.792
164.921	13.537	953.181	712.960
165.935	13.558	952.600	712.551
166.950	13.545	951.677	711.742
167.964	13.593	950.453	710.973
168.979	13.606	949.322	710.117
169.994	13.702	948.550	709.889
171.008	13.597	948.467	709.313
172.023	13.766	947.363	709.146
173.037	13.745	946.858	708.615
174.052	13.611	946.342	707.598
175.067	13.661	945.730	707.289
176.081	13.735	944.615	706.710
177.096	13.726	944.420	706.462
178.110	13.626	943.816	705.520
179.125	13.651	943.151	705.067
180.140	13.731	942.508	704.867
181.154	13.843	942.165	705.022
182.169	13.881	941.933	704.946
183.183	13.913	940.971	704.301
184.198	13.870	939.753	703.145
185.213	13.859	939.476	702.827
186.227	13.983	938.436	702.513
187.242	13.944	937.971	701.939
188.256	13.945	937.557	701.569
189.271	13.990	936.260	700.726
190.286	13.792	935.518	699.276
191.300	13.801	935.144	698.971
192.315	13.822	934.301	698.368
193.329	13.770	934.032	697.887
194.344	13.937	933.112	697.839
195.359	13.864	932.968	697.365
196.373	14.024	931.888	697.167
197.388	13.978	931.879	696.905
198.402	14.035	931.268	696.626
199.417	14.069	930.696	696.276
200.432	14.165	930.118	696.185
201.446	14.117	929.720	695.624
202.461	14.146	929.453	695.487
203.475	14.249	928.232	694.940
204.490	14.130	927.502	693.834
205.504	14.220	926.727	693.568
206.519	14.139	925.975	692.606
207.534	14.057	925.380	691.762
208.548	14.260	924.544	691.920
209.563	14.064	924.407	690.938
210.577	14.090	923.749	690.495
211.592	14.326	922.912	690.787
212.607	14.301	922.032	689.964
213.621	14.451	921.015	689.764
214.636	14.276	920.515	688.601
215.650	14.283	919.757	688.004
216.665	14.364	919.039	687.741
217.680	14.461	918.130	687.401
218.694	14.389	917.797	686.793
219.709	14.420	917.126	686.357
220.723	14.369	916.574	685.673
221.738	14.379	915.707	685.005
222.753	14.476	914.933	684.764
223.767	14.463	914.802	684.550
224.782	14.538	914.060	684.244
225.796	14.540	913.499	683.770
226.811	14.472	912.626	682.779
227.826	14.489	912.039	682.349
228.840	14.544	911.313	681.970
229.855	14.358	910.295	680.387
230.869	14.514	909.596	680.444
231.884	14.546	908.903	679.996
232.899	14.299	908.509	678.632
233.913	14.435	907.887	678.663
234.928	14.650	907.020	678.828
235.942	14.538	906.819	678.162
236.957	14.394	906.553	677.317
237.972	14.391	905.913	676.766
238.986	14.476	904.731	676.172
240.001	14.479	904.377	675.858
241.015	14.563	903.662	675.604
242.030	14.548	903.049	675.024
243.045	14.581	902.458	674.656
244.059	14.692	901.796	674.550
245.074	14.671	901.081	673.871
246.088	14.735	900.077	673.318
247.103	14.538	899.559	672.077
248.117	14.803	899.041	672.701
249.132	14.761	898.766	672.266
250.147	14.772	898.268	671.878
251.161	14.909	896.888	671.334
252.176	14.916	896.638	671.118
253.190	15.011	895.492	670.580
254.205	14.993	895.003	670.081
255.220	15.064	894.244	669.739
256.234	14.942	893.746	668.818
257.249	15.045	893.140	668.720
258.263	14.962	892.504	667.850
259.278	14.977	891.741	667.282
260.293	15.139	890.873	667.217
261.307	15.076	890.671	666.757
262.322	15.093	890.038	666.291
263.336	15.142	889.233	665.823
264.351	15.314	888.756	666.091
265.366	15.187	888.055	665.002
266.380	15.275	887.128	664.601
267.395	15.308	886.605	664.278
268.409	15.220	885.739	663.226
269.424	15.250	884.959	662.701
270.439	15.280	884.296	662.261
271.453	15.215	884.055	661.769
272.468	15.085	883.594	660.850
273.482	15.116	883.089	660.538
274.497	15.335	882.476	660.882
275.512	15.268	881.701	659.979
276.526	15.310	881.231	659.736
277.541	15.408	880.891	659.809
278.555	15.414	880.066	659.155
279.570	15.262	879.539	658.104
280.585	15.356	878.807	657.867
281.599	15.379	877.987	657.284
282.614	15.266	877.299	656.272
283.628	15.533	876.334	656.535
284.643	15.410	876.278	655.956
285.657	15.469	874.905	655.099
286.672	15.453	874.832	654.922
287.687	15.400	874.127	654.131
288.701	15.467	873.692	654.009
289.716	15.545	873.229	653.908
290.730	15.564	872.597	653.452
291.745	15.445	871.603	652.186
292.760	15.663	871.039	652.552
293.774	15.665	870.334	651.975
294.789	15.689	869.591	651.452
295.803	15.547	869.305	650.631
296.818	15.546	868.515	649.977
297.833	15.609	867.747	649.588
298.847	15.493	867.462	648.871
299.862	15.763	866.676	649.267
300.876	15.645	866.331	648.495
301.891	15.700	865.625	648.121
302.906	15.699	864.955	647.558
303.920	15.775	864.835	647.704
304.935	15.914	863.955	647.525
305.949	15.740	863.729	646.629
306.964	15.834	862.944	646.346
307.979	15.867	862.383	645.992
308.993	15.863	861.592	645.327
310.008	15.970	861.029	645.260
311.022	15.943	860.285	644.541
312.037	15.864	860.523	644.359
313.052	15.753	859.760	643.308
314.066	15.747	858.962	642.629
315.081	15.986	858.174	642.894
316.095	15.827	857.721	641.893
317.110	15.760	856.919	640.980
318.125	15.882	856.517	641.089
319.139	15.803	856.265	640.541
320.154	16.074	855.312	640.804
321.168	15.968	854.985	640.098
322.183	16.005	854.200	639.594
323.197	15.798	854.421	638.918
324.212	15.965	853.651	638.921
325.227	15.955	852.658	638.080
326.241	15.979	852.266	637.821
327.256	16.090	851.623	637.704
328.270	16.108	851.075	637.306
329.285	16.025	850.341	636.384
330.300	16.017	849.873	635.951
331.314	16.004	849.572	635.617
332.329	16.196	848.703	635.636
333.343	15.951	848.929	634.826
334.358	16.153	848.241	635.014
335.373	16.155	847.633	634.513
336.387	16.139	847.087	633.988
337.402	16.033	847.460	633.812
338.416	16.258	846.868	634.159
339.431	16.149	846.460	633.386
340.446	16.167	846.081	633.113
341.460	16.389	845.564	633.506
342.475	16.413	845.057	633.159
343.489	16.400	844.435	632.589
344.504	16.403	843.998	632.214
345.519	16.239	843.573	631.227
346.533	16.367	842.979	631.206
347.548	16.353	842.376	630.647
348.562	16.314	841.887	630.078
349.577	16.313	841.481	629.714
350.592	16.432	841.112	629.828
351.606	16.336	840.239	628.761
352.621	16.375	839.085	627.987
353.635	16.370	838.839	627.726
354.650	16.429	838.104	627.342
355.665	16.358	837.587	626.636
356.679	16.587	836.918	626.930
357.694	16.465	836.306	625.961
358.708	16.519	835.617	625.590
359.723	16.454	835.113	624.919
360.738	16.545	834.505	624.742
361.752	16.694	833.743	624.669
362.767	16.557	833.733	624.099
363.781	16.679	832.843	623.830
364.796	16.626	832.628	623.415
365.810	16.806	832.077	623.614
366.825	16.866	831.499	623.346
367.840	16.848	830.886	622.765
368.854	16.725	830.989	622.332
369.869	16.691	830.564	621.837
370.883	16.748	829.759	621.385
371.898	16.769	829.774	621.420
372.913	16.850	829.173	621.213
373.927	16.786	828.380	620.328
374.942	16.879	827.973	620.308
375.956	16.764	828.002	619.855
376.971	16.989	827.307	620.101
377.986	17.078	826.335	619.645
379.000	16.869	826.274	618.780
380.015	16.953	825.856	618.720
381.029	16.980	825.421	618.437
382.044	17.125	824.413	618.155
383.059	17.059	823.972	617.528
384.073	17.055	823.614	617.190
385.088	17.018	822.564	616.215
386.102	17.045	822.090	615.905
387.117	16.968	821.815	615.365
388.132	17.069	821.036	615.093
389.146	17.035	820.791	614.731
390.161	17.118	820.158	614.505
391.175	17.228	819.583	614.414
392.190	17.092	819.233	613.606
393.205	17.146	818.865	613.473
394.219	16.946	818.766	612.622
395.234	17.057	818.247	612.580
396.248	17.102	817.671	612.258
397.263	16.991	817.359	611.568
398.278	17.035	817.017	611.418
399.292	17.066	816.248	610.901
400.307	17.145	815.836	610.823
401.321	17.089	815.781	610.526
402.336	17.173	815.099	610.263
403.350	17.125	814.591	609.655
404.365	17.169	814.178	609.451
405.380	17.359	813.553	609.609
406.394	17.404	812.904	609.230
407.409	17.412	812.485	608.893
408.423	17.252	812.474	608.256
409.438	17.309	811.846	607.936
410.453	17.442	811.465	608.071
411.467	17.439	810.868	607.562
412.482	17.575	810.484	607.706
413.496	17.490	810.372	607.263
414.511	17.512	810.003	607.012
415.526	17.604	809.453	606.874
416.540	17.503	809.105	606.198
417.555	17.554	808.426	605.819
418.569	17.596	808.038	605.622
419.584	17.690	807.627	605.594
420.599	17.730	806.773	605.043
421.613	113.660	1298.399	1486.427
422.628	98.162	1369.999	1486.497
