DTS Sentinel unit serial number:	SN413079Multiplexer serial number:	ORYXHardware model number:	OX4-SRSoftware version number:	ORYX F/W v4.00 Oryx Data Collector v3.7.2.0data status	okinstallation	princeton_trtdifferential loss correction	single-endedforward channel	channel 1reverse channel	N/Adate	2019/09/16time	20:18:35forward acquisition time	60.00reverse acquisition time	0.00gamma	496.2192k internal	0.2322k external	0.2322temperature offset calibration	0.9952default loss term (dB/km)	0.3790temperature slope calibration	1.0000multiplexer offset coefficient	1.0000multiplexer slope coefficient	1.0000fibre end	0.00T internal ref (°C)	32.87T ext. ref 1 (°C)	0.08T ext. ref 2 (°C)	26.71length (m)	temperature (°C)	Stokes	anti-Stokes-747.200	-200.000	-0.081	0.498
-746.185	-148.459	0.304	0.025
-745.171	-78.594	-0.104	-0.036
-744.156	-107.402	-0.269	0.060
-743.142	-135.773	0.045	-0.005
-742.127	217.700	-0.067	0.108
-741.112	47.867	0.040	-0.038
-740.098	287.085	-0.204	0.373
-739.083	98.919	0.147	0.172
-738.069	39.739	0.139	0.126
-737.054	800.000	-0.132	0.511
-736.039	-110.467	-0.079	0.017
-735.025	-107.018	-0.112	0.025
-734.010	-26.451	0.086	0.051
-732.996	-110.996	-0.296	-0.061
-731.981	4.847	-0.112	0.083
-730.966	800.000	0.039	0.128
-729.952	109.459	0.143	-0.173
-728.937	-154.637	-0.124	-0.008
-727.923	535.642	-0.087	-0.209
-726.908	-72.693	-0.182	-0.068
-725.894	63.175	-0.203	-0.206
-724.879	26.447	0.182	-0.154
-723.864	-46.959	-0.372	0.183
-722.850	-80.578	0.147	0.050
-721.835	-200.000	0.024	-0.273
-720.821	-96.239	-0.294	0.079
-719.806	91.339	-0.096	0.109
-718.791	800.000	-0.093	0.308
-717.777	-200.000	0.009	-0.175
-716.762	10.516	-0.131	-0.101
-715.748	-200.000	0.009	-0.206
-714.733	800.000	-0.057	-0.184
-713.718	218.330	0.104	-0.167
-712.704	321.468	0.059	-0.112
-711.689	800.000	-0.055	-0.188
-710.675	137.712	-0.227	0.299
-709.660	-40.591	-0.129	0.067
-708.645	41.775	-0.184	-0.168
-707.631	-200.000	-0.019	0.131
-706.616	-200.000	0.012	-0.301
-705.602	602.935	0.070	-0.176
-704.587	50.163	-0.185	-0.176
-703.572	79.746	-0.158	0.171
-702.558	-61.344	-0.106	-0.045
-701.543	26.524	-0.204	-0.172
-700.529	800.000	-0.035	0.102
-699.514	-123.198	-0.504	0.081
-698.499	-63.294	-0.534	-0.222
-697.485	540.189	-0.101	-0.242
-696.470	-200.000	-0.028	-0.249
-695.456	-200.000	-0.025	-0.322
-694.441	-200.000	-0.002	-0.209
-693.426	259.817	-0.052	-0.091
-692.412	-96.725	-0.329	0.087
-691.397	-119.429	0.172	-0.030
-690.383	54.032	0.089	-0.086
-689.368	105.984	-0.134	-0.160
-688.354	-84.362	0.338	-0.108
-687.339	-118.504	-0.198	0.035
-686.324	166.916	-0.122	-0.174
-685.310	136.800	-0.049	0.065
-684.295	-200.000	0.009	0.301
-683.281	63.435	-0.052	-0.052
-682.266	640.469	-0.087	0.223
-681.251	-200.000	0.025	-0.339
-680.237	66.431	-0.313	-0.320
-679.222	-200.000	0.076	-0.400
-678.208	-73.576	0.071	0.026
-677.193	89.107	-0.143	0.160
-676.178	441.497	-0.087	-0.193
-675.164	-137.027	-0.179	0.021
-674.149	134.881	-0.138	-0.181
-673.135	-200.000	0.023	-0.395
-672.120	-83.542	0.042	0.014
-671.105	217.611	-0.127	0.204
-670.091	168.949	-0.128	-0.185
-669.076	-200.000	-0.035	-0.531
-668.062	800.000	0.019	0.069
-667.047	800.000	0.055	-0.183
-666.032	-183.540	0.126	0.002
-665.018	-200.000	-0.008	0.168
-664.003	-200.000	-0.000	-0.027
-662.989	100.403	0.232	-0.271
-661.974	197.060	-0.156	-0.239
-660.959	-8.487	0.185	0.125
-659.945	-200.000	0.029	-0.297
-658.930	800.000	0.132	-0.378
-657.916	-145.037	-0.110	0.010
-656.901	197.610	-0.047	0.072
-655.886	216.131	0.128	0.205
-654.872	-164.996	0.229	0.010
-653.857	-200.000	0.063	-0.463
-652.843	-39.975	-0.235	-0.123
-651.828	-200.000	0.015	0.246
-650.814	-200.000	0.024	-0.613
-649.799	-115.787	-0.380	-0.072
-648.784	-21.874	0.219	0.134
-647.770	58.884	0.159	-0.157
-646.755	221.328	-0.197	0.319
-645.741	-200.000	-0.063	-0.445
-644.726	706.364	0.098	-0.259
-643.711	425.182	-0.090	-0.196
-642.697	800.000	-0.190	-0.543
-641.682	-116.558	0.169	-0.031
-640.668	-188.336	-0.319	0.004
-639.653	800.000	-0.048	0.134
-638.638	48.471	0.168	-0.158
-637.624	-200.000	0.011	-0.394
-636.609	-8.182	-0.127	0.086
-635.595	572.899	-0.132	0.324
-634.580	103.912	-0.151	-0.178
-633.565	800.000	-0.025	0.088
-632.551	48.514	-0.347	0.327
-631.536	-128.230	0.338	0.048
-630.522	8.730	-0.147	-0.112
-629.507	800.000	0.027	0.119
-628.492	-77.630	0.168	0.059
-627.478	-200.000	0.028	-0.336
-626.463	800.000	-0.083	0.279
-625.449	454.163	0.090	-0.200
-624.434	103.703	0.086	0.101
-623.419	-91.738	0.164	-0.047
-622.405	152.749	-0.114	-0.156
-621.390	-20.105	-0.094	-0.058
-620.376	-34.208	0.181	-0.100
-619.361	800.000	-0.005	0.015
-618.346	101.906	-0.127	0.149
-617.332	800.000	0.012	0.053
-616.317	-200.000	0.010	-0.209
-615.303	-200.000	-0.040	-0.258
-614.288	-200.000	0.027	-0.236
-613.273	-112.853	-0.112	0.022
-612.259	279.822	-0.208	0.374
-611.244	328.169	0.341	0.659
-610.230	-90.730	-0.325	0.094
-609.215	-200.000	-0.056	0.377
-608.201	-61.992	-0.116	-0.049
-607.186	173.876	-0.163	-0.236
-606.171	91.017	-0.142	0.160
-605.157	-32.714	0.176	-0.098
-604.142	-178.187	-0.080	-0.002
-603.128	-200.000	0.005	0.165
-602.113	-200.000	-0.278	0.000
-601.098	-200.000	0.029	0.251
-600.084	-130.478	-0.260	-0.035
-599.069	40.927	-0.184	0.167
-598.055	-155.455	-0.210	-0.014
-597.040	-61.118	-0.233	0.099
-596.025	800.000	0.036	0.125
-595.011	-200.000	0.000	-0.130
-593.996	-200.000	0.039	0.195
-592.982	-34.098	-0.154	-0.085
-591.967	162.559	-0.093	0.131
-590.952	-200.000	0.059	0.271
-589.938	-57.293	-0.386	0.170
-588.923	438.708	0.193	0.423
-587.909	-60.191	0.512	0.219
-586.894	800.000	0.026	-0.093
-585.879	800.000	0.066	-0.190
-584.865	800.000	0.039	-0.110
-583.850	800.000	-0.014	-0.052
-582.836	-76.323	0.278	0.098
-581.821	-100.801	-0.064	0.016
-580.806	-163.182	0.388	-0.019
-579.792	-112.645	0.194	-0.039
-578.777	358.392	0.050	0.100
-577.763	196.591	0.092	-0.141
-576.748	-28.073	-0.350	0.203
-575.733	800.000	-0.076	-0.248
-574.719	-36.311	0.233	-0.126
-573.704	-24.631	0.041	0.024
-572.690	-149.166	-0.090	0.007
-571.675	491.893	-0.115	0.263
-570.661	800.000	-0.110	0.329
-569.646	184.341	-0.199	0.295
-568.631	-200.000	-0.006	-0.108
-567.617	324.525	0.209	0.401
-566.602	-137.758	0.137	0.015
-565.588	-200.000	-0.018	-0.119
-564.573	-200.000	-0.037	-0.424
-563.558	-200.000	-0.013	0.148
-562.544	-1.917	-0.303	0.214
-561.529	-200.000	0.044	-0.298
-560.515	46.487	0.307	0.286
-559.500	-28.611	0.461	-0.266
-558.485	-200.000	0.048	-0.277
-557.471	636.767	-0.159	-0.405
-556.456	64.110	-0.220	0.222
-555.442	261.317	0.072	-0.126
-554.427	26.856	0.253	-0.213
-553.412	-200.000	-0.028	-0.146
-552.398	-155.505	-0.311	0.020
-551.383	681.201	0.067	0.175
-550.369	-113.732	-0.039	-0.008
-549.354	350.233	0.068	-0.136
-548.339	-106.962	0.348	0.077
-547.325	-117.319	0.043	-0.008
-546.310	1.382	0.288	0.207
-545.296	88.666	-0.146	-0.163
-544.281	-200.000	-0.009	0.062
-543.266	-200.000	0.021	-0.245
-542.252	800.000	-0.072	-0.203
-541.237	-164.338	-0.204	0.009
-540.223	289.198	-0.162	0.294
-539.208	101.673	0.025	0.029
-538.193	-10.325	0.083	-0.055
-537.179	-80.512	-0.225	-0.075
-536.164	800.000	-0.091	0.290
-535.150	511.994	-0.051	0.120
-534.135	-75.962	0.303	0.107
-533.121	-72.427	0.354	-0.131
-532.106	800.000	-0.063	0.253
-531.091	-200.000	0.003	0.134
-530.077	-200.000	-0.065	-0.505
-529.062	38.500	0.290	0.259
-528.048	-65.722	-0.157	0.063
-527.033	800.000	-0.045	-0.138
-526.018	110.722	-0.146	0.176
-525.004	-83.659	0.143	-0.046
-523.989	264.097	-0.174	-0.303
-522.975	800.000	0.022	0.074
-521.960	-131.774	0.234	0.031
-520.945	-200.000	-0.032	0.169
-519.931	-180.142	-0.416	-0.009
-518.916	0.585	0.247	-0.177
-517.902	-200.000	-0.004	0.222
-516.887	141.001	-0.122	-0.162
-515.872	-64.633	0.142	0.058
-514.858	-159.212	-0.196	0.011
-513.843	-200.000	0.067	-0.389
-512.829	-105.200	0.234	-0.053
-511.814	227.869	-0.156	0.254
-510.799	-126.637	0.102	-0.015
-509.785	133.735	0.125	-0.162
-508.770	-43.346	-0.260	-0.132
-507.756	-41.279	0.427	-0.220
-506.741	-75.506	0.066	0.024
-505.726	263.703	-0.090	0.157
-504.712	743.080	0.163	-0.439
-503.697	-200.000	-0.013	0.064
-502.683	-200.000	-0.015	-0.156
-501.668	-200.000	-0.044	0.249
-500.653	190.255	0.034	-0.052
-499.639	-200.000	-0.068	-0.301
-498.624	439.606	0.192	-0.419
-497.610	-0.287	0.230	0.164
-496.595	-148.443	0.315	0.026
-495.581	-92.828	0.454	-0.127
-494.566	-55.216	-0.216	0.097
-493.551	-66.986	0.475	0.188
-492.537	176.025	0.133	0.193
-491.522	194.917	-0.103	-0.156
-490.508	392.720	-0.012	0.025
-489.493	800.000	-0.036	0.100
-488.478	-151.990	0.322	0.023
-487.464	76.075	-0.076	-0.080
-486.449	210.524	-0.048	0.075
-485.435	260.437	0.094	-0.162
-484.420	87.192	-0.033	0.036
-483.405	800.000	-0.048	-0.192
-482.391	-200.000	-0.003	-0.146
-481.376	-172.805	-0.308	0.010
-480.362	44.790	0.219	-0.202
-479.347	181.054	-0.127	-0.187
-478.332	30.032	0.222	0.190
-477.318	-25.462	0.140	-0.083
-476.303	302.822	0.045	0.083
-475.289	42.885	-0.071	0.065
-474.274	251.274	0.163	0.278
-473.259	800.000	0.084	0.308
-472.245	-200.000	0.014	0.141
-471.230	-67.702	0.121	0.047
-470.216	800.000	0.068	0.258
-469.201	-200.000	-0.016	-0.301
-468.186	54.418	-0.100	-0.096
-467.172	182.648	-0.238	-0.350
-466.157	345.358	-0.058	0.115
-465.143	655.543	0.042	0.108
-464.128	-27.278	-0.127	-0.074
-463.113	243.194	0.130	-0.217
-462.099	-200.000	-0.013	0.207
-461.084	95.058	0.063	0.071
-460.070	-5.795	0.178	-0.122
-459.055	-114.285	-0.097	-0.019
-458.040	1.778	-0.274	0.198
-457.026	-196.153	-0.272	0.002
-456.011	-105.182	-0.025	-0.006
-454.997	630.173	-0.134	0.338
-453.982	-85.933	-0.180	0.056
-452.968	800.000	-0.051	-0.207
-451.953	800.000	-0.068	-0.269
-450.938	-200.000	0.034	0.245
-449.924	243.555	-0.100	-0.168
-448.909	314.430	-0.202	-0.380
-447.895	-123.188	0.138	-0.022
-446.880	768.683	0.140	0.380
-445.865	-104.230	0.262	0.061
-444.851	-137.305	-0.500	-0.057
-443.836	261.179	-0.112	0.194
-442.822	-200.000	0.025	-0.141
-441.807	-137.590	-0.153	-0.017
-440.792	800.000	-0.119	0.501
-439.778	-200.000	0.000	-0.225
-438.763	-200.000	0.016	0.115
-437.749	197.920	0.042	-0.064
-436.734	-200.000	0.022	0.099
-435.719	221.760	0.109	-0.176
-434.705	137.452	-0.242	-0.317
-433.690	-81.979	0.228	-0.074
-432.676	-125.645	-0.241	-0.036
-431.661	-30.371	0.149	0.084
-430.646	-200.000	-0.007	-0.194
-429.632	-43.503	-0.300	0.151
-428.617	620.043	-0.056	-0.142
-427.603	-42.386	0.077	-0.039
-426.588	-100.718	-0.030	-0.007
-425.573	800.000	-0.084	0.276
-424.559	495.487	0.109	-0.249
-423.544	-109.358	0.347	0.073
-422.530	800.000	-0.080	0.318
-421.515	-98.394	0.208	0.053
-420.500	800.000	0.120	-0.400
-419.486	426.962	0.077	0.167
-418.471	94.438	0.154	-0.174
-417.457	-34.784	-0.090	0.049
-416.442	174.985	-0.237	-0.343
-415.428	-84.763	0.356	0.112
-414.413	124.140	-0.045	0.056
-413.398	395.560	-0.096	-0.199
-412.384	170.031	0.017	-0.025
-411.369	-104.091	-0.371	-0.086
-410.355	-30.542	0.094	0.053
-409.340	142.479	-0.113	-0.149
-408.325	-9.955	0.220	0.146
-407.311	97.553	-0.112	-0.128
-406.296	-200.000	0.025	0.203
-405.282	-36.654	0.218	0.117
-404.267	-9.856	-0.091	-0.061
-403.252	-27.797	-0.299	-0.173
-402.238	-15.900	-0.140	0.089
-401.223	-59.416	-0.299	0.128
-400.209	800.000	0.047	0.188
-399.194	-54.275	-0.208	0.094
-398.179	307.461	-0.107	-0.199
-397.165	-200.000	0.045	-0.291
-396.150	-47.003	0.029	0.014
-395.136	800.000	-0.045	0.132
-394.121	130.425	0.141	-0.181
-393.106	46.357	0.089	0.083
-392.092	-87.172	0.178	-0.054
-391.077	362.841	0.103	-0.207
-390.063	-45.882	-0.181	0.089
-389.048	-126.520	-0.254	0.038
-388.033	-124.644	0.225	-0.035
-387.019	408.613	0.135	0.284
-386.004	800.000	-0.051	-0.175
-384.990	-88.376	0.041	-0.012
-383.975	-84.023	0.247	-0.078
-382.960	23.180	0.350	-0.286
-381.946	-104.164	-0.184	-0.042
-380.931	-26.036	-0.085	0.050
-379.917	-23.805	0.102	0.061
-378.902	-129.665	0.180	0.025
-377.888	-16.620	-0.227	0.143
-376.873	44.026	0.338	0.309
-375.858	213.472	0.032	0.050
-374.844	640.376	-0.097	0.245
-373.829	800.000	-0.038	-0.117
-372.815	-115.936	0.377	0.070
-371.800	172.828	-0.100	0.143
-370.785	387.127	0.083	0.170
-369.771	-137.180	-0.100	-0.011
-368.756	-36.384	-0.240	-0.129
-367.742	-200.000	0.006	-0.340
-366.727	371.838	-0.031	0.064
-365.712	-116.586	-0.475	-0.087
-364.698	-200.000	0.036	0.504
-363.683	-133.018	0.248	-0.031
-362.669	800.000	0.060	0.166
-361.654	455.938	0.056	-0.123
-360.639	-46.295	-0.384	-0.188
-359.625	-81.828	0.458	0.149
-358.610	87.954	-0.122	-0.134
-357.596	-200.000	0.016	-0.190
-356.581	638.852	0.145	-0.366
-355.566	-107.822	0.204	0.044
-354.552	-18.011	-0.302	0.188
-353.537	-200.000	-0.029	-0.150
-352.523	-183.726	0.203	0.003
-351.508	-115.319	-0.272	0.051
-350.493	-200.000	-0.008	0.077
-349.479	-109.591	-0.207	0.043
-348.464	-200.000	-0.028	0.212
-347.450	91.893	-0.121	0.135
-346.435	-200.000	-0.031	0.154
-345.420	143.634	-0.165	-0.219
-344.406	-29.897	-0.095	-0.054
-343.391	134.521	-0.065	0.083
-342.377	-200.000	0.042	-0.301
-341.362	-200.000	-0.006	0.030
-340.348	-115.001	-0.262	0.049
-339.333	-200.000	-0.025	-0.235
-338.318	64.671	-0.096	-0.096
-337.304	19.435	-0.203	-0.162
-336.289	-200.000	-0.047	-0.455
-335.275	-200.000	-0.009	-0.240
-334.260	-75.175	0.096	0.034
-333.245	-3.975	0.348	0.240
-332.231	-30.232	-0.234	0.132
-331.216	294.209	0.037	0.067
-330.202	-200.000	-0.027	0.131
-329.187	800.000	0.094	-0.274
-328.172	85.424	0.198	-0.216
-327.158	36.998	-0.316	0.278
-326.143	142.055	-0.239	0.315
-325.129	-136.098	0.075	-0.009
-324.114	118.763	-0.105	0.129
-323.099	185.313	0.060	-0.089
-322.085	-146.926	-0.191	-0.016
-321.070	93.801	0.106	0.119
-320.056	-56.997	0.227	-0.100
-319.041	800.000	-0.066	-0.230
-318.026	-119.553	0.120	0.021
-317.012	-200.000	-0.033	0.158
-315.997	-52.990	-0.168	-0.077
-314.983	463.894	-0.155	-0.343
-313.968	26.953	-0.086	0.072
-312.953	235.490	-0.128	0.210
-311.939	-148.332	0.105	-0.009
-310.924	126.122	0.320	0.402
-309.910	25.074	0.242	-0.199
-308.895	796.419	-0.111	0.303
-307.880	-200.000	0.040	-0.523
-306.866	23.297	0.251	-0.205
-305.851	-200.000	-0.024	0.128
-304.837	-4.518	0.245	0.168
-303.822	224.016	-0.226	0.362
-302.807	-52.913	0.140	0.064
-301.793	-112.579	-0.137	0.027
-300.778	104.175	-0.184	-0.215
-299.764	-120.058	-0.175	-0.030
-298.749	-200.000	0.006	0.113
-297.735	-53.384	-0.172	-0.078
-296.720	800.000	-0.121	-0.474
-295.705	-200.000	0.061	-0.282
-294.691	134.448	-0.272	-0.350
-293.676	280.526	0.129	0.228
-292.662	-200.000	-0.034	0.263
-291.647	283.998	-0.210	0.375
-290.632	-80.685	0.159	0.053
-289.618	-70.232	-0.173	-0.065
-288.603	800.000	-0.023	0.083
-287.589	-171.531	-0.253	0.008
-286.574	-154.441	0.171	0.011
-285.559	-92.504	0.444	-0.124
-284.545	800.000	-0.065	0.275
-283.530	-70.798	0.139	-0.052
-282.516	-101.988	-0.124	0.030
-281.501	-74.440	0.076	0.027
-280.486	-133.199	-0.017	0.002
-279.472	800.000	-0.060	0.215
-278.457	-200.000	-0.070	0.364
-277.443	183.790	0.131	0.192
-276.428	86.733	-0.189	-0.207
-275.413	50.517	0.136	0.128
-274.399	11.932	-0.216	0.165
-273.384	-165.315	-0.225	0.010
-272.370	-200.000	-0.004	0.213
-271.355	550.724	0.049	0.116
-270.340	-104.410	-0.351	-0.080
-269.326	-13.300	0.253	-0.163
-268.311	-88.090	-0.103	-0.031
-267.297	-200.000	0.062	-0.464
-266.282	-40.176	-0.123	-0.064
-265.267	263.738	-0.106	-0.183
-264.253	800.000	0.131	0.362
-263.238	593.576	-0.162	0.397
-262.224	-135.703	0.202	0.024
-261.209	-115.884	0.350	0.065
-260.195	-16.115	0.354	-0.223
-259.180	-200.000	-0.039	-0.242
-258.165	800.000	-0.013	0.040
-257.151	-200.000	0.023	-0.261
-256.136	-96.939	-0.235	-0.061
-255.122	-200.000	-0.023	0.554
-254.107	-200.000	0.015	0.127
-253.092	-200.000	-0.015	0.084
-252.078	241.992	0.087	0.145
-251.063	-151.602	-0.386	0.028
-250.049	47.373	0.182	-0.168
-249.034	-200.000	-0.023	-0.424
-248.019	-90.102	-0.330	-0.095
-247.005	637.973	0.102	-0.258
-245.990	-200.000	-0.032	0.140
-244.976	-157.667	0.202	0.012
-243.961	-148.784	0.230	-0.018
-242.946	-120.096	-0.371	0.063
-241.932	-200.000	0.006	-0.177
-240.917	-86.919	-0.133	-0.040
-239.903	-28.435	-0.106	-0.061
-238.888	-94.032	-0.145	-0.039
-237.873	800.000	-0.011	0.035
-236.859	800.000	0.100	0.351
-235.844	117.762	-0.202	-0.247
-234.830	-41.705	-0.215	0.109
-233.815	51.600	-0.076	-0.072
-232.800	-200.000	-0.023	0.213
-231.786	7.378	0.236	-0.175
-230.771	-43.121	0.273	0.137
-229.757	274.113	-0.168	0.295
-228.742	129.749	0.155	-0.196
-227.727	-61.205	0.271	0.113
-226.713	486.569	0.087	-0.196
-225.698	125.437	-0.122	0.153
-224.684	-200.000	0.016	0.215
-223.669	-176.589	0.107	-0.003
-222.655	-200.000	-0.033	0.463
-221.640	-87.994	-0.126	-0.037
-220.625	461.981	-0.041	0.090
-219.611	14.389	-0.221	0.171
-218.596	323.416	0.111	0.209
-217.582	150.278	-0.107	0.144
-216.567	-200.000	0.013	-0.171
-215.552	-161.505	0.260	-0.013
-214.538	800.000	0.081	-0.303
-213.523	-46.842	0.226	-0.110
-212.509	372.194	-0.233	-0.469
-211.494	125.586	-0.206	-0.258
-210.479	-173.576	0.439	-0.013
-209.465	-103.360	-0.058	-0.014
-208.450	-112.725	0.218	0.043
-207.436	44.036	-0.118	-0.107
-206.421	-81.252	-0.077	-0.025
-205.406	91.367	0.161	-0.179
-204.392	800.000	-0.075	0.236
-203.377	-200.000	-0.001	-0.090
-202.363	522.002	0.107	0.248
-201.348	79.028	0.294	0.312
-200.333	32.773	-0.130	-0.111
-199.319	21.540	-0.125	-0.100
-198.304	-200.000	-0.004	0.044
-197.290	100.182	-0.057	0.065
-196.275	-56.912	0.312	-0.136
-195.260	612.863	-0.130	-0.322
-194.246	800.000	0.117	-0.431
-193.231	261.262	-0.082	0.141
-192.217	800.000	0.065	-0.212
-191.202	32.619	0.123	0.105
-190.187	-103.593	0.189	0.044
-189.173	101.225	0.065	0.075
-188.158	373.717	-0.012	-0.025
-187.144	-17.909	0.130	0.081
-186.129	800.000	-0.022	0.092
-185.114	-145.067	0.022	-0.002
-184.100	-200.000	-0.014	0.162
-183.085	-200.000	-0.026	0.162
-182.071	800.000	-0.014	-0.050
-181.056	-200.000	0.018	-0.090
-180.042	800.000	0.036	0.108
-179.027	69.091	-0.079	0.080
-178.012	-200.000	0.038	-0.211
-176.998	163.919	0.169	-0.235
-175.983	17.228	0.187	-0.147
-174.969	-200.000	-0.014	0.164
-173.954	-140.227	0.270	0.028
-172.939	102.213	0.036	-0.042
-171.925	-141.230	-0.228	-0.023
-170.910	-144.442	0.103	0.009
-169.896	641.604	-0.088	0.220
-168.881	234.863	-0.231	-0.376
-167.866	-68.008	0.030	0.012
-166.852	-144.624	0.242	0.022
-165.837	-86.144	-0.257	-0.078
-164.823	800.000	-0.053	0.219
-163.808	-38.779	-0.252	-0.131
-162.793	108.814	0.180	0.213
-161.779	266.373	0.113	0.194
-160.764	-45.339	0.185	-0.091
-159.750	76.772	0.248	-0.259
-158.735	800.000	0.059	0.211
-157.720	185.319	-0.109	-0.159
-156.706	142.727	0.070	0.091
-155.691	800.000	-0.015	0.046
-154.677	-160.338	0.238	-0.013
-153.662	195.507	0.057	-0.085
-152.647	433.961	-0.051	0.110
-151.633	800.000	0.086	0.283
-150.618	-117.727	0.125	-0.022
-149.604	5.465	-0.292	-0.213
-148.589	134.164	-0.181	-0.231
-147.574	-141.031	0.541	0.055
-146.560	-62.530	0.231	-0.095
-145.545	-200.000	0.021	-0.112
-144.531	104.347	0.253	-0.293
-143.516	-85.802	-0.382	0.117
-142.502	-68.965	0.315	0.120
-141.487	-136.781	-0.067	0.008
-140.472	-43.287	-0.444	-0.221
-139.458	-200.000	-0.006	-0.086
-138.443	-133.605	-0.339	0.042
-137.429	-154.623	-0.230	-0.015
-136.414	-43.159	-0.471	-0.236
-135.399	-200.000	0.022	-0.123
-134.385	-200.000	0.008	0.216
-133.370	800.000	0.084	0.244
-132.356	-113.462	-0.276	0.053
-131.341	-200.000	-0.049	-0.336
-130.326	12.776	-0.142	0.108
-129.312	70.439	-0.139	0.142
-128.297	220.253	-0.168	0.265
-127.283	-25.160	0.088	0.052
-126.268	67.203	0.031	0.031
-125.253	800.000	0.051	-0.163
-124.239	196.727	0.156	-0.235
-123.224	23.221	-0.384	0.311
-122.210	715.765	0.065	0.169
-121.195	-200.000	-0.025	0.129
-120.180	-135.624	-0.385	0.045
-119.166	-200.000	0.067	-0.296
-118.151	800.000	0.139	-0.434
-117.137	159.884	0.145	-0.199
-116.122	-1.540	0.108	0.075
-115.107	-29.678	-0.428	-0.241
-114.093	800.000	0.158	0.548
-113.078	470.818	-0.059	-0.131
-112.064	-13.649	0.103	-0.065
-111.049	440.429	-0.071	0.152
-110.034	35.085	0.102	-0.088
-109.020	-14.209	-0.395	0.251
-108.005	-63.775	-0.187	0.076
-106.991	33.495	0.317	0.272
-105.976	364.293	-0.209	0.414
-104.962	111.481	0.105	-0.125
-103.947	122.211	-0.157	0.193
-102.932	-83.906	-0.435	0.136
-101.918	-3.791	0.088	0.060
-100.903	156.724	-0.239	-0.325
-99.889	323.936	-0.100	0.189
-98.874	-174.661	0.084	-0.002
-97.859	-200.000	0.035	-0.193
-96.845	-176.876	-0.314	-0.008
-95.830	800.000	-0.043	-0.140
-94.816	89.349	-0.145	-0.160
-93.801	-200.000	-0.008	0.220
-92.786	-200.000	0.001	0.065
-91.772	189.701	-0.151	0.223
-90.757	37.358	-0.046	0.040
-89.743	27.387	0.121	0.100
-88.728	-191.669	-0.163	-0.002
-87.713	800.000	0.021	-0.063
-86.699	-143.910	0.476	0.044
-85.684	42.874	-0.284	0.255
-84.670	575.003	-0.095	-0.228
-83.655	1.253	-0.056	-0.040
-82.640	-189.117	0.155	0.002
-81.626	39.138	-0.101	0.089
-80.611	-108.499	-0.324	-0.069
-79.597	-62.893	0.294	-0.120
-78.582	295.556	0.179	0.322
-77.567	-78.251	-0.280	0.095
-76.553	-160.956	0.315	-0.016
-75.538	-200.000	-0.007	-0.162
-74.524	-56.510	-0.162	0.071
-73.509	800.000	0.033	-0.099
-72.494	50.062	0.087	0.081
-71.480	309.763	-0.081	-0.148
-70.465	-140.515	-0.114	0.012
-69.451	-26.951	0.096	0.055
-68.436	597.186	0.113	0.275
-67.422	-197.434	0.297	-0.002
-66.407	-173.156	0.274	-0.008
-65.392	-87.183	0.068	0.020
-64.378	800.000	0.054	-0.204
-63.363	357.976	-0.041	0.081
-62.349	-200.000	-0.072	0.586
-61.334	119.190	-0.735	-0.894
-60.319	239.521	0.355	0.581
-59.305	-200.000	-0.143	-0.908
-58.290	62.376	0.972	0.955
-57.276	800.000	0.530	1.626
-56.261	-200.000	93.523	569.195
-55.246	567.172	1361.183	3249.489
-54.232	164.812	2525.234	3504.081
-53.217	113.716	2137.478	2553.683
-52.203	44.501	1605.328	1450.215
-51.188	36.478	1343.549	1165.537
-50.173	33.214	1302.000	1110.323
-49.159	55.727	1347.705	1284.014
-48.144	57.833	1365.254	1313.227
-47.130	36.566	1324.689	1149.511
-46.115	33.124	1307.775	1114.540
-45.100	32.958	1302.377	1108.922
-44.086	32.748	1300.169	1105.765
-43.071	32.704	1298.013	1103.634
-42.057	32.751	1295.979	1102.136
-41.042	32.723	1294.010	1100.255
-40.027	32.772	1292.601	1099.297
-39.013	32.890	1290.330	1098.005
-37.998	32.851	1288.501	1096.179
-36.984	32.822	1286.893	1094.604
-35.969	32.848	1285.356	1093.401
-34.954	33.018	1283.509	1092.768
-33.940	32.831	1282.585	1090.856
-32.925	32.821	1281.644	1089.959
-31.911	32.961	1279.613	1088.997
-30.896	32.983	1277.832	1087.562
-29.881	32.949	1276.823	1086.467
-28.867	33.030	1275.398	1085.673
-27.852	32.960	1274.053	1084.084
-26.838	33.027	1272.724	1083.292
-25.823	32.890	1271.781	1081.664
-24.809	33.017	1269.781	1080.649
-23.794	32.930	1268.674	1079.166
-22.779	33.019	1267.282	1078.448
-21.765	33.043	1265.736	1077.223
-20.750	32.940	1264.356	1075.419
-19.736	32.794	1263.523	1073.841
-18.721	32.793	1262.129	1072.605
-17.706	32.816	1261.417	1072.086
-16.692	32.849	1259.935	1070.973
-15.677	32.844	1259.108	1070.200
-14.663	32.933	1257.928	1069.659
-13.648	32.772	1256.958	1067.880
-12.633	32.775	1256.178	1067.191
-11.619	32.749	1255.381	1066.324
-10.604	32.903	1254.241	1066.186
-9.590	32.841	1253.227	1064.932
-8.575	32.875	1251.992	1064.033
-7.560	32.732	1251.376	1062.658
-6.546	32.763	1250.579	1062.114
-5.531	32.722	1249.503	1060.931
-4.517	32.791	1248.925	1060.785
-3.502	32.812	1247.798	1059.905
-2.487	32.864	1246.925	1059.410
-1.473	32.779	1242.704	1055.307
-0.458	31.122	1227.658	1033.319
0.556	25.267	1210.454	993.007
1.571	21.569	1215.647	976.591
2.586	20.589	1229.862	982.385
3.600	20.062	1219.842	971.344
4.615	14.787	1146.535	885.022
5.629	5.267	1069.231	778.049
6.644	0.510	1047.993	739.267
7.659	-0.043	1045.560	734.782
8.673	-0.042	1044.911	734.267
9.688	-0.114	1043.273	732.698
10.702	0.179	1042.091	733.232
11.717	5.771	1049.298	765.603
12.731	14.524	1060.974	817.105
13.746	17.872	1063.921	835.723
14.761	17.019	1061.879	829.879
15.775	15.893	1060.021	822.849
16.790	14.926	1057.602	816.186
17.804	14.330	1056.204	812.127
18.819	13.983	1055.123	809.535
19.834	13.607	1054.493	807.148
20.848	13.458	1053.234	805.390
21.863	13.162	1052.846	803.580
22.877	12.991	1052.004	802.036
23.892	13.000	1051.521	801.639
24.907	13.052	1050.676	801.176
25.921	13.024	1050.050	800.494
26.936	13.000	1049.033	799.532
27.950	13.090	1048.256	799.304
28.965	13.272	1046.885	799.070
29.980	13.194	1045.475	797.545
30.994	13.304	1044.506	797.266
32.009	13.318	1043.879	796.784
33.023	13.303	1042.719	795.755
34.038	13.257	1041.371	794.436
35.053	13.166	1040.980	793.629
36.067	13.220	1039.913	793.006
37.082	13.177	1039.229	792.205
38.096	13.251	1038.719	792.104
39.111	13.239	1037.400	790.968
40.126	13.021	1036.698	789.320
41.140	13.056	1035.164	788.251
42.155	13.051	1034.718	787.816
43.169	13.012	1033.378	786.542
44.184	12.938	1032.544	785.485
45.199	12.883	1031.619	784.452
46.213	12.973	1030.527	783.976
47.228	13.068	1029.491	783.571
48.242	13.038	1028.595	782.677
49.257	13.087	1027.179	781.765
50.271	13.182	1026.215	781.408
51.286	13.225	1025.798	781.227
52.301	13.130	1024.480	779.703
53.315	13.078	1023.694	778.791
54.330	13.002	1022.921	777.775
55.344	13.010	1021.994	777.040
56.359	13.047	1021.198	776.539
57.374	13.070	1020.365	775.949
58.388	12.959	1019.409	774.631
59.403	13.030	1018.605	774.284
60.417	13.054	1017.810	773.724
61.432	13.021	1016.967	772.862
62.447	12.834	1016.401	771.488
63.461	12.875	1015.480	770.911
64.476	12.881	1014.380	770.036
65.490	12.829	1013.888	769.351
66.505	13.064	1012.955	769.671
67.520	12.995	1012.279	768.769
68.534	12.966	1011.784	768.188
69.549	12.937	1010.849	767.275
70.563	12.934	1010.671	767.056
71.578	12.875	1009.378	765.736
72.593	13.072	1008.265	765.738
73.607	12.856	1008.082	764.527
74.622	12.905	1007.228	764.039
75.636	12.811	1006.417	762.923
76.651	12.916	1006.078	763.086
77.666	12.828	1005.635	762.275
78.680	12.839	1004.669	761.525
79.695	12.876	1003.822	760.985
80.709	12.963	1003.071	760.753
81.724	13.047	1002.663	760.761
82.739	13.061	1001.962	760.224
83.753	13.188	1000.970	759.992
84.768	13.202	1000.596	759.704
85.782	13.188	999.692	758.884
86.797	13.109	999.065	757.979
87.812	13.067	997.792	756.753
88.826	12.925	997.220	755.603
89.841	13.217	995.761	755.766
90.855	13.084	995.210	754.674
91.870	13.243	994.165	754.538
92.884	13.112	993.787	753.587
93.899	13.236	992.514	753.124
94.914	13.196	991.939	752.437
95.928	13.308	990.757	751.984
96.943	13.219	989.966	750.910
97.957	13.180	989.427	750.259
98.972	13.210	988.447	749.583
99.987	13.161	987.762	748.779
101.001	13.196	986.771	748.119
102.016	13.290	985.407	747.442
103.030	13.334	984.740	747.073
104.045	13.139	984.298	745.790
105.060	13.056	983.506	744.749
106.074	13.132	982.309	744.117
107.089	13.056	981.298	742.947
108.103	13.122	980.314	742.431
109.118	13.017	979.685	741.416
110.133	13.019	978.813	740.701
111.147	12.915	978.065	739.605
112.162	13.160	976.880	739.737
113.176	13.021	976.568	738.817
114.191	13.067	975.381	738.058
115.206	13.208	974.920	738.274
116.220	13.116	974.120	737.189
117.235	13.211	972.899	736.625
118.249	13.205	972.681	736.366
119.264	12.979	972.066	734.830
120.279	12.960	971.449	734.213
121.293	13.070	969.913	733.478
122.308	13.083	968.999	732.777
123.322	13.085	968.171	732.098
124.337	12.955	967.325	730.815
125.352	13.108	966.222	730.593
126.366	12.991	965.391	729.387
127.381	13.100	964.370	729.031
128.395	13.065	963.691	728.298
129.410	13.030	962.646	727.290
130.424	13.126	961.353	726.670
131.439	13.195	960.962	726.615
132.454	13.177	960.498	726.119
133.468	13.151	959.336	725.063
134.483	13.302	958.130	724.750
135.497	13.277	957.421	724.040
136.512	13.176	956.623	722.932
137.527	13.170	956.018	722.382
138.541	13.213	955.459	722.086
139.556	13.277	954.246	721.382
140.570	13.301	953.758	721.058
141.585	13.352	953.082	720.702
142.600	13.494	951.841	720.319
143.614	13.402	951.371	719.499
144.629	13.303	950.667	718.471
145.643	13.435	949.593	718.171
146.658	13.305	948.573	716.772
147.673	13.275	947.661	715.888
148.687	13.209	947.185	715.179
149.702	13.279	946.223	714.694
150.716	13.216	945.384	713.728
151.731	13.305	944.726	713.547
152.746	13.342	943.563	712.768
153.760	13.298	943.406	712.398
154.775	13.422	942.711	712.343
155.789	13.446	942.438	712.177
156.804	13.366	941.577	711.116
157.819	13.453	940.877	710.901
158.833	13.394	940.266	710.123
159.848	13.486	939.322	709.742
160.862	13.375	938.611	708.665
161.877	13.375	937.190	707.532
162.892	13.221	936.309	706.145
163.906	13.329	935.322	705.797
164.921	13.354	934.720	705.390
165.935	13.538	933.808	705.421
166.950	13.398	933.125	704.248
167.964	13.448	931.972	703.528
168.979	13.286	931.628	702.517
169.994	13.392	930.715	702.218
171.008	13.434	929.852	701.681
172.023	13.488	928.874	701.111
173.037	13.497	928.660	700.923
174.052	13.575	927.921	700.633
175.067	13.430	927.182	699.402
176.081	13.498	926.363	699.008
177.096	13.455	926.189	698.634
178.110	13.543	925.128	698.144
179.125	13.600	924.863	698.121
180.140	13.487	923.995	696.929
181.154	13.644	923.619	697.247
182.169	13.614	923.131	696.688
183.183	13.796	922.184	696.674
184.198	13.630	921.749	695.589
185.213	13.700	921.055	695.296
186.227	13.775	920.658	695.251
187.242	13.744	919.974	694.543
188.256	13.776	919.074	693.938
189.271	13.733	918.526	693.282
190.286	13.625	917.714	692.155
191.300	13.529	917.135	691.258
192.315	13.606	916.037	690.688
193.329	13.585	915.594	690.206
194.344	13.444	915.493	689.482
195.359	13.661	914.431	689.522
196.373	13.690	913.990	689.249
197.388	13.843	913.493	689.450
198.402	13.885	913.004	689.194
199.417	13.935	912.438	688.915
200.432	14.008	911.431	688.396
201.446	13.966	911.701	688.363
202.461	13.984	910.792	687.692
203.475	14.014	910.244	687.340
204.490	14.027	909.440	686.725
205.504	13.996	908.557	685.871
206.519	14.025	907.840	685.388
207.534	13.866	907.525	684.434
208.548	14.008	906.804	684.415
209.563	13.948	906.328	683.749
210.577	14.068	905.256	683.371
211.592	14.119	904.552	682.991
212.607	14.231	903.749	682.783
213.621	14.230	902.784	681.991
214.636	14.046	902.872	681.241
215.650	14.194	902.046	681.165
216.665	14.149	901.417	680.444
217.680	14.255	900.514	680.135
218.694	14.263	899.794	679.564
219.709	14.186	899.643	679.075
220.723	14.143	898.816	678.216
221.738	14.194	897.907	677.678
222.753	14.119	897.620	677.097
223.767	14.268	896.737	676.976
224.782	14.364	896.520	677.144
225.796	14.326	896.044	676.569
226.811	14.400	894.895	675.942
227.826	14.379	894.009	675.127
228.840	14.265	893.589	674.288
229.855	14.087	892.968	673.040
230.869	14.269	892.302	673.217
231.884	14.337	891.428	672.769
232.899	14.202	890.696	671.615
233.913	14.231	889.994	671.141
234.928	14.233	889.454	670.685
235.942	14.154	888.979	669.947
236.957	14.304	888.105	669.834
237.972	14.351	887.544	669.542
238.986	14.245	887.525	669.040
240.001	14.329	886.412	668.477
241.015	14.316	885.677	667.815
242.030	14.245	885.538	667.364
243.045	14.454	884.877	667.646
244.059	14.357	884.407	666.844
245.074	14.422	883.572	666.415
246.088	14.461	882.952	666.042
247.103	14.556	881.801	665.497
248.117	14.546	881.766	665.371
249.132	14.588	881.366	665.176
250.147	14.626	880.425	664.559
251.161	14.679	879.952	664.355
252.176	14.714	879.418	664.030
253.190	14.589	879.114	663.247
254.205	14.870	877.933	663.413
255.220	14.873	877.255	662.855
256.234	14.698	876.627	661.625
257.249	14.807	876.437	661.855
258.263	14.802	875.484	661.059
259.278	14.845	874.731	660.602
260.293	14.964	874.258	660.655
261.307	14.902	873.455	659.747
262.322	15.014	873.051	659.825
263.336	14.892	872.218	658.656
264.351	15.007	871.231	658.303
265.366	14.983	871.044	658.010
266.380	15.020	870.257	657.501
267.395	15.009	869.531	656.852
268.409	14.981	868.838	656.161
269.424	15.054	868.104	655.835
270.439	14.872	868.018	655.001
271.453	14.968	867.058	654.593
272.468	15.007	866.352	654.153
273.482	15.006	865.955	653.793
274.497	14.953	865.474	653.166
275.512	15.025	864.718	652.815
276.526	15.088	864.274	652.671
277.541	15.052	863.700	652.038
278.555	15.148	863.111	651.911
279.570	15.278	862.708	652.053
280.585	15.036	861.771	650.348
281.599	15.102	860.777	649.795
282.614	15.180	860.066	649.506
283.628	15.267	859.559	649.399
284.643	15.289	859.142	649.112
285.657	15.054	858.738	647.841
286.672	15.224	857.938	647.837
287.687	15.221	857.392	647.354
288.701	15.147	856.675	646.472
289.716	15.397	855.858	646.763
290.730	15.220	855.784	645.966
291.745	15.382	855.195	646.087
292.760	15.380	854.336	645.375
293.774	15.491	853.835	645.364
294.789	15.489	852.706	644.449
295.803	15.468	852.155	643.894
296.818	15.288	851.936	642.983
297.833	15.469	850.843	642.791
298.847	15.467	850.559	642.515
299.862	15.523	849.780	642.082
300.876	15.443	849.411	641.441
301.891	15.462	848.931	641.096
302.906	15.583	848.253	640.986
303.920	15.778	847.558	641.149
304.935	15.576	847.249	640.090
305.949	15.604	846.481	639.560
306.964	15.608	846.106	639.234
307.979	15.530	845.631	638.522
308.993	15.681	844.632	638.285
310.008	15.557	844.493	637.652
311.022	15.539	843.562	636.826
312.037	15.585	843.027	636.540
313.052	15.602	842.519	636.164
314.066	15.551	842.399	635.825
315.081	15.533	841.631	635.118
316.095	15.576	840.823	634.614
317.110	15.613	840.599	634.529
318.125	15.765	839.595	634.288
319.139	15.675	839.356	633.713
320.154	15.696	838.615	633.176
321.168	15.874	838.439	633.660
322.183	15.660	837.895	632.386
323.197	15.667	837.321	631.922
324.212	15.759	836.638	631.699
325.227	15.895	836.000	631.669
326.241	15.669	835.963	630.739
327.256	15.664	835.329	630.186
328.270	15.847	834.182	629.947
329.285	15.715	834.116	629.349
330.300	15.730	833.530	628.909
331.314	15.805	832.878	628.642
332.329	15.929	832.344	628.643
333.343	15.836	832.187	628.124
334.358	15.855	832.230	628.171
335.373	15.828	831.256	627.280
336.387	15.910	830.707	627.116
337.402	15.957	830.837	627.332
338.416	16.109	830.106	627.292
339.431	16.125	829.963	627.187
340.446	16.078	829.253	626.421
341.460	16.193	828.697	626.373
342.475	16.146	828.683	626.132
343.489	16.129	828.164	625.620
344.504	16.171	827.918	625.534
345.519	16.365	827.282	625.717
346.533	16.115	826.751	624.336
347.548	16.182	825.971	623.938
348.562	16.166	825.399	623.392
349.577	16.174	825.039	623.093
350.592	16.253	824.174	622.680
351.606	16.195	823.788	622.116
352.621	16.067	823.419	621.311
353.635	16.196	822.490	621.033
354.650	16.135	821.678	620.141
355.665	16.232	821.351	620.193
356.679	16.517	820.206	620.319
357.694	16.205	820.185	619.103
358.708	16.383	819.399	619.107
359.723	16.319	818.459	618.109
360.738	16.281	818.167	617.693
361.752	16.424	817.719	617.824
362.767	16.373	817.136	617.146
363.781	16.431	816.684	616.959
364.796	16.481	816.124	616.666
365.810	16.395	816.082	616.263
366.825	16.557	815.435	616.312
367.840	16.603	814.944	616.052
368.854	16.515	814.294	615.188
369.869	16.595	814.203	615.356
370.883	16.649	813.638	615.072
371.898	16.569	813.505	614.625
372.913	16.547	812.920	614.046
373.927	16.666	812.405	614.037
374.942	16.638	812.104	613.654
375.956	16.626	811.890	613.392
376.971	16.589	811.627	613.006
377.986	16.723	810.847	612.847
379.000	16.882	810.036	612.757
380.015	16.795	809.624	612.074
381.029	16.619	809.196	611.063
382.044	16.801	808.705	611.296
383.059	16.988	807.696	611.153
384.073	16.808	807.791	610.520
385.088	16.765	806.837	609.592
386.102	16.844	806.063	609.236
387.117	16.751	805.554	608.461
388.132	16.772	805.229	608.239
389.146	16.923	804.738	608.356
390.161	16.853	804.106	607.575
391.175	16.716	804.129	607.047
392.190	16.825	803.652	607.023
393.205	16.850	802.796	606.411
394.219	16.786	802.772	606.110
395.234	16.831	802.574	606.071
396.248	16.767	802.053	605.394
397.263	16.662	801.520	604.562
398.278	16.878	801.106	604.969
399.292	16.914	800.277	604.416
400.307	16.803	799.784	603.596
401.321	16.858	799.659	603.643
402.336	16.932	799.242	603.538
403.350	16.982	798.673	603.231
404.365	17.007	798.201	602.913
405.380	17.045	797.997	602.839
406.394	17.008	797.396	602.200
407.409	17.171	796.745	602.233
408.423	17.220	796.332	602.044
409.438	17.257	796.138	601.972
410.453	17.287	795.485	601.533
411.467	17.432	794.829	601.494
412.482	17.320	794.762	600.996
413.496	17.308	794.631	600.801
414.511	17.303	793.952	600.219
415.526	17.292	793.653	599.898
416.540	17.247	793.027	599.213
417.555	17.434	792.534	599.449
418.569	17.293	792.585	598.936
419.584	17.478	791.812	598.949
420.599	17.503	791.278	598.582
421.613	107.189	1287.058	1456.101
422.628	91.950	1359.302	1456.204
