DTS Sentinel unit serial number:	SN413079Multiplexer serial number:	ORYXHardware model number:	OX4-SRSoftware version number:	ORYX F/W v4.00 Oryx Data Collector v3.7.2.0data status	okinstallation	princeton_trtdifferential loss correction	single-endedforward channel	channel 1reverse channel	N/Adate	2019/09/18time	11:46:35forward acquisition time	60.00reverse acquisition time	0.00gamma	496.2192k internal	0.2325k external	0.2325temperature offset calibration	0.9977default loss term (dB/km)	0.3790temperature slope calibration	1.0000multiplexer offset coefficient	1.0000multiplexer slope coefficient	1.0000fibre end	0.00T internal ref (°C)	31.12T ext. ref 1 (°C)	0.47T ext. ref 2 (°C)	28.38length (m)	temperature (°C)	Stokes	anti-Stokes-747.200	-95.014	-0.192	-0.052
-746.185	162.950	0.245	0.347
-745.171	-23.376	-0.095	0.057
-744.156	51.412	-0.312	0.299
-743.142	-74.581	0.124	0.045
-742.127	-200.000	0.005	-0.047
-741.112	461.933	-0.110	0.247
-740.098	-58.465	-0.105	0.046
-739.083	-200.000	-0.063	-0.359
-738.069	-64.731	-0.150	0.061
-737.054	130.350	-0.064	-0.083
-736.039	-45.488	-0.285	0.142
-735.025	-93.638	0.201	-0.056
-734.010	-21.975	-0.279	-0.171
-732.996	-32.730	0.020	0.011
-731.981	800.000	0.053	0.178
-730.966	-200.000	-0.029	-0.273
-729.952	92.825	0.142	-0.162
-728.937	-20.493	0.151	-0.093
-727.923	-24.675	-0.170	-0.102
-726.908	239.396	-0.201	-0.337
-725.894	-200.000	-0.013	-0.112
-724.879	-35.619	-0.140	0.077
-723.864	28.843	-0.046	-0.039
-722.850	800.000	0.003	0.011
-721.835	21.144	-0.189	-0.154
-720.821	800.000	-0.062	-0.199
-719.806	372.466	0.050	0.102
-718.791	-200.000	-0.011	-0.307
-717.777	447.553	-0.159	-0.354
-716.762	-200.000	-0.020	-0.118
-715.748	-44.020	0.040	-0.020
-714.733	800.000	0.030	0.092
-713.718	-131.175	-0.130	-0.017
-712.704	111.390	0.161	-0.196
-711.689	453.387	0.116	-0.259
-710.675	345.845	-0.090	-0.178
-709.660	343.827	-0.167	0.329
-708.645	-200.000	0.030	-0.138
-707.631	800.000	0.059	0.178
-706.616	89.303	0.126	-0.142
-705.602	163.358	-0.107	-0.151
-704.587	-125.469	-0.143	-0.022
-703.572	-63.703	0.168	-0.069
-702.558	-102.462	0.291	0.070
-701.543	-121.305	0.015	0.002
-700.529	-139.259	-0.265	-0.029
-699.514	-110.640	0.123	0.026
-698.499	134.033	0.131	-0.171
-697.485	557.427	0.083	0.201
-696.470	-93.682	-0.194	-0.054
-695.456	800.000	-0.070	-0.277
-694.441	137.093	0.107	0.140
-693.426	-115.996	0.233	0.044
-692.412	-36.622	0.246	-0.133
-691.397	632.376	-0.031	-0.080
-690.383	70.389	-0.181	-0.189
-689.368	90.254	0.054	-0.061
-688.354	-112.722	-0.045	-0.009
-687.339	800.000	-0.084	0.279
-686.324	800.000	-0.026	0.099
-685.310	130.909	0.167	0.216
-684.295	-145.228	0.205	0.019
-683.281	-189.366	-0.284	-0.003
-682.266	-154.034	0.261	-0.018
-681.251	-200.000	0.003	0.045
-680.237	-200.000	-0.018	-0.259
-679.222	-2.575	-0.144	0.101
-678.208	283.906	-0.094	0.171
-677.193	51.699	0.074	0.071
-676.178	1.406	-0.547	0.396
-675.164	-22.017	-0.128	0.079
-674.149	333.485	0.097	-0.189
-673.135	800.000	-0.014	0.039
-672.120	95.178	0.092	0.105
-671.105	-28.231	0.281	0.163
-670.091	54.113	0.156	-0.151
-669.076	-30.534	-0.203	-0.116
-668.062	-200.000	-0.018	-0.200
-667.047	677.354	0.096	-0.252
-666.032	355.168	-0.065	-0.131
-665.018	-117.603	0.261	-0.047
-664.003	137.559	-0.090	-0.118
-662.989	29.813	-0.133	-0.114
-661.974	-70.716	0.187	0.071
-660.959	35.379	0.022	0.019
-659.945	-81.271	-0.105	-0.035
-658.930	42.144	0.098	0.090
-657.916	-94.738	0.174	-0.047
-656.901	800.000	0.036	0.106
-655.886	-100.427	0.257	0.064
-654.872	-33.282	0.105	0.058
-653.857	-74.029	0.164	-0.060
-652.843	-200.000	0.001	-0.128
-651.828	-16.085	-0.170	0.109
-650.814	800.000	-0.011	-0.039
-649.799	-108.991	0.249	0.053
-648.784	800.000	0.084	0.289
-647.770	-21.600	-0.280	0.171
-646.755	-103.136	-0.299	0.071
-645.741	212.676	0.152	0.242
-644.726	401.784	-0.061	-0.129
-643.711	798.282	-0.094	-0.261
-642.697	800.000	0.036	-0.156
-641.682	220.502	-0.028	-0.045
-640.668	-18.725	-0.221	-0.138
-639.653	-108.290	-0.348	0.076
-638.638	-101.078	0.381	-0.094
-637.624	800.000	-0.110	-0.395
-636.609	106.833	-0.190	-0.227
-635.595	-76.488	0.349	-0.123
-634.580	-147.981	0.124	-0.010
-633.565	252.157	-0.020	0.034
-632.551	-95.526	-0.231	-0.062
-631.536	303.200	-0.121	0.224
-630.522	-138.903	0.462	-0.050
-629.507	96.765	0.059	0.068
-628.492	-200.000	0.004	-0.118
-627.478	255.835	-0.106	-0.182
-626.463	227.231	0.072	-0.118
-625.449	-200.000	0.008	0.067
-624.434	-200.000	-0.013	0.183
-623.419	800.000	0.060	-0.175
-622.405	-53.416	-0.192	0.088
-621.390	84.285	0.122	-0.134
-620.376	346.845	0.030	-0.059
-619.361	109.961	-0.209	0.252
-618.346	796.250	0.009	-0.025
-617.332	-200.000	-0.033	0.179
-616.317	41.677	-0.243	0.221
-615.303	-9.161	-0.276	0.185
-614.288	115.755	-0.083	0.102
-613.273	12.922	-0.321	-0.249
-612.259	-200.000	-0.018	-0.178
-611.244	46.291	-0.193	-0.179
-610.230	-69.889	-0.180	-0.069
-609.215	-200.000	0.039	0.401
-608.201	359.690	0.080	-0.160
-607.186	285.115	-0.137	-0.249
-606.171	-116.172	0.139	-0.026
-605.157	-40.439	0.040	-0.021
-604.142	729.373	-0.046	-0.123
-603.128	466.326	-0.074	-0.166
-602.113	296.733	0.191	-0.352
-601.098	111.415	0.060	-0.073
-600.084	4.016	0.140	-0.102
-599.069	185.936	-0.160	-0.239
-598.055	-139.645	-0.137	-0.015
-597.040	-10.093	0.068	-0.046
-596.025	537.653	-0.174	-0.414
-595.011	175.688	-0.128	0.186
-593.996	-200.000	0.032	-0.266
-592.982	352.972	0.034	-0.068
-591.967	191.183	-0.113	0.171
-590.952	-200.000	-0.017	-0.272
-589.938	177.357	0.051	-0.074
-588.923	-50.087	-0.246	-0.117
-587.909	-174.986	0.023	0.001
-586.894	800.000	0.047	0.203
-585.879	-142.291	0.370	0.037
-584.865	-76.686	-0.106	-0.037
-583.850	-56.670	0.234	-0.104
-582.836	649.284	-0.093	-0.240
-581.821	-200.000	0.004	-0.551
-580.806	394.283	0.056	-0.118
-579.792	330.971	0.085	0.165
-578.777	800.000	0.113	-0.420
-577.763	179.967	-0.241	-0.354
-576.748	-110.381	-0.286	-0.060
-575.733	-113.688	0.024	0.005
-574.719	222.164	0.064	-0.103
-573.704	-200.000	0.034	0.160
-572.690	68.462	-0.175	0.180
-571.675	229.598	-0.095	0.156
-570.661	-200.000	-0.020	-0.113
-569.646	800.000	-0.050	-0.139
-568.631	-20.419	0.252	-0.155
-567.617	-82.690	-0.486	-0.158
-566.602	10.725	0.098	-0.075
-565.588	-200.000	-0.061	-0.558
-564.573	295.560	-0.246	-0.452
-563.558	428.452	0.047	0.102
-562.544	262.367	-0.049	-0.085
-561.529	592.601	0.159	0.393
-560.515	-200.000	0.036	0.364
-559.500	-0.480	0.105	0.075
-558.485	-37.661	0.263	0.140
-557.471	800.000	-0.069	-0.211
-556.456	-101.238	0.217	-0.053
-555.442	180.579	0.137	-0.202
-554.427	-24.205	0.083	-0.050
-553.412	-200.000	-0.012	-0.130
-552.398	-200.000	-0.009	0.152
-551.383	-33.235	-0.145	-0.080
-550.369	800.000	0.017	-0.065
-549.354	-139.562	0.055	0.006
-548.339	-200.000	0.007	0.039
-547.325	-85.815	0.286	0.089
-546.310	-68.290	-0.036	-0.014
-545.296	-162.208	0.171	-0.009
-544.281	421.421	-0.061	-0.131
-543.266	-71.660	0.239	0.090
-542.252	800.000	-0.007	-0.027
-541.237	-151.388	-0.260	-0.019
-540.223	-60.723	0.152	0.064
-539.208	8.006	-0.181	0.136
-538.193	-152.430	0.205	-0.015
-537.179	-1.643	0.135	0.095
-536.164	-114.272	0.236	-0.045
-535.150	-80.937	0.126	-0.042
-534.135	56.310	0.150	0.146
-533.121	-71.936	0.187	-0.069
-532.106	164.147	0.155	0.219
-531.091	-200.000	-0.013	-0.255
-530.077	800.000	-0.028	-0.095
-529.062	754.743	-0.152	-0.412
-528.048	-68.901	0.114	-0.044
-527.033	-200.000	-0.072	0.369
-526.018	-26.238	0.323	-0.190
-525.004	-200.000	-0.022	-0.449
-523.989	243.193	-0.021	0.034
-522.975	-200.000	-0.001	-0.041
-521.960	153.337	-0.036	0.050
-520.945	800.000	0.048	-0.184
-519.931	697.243	0.104	0.273
-518.916	-200.000	-0.034	0.303
-517.902	800.000	-0.023	-0.100
-516.887	-73.298	0.100	0.036
-515.872	13.007	-0.091	-0.071
-514.858	680.959	0.090	0.235
-513.843	104.572	0.067	-0.079
-512.829	140.186	-0.201	-0.265
-511.814	-200.000	-0.004	-0.143
-510.799	-200.000	0.053	0.410
-509.785	87.098	0.129	-0.143
-508.770	-181.699	0.127	0.002
-507.756	224.589	0.137	0.222
-506.741	188.746	0.153	-0.229
-505.726	465.360	-0.130	-0.291
-504.712	131.999	-0.154	-0.198
-503.697	-153.533	-0.318	-0.022
-502.683	800.000	-0.050	-0.149
-501.668	-173.561	-0.228	-0.007
-500.653	-4.374	-0.195	-0.135
-499.639	294.348	-0.037	0.068
-498.624	292.341	0.080	-0.146
-497.610	-163.136	0.043	0.002
-496.595	46.126	-0.186	0.172
-495.581	-200.000	0.027	-0.181
-494.566	-73.447	0.235	-0.086
-493.551	623.663	-0.051	0.129
-492.537	190.495	-0.109	-0.164
-491.522	64.266	-0.212	0.213
-490.508	2.849	-0.224	0.162
-489.493	-12.764	0.117	0.076
-488.478	-120.661	-0.356	-0.060
-487.464	800.000	-0.073	-0.254
-486.449	261.963	0.100	0.173
-485.435	214.911	0.114	0.181
-484.420	-141.731	0.073	0.007
-483.405	-79.765	0.197	0.066
-482.391	-68.431	-0.168	-0.065
-481.376	-200.000	-0.005	-0.048
-480.362	-172.723	-0.221	-0.007
-479.347	79.321	-0.426	0.456
-478.332	800.000	-0.072	0.269
-477.318	-200.000	0.003	0.000
-476.303	-137.615	0.215	-0.024
-475.289	349.743	0.052	0.102
-474.274	45.051	-0.157	-0.145
-473.259	25.447	-0.225	0.187
-472.245	786.705	0.044	0.120
-471.230	307.306	0.089	0.166
-470.216	383.618	0.071	0.145
-469.201	557.082	-0.169	0.408
-468.186	73.126	-0.236	-0.246
-467.172	-154.895	-0.045	-0.003
-466.157	-170.917	-0.250	0.009
-465.143	-66.233	0.190	0.075
-464.128	272.987	0.092	0.162
-463.113	-200.000	0.019	-0.180
-462.099	-32.950	-0.358	0.198
-461.084	-27.034	0.172	0.100
-460.070	-30.439	0.240	0.136
-459.055	21.768	0.233	0.189
-458.040	-200.000	-0.127	-0.614
-457.026	-30.136	0.162	0.092
-456.011	-94.163	-0.328	-0.090
-454.997	48.996	-0.248	-0.232
-453.982	-123.931	-0.078	-0.012
-452.968	-200.000	-0.059	-0.375
-451.953	31.559	-0.325	0.279
-450.938	800.000	-0.057	-0.189
-449.924	-21.725	-0.144	-0.088
-448.909	367.625	0.057	-0.114
-447.895	70.997	0.159	-0.164
-446.880	-15.588	0.089	-0.057
-445.865	442.420	0.053	-0.115
-444.851	499.207	-0.160	-0.368
-443.836	199.110	-0.103	-0.158
-442.822	-194.975	0.099	-0.001
-441.807	-99.404	0.208	0.052
-440.792	-200.000	0.056	-0.409
-439.778	-41.983	-0.228	-0.116
-438.763	51.326	0.072	0.068
-437.749	548.044	0.150	0.359
-436.734	-9.954	-0.253	-0.168
-435.719	-104.028	0.379	-0.088
-434.705	-76.855	-0.198	0.069
-433.690	-109.567	-0.260	-0.055
-432.676	-200.000	0.023	0.162
-431.661	-36.641	-0.125	0.067
-430.646	238.006	0.066	-0.109
-429.632	-200.000	0.014	0.091
-428.617	10.547	-0.242	0.184
-427.603	-144.701	0.283	0.026
-426.588	-0.822	0.257	0.181
-425.573	-133.934	-0.161	-0.020
-424.559	22.586	0.028	0.023
-423.544	79.288	0.198	0.211
-422.530	-200.000	0.001	0.222
-421.515	-109.689	0.068	0.014
-420.500	800.000	0.107	-0.384
-419.486	411.282	0.074	0.157
-418.471	249.362	-0.093	-0.157
-417.457	536.543	0.092	-0.217
-416.442	-2.336	-0.056	0.039
-415.428	800.000	0.063	0.186
-414.413	265.788	-0.142	-0.246
-413.398	404.710	0.093	-0.196
-412.384	-200.000	0.073	-0.382
-411.369	-141.828	0.261	0.026
-410.355	-200.000	-0.065	0.458
-409.340	800.000	-0.043	0.147
-408.325	-117.155	0.223	0.040
-407.311	436.888	0.052	-0.113
-406.296	-19.161	-0.206	-0.128
-405.282	-200.000	-0.000	-0.152
-404.267	91.434	0.057	0.063
-403.252	155.728	0.142	0.195
-402.238	-200.000	-0.004	0.371
-401.223	-50.354	-0.204	-0.096
-400.209	-200.000	-0.006	0.257
-399.194	96.933	0.187	0.213
-398.179	-39.337	0.050	0.026
-397.165	-2.818	-0.238	-0.165
-396.150	206.097	-0.219	0.339
-395.136	88.415	0.322	0.356
-394.121	-97.697	0.217	0.056
-393.106	-200.000	0.008	0.062
-392.092	517.557	-0.220	-0.513
-391.077	-83.867	0.071	0.023
-390.063	-8.588	-0.109	-0.073
-389.048	127.394	-0.107	-0.136
-388.033	-200.000	-0.037	-0.254
-387.019	466.322	-0.045	-0.101
-386.004	-200.000	-0.008	0.118
-384.990	-200.000	-0.011	-0.206
-383.975	-200.000	0.033	-0.145
-382.960	-200.000	0.011	-0.219
-381.946	800.000	-0.045	-0.154
-380.931	800.000	0.101	0.298
-379.917	-155.519	-0.150	0.010
-378.902	-200.000	-0.030	-0.201
-377.888	87.388	0.102	-0.113
-376.873	-200.000	-0.045	0.273
-375.858	-46.926	0.267	0.130
-374.844	211.366	-0.073	0.114
-373.829	259.942	0.186	-0.319
-372.815	44.387	0.341	0.312
-371.800	89.689	-0.075	-0.084
-370.785	188.879	0.133	0.198
-369.771	-200.000	-0.005	-0.085
-368.756	311.339	0.067	0.124
-367.742	228.397	-0.030	-0.048
-366.727	37.772	0.082	-0.072
-365.712	-200.000	-0.003	-0.073
-364.698	-200.000	-0.003	-0.047
-363.683	648.746	0.049	-0.126
-362.669	591.774	-0.072	0.176
-361.654	162.948	0.049	-0.069
-360.639	-142.764	0.174	0.017
-359.625	21.987	-0.076	0.061
-358.610	-200.000	-0.043	0.340
-357.596	17.162	0.260	0.205
-356.581	-133.936	0.256	0.032
-355.566	-200.000	-0.038	0.188
-354.552	16.646	-0.125	-0.098
-353.537	318.345	-0.161	-0.302
-352.523	64.170	-0.239	-0.239
-351.508	-200.000	0.100	0.537
-350.493	800.000	0.057	0.194
-349.479	-27.675	0.126	0.073
-348.464	-200.000	0.039	-0.288
-347.450	-200.000	0.093	0.503
-346.435	282.382	-0.122	0.218
-345.420	47.770	-0.166	-0.154
-344.406	-12.564	0.299	-0.194
-343.391	-60.135	0.267	0.113
-342.377	557.731	0.093	-0.222
-341.362	69.516	-0.108	0.110
-340.348	155.668	0.060	-0.082
-339.333	-148.294	-0.193	-0.016
-338.318	82.249	0.079	-0.085
-337.304	-140.647	-0.289	-0.030
-336.289	-200.000	0.023	-0.145
-335.275	-159.155	-0.215	-0.012
-334.260	-137.520	0.302	-0.034
-333.245	51.385	0.148	0.140
-332.231	-165.881	0.368	0.016
-331.216	800.000	0.046	0.143
-330.202	84.048	0.318	0.345
-329.187	-200.000	0.022	0.212
-328.172	37.414	-0.209	-0.184
-327.158	-34.878	0.113	0.061
-326.143	-178.052	-0.250	-0.006
-325.129	-121.192	0.137	0.023
-324.114	-115.046	-0.320	0.060
-323.099	-36.406	-0.113	-0.060
-322.085	445.834	-0.113	0.246
-321.070	800.000	-0.085	-0.251
-320.056	-158.998	-0.091	0.005
-319.041	-200.000	-0.024	-0.247
-318.026	-107.772	-0.291	0.063
-317.012	-183.121	0.202	0.004
-315.997	542.109	-0.067	0.158
-314.983	-6.577	0.265	0.179
-313.968	42.028	0.159	0.143
-312.953	-54.312	-0.160	-0.072
-311.939	-200.000	-0.010	0.103
-310.924	436.584	-0.084	-0.181
-309.910	-109.341	0.085	-0.018
-308.895	365.574	0.181	-0.362
-307.880	28.899	-0.046	0.038
-306.866	130.173	0.231	0.294
-305.851	800.000	0.063	-0.187
-304.837	-113.487	-0.082	0.016
-303.822	-200.000	-0.046	-0.510
-302.807	800.000	0.089	-0.263
-301.793	-200.000	-0.030	-0.210
-300.778	6.185	-0.344	-0.253
-299.764	-2.830	-0.156	0.108
-298.749	-200.000	-0.001	0.186
-297.735	-52.760	-0.266	-0.122
-296.720	-31.442	-0.205	0.115
-295.705	-110.229	0.356	0.073
-294.691	57.992	-0.135	0.131
-293.676	-28.705	0.221	0.126
-292.662	39.121	-0.133	0.118
-291.647	358.956	-0.098	0.194
-290.632	-164.142	-0.133	-0.006
-289.618	-200.000	-0.001	0.186
-288.603	-200.000	0.020	-0.161
-287.589	409.218	0.030	-0.064
-286.574	0.530	-0.166	-0.118
-285.559	-200.000	-0.018	0.174
-284.545	-96.597	0.065	0.017
-283.530	5.637	-0.065	-0.047
-282.516	4.842	0.158	0.115
-281.501	-15.473	-0.312	-0.197
-280.486	-3.278	0.102	-0.070
-279.472	-19.850	0.031	-0.019
-278.457	406.254	0.242	0.507
-277.443	431.254	-0.034	0.073
-276.428	-200.000	-0.024	-0.333
-275.413	64.250	0.064	-0.063
-274.399	-200.000	0.024	-0.562
-273.384	-200.000	-0.016	-0.214
-272.370	-130.214	0.040	-0.005
-271.355	9.466	0.161	0.121
-270.340	85.636	-0.172	0.187
-269.326	315.924	0.138	-0.259
-268.311	460.238	-0.025	-0.055
-267.297	-79.747	0.212	-0.071
-266.282	13.289	0.160	0.123
-265.267	-200.000	-0.024	-0.227
-264.253	769.865	-0.092	-0.249
-263.238	63.798	-0.177	0.177
-262.224	-84.471	-0.176	-0.055
-261.209	-105.298	0.208	0.047
-260.195	800.000	-0.117	-0.486
-259.180	-200.000	0.065	0.427
-258.165	-133.985	0.340	0.042
-257.151	283.717	0.138	0.246
-256.136	360.379	-0.137	-0.272
-255.122	-200.000	-0.003	-0.127
-254.107	-200.000	-0.003	0.096
-253.092	-88.187	0.213	-0.063
-252.078	-200.000	-0.013	0.088
-251.063	455.282	0.057	-0.126
-250.049	-200.000	-0.057	0.247
-249.034	44.148	0.136	0.123
-248.019	104.806	-0.099	0.115
-247.005	-200.000	-0.033	0.239
-245.990	36.482	0.279	0.243
-244.976	-200.000	0.005	-0.144
-243.961	800.000	-0.084	-0.260
-242.946	181.263	0.075	-0.110
-241.932	124.467	-0.050	-0.062
-240.917	-101.616	0.276	-0.066
-239.903	-200.000	-0.024	0.275
-238.888	-200.000	-0.083	-0.394
-237.873	668.591	-0.157	0.401
-236.859	-84.021	0.194	-0.061
-235.844	0.218	0.347	0.245
-234.830	147.889	-0.140	-0.187
-233.815	58.011	0.089	0.086
-232.800	-200.000	-0.010	0.055
-231.786	800.000	0.077	0.244
-230.771	98.310	-0.144	0.164
-229.757	-130.873	0.244	0.032
-228.742	-200.000	-0.008	0.058
-227.727	211.607	0.141	0.219
-226.713	398.287	0.067	-0.139
-225.698	-200.000	0.048	-0.233
-224.684	-200.000	-0.015	0.254
-223.669	800.000	-0.020	-0.070
-222.655	-106.363	-0.157	-0.035
-221.640	71.982	0.306	0.315
-220.625	-200.000	0.084	0.418
-219.611	786.771	0.115	0.311
-218.596	800.000	0.018	0.071
-217.582	-200.000	0.060	0.317
-216.567	754.609	-0.120	0.321
-215.552	114.468	0.083	0.100
-214.538	22.771	-0.014	-0.011
-213.523	-200.000	0.030	0.176
-212.509	642.161	0.014	0.036
-211.494	356.013	-0.017	0.034
-210.479	47.388	0.152	-0.140
-209.465	-89.604	0.046	-0.013
-208.450	157.397	0.085	0.116
-207.436	-149.288	-0.145	-0.011
-206.421	202.502	0.077	-0.117
-205.406	-87.607	0.339	-0.101
-204.392	53.252	-0.200	0.190
-203.377	-200.000	0.014	0.249
-202.363	-179.101	-0.231	0.005
-201.348	-200.000	-0.003	-0.302
-200.333	773.174	0.080	0.215
-199.319	479.309	0.153	-0.343
-198.304	14.926	0.074	0.057
-197.290	-26.476	-0.273	0.158
-196.275	48.557	-0.122	0.113
-195.260	800.000	-0.063	0.244
-194.246	507.205	-0.066	0.152
-193.231	-126.494	0.427	0.063
-192.217	41.351	0.194	0.173
-191.202	142.317	-0.043	-0.057
-190.187	-131.195	-0.236	-0.031
-189.173	43.572	0.113	0.102
-188.158	-0.070	-0.200	0.140
-187.144	-99.444	-0.341	-0.085
-186.129	-68.244	-0.227	0.087
-185.114	695.410	-0.055	0.143
-184.100	157.393	0.200	0.273
-183.085	800.000	0.031	-0.118
-182.071	-52.249	-0.138	0.063
-181.056	286.201	0.087	0.156
-180.042	448.105	0.108	0.234
-179.027	-2.882	0.169	0.116
-178.012	-29.119	0.252	0.143
-176.998	800.000	-0.144	-0.400
-175.983	800.000	0.062	-0.197
-174.969	-155.537	0.254	0.016
-173.954	4.025	-0.072	-0.052
-172.939	131.917	-0.192	0.244
-171.925	193.764	0.075	0.111
-170.910	25.600	0.150	0.123
-169.896	53.509	-0.264	0.249
-168.881	-8.169	-0.115	0.076
-167.866	-90.171	-0.235	-0.068
-166.852	-71.407	0.068	-0.025
-165.837	800.000	0.108	0.362
-164.823	-88.808	-0.246	-0.072
-163.808	171.629	0.075	0.106
-162.793	84.728	-0.155	0.167
-161.779	384.320	-0.124	0.253
-160.764	-99.310	0.070	0.018
-159.750	-200.000	0.008	-0.118
-158.735	-200.000	-0.010	0.228
-157.720	328.591	-0.131	-0.248
-156.706	351.658	-0.204	-0.398
-155.691	16.404	-0.203	0.158
-154.677	-200.000	-0.006	-0.040
-153.662	-53.421	-0.076	-0.034
-152.647	48.424	-0.042	0.038
-151.633	800.000	-0.064	0.176
-150.618	124.954	0.195	-0.242
-149.604	-142.559	-0.045	0.004
-148.589	-84.289	0.229	0.072
-147.574	-200.000	-0.015	-0.279
-146.560	-126.364	0.060	0.009
-145.545	-156.020	0.254	-0.016
-144.531	-134.398	0.508	0.061
-143.516	-28.563	-0.118	0.067
-142.502	-89.014	0.204	0.059
-141.487	344.223	-0.058	0.113
-140.472	-108.245	-0.107	-0.023
-139.458	-54.640	-0.230	-0.103
-138.443	-84.496	-0.205	-0.064
-137.429	-200.000	-0.020	0.446
-136.414	-53.636	-0.120	0.054
-135.399	-200.000	-0.007	-0.093
-134.385	247.684	-0.039	-0.065
-133.370	207.068	-0.138	-0.212
-132.356	-133.002	0.053	0.007
-131.341	-16.080	-0.444	-0.278
-130.326	800.000	-0.063	-0.176
-129.312	800.000	0.025	-0.087
-128.297	127.626	0.080	0.100
-127.283	-69.466	-0.272	-0.103
-126.268	-23.429	0.250	0.148
-125.253	800.000	0.080	-0.312
-124.239	-77.306	-0.313	-0.107
-123.224	-200.000	-0.024	0.246
-122.210	-32.550	0.083	-0.046
-121.195	73.844	-0.183	0.188
-120.180	-91.741	-0.203	0.057
-119.166	636.074	-0.154	0.385
-118.151	800.000	0.082	0.265
-117.137	-97.132	0.181	0.047
-116.122	288.448	0.153	-0.273
-115.107	800.000	0.052	0.210
-114.093	-144.639	0.254	-0.023
-113.078	118.857	0.090	-0.109
-112.064	-87.228	0.095	0.029
-111.049	-150.068	-0.148	0.011
-110.034	50.668	-0.092	-0.086
-109.020	800.000	-0.051	-0.191
-108.005	24.877	-0.084	0.069
-106.991	-153.625	0.299	0.020
-105.976	-11.136	-0.112	0.073
-104.962	-102.224	-0.254	-0.060
-103.947	-58.857	0.148	-0.063
-102.932	-200.000	0.000	0.084
-101.918	-200.000	-0.006	0.034
-100.903	186.643	0.180	-0.264
-99.889	-141.770	0.271	-0.027
-98.874	-15.664	0.377	-0.237
-97.859	-81.709	0.218	-0.070
-96.845	641.636	0.095	-0.237
-95.830	52.172	-0.211	-0.198
-94.816	-200.000	0.011	0.117
-93.801	46.933	0.213	-0.195
-92.786	309.243	0.025	-0.045
-91.772	800.000	0.064	-0.244
-90.757	-200.000	0.020	0.132
-89.743	796.669	-0.149	0.403
-88.728	97.315	0.282	0.318
-87.713	127.488	0.175	-0.218
-86.699	444.940	0.151	0.327
-85.684	-131.876	0.055	0.007
-84.670	655.537	0.075	0.189
-83.655	-200.000	-0.006	0.178
-82.640	-111.296	0.289	-0.058
-81.626	800.000	0.072	0.260
-80.611	371.366	-0.068	0.135
-79.597	-168.994	-0.287	0.011
-78.582	73.643	-0.104	0.107
-77.567	-154.009	-0.344	0.023
-76.553	-29.368	0.267	-0.150
-75.538	431.648	0.024	-0.050
-74.524	335.756	0.174	0.331
-73.509	-92.074	-0.228	-0.063
-72.494	-96.232	0.079	-0.021
-71.480	-42.100	-0.232	-0.117
-70.465	-200.000	-0.002	-0.061
-69.451	-200.000	-0.122	-0.595
-68.436	-144.805	0.256	-0.023
-67.422	-72.103	-0.307	0.112
-66.407	-84.022	0.192	0.060
-65.392	-93.188	0.046	0.013
-64.378	-107.965	-0.175	-0.037
-63.363	3.016	0.186	-0.133
-62.349	-88.052	0.275	0.081
-61.334	71.811	-1.026	-1.048
-60.319	-62.761	0.547	0.223
-59.305	-200.000	-0.076	-1.053
-58.290	144.978	0.638	0.838
-57.276	381.835	0.710	1.433
-56.261	-200.000	96.054	571.209
-55.246	500.964	1415.336	3208.892
-54.232	153.187	2613.451	3512.379
-53.217	110.956	2188.709	2588.109
-52.203	43.435	1630.306	1463.472
-51.188	34.811	1360.415	1168.707
-50.173	31.527	1318.108	1112.824
-49.159	54.442	1365.270	1291.677
-48.144	55.763	1382.469	1315.875
-47.130	34.906	1341.130	1152.531
-46.115	31.371	1323.574	1116.332
-45.100	31.185	1318.689	1111.058
-44.086	31.138	1316.292	1108.716
-43.071	31.037	1314.172	1106.288
-42.057	31.115	1311.829	1104.732
-41.042	30.994	1310.483	1102.840
-40.027	31.063	1308.665	1101.673
-39.013	30.982	1307.891	1100.498
-37.998	31.085	1305.286	1098.868
-36.984	31.161	1303.521	1097.789
-35.969	31.156	1301.844	1096.300
-34.954	31.147	1300.401	1094.994
-33.940	31.185	1299.035	1094.019
-32.925	31.211	1297.342	1092.704
-31.911	31.237	1296.175	1091.831
-30.896	31.267	1294.545	1090.585
-29.881	31.319	1293.280	1089.782
-28.867	31.202	1291.891	1087.885
-27.852	31.168	1290.363	1086.358
-26.838	31.228	1289.172	1085.664
-25.823	31.243	1287.881	1084.619
-24.809	31.255	1285.998	1083.058
-23.794	31.210	1284.859	1081.799
-22.779	31.204	1283.345	1080.443
-21.765	31.089	1282.521	1079.043
-20.750	31.196	1280.963	1078.309
-19.736	31.198	1279.324	1076.897
-18.721	31.186	1278.077	1075.735
-17.706	31.205	1276.932	1074.839
-16.692	31.081	1276.000	1073.295
-15.677	31.023	1274.930	1072.018
-14.663	30.966	1274.103	1070.956
-13.648	31.047	1272.736	1070.226
-12.633	31.017	1271.825	1069.250
-11.619	31.118	1270.426	1068.606
-10.604	31.016	1269.847	1067.496
-9.590	30.981	1269.076	1066.606
-8.575	31.047	1267.966	1066.004
-7.560	30.994	1267.527	1065.289
-6.546	30.985	1266.239	1064.115
-5.531	31.076	1265.436	1063.918
-4.517	31.031	1264.306	1062.669
-3.502	31.054	1263.693	1062.244
-2.487	31.062	1262.757	1061.461
-1.473	31.077	1258.624	1058.026
-0.458	30.159	1244.006	1040.548
0.556	25.413	1227.713	1004.337
1.571	21.796	1233.620	988.719
2.586	20.753	1247.531	993.829
3.600	19.881	1235.496	979.225
4.615	14.586	1161.016	891.878
5.629	5.326	1083.505	785.881
6.644	0.878	1062.239	748.424
7.659	0.336	1060.214	744.255
8.673	0.356	1059.546	743.818
9.688	0.302	1058.213	742.549
10.702	0.710	1056.423	743.234
11.717	5.850	1063.517	773.555
12.731	14.113	1073.996	822.110
13.746	17.316	1077.245	840.381
14.761	16.998	1076.554	838.195
15.775	16.112	1074.688	832.296
16.790	15.337	1072.727	826.886
17.804	14.563	1071.229	821.847
18.819	14.128	1070.295	818.916
19.834	13.890	1069.119	816.774
20.848	13.683	1068.060	814.874
21.863	13.407	1067.173	812.768
22.877	13.187	1066.412	811.039
23.892	13.261	1065.443	810.592
24.907	13.131	1065.555	809.970
25.921	13.286	1064.513	809.866
26.936	13.340	1063.236	809.088
27.950	13.365	1062.331	808.447
28.965	13.307	1061.276	807.291
29.980	13.449	1059.827	806.810
30.994	13.598	1058.713	806.617
32.009	13.511	1058.097	805.651
33.023	13.486	1056.754	804.435
34.038	13.390	1056.060	803.368
35.053	13.325	1055.327	802.427
36.067	13.377	1054.296	801.824
37.082	13.394	1053.686	801.373
38.096	13.411	1052.893	800.779
39.111	13.369	1051.837	799.702
40.126	13.346	1050.681	798.642
41.140	13.270	1049.505	797.311
42.155	13.247	1048.528	796.388
43.169	13.215	1047.885	795.673
44.184	13.216	1046.575	794.613
45.199	13.162	1045.698	793.621
46.213	13.299	1044.475	793.276
47.228	13.342	1043.584	792.736
48.242	13.286	1042.153	791.311
49.257	13.356	1041.231	790.876
50.271	13.279	1040.703	790.039
51.286	13.356	1039.922	789.740
52.301	13.393	1038.718	788.934
53.315	13.308	1037.861	787.808
54.330	13.224	1036.554	786.346
55.344	13.329	1035.809	786.210
56.359	13.354	1035.109	785.731
57.374	13.426	1034.069	785.209
58.388	13.227	1033.675	783.899
59.403	13.177	1032.664	782.827
60.417	13.167	1032.133	782.306
61.432	13.254	1031.181	781.929
62.447	13.027	1030.939	780.600
63.461	13.231	1029.323	780.274
64.476	13.209	1028.390	779.391
65.490	13.155	1027.801	778.624
66.505	13.220	1027.421	778.572
67.520	13.259	1026.534	778.016
68.534	13.227	1025.732	777.187
69.549	13.272	1025.162	776.899
70.563	13.233	1023.980	775.751
71.578	13.157	1023.416	774.897
72.593	13.183	1022.546	774.293
73.607	13.191	1021.687	773.611
74.622	13.125	1021.510	773.102
75.636	13.215	1020.295	772.533
76.651	13.190	1019.800	771.973
77.666	13.110	1018.986	770.913
78.680	13.290	1018.220	771.105
79.695	13.282	1017.935	770.786
80.709	13.191	1017.465	769.936
81.724	13.212	1016.745	769.421
82.739	13.191	1016.172	768.824
83.753	13.306	1015.105	768.481
84.768	13.459	1013.584	767.974
85.782	13.423	1013.369	767.574
86.797	13.435	1011.793	766.367
87.812	13.312	1011.545	765.543
88.826	13.269	1010.211	764.267
89.841	13.265	1009.575	763.701
90.855	13.439	1008.352	763.509
91.870	13.449	1007.868	763.123
92.884	13.344	1007.411	762.224
93.899	13.400	1006.008	761.351
94.914	13.406	1005.253	760.743
95.928	13.530	1004.348	760.559
96.943	13.442	1003.535	759.474
97.957	13.405	1002.781	758.664
98.972	13.560	1001.548	758.376
99.987	13.442	1001.045	757.388
101.001	13.379	1000.392	756.536
102.016	13.503	999.274	756.192
103.030	13.397	998.369	754.954
104.045	13.409	997.682	754.426
105.060	13.366	996.947	753.605
106.074	13.302	996.291	752.752
107.089	13.269	995.419	751.876
108.103	13.246	994.618	751.103
109.118	13.201	993.383	749.897
110.133	13.361	992.463	749.861
111.147	13.284	991.561	748.766
112.162	13.374	990.476	748.285
113.176	13.273	989.918	747.341
114.191	13.438	989.046	747.362
115.206	13.468	988.133	746.742
116.220	13.500	987.112	746.051
117.235	13.433	986.395	745.138
118.249	13.292	985.774	743.969
119.264	13.386	984.923	743.684
120.279	13.371	984.285	743.072
121.293	13.525	983.065	742.773
122.308	13.355	982.725	741.687
123.322	13.392	981.551	740.903
124.337	13.322	980.567	739.779
125.352	13.485	979.280	739.472
126.366	13.383	977.980	737.973
127.381	13.439	977.559	737.839
128.395	13.380	976.566	736.759
129.410	13.331	975.799	735.898
130.424	13.381	974.931	735.400
131.439	13.460	974.194	735.133
132.454	13.491	973.141	734.410
133.468	13.493	972.305	733.721
134.483	13.394	971.365	732.509
135.497	13.536	970.421	732.358
136.512	13.389	969.514	730.961
137.527	13.475	968.497	730.512
138.541	13.450	968.284	730.175
139.556	13.378	967.929	729.524
140.570	13.433	967.079	729.063
141.585	13.540	966.238	728.834
142.600	13.551	965.057	727.926
143.614	13.611	964.416	727.643
144.629	13.713	963.432	727.285
145.643	13.610	962.566	726.113
146.658	13.623	961.226	725.098
147.673	13.572	960.678	724.395
148.687	13.577	959.542	723.498
149.702	13.526	958.989	722.792
150.716	13.523	958.345	722.230
151.731	13.627	957.621	722.072
152.746	13.550	957.110	721.290
153.760	13.578	956.322	720.752
154.775	13.659	955.925	720.744
155.789	13.688	954.914	720.041
156.804	13.619	954.239	719.172
157.819	13.652	953.845	718.954
158.833	13.792	952.754	718.675
159.848	13.728	952.212	717.924
160.862	13.733	951.143	717.075
161.877	13.689	950.490	716.331
162.892	13.569	949.112	714.712
163.906	13.654	948.222	714.346
164.921	13.699	947.497	713.928
165.935	13.547	946.920	712.775
166.950	13.690	945.710	712.418
167.964	13.622	945.112	711.613
168.979	13.658	943.918	710.803
169.994	13.704	943.272	710.451
171.008	13.620	942.629	709.544
172.023	13.808	941.883	709.726
173.037	13.715	941.114	708.684
174.052	13.795	940.375	708.409
175.067	13.825	939.622	707.904
176.081	13.709	939.371	707.158
177.096	13.757	938.603	706.724
178.110	13.826	937.604	706.202
179.125	13.781	937.460	705.841
180.140	13.805	937.316	705.771
181.154	13.799	936.600	705.143
182.169	13.785	936.007	704.576
183.183	13.932	934.712	704.161
184.198	13.995	934.115	703.916
185.213	13.962	933.622	703.341
186.227	13.912	933.009	702.608
187.242	14.079	932.202	702.645
188.256	14.122	931.697	702.381
189.271	14.038	930.779	701.273
190.286	13.832	930.586	700.198
191.300	13.962	929.537	699.892
192.315	13.814	929.261	698.998
193.329	13.735	928.844	698.292
194.344	14.106	927.242	698.585
195.359	13.942	927.223	697.820
196.373	13.987	926.555	697.443
197.388	14.026	926.133	697.230
198.402	14.166	925.215	697.062
199.417	14.257	924.744	697.027
200.432	14.114	924.490	696.175
201.446	14.157	924.213	696.083
202.461	14.165	923.397	695.444
203.475	14.292	922.679	695.371
204.490	14.305	921.755	694.667
205.504	14.241	920.941	693.725
206.519	14.185	920.422	693.041
207.534	14.129	919.596	692.123
208.548	14.248	918.895	692.031
209.563	14.095	918.437	690.989
210.577	14.248	917.654	690.970
211.592	14.367	916.956	690.879
212.607	14.444	916.041	690.446
213.621	14.356	915.785	689.831
214.636	14.313	914.915	688.934
215.650	14.379	914.278	688.668
216.665	14.477	913.399	688.346
217.680	14.428	912.614	687.493
218.694	14.487	911.847	687.097
219.709	14.419	911.660	686.618
220.723	14.384	911.017	685.928
221.738	14.359	909.885	684.911
222.753	14.493	909.412	685.045
223.767	14.439	909.093	684.525
224.782	14.566	908.281	684.371
225.796	14.490	907.764	683.611
226.811	14.498	907.218	683.170
227.826	14.574	906.051	682.545
228.840	14.584	905.566	682.159
229.855	14.540	904.513	681.124
230.869	14.522	904.040	680.635
231.884	14.503	903.206	679.870
232.899	14.549	902.252	679.277
233.913	14.603	901.925	679.191
234.928	14.537	901.088	678.235
235.942	14.541	900.866	678.021
236.957	14.630	899.956	677.640
237.972	14.605	899.436	677.088
238.986	14.480	899.286	676.407
240.001	14.680	898.395	676.486
241.015	14.649	897.714	675.790
242.030	14.699	896.995	675.390
243.045	14.686	896.350	674.793
244.059	14.736	895.679	674.430
245.074	14.760	895.266	674.156
246.088	14.655	894.552	673.135
247.103	14.699	894.121	672.929
248.117	14.901	893.258	673.031
249.132	14.753	893.307	672.415
250.147	14.877	892.207	672.025
251.161	14.907	892.090	671.998
252.176	14.991	891.268	671.654
253.190	14.847	890.817	670.680
254.205	15.043	889.535	670.440
255.220	15.039	888.851	669.847
256.234	14.974	888.632	669.363
257.249	15.037	887.892	669.001
258.263	14.973	887.163	668.133
259.278	14.996	886.666	667.793
260.293	15.182	885.807	667.829
261.307	15.182	885.306	667.393
262.322	15.302	884.192	666.971
263.336	15.461	883.255	666.838
264.351	15.104	882.977	665.150
265.366	15.200	882.508	665.119
266.380	15.217	882.041	664.777
267.395	15.318	881.077	664.391
268.409	15.211	880.464	663.446
269.424	15.278	879.695	663.072
270.439	15.366	878.800	662.688
271.453	15.363	877.889	661.931
272.468	15.326	877.833	661.683
273.482	15.312	877.287	661.158
274.497	15.341	877.023	661.016
275.512	15.213	876.192	659.826
276.526	15.220	875.723	659.442
277.541	15.254	875.377	659.256
278.555	15.297	874.700	658.858
279.570	15.545	873.767	659.068
280.585	15.662	872.851	658.779
281.599	15.444	872.204	657.379
282.614	15.516	871.673	657.200
283.628	15.478	871.098	656.561
284.643	15.387	870.684	655.834
285.657	15.477	869.838	655.492
286.672	15.477	869.331	655.051
287.687	15.538	868.649	654.717
288.701	15.492	868.188	654.132
289.716	15.569	867.400	653.781
290.730	15.555	867.001	653.366
291.745	15.577	866.549	653.056
292.760	15.612	866.100	652.796
293.774	15.596	865.408	652.154
294.789	15.688	864.238	651.572
295.803	15.826	863.711	651.649
296.818	15.695	863.281	650.761
297.833	15.728	862.344	650.124
298.847	15.607	861.969	649.318
299.862	15.673	861.202	648.936
300.876	15.883	860.298	649.008
301.891	15.724	860.090	648.182
302.906	15.674	859.988	647.854
303.920	15.971	859.148	648.305
304.935	15.941	858.333	647.519
305.949	15.918	858.036	647.150
306.964	15.907	857.460	646.616
307.979	15.847	856.771	645.808
308.993	16.022	856.004	645.843
310.008	15.951	855.654	645.250
311.022	16.006	855.041	644.941
312.037	15.878	854.510	643.996
313.052	15.943	853.885	643.714
314.066	15.975	853.027	643.134
315.081	15.828	853.182	642.634
316.095	15.973	852.022	642.255
317.110	15.845	851.651	641.430
318.125	15.914	851.090	641.213
319.139	15.899	850.863	640.929
320.154	16.005	850.363	640.899
321.168	15.979	849.589	640.159
322.183	16.139	848.852	640.155
323.197	16.076	848.589	639.660
324.212	16.102	847.721	639.047
325.227	15.955	847.213	638.052
326.241	16.114	846.731	638.237
327.256	16.107	846.138	637.706
328.270	15.983	845.919	637.015
329.285	16.099	845.370	636.983
330.300	16.173	844.417	636.487
331.314	16.146	843.627	635.733
332.329	16.077	843.599	635.398
333.343	16.129	843.091	635.153
334.358	16.068	842.738	634.604
335.373	16.411	842.010	635.288
336.387	16.243	841.812	634.451
337.402	16.212	841.624	634.137
338.416	16.365	841.212	634.344
339.431	16.355	840.871	633.992
340.446	16.365	840.145	633.428
341.460	16.391	840.127	633.457
342.475	16.303	839.825	632.842
343.489	16.553	838.743	632.906
344.504	16.519	838.527	632.561
345.519	16.368	838.318	631.780
346.533	16.371	837.954	631.461
347.548	16.470	836.878	630.964
348.562	16.380	836.839	630.543
349.577	16.400	836.385	630.221
350.592	16.482	835.389	629.719
351.606	16.518	834.688	629.272
352.621	16.496	833.963	628.587
353.635	16.645	833.160	628.480
354.650	16.528	832.723	627.657
355.665	16.551	832.152	627.260
356.679	16.454	831.890	626.645
357.694	16.594	831.327	626.685
358.708	16.671	830.026	625.933
359.723	16.711	829.421	625.568
360.738	16.638	829.195	625.074
361.752	16.843	828.464	625.223
362.767	16.768	827.843	624.424
363.781	16.651	827.372	623.583
364.796	16.726	827.012	623.533
365.810	16.765	826.863	623.508
366.825	16.743	826.347	622.984
367.840	16.792	826.082	622.907
368.854	16.802	825.300	622.299
369.869	16.802	825.106	622.098
370.883	16.729	824.657	621.438
371.898	16.855	824.035	621.376
372.913	16.924	823.390	621.085
373.927	16.907	823.038	620.704
374.942	16.989	822.395	620.463
375.956	16.931	822.163	620.024
376.971	17.114	821.513	620.146
377.986	17.075	821.724	620.107
379.000	17.107	820.606	619.324
380.015	17.110	820.242	619.006
381.029	17.091	819.506	618.326
382.044	17.090	819.072	617.943
383.059	17.063	818.520	617.371
384.073	17.110	818.013	617.106
385.088	17.107	817.509	616.660
386.102	16.930	817.245	615.764
387.117	16.948	816.526	615.234
388.132	17.057	815.999	615.178
389.146	17.106	815.426	614.867
390.161	17.183	814.566	614.443
391.175	17.141	814.465	614.160
392.190	17.075	814.231	613.691
393.205	17.041	813.732	613.139
394.219	17.102	813.477	613.113
395.234	17.231	812.500	612.786
396.248	17.182	812.085	612.243
397.263	17.145	811.531	611.636
398.278	17.133	811.578	611.577
399.292	17.231	810.781	611.275
400.307	17.220	810.388	610.884
401.321	17.202	809.929	610.419
402.336	17.188	809.438	609.944
403.350	17.188	809.212	609.720
404.365	17.387	808.590	609.913
405.380	17.359	807.975	609.295
406.394	17.521	807.400	609.386
407.409	17.407	807.094	608.692
408.423	17.515	807.161	609.076
409.438	17.572	806.621	608.820
410.453	17.421	806.385	608.045
411.467	17.503	805.360	607.514
412.482	17.582	804.879	607.378
413.496	17.744	804.299	607.463
414.511	17.557	804.693	607.040
415.526	17.583	804.105	606.637
416.540	17.658	803.167	606.141
417.555	17.684	802.823	605.922
418.569	17.668	802.711	605.727
419.584	17.565	802.386	605.059
420.599	17.611	801.839	604.760
421.613	109.043	1290.866	1464.364
422.628	93.903	1362.101	1464.469
