DTS Sentinel unit serial number:	SN413079Multiplexer serial number:	ORYXHardware model number:	OX4-SRSoftware version number:	ORYX F/W v4.00 Oryx Data Collector v3.7.2.0data status	okinstallation	princeton_trtdifferential loss correction	single-endedforward channel	channel 1reverse channel	N/Adate	2019/09/12time	15:56:11forward acquisition time	60.00reverse acquisition time	0.00gamma	496.2192k internal	0.2299k external	0.2299temperature offset calibration	1.0071default loss term (dB/km)	0.3790temperature slope calibration	1.0000multiplexer offset coefficient	1.0000multiplexer slope coefficient	1.0000fibre end	0.00T internal ref (°C)	39.27T ext. ref 1 (°C)	2.41T ext. ref 2 (°C)	32.17length (m)	temperature (°C)	Stokes	anti-Stokes-747.200	784.708	0.103	0.288
-746.185	-32.578	-0.383	0.218
-745.171	800.000	-0.025	0.100
-744.156	-45.046	0.052	0.026
-743.142	800.000	-0.073	0.287
-742.127	134.759	-0.034	0.045
-741.112	-54.859	0.121	-0.056
-740.098	-200.000	-0.001	0.316
-739.083	-153.912	-0.143	0.010
-738.069	-30.252	0.365	0.212
-737.054	-6.825	0.035	-0.024
-736.039	-137.093	-0.282	-0.033
-735.025	800.000	0.043	0.156
-734.010	-140.772	-0.191	-0.020
-732.996	-200.000	0.028	-0.196
-731.981	-191.411	0.171	-0.002
-730.966	-108.330	0.040	0.009
-729.952	-83.772	-0.457	0.149
-728.937	2.096	-0.055	-0.041
-727.923	-60.004	-0.431	-0.188
-726.908	-49.490	0.103	0.050
-725.894	97.857	0.272	-0.319
-724.879	-141.202	-0.033	0.003
-723.864	-200.000	0.023	0.150
-722.850	100.876	0.082	-0.097
-721.835	749.418	-0.173	-0.476
-720.821	-10.346	-0.202	-0.137
-719.806	-12.505	-0.104	-0.069
-718.791	-29.652	-0.159	0.092
-717.777	-41.991	-0.332	0.173
-716.762	-11.821	-0.313	0.209
-715.748	33.965	0.206	-0.183
-714.733	-200.000	0.133	-0.655
-713.718	-182.446	-0.495	-0.009
-712.704	-64.942	-0.030	-0.012
-711.689	305.742	-0.055	-0.104
-710.675	137.417	-0.034	-0.046
-709.660	800.000	0.043	-0.148
-708.645	-87.170	-0.121	0.038
-707.631	-62.568	-0.315	-0.133
-706.616	66.124	-0.146	0.151
-705.602	-70.895	0.216	0.083
-704.587	65.605	-0.102	0.105
-703.572	5.751	-0.128	-0.097
-702.558	165.520	0.090	-0.130
-701.543	-123.685	-0.223	-0.036
-700.529	-200.000	-0.016	0.085
-699.514	27.311	-0.157	-0.135
-698.499	-200.000	-0.052	0.458
-697.485	193.942	0.209	-0.322
-696.470	200.857	0.081	-0.127
-695.456	-30.572	0.257	-0.148
-694.441	-112.531	0.466	-0.095
-693.426	-105.200	-0.447	0.104
-692.412	-115.880	0.246	-0.047
-691.397	24.050	0.172	0.144
-690.383	602.540	-0.165	-0.419
-689.368	-200.000	0.014	-0.158
-688.354	122.347	0.127	-0.161
-687.339	-90.585	-0.112	-0.033
-686.324	-197.937	-0.156	-0.001
-685.310	115.693	0.052	0.065
-684.295	482.332	0.027	-0.063
-683.281	49.668	-0.139	0.133
-682.266	32.387	-0.240	0.211
-681.251	291.630	-0.056	0.104
-680.237	800.000	-0.096	-0.399
-679.222	-185.697	-0.260	-0.004
-678.208	-80.435	-0.106	-0.036
-677.193	-117.926	-0.157	-0.029
-676.178	53.379	0.153	-0.149
-675.164	800.000	-0.041	0.135
-674.149	-200.000	-0.030	-0.161
-673.135	50.046	-0.316	-0.304
-672.120	800.000	-0.035	0.134
-671.105	590.719	0.064	-0.160
-670.091	800.000	0.051	-0.213
-669.076	123.874	-0.057	-0.072
-668.062	-106.854	-0.210	-0.047
-667.047	-28.039	-0.115	-0.068
-666.032	37.119	0.216	0.194
-665.018	417.206	0.103	0.223
-664.003	-200.000	0.007	-0.225
-662.989	800.000	-0.057	-0.207
-661.974	-139.168	-0.209	0.023
-660.959	-58.079	0.129	0.057
-659.945	43.627	0.204	-0.190
-658.930	-143.070	-0.048	-0.005
-657.916	-4.840	-0.119	0.083
-656.901	719.902	-0.124	0.335
-655.886	-79.710	-0.282	-0.097
-654.872	-200.000	0.007	0.058
-653.857	4.123	0.274	0.204
-652.843	-152.876	0.197	-0.014
-651.828	-200.000	0.016	-0.136
-650.814	-200.000	-0.003	0.123
-649.799	-171.339	0.197	-0.007
-648.784	-114.129	-0.507	-0.100
-647.770	257.282	0.115	-0.201
-646.755	-141.530	-0.174	0.018
-645.741	-200.000	0.058	-0.322
-644.726	204.451	0.098	-0.155
-643.711	126.774	-0.064	0.082
-642.697	27.675	-0.217	-0.185
-641.682	-107.042	-0.186	0.042
-640.668	16.125	0.206	-0.165
-639.653	-15.702	0.280	-0.182
-638.638	34.681	0.121	0.108
-637.624	800.000	0.010	0.031
-636.609	-200.000	-0.009	0.186
-635.595	-63.871	0.222	-0.092
-634.580	131.734	-0.307	-0.401
-633.565	-65.685	0.296	0.120
-632.551	116.599	0.165	-0.206
-631.536	-200.000	0.018	0.121
-630.522	-200.000	-0.004	-0.083
-629.507	-200.000	-0.015	-0.196
-628.492	-200.000	0.000	0.016
-627.478	-31.712	0.123	-0.070
-626.463	-25.758	-0.217	-0.130
-625.449	219.961	-0.045	0.073
-624.434	53.354	-0.430	-0.419
-623.419	-200.000	0.014	-0.066
-622.405	685.581	-0.072	0.192
-621.390	-53.648	0.057	-0.026
-620.376	6.920	0.173	0.131
-619.361	62.427	0.062	0.063
-618.346	-200.000	-0.003	0.211
-617.332	-53.043	-0.197	0.092
-616.317	-200.000	0.011	0.199
-615.303	-5.177	0.168	-0.117
-614.288	-200.000	-0.022	0.236
-613.273	372.977	-0.063	-0.130
-612.259	46.532	-0.175	-0.165
-611.244	-58.789	0.187	-0.082
-610.230	-144.606	0.167	0.016
-609.215	106.383	-0.192	-0.231
-608.201	-28.916	-0.009	0.005
-607.186	-200.000	0.023	0.287
-606.171	18.800	-0.184	0.150
-605.157	255.085	-0.153	0.265
-604.142	339.437	0.028	-0.055
-603.128	68.047	-0.046	0.048
-602.113	-59.758	-0.026	0.012
-601.098	-200.000	0.052	0.439
-600.084	-200.000	-0.026	0.158
-599.069	35.170	-0.060	0.053
-598.055	757.465	0.054	0.147
-597.040	96.922	0.179	-0.208
-596.025	446.139	-0.106	-0.237
-595.011	-6.711	0.102	-0.070
-593.996	-108.985	-0.331	0.072
-592.982	-69.449	-0.224	0.087
-591.967	492.121	-0.063	-0.147
-590.952	-200.000	-0.029	0.268
-589.938	-125.868	0.111	-0.017
-588.923	673.494	-0.032	-0.085
-587.909	-200.000	-0.006	0.255
-586.894	-88.647	0.127	-0.038
-585.879	-85.114	-0.194	-0.062
-584.865	16.185	-0.125	-0.100
-583.850	-49.510	-0.178	0.086
-582.836	153.904	-0.123	0.171
-581.821	-134.259	-0.304	-0.038
-580.806	185.166	-0.112	0.168
-579.792	800.000	-0.123	0.390
-578.777	490.789	-0.031	0.072
-577.763	-200.000	0.036	-0.265
-576.748	40.346	-0.202	0.185
-575.733	14.130	-0.513	0.405
-574.719	-200.000	-0.010	-0.261
-573.704	-181.901	-0.291	0.006
-572.690	-77.048	0.387	0.137
-571.675	51.799	-0.086	-0.083
-570.661	237.655	0.163	-0.275
-569.646	33.208	0.227	-0.199
-568.631	29.975	-0.129	-0.112
-567.617	28.533	-0.090	-0.077
-566.602	-145.774	0.184	-0.017
-565.588	-94.152	-0.152	0.042
-564.573	87.038	0.192	0.215
-563.558	25.304	0.087	-0.074
-562.544	85.491	0.076	0.084
-561.529	340.014	-0.165	-0.326
-560.515	223.720	-0.111	-0.182
-559.500	-200.000	-0.008	0.064
-558.485	-33.938	0.122	0.068
-557.471	32.580	-0.215	-0.188
-556.456	-145.789	-0.299	-0.027
-555.442	54.517	0.091	-0.089
-554.427	166.739	-0.215	0.309
-553.412	-127.831	0.234	0.034
-552.398	-68.337	-0.405	-0.159
-551.383	179.699	-0.138	0.204
-550.369	60.636	0.165	0.165
-549.354	21.358	0.105	0.086
-548.339	-200.000	-0.011	-0.259
-547.325	-54.451	0.193	0.089
-546.310	-62.599	-0.166	-0.070
-545.296	800.000	0.048	0.174
-544.281	38.342	0.333	0.301
-543.266	173.763	0.092	0.134
-542.252	-200.000	0.012	-0.233
-541.237	-12.590	-0.081	0.054
-540.223	-90.312	-0.114	0.033
-539.208	-200.000	0.043	0.195
-538.193	-192.666	-0.072	0.001
-537.179	-54.330	-0.328	-0.151
-536.164	-87.132	-0.126	-0.039
-535.150	-69.057	0.157	-0.061
-534.135	-42.761	0.052	-0.027
-533.121	-9.623	-0.146	0.099
-532.106	163.217	0.332	-0.472
-531.091	307.783	0.153	-0.288
-530.077	457.818	-0.053	-0.119
-529.062	-116.002	0.270	0.051
-528.048	136.315	-0.255	-0.337
-527.033	119.501	0.219	-0.274
-526.018	36.629	-0.191	0.171
-525.004	236.525	-0.088	-0.147
-523.989	245.716	0.238	-0.406
-522.975	180.804	0.204	0.303
-521.960	73.075	0.008	0.008
-520.945	54.401	-0.229	-0.223
-519.931	-200.000	-0.057	-0.265
-518.916	249.583	-0.081	-0.139
-517.902	-54.978	-0.246	-0.112
-516.887	237.936	0.046	-0.077
-515.872	-33.693	0.123	0.069
-514.858	-4.046	0.467	0.327
-513.843	800.000	-0.169	-0.527
-512.829	800.000	0.058	0.228
-511.814	-5.676	-0.044	0.030
-510.799	272.093	-0.094	0.168
-509.785	-33.551	0.041	0.023
-508.770	800.000	-0.014	0.045
-507.756	800.000	0.132	0.370
-506.741	79.927	-0.093	-0.101
-505.726	-107.299	0.341	0.076
-504.712	-26.584	-0.205	-0.121
-503.697	-66.261	0.291	0.117
-502.683	-99.360	0.117	0.030
-501.668	-200.000	0.020	-0.207
-500.653	279.976	-0.098	-0.177
-499.639	-200.000	-0.012	0.239
-498.624	125.701	-0.107	-0.136
-497.610	-170.194	0.213	0.008
-496.595	24.643	-0.083	0.069
-495.581	-82.719	-0.135	-0.044
-494.566	200.872	0.098	0.152
-493.551	800.000	0.094	0.288
-492.537	259.436	-0.021	0.036
-491.522	800.000	0.157	-0.487
-490.508	6.697	-0.295	0.222
-489.493	-86.907	-0.136	0.042
-488.478	-68.049	0.181	-0.071
-487.464	-200.000	0.007	0.134
-486.449	-56.231	0.296	-0.133
-485.435	-56.888	0.054	-0.024
-484.420	-200.000	-0.009	0.436
-483.405	216.752	-0.135	-0.218
-482.391	81.159	-0.209	0.227
-481.376	-57.441	-0.216	0.096
-480.362	-5.218	-0.088	-0.061
-479.347	-41.847	0.108	-0.056
-478.332	-86.276	0.120	0.037
-477.318	-108.338	-0.101	0.022
-476.303	94.918	0.099	-0.114
-475.289	-33.966	-0.140	0.078
-474.274	-200.000	-0.002	-0.041
-473.259	32.788	-0.165	-0.144
-472.245	800.000	0.071	-0.238
-471.230	800.000	-0.021	-0.066
-470.216	82.909	-0.353	-0.388
-469.201	378.854	-0.200	-0.412
-468.186	-119.493	-0.158	-0.028
-467.172	11.295	0.450	-0.348
-466.157	-95.378	0.101	0.027
-465.143	800.000	0.053	-0.175
-464.128	254.371	0.031	-0.054
-463.113	-71.580	0.314	0.118
-462.099	-39.470	-0.144	0.076
-461.084	116.204	-0.101	-0.125
-460.070	-200.000	-0.013	-0.288
-459.055	114.982	-0.038	-0.046
-458.040	-200.000	0.032	-0.219
-457.026	-74.119	-0.167	0.061
-456.011	623.445	0.011	0.028
-454.997	-163.570	0.323	-0.015
-453.982	-67.938	0.175	0.069
-452.968	-159.269	-0.131	-0.007
-451.953	147.775	0.101	0.137
-450.938	387.514	-0.014	-0.030
-449.924	-125.924	-0.019	-0.003
-448.909	25.606	-0.096	-0.081
-447.895	211.990	-0.166	-0.264
-446.880	82.596	0.105	-0.115
-445.865	-27.870	-0.173	-0.101
-444.851	-96.579	0.241	0.064
-443.836	-21.801	0.106	0.065
-442.822	-118.217	-0.175	-0.031
-441.807	-155.001	0.223	-0.015
-440.792	119.605	0.133	-0.166
-439.778	-200.000	0.020	-0.162
-438.763	-113.729	-0.058	0.011
-437.749	-104.477	0.181	-0.042
-436.734	48.687	-0.128	-0.121
-435.719	-200.000	-0.003	-0.088
-434.705	506.115	0.029	0.068
-433.690	-126.790	0.496	-0.074
-432.676	-200.000	-0.001	0.339
-431.661	114.505	0.154	0.189
-430.646	-27.240	0.082	-0.048
-429.632	88.036	-0.249	0.279
-428.617	236.599	0.078	0.130
-427.603	-56.478	0.160	0.072
-426.588	777.315	0.051	-0.140
-425.573	-200.000	-0.048	-0.396
-424.559	-77.655	0.085	-0.030
-423.544	254.421	-0.079	-0.137
-422.530	-167.547	0.244	-0.010
-421.515	46.283	-0.048	0.045
-420.500	-95.780	-0.247	-0.066
-419.486	220.042	-0.145	-0.234
-418.471	270.798	-0.083	0.147
-417.457	215.855	0.051	0.082
-416.442	-31.990	-0.190	0.107
-415.428	800.000	-0.099	-0.298
-414.413	104.905	0.122	0.145
-413.398	-200.000	0.026	-0.121
-412.384	-8.624	-0.114	0.077
-411.369	39.206	0.261	-0.236
-410.355	-200.000	-0.028	-0.426
-409.340	0.594	0.250	0.180
-408.325	4.735	0.124	0.092
-407.311	-200.000	0.004	0.101
-406.296	-200.000	0.001	-0.196
-405.282	-78.731	-0.012	-0.004
-404.267	92.563	-0.261	-0.297
-403.252	-12.813	0.116	0.076
-402.238	-200.000	0.003	0.450
-401.223	800.000	-0.045	0.178
-400.209	-84.942	-0.382	0.121
-399.194	-33.493	0.211	0.118
-398.179	-200.000	0.088	0.438
-397.165	-31.559	0.372	0.211
-396.150	-71.239	-0.189	0.072
-395.136	-200.000	-0.030	0.187
-394.121	176.468	0.009	0.013
-393.106	87.451	-0.028	-0.031
-392.092	471.886	0.042	-0.096
-391.077	-155.246	0.241	-0.016
-390.063	66.871	0.166	-0.170
-389.048	-154.497	0.357	-0.024
-388.033	282.599	0.040	-0.072
-387.019	-26.084	0.233	-0.138
-386.004	-159.177	-0.032	-0.002
-384.990	-135.848	0.139	-0.017
-383.975	552.651	0.154	0.372
-382.960	-108.967	0.180	0.039
-381.946	3.777	-0.169	-0.124
-380.931	-15.056	-0.237	-0.153
-379.917	-37.769	0.425	-0.228
-378.902	-39.075	0.191	-0.101
-377.888	594.977	-0.092	0.229
-376.873	151.330	-0.082	0.112
-375.858	800.000	0.032	0.132
-374.844	51.762	0.074	0.071
-373.829	71.733	-0.220	0.230
-372.815	-80.068	-0.251	-0.085
-371.800	17.707	-0.109	-0.088
-370.785	-200.000	-0.018	-0.107
-369.771	800.000	0.077	0.221
-368.756	-50.880	0.047	-0.022
-367.742	312.233	0.115	-0.218
-366.727	-104.814	-0.308	-0.071
-365.712	800.000	-0.029	0.098
-364.698	166.042	-0.079	0.112
-363.683	117.155	-0.215	0.265
-362.669	177.813	0.251	0.368
-361.654	33.837	0.139	0.122
-360.639	63.419	-0.078	0.079
-359.625	141.931	-0.157	0.210
-358.610	523.413	0.136	-0.321
-357.596	-23.969	-0.129	-0.077
-356.581	800.000	0.058	0.248
-355.566	57.508	0.141	-0.138
-354.552	-148.773	0.076	0.006
-353.537	29.698	0.180	0.154
-352.523	800.000	-0.139	0.415
-351.508	131.506	0.193	-0.249
-350.493	-200.000	0.013	-0.265
-349.479	41.847	-0.278	-0.253
-348.464	-200.000	0.041	-0.264
-347.450	192.040	0.161	-0.244
-346.435	-31.865	-0.140	-0.079
-345.420	182.159	0.153	0.227
-344.406	226.462	-0.109	-0.177
-343.391	-63.943	0.339	0.139
-342.377	-200.000	0.003	0.065
-341.362	14.504	-0.177	-0.139
-340.348	-137.366	0.192	0.022
-339.333	-200.000	-0.020	0.331
-338.318	-188.731	0.348	0.004
-337.304	-52.453	0.235	0.109
-336.289	-142.914	-0.254	-0.025
-335.275	800.000	0.067	-0.214
-334.260	-200.000	0.022	0.265
-333.245	-200.000	-0.021	0.162
-332.231	-200.000	0.057	0.428
-331.216	-3.113	0.057	-0.040
-330.202	-18.905	0.359	-0.224
-329.187	-94.676	-0.202	-0.055
-328.172	-28.098	-0.124	-0.072
-327.158	-200.000	0.010	0.176
-326.143	444.526	0.077	0.169
-325.129	-200.000	-0.010	0.109
-324.114	-28.670	0.230	0.133
-323.099	-74.936	-0.306	-0.110
-322.085	-200.000	-0.004	-0.181
-321.070	139.238	0.117	-0.155
-320.056	-139.791	-0.351	-0.037
-319.041	147.170	-0.117	-0.157
-318.026	-200.000	-0.014	-0.084
-317.012	-200.000	-0.002	0.218
-315.997	-200.000	0.007	-0.177
-314.983	294.813	-0.113	0.207
-313.968	355.216	0.083	0.165
-312.953	72.725	-0.227	0.238
-311.939	4.491	-0.588	-0.433
-310.924	-82.322	0.300	0.098
-309.910	48.745	0.117	-0.110
-308.895	120.147	-0.132	-0.164
-307.880	36.293	0.052	0.046
-306.866	16.495	-0.071	-0.056
-305.851	-182.955	-0.255	0.005
-304.837	-111.302	-0.155	-0.032
-303.822	319.786	0.058	0.111
-302.807	-58.656	0.354	-0.154
-301.793	-200.000	-0.011	0.282
-300.778	-129.252	-0.201	0.028
-299.764	456.457	-0.121	-0.269
-298.749	-200.000	0.017	-0.110
-297.735	-61.804	-0.304	-0.128
-296.720	-200.000	-0.037	-0.199
-295.705	-200.000	0.013	-0.133
-294.691	-101.330	-0.378	0.092
-293.676	-174.118	-0.101	0.003
-292.662	-119.642	-0.199	-0.034
-291.647	-26.039	-0.129	0.076
-290.632	-131.072	-0.200	-0.027
-289.618	32.908	0.150	0.130
-288.603	137.052	0.338	0.442
-287.589	546.460	0.180	0.432
-286.574	73.057	0.152	0.159
-285.559	800.000	-0.020	-0.059
-284.545	-21.121	-0.163	0.100
-283.530	-200.000	0.047	-0.249
-282.516	-146.873	-0.256	-0.022
-281.501	347.131	0.123	-0.242
-280.486	800.000	-0.103	0.287
-279.472	115.033	0.084	0.103
-278.457	-196.116	0.241	-0.002
-277.443	-200.000	-0.006	-0.084
-276.428	-50.776	-0.309	-0.146
-275.413	288.075	-0.051	0.093
-274.399	407.331	0.056	-0.118
-273.384	11.249	-0.141	0.108
-272.370	-14.656	-0.083	0.053
-271.355	-151.034	-0.211	0.016
-270.340	573.893	-0.075	0.184
-269.326	169.454	-0.141	-0.202
-268.311	-123.078	-0.123	0.020
-267.297	-75.445	0.163	-0.058
-266.282	-71.071	-0.253	0.095
-265.267	-39.636	0.087	-0.045
-264.253	209.784	0.168	-0.264
-263.238	-72.846	0.170	-0.063
-262.224	102.126	0.101	-0.118
-261.209	-200.000	-0.005	0.184
-260.195	-50.348	-0.051	-0.024
-259.180	-9.567	-0.125	-0.084
-258.165	-200.000	-0.008	-0.212
-257.151	-103.124	0.303	-0.072
-256.136	133.660	-0.230	0.298
-255.122	-200.000	0.005	0.072
-254.107	598.571	-0.059	0.145
-253.092	104.115	0.153	-0.181
-252.078	-55.229	-0.059	-0.026
-251.063	-200.000	-0.030	0.235
-250.049	-87.248	-0.335	0.102
-249.034	-42.724	-0.375	0.191
-248.019	800.000	-0.048	-0.191
-247.005	56.878	0.146	0.142
-245.990	535.146	0.082	0.195
-244.976	800.000	-0.075	-0.295
-243.961	-13.439	0.124	-0.081
-242.946	18.792	0.220	0.176
-241.932	-90.861	-0.132	0.038
-240.917	-200.000	-0.004	-0.225
-239.903	462.826	0.063	0.142
-238.888	45.265	-0.045	-0.041
-237.873	479.666	0.176	0.399
-236.859	-115.048	0.214	0.041
-235.844	800.000	-0.074	0.257
-234.830	15.159	0.132	-0.104
-233.815	-73.127	-0.329	-0.121
-232.800	173.275	-0.282	0.407
-231.786	54.263	0.127	0.122
-230.771	-200.000	0.014	0.290
-229.757	-48.563	-0.146	0.070
-228.742	-131.642	-0.384	0.050
-227.727	-113.263	-0.088	0.017
-226.713	-166.648	-0.163	-0.007
-225.698	391.826	0.058	-0.120
-224.684	-200.000	-0.024	0.185
-223.669	178.721	-0.104	0.152
-222.655	-61.731	0.291	0.122
-221.640	-29.281	0.151	-0.086
-220.625	217.135	0.122	-0.195
-219.611	800.000	0.077	-0.304
-218.596	41.162	0.077	0.070
-217.582	177.337	0.038	-0.055
-216.567	141.352	-0.287	0.379
-215.552	800.000	-0.081	0.272
-214.538	-49.843	0.072	0.034
-213.523	364.860	-0.017	-0.033
-212.509	336.898	0.104	-0.203
-211.494	125.848	0.238	0.301
-210.479	-128.504	0.220	0.031
-209.465	287.678	-0.066	-0.119
-208.450	88.203	-0.122	-0.136
-207.436	800.000	0.033	-0.110
-206.421	-10.714	0.131	-0.087
-205.406	154.393	-0.125	0.171
-204.392	394.566	0.152	0.316
-203.377	197.437	0.109	-0.166
-202.363	-200.000	0.025	0.232
-201.348	-200.000	0.009	0.084
-200.333	225.743	0.070	-0.114
-199.319	800.000	-0.122	0.344
-198.304	-83.653	-0.057	-0.018
-197.290	-16.323	0.186	0.118
-196.275	-200.000	-0.040	0.263
-195.260	-46.163	-0.051	-0.025
-194.246	17.709	-0.175	-0.139
-193.231	-101.973	0.258	0.062
-192.217	800.000	0.093	0.353
-191.202	201.410	-0.049	0.076
-190.187	265.189	-0.136	-0.237
-189.173	204.161	-0.128	-0.199
-188.158	38.909	-0.079	-0.070
-187.144	-58.735	0.240	0.104
-186.129	141.646	-0.168	-0.222
-185.114	-72.461	0.381	0.141
-184.100	399.518	-0.070	0.147
-183.085	70.217	0.094	-0.097
-182.071	-118.002	0.213	0.038
-181.056	629.425	-0.016	-0.040
-180.042	18.169	-0.166	0.132
-179.027	-23.057	0.168	0.101
-178.012	218.937	0.023	-0.036
-176.998	-4.389	-0.230	-0.159
-175.983	800.000	-0.051	0.143
-174.969	800.000	-0.042	0.140
-173.954	68.907	0.050	0.051
-172.939	302.842	-0.090	-0.166
-171.925	350.729	0.080	-0.158
-170.910	677.136	-0.104	-0.269
-169.896	-5.945	-0.264	0.180
-168.881	-200.000	-0.008	-0.134
-167.866	-200.000	0.005	0.123
-166.852	80.424	0.123	0.132
-165.837	54.653	0.193	-0.186
-164.823	-127.649	-0.050	-0.007
-163.808	-200.000	0.034	0.176
-162.793	8.719	0.248	0.186
-161.779	265.342	0.048	0.083
-160.764	280.146	0.148	-0.264
-159.750	24.991	0.280	-0.232
-158.735	-200.000	0.023	0.166
-157.720	-184.690	0.332	-0.005
-156.706	208.834	0.211	-0.329
-155.691	-35.454	0.059	0.032
-154.677	-200.000	-0.008	-0.341
-153.662	-133.754	0.151	-0.019
-152.647	65.532	-0.154	0.155
-151.633	69.776	0.223	-0.230
-150.618	11.004	0.163	-0.124
-149.604	800.000	0.067	0.249
-148.589	-200.000	0.065	-0.329
-147.574	-158.136	0.136	0.008
-146.560	-200.000	-0.004	0.136
-145.545	278.883	-0.130	0.231
-144.531	-22.818	-0.234	0.141
-143.516	-66.385	-0.064	-0.026
-142.502	-110.562	-0.299	0.062
-141.487	800.000	-0.067	0.235
-140.472	-46.721	0.356	0.174
-139.458	-87.664	0.087	-0.026
-138.443	-17.504	0.143	-0.090
-137.429	-176.006	0.050	0.001
-136.414	650.617	0.066	0.169
-135.399	-67.550	0.058	0.023
-134.385	-113.824	-0.137	-0.026
-133.370	-57.248	0.163	0.071
-132.356	-120.696	-0.192	-0.032
-131.341	40.673	0.284	-0.255
-130.326	800.000	-0.054	-0.189
-129.312	-170.318	-0.274	0.010
-128.297	144.978	0.122	0.162
-127.283	210.543	0.174	-0.273
-126.268	176.888	0.142	0.205
-125.253	43.669	0.153	0.139
-124.239	-79.280	0.187	0.063
-123.224	155.748	0.152	-0.209
-122.210	-58.959	0.364	0.157
-121.195	566.711	-0.163	0.393
-120.180	178.742	-0.135	0.197
-119.166	-7.541	0.324	0.218
-118.151	64.513	-0.117	0.118
-117.137	-200.000	0.018	0.528
-116.122	22.476	0.095	-0.077
-115.107	-88.795	-0.104	0.031
-114.093	-200.000	-0.013	0.155
-113.078	800.000	-0.079	-0.291
-112.064	-24.616	0.158	-0.093
-111.049	-67.716	0.341	0.133
-110.034	111.962	-0.051	0.061
-109.020	106.451	0.177	0.209
-108.005	-152.575	-0.360	-0.026
-106.991	131.207	-0.157	0.201
-105.976	-47.576	0.394	-0.190
-104.962	56.322	-0.444	0.430
-103.947	800.000	-0.011	0.035
-102.932	800.000	0.056	0.192
-101.918	-156.587	0.475	0.029
-100.903	-48.347	-0.129	0.062
-99.889	-93.673	0.533	0.147
-98.874	-21.242	-0.174	-0.106
-97.859	-29.605	0.026	-0.015
-96.845	-66.870	0.133	0.052
-95.830	-90.115	-0.326	-0.094
-94.816	-78.922	-0.366	0.124
-93.801	800.000	-0.123	-0.364
-92.786	-74.881	0.168	0.060
-91.772	-58.363	-0.197	-0.085
-90.757	73.107	0.039	0.040
-89.743	800.000	0.086	-0.265
-88.728	-119.997	-0.357	0.061
-87.713	345.061	-0.078	-0.152
-86.699	-90.374	-0.273	0.079
-85.684	-200.000	0.018	0.300
-84.670	-39.473	0.220	-0.115
-83.655	-200.000	-0.008	0.093
-82.640	800.000	0.049	-0.151
-81.626	101.717	0.066	-0.077
-80.611	-200.000	-0.022	0.276
-79.597	15.338	-0.151	0.118
-78.582	-24.885	-0.269	0.159
-77.567	-126.409	0.130	0.019
-76.553	-200.000	-0.026	0.217
-75.538	-200.000	0.003	-0.122
-74.524	800.000	0.034	0.148
-73.509	-28.264	-0.128	-0.073
-72.494	50.194	0.110	0.103
-71.480	312.938	0.182	0.339
-70.465	-200.000	-0.012	-0.084
-69.451	-22.656	0.161	0.097
-68.436	-105.136	-0.129	-0.029
-67.422	-200.000	-0.039	0.232
-66.407	339.710	-0.159	-0.309
-65.392	-116.630	0.231	-0.042
-64.378	720.387	0.155	-0.409
-63.363	130.087	-0.348	-0.443
-62.349	-187.493	-0.200	0.003
-61.334	-19.397	-1.020	-0.628
-60.319	-200.000	0.059	0.621
-59.305	-200.000	0.121	-0.769
-58.290	187.841	0.454	0.673
-57.276	-200.000	0.245	1.585
-56.261	-200.000	83.636	516.168
-55.246	510.466	1355.120	3131.631
-54.232	149.395	2567.095	3453.142
-53.217	114.685	2213.210	2679.982
-52.203	50.364	1672.649	1570.437
-51.188	42.816	1406.950	1273.401
-50.173	39.324	1363.722	1212.750
-49.159	58.066	1404.033	1365.942
-48.144	63.488	1423.203	1418.350
-47.130	43.161	1381.932	1252.701
-46.115	39.391	1365.201	1214.286
-45.100	39.212	1360.424	1208.890
-44.086	39.184	1357.578	1206.143
-43.071	39.121	1355.340	1203.722
-42.057	39.170	1353.401	1202.248
-41.042	39.087	1351.854	1200.323
-40.027	39.250	1350.398	1199.976
-39.013	39.121	1348.505	1197.461
-37.998	39.078	1346.657	1195.508
-36.984	39.188	1344.998	1194.654
-35.969	39.237	1343.036	1193.166
-34.954	39.283	1341.304	1191.856
-33.940	39.388	1339.716	1191.032
-32.925	39.343	1338.470	1189.605
-31.911	39.313	1337.105	1188.168
-30.896	39.409	1335.355	1187.143
-29.881	39.375	1334.147	1185.813
-28.867	39.383	1332.808	1184.626
-27.852	39.336	1331.518	1183.149
-26.838	39.523	1329.326	1182.279
-25.823	39.320	1328.263	1180.069
-24.809	39.352	1326.515	1178.662
-23.794	39.347	1324.996	1177.236
-22.779	39.364	1323.667	1176.109
-21.765	39.404	1322.593	1175.345
-20.750	39.356	1320.911	1173.518
-19.736	39.285	1319.873	1172.127
-18.721	39.174	1318.767	1170.439
-17.706	39.178	1317.984	1169.723
-16.692	39.144	1316.751	1168.377
-15.677	39.179	1315.984	1167.860
-14.663	39.213	1314.535	1166.727
-13.648	39.207	1313.415	1165.654
-12.633	39.231	1312.072	1164.558
-11.619	39.215	1311.530	1163.936
-10.604	39.167	1310.553	1162.739
-9.590	39.214	1309.623	1162.142
-8.575	39.188	1308.607	1161.043
-7.560	39.255	1307.436	1160.355
-6.546	39.294	1306.446	1159.655
-5.531	39.217	1305.874	1158.653
-4.517	39.150	1305.512	1157.890
-3.502	39.256	1304.243	1157.341
-2.487	39.220	1303.197	1156.156
-1.473	39.047	1299.048	1151.413
-0.458	37.217	1282.873	1126.427
0.556	32.840	1261.783	1076.826
1.571	28.303	1264.345	1052.900
2.586	26.860	1279.580	1057.088
3.600	25.818	1268.444	1041.774
4.615	18.609	1192.683	940.112
5.629	7.808	1110.441	819.815
6.644	2.954	1087.201	778.049
7.659	2.432	1084.814	773.634
8.673	2.157	1083.261	771.069
9.688	2.109	1082.390	770.140
10.702	2.588	1080.953	771.457
11.717	9.055	1090.913	811.273
12.731	19.763	1106.284	877.248
13.746	25.114	1112.651	909.444
14.761	25.688	1113.547	913.009
15.775	25.718	1113.154	912.756
16.790	25.485	1112.291	910.789
17.804	25.432	1111.720	909.970
18.819	25.596	1111.264	910.351
19.834	25.642	1110.757	910.087
20.848	25.779	1110.125	910.179
21.863	25.734	1109.692	909.518
22.877	25.713	1109.038	908.796
23.892	25.521	1108.702	907.471
24.907	25.634	1107.628	907.078
25.921	25.718	1106.675	906.642
26.936	25.738	1104.959	905.256
27.950	25.422	1104.188	902.956
28.965	25.480	1101.757	901.180
29.980	25.459	1100.169	899.699
30.994	25.756	1099.097	900.227
32.009	25.671	1098.812	899.488
33.023	25.477	1097.470	897.342
34.038	25.675	1096.350	897.332
35.053	25.677	1096.038	897.008
36.067	25.655	1095.547	896.416
37.082	25.797	1093.909	895.706
38.096	25.895	1093.670	895.914
39.111	25.993	1092.965	895.746
40.126	25.793	1091.559	893.522
41.140	25.387	1089.950	890.115
42.155	25.241	1088.133	887.831
43.169	25.341	1086.945	887.278
44.184	25.435	1086.220	887.070
45.199	25.177	1085.866	885.431
46.213	25.241	1084.794	884.792
47.228	25.418	1084.132	885.049
48.242	25.533	1083.114	884.701
49.257	25.666	1082.257	884.577
50.271	25.721	1081.985	884.550
51.286	25.704	1081.060	883.629
52.301	25.796	1080.144	883.254
53.315	25.738	1079.034	881.983
54.330	25.614	1078.178	880.599
55.344	25.635	1077.523	880.092
56.359	25.597	1076.330	878.850
57.374	25.464	1075.166	877.176
58.388	25.417	1074.680	876.473
59.403	25.278	1074.200	875.324
60.417	25.286	1072.750	874.105
61.432	25.321	1072.394	873.907
62.447	25.440	1071.985	874.075
63.461	25.414	1071.587	873.550
64.476	25.417	1070.189	872.345
65.490	25.264	1068.796	870.391
66.505	25.484	1068.624	871.238
67.520	25.477	1067.478	870.193
68.534	25.156	1066.426	867.708
69.549	24.811	1065.606	865.296
70.563	24.910	1064.731	864.985
71.578	24.907	1063.882	864.206
72.593	24.711	1063.100	862.550
73.607	24.827	1062.739	862.737
74.622	25.231	1062.393	864.328
75.636	25.286	1061.402	863.709
76.651	25.025	1060.570	861.701
77.666	25.041	1059.762	861.043
78.680	25.130	1058.967	860.749
79.695	25.152	1058.808	860.653
80.709	25.348	1057.964	860.830
81.724	25.201	1056.964	859.236
82.739	25.218	1056.064	858.507
83.753	25.637	1055.718	860.154
84.768	25.972	1054.360	860.570
85.782	25.922	1054.423	860.307
86.797	25.872	1053.194	858.991
87.812	25.781	1051.935	857.456
88.826	25.914	1050.875	857.147
89.841	25.882	1049.903	856.127
90.855	25.906	1048.913	855.357
91.870	25.990	1047.981	854.920
92.884	25.668	1047.237	852.710
93.899	25.741	1046.089	852.047
94.914	25.871	1045.526	852.129
95.928	25.731	1044.558	850.604
96.943	25.436	1043.369	848.166
97.957	25.274	1041.665	845.942
98.972	25.077	1040.646	844.111
99.987	25.422	1040.084	845.203
101.001	25.688	1039.128	845.602
102.016	25.630	1038.530	844.770
103.030	25.386	1037.817	842.972
104.045	25.360	1036.504	841.708
105.060	25.223	1035.318	840.028
106.074	25.542	1034.360	840.667
107.089	25.643	1034.540	841.211
108.103	25.653	1033.063	839.983
109.118	25.300	1031.603	837.075
110.133	25.371	1030.508	836.446
111.147	25.205	1029.699	834.944
112.162	25.077	1028.277	833.122
113.176	25.248	1028.436	833.971
114.191	25.138	1027.798	832.867
115.206	24.888	1026.456	830.547
116.220	24.788	1025.645	829.354
117.235	25.085	1024.641	829.843
118.249	24.956	1024.152	828.778
119.264	25.011	1022.459	827.589
120.279	24.999	1021.980	827.072
121.293	25.078	1021.132	826.679
122.308	24.979	1020.502	825.639
123.322	24.850	1019.202	823.921
124.337	24.921	1017.786	823.026
125.352	24.321	1016.152	818.879
126.366	24.276	1015.586	818.146
127.381	25.023	1015.816	821.685
128.395	25.589	1014.969	823.517
129.410	25.676	1014.359	823.348
130.424	25.599	1013.447	822.185
131.439	25.594	1012.617	821.417
132.454	25.555	1011.889	820.574
133.468	25.603	1010.442	819.546
134.483	25.640	1010.326	819.550
135.497	25.837	1009.356	819.585
136.512	25.852	1008.605	818.973
137.527	25.899	1007.415	818.148
138.541	25.906	1006.951	817.729
139.556	25.880	1005.888	816.677
140.570	25.968	1005.289	816.516
141.585	25.970	1004.467	815.783
142.600	25.926	1003.341	814.598
143.614	26.176	1002.632	815.081
144.629	26.276	1001.939	814.896
145.643	25.987	1000.761	812.563
146.658	25.886	999.086	810.676
147.673	25.717	997.930	808.906
148.687	25.700	996.931	807.951
149.702	25.546	995.693	806.185
150.716	25.645	994.960	805.962
151.731	25.709	994.569	805.864
152.746	25.848	993.963	805.922
153.760	25.963	993.123	805.685
154.775	25.990	992.458	805.191
155.789	25.953	991.683	804.329
156.804	26.032	990.420	803.584
157.819	26.049	990.004	803.252
158.833	26.161	989.388	803.177
159.848	26.133	988.417	802.194
160.862	26.000	986.734	800.168
161.877	25.978	985.830	799.268
162.892	26.038	985.143	798.904
163.906	25.994	984.052	797.755
164.921	25.902	982.927	796.367
165.935	25.874	982.442	795.778
166.950	25.980	981.274	795.231
167.964	25.855	980.629	794.086
168.979	25.903	979.252	793.111
169.994	25.810	978.168	791.755
171.008	25.989	977.924	792.276
172.023	26.029	976.877	791.532
173.037	25.909	975.620	789.917
174.052	25.653	974.876	788.123
175.067	25.603	974.399	787.450
176.081	25.750	973.853	787.581
177.096	25.723	973.284	786.935
178.110	25.405	972.266	784.652
179.125	25.280	971.353	783.301
180.140	25.361	970.848	783.178
181.154	25.483	970.793	783.597
182.169	25.809	971.005	785.119
183.183	25.928	970.181	784.899
184.198	25.817	969.346	783.672
185.213	25.868	968.408	783.066
186.227	26.116	967.789	783.574
187.242	25.946	966.960	782.095
188.256	25.930	966.746	781.783
189.271	26.190	965.660	781.964
190.286	25.763	964.589	779.178
191.300	25.152	962.498	774.781
192.315	24.271	961.160	769.835
193.329	24.110	960.792	768.775
194.344	25.127	961.291	773.497
195.359	25.756	961.178	776.049
196.373	25.941	960.758	776.437
197.388	25.765	960.034	775.029
198.402	25.841	959.667	774.989
199.417	25.989	958.387	774.523
200.432	25.745	957.691	772.847
201.446	25.544	957.244	771.554
202.461	25.451	956.696	770.642
203.475	24.655	954.583	765.469
204.490	23.957	953.134	761.252
205.504	24.735	953.379	764.709
206.519	25.330	953.710	767.451
207.534	25.500	953.181	767.683
208.548	25.950	953.062	769.440
209.563	25.621	951.908	767.036
210.577	25.652	951.603	766.857
211.592	26.005	951.281	768.034
212.607	26.047	950.130	767.215
213.621	26.091	949.581	766.888
214.636	26.054	948.627	765.893
215.650	25.974	948.478	765.366
216.665	26.111	947.674	765.229
217.680	26.034	947.136	764.403
218.694	25.611	945.647	761.344
219.709	25.454	945.093	760.165
220.723	25.763	944.855	761.215
221.738	25.856	943.892	760.763
222.753	25.775	943.211	759.807
223.767	25.915	943.008	760.163
224.782	26.264	942.690	761.313
225.796	26.071	942.122	759.975
226.811	25.485	940.361	756.023
227.826	24.850	939.237	752.384
228.840	24.997	938.438	752.293
229.855	25.043	937.723	751.846
230.869	24.627	937.303	749.699
231.884	25.003	937.179	751.111
232.899	25.958	936.666	754.632
233.913	25.736	936.301	753.342
234.928	25.587	935.771	752.226
235.942	25.534	934.945	751.272
236.957	25.253	934.329	749.539
237.972	25.414	933.392	749.394
238.986	25.395	933.033	748.957
240.001	25.599	932.330	749.176
241.015	25.659	931.565	748.744
242.030	25.707	931.510	748.834
243.045	25.820	931.157	748.956
244.059	26.019	930.552	749.227
245.074	25.759	929.640	747.348
246.088	25.600	928.283	745.534
247.103	25.725	928.214	745.932
248.117	26.470	927.816	748.630
249.132	26.599	927.798	749.083
250.147	26.694	927.290	748.997
251.161	26.711	927.037	748.795
252.176	26.642	926.492	748.004
253.190	26.849	925.753	748.199
254.205	26.966	925.274	748.224
255.220	26.997	924.774	747.884
256.234	26.868	923.876	746.558
257.249	26.625	923.176	744.930
258.263	26.726	922.465	744.705
259.278	26.741	921.878	744.225
260.293	26.724	921.341	743.655
261.307	26.696	920.589	742.871
262.322	26.443	919.870	741.185
263.336	25.734	918.049	736.753
264.351	24.790	915.624	730.888
265.366	24.862	915.437	730.967
266.380	25.951	916.301	736.043
267.395	26.376	916.202	737.630
268.409	26.273	915.211	736.348
269.424	26.563	914.583	736.959
270.439	26.573	913.868	736.357
271.453	26.567	913.425	735.913
272.468	26.790	913.249	736.612
273.482	26.823	912.893	736.391
274.497	26.367	911.656	733.478
275.512	26.074	910.590	731.369
276.526	26.456	910.684	732.926
277.541	26.576	910.210	732.967
278.555	26.364	909.156	731.197
279.570	26.367	908.392	730.528
280.585	26.412	907.910	730.259
281.599	26.461	906.937	729.611
282.614	25.782	905.680	725.801
283.628	25.836	905.141	725.522
284.643	25.967	905.293	726.107
285.657	25.760	904.235	724.361
286.672	25.532	903.415	722.724
287.687	26.069	903.187	724.634
288.701	26.025	902.638	723.953
289.716	25.751	901.728	722.060
290.730	25.844	901.026	721.806
291.745	25.434	900.025	719.301
292.760	25.750	899.934	720.427
293.774	26.755	900.481	724.822
294.789	27.188	900.029	726.124
295.803	27.143	899.244	725.247
296.818	27.268	898.697	725.243
297.833	26.733	897.496	722.077
298.847	26.525	896.878	720.687
299.862	26.741	896.660	721.307
300.876	27.148	896.488	722.725
301.891	27.095	895.527	721.677
302.906	26.524	894.840	718.790
303.920	26.804	894.403	719.487
304.935	27.037	894.391	720.337
305.949	26.959	893.736	719.440
306.964	26.765	892.733	717.800
307.979	26.875	892.238	717.772
308.993	27.277	892.161	719.237
310.008	27.086	891.555	717.930
311.022	26.905	890.235	716.089
312.037	26.644	889.961	714.775
313.052	26.522	889.031	713.485
314.066	25.580	887.222	708.261
315.081	25.234	886.657	706.387
316.095	26.222	886.881	710.389
317.110	26.739	886.766	712.268
318.125	25.861	885.125	707.444
319.139	24.834	883.952	702.414
320.154	24.796	883.008	701.451
321.168	25.699	883.747	705.518
322.183	26.387	884.025	708.374
323.197	26.631	883.453	708.809
324.212	26.815	883.025	709.121
325.227	26.909	882.465	708.977
326.241	26.803	881.685	707.871
327.256	26.582	881.125	706.500
328.270	26.536	880.261	705.564
329.285	26.367	879.579	704.297
330.300	25.945	878.919	702.064
331.314	26.323	878.643	703.253
332.329	26.821	878.543	705.045
333.343	26.880	878.457	705.145
334.358	26.846	877.726	704.363
335.373	26.998	877.582	704.777
336.387	27.297	877.055	705.447
337.402	27.318	877.173	705.561
338.416	27.329	876.738	705.194
339.431	27.485	876.375	705.444
340.446	27.586	875.950	705.428
341.460	27.291	875.912	704.193
342.475	27.222	875.291	703.366
343.489	27.414	874.505	703.414
344.504	27.688	874.087	704.075
345.519	27.747	873.984	704.156
346.533	27.783	873.535	703.869
347.548	27.843	872.877	703.511
348.562	27.785	872.310	702.767
349.577	27.751	871.163	701.650
350.592	27.718	870.755	701.134
351.606	27.739	870.087	700.612
352.621	27.469	869.368	698.935
353.635	27.542	868.361	698.345
354.650	26.910	866.791	694.602
355.665	26.146	864.874	690.083
356.679	26.267	865.510	690.995
357.694	26.833	864.716	692.461
358.708	26.640	864.249	691.289
359.723	27.000	864.499	692.800
360.738	27.360	863.837	693.582
361.752	27.492	863.430	693.696
362.767	27.677	863.047	694.032
363.781	28.105	862.532	695.185
364.796	28.231	862.329	695.436
365.810	28.116	862.073	694.731
366.825	27.968	861.826	693.911
367.840	27.871	860.466	692.386
368.854	27.393	859.618	689.831
369.869	27.439	859.352	689.732
370.883	27.434	858.988	689.359
371.898	27.289	858.810	688.605
372.913	27.523	858.122	688.880
373.927	27.545	857.859	688.688
374.942	27.530	857.509	688.291
375.956	27.765	856.919	688.642
376.971	28.017	856.415	689.128
377.986	28.128	856.159	689.280
379.000	28.037	855.492	688.337
380.015	27.997	854.655	687.453
381.029	27.866	854.426	686.715
382.044	28.113	853.983	687.228
383.059	27.993	853.225	686.105
384.073	27.985	852.657	685.559
385.088	28.072	851.766	685.108
386.102	27.835	851.227	683.728
387.117	27.828	850.346	682.931
388.132	27.452	849.400	680.707
389.146	26.944	848.678	678.168
390.161	27.395	848.499	679.650
391.175	27.835	848.331	681.099
392.190	27.284	847.562	678.367
393.205	26.088	844.941	671.761
394.219	24.525	843.035	664.374
395.234	24.315	843.362	663.792
396.248	26.014	844.158	670.686
397.263	27.512	845.269	677.081
398.278	27.520	844.968	676.809
399.292	27.333	843.875	675.178
400.307	27.301	843.730	674.885
401.321	27.525	842.822	674.929
402.336	27.963	843.004	676.636
403.350	28.238	843.104	677.674
404.365	28.500	842.710	678.269
405.380	28.728	842.479	678.865
406.394	28.915	842.073	679.168
407.409	28.798	841.203	677.976
408.423	28.796	840.952	677.707
409.438	28.814	840.882	677.655
410.453	28.844	840.456	677.363
411.467	28.709	839.690	676.188
412.482	28.737	839.483	676.066
413.496	28.948	838.701	676.150
414.511	28.880	838.158	675.403
415.526	28.753	838.195	674.905
416.540	28.828	837.216	674.333
417.555	28.534	836.178	672.359
418.569	28.612	835.955	672.410
419.584	28.415	835.620	671.355
420.599	28.200	835.293	670.248
421.613	99.978	1275.766	1405.072
422.628	86.745	1339.949	1405.206
