DTS Sentinel unit serial number:	SN413079Multiplexer serial number:	ORYXHardware model number:	OX4-SRSoftware version number:	ORYX F/W v4.00 Oryx Data Collector v3.7.2.0data status	okinstallation	princeton_trtdifferential loss correction	single-endedforward channel	channel 1reverse channel	N/Adate	2019/09/12time	15:44:11forward acquisition time	60.00reverse acquisition time	0.00gamma	496.2192k internal	0.2296k external	0.2296temperature offset calibration	1.0082default loss term (dB/km)	0.3790temperature slope calibration	1.0000multiplexer offset coefficient	1.0000multiplexer slope coefficient	1.0000fibre end	0.00T internal ref (°C)	39.94T ext. ref 1 (°C)	2.46T ext. ref 2 (°C)	32.55length (m)	temperature (°C)	Stokes	anti-Stokes-747.200	-200.000	-0.007	0.078
-746.185	800.000	-0.063	0.230
-745.171	800.000	0.037	-0.109
-744.156	59.489	0.076	-0.077
-743.142	288.538	0.127	0.236
-742.127	7.585	-0.212	0.162
-741.112	166.827	0.094	0.136
-740.098	-200.000	-0.110	0.542
-739.083	-55.656	0.035	-0.016
-738.069	800.000	0.043	-0.161
-737.054	219.125	-0.160	-0.261
-736.039	-1.355	-0.173	-0.125
-735.025	551.144	0.066	-0.162
-734.010	201.722	-0.226	-0.356
-732.996	85.378	-0.045	-0.051
-731.981	164.374	0.128	-0.184
-730.966	-94.276	-0.047	-0.013
-729.952	-31.066	-0.285	-0.164
-728.937	175.233	0.083	0.123
-727.923	-32.893	0.303	-0.172
-726.908	-137.237	-0.230	0.027
-725.894	121.951	-0.126	0.161
-724.879	211.178	0.136	-0.218
-723.864	0.927	0.226	-0.165
-722.850	91.953	0.142	-0.163
-721.835	-110.488	-0.205	-0.043
-720.821	-33.323	-0.086	-0.049
-719.806	179.694	-0.084	0.125
-718.791	-200.000	-0.036	0.269
-717.777	-15.515	-0.074	-0.048
-716.762	-30.415	0.036	-0.021
-715.748	-70.572	-0.161	0.062
-714.733	21.025	0.120	0.099
-713.718	-11.292	0.261	-0.175
-712.704	-113.586	-0.461	0.092
-711.689	9.360	-0.030	0.023
-710.675	800.000	0.029	-0.105
-709.660	-132.801	-0.306	-0.040
-708.645	-52.995	-0.152	0.071
-707.631	-103.928	-0.206	-0.049
-706.616	-93.203	-0.305	-0.086
-705.602	77.638	0.189	-0.205
-704.587	-200.000	-0.067	0.419
-703.572	107.228	-0.155	-0.187
-702.558	-189.765	-0.159	0.002
-701.543	55.181	-0.221	-0.218
-700.529	-61.816	0.336	0.143
-699.514	617.657	0.059	0.150
-698.499	800.000	-0.110	-0.369
-697.485	-59.708	0.107	-0.047
-696.470	285.820	0.102	-0.187
-695.456	-35.493	-0.350	-0.194
-694.441	-200.000	0.008	-0.194
-693.426	-200.000	0.036	-0.176
-692.412	800.000	0.074	-0.210
-691.397	-45.517	0.369	-0.186
-690.383	800.000	-0.049	-0.174
-689.368	46.983	-0.183	-0.173
-688.354	-61.872	0.118	0.050
-687.339	145.009	0.028	-0.039
-686.324	-154.528	-0.066	0.005
-685.310	245.094	0.171	-0.293
-684.295	800.000	0.041	-0.151
-683.281	-200.000	-0.071	0.341
-682.266	-111.382	-0.191	-0.040
-681.251	-11.178	-0.218	-0.146
-680.237	-200.000	-0.060	0.450
-679.222	388.639	-0.065	0.137
-678.208	-200.000	-0.042	-0.691
-677.193	-37.903	0.260	-0.141
-676.178	168.059	-0.089	-0.129
-675.164	-200.000	-0.000	0.398
-674.149	-26.328	-0.327	0.196
-673.135	58.244	-0.079	0.079
-672.120	-16.119	-0.034	0.022
-671.105	-34.930	-0.127	-0.070
-670.091	-22.644	-0.430	-0.265
-669.076	-200.000	-0.017	-0.190
-668.062	-159.408	-0.025	0.001
-667.047	99.156	-0.068	0.080
-666.032	58.924	0.105	0.105
-665.018	-200.000	0.031	0.224
-664.003	800.000	-0.016	-0.067
-662.989	43.329	-0.032	-0.029
-661.974	14.784	-0.258	-0.206
-660.959	54.192	-0.057	0.056
-659.945	-200.000	0.002	0.278
-658.930	-200.000	-0.037	0.239
-657.916	54.157	0.305	-0.299
-656.901	643.851	0.015	0.039
-655.886	592.414	-0.065	-0.164
-654.872	-96.496	0.204	0.055
-653.857	-96.006	0.267	0.072
-652.843	91.432	0.288	-0.330
-651.828	-104.249	-0.092	0.022
-650.814	-20.537	-0.114	0.071
-649.799	-14.403	-0.099	-0.065
-648.784	75.479	-0.078	0.084
-647.770	232.437	-0.169	0.283
-646.755	-111.504	-0.281	-0.058
-645.741	33.469	0.257	-0.227
-644.726	734.808	0.116	-0.317
-643.711	746.064	0.085	0.233
-642.697	69.663	-0.019	0.020
-641.682	-147.520	-0.364	0.031
-640.668	-6.522	0.245	-0.170
-639.653	-122.687	0.076	0.013
-638.638	-102.713	-0.074	0.018
-637.624	230.535	0.148	0.247
-636.609	800.000	0.039	0.140
-635.595	38.051	-0.072	-0.065
-634.580	39.725	0.221	0.202
-633.565	-156.302	0.071	-0.005
-632.551	-200.000	-0.025	0.169
-631.536	800.000	-0.039	0.132
-630.522	-200.000	0.004	0.134
-629.507	118.602	0.252	0.317
-628.492	-37.325	-0.222	0.121
-627.478	-54.595	-0.255	0.117
-626.463	289.691	-0.082	-0.151
-625.449	-148.395	0.054	-0.005
-624.434	10.598	-0.158	0.123
-623.419	800.000	0.036	0.117
-622.405	279.133	0.236	0.428
-621.390	-200.000	-0.029	0.340
-620.376	428.544	0.076	-0.168
-619.361	380.421	-0.028	0.059
-618.346	2.250	-0.124	-0.091
-617.332	-80.337	-0.214	0.073
-616.317	-200.000	0.017	-0.225
-615.303	-106.471	-0.208	-0.047
-614.288	32.230	-0.140	0.123
-613.273	144.083	-0.063	0.085
-612.259	-200.000	-0.022	-0.502
-611.244	-100.773	-0.191	-0.048
-610.230	-133.023	-0.184	-0.024
-609.215	34.358	-0.133	0.118
-608.201	110.823	0.184	-0.225
-607.186	73.857	-0.074	0.079
-606.171	359.373	0.046	-0.094
-605.157	241.032	-0.190	0.322
-604.142	122.835	0.093	-0.118
-603.128	234.092	0.104	-0.175
-602.113	-200.000	-0.021	0.286
-601.098	1.847	-0.184	0.135
-600.084	-200.000	0.022	-0.336
-599.069	-73.087	0.234	0.087
-598.055	112.372	-0.155	-0.191
-597.040	-144.057	0.172	-0.016
-596.025	14.988	-0.170	-0.135
-595.011	250.953	-0.080	-0.139
-593.996	800.000	0.057	0.205
-592.982	-200.000	-0.068	0.430
-591.967	-200.000	0.049	-0.494
-590.952	77.430	-0.264	-0.285
-589.938	-200.000	-0.069	0.394
-588.923	-90.302	0.326	-0.096
-587.909	-46.216	0.322	0.161
-586.894	49.186	0.123	-0.117
-585.879	800.000	0.081	0.323
-584.865	-200.000	0.006	-0.204
-583.850	-200.000	0.069	-0.369
-582.836	278.769	0.121	-0.218
-581.821	800.000	-0.062	-0.242
-580.806	-101.192	-0.094	-0.023
-579.792	6.866	-0.214	-0.162
-578.777	-124.462	0.427	-0.068
-577.763	-44.653	0.129	-0.065
-576.748	80.183	0.151	-0.165
-575.733	-53.370	0.361	0.168
-574.719	-104.496	-0.350	-0.082
-573.704	-200.000	0.047	-0.297
-572.690	-200.000	-0.021	-0.192
-571.675	92.518	0.165	-0.189
-570.661	-200.000	-0.021	0.139
-569.646	237.098	0.026	-0.043
-568.631	274.351	0.078	0.140
-567.617	-25.872	-0.111	-0.066
-566.602	-110.027	0.182	0.039
-565.588	409.074	-0.127	-0.274
-564.573	285.875	-0.138	-0.252
-563.558	800.000	0.017	-0.051
-562.544	-77.897	-0.113	-0.039
-561.529	99.917	0.213	-0.251
-560.515	173.526	-0.086	0.125
-559.500	44.056	-0.152	0.141
-558.485	-101.446	0.323	-0.080
-557.471	122.430	0.265	-0.336
-556.456	89.335	0.220	0.249
-555.442	227.528	0.134	0.221
-554.427	5.876	-0.384	0.288
-553.412	-166.133	-0.175	0.008
-552.398	-20.638	0.199	-0.124
-551.383	373.389	0.138	-0.285
-550.369	-38.790	0.173	-0.093
-549.354	167.129	0.153	0.220
-548.339	-200.000	-0.041	0.244
-547.325	-200.000	0.071	0.350
-546.310	-9.046	-0.129	0.087
-545.296	106.015	-0.150	0.180
-544.281	-8.050	0.211	-0.144
-543.266	-200.000	0.022	-0.260
-542.252	-108.512	0.172	-0.038
-541.237	83.299	-0.089	-0.098
-540.223	217.842	0.107	0.173
-539.208	-200.000	0.002	0.396
-538.193	-1.843	0.273	-0.195
-537.179	-200.000	-0.013	-0.351
-536.164	419.366	-0.057	0.124
-535.150	-128.396	0.243	-0.035
-534.135	-200.000	-0.060	-0.271
-533.121	254.394	-0.241	0.417
-532.106	-183.458	0.199	-0.004
-531.091	11.482	-0.106	0.082
-530.077	-200.000	-0.042	-0.249
-529.062	-146.798	0.378	0.033
-528.048	800.000	-0.114	0.338
-527.033	800.000	-0.046	0.195
-526.018	-94.544	-0.181	0.050
-525.004	-198.806	0.122	0.001
-523.989	18.350	-0.300	-0.243
-522.975	-167.626	-0.213	0.009
-521.960	63.588	0.295	-0.300
-520.945	-6.627	-0.191	0.132
-519.931	-3.385	-0.214	-0.151
-518.916	800.000	-0.015	0.057
-517.902	315.196	-0.153	-0.292
-516.887	-14.787	0.199	0.129
-515.872	93.771	-0.183	-0.210
-514.858	-126.816	-0.249	0.037
-513.843	-200.000	0.017	-0.103
-512.829	-200.000	-0.004	-0.339
-511.814	-200.000	0.018	-0.132
-510.799	22.101	0.163	0.135
-509.785	800.000	-0.014	0.057
-508.770	240.337	0.210	-0.354
-507.756	-61.896	-0.012	-0.005
-506.741	23.526	-0.384	-0.320
-505.726	-59.017	-0.159	-0.069
-504.712	-35.686	-0.226	-0.124
-503.697	-122.570	-0.139	0.023
-502.683	-101.275	-0.091	0.022
-501.668	800.000	0.087	-0.320
-500.653	-200.000	0.012	-0.109
-499.639	540.292	0.081	0.195
-498.624	368.622	-0.074	0.151
-497.610	-128.708	-0.317	-0.045
-496.595	-149.843	0.154	-0.012
-495.581	-140.419	0.013	0.001
-494.566	137.529	-0.262	0.347
-493.551	136.343	-0.208	-0.274
-492.537	-123.630	-0.195	-0.031
-491.522	-75.812	-0.314	-0.113
-490.508	-200.000	0.041	0.351
-489.493	-38.283	-0.111	-0.059
-488.478	-150.905	0.056	0.004
-487.464	186.593	0.112	-0.169
-486.449	800.000	0.129	-0.419
-485.435	661.931	-0.140	0.366
-484.420	-4.559	-0.342	0.239
-483.405	225.543	0.139	0.227
-482.391	480.908	-0.028	0.065
-481.376	-50.993	-0.069	-0.033
-480.362	-131.430	-0.416	-0.056
-479.347	-200.000	-0.021	-0.138
-478.332	18.005	0.284	-0.229
-477.318	800.000	0.078	-0.218
-476.303	473.310	-0.087	-0.198
-475.289	46.701	-0.183	-0.171
-474.274	267.680	-0.154	-0.273
-473.259	800.000	0.076	0.327
-472.245	374.059	0.011	0.022
-471.230	800.000	-0.094	-0.291
-470.216	56.034	-0.085	-0.083
-469.201	-200.000	-0.015	0.517
-468.186	327.748	-0.088	0.170
-467.172	-24.187	-0.114	0.069
-466.157	129.646	0.154	-0.198
-465.143	-92.497	-0.162	-0.046
-464.128	-156.144	0.036	-0.002
-463.113	316.344	-0.019	-0.036
-462.099	-175.969	-0.147	0.004
-461.084	-62.030	-0.068	0.029
-460.070	-185.092	-0.278	0.004
-459.055	322.379	0.171	0.329
-458.040	-104.623	0.371	-0.087
-457.026	149.486	0.325	-0.445
-456.011	100.756	-0.139	0.164
-454.997	-141.962	0.114	0.012
-453.982	-22.019	-0.114	-0.070
-452.968	800.000	-0.008	0.036
-451.953	22.683	0.040	0.033
-450.938	800.000	-0.146	0.457
-449.924	-44.284	-0.107	0.054
-448.909	225.517	0.120	0.196
-447.895	-161.316	0.194	-0.010
-446.880	37.330	-0.181	0.162
-445.865	-95.644	-0.189	0.051
-444.851	-49.266	-0.209	0.101
-443.836	-5.489	-0.181	0.126
-442.822	9.678	-0.124	-0.095
-441.807	800.000	-0.062	0.179
-440.792	-200.000	-0.003	-0.245
-439.778	647.301	0.053	0.138
-438.763	131.546	0.163	-0.212
-437.749	19.104	-0.210	0.170
-436.734	-116.829	-0.124	-0.023
-435.719	800.000	0.040	0.145
-434.705	104.844	-0.158	0.188
-433.690	-200.000	0.010	0.458
-432.676	216.329	-0.131	-0.211
-431.661	-200.000	-0.034	-0.192
-430.646	-191.781	0.218	-0.002
-429.632	683.137	0.115	-0.301
-428.617	-57.807	-0.111	-0.049
-427.603	-75.696	-0.186	0.067
-426.588	-130.714	0.306	-0.042
-425.573	-92.876	0.398	0.112
-424.559	800.000	0.023	-0.070
-423.544	-18.505	-0.320	-0.202
-422.530	-101.081	0.168	0.042
-421.515	-200.000	0.015	0.253
-420.500	726.945	-0.123	0.330
-419.486	28.683	0.091	-0.078
-418.471	-4.128	0.106	-0.074
-417.457	-200.000	0.015	0.089
-416.442	186.168	-0.038	-0.057
-415.428	-200.000	0.035	-0.263
-414.413	-37.444	-0.096	-0.052
-413.398	79.097	0.099	-0.107
-412.384	336.791	0.098	-0.192
-411.369	-130.507	-0.078	0.011
-410.355	540.979	-0.119	-0.286
-409.340	-60.741	0.344	-0.147
-408.325	-38.516	-0.138	0.073
-407.311	619.891	0.055	0.139
-406.296	98.964	0.189	0.220
-405.282	130.396	-0.130	0.168
-404.267	-38.134	-0.097	-0.052
-403.252	-200.000	-0.032	-0.534
-402.238	569.545	0.106	-0.261
-401.223	-182.763	-0.331	0.006
-400.209	-200.000	-0.005	-0.210
-399.194	193.516	0.278	0.425
-398.179	115.220	0.198	-0.243
-397.165	136.734	-0.183	-0.241
-396.150	25.271	0.216	-0.181
-395.136	47.453	0.192	-0.180
-394.121	295.117	-0.077	0.142
-393.106	66.280	0.238	-0.244
-392.092	-200.000	-0.008	0.088
-391.077	62.955	0.151	0.152
-390.063	-200.000	-0.039	-0.198
-389.048	358.087	0.116	-0.233
-388.033	464.618	-0.091	0.205
-387.019	-67.306	-0.485	0.192
-386.004	-140.239	0.230	0.024
-384.990	87.743	0.090	-0.101
-383.975	43.010	0.245	0.225
-382.960	-80.654	-0.174	0.058
-381.946	-103.902	-0.055	0.013
-380.931	-62.045	-0.300	0.126
-379.917	196.472	0.187	-0.287
-378.902	-180.637	-0.220	0.005
-377.888	-21.462	0.138	0.085
-376.873	454.243	0.144	-0.322
-375.858	-200.000	0.017	0.208
-374.844	-138.376	0.259	0.029
-373.829	64.409	-0.071	-0.072
-372.815	124.126	0.134	-0.169
-371.800	160.127	-0.187	0.262
-370.785	119.446	0.066	0.083
-369.771	-178.832	-0.198	-0.005
-368.756	104.069	-0.144	-0.170
-367.742	-139.284	0.411	0.044
-366.727	-4.789	0.160	-0.111
-365.712	-110.874	0.347	0.072
-364.698	-42.735	-0.041	-0.021
-363.683	107.560	-0.271	-0.325
-362.669	177.680	0.167	0.245
-361.654	800.000	-0.079	-0.257
-360.639	-200.000	0.011	-0.079
-359.625	800.000	0.033	0.129
-358.610	23.802	-0.356	-0.295
-357.596	-200.000	0.055	0.276
-356.581	11.493	0.126	0.097
-355.566	-162.380	-0.093	0.005
-354.552	92.280	-0.177	0.200
-353.537	-20.997	-0.020	-0.012
-352.523	-64.299	-0.447	-0.183
-351.508	-139.803	0.384	0.041
-350.493	-43.598	0.143	0.072
-349.479	-62.052	0.198	-0.083
-348.464	-200.000	0.007	0.127
-347.450	-68.874	-0.318	-0.123
-346.435	211.926	-0.020	0.031
-345.420	9.800	0.269	-0.205
-344.406	-200.000	0.046	0.342
-343.391	-135.880	-0.158	0.019
-342.377	-27.612	0.049	-0.028
-341.362	-97.832	-0.088	-0.023
-340.348	-122.835	-0.130	-0.021
-339.333	-57.098	-0.019	-0.008
-338.318	191.895	-0.082	0.124
-337.304	92.406	0.144	-0.163
-336.289	-82.855	0.069	0.022
-335.275	-78.408	-0.171	-0.059
-334.260	341.789	0.096	-0.188
-333.245	800.000	-0.050	-0.190
-332.231	800.000	-0.061	-0.179
-331.216	-200.000	-0.090	0.414
-330.202	413.054	-0.083	0.178
-329.187	-142.115	-0.340	-0.034
-328.172	-136.450	0.128	-0.015
-327.158	-23.226	-0.319	0.193
-326.143	-200.000	-0.004	0.089
-325.129	-36.142	0.413	0.224
-324.114	98.323	-0.142	0.165
-323.099	-200.000	-0.080	-0.354
-322.085	-200.000	0.030	0.184
-321.070	800.000	-0.020	0.074
-320.056	29.917	-0.123	0.105
-319.041	-200.000	0.019	0.266
-318.026	91.573	0.241	-0.272
-317.012	-200.000	-0.051	-0.292
-315.997	318.735	0.145	-0.276
-314.983	-22.477	-0.314	0.191
-313.968	-91.257	-0.304	0.087
-312.953	-18.714	-0.314	-0.197
-311.939	-200.000	-0.011	-0.138
-310.924	198.236	-0.123	0.189
-309.910	-200.000	-0.001	0.091
-308.895	-89.977	-0.266	-0.078
-307.880	-7.283	0.287	0.195
-306.866	218.300	-0.250	-0.400
-305.851	-133.293	0.467	-0.059
-304.837	8.939	0.116	-0.088
-303.822	56.685	-0.157	-0.154
-302.807	192.446	0.167	-0.253
-301.793	-11.871	0.204	-0.135
-300.778	61.053	0.172	-0.171
-299.764	518.922	-0.093	0.219
-298.749	800.000	-0.040	0.121
-297.735	-200.000	0.030	-0.239
-296.720	518.524	0.152	-0.358
-295.705	-46.631	0.135	0.066
-294.691	-200.000	-0.012	0.221
-293.676	-77.843	-0.106	0.037
-292.662	-65.262	0.339	0.137
-291.647	800.000	-0.042	-0.120
-290.632	-200.000	-0.015	-0.177
-289.618	-2.203	-0.087	-0.062
-288.603	-132.010	0.261	-0.034
-287.589	-103.375	-0.333	0.079
-286.574	241.913	-0.037	-0.062
-285.559	-134.800	-0.163	0.020
-284.545	-43.725	0.431	0.218
-283.530	-106.964	0.157	0.035
-282.516	-200.000	-0.061	0.431
-281.501	-200.000	0.012	0.362
-280.486	-158.658	-0.205	0.012
-279.472	-150.942	-0.117	0.009
-278.457	800.000	0.100	-0.381
-277.443	-200.000	-0.061	0.281
-276.428	172.654	-0.221	0.319
-275.413	68.124	-0.278	0.286
-274.399	-106.027	-0.330	-0.075
-273.384	-115.618	-0.174	-0.033
-272.370	142.612	-0.111	0.148
-271.355	617.689	-0.036	-0.090
-270.340	-106.267	-0.424	-0.095
-269.326	158.797	-0.162	-0.225
-268.311	138.730	0.149	-0.196
-267.297	-93.893	-0.134	0.037
-266.282	-29.926	0.033	-0.019
-265.267	800.000	0.101	0.301
-264.253	800.000	0.061	0.221
-263.238	-122.390	-0.205	-0.033
-262.224	141.060	0.113	0.149
-261.209	-200.000	-0.025	-0.131
-260.195	4.333	0.261	-0.192
-259.180	-200.000	0.035	0.162
-258.165	-59.165	-0.235	-0.101
-257.151	-200.000	-0.060	0.311
-256.136	661.973	0.118	-0.305
-255.122	-52.451	0.474	-0.220
-254.107	-166.185	-0.358	0.015
-253.092	-4.400	-0.089	0.062
-252.078	-53.533	0.237	0.109
-251.063	240.531	0.153	0.255
-250.049	-33.616	-0.052	0.029
-249.034	240.559	-0.075	-0.125
-248.019	-51.431	0.139	-0.065
-247.005	-200.000	0.029	0.166
-245.990	-22.867	0.045	-0.027
-244.976	47.442	-0.132	-0.123
-243.961	120.226	-0.146	-0.182
-242.946	208.805	-0.065	-0.101
-241.932	-200.000	-0.066	0.381
-240.917	-200.000	-0.014	-0.094
-239.903	-165.974	0.133	0.006
-238.888	127.458	0.070	-0.089
-237.873	-200.000	0.058	-0.286
-236.859	328.530	-0.121	-0.233
-235.844	66.000	-0.165	0.168
-234.830	-200.000	-0.021	0.307
-233.815	-64.506	-0.265	0.108
-232.800	146.802	-0.068	0.092
-231.786	24.423	-0.134	-0.111
-230.771	-46.031	-0.272	-0.134
-229.757	180.907	0.217	-0.319
-228.742	-200.000	-0.020	-0.136
-227.727	191.176	0.096	0.145
-226.713	459.731	-0.086	-0.192
-225.698	800.000	0.072	0.268
-224.684	102.749	0.105	0.124
-223.669	720.412	0.164	0.436
-222.655	-137.613	0.293	-0.033
-221.640	-125.624	0.320	-0.049
-220.625	32.130	-0.253	0.218
-219.611	19.956	0.042	0.034
-218.596	-4.432	0.334	0.231
-217.582	222.896	0.110	-0.178
-216.567	586.163	-0.070	-0.173
-215.552	-200.000	0.070	-0.422
-214.538	-155.615	0.156	0.010
-213.523	-169.048	0.066	-0.002
-212.509	360.343	0.043	-0.087
-211.494	-170.690	0.157	-0.005
-210.479	800.000	-0.029	0.093
-209.465	71.113	-0.031	0.032
-208.450	800.000	0.019	-0.080
-207.436	-200.000	0.030	-0.265
-206.421	800.000	0.050	0.204
-205.406	551.131	0.076	0.183
-204.392	-62.875	0.358	-0.148
-203.377	-200.000	-0.052	0.276
-202.363	-200.000	-0.578	0.002
-201.348	-97.040	-0.327	0.085
-200.333	-106.275	0.350	-0.079
-199.319	-200.000	0.010	0.069
-198.304	244.292	-0.125	0.209
-197.290	43.899	0.165	0.151
-196.275	-200.000	0.023	-0.124
-195.260	77.387	0.152	-0.162
-194.246	108.356	0.160	-0.191
-193.231	-17.277	0.277	-0.175
-192.217	-200.000	0.004	0.115
-191.202	-200.000	0.007	-0.101
-190.187	800.000	-0.041	0.143
-189.173	-200.000	0.098	0.521
-188.158	223.158	0.145	0.234
-187.144	-115.544	0.129	0.024
-186.129	-200.000	0.018	0.085
-185.114	-133.590	0.225	-0.028
-184.100	-200.000	0.001	-0.163
-183.085	-8.244	0.238	0.160
-182.071	-163.827	0.189	0.009
-181.056	-200.000	0.027	0.210
-180.042	-43.923	0.373	-0.188
-179.027	-200.000	-0.021	0.362
-178.012	-41.776	0.288	0.148
-176.998	800.000	0.085	0.300
-175.983	187.555	0.193	0.288
-174.969	564.016	0.066	-0.159
-173.954	433.655	-0.114	0.247
-172.939	7.036	0.151	-0.112
-171.925	94.765	0.218	0.248
-170.910	800.000	-0.068	0.292
-169.896	401.267	-0.182	0.381
-168.881	21.569	-0.220	-0.179
-167.866	92.250	0.100	0.113
-166.852	-82.704	0.136	-0.044
-165.837	390.546	0.037	-0.077
-164.823	-65.564	-0.173	0.069
-163.808	-50.736	0.128	0.060
-162.793	-164.187	0.295	-0.014
-161.779	423.543	0.048	0.103
-160.764	-200.000	0.060	-0.295
-159.750	-137.994	0.218	0.024
-158.735	-113.645	-0.162	0.032
-157.720	719.174	0.074	-0.195
-156.706	773.677	-0.107	0.290
-155.691	800.000	0.029	-0.080
-154.677	42.292	-0.047	-0.042
-153.662	-98.033	-0.093	0.024
-152.647	-128.338	-0.316	-0.045
-151.633	10.695	0.241	-0.184
-150.618	-200.000	-0.016	0.105
-149.604	-200.000	-0.040	0.208
-148.589	-129.603	0.292	0.040
-147.574	-186.105	-0.128	0.002
-146.560	800.000	0.017	0.060
-145.545	-129.971	0.178	-0.024
-144.531	-35.283	0.221	-0.120
-143.516	-156.667	-0.319	0.020
-142.502	413.860	0.099	-0.209
-141.487	34.912	-0.224	-0.195
-140.472	800.000	0.067	0.279
-139.458	367.677	-0.066	-0.133
-138.443	57.865	-0.089	-0.086
-137.429	-45.829	0.327	-0.161
-136.414	-124.416	0.263	0.041
-135.399	-168.242	0.272	0.010
-134.385	-138.802	0.208	0.023
-133.370	800.000	0.018	-0.068
-132.356	242.999	0.131	-0.219
-131.341	-113.072	0.142	0.028
-130.326	61.333	-0.124	0.123
-129.312	-8.417	0.118	0.079
-128.297	800.000	0.101	0.314
-127.283	43.486	-0.220	-0.201
-126.268	35.942	0.167	-0.147
-125.253	40.746	-0.147	-0.132
-124.239	122.976	0.124	0.155
-123.224	-69.893	-0.206	0.078
-122.210	-200.000	-0.012	0.090
-121.195	-161.480	0.195	-0.010
-120.180	56.587	0.138	0.134
-119.166	694.224	0.166	0.433
-118.151	538.292	0.076	-0.181
-117.137	-57.182	-0.080	-0.035
-116.122	-35.093	0.262	0.142
-115.107	79.646	0.182	-0.194
-114.093	549.264	-0.046	-0.109
-113.078	675.960	-0.037	-0.096
-112.064	-44.497	-0.093	0.046
-111.049	-181.482	0.347	-0.007
-110.034	483.503	-0.065	0.147
-109.020	-104.653	-0.038	-0.009
-108.005	-73.371	-0.236	0.086
-106.991	-200.000	-0.041	0.231
-105.976	22.234	0.111	-0.090
-104.962	800.000	0.063	0.180
-103.947	151.680	-0.092	-0.125
-102.932	221.291	-0.299	-0.478
-101.918	-84.857	0.195	0.061
-100.903	48.617	0.074	0.069
-99.889	-75.321	0.181	-0.064
-98.874	-44.264	0.191	0.095
-97.859	772.733	0.109	0.296
-96.845	96.124	0.162	0.184
-95.830	262.456	-0.256	0.443
-94.816	-83.504	0.031	0.010
-93.801	-200.000	-0.077	0.414
-92.786	800.000	0.018	0.076
-91.772	141.818	0.146	-0.193
-90.757	125.686	-0.155	-0.195
-89.743	-200.000	0.021	-0.181
-88.728	800.000	-0.062	-0.173
-87.713	-4.818	-0.062	0.043
-86.699	-36.044	-0.473	0.255
-85.684	418.757	0.035	-0.075
-84.670	-200.000	-0.026	-0.351
-83.655	18.986	0.207	-0.165
-82.640	6.574	-0.234	0.173
-81.626	-178.066	0.167	-0.004
-80.611	-10.888	-0.157	0.103
-79.597	220.088	0.115	0.183
-78.582	631.607	0.129	-0.325
-77.567	-200.000	-0.062	-0.273
-76.553	60.381	-0.317	-0.313
-75.538	-200.000	0.013	-0.203
-74.524	-134.779	-0.233	0.028
-73.509	6.247	-0.096	0.071
-72.494	-3.200	0.122	-0.085
-71.480	104.355	-0.188	-0.220
-70.465	130.802	-0.100	-0.128
-69.451	-200.000	0.034	0.298
-68.436	13.482	-0.041	0.032
-67.422	227.821	-0.076	0.123
-66.407	-200.000	0.061	0.303
-65.392	-200.000	0.045	0.195
-64.378	29.804	-0.207	-0.176
-63.363	2.388	-0.064	-0.046
-62.349	383.973	0.157	0.322
-61.334	80.005	-0.692	-0.740
-60.319	-153.989	-0.045	-0.003
-59.305	-200.000	0.087	-0.843
-58.290	44.162	0.864	0.788
-57.276	462.582	0.711	1.579
-56.261	-200.000	81.003	503.585
-55.246	507.006	1336.203	3082.353
-54.232	149.560	2554.138	3440.743
-53.217	113.483	2218.941	2678.948
-52.203	50.838	1679.403	1581.908
-51.188	43.372	1411.946	1282.742
-50.173	39.995	1367.784	1221.740
-49.159	57.878	1406.016	1368.082
-48.144	63.948	1424.518	1423.949
-47.130	43.852	1385.726	1261.713
-46.115	39.930	1369.076	1222.295
-45.100	39.856	1363.940	1217.206
-44.086	39.801	1361.969	1215.063
-43.071	39.802	1359.686	1212.983
-42.057	39.696	1357.345	1210.193
-41.042	39.802	1355.610	1209.247
-40.027	39.815	1354.306	1208.120
-39.013	39.822	1352.254	1206.284
-37.998	39.770	1350.475	1204.332
-36.984	39.875	1348.655	1203.297
-35.969	39.953	1346.500	1201.803
-34.954	39.983	1344.766	1200.390
-33.940	39.973	1343.379	1199.043
-32.925	39.963	1342.018	1197.720
-31.911	40.061	1340.806	1197.183
-30.896	40.103	1338.853	1195.644
-29.881	40.148	1337.710	1194.854
-28.867	40.046	1336.145	1192.793
-27.852	40.049	1334.688	1191.461
-26.838	39.983	1333.236	1189.721
-25.823	40.007	1331.852	1188.580
-24.809	40.019	1330.053	1187.004
-23.794	40.076	1328.865	1186.239
-22.779	39.972	1327.901	1184.707
-21.765	40.037	1326.192	1183.521
-20.750	39.984	1324.515	1181.663
-19.736	39.875	1323.691	1180.228
-18.721	39.864	1322.315	1178.889
-17.706	39.996	1321.134	1178.578
-16.692	39.967	1319.944	1177.295
-15.677	39.738	1319.460	1175.456
-14.663	39.957	1318.125	1175.522
-13.648	39.887	1316.652	1173.742
-12.633	39.825	1315.853	1172.619
-11.619	39.883	1314.739	1171.921
-10.604	39.854	1313.842	1170.907
-9.590	39.803	1313.229	1170.008
-8.575	39.869	1311.917	1169.186
-7.560	39.950	1310.686	1168.521
-6.546	39.878	1310.083	1167.512
-5.531	39.940	1309.334	1167.163
-4.517	39.752	1308.823	1165.551
-3.502	39.898	1307.784	1165.442
-2.487	39.791	1307.185	1164.231
-1.473	39.796	1302.202	1159.777
-0.458	37.884	1285.694	1133.920
0.556	33.528	1263.636	1082.304
1.571	28.626	1266.088	1056.180
2.586	27.264	1280.728	1060.364
3.600	25.955	1270.081	1043.879
4.615	18.905	1193.030	941.975
5.629	7.777	1111.249	820.225
6.644	2.900	1088.250	778.502
7.659	2.380	1085.667	773.956
8.673	2.307	1083.533	771.994
9.688	2.255	1082.824	771.158
10.702	2.574	1081.780	771.956
11.717	9.124	1091.388	811.954
12.731	19.941	1107.195	878.848
13.746	25.213	1113.384	910.519
14.761	25.947	1113.813	914.513
15.775	25.896	1113.621	914.014
16.790	25.754	1112.526	912.316
17.804	25.821	1111.878	912.042
18.819	25.707	1111.753	911.285
19.834	25.902	1111.082	911.637
20.848	25.976	1110.240	911.241
21.863	25.841	1110.096	910.362
22.877	25.767	1109.509	909.426
23.892	25.768	1108.640	908.637
24.907	25.921	1107.935	908.751
25.921	25.832	1106.635	907.156
26.936	25.772	1105.817	906.103
27.950	25.793	1103.864	904.530
28.965	25.598	1102.548	902.392
29.980	25.744	1100.678	901.511
30.994	25.901	1100.155	901.790
32.009	25.862	1099.214	900.742
33.023	25.710	1097.586	898.572
34.038	25.766	1096.612	897.973
35.053	25.864	1095.911	897.811
36.067	25.765	1095.557	896.949
37.082	25.871	1094.345	896.405
38.096	26.059	1093.882	896.876
39.111	25.979	1093.737	896.280
40.126	25.945	1091.952	894.573
41.140	25.579	1090.080	891.144
42.155	25.449	1088.817	889.390
43.169	25.447	1087.714	888.401
44.184	25.490	1087.055	887.998
45.199	25.344	1085.866	886.228
46.213	25.436	1084.831	885.755
47.228	25.652	1084.103	886.149
48.242	25.736	1083.234	885.773
49.257	25.805	1082.347	885.306
50.271	25.840	1082.213	885.293
51.286	26.029	1080.899	885.066
52.301	25.910	1080.360	883.962
53.315	25.957	1079.117	883.100
54.330	25.821	1078.515	881.863
55.344	25.877	1077.655	881.357
56.359	25.715	1076.809	879.793
57.374	25.553	1075.843	878.137
58.388	25.531	1075.127	877.364
59.403	25.544	1074.315	876.690
60.417	25.332	1073.658	875.044
61.432	25.455	1072.456	874.581
62.447	25.592	1071.956	874.766
63.461	25.586	1071.646	874.405
64.476	25.558	1070.233	873.039
65.490	25.457	1069.583	871.941
66.505	25.428	1069.175	871.392
67.520	25.487	1068.477	871.030
68.534	25.319	1067.194	869.096
69.549	24.987	1066.034	866.466
70.563	25.014	1065.176	865.825
71.578	25.016	1064.478	865.190
72.593	24.709	1063.625	862.938
73.607	25.170	1062.197	863.923
74.622	25.261	1062.296	864.367
75.636	25.310	1061.727	864.065
76.651	25.314	1060.008	862.608
77.666	25.109	1060.032	861.565
78.680	25.224	1059.277	861.430
79.695	25.366	1058.135	861.105
80.709	25.363	1058.239	861.099
81.724	25.403	1056.850	860.083
82.739	25.443	1055.933	859.450
83.753	25.731	1056.250	861.009
84.768	26.050	1055.338	861.714
85.782	26.243	1054.309	861.722
86.797	26.172	1052.648	859.949
87.812	26.016	1052.088	858.673
88.826	25.925	1051.607	857.769
89.841	26.006	1050.834	857.448
90.855	26.208	1049.586	857.315
91.870	26.096	1048.425	855.759
92.884	25.950	1047.332	854.100
93.899	25.848	1046.436	852.811
94.914	25.938	1046.217	852.981
95.928	25.879	1044.856	851.518
96.943	25.621	1043.048	848.754
97.957	25.373	1042.090	846.729
98.972	25.253	1041.244	845.402
99.987	25.498	1040.574	845.936
101.001	25.689	1039.782	846.116
102.016	25.795	1038.700	845.659
103.030	25.614	1037.890	844.076
104.045	25.567	1037.005	843.057
105.060	25.351	1035.950	841.116
106.074	25.504	1035.136	841.098
107.089	25.814	1034.859	842.247
108.103	25.670	1033.824	840.657
109.118	25.562	1032.351	838.880
110.133	25.568	1031.001	837.739
111.147	25.332	1029.968	835.726
112.162	25.233	1028.938	834.354
113.176	25.394	1028.772	834.895
114.191	25.427	1027.503	833.947
115.206	25.115	1026.411	831.538
116.220	25.034	1025.925	830.697
117.235	25.101	1024.949	830.140
118.249	25.068	1024.277	829.370
119.264	25.131	1023.281	828.784
120.279	25.122	1022.840	828.311
121.293	25.188	1021.698	827.616
122.308	25.084	1021.374	826.800
123.322	25.007	1020.266	825.477
124.337	25.066	1018.304	824.089
125.352	24.415	1017.089	820.043
126.366	24.375	1015.837	818.775
127.381	25.223	1015.958	822.692
128.395	25.434	1016.210	823.789
129.410	25.696	1014.897	823.850
130.424	25.849	1013.835	823.618
131.439	25.747	1012.978	822.380
132.454	25.722	1012.386	821.715
133.468	25.640	1011.365	820.439
134.483	25.742	1010.521	820.145
135.497	26.046	1009.866	820.924
136.512	25.971	1009.036	819.836
137.527	26.055	1008.031	819.329
138.541	25.970	1007.433	818.384
139.556	26.026	1006.313	817.659
140.570	26.072	1005.743	817.332
141.585	26.044	1004.894	816.441
142.600	25.992	1003.764	815.215
143.614	26.266	1003.002	815.762
144.629	26.376	1002.173	815.514
145.643	26.292	1000.507	813.708
146.658	25.973	999.567	811.436
147.673	26.027	997.946	810.287
148.687	25.854	997.293	808.912
149.702	25.620	996.475	807.125
150.716	25.766	995.251	806.719
151.731	25.786	994.690	806.281
152.746	25.962	994.554	806.886
153.760	26.094	993.676	806.694
154.775	26.109	993.214	806.312
155.789	26.160	991.977	805.467
156.804	26.088	991.162	804.412
157.819	26.177	990.394	804.114
158.833	26.243	989.747	803.810
159.848	26.081	988.757	802.215
160.862	26.100	987.254	801.008
161.877	26.037	986.690	800.201
162.892	26.260	985.225	799.930
163.906	26.178	983.791	798.333
164.921	26.105	983.042	797.333
165.935	26.211	982.373	797.187
166.950	26.079	981.491	795.816
167.964	26.183	980.756	795.609
168.979	25.900	979.651	793.397
169.994	25.758	978.866	792.067
171.008	26.126	978.396	793.235
172.023	26.200	977.368	792.653
173.037	25.931	976.109	790.385
174.052	25.831	975.338	789.254
175.067	25.869	974.947	789.034
176.081	26.019	974.070	788.909
177.096	25.813	973.765	787.693
178.110	25.658	972.318	785.775
179.125	25.347	971.746	783.887
180.140	25.580	971.357	784.520
181.154	25.687	970.747	784.425
182.169	25.932	971.026	785.648
183.183	26.078	970.728	785.972
184.198	25.904	969.708	784.320
185.213	26.003	968.913	784.039
186.227	26.121	968.296	783.983
187.242	26.124	967.751	783.486
188.256	26.160	966.888	782.871
189.271	26.252	966.157	782.609
190.286	25.781	965.124	779.663
191.300	25.329	963.190	776.081
192.315	24.449	961.511	770.859
193.329	24.443	961.266	770.570
194.344	25.330	961.877	774.821
195.359	25.818	962.234	777.149
196.373	26.026	961.633	777.487
197.388	25.809	960.822	775.829
198.402	25.912	960.388	775.856
199.417	26.088	959.444	775.779
200.432	25.736	958.576	773.498
201.446	25.606	957.633	772.109
202.461	25.675	957.057	771.873
203.475	24.779	955.393	766.627
204.490	24.093	953.563	762.154
205.504	24.876	954.249	765.986
206.519	25.532	954.011	768.531
207.534	25.614	954.093	768.881
208.548	26.206	953.524	770.884
209.563	25.906	952.492	768.700
210.577	25.752	951.929	767.522
211.592	26.207	951.707	769.213
212.607	26.152	950.819	768.192
213.621	26.151	950.493	767.860
214.636	26.018	949.471	766.399
215.650	26.109	948.856	766.221
216.665	26.283	948.232	766.386
217.680	26.179	946.808	764.729
218.694	25.762	945.678	761.986
219.709	25.612	945.371	761.033
220.723	25.998	945.006	762.307
221.738	25.946	944.064	761.260
222.753	25.973	943.690	761.005
223.767	26.140	943.342	761.358
224.782	26.240	942.823	761.298
225.796	26.320	942.255	761.107
226.811	25.686	940.778	757.181
227.826	24.883	939.917	753.042
228.840	25.179	938.995	753.482
229.855	25.198	938.540	753.131
230.869	24.984	937.019	750.946
231.884	25.349	937.463	752.764
232.899	25.952	937.649	755.376
233.913	25.890	936.806	754.369
234.928	25.840	935.975	753.423
235.942	25.756	935.559	752.670
236.957	25.465	934.516	750.553
237.972	25.559	934.145	750.580
238.986	25.628	933.437	750.233
240.001	25.517	933.007	749.357
241.015	25.805	932.451	750.043
242.030	25.932	932.095	750.221
243.045	26.093	931.437	750.295
244.059	26.197	930.896	750.221
245.074	25.931	929.928	748.270
246.088	25.585	929.392	746.339
247.103	25.933	928.662	747.128
248.117	26.382	928.867	749.090
249.132	26.637	928.563	749.832
250.147	26.769	927.942	749.811
251.161	26.934	927.543	750.103
252.176	26.891	927.214	749.595
253.190	26.934	926.469	749.103
254.205	27.019	926.164	749.140
255.220	26.890	925.505	748.011
256.234	26.911	924.258	747.021
257.249	26.918	923.364	746.263
258.263	26.686	922.776	744.769
259.278	26.848	922.685	745.295
260.293	27.005	921.630	745.021
261.307	26.835	920.982	743.734
262.322	26.685	920.111	742.351
263.336	25.804	918.282	737.205
264.351	24.889	916.036	731.599
265.366	24.926	916.252	731.859
266.380	26.104	916.451	736.763
267.395	26.560	916.432	738.545
268.409	26.411	915.968	737.498
269.424	26.602	915.465	737.808
270.439	26.665	914.770	737.437
271.453	26.691	914.332	737.123
272.468	27.029	913.533	737.787
273.482	27.154	913.203	737.965
274.497	26.580	911.927	734.538
275.512	26.312	910.843	732.515
276.526	26.500	911.235	733.530
277.541	26.708	910.962	734.085
278.555	26.509	910.016	732.452
279.570	26.466	908.906	731.320
280.585	26.593	908.643	731.557
281.599	26.460	907.546	730.073
282.614	25.926	906.301	726.855
283.628	25.883	905.945	726.334
284.643	26.278	905.865	727.795
285.657	25.869	904.568	725.042
286.672	25.588	903.696	723.152
287.687	26.079	903.811	725.154
288.701	26.288	903.018	725.290
289.716	25.800	902.444	722.808
290.730	25.863	901.863	722.530
291.745	25.567	900.655	720.315
292.760	25.963	900.521	721.728
293.774	26.930	901.294	726.155
294.789	27.271	900.758	727.022
295.803	27.296	899.989	726.436
296.818	27.224	899.341	725.564
297.833	26.774	898.166	722.755
298.847	26.719	897.268	721.754
299.862	27.070	897.491	723.266
300.876	27.231	896.842	723.320
301.891	27.195	896.367	722.729
302.906	26.779	895.360	720.198
303.920	26.920	895.083	720.472
304.935	27.247	895.090	721.714
305.949	27.154	894.086	720.472
306.964	26.905	893.346	718.825
307.979	26.956	893.044	718.723
308.993	27.418	892.949	720.410
310.008	27.326	892.280	719.441
311.022	26.982	891.409	717.316
312.037	26.910	890.719	716.414
313.052	26.657	889.728	714.554
314.066	25.983	887.908	710.378
315.081	25.311	887.233	707.126
316.095	26.279	887.399	711.010
317.110	26.947	886.858	713.139
318.125	26.012	885.618	708.407
319.139	25.012	884.149	703.247
320.154	24.992	883.683	702.735
321.168	25.787	884.126	706.143
322.183	26.587	884.374	709.414
323.197	26.805	884.215	710.081
324.212	27.096	883.559	710.627
325.227	26.859	883.104	709.271
326.241	26.833	882.287	708.450
327.256	26.727	882.033	707.772
328.270	26.659	881.152	706.739
329.285	26.403	880.283	704.978
330.300	26.163	879.402	703.277
331.314	26.363	879.193	703.825
332.329	26.966	878.986	705.943
333.343	27.029	878.758	705.945
334.358	27.060	878.447	705.751
335.373	27.021	878.137	705.287
336.387	27.446	877.874	706.663
337.402	27.519	877.577	706.644
338.416	27.417	877.153	705.848
339.431	27.527	877.220	706.263
340.446	27.652	877.013	706.520
341.460	27.527	876.326	705.422
342.475	27.461	875.580	704.502
343.489	27.396	875.490	704.116
344.504	27.735	874.845	704.844
345.519	27.845	874.950	705.293
346.533	27.950	874.123	704.967
347.548	27.920	873.454	704.250
348.562	27.845	872.988	703.524
349.577	27.715	872.386	702.474
350.592	27.705	871.502	701.662
351.606	27.755	870.822	701.247
352.621	27.606	869.985	699.937
353.635	27.690	869.075	699.466
354.650	26.998	867.478	695.470
355.665	26.004	866.248	690.615
356.679	26.471	865.636	691.853
357.694	26.815	865.354	692.883
358.708	26.806	864.606	692.187
359.723	27.198	865.036	693.966
360.738	27.546	864.931	695.150
361.752	27.516	864.137	694.333
362.767	27.915	863.693	695.437
363.781	28.212	863.591	696.422
364.796	28.382	862.830	696.395
365.810	28.217	862.758	695.648
366.825	28.353	862.001	695.494
367.840	28.005	861.443	693.658
368.854	27.660	860.433	691.478
369.869	27.581	860.216	690.943
370.883	27.810	859.633	691.281
371.898	27.384	859.521	689.514
372.913	27.580	858.818	689.633
373.927	27.851	858.231	690.123
374.942	27.874	857.866	689.855
375.956	28.002	857.351	689.863
376.971	28.146	857.217	690.238
377.986	28.193	856.774	690.000
379.000	28.169	856.115	689.318
380.015	28.067	855.271	688.193
381.029	28.124	854.730	687.911
382.044	28.183	854.562	687.934
383.059	28.346	853.569	687.689
384.073	28.225	853.472	687.094
385.088	28.018	852.939	685.827
386.102	27.928	852.050	684.717
387.117	27.817	851.443	683.753
388.132	27.517	850.281	681.636
389.146	27.046	849.354	679.070
390.161	27.358	849.259	680.100
391.175	27.861	849.224	681.890
392.190	27.788	847.496	680.171
393.205	26.283	845.388	672.821
394.219	24.707	844.117	665.884
395.234	24.508	843.836	664.863
396.248	26.170	845.180	672.058
397.263	27.656	846.291	678.414
398.278	27.641	845.636	677.771
399.292	27.435	844.808	676.283
400.307	27.444	844.421	675.946
401.321	27.522	843.735	675.626
402.336	27.946	843.809	677.200
403.350	28.406	843.525	678.615
404.365	28.682	843.818	679.815
405.380	28.866	843.427	680.118
406.394	28.946	842.670	679.743
407.409	28.949	842.100	679.234
408.423	28.810	842.068	678.636
409.438	28.863	841.718	678.490
410.453	28.958	841.263	678.410
411.467	28.808	840.816	677.439
412.482	28.773	840.310	676.841
413.496	28.986	839.943	677.270
414.511	29.004	839.613	677.012
415.526	29.072	838.676	676.447
416.540	28.757	837.810	674.530
417.555	28.508	837.372	673.205
418.569	28.624	837.284	673.498
419.584	28.599	836.394	672.632
420.599	28.402	836.030	671.560
421.613	98.300	1272.224	1392.734
422.628	85.265	1335.787	1392.847
