DTS Sentinel unit serial number:	SN413079Multiplexer serial number:	ORYXHardware model number:	OX4-SRSoftware version number:	ORYX F/W v4.00 Oryx Data Collector v3.7.2.0data status	okinstallation	princeton_trtdifferential loss correction	single-endedforward channel	channel 1reverse channel	N/Adate	2019/09/18time	05:50:35forward acquisition time	60.00reverse acquisition time	0.00gamma	496.2192k internal	0.2340k external	0.2340temperature offset calibration	0.9981default loss term (dB/km)	0.3790temperature slope calibration	1.0000multiplexer offset coefficient	1.0000multiplexer slope coefficient	1.0000fibre end	0.00T internal ref (°C)	23.25T ext. ref 1 (°C)	0.19T ext. ref 2 (°C)	16.99length (m)	temperature (°C)	Stokes	anti-Stokes-747.200	405.938	0.036	-0.075
-746.185	-105.774	0.074	0.017
-745.171	-10.451	0.172	0.114
-744.156	173.255	-0.043	-0.063
-743.142	800.000	0.036	-0.142
-742.127	457.830	-0.061	0.136
-741.112	-57.486	-0.409	0.180
-740.098	18.606	-0.278	0.223
-739.083	392.552	0.041	0.085
-738.069	14.957	-0.209	0.164
-737.054	0.442	0.137	0.098
-736.039	-135.004	-0.298	-0.036
-735.025	67.455	0.047	0.048
-734.010	-200.000	-0.003	-0.213
-732.996	124.788	-0.127	-0.160
-731.981	239.871	-0.179	-0.298
-730.966	800.000	-0.130	-0.466
-729.952	9.841	0.149	-0.113
-728.937	-59.944	-0.316	0.135
-727.923	-200.000	0.057	-0.617
-726.908	800.000	-0.132	0.445
-725.894	-118.213	-0.132	0.024
-724.879	65.291	-0.335	0.339
-723.864	218.299	0.250	0.400
-722.850	292.056	0.091	-0.167
-721.835	-58.560	-0.480	-0.209
-720.821	-96.945	-0.261	-0.068
-719.806	-200.000	0.002	-0.262
-718.791	-161.002	-0.416	-0.022
-717.777	-49.602	-0.171	0.081
-716.762	-64.013	0.452	0.185
-715.748	-94.638	-0.326	0.089
-714.733	199.809	0.213	-0.328
-713.718	-54.071	0.348	0.159
-712.704	28.603	0.183	0.155
-711.689	-96.173	-0.287	0.076
-710.675	282.756	-0.167	0.301
-709.660	-200.000	0.029	0.244
-708.645	96.924	0.108	0.124
-707.631	-200.000	0.034	0.204
-706.616	-200.000	-0.010	0.349
-705.602	-32.609	0.273	0.152
-704.587	39.915	-0.039	-0.035
-703.572	-30.435	0.141	0.080
-702.558	2.207	-0.182	-0.131
-701.543	17.527	0.232	0.185
-700.529	-109.057	0.098	-0.021
-699.514	12.321	0.152	-0.117
-698.499	-200.000	0.045	0.570
-697.485	-117.312	0.164	0.030
-696.470	-105.056	-0.162	0.037
-695.456	800.000	0.036	0.150
-694.441	454.809	0.025	-0.056
-693.426	-59.208	-0.204	0.088
-692.412	-200.000	0.029	0.249
-691.397	98.297	0.116	0.134
-690.383	225.944	-0.095	0.155
-689.368	-200.000	-0.021	0.099
-688.354	179.015	0.156	0.228
-687.339	-200.000	0.004	-0.057
-686.324	-200.000	-0.080	-0.358
-685.310	107.477	0.070	-0.083
-684.295	539.954	-0.152	-0.362
-683.281	-69.507	-0.325	-0.125
-682.266	518.342	0.067	0.158
-681.251	203.776	0.112	0.173
-680.237	389.901	-0.023	0.047
-679.222	-32.843	-0.179	0.100
-678.208	180.253	-0.061	-0.090
-677.193	800.000	0.118	-0.341
-676.178	-111.257	0.328	-0.067
-675.164	-11.574	-0.145	0.095
-674.149	-9.090	-0.048	0.032
-673.135	400.468	-0.040	-0.083
-672.120	-139.387	0.261	-0.028
-671.105	-40.134	0.280	0.146
-670.091	800.000	0.045	0.171
-669.076	-80.805	-0.203	-0.068
-668.062	306.936	-0.029	0.054
-667.047	-77.753	-0.179	-0.062
-666.032	-23.564	-0.347	0.208
-665.018	800.000	0.024	0.068
-664.003	-56.564	0.320	0.142
-662.989	4.202	-0.164	-0.120
-661.974	185.605	0.097	-0.144
-660.959	-153.308	-0.103	-0.007
-659.945	-154.886	-0.255	-0.017
-658.930	800.000	0.038	-0.109
-657.916	800.000	0.023	-0.066
-656.901	-62.136	-0.106	0.044
-655.886	-200.000	0.049	-0.413
-654.872	-64.996	-0.129	-0.052
-653.857	-0.583	0.131	0.093
-652.843	-85.622	0.265	0.082
-651.828	-200.000	-0.076	-0.335
-650.814	-200.000	-0.031	0.288
-649.799	-50.577	-0.195	0.092
-648.784	-175.918	-0.072	0.002
-647.770	798.237	0.056	0.153
-646.755	-68.624	-0.306	-0.118
-645.741	-88.307	-0.255	-0.076
-644.726	-22.420	0.219	0.133
-643.711	266.333	-0.030	-0.052
-642.697	-127.968	0.112	-0.016
-641.682	-116.801	-0.233	0.043
-640.668	-119.031	0.299	0.052
-639.653	-107.507	-0.249	0.054
-638.638	489.656	0.102	0.233
-637.624	-172.731	0.263	-0.008
-636.609	-62.375	0.123	-0.051
-635.595	3.006	0.191	0.138
-634.580	394.023	0.118	-0.246
-633.565	-200.000	0.004	-0.313
-632.551	-29.527	-0.076	-0.043
-631.536	724.664	-0.149	-0.397
-630.522	-139.754	0.253	0.027
-629.507	532.155	-0.188	-0.444
-628.492	-137.877	-0.568	-0.063
-627.478	-168.558	-0.139	0.005
-626.463	800.000	-0.056	0.172
-625.449	28.635	-0.159	-0.134
-624.434	84.596	-0.124	-0.135
-623.419	155.660	0.085	-0.117
-622.405	800.000	-0.062	-0.252
-621.390	465.430	-0.031	0.070
-620.376	-111.198	0.229	0.047
-619.361	583.718	0.146	-0.359
-618.346	-149.859	-0.211	0.016
-617.332	-200.000	-0.013	0.260
-616.317	547.722	-0.089	0.213
-615.303	-200.000	0.003	-0.012
-614.288	-25.350	0.164	0.097
-613.273	800.000	-0.034	0.094
-612.259	-62.335	-0.183	0.076
-611.244	-141.462	0.345	0.035
-610.230	800.000	0.066	-0.211
-609.215	-41.367	0.235	-0.121
-608.201	74.796	-0.119	-0.125
-607.186	800.000	0.050	-0.173
-606.171	-97.309	0.219	-0.057
-605.157	-81.432	-0.507	0.167
-604.142	-200.000	-0.015	0.175
-603.128	11.674	-0.228	0.174
-602.113	237.968	0.097	0.161
-601.098	76.382	-0.012	-0.013
-600.084	800.000	-0.078	-0.265
-599.069	50.256	0.081	0.076
-598.055	701.454	0.093	-0.243
-597.040	-42.346	-0.345	-0.175
-596.025	155.445	0.205	-0.281
-595.011	-114.146	0.131	0.025
-593.996	-85.564	-0.292	0.090
-592.982	-200.000	0.011	0.345
-591.967	800.000	0.144	-0.410
-590.952	-200.000	0.012	0.349
-589.938	221.994	-0.285	0.457
-588.923	653.251	-0.162	-0.415
-587.909	800.000	-0.121	-0.462
-586.894	-200.000	-0.032	0.206
-585.879	243.694	-0.043	0.073
-584.865	207.272	-0.146	0.228
-583.850	231.535	0.115	0.187
-582.836	297.392	-0.153	-0.280
-581.821	-74.135	0.237	-0.086
-580.806	-2.078	-0.111	0.078
-579.792	-22.927	0.139	-0.083
-578.777	323.992	-0.241	-0.458
-577.763	16.441	0.225	-0.177
-576.748	-153.807	-0.182	0.012
-575.733	800.000	-0.060	-0.213
-574.719	-17.459	0.148	-0.093
-573.704	259.058	0.099	-0.171
-572.690	503.708	0.056	0.128
-571.675	339.214	0.179	-0.348
-570.661	-200.000	0.057	-0.320
-569.646	713.233	-0.101	-0.267
-568.631	-134.833	-0.406	0.049
-567.617	-163.943	-0.278	0.013
-566.602	153.638	0.117	0.160
-565.588	38.768	-0.273	0.242
-564.573	-114.298	0.493	-0.095
-563.558	-200.000	-0.018	0.143
-562.544	-167.750	0.032	-0.001
-561.529	11.317	0.162	-0.124
-560.515	204.768	0.251	-0.387
-559.500	142.105	-0.151	-0.199
-558.485	-97.983	-0.155	-0.040
-557.471	-130.657	-0.318	0.043
-556.456	-200.000	0.006	0.124
-555.442	-200.000	-0.008	-0.115
-554.427	800.000	-0.106	-0.309
-553.412	13.183	-0.072	-0.056
-552.398	252.047	0.106	-0.179
-551.383	800.000	0.032	0.139
-550.369	141.065	-0.193	0.255
-549.354	-44.652	0.179	0.089
-548.339	-36.234	0.217	0.117
-547.325	-66.946	0.370	0.145
-546.310	110.995	-0.149	0.179
-545.296	-70.858	0.267	0.100
-544.281	-14.054	-0.289	-0.186
-543.266	-73.943	-0.190	-0.069
-542.252	150.123	-0.145	0.196
-541.237	-1.815	-0.244	0.171
-540.223	109.437	-0.166	-0.198
-539.208	-14.510	-0.062	0.040
-538.193	27.858	0.286	0.240
-537.179	-26.150	-0.210	0.123
-536.164	142.128	0.161	-0.212
-535.150	411.381	-0.039	0.081
-534.135	121.413	-0.141	-0.174
-533.121	-65.161	-0.228	0.091
-532.106	314.870	-0.126	-0.236
-531.091	267.969	0.145	0.253
-530.077	-86.147	-0.139	-0.042
-529.062	47.453	0.223	0.207
-528.048	41.618	0.016	-0.015
-527.033	-38.373	0.316	0.166
-526.018	-104.027	-0.387	-0.090
-525.004	-114.727	-0.169	0.032
-523.989	0.513	-0.185	-0.131
-522.975	-93.416	-0.116	0.032
-521.960	14.223	0.249	-0.193
-520.945	477.833	-0.083	-0.188
-519.931	-40.373	0.223	0.115
-518.916	-43.781	0.105	0.053
-517.902	-200.000	-0.016	0.301
-516.887	-118.262	-0.155	-0.027
-515.872	-200.000	0.008	-0.207
-514.858	-25.997	0.027	-0.016
-513.843	-23.901	-0.156	0.093
-512.829	-32.931	-0.329	-0.181
-511.814	46.140	0.253	-0.233
-510.799	44.157	-0.082	-0.075
-509.785	174.764	0.133	0.191
-508.770	-115.516	-0.205	-0.038
-507.756	16.930	0.407	-0.320
-506.741	85.902	-0.335	0.366
-505.726	216.393	0.235	-0.371
-504.712	-57.633	0.392	-0.171
-503.697	42.503	-0.413	0.373
-502.683	-107.998	0.129	0.028
-501.668	-200.000	-0.006	-0.167
-500.653	800.000	-0.063	-0.238
-499.639	-154.219	-0.293	0.020
-498.624	-90.247	-0.143	0.041
-497.610	252.266	0.172	0.290
-496.595	326.962	0.033	-0.064
-495.581	37.031	0.176	-0.155
-494.566	65.840	-0.087	0.087
-493.551	800.000	-0.037	0.107
-492.537	800.000	-0.050	0.159
-491.522	489.452	0.065	0.148
-490.508	-200.000	-0.012	0.109
-489.493	-200.000	0.011	0.330
-488.478	-72.150	0.128	-0.047
-487.464	800.000	-0.073	-0.215
-486.449	800.000	0.062	-0.202
-485.435	-200.000	-0.005	0.190
-484.420	317.063	0.167	-0.314
-483.405	14.310	0.371	0.287
-482.391	800.000	0.037	0.116
-481.376	-53.516	-0.057	0.026
-480.362	-107.897	0.254	-0.055
-479.347	-144.666	0.324	-0.030
-478.332	-200.000	0.011	-0.172
-477.318	-160.969	0.172	0.009
-476.303	-200.000	-0.004	-0.080
-475.289	-91.980	-0.487	0.137
-474.274	-172.051	0.162	-0.005
-473.259	570.334	0.101	0.243
-472.245	800.000	-0.037	-0.131
-471.230	14.380	0.140	-0.108
-470.216	800.000	0.025	-0.107
-469.201	-18.542	-0.054	-0.034
-468.186	141.326	-0.143	-0.188
-467.172	800.000	-0.125	-0.464
-466.157	-137.287	-0.351	0.040
-465.143	-110.612	-0.241	-0.049
-464.128	-200.000	-0.009	0.296
-463.113	101.687	-0.301	-0.349
-462.099	-59.821	0.450	0.191
-461.084	-200.000	0.116	-0.529
-460.070	-91.399	0.245	-0.069
-459.055	-73.107	-0.343	0.125
-458.040	-200.000	0.007	-0.106
-457.026	66.296	-0.183	-0.184
-456.011	81.426	0.160	-0.171
-454.997	261.606	-0.217	0.373
-453.982	223.359	0.054	-0.086
-452.968	33.217	-0.198	-0.171
-451.953	-150.030	-0.227	-0.018
-450.938	-66.078	0.192	0.076
-449.924	-9.507	-0.408	0.270
-448.909	-8.971	0.149	0.099
-447.895	-200.000	-0.034	-0.183
-446.880	-90.392	-0.303	0.087
-445.865	30.316	0.375	-0.317
-444.851	-200.000	0.045	0.206
-443.836	-151.031	-0.405	0.030
-442.822	81.446	-0.293	0.314
-441.807	-200.000	0.007	0.125
-440.792	-102.510	-0.178	0.042
-439.778	-160.420	0.109	-0.006
-438.763	-88.114	0.247	0.073
-437.749	45.819	-0.150	-0.138
-436.734	-39.858	0.273	0.141
-435.719	-200.000	0.018	0.451
-434.705	320.476	0.112	-0.210
-433.690	-51.605	-0.370	-0.171
-432.676	-82.294	0.303	-0.098
-431.661	800.000	-0.063	0.228
-430.646	-136.210	0.436	-0.051
-429.632	-106.923	-0.103	0.023
-428.617	82.657	-0.260	0.280
-427.603	-91.465	0.214	-0.061
-426.588	-131.263	-0.215	0.028
-425.573	-79.307	0.130	0.044
-424.559	-200.000	-0.029	-0.305
-423.544	-69.715	-0.304	0.115
-422.530	119.912	0.112	-0.138
-421.515	-11.478	-0.104	0.068
-420.500	76.956	-0.259	-0.272
-419.486	-200.000	-0.026	0.152
-418.471	-67.904	0.336	-0.130
-417.457	-136.244	0.199	0.023
-416.442	800.000	0.046	0.192
-415.428	533.212	-0.010	-0.024
-414.413	515.039	-0.084	-0.193
-413.398	408.812	-0.158	-0.331
-412.384	-172.077	0.285	-0.009
-411.369	210.123	0.090	-0.140
-410.355	-183.129	0.054	-0.001
-409.340	-84.087	0.309	-0.097
-408.325	-200.000	-0.036	0.179
-407.311	-8.884	-0.091	0.060
-406.296	800.000	-0.043	-0.148
-405.282	-136.939	0.116	0.013
-404.267	-137.891	-0.041	0.005
-403.252	-200.000	0.031	0.161
-402.238	108.935	-0.147	0.174
-401.223	800.000	0.044	-0.171
-400.209	37.036	0.014	-0.012
-399.194	-16.404	0.217	-0.136
-398.179	303.830	0.093	0.170
-397.165	299.858	0.064	-0.117
-396.150	-17.940	0.251	0.156
-395.136	0.294	0.333	-0.235
-394.121	-50.369	-0.203	0.095
-393.106	-117.871	0.221	-0.039
-392.092	0.305	-0.181	-0.128
-391.077	-80.881	0.108	-0.035
-390.063	-200.000	0.010	-0.072
-389.048	-81.317	-0.449	-0.146
-388.033	800.000	-0.018	0.073
-387.019	-76.672	0.270	0.093
-386.004	69.012	0.198	0.202
-384.990	800.000	0.058	-0.219
-383.975	-200.000	-0.079	0.368
-382.960	154.964	-0.181	-0.245
-381.946	50.758	-0.298	-0.279
-380.931	46.963	0.158	-0.145
-379.917	-182.220	0.188	-0.003
-378.902	680.028	-0.048	0.124
-377.888	122.060	-0.231	0.285
-376.873	-131.723	-0.071	0.009
-375.858	452.786	-0.242	-0.528
-374.844	353.353	0.179	-0.352
-373.829	214.054	0.034	-0.053
-372.815	213.554	0.079	0.123
-371.800	-23.243	0.203	0.120
-370.785	-4.295	-0.346	-0.237
-369.771	38.486	0.048	-0.043
-368.756	-157.128	0.235	-0.014
-367.742	-179.740	0.282	0.006
-366.727	11.083	-0.182	-0.137
-365.712	-16.150	0.297	-0.186
-364.698	756.454	0.044	0.117
-363.683	-73.016	-0.116	0.042
-362.669	-91.737	0.310	0.087
-361.654	-63.392	-0.101	-0.041
-360.639	-46.789	0.154	-0.075
-359.625	-95.906	0.515	-0.136
-358.610	221.144	-0.219	-0.347
-357.596	-47.426	-0.299	0.144
-356.581	-52.942	0.127	-0.058
-355.566	-159.671	0.507	0.028
-354.552	53.778	-0.207	-0.196
-353.537	-200.000	0.087	0.421
-352.523	147.863	0.056	0.074
-351.508	-60.760	-0.175	0.073
-350.493	264.032	0.173	0.298
-349.479	136.356	-0.090	0.116
-348.464	-83.176	0.232	0.074
-347.450	-101.693	0.230	-0.055
-346.435	397.987	-0.143	0.296
-345.420	249.004	0.043	-0.072
-344.406	-48.690	-0.346	-0.164
-343.391	-200.000	0.027	-0.196
-342.377	-200.000	-0.077	0.449
-341.362	106.153	-0.246	0.287
-340.348	627.004	-0.108	-0.269
-339.333	239.018	-0.095	0.155
-338.318	19.049	0.072	-0.057
-337.304	-86.471	0.198	0.060
-336.289	-27.565	-0.242	0.139
-335.275	179.090	-0.038	-0.055
-334.260	-200.000	-0.019	-0.111
-333.245	-161.609	0.427	0.022
-332.231	-0.095	0.200	-0.141
-331.216	-147.750	0.181	0.015
-330.202	800.000	-0.080	0.252
-329.187	-53.096	-0.114	-0.052
-328.172	-35.872	0.065	0.035
-327.158	-84.701	-0.144	-0.045
-326.143	-20.410	-0.163	0.099
-325.129	262.023	0.088	0.151
-324.114	-140.079	-0.256	0.027
-323.099	-200.000	0.339	0.000
-322.085	76.627	-0.184	0.192
-321.070	-58.600	-0.147	0.063
-320.056	344.909	0.171	-0.331
-319.041	637.729	0.067	-0.169
-318.026	575.183	0.101	0.243
-317.012	73.357	0.211	0.218
-315.997	-141.151	-0.123	-0.012
-314.983	-0.632	-0.191	0.134
-313.968	182.026	0.134	0.194
-312.953	-70.187	0.159	-0.060
-311.939	-114.948	0.430	0.081
-310.924	-160.031	0.361	0.019
-309.910	-200.000	0.013	0.104
-308.895	-157.066	-0.113	0.007
-307.880	-138.606	-0.202	0.022
-306.866	-200.000	-0.054	0.350
-305.851	64.277	0.113	-0.112
-304.837	-2.318	0.118	-0.082
-303.822	-109.796	-0.047	0.010
-302.807	387.987	0.161	-0.328
-301.793	0.021	-0.210	0.148
-300.778	-200.000	0.056	-0.264
-299.764	-200.000	-0.035	0.224
-298.749	800.000	-0.057	-0.172
-297.735	133.946	-0.285	-0.364
-296.720	96.572	0.135	-0.152
-295.705	-98.146	0.071	0.018
-294.691	127.979	0.209	-0.262
-293.676	-73.124	-0.221	0.080
-292.662	153.369	-0.123	0.166
-291.647	-200.000	-0.069	-0.399
-290.632	139.217	-0.226	0.293
-289.618	86.200	0.151	-0.164
-288.603	6.070	-0.086	-0.063
-287.589	-200.000	0.040	0.277
-286.574	619.917	0.161	-0.398
-285.559	-170.889	0.186	-0.006
-284.545	-64.711	0.118	-0.047
-283.530	-83.693	-0.271	-0.085
-282.516	402.193	-0.171	-0.354
-281.501	-168.159	-0.337	0.013
-280.486	-58.378	0.354	0.151
-279.472	-30.504	-0.155	0.087
-278.457	-200.000	0.013	-0.222
-277.443	-80.951	-0.102	0.033
-276.428	-121.223	-0.238	0.039
-275.413	-16.475	-0.363	0.226
-274.399	290.332	-0.043	0.077
-273.384	-60.814	-0.109	-0.046
-272.370	-200.000	-0.005	0.394
-271.355	-56.711	-0.154	0.067
-270.340	21.923	-0.210	0.169
-269.326	-200.000	0.023	-0.127
-268.311	-111.936	0.299	0.059
-267.297	-121.007	0.233	-0.038
-266.282	-200.000	-0.014	-0.258
-265.267	-82.869	-0.262	0.083
-264.253	753.260	-0.023	-0.061
-263.238	328.277	0.130	0.246
-262.224	-200.000	-0.015	-0.301
-261.209	-200.000	-0.074	-0.326
-260.195	-106.871	0.197	0.043
-259.180	-176.001	0.394	-0.010
-258.165	-133.012	0.148	0.018
-257.151	261.132	0.095	0.162
-256.136	565.823	-0.108	0.258
-255.122	-200.000	-0.027	-0.124
-254.107	800.000	-0.073	0.226
-253.092	-67.147	0.359	0.139
-252.078	89.370	-0.128	0.140
-251.063	-144.595	-0.154	-0.014
-250.049	-200.000	-0.012	0.175
-249.034	9.546	0.248	0.185
-248.019	-158.269	-0.144	0.008
-247.005	145.101	0.062	-0.082
-245.990	-200.000	-0.040	-0.328
-244.976	-145.191	-0.036	0.003
-243.961	800.000	0.032	0.097
-242.946	-67.468	-0.172	-0.066
-241.932	-200.000	-0.027	-0.216
-240.917	96.357	-0.082	0.092
-239.903	195.958	-0.161	-0.240
-238.888	800.000	0.072	0.197
-237.873	-84.050	0.293	0.091
-236.859	-31.980	-0.172	-0.094
-235.844	3.644	-0.121	-0.087
-234.830	-12.305	0.085	0.055
-233.815	800.000	-0.060	0.252
-232.800	662.862	-0.111	0.282
-231.786	-200.000	-0.015	0.314
-230.771	16.033	0.107	0.082
-229.757	556.704	0.097	0.230
-228.742	800.000	0.026	0.075
-227.727	280.264	-0.190	-0.334
-226.713	168.484	-0.092	0.129
-225.698	124.580	-0.109	-0.135
-224.684	-98.582	0.314	0.079
-223.669	5.020	-0.138	0.100
-222.655	-200.000	0.042	-0.311
-221.640	800.000	-0.097	-0.363
-220.625	-127.988	0.590	-0.083
-219.611	-200.000	0.046	0.244
-218.596	95.018	0.174	0.195
-217.582	44.375	0.196	0.177
-216.567	-42.106	0.162	-0.082
-215.552	-200.000	0.000	-0.074
-214.538	352.573	0.078	-0.152
-213.523	-200.000	0.008	-0.055
-212.509	2.889	0.220	0.157
-211.494	-4.985	0.302	-0.205
-210.479	-28.317	0.286	0.162
-209.465	49.488	-0.145	0.134
-208.450	-200.000	0.010	-0.087
-207.436	217.520	-0.073	0.115
-206.421	-174.804	-0.119	-0.003
-205.406	-7.822	0.191	0.127
-204.392	800.000	0.050	0.174
-203.377	-175.900	-0.191	0.005
-202.363	-110.696	-0.328	-0.067
-201.348	305.954	0.111	0.204
-200.333	159.398	-0.142	0.193
-199.319	630.818	-0.105	-0.262
-198.304	-200.000	-0.005	0.068
-197.290	-174.308	-0.164	-0.005
-196.275	-34.655	0.013	-0.007
-195.260	-110.072	-0.083	-0.017
-194.246	335.871	0.065	0.123
-193.231	-17.368	0.215	0.133
-192.217	411.464	0.122	0.254
-191.202	-200.000	-0.003	0.266
-190.187	361.336	0.128	-0.252
-189.173	-48.759	0.114	-0.053
-188.158	-200.000	-0.029	0.133
-187.144	92.781	-0.085	0.094
-186.129	800.000	-0.054	0.190
-185.114	-200.000	-0.023	0.440
-184.100	-200.000	-0.028	0.178
-183.085	39.071	0.075	-0.065
-182.071	-5.121	-0.196	0.132
-181.056	-20.864	-0.194	-0.116
-180.042	-41.769	-0.105	0.053
-179.027	364.463	-0.056	-0.111
-178.012	579.947	0.142	-0.341
-176.998	-200.000	-0.019	0.160
-175.983	-200.000	0.001	-0.315
-174.969	-53.350	-0.213	0.096
-173.954	800.000	-0.088	0.239
-172.939	206.595	-0.164	0.251
-171.925	631.408	-0.089	0.221
-170.910	25.607	0.026	-0.021
-169.896	218.256	-0.076	0.119
-168.881	554.684	-0.230	0.543
-167.866	507.429	-0.118	-0.268
-166.852	-83.668	0.276	-0.086
-165.837	-182.045	0.191	0.004
-164.823	-33.739	0.208	-0.112
-163.808	800.000	-0.073	0.206
-162.793	-200.000	-0.026	0.318
-161.779	74.674	-0.005	-0.006
-160.764	-200.000	-0.003	-0.248
-159.750	131.381	0.094	0.118
-158.735	-96.567	0.312	-0.081
-157.720	800.000	-0.014	0.048
-156.706	155.467	-0.142	0.191
-155.691	240.164	-0.046	-0.076
-154.677	-77.866	0.419	0.142
-153.662	-200.000	-0.019	0.397
-152.647	217.229	-0.047	-0.074
-151.633	-200.000	-0.002	0.140
-150.618	-190.185	-0.186	0.002
-149.604	42.242	0.145	0.129
-148.589	-137.282	0.023	-0.003
-147.574	-142.485	-0.417	-0.040
-146.560	-14.892	-0.303	0.190
-145.545	556.698	0.051	-0.121
-144.531	62.255	-0.206	-0.201
-143.516	800.000	-0.162	0.530
-142.502	-11.432	0.223	-0.144
-141.487	-144.812	-0.046	0.004
-140.472	-200.000	0.015	0.097
-139.458	-200.000	0.083	0.438
-138.443	-200.000	-0.009	0.287
-137.429	215.295	-0.127	0.198
-136.414	-128.775	0.289	-0.040
-135.399	-200.000	-0.024	0.450
-134.385	-5.561	0.057	-0.038
-133.370	242.010	0.136	0.223
-132.356	388.204	-0.088	0.178
-131.341	1.360	0.188	0.132
-130.326	330.723	-0.191	0.360
-129.312	-15.024	-0.123	-0.077
-128.297	-82.002	0.196	0.063
-127.283	-200.000	-0.023	-0.140
-126.268	-125.941	-0.146	-0.022
-125.253	-90.699	-0.020	-0.006
-124.239	92.114	0.189	-0.208
-123.224	-200.000	-0.002	0.057
-122.210	557.969	0.128	-0.302
-121.195	153.597	0.089	-0.119
-120.180	238.384	0.040	0.065
-119.166	124.519	0.137	-0.169
-118.151	-200.000	0.025	0.311
-117.137	800.000	0.052	0.209
-116.122	352.410	-0.064	-0.123
-115.107	-173.736	-0.315	0.009
-114.093	-4.891	0.161	0.109
-113.078	-200.000	0.031	0.159
-112.064	-200.000	-0.167	0.001
-111.049	-35.951	-0.472	0.250
-110.034	-200.000	-0.039	0.229
-109.020	362.488	-0.219	0.429
-108.005	-13.388	0.256	-0.163
-106.991	121.299	-0.080	-0.098
-105.976	-120.611	0.207	0.034
-104.962	-33.593	0.221	0.119
-103.947	-31.219	0.451	0.248
-102.932	-200.000	0.043	0.246
-101.918	-35.048	-0.140	0.075
-100.903	312.959	-0.160	-0.295
-99.889	67.707	-0.376	-0.376
-98.874	-85.491	0.214	0.065
-97.859	-50.012	-0.068	0.032
-96.845	800.000	0.082	0.327
-95.830	457.775	-0.100	0.217
-94.816	-41.877	0.289	-0.145
-93.801	70.072	0.152	-0.153
-92.786	-43.303	0.156	-0.077
-91.772	-26.338	0.300	-0.172
-90.757	128.307	0.124	0.154
-89.743	-200.000	-0.006	0.218
-88.728	-20.125	-0.380	-0.229
-87.713	-17.043	0.367	0.226
-86.699	-200.000	0.027	-0.132
-85.684	-15.796	-0.190	-0.118
-84.670	378.970	0.081	-0.161
-83.655	-94.789	0.067	0.018
-82.640	-164.914	0.247	0.011
-81.626	-200.000	0.022	-0.332
-80.611	513.124	-0.083	0.189
-79.597	124.780	0.152	-0.187
-78.582	-58.849	-0.362	0.153
-77.567	-200.000	0.017	-0.148
-76.553	-200.000	0.006	0.047
-75.538	-132.451	-0.190	-0.024
-74.524	174.364	0.071	-0.101
-73.509	-118.945	0.392	-0.067
-72.494	231.968	0.019	0.031
-71.480	-140.305	-0.331	0.034
-70.465	128.460	-0.295	-0.367
-69.451	148.264	0.139	-0.183
-68.436	800.000	0.092	0.252
-67.422	308.135	0.128	0.232
-66.407	-94.348	0.403	0.108
-65.392	-11.126	0.211	-0.136
-64.378	-123.799	-0.078	-0.012
-63.363	322.734	-0.084	-0.156
-62.349	-76.066	-0.198	0.068
-61.334	127.345	-1.048	-1.299
-60.319	264.768	0.400	0.680
-59.305	800.000	-0.386	-1.517
-58.290	305.214	0.810	1.469
-57.276	800.000	0.495	1.692
-56.261	-200.000	125.614	657.396
-55.246	408.737	1581.116	3265.933
-54.232	140.328	2743.423	3533.137
-53.217	95.636	2167.718	2413.741
-52.203	34.916	1597.170	1364.087
-51.188	26.396	1339.957	1093.120
-50.173	23.984	1302.289	1048.157
-49.159	53.148	1371.377	1281.396
-48.144	49.293	1383.470	1269.359
-47.130	26.687	1331.350	1087.675
-46.115	23.382	1312.161	1052.361
-45.100	23.173	1306.729	1046.729
-44.086	23.173	1304.197	1044.662
-43.071	23.131	1301.636	1042.321
-42.057	23.127	1299.766	1040.759
-41.042	23.140	1298.211	1039.550
-40.027	23.220	1296.500	1038.606
-39.013	23.175	1294.955	1037.061
-37.998	23.153	1293.157	1035.450
-36.984	23.181	1291.565	1034.301
-35.969	23.118	1289.688	1032.392
-34.954	23.279	1288.038	1031.966
-33.940	23.262	1287.512	1031.406
-32.925	23.194	1285.983	1029.744
-31.911	23.210	1284.477	1028.591
-30.896	23.330	1282.800	1027.899
-29.881	23.449	1281.223	1027.289
-28.867	23.440	1279.976	1026.193
-27.852	23.329	1278.758	1024.534
-26.838	23.431	1277.015	1023.688
-25.823	23.384	1276.268	1022.777
-24.809	23.384	1274.620	1021.415
-23.794	23.401	1272.991	1020.166
-22.779	23.416	1271.340	1018.888
-21.765	23.305	1270.918	1017.874
-20.750	23.415	1268.917	1016.858
-19.736	23.265	1267.946	1015.182
-18.721	23.276	1266.907	1014.373
-17.706	23.114	1265.889	1012.593
-16.692	23.093	1265.079	1011.785
-15.677	23.126	1263.616	1010.763
-14.663	23.121	1262.330	1009.661
-13.648	23.236	1260.902	1009.135
-12.633	23.325	1260.682	1009.430
-11.619	23.214	1260.008	1008.214
-10.604	23.142	1258.959	1006.929
-9.590	23.170	1257.701	1006.042
-8.575	23.239	1256.728	1005.613
-7.560	23.209	1256.150	1004.944
-6.546	23.175	1255.140	1003.899
-5.531	23.166	1254.263	1003.106
-4.517	23.190	1254.131	1003.096
-3.502	23.142	1253.006	1001.885
-2.487	23.212	1251.868	1001.331
-1.473	23.134	1247.182	997.105
-0.458	21.603	1231.935	976.347
0.556	16.434	1216.918	939.111
1.571	12.998	1224.948	925.975
2.586	12.325	1240.230	933.617
3.600	12.414	1228.686	925.350
4.615	9.212	1156.505	853.917
5.629	3.050	1086.347	771.205
6.644	0.314	1069.359	745.558
7.659	0.056	1067.979	743.257
8.673	0.210	1066.515	742.931
9.688	0.179	1065.282	741.852
10.702	0.418	1062.933	741.325
11.717	4.025	1066.832	761.747
12.731	10.909	1076.143	802.398
13.746	15.550	1082.191	829.817
14.761	16.690	1083.276	836.206
15.775	16.026	1081.625	831.585
16.790	15.107	1079.347	825.230
17.804	14.413	1077.772	820.541
18.819	14.148	1076.855	818.465
19.834	13.851	1076.052	816.321
20.848	13.424	1075.736	813.912
21.863	13.374	1074.059	812.325
22.877	13.124	1073.413	810.535
23.892	13.077	1073.083	809.986
24.907	13.195	1071.900	809.597
25.921	13.256	1071.068	809.196
26.936	13.240	1070.492	808.612
27.950	13.105	1069.773	807.336
28.965	13.333	1068.663	807.542
29.980	13.400	1067.007	806.548
30.994	13.325	1066.133	805.448
32.009	13.396	1065.282	805.079
33.023	13.406	1063.921	804.026
34.038	13.537	1062.662	803.642
35.053	13.300	1062.408	802.230
36.067	13.313	1061.392	801.454
37.082	13.234	1060.614	800.414
38.096	13.419	1059.790	800.613
39.111	13.329	1059.124	799.604
40.126	13.153	1058.230	798.011
41.140	13.199	1056.558	796.902
42.155	13.190	1055.807	796.218
43.169	13.154	1054.329	794.861
44.184	13.232	1052.877	794.074
45.199	13.149	1052.629	793.416
46.213	13.059	1051.379	791.971
47.228	13.203	1050.289	791.771
48.242	13.262	1048.806	790.863
49.257	13.266	1048.037	790.232
50.271	13.470	1047.035	790.381
51.286	13.323	1046.519	789.221
52.301	13.254	1045.691	788.198
53.315	13.211	1044.754	787.218
54.330	13.138	1044.052	786.270
55.344	13.298	1042.704	785.949
56.359	13.223	1041.927	784.933
57.374	13.344	1040.667	784.493
58.388	13.295	1040.030	783.709
59.403	13.266	1039.149	782.839
60.417	13.102	1038.653	781.619
61.432	13.067	1037.903	780.821
62.447	13.116	1036.977	780.288
63.461	13.047	1036.267	779.359
64.476	13.052	1035.720	778.899
65.490	13.046	1034.601	777.961
66.505	13.102	1033.795	777.551
67.520	13.203	1033.277	777.567
68.534	13.254	1032.204	776.933
69.549	13.064	1032.197	775.964
70.563	13.102	1031.139	775.277
71.578	13.153	1029.904	774.521
72.593	13.063	1029.350	773.614
73.607	13.173	1028.358	773.313
74.622	12.951	1028.066	771.986
75.636	13.002	1027.580	771.795
76.651	12.982	1026.670	770.949
77.666	12.968	1026.023	770.328
78.680	13.024	1025.513	770.139
79.695	13.031	1024.794	769.564
80.709	13.132	1024.124	769.461
81.724	13.105	1023.850	769.062
82.739	13.266	1022.705	768.884
83.753	13.163	1022.320	768.045
84.768	13.344	1020.954	767.794
85.782	13.266	1020.157	766.762
86.797	13.097	1019.605	765.499
87.812	13.246	1018.440	765.245
88.826	13.285	1017.551	764.690
89.841	13.205	1016.629	763.557
90.855	13.267	1015.894	763.229
91.870	13.404	1014.732	762.918
92.884	13.237	1014.512	761.917
93.899	13.351	1012.867	761.138
94.914	13.485	1012.037	761.062
95.928	13.352	1011.642	760.085
96.943	13.506	1010.580	759.927
97.957	13.433	1009.726	758.883
98.972	13.431	1008.766	758.084
99.987	13.233	1008.651	757.027
101.001	13.333	1007.360	756.445
102.016	13.487	1006.083	756.126
103.030	13.359	1005.577	755.095
104.045	13.272	1005.269	754.400
105.060	13.339	1004.241	753.863
106.074	13.329	1002.942	752.778
107.089	13.227	1002.437	751.869
108.103	13.187	1001.092	750.612
109.118	13.232	1000.091	749.997
110.133	13.254	998.761	749.033
111.147	13.297	998.322	748.835
112.162	13.224	997.561	747.867
113.176	13.263	996.901	747.481
114.191	13.319	996.065	747.041
115.206	13.306	995.548	746.531
116.220	13.256	994.496	745.448
117.235	13.172	993.449	744.221
118.249	13.336	992.682	744.317
119.264	13.367	991.949	743.841
120.279	13.264	991.050	742.639
121.293	13.145	990.695	741.773
122.308	13.359	989.392	741.692
123.322	13.264	988.503	740.531
124.337	13.224	987.497	739.535
125.352	13.271	986.337	738.809
126.366	13.318	984.949	737.914
127.381	13.213	984.351	736.934
128.395	13.207	983.098	735.906
129.410	13.263	982.538	735.669
130.424	13.180	981.804	734.687
131.439	13.341	980.620	734.447
132.454	13.295	980.105	733.794
133.468	13.276	979.523	733.209
134.483	13.222	978.745	732.325
135.497	13.240	977.428	731.352
136.512	13.401	976.792	731.525
137.527	13.320	975.696	730.279
138.541	13.282	975.270	729.729
139.556	13.222	974.619	728.913
140.570	13.469	973.610	729.182
141.585	13.456	972.731	728.401
142.600	13.456	971.734	727.592
143.614	13.346	971.129	726.590
144.629	13.497	970.462	726.689
145.643	13.580	969.215	726.054
146.658	13.448	968.225	724.671
147.673	13.537	967.277	724.287
148.687	13.406	966.608	723.150
149.702	13.425	965.608	722.422
150.716	13.399	964.965	721.763
151.731	13.505	964.377	721.719
152.746	13.534	963.463	721.099
153.760	13.561	962.694	720.579
154.775	13.509	962.462	720.114
155.789	13.534	962.072	719.869
156.804	13.702	960.799	719.580
157.819	13.507	960.390	718.365
158.833	13.591	959.703	718.149
159.848	13.628	958.668	717.471
160.862	13.734	957.676	717.126
161.877	13.562	957.344	716.069
162.892	13.466	956.456	714.927
163.906	13.593	955.198	714.471
164.921	13.619	954.331	713.873
165.935	13.547	953.307	712.733
166.950	13.620	952.312	712.240
167.964	13.536	951.806	711.438
168.979	13.484	951.275	710.757
169.994	13.684	949.880	710.505
171.008	13.686	949.578	710.228
172.023	13.771	948.147	709.458
173.037	13.777	947.778	709.142
174.052	13.647	947.297	708.167
175.067	13.746	945.924	707.497
176.081	13.659	945.835	707.000
177.096	13.644	945.360	706.518
178.110	13.716	944.674	706.247
179.125	13.667	944.293	705.694
180.140	13.692	943.598	705.217
181.154	13.801	943.052	705.209
182.169	13.765	942.857	704.850
183.183	13.761	942.174	704.257
184.198	13.793	941.207	703.608
185.213	13.863	940.225	703.110
186.227	13.890	939.780	702.828
187.242	13.957	938.749	702.279
188.256	14.146	938.342	702.709
189.271	13.981	937.322	701.190
190.286	13.842	936.618	700.014
191.300	13.691	936.208	699.010
192.315	13.773	935.551	698.803
193.329	13.716	935.259	698.282
194.344	13.837	934.395	698.084
195.359	13.980	933.506	697.961
196.373	14.075	932.997	697.914
197.388	14.102	932.559	697.641
198.402	14.007	932.076	696.817
199.417	14.101	931.365	696.621
200.432	14.207	930.428	696.299
201.446	14.090	930.642	695.908
202.461	14.163	929.911	695.607
203.475	14.098	929.353	694.853
204.490	14.115	928.603	694.304
205.504	14.280	927.338	693.985
206.519	14.257	926.806	693.428
207.534	14.135	926.357	692.524
208.548	14.266	925.318	692.230
209.563	14.052	925.245	691.225
210.577	14.124	924.462	690.880
211.592	14.264	923.481	690.665
212.607	14.309	922.636	690.156
213.621	14.351	921.943	689.752
214.636	14.230	921.558	688.904
215.650	14.317	920.539	688.442
216.665	14.481	919.654	688.395
217.680	14.402	919.324	687.762
218.694	14.378	918.398	686.909
219.709	14.399	918.219	686.801
220.723	14.316	917.156	685.602
221.738	14.372	916.428	685.227
222.753	14.455	915.431	684.763
223.767	14.338	915.556	684.315
224.782	14.585	914.612	684.563
225.796	14.579	914.314	684.252
226.811	14.403	913.492	682.858
227.826	14.624	912.619	683.047
228.840	14.509	912.346	682.312
229.855	14.651	911.187	681.966
230.869	14.464	910.569	680.680
231.884	14.561	909.776	680.424
232.899	14.527	909.191	679.785
233.913	14.448	908.330	678.762
234.928	14.480	907.453	678.174
235.942	14.522	907.359	678.217
236.957	14.650	906.576	678.088
237.972	14.488	906.058	676.985
238.986	14.540	905.092	676.416
240.001	14.569	904.872	676.308
241.015	14.574	904.011	675.624
242.030	14.687	903.496	675.639
243.045	14.674	902.442	674.736
244.059	14.578	902.487	674.321
245.074	14.671	901.803	674.126
246.088	14.742	900.895	673.675
247.103	14.847	900.266	673.568
248.117	14.753	899.826	672.803
249.132	14.873	898.993	672.602
250.147	14.847	898.578	672.127
251.161	14.935	897.864	671.888
252.176	14.960	897.000	671.282
253.190	14.925	896.579	670.768
254.205	14.947	896.476	670.719
255.220	14.994	895.152	669.858
256.234	14.982	894.643	669.370
257.249	14.951	893.992	668.697
258.263	15.022	893.413	668.491
259.278	15.183	892.099	668.088
260.293	15.191	891.581	667.673
261.307	15.174	891.302	667.337
262.322	15.200	890.765	666.981
263.336	15.177	889.869	666.159
264.351	15.234	889.133	665.778
265.366	15.323	888.382	665.508
266.380	15.218	888.178	664.879
267.395	15.270	887.343	664.403
268.409	15.198	886.618	663.514
269.424	15.190	885.551	662.625
270.439	15.254	885.118	662.497
271.453	15.299	884.002	661.781
272.468	15.218	883.928	661.348
273.482	15.155	883.320	660.586
274.497	15.198	882.672	660.214
275.512	15.325	881.906	660.081
276.526	15.336	881.593	659.832
277.541	15.398	880.884	659.485
278.555	15.363	880.929	659.323
279.570	15.298	880.246	658.499
280.585	15.490	878.769	658.089
281.599	15.422	878.304	657.417
282.614	15.263	877.847	656.390
283.628	15.516	876.977	656.672
284.643	15.455	876.487	656.009
285.657	15.435	875.968	655.486
286.672	15.356	875.431	654.717
287.687	15.448	874.804	654.550
288.701	15.446	874.207	654.035
289.716	15.440	873.524	653.443
290.730	15.595	872.529	653.244
291.745	15.499	872.295	652.638
292.760	15.434	871.591	651.803
293.774	15.591	871.002	651.913
294.789	15.613	870.255	651.384
295.803	15.570	869.421	650.532
296.818	15.675	868.630	650.289
297.833	15.674	868.182	649.895
298.847	15.559	868.010	649.262
299.862	15.528	867.258	648.521
300.876	15.722	866.723	648.815
301.891	15.812	865.637	648.288
302.906	15.666	865.665	647.690
303.920	15.860	865.139	647.989
304.935	15.852	864.485	647.410
305.949	15.863	863.768	646.858
306.964	15.775	862.967	645.863
307.979	15.896	862.729	646.093
308.993	15.831	862.009	645.247
310.008	15.883	861.115	644.719
311.022	15.884	860.899	644.505
312.037	15.993	860.123	644.285
313.052	15.896	859.810	643.621
314.066	15.702	859.522	642.608
315.081	15.932	858.486	642.652
316.095	15.761	857.983	641.568
317.110	15.900	856.975	641.288
318.125	15.942	856.317	640.896
319.139	15.825	856.587	640.596
320.154	15.954	855.907	640.523
321.168	15.870	855.291	639.687
322.183	16.011	854.878	639.855
323.197	16.082	854.209	639.566
324.212	16.023	853.693	638.902
325.227	16.005	853.209	638.413
326.241	16.055	852.432	637.965
327.256	16.111	851.837	637.677
328.270	15.991	851.285	636.751
329.285	16.130	850.616	636.721
330.300	16.084	850.231	636.203
331.314	15.988	849.639	635.340
332.329	16.057	849.429	635.386
333.343	16.045	848.873	634.869
334.358	16.151	848.318	634.797
335.373	16.154	848.076	634.573
336.387	16.177	847.742	634.353
337.402	16.193	847.361	634.070
338.416	16.175	846.821	633.543
339.431	16.293	846.204	633.470
340.446	16.182	846.298	633.069
341.460	16.384	845.656	633.289
342.475	16.304	845.378	632.722
343.489	16.435	844.702	632.650
344.504	16.399	844.329	632.182
345.519	16.430	843.929	631.943
346.533	16.492	843.330	631.670
347.548	16.439	842.819	631.034
348.562	16.356	842.305	630.282
349.577	16.418	841.715	630.016
350.592	16.362	841.348	629.478
351.606	16.466	839.879	628.711
352.621	16.426	839.694	628.366
353.635	16.326	839.176	627.550
354.650	16.479	838.243	627.367
355.665	16.518	837.637	627.001
356.679	16.605	836.848	626.680
357.694	16.550	836.636	626.262
358.708	16.454	836.142	625.481
359.723	16.531	835.219	625.020
360.738	16.558	835.025	624.918
361.752	16.485	834.092	623.896
362.767	16.556	833.604	623.737
363.781	16.638	833.204	623.685
364.796	16.727	832.498	623.428
365.810	16.794	832.040	623.278
366.825	16.708	832.113	622.959
367.840	16.745	831.733	622.758
368.854	16.695	831.016	621.981
369.869	16.751	830.448	621.705
370.883	16.993	829.582	621.892
371.898	16.878	829.598	621.424
372.913	16.933	829.342	621.381
373.927	16.768	829.184	620.602
374.942	16.872	828.221	620.206
375.956	16.933	827.540	619.864
376.971	16.990	827.267	619.813
377.986	17.054	826.838	619.673
379.000	17.017	826.117	618.943
380.015	16.927	826.002	618.473
381.029	17.164	824.907	618.461
382.044	17.128	824.758	618.164
383.059	17.029	824.563	617.604
384.073	17.157	823.548	617.253
385.088	17.119	823.239	616.827
386.102	16.995	822.826	616.014
387.117	17.040	822.006	615.510
388.132	17.062	821.243	614.963
389.146	17.022	820.922	614.522
390.161	17.116	820.530	614.515
391.175	17.056	819.881	613.759
392.190	17.216	819.221	613.788
393.205	17.119	818.969	613.196
394.219	17.074	818.756	612.818
395.234	17.039	818.157	612.189
396.248	17.076	817.679	611.912
397.263	17.053	817.364	611.537
398.278	17.191	816.971	611.688
399.292	17.216	816.466	611.343
400.307	17.152	816.243	610.895
401.321	17.185	815.600	610.476
402.336	17.228	815.162	610.250
403.350	17.323	814.269	609.868
404.365	17.137	814.208	609.102
405.380	17.344	813.758	609.452
406.394	17.392	812.989	608.995
407.409	17.423	813.053	609.099
408.423	17.423	812.587	608.697
409.438	17.306	812.488	608.149
410.453	17.493	811.485	608.014
411.467	17.376	811.349	607.441
412.482	17.463	810.791	607.277
413.496	17.492	810.455	607.077
414.511	17.543	810.404	607.167
415.526	17.532	809.565	606.447
416.540	17.368	809.342	605.640
417.555	17.467	808.950	605.645
418.569	17.620	808.141	605.529
419.584	17.521	808.009	605.027
420.599	17.609	807.419	604.843
421.613	113.442	1299.541	1486.034
422.628	97.961	1371.190	1486.083
