DTS Sentinel unit serial number:	SN413079Multiplexer serial number:	ORYXHardware model number:	OX4-SRSoftware version number:	ORYX F/W v4.00 Oryx Data Collector v3.7.2.0data status	okinstallation	princeton_trtdifferential loss correction	single-endedforward channel	channel 1reverse channel	N/Adate	2019/09/15time	23:46:35forward acquisition time	60.00reverse acquisition time	0.00gamma	496.2192k internal	0.2332k external	0.2332temperature offset calibration	0.9974default loss term (dB/km)	0.3790temperature slope calibration	1.0000multiplexer offset coefficient	1.0000multiplexer slope coefficient	1.0000fibre end	0.00T internal ref (°C)	28.00T ext. ref 1 (°C)	9.29T ext. ref 2 (°C)	21.64length (m)	temperature (°C)	Stokes	anti-Stokes-747.200	388.743	0.017	0.036
-746.185	-132.742	0.275	0.035
-745.171	69.924	-0.097	0.101
-744.156	201.854	-0.095	0.147
-743.142	229.740	0.070	0.115
-742.127	-153.278	-0.341	-0.024
-741.112	-114.839	0.278	-0.053
-740.098	-97.663	-0.143	0.037
-739.083	-123.950	-0.600	0.095
-738.069	-141.138	-0.253	-0.026
-737.054	800.000	-0.030	0.120
-736.039	-200.000	-0.071	0.392
-735.025	-200.000	0.010	0.206
-734.010	-83.762	-0.239	-0.077
-732.996	-112.944	-0.276	-0.055
-731.981	30.920	-0.175	-0.150
-730.966	-200.000	0.054	-0.242
-729.952	43.545	-0.126	0.116
-728.937	800.000	0.091	-0.263
-727.923	-147.430	-0.229	0.019
-726.908	71.341	-0.119	0.124
-725.894	800.000	0.092	-0.273
-724.879	800.000	0.087	0.318
-723.864	99.300	-0.021	0.024
-722.850	-121.406	0.340	-0.057
-721.835	800.000	-0.083	-0.252
-720.821	-200.000	-0.350	-0.001
-719.806	-134.632	-0.354	-0.043
-718.791	-100.813	-0.303	0.075
-717.777	-39.161	-0.274	0.145
-716.762	37.150	0.102	-0.090
-715.748	-155.672	-0.321	0.021
-714.733	113.558	0.229	0.279
-713.718	-200.000	0.062	-0.378
-712.704	213.309	0.015	-0.023
-711.689	800.000	0.023	-0.092
-710.675	-70.372	-0.425	-0.162
-709.660	800.000	-0.047	0.170
-708.645	-149.512	0.282	-0.022
-707.631	800.000	-0.052	-0.176
-706.616	-15.400	-0.072	-0.046
-705.602	642.062	0.112	0.287
-704.587	-7.591	0.175	-0.119
-703.572	-159.651	-0.093	-0.005
-702.558	-200.000	0.036	0.209
-701.543	233.294	0.049	-0.082
-700.529	260.531	-0.202	0.351
-699.514	-200.000	-0.018	0.221
-698.499	343.410	0.164	-0.322
-697.485	-200.000	-0.024	-0.300
-696.470	120.882	-0.083	-0.104
-695.456	-200.000	-0.031	-0.236
-694.441	-5.272	0.347	0.240
-693.426	-200.000	0.034	0.294
-692.412	-18.895	-0.162	-0.101
-691.397	800.000	0.045	-0.157
-690.383	800.000	-0.011	0.036
-689.368	-200.000	-0.005	-0.219
-688.354	-80.408	0.084	0.028
-687.339	-104.936	-0.216	0.050
-686.324	-51.684	-0.229	-0.107
-685.310	584.327	-0.091	-0.223
-684.295	605.154	0.040	0.100
-683.281	-61.928	0.168	-0.070
-682.266	95.807	-0.176	-0.202
-681.251	-200.000	0.041	0.214
-680.237	-148.806	-0.075	-0.006
-679.222	-45.598	-0.400	0.199
-678.208	66.431	0.116	0.118
-677.193	-200.000	-0.098	-0.519
-676.178	-88.274	-0.365	0.110
-675.164	-116.483	-0.400	-0.074
-674.149	780.572	-0.088	-0.241
-673.135	-200.000	-0.048	0.530
-672.120	800.000	-0.049	-0.137
-671.105	-200.000	0.029	0.153
-670.091	134.488	-0.210	-0.274
-669.076	99.526	-0.164	-0.190
-668.062	-106.784	-0.122	-0.027
-667.047	23.553	-0.077	0.063
-666.032	-118.354	0.230	-0.041
-665.018	717.993	-0.108	0.289
-664.003	-200.000	-0.044	0.213
-662.989	800.000	0.087	0.264
-661.974	192.150	-0.117	-0.178
-660.959	-70.804	0.099	0.038
-659.945	-101.755	-0.187	0.045
-658.930	-187.160	0.370	0.005
-657.916	89.109	-0.034	-0.038
-656.901	106.168	0.141	-0.167
-655.886	-94.432	-0.310	-0.085
-654.872	-200.000	-0.007	0.178
-653.857	-36.704	0.142	-0.077
-652.843	122.499	-0.105	-0.131
-651.828	-200.000	-0.030	0.183
-650.814	-37.644	-0.110	-0.059
-649.799	646.122	0.026	0.066
-648.784	-18.674	0.165	-0.103
-647.770	-200.000	0.024	0.189
-646.755	74.769	-0.120	-0.127
-645.741	-145.028	-0.246	0.022
-644.726	300.805	-0.061	-0.112
-643.711	40.249	-0.132	0.119
-642.697	22.004	-0.222	0.182
-641.682	203.322	-0.144	0.224
-640.668	-158.872	0.188	0.011
-639.653	-56.236	-0.121	-0.054
-638.638	800.000	-0.120	0.346
-637.624	396.484	0.043	-0.091
-636.609	-133.099	0.208	-0.026
-635.595	800.000	0.085	0.306
-634.580	1.354	-0.025	0.018
-633.565	800.000	-0.019	0.070
-632.551	-134.215	-0.120	-0.015
-631.536	340.234	0.168	-0.328
-630.522	27.656	0.239	-0.201
-629.507	101.760	-0.220	-0.257
-628.492	-32.556	-0.122	-0.068
-627.478	442.121	0.034	0.074
-626.463	-105.601	-0.382	-0.087
-625.449	-3.994	-0.374	-0.260
-624.434	-200.000	0.011	0.374
-623.419	17.432	0.258	-0.205
-622.405	-62.229	0.157	-0.065
-621.390	4.443	-0.101	-0.074
-620.376	-0.612	0.044	0.031
-619.361	21.008	0.227	0.184
-618.346	184.214	0.093	0.138
-617.332	-23.116	-0.140	-0.085
-616.317	241.193	0.133	0.222
-615.303	-126.190	-0.158	-0.024
-614.288	-200.000	0.050	0.260
-613.273	-200.000	-0.002	0.285
-612.259	-74.745	-0.151	-0.054
-611.244	89.534	-0.113	0.126
-610.230	158.682	0.083	0.115
-609.215	-148.167	-0.311	-0.026
-608.201	91.269	0.254	-0.285
-607.186	-21.683	0.047	-0.029
-606.171	-200.000	0.021	-0.356
-605.157	372.329	0.088	-0.178
-604.142	-200.000	-0.053	-0.395
-603.128	572.559	-0.026	0.064
-602.113	-200.000	-0.016	0.142
-601.098	311.551	0.033	0.061
-600.084	253.761	-0.183	-0.314
-599.069	-200.000	-0.023	-0.430
-598.055	251.740	-0.049	-0.083
-597.040	-97.628	0.358	-0.093
-596.025	-200.000	-0.048	-0.393
-595.011	-200.000	-0.023	-0.167
-593.996	-47.538	0.201	-0.098
-592.982	33.933	-0.120	0.104
-591.967	431.648	-0.098	0.212
-590.952	800.000	-0.025	0.102
-589.938	2.525	0.120	0.087
-588.923	800.000	0.018	-0.071
-587.909	37.727	-0.074	0.065
-586.894	-39.865	0.152	0.079
-585.879	487.840	-0.063	-0.143
-584.865	356.686	-0.084	-0.168
-583.850	196.638	-0.183	-0.279
-582.836	76.069	-0.074	-0.079
-581.821	110.949	-0.125	-0.151
-580.806	800.000	-0.092	-0.314
-579.792	-23.346	-0.365	0.219
-578.777	-158.503	-0.360	0.021
-577.763	133.157	0.250	-0.323
-576.748	419.984	-0.117	0.250
-575.733	800.000	0.040	-0.128
-574.719	2.912	0.155	-0.113
-573.704	-123.230	0.124	-0.020
-572.690	34.243	-0.091	-0.080
-571.675	-128.018	-0.290	-0.042
-570.661	-167.060	0.263	-0.011
-569.646	-122.174	-0.076	-0.012
-568.631	800.000	0.062	-0.207
-567.617	160.393	0.129	0.179
-566.602	-200.000	0.032	-0.309
-565.588	-200.000	-0.011	0.106
-564.573	-200.000	0.009	-0.099
-563.558	50.657	0.145	-0.137
-562.544	-66.773	-0.344	0.136
-561.529	218.823	-0.181	-0.289
-560.515	800.000	0.111	0.310
-559.500	-200.000	0.004	-0.122
-558.485	-77.193	-0.214	0.074
-557.471	800.000	-0.065	-0.200
-556.456	22.454	0.198	0.162
-555.442	-76.080	0.147	-0.052
-554.427	-41.201	0.258	0.133
-553.412	-1.631	-0.244	-0.172
-552.398	-200.000	0.024	0.169
-551.383	11.818	-0.201	-0.154
-550.369	-200.000	0.034	0.194
-549.354	800.000	-0.080	-0.235
-548.339	800.000	0.073	-0.224
-547.325	-84.301	-0.272	0.086
-546.310	-137.003	-0.215	-0.025
-545.296	-200.000	0.007	0.106
-544.281	20.994	-0.232	-0.187
-543.266	-176.537	-0.076	0.002
-542.252	69.624	-0.116	-0.119
-541.237	3.861	-0.235	-0.171
-540.223	-60.188	-0.151	-0.064
-539.208	337.658	0.140	0.273
-538.193	800.000	-0.022	0.075
-537.179	37.445	-0.104	-0.092
-536.164	692.074	0.039	0.103
-535.150	164.069	0.035	-0.050
-534.135	-84.158	-0.129	-0.041
-533.121	-27.213	-0.155	0.090
-532.106	-1.189	0.254	-0.179
-531.091	-90.337	-0.171	-0.049
-530.077	800.000	0.045	-0.126
-529.062	145.481	-0.015	0.020
-528.048	800.000	-0.066	-0.201
-527.033	-200.000	-0.012	-0.160
-526.018	150.154	-0.105	0.143
-525.004	16.916	-0.143	-0.113
-523.989	411.440	0.133	0.282
-522.975	800.000	-0.075	-0.321
-521.960	-122.888	0.044	0.007
-520.945	-136.525	0.266	-0.031
-519.931	-141.707	0.307	-0.031
-518.916	423.147	-0.203	0.434
-517.902	43.297	0.046	0.042
-516.887	800.000	0.056	0.157
-515.872	85.064	-0.255	-0.279
-514.858	-74.127	0.295	-0.106
-513.843	-200.000	0.036	0.215
-512.829	-86.123	-0.235	-0.072
-511.814	62.744	-0.196	-0.195
-510.799	-69.997	-0.280	0.106
-509.785	-200.000	0.012	0.058
-508.770	-200.000	0.068	0.361
-507.756	208.000	0.096	-0.149
-506.741	800.000	-0.052	-0.211
-505.726	241.308	0.175	-0.291
-504.712	-200.000	-0.011	-0.105
-503.697	-35.707	-0.152	-0.082
-502.683	-57.916	-0.154	0.067
-501.668	-168.647	0.141	0.005
-500.653	723.513	-0.081	0.216
-499.639	-200.000	0.007	-0.131
-498.624	800.000	0.132	0.428
-497.610	-200.000	0.039	0.214
-496.595	92.110	0.136	-0.153
-495.581	58.667	0.183	0.179
-494.566	-2.296	-0.037	0.026
-493.551	-135.919	-0.368	0.043
-492.537	124.712	0.216	0.271
-491.522	-17.035	0.307	0.193
-490.508	-16.663	0.063	0.040
-489.493	111.518	-0.070	-0.084
-488.478	-55.489	-0.359	-0.160
-487.464	-1.869	-0.253	0.177
-486.449	-11.169	0.156	0.102
-485.435	-185.945	0.200	0.003
-484.420	277.060	-0.204	-0.361
-483.405	63.766	0.167	0.167
-482.391	-149.864	-0.314	-0.024
-481.376	-98.785	0.066	-0.017
-480.362	83.091	-0.151	0.163
-479.347	50.626	-0.382	-0.360
-478.332	-132.327	0.224	-0.029
-477.318	800.000	-0.079	0.244
-476.303	-63.832	-0.072	-0.029
-475.289	-200.000	-0.013	0.163
-474.274	800.000	0.023	0.094
-473.259	-157.388	-0.054	0.003
-472.245	-73.414	-0.021	-0.008
-471.230	433.250	0.145	-0.313
-470.216	398.244	-0.023	0.048
-469.201	-165.500	-0.175	-0.008
-468.186	-7.802	-0.107	-0.072
-467.172	613.741	0.112	-0.280
-466.157	47.765	-0.294	-0.273
-465.143	50.390	-0.337	-0.317
-464.128	800.000	0.011	0.042
-463.113	2.499	-0.161	-0.116
-462.099	-30.748	-0.407	-0.229
-461.084	445.263	0.161	0.353
-460.070	-69.485	0.042	-0.016
-459.055	706.171	0.170	-0.447
-458.040	-49.962	-0.297	-0.140
-457.026	-118.894	0.239	-0.042
-456.011	-59.491	-0.289	-0.123
-454.997	6.100	-0.077	0.056
-453.982	29.929	-0.339	0.287
-452.968	50.938	0.058	-0.055
-451.953	56.021	-0.320	0.309
-450.938	346.862	0.050	0.098
-449.924	63.408	-0.320	-0.319
-448.909	472.726	-0.078	-0.176
-447.895	-64.032	0.235	-0.095
-446.880	318.146	-0.148	0.279
-445.865	-200.000	0.004	0.287
-444.851	-200.000	0.016	0.177
-443.836	64.204	0.219	0.219
-442.822	-131.588	-0.223	-0.029
-441.807	72.446	0.088	-0.092
-440.792	-40.957	-0.128	-0.066
-439.778	12.590	0.207	-0.159
-438.763	265.970	0.213	-0.370
-437.749	-18.505	-0.145	0.090
-436.734	197.447	-0.103	0.157
-435.719	68.955	0.105	0.108
-434.705	40.935	0.262	0.235
-433.690	206.211	-0.031	0.048
-432.676	401.081	-0.105	-0.219
-431.661	800.000	-0.048	0.144
-430.646	176.177	-0.202	-0.292
-429.632	16.235	-0.173	-0.135
-428.617	-98.661	0.110	-0.028
-427.603	-91.835	-0.115	-0.032
-426.588	-4.551	-0.244	0.167
-425.573	-43.183	0.301	-0.152
-424.559	217.469	-0.081	0.129
-423.544	131.111	-0.043	-0.055
-422.530	9.024	0.265	-0.199
-421.515	-200.000	0.039	-0.230
-420.500	-200.000	0.059	0.300
-419.486	-200.000	-0.016	-0.133
-418.471	-70.876	0.383	-0.143
-417.457	-63.449	0.105	0.043
-416.442	-61.982	0.170	0.071
-415.428	-200.000	0.009	0.044
-414.413	-31.896	-0.068	0.038
-413.398	800.000	0.031	-0.111
-412.384	31.227	0.248	-0.211
-411.369	-11.450	0.166	0.108
-410.355	621.950	0.111	-0.278
-409.340	-200.000	0.047	-0.229
-408.325	512.447	0.065	-0.150
-407.311	674.412	-0.148	0.381
-406.296	-106.260	0.515	-0.115
-405.282	-200.000	-0.015	-0.190
-404.267	-61.401	-0.214	-0.089
-403.252	638.181	0.145	0.367
-402.238	55.126	-0.035	0.033
-401.223	-65.531	-0.182	0.072
-400.209	72.845	-0.166	0.172
-399.194	55.607	0.104	0.100
-398.179	56.148	0.059	-0.057
-397.165	800.000	-0.059	0.207
-396.150	-85.532	0.168	-0.052
-395.136	-200.000	-0.007	-0.248
-394.121	379.850	-0.139	0.283
-393.106	-200.000	-0.023	-0.123
-392.092	800.000	0.053	-0.153
-391.077	110.181	0.266	0.317
-390.063	385.359	0.149	-0.304
-389.048	-117.118	-0.142	-0.026
-388.033	-102.444	0.206	0.049
-387.019	124.605	0.309	-0.385
-386.004	125.511	0.137	0.172
-384.990	-130.767	0.255	-0.034
-383.975	35.674	0.252	-0.220
-382.960	3.360	0.233	-0.168
-381.946	-200.000	-0.008	0.065
-380.931	64.186	0.164	0.163
-379.917	800.000	0.062	0.191
-378.902	-200.000	0.010	0.186
-377.888	-162.975	0.299	0.014
-376.873	19.537	-0.349	0.278
-375.858	-22.945	-0.196	-0.117
-374.844	-56.132	-0.250	-0.110
-373.829	-90.072	-0.357	-0.103
-372.815	131.528	-0.252	0.321
-371.800	-102.342	0.298	-0.071
-370.785	-89.855	-0.072	-0.021
-369.771	314.296	0.032	-0.060
-368.756	-158.999	0.212	0.012
-367.742	-35.593	0.265	-0.143
-366.727	-41.621	-0.265	-0.135
-365.712	-200.000	-0.023	-0.185
-364.698	-63.476	0.172	0.070
-363.683	800.000	0.099	-0.289
-362.669	-89.547	0.049	0.014
-361.654	-200.000	-0.012	0.180
-360.639	800.000	-0.034	0.105
-359.625	800.000	0.106	0.361
-358.610	10.034	0.288	0.217
-357.596	-51.359	-0.318	-0.148
-356.581	-200.000	0.024	-0.115
-355.566	563.211	0.048	-0.115
-354.552	800.000	0.075	0.271
-353.537	37.251	0.193	-0.170
-352.523	50.311	0.260	0.244
-351.508	27.862	-0.238	0.198
-350.493	45.945	-0.201	-0.184
-349.479	-49.186	0.205	-0.097
-348.464	-98.451	0.100	0.025
-347.450	-25.206	0.108	-0.063
-346.435	-56.695	-0.476	-0.208
-345.420	255.472	-0.190	-0.323
-344.406	15.443	0.169	-0.131
-343.391	116.826	0.113	-0.138
-342.377	-44.941	-0.075	-0.037
-341.362	-200.000	-0.001	0.283
-340.348	-200.000	-0.034	0.303
-339.333	-164.623	-0.259	-0.012
-338.318	-84.334	0.310	-0.097
-337.304	503.018	0.041	-0.094
-336.289	800.000	0.022	-0.092
-335.275	223.752	0.130	0.207
-334.260	-142.336	-0.497	-0.049
-333.245	371.104	0.037	-0.074
-332.231	410.512	-0.057	-0.119
-331.216	356.832	-0.090	-0.177
-330.202	2.393	0.265	0.190
-329.187	-200.000	0.033	0.151
-328.172	212.760	0.107	-0.167
-327.158	800.000	0.167	0.548
-326.143	-8.452	0.255	-0.170
-325.129	78.563	0.158	0.167
-324.114	334.927	-0.101	0.193
-323.099	-200.000	-0.018	-0.290
-322.085	88.416	-0.205	-0.225
-321.070	105.036	-0.087	0.101
-320.056	-51.228	0.256	-0.119
-319.041	-200.000	-0.009	0.176
-318.026	-52.881	0.255	-0.116
-317.012	-200.000	-0.015	-0.281
-315.997	-140.202	0.123	0.013
-314.983	-200.000	0.001	-0.340
-313.968	322.869	0.047	-0.089
-312.953	-200.000	0.009	0.041
-311.939	-87.723	0.216	-0.064
-310.924	-200.000	0.112	0.510
-309.910	800.000	0.058	0.191
-308.895	-200.000	0.017	-0.305
-307.880	-200.000	0.044	-0.362
-306.866	79.761	-0.110	-0.117
-305.851	330.034	-0.181	0.344
-304.837	301.096	-0.105	0.191
-303.822	157.490	-0.320	-0.438
-302.807	4.273	0.195	0.141
-301.793	800.000	-0.011	0.035
-300.778	104.192	-0.163	-0.190
-299.764	800.000	-0.023	-0.083
-298.749	131.484	-0.164	0.208
-297.735	683.308	-0.036	0.093
-296.720	26.123	0.158	0.130
-295.705	38.313	-0.167	0.147
-294.691	-128.350	0.220	-0.031
-293.676	208.929	0.233	0.361
-292.662	3.250	-0.146	0.105
-291.647	-72.234	0.295	-0.108
-290.632	42.585	-0.340	0.306
-289.618	29.920	-0.307	0.259
-288.603	-104.055	-0.297	0.068
-287.589	-122.975	-0.225	0.036
-286.574	-102.188	-0.153	0.036
-285.559	-200.000	-0.019	0.230
-284.545	-200.000	0.087	0.400
-283.530	365.761	-0.052	0.103
-282.516	248.997	0.025	0.041
-281.501	401.002	-0.190	-0.394
-280.486	800.000	0.075	0.258
-279.472	-200.000	-0.026	0.177
-278.457	-200.000	0.027	0.334
-277.443	-43.046	0.131	-0.066
-276.428	-200.000	0.041	-0.241
-275.413	-200.000	-0.046	-0.238
-274.399	-80.442	-0.180	-0.059
-273.384	-153.850	0.216	0.015
-272.370	-151.314	0.196	-0.014
-271.355	197.855	0.167	0.252
-270.340	-57.195	-0.073	-0.032
-269.326	800.000	-0.005	0.019
-268.311	18.193	-0.219	-0.173
-267.297	127.165	-0.148	-0.185
-266.282	117.981	0.094	-0.115
-265.267	-200.000	0.016	-0.070
-264.253	520.162	0.058	0.135
-263.238	-67.071	0.426	0.166
-262.224	-11.911	-0.267	0.173
-261.209	-79.915	0.205	0.068
-260.195	800.000	0.045	0.141
-259.180	163.017	0.167	0.231
-258.165	800.000	-0.087	0.267
-257.151	199.520	0.091	0.137
-256.136	-16.939	0.185	0.115
-255.122	-18.418	-0.087	0.053
-254.107	-70.836	-0.417	-0.155
-253.092	-180.015	0.254	-0.005
-252.078	-57.746	-0.208	-0.090
-251.063	264.671	-0.119	0.205
-250.049	286.829	0.052	0.093
-249.034	-43.726	0.153	0.076
-248.019	-13.865	0.119	-0.076
-247.005	-153.983	0.090	-0.006
-245.990	800.000	0.050	0.196
-244.976	572.907	0.107	0.258
-243.961	-57.110	-0.221	-0.096
-242.946	800.000	-0.017	-0.060
-241.932	170.402	0.255	0.360
-240.917	64.221	0.147	0.145
-239.903	54.108	0.222	0.210
-238.888	47.665	-0.077	0.071
-237.873	-200.000	0.051	0.345
-236.859	-157.794	-0.203	-0.012
-235.844	-110.612	-0.266	0.054
-234.830	-200.000	0.072	-0.451
-233.815	49.962	0.082	0.077
-232.800	800.000	0.074	0.312
-231.786	-174.026	-0.129	-0.004
-230.771	64.220	0.100	0.100
-229.757	800.000	-0.101	-0.295
-228.742	142.569	-0.318	0.417
-227.727	580.860	-0.118	0.285
-226.713	-174.579	0.264	-0.007
-225.698	-20.925	-0.160	-0.097
-224.684	-140.878	0.215	-0.022
-223.669	-200.000	0.057	-0.266
-222.655	-44.756	-0.120	0.059
-221.640	32.026	0.095	-0.081
-220.625	103.564	0.065	0.076
-219.611	14.344	-0.192	-0.148
-218.596	1.234	0.057	0.040
-217.582	308.905	0.058	0.107
-216.567	-52.957	-0.126	-0.057
-215.552	-200.000	0.054	0.531
-214.538	39.778	-0.138	-0.122
-213.523	-152.662	-0.190	0.013
-212.509	197.119	-0.105	-0.158
-211.494	63.562	0.037	0.036
-210.479	-118.680	0.139	-0.024
-209.465	288.106	-0.133	0.236
-208.450	263.093	0.105	-0.179
-207.436	800.000	0.061	0.239
-206.421	-163.387	0.297	-0.014
-205.406	94.835	-0.190	0.212
-204.392	140.979	-0.073	0.095
-203.377	-200.000	0.084	0.414
-202.363	61.685	0.152	0.149
-201.348	-143.208	0.167	-0.016
-200.333	-200.000	0.045	-0.277
-199.319	5.980	0.358	0.261
-198.304	-79.891	0.082	0.027
-197.290	-200.000	0.027	-0.140
-196.275	-200.000	-0.006	0.066
-195.260	21.719	0.131	-0.105
-194.246	124.389	0.244	0.302
-193.231	-200.000	-0.025	0.253
-192.217	29.054	0.125	0.105
-191.202	-125.190	0.620	0.093
-190.187	-64.896	-0.161	0.064
-189.173	143.978	-0.244	0.320
-188.158	225.007	-0.047	0.074
-187.144	-200.000	0.068	0.495
-186.129	12.722	-0.232	-0.176
-185.114	97.739	0.364	-0.411
-184.100	-200.000	0.009	0.060
-183.085	800.000	0.131	-0.405
-182.071	-45.677	0.178	0.087
-181.056	-0.879	0.055	0.038
-180.042	-200.000	0.314	0.000
-179.027	90.561	-0.144	-0.159
-178.012	119.471	-0.313	-0.381
-176.998	513.739	0.161	-0.369
-175.983	-13.378	0.172	-0.110
-174.969	-75.899	0.188	-0.066
-173.954	156.709	0.151	-0.205
-172.939	-37.513	-0.352	-0.185
-171.925	-79.853	0.270	0.089
-170.910	-116.639	-0.180	-0.033
-169.896	-161.961	-0.048	0.002
-168.881	77.855	-0.194	-0.203
-167.866	800.000	-0.056	-0.156
-166.852	-87.457	-0.172	0.051
-165.837	-62.084	-0.322	0.132
-164.823	800.000	-0.048	-0.168
-163.808	672.835	0.144	-0.367
-162.793	157.906	0.206	-0.280
-161.779	-91.326	0.069	0.019
-160.764	11.422	-0.176	0.132
-159.750	179.908	0.255	0.367
-158.735	-80.872	-0.041	-0.013
-157.720	-98.193	0.218	0.055
-156.706	-200.000	-0.022	-0.274
-155.691	9.311	0.310	-0.230
-154.677	120.082	-0.179	0.219
-153.662	800.000	0.111	0.444
-152.647	-32.504	0.301	-0.165
-151.633	126.733	-0.065	0.081
-150.618	-63.021	0.035	0.014
-149.604	35.081	0.236	-0.203
-148.589	-19.355	0.357	-0.218
-147.574	66.953	0.096	-0.096
-146.560	-53.627	-0.080	0.036
-145.545	546.000	0.086	-0.202
-144.531	-39.716	-0.223	0.115
-143.516	452.173	0.134	-0.292
-142.502	210.463	-0.058	-0.089
-141.487	-200.000	0.025	0.127
-140.472	524.082	-0.067	-0.156
-139.458	-100.997	0.107	0.026
-138.443	-131.795	-0.172	0.022
-137.429	800.000	-0.036	0.151
-136.414	-200.000	-0.001	-0.123
-135.399	45.660	0.074	0.067
-134.385	-73.859	-0.237	-0.084
-133.370	800.000	-0.017	0.074
-132.356	69.933	0.231	0.234
-131.341	445.674	-0.079	-0.170
-130.326	-16.853	-0.106	-0.066
-129.312	611.590	0.057	0.141
-128.297	222.370	-0.087	0.138
-127.283	-24.638	0.100	-0.059
-126.268	134.991	-0.156	0.199
-125.253	-150.289	0.251	-0.019
-124.239	156.626	0.258	-0.350
-123.224	-111.911	0.032	-0.006
-122.210	709.761	0.009	0.023
-121.195	575.100	-0.026	0.062
-120.180	73.307	0.368	-0.378
-119.166	159.548	0.131	-0.178
-118.151	-131.963	0.222	-0.028
-117.137	-78.284	-0.396	-0.133
-116.122	27.210	0.414	0.341
-115.107	-200.000	0.014	0.168
-114.093	521.460	0.076	0.175
-113.078	215.855	0.111	-0.174
-112.064	-164.214	-0.256	0.012
-111.049	20.758	-0.068	-0.054
-110.034	-70.187	-0.060	-0.022
-109.020	-200.000	0.038	0.237
-108.005	33.414	0.252	-0.215
-106.991	-162.991	-0.163	0.008
-105.976	-200.000	-0.006	0.035
-104.962	-100.111	0.148	0.036
-103.947	218.470	-0.191	0.299
-102.932	-173.798	0.055	-0.002
-101.918	9.646	0.264	-0.196
-100.903	-154.308	0.261	0.017
-99.889	-88.461	0.088	0.026
-98.874	-200.000	-0.021	-0.137
-97.859	-200.000	-0.028	0.151
-96.845	540.128	0.054	0.125
-95.830	-67.610	0.346	0.133
-94.816	37.561	0.150	0.130
-93.801	1.114	-0.370	0.260
-92.786	800.000	-0.043	-0.154
-91.772	14.916	-0.231	-0.177
-90.757	-96.289	0.229	-0.060
-89.743	800.000	-0.075	0.257
-88.728	-178.528	-0.084	-0.002
-87.713	625.661	0.037	0.092
-86.699	-200.000	0.010	-0.110
-85.684	-136.147	0.156	0.018
-84.670	-115.055	-0.189	0.035
-83.655	148.492	-0.072	0.095
-82.640	800.000	0.038	-0.135
-81.626	-200.000	0.044	0.235
-80.611	-3.819	-0.105	0.072
-79.597	800.000	-0.047	0.131
-78.582	-168.323	0.299	-0.011
-77.567	407.406	-0.107	0.222
-76.553	-85.393	-0.287	0.088
-75.538	-71.251	-0.181	-0.066
-74.524	-166.932	-0.181	-0.007
-73.509	-200.000	-0.023	-0.408
-72.494	199.660	-0.133	0.200
-71.480	-148.289	0.245	0.020
-70.465	35.034	-0.002	-0.002
-69.451	339.672	0.123	0.235
-68.436	102.417	-0.090	0.103
-67.422	-121.979	0.567	-0.091
-66.407	41.893	0.104	0.092
-65.392	-200.000	0.015	-0.303
-64.378	-33.571	0.239	-0.129
-63.363	148.346	-0.022	-0.029
-62.349	-30.631	-0.191	-0.106
-61.334	90.718	-0.779	-0.855
-60.319	100.138	0.500	0.567
-59.305	750.863	-0.529	-1.398
-58.290	504.563	0.507	1.149
-57.276	253.877	0.864	1.446
-56.261	-200.000	111.675	644.530
-55.246	488.438	1485.317	3321.167
-54.232	151.256	2645.657	3525.130
-53.217	105.707	2137.033	2473.921
-52.203	39.254	1595.256	1397.619
-51.188	31.333	1344.208	1129.957
-50.173	28.366	1306.738	1080.941
-49.159	56.214	1362.564	1295.345
-48.144	54.994	1376.734	1301.455
-47.130	31.512	1333.104	1121.520
-46.115	28.134	1315.319	1086.494
-45.100	27.977	1309.915	1081.053
-44.086	27.835	1307.945	1078.550
-43.071	27.792	1305.845	1076.519
-42.057	27.812	1303.672	1074.805
-41.042	27.755	1302.431	1073.402
-40.027	27.927	1300.164	1072.500
-39.013	27.888	1298.631	1070.967
-37.998	27.889	1296.445	1069.125
-36.984	27.985	1294.801	1068.292
-35.969	27.993	1293.043	1066.844
-34.954	28.032	1291.546	1065.794
-33.940	28.038	1290.246	1064.716
-32.925	28.083	1288.719	1063.673
-31.911	28.094	1287.350	1062.567
-30.896	28.118	1285.904	1061.468
-29.881	28.081	1284.969	1060.441
-28.867	28.095	1283.572	1059.327
-27.852	28.090	1282.138	1058.069
-26.838	28.146	1280.461	1056.970
-25.823	28.231	1278.805	1056.050
-24.809	28.102	1277.832	1054.461
-23.794	27.938	1277.021	1052.805
-22.779	28.088	1275.213	1052.136
-21.765	28.151	1273.867	1051.344
-20.750	28.082	1272.674	1049.922
-19.736	27.965	1271.374	1048.139
-18.721	27.926	1270.057	1046.788
-17.706	28.028	1269.001	1046.460
-16.692	27.935	1268.019	1045.076
-15.677	27.989	1266.760	1044.306
-14.663	27.989	1265.903	1043.557
-13.648	27.968	1264.599	1042.321
-12.633	28.005	1263.790	1041.824
-11.619	27.990	1262.613	1040.727
-10.604	27.986	1261.931	1040.102
-9.590	27.864	1261.356	1038.892
-8.575	27.773	1260.640	1037.743
-7.560	27.953	1259.278	1037.601
-6.546	27.856	1258.579	1036.435
-5.531	27.883	1257.825	1035.925
-4.517	27.938	1256.905	1035.439
-3.502	27.934	1255.849	1034.508
-2.487	28.034	1254.910	1034.255
-1.473	27.925	1251.035	1030.407
-0.458	26.277	1235.667	1008.518
0.556	21.259	1218.091	970.423
1.571	17.535	1224.074	954.278
2.586	16.631	1239.274	960.911
3.600	16.641	1228.405	952.454
4.615	14.902	1161.933	891.571
5.629	11.355	1094.401	821.837
6.644	9.351	1077.715	799.281
7.659	9.285	1075.404	797.173
8.673	9.178	1074.311	795.761
9.688	9.346	1072.433	795.129
10.702	9.447	1070.735	794.298
11.717	11.677	1072.386	806.465
12.731	15.330	1077.794	828.536
13.746	17.389	1080.059	840.389
14.761	17.518	1079.571	840.572
15.775	16.443	1077.866	833.866
16.790	15.442	1075.853	827.305
17.804	14.732	1074.201	822.468
18.819	14.257	1073.094	819.209
19.834	14.068	1072.137	817.474
20.848	13.784	1071.133	815.243
21.863	13.692	1069.841	813.738
22.877	13.395	1069.919	812.266
23.892	13.378	1068.732	811.209
24.907	13.388	1068.391	810.929
25.921	13.502	1066.832	810.230
26.936	13.512	1065.750	809.385
27.950	13.664	1064.027	808.747
28.965	13.673	1062.964	807.911
29.980	13.677	1061.474	806.728
30.994	13.767	1060.325	806.222
32.009	13.741	1059.419	805.333
33.023	13.771	1058.212	804.489
34.038	13.692	1057.096	803.191
35.053	13.660	1056.279	802.340
36.067	13.482	1055.664	800.943
37.082	13.512	1054.682	800.273
38.096	13.722	1053.595	800.389
39.111	13.656	1053.018	799.562
40.126	13.566	1051.780	798.118
41.140	13.516	1050.236	796.635
42.155	13.389	1049.151	795.132
43.169	13.403	1048.031	794.281
44.184	13.351	1047.298	793.406
45.199	13.468	1045.925	792.853
46.213	13.523	1045.094	792.417
47.228	13.521	1043.838	791.385
48.242	13.593	1042.701	790.795
49.257	13.613	1042.117	790.378
50.271	13.611	1040.754	789.264
51.286	13.521	1040.674	788.706
52.301	13.596	1038.929	787.673
53.315	13.632	1037.931	787.016
54.330	13.487	1036.788	785.390
55.344	13.475	1036.158	784.788
56.359	13.552	1035.188	784.351
57.374	13.459	1035.035	783.726
58.388	13.488	1033.462	782.601
59.403	13.374	1032.824	781.509
60.417	13.254	1032.361	780.521
61.432	13.270	1031.382	779.791
62.447	13.229	1030.786	779.077
63.461	13.242	1030.062	778.522
64.476	13.388	1028.727	778.129
65.490	13.279	1028.141	777.106
66.505	13.287	1027.306	776.445
67.520	13.447	1026.066	776.191
68.534	13.369	1025.876	775.610
69.549	13.398	1024.976	774.999
70.563	13.400	1024.152	774.314
71.578	13.287	1022.973	772.828
72.593	13.215	1022.921	772.381
73.607	13.229	1021.832	771.555
74.622	13.249	1021.634	771.434
75.636	13.409	1020.302	771.105
76.651	13.347	1020.080	770.579
77.666	13.290	1019.151	769.543
78.680	13.378	1018.644	769.504
79.695	13.354	1017.724	768.627
80.709	13.383	1017.611	768.609
81.724	13.450	1017.009	768.400
82.739	13.399	1015.839	767.211
83.753	13.489	1014.884	766.837
84.768	13.643	1014.094	766.887
85.782	13.721	1013.340	766.609
86.797	13.532	1012.577	765.090
87.812	13.506	1011.863	764.364
88.826	13.648	1010.236	763.718
89.841	13.643	1009.330	762.945
90.855	13.721	1008.358	762.500
91.870	13.556	1007.970	761.380
92.884	13.692	1006.927	761.150
93.899	13.719	1005.975	760.488
94.914	13.828	1005.352	760.451
95.928	13.728	1004.600	759.357
96.943	13.787	1003.520	758.743
97.957	13.681	1002.861	757.690
98.972	13.695	1002.116	757.124
99.987	13.762	1001.162	756.645
101.001	13.728	1000.102	755.619
102.016	13.744	999.248	754.981
103.030	13.686	998.335	753.961
104.045	13.775	997.996	754.045
105.060	13.551	997.509	752.589
106.074	13.500	996.334	751.404
107.089	13.430	995.128	750.111
108.103	13.515	994.072	749.634
109.118	13.508	992.879	748.640
110.133	13.392	992.510	747.770
111.147	13.510	991.477	747.458
112.162	13.443	990.776	746.558
113.176	13.610	989.713	746.444
114.191	13.542	989.230	745.707
115.206	13.518	988.129	744.706
116.220	13.677	987.235	744.678
117.235	13.476	986.615	743.243
118.249	13.528	985.612	742.654
119.264	13.526	985.173	742.252
120.279	13.639	984.172	741.936
121.293	13.424	983.531	740.426
122.308	13.574	982.314	740.114
123.322	13.337	981.897	738.677
124.337	13.391	980.822	738.042
125.352	13.400	979.153	736.762
126.366	13.494	978.409	736.557
127.381	13.600	977.168	736.028
128.395	13.349	976.868	734.622
129.410	13.555	975.830	734.691
130.424	13.445	975.263	733.711
131.439	13.648	974.058	733.639
132.454	13.615	973.070	732.684
133.468	13.456	972.886	731.776
134.483	13.651	971.683	731.666
135.497	13.679	971.135	731.313
136.512	13.570	969.982	729.900
137.527	13.606	969.282	729.468
138.541	13.575	968.529	728.698
139.556	13.769	967.698	728.862
140.570	13.849	966.846	728.506
141.585	13.804	966.174	727.738
142.600	13.829	965.609	727.358
143.614	13.784	964.651	726.374
144.629	13.790	963.777	725.678
145.643	13.822	962.952	725.136
146.658	13.777	961.695	723.927
147.673	13.720	960.967	723.066
148.687	13.706	960.283	722.426
149.702	13.701	959.475	721.733
150.716	13.597	958.694	720.628
151.731	13.753	957.747	720.532
152.746	13.568	957.410	719.412
153.760	13.820	956.295	719.602
154.775	13.813	955.957	719.253
155.789	13.835	955.038	718.595
156.804	13.932	954.625	718.640
157.819	13.906	953.507	717.624
158.833	13.927	953.026	717.288
159.848	13.837	952.625	716.531
160.862	13.990	951.633	716.386
161.877	13.692	950.641	714.290
162.892	13.734	949.934	713.877
163.906	13.759	948.968	713.196
164.921	13.812	947.989	712.625
165.935	13.865	946.980	712.029
166.950	14.015	945.877	711.777
167.964	13.902	945.257	710.765
168.979	13.895	944.904	710.408
169.994	13.856	943.856	709.389
171.008	13.829	943.611	709.029
172.023	14.031	942.190	708.758
173.037	14.098	941.559	708.507
174.052	13.981	941.129	707.624
175.067	13.909	940.386	706.695
176.081	13.725	939.772	705.389
177.096	13.803	939.254	705.268
178.110	13.882	938.746	705.160
179.125	13.775	938.077	704.141
180.140	13.953	937.403	704.330
181.154	14.020	936.905	704.178
182.169	14.034	936.230	703.664
183.183	14.163	935.614	703.686
184.198	14.131	935.040	703.055
185.213	14.132	934.285	702.431
186.227	14.241	933.232	702.038
187.242	14.141	932.885	701.294
188.256	14.262	932.251	701.265
189.271	14.117	931.664	700.147
190.286	14.158	930.700	699.535
191.300	13.857	929.887	697.596
192.315	13.892	929.302	697.243
193.329	13.978	928.813	697.176
194.344	14.081	928.278	697.145
195.359	13.925	927.703	695.997
196.373	14.212	926.633	696.336
197.388	14.145	927.009	696.274
198.402	14.377	926.321	696.665
199.417	14.305	925.686	695.828
200.432	14.508	924.945	696.054
201.446	14.430	924.659	695.453
202.461	14.507	924.062	695.263
203.475	14.524	923.252	694.663
204.490	14.457	922.431	693.707
205.504	14.314	922.003	692.729
206.519	14.355	921.032	692.106
207.534	14.382	920.128	691.477
208.548	14.491	919.789	691.617
209.563	14.534	918.668	690.889
210.577	14.383	918.703	690.227
211.592	14.600	917.390	690.079
212.607	14.587	916.782	689.505
213.621	14.730	915.779	689.282
214.636	14.483	915.681	688.128
215.650	14.560	914.353	687.386
216.665	14.602	914.105	687.312
217.680	14.585	913.106	686.429
218.694	14.641	912.966	686.494
219.709	14.723	911.620	685.759
220.723	14.664	911.622	685.459
221.738	14.689	910.762	684.850
222.753	14.688	909.991	684.206
223.767	14.783	909.106	683.870
224.782	14.833	908.703	683.709
225.796	14.723	908.503	683.051
226.811	14.785	907.767	682.689
227.826	14.785	906.617	681.762
228.840	14.703	906.462	681.252
229.855	14.582	905.421	679.916
230.869	14.727	904.733	679.932
231.884	14.691	903.976	679.156
232.899	14.600	903.363	678.263
233.913	14.606	902.383	677.494
234.928	14.703	901.522	677.182
235.942	14.560	901.569	676.574
236.957	14.670	900.833	676.409
237.972	14.782	899.859	676.070
238.986	14.785	899.291	675.599
240.001	14.755	898.611	674.904
241.015	14.776	898.186	674.612
242.030	14.771	897.520	674.033
243.045	14.847	896.662	673.636
244.059	14.805	896.973	673.639
245.074	14.850	895.528	672.677
246.088	14.886	895.154	672.479
247.103	14.924	894.711	672.241
248.117	14.951	894.652	672.243
249.132	15.141	893.673	672.211
250.147	15.080	893.095	671.474
251.161	15.056	892.369	670.771
252.176	15.237	891.796	671.006
253.190	15.225	890.902	670.227
254.205	15.160	890.574	669.661
255.220	15.153	890.127	669.234
256.234	15.248	889.067	668.758
257.249	15.336	887.902	668.174
258.263	15.200	887.671	667.400
259.278	15.351	886.756	667.254
260.293	15.299	886.688	666.935
261.307	15.278	885.859	666.170
262.322	15.477	884.941	666.211
263.336	15.558	884.014	665.776
264.351	15.431	883.599	664.902
265.366	15.555	882.942	664.837
266.380	15.535	882.595	664.439
267.395	15.404	882.251	663.603
268.409	15.408	881.177	662.753
269.424	15.355	880.356	661.867
270.439	15.540	879.460	661.863
271.453	15.464	878.842	661.040
272.468	15.615	878.111	661.026
273.482	15.436	878.333	660.429
274.497	15.587	877.249	660.150
275.512	15.555	876.564	659.450
276.526	15.562	876.274	659.202
277.541	15.482	875.652	658.364
278.555	15.530	875.166	658.127
279.570	15.640	874.704	658.152
280.585	15.684	873.640	657.466
281.599	15.736	872.799	656.977
282.614	15.576	872.604	656.146
283.628	15.665	871.489	655.598
284.643	15.761	870.607	655.252
285.657	15.653	870.366	654.591
286.672	15.670	869.453	653.913
287.687	15.667	869.227	653.674
288.701	15.628	868.521	652.932
289.716	15.833	867.942	653.237
290.730	15.720	867.644	652.514
291.745	15.768	866.894	652.080
292.760	15.869	866.142	651.848
293.774	15.910	865.313	651.323
294.789	15.791	865.052	650.610
295.803	15.813	864.072	649.902
296.818	15.794	863.384	649.252
297.833	15.852	862.715	648.916
298.847	15.814	862.282	648.386
299.862	15.789	862.112	648.106
300.876	15.930	861.372	648.033
301.891	15.943	860.303	647.223
302.906	15.985	860.222	647.266
303.920	15.979	859.556	646.682
304.935	16.123	859.116	646.846
305.949	16.124	858.388	646.245
306.964	15.942	857.806	645.054
307.979	16.030	857.194	644.873
308.993	16.220	856.263	644.840
310.008	16.103	856.080	644.200
311.022	16.087	855.404	643.575
312.037	16.036	854.908	642.947
313.052	16.039	854.252	642.408
314.066	15.877	854.052	641.584
315.081	16.036	853.513	641.730
316.095	15.962	852.809	640.862
317.110	15.953	852.305	640.393
318.125	16.048	851.607	640.170
319.139	15.981	851.293	639.622
320.154	16.012	850.973	639.443
321.168	16.127	850.106	639.173
322.183	16.022	849.761	638.460
323.197	16.206	849.146	638.637
324.212	16.167	848.529	637.971
325.227	16.125	847.553	637.018
326.241	16.205	847.354	637.115
327.256	16.168	846.910	636.587
328.270	16.206	845.906	635.918
329.285	16.230	845.106	635.352
330.300	16.205	844.720	634.912
331.314	16.183	844.608	634.687
332.329	16.316	844.285	634.889
333.343	16.222	843.841	634.147
334.358	16.285	843.531	634.092
335.373	16.438	842.920	634.152
336.387	16.371	842.501	633.527
337.402	16.368	842.278	633.293
338.416	16.491	842.017	633.504
339.431	16.453	842.000	633.293
340.446	16.550	841.063	632.894
341.460	16.618	840.532	632.692
342.475	16.653	840.092	632.435
343.489	16.704	839.407	632.054
344.504	16.651	839.414	631.807
345.519	16.695	839.117	631.691
346.533	16.648	838.320	630.861
347.548	16.609	837.736	630.219
348.562	16.450	837.342	629.275
349.577	16.659	836.493	629.359
350.592	16.614	836.041	628.794
351.606	16.506	835.450	627.896
352.621	16.499	834.820	627.338
353.635	16.594	833.929	626.965
354.650	16.590	833.540	626.604
355.665	16.766	832.601	626.495
356.679	16.634	832.361	625.769
357.694	16.694	831.749	625.477
358.708	16.675	830.879	624.698
359.723	16.733	830.380	624.478
360.738	16.787	829.783	624.175
361.752	16.934	829.358	624.339
362.767	16.815	828.909	623.508
363.781	17.009	828.189	623.625
364.796	17.102	827.831	623.644
365.810	17.124	827.243	623.226
366.825	17.034	827.173	622.787
367.840	16.966	826.428	621.921
368.854	16.895	826.175	621.417
369.869	16.936	825.645	621.113
370.883	16.911	825.350	620.745
371.898	16.999	824.898	620.672
372.913	16.938	824.540	620.125
373.927	17.026	824.045	620.020
374.942	16.968	823.706	619.495
375.956	17.057	823.174	619.367
376.971	17.130	822.618	619.159
377.986	17.126	822.166	618.750
379.000	17.229	821.692	618.714
380.015	17.172	820.975	617.913
381.029	17.348	820.280	617.975
382.044	17.286	819.803	617.334
383.059	17.294	819.159	616.823
384.073	17.103	819.001	615.958
385.088	17.169	818.283	615.601
386.102	17.012	817.749	614.576
387.117	17.233	817.155	614.874
388.132	16.995	817.087	613.910
389.146	17.191	816.308	613.977
390.161	17.316	815.520	613.780
391.175	17.429	814.989	613.736
392.190	17.262	814.431	612.659
393.205	17.230	813.865	612.065
394.219	17.273	813.569	611.942
395.234	17.455	812.923	612.057
396.248	17.087	813.006	610.742
397.263	17.241	812.445	610.819
398.278	17.326	811.909	610.668
399.292	17.280	811.535	610.169
400.307	17.358	811.041	610.020
401.321	17.254	810.582	609.249
402.336	17.284	810.316	609.101
403.350	17.407	809.666	609.001
404.365	17.285	809.759	608.580
405.380	17.408	808.924	608.338
406.394	17.705	808.120	608.742
407.409	17.544	808.343	608.280
408.423	17.624	807.731	608.051
409.438	17.576	807.334	607.525
410.453	17.585	807.120	607.346
411.467	17.714	806.241	607.088
412.482	17.785	805.884	607.019
413.496	17.828	804.968	606.429
414.511	17.833	805.134	606.519
415.526	17.822	804.680	606.082
416.540	17.784	804.108	605.464
417.555	17.885	803.691	605.455
418.569	17.792	803.114	604.636
419.584	17.694	803.125	604.242
420.599	17.699	802.486	603.725
421.613	111.773	1294.346	1477.411
422.628	96.370	1365.984	1477.475
