DTS Sentinel unit serial number:	SN413079Multiplexer serial number:	ORYXHardware model number:	OX4-SRSoftware version number:	ORYX F/W v4.00 Oryx Data Collector v3.7.2.0data status	okinstallation	princeton_trtdifferential loss correction	single-endedforward channel	channel 1reverse channel	N/Adate	2019/09/17time	13:18:35forward acquisition time	60.00reverse acquisition time	0.00gamma	496.2192k internal	0.2310k external	0.2310temperature offset calibration	0.9965default loss term (dB/km)	0.3790temperature slope calibration	1.0000multiplexer offset coefficient	1.0000multiplexer slope coefficient	1.0000fibre end	0.00T internal ref (°C)	34.17T ext. ref 1 (°C)	0.42T ext. ref 2 (°C)	31.35length (m)	temperature (°C)	Stokes	anti-Stokes-747.200	170.829	-0.183	0.267
-746.185	-200.000	0.059	0.359
-745.171	-74.596	-0.131	-0.048
-744.156	-28.044	0.128	0.075
-743.142	-73.275	0.295	-0.110
-742.127	-129.313	-0.163	0.023
-741.112	-200.000	0.001	0.069
-740.098	-22.289	-0.138	0.085
-739.083	18.354	0.153	-0.124
-738.069	800.000	0.067	0.292
-737.054	291.439	-0.090	0.166
-736.039	-145.736	-0.413	-0.037
-735.025	800.000	0.073	-0.249
-734.010	-82.370	-0.259	-0.086
-732.996	-109.902	0.255	-0.054
-731.981	-109.641	-0.353	-0.076
-730.966	-130.590	-0.380	-0.052
-729.952	-200.000	-0.027	0.145
-728.937	38.023	-0.236	0.213
-727.923	-200.000	-0.126	0.665
-726.908	462.961	0.043	0.097
-725.894	-200.000	0.004	0.111
-724.879	174.670	-0.119	0.175
-723.864	63.758	-0.165	-0.168
-722.850	-100.916	-0.237	-0.059
-721.835	-77.486	-0.205	0.072
-720.821	422.955	-0.062	-0.135
-719.806	-200.000	0.006	-0.039
-718.791	-200.000	0.040	-0.326
-717.777	94.574	-0.051	-0.059
-716.762	-200.000	-0.034	-0.165
-715.748	-180.220	0.063	-0.001
-714.733	117.240	-0.068	-0.085
-713.718	-45.598	-0.423	-0.212
-712.704	-200.000	-0.053	0.373
-711.689	441.463	-0.045	0.100
-710.675	-101.812	-0.249	-0.061
-709.660	800.000	-0.059	-0.245
-708.645	-79.957	-0.196	0.067
-707.631	389.585	-0.158	-0.332
-706.616	-103.135	0.149	-0.036
-705.602	-130.431	0.175	0.024
-704.587	240.828	-0.121	0.204
-703.572	-89.975	-0.299	0.088
-702.558	-200.000	0.015	-0.429
-701.543	800.000	0.030	-0.094
-700.529	-77.273	0.394	0.139
-699.514	-200.000	-0.067	-0.407
-698.499	7.214	-0.119	0.090
-697.485	-106.720	0.204	-0.046
-696.470	-200.000	0.006	0.084
-695.456	-200.000	-0.017	-0.202
-694.441	-78.811	0.054	-0.019
-693.426	-0.732	-0.181	0.130
-692.412	-21.019	-0.004	-0.002
-691.397	-14.757	-0.137	-0.089
-690.383	80.155	0.238	0.260
-689.368	-200.000	-0.005	0.069
-688.354	212.630	-0.092	-0.147
-687.339	-124.078	0.405	-0.064
-686.324	-109.710	-0.304	0.065
-685.310	-200.000	-0.002	0.117
-684.295	-99.641	0.207	-0.053
-683.281	-77.563	-0.386	-0.136
-682.266	164.526	-0.185	-0.264
-681.251	30.684	0.198	0.171
-680.237	568.202	0.073	0.179
-679.222	149.817	-0.202	0.277
-678.208	66.087	0.125	0.128
-677.193	-41.467	0.319	-0.166
-676.178	39.868	-0.421	-0.383
-675.164	-92.231	-0.353	-0.101
-674.149	-200.000	-0.022	0.367
-673.135	496.446	-0.097	-0.225
-672.120	-99.673	-0.023	-0.006
-671.105	-55.908	0.110	0.050
-670.091	99.762	0.095	0.111
-669.076	127.255	-0.012	-0.015
-668.062	-27.071	0.108	0.064
-667.047	-0.118	-0.338	-0.243
-666.032	-200.000	0.023	-0.257
-665.018	800.000	0.032	0.098
-664.003	800.000	0.039	-0.162
-662.989	800.000	-0.031	0.135
-661.974	192.888	-0.129	-0.197
-660.959	800.000	0.132	0.426
-659.945	-152.369	-0.184	-0.013
-658.930	-200.000	-0.062	0.326
-657.916	91.353	-0.020	-0.023
-656.901	221.558	-0.055	-0.090
-655.886	-103.171	-0.124	0.030
-654.872	-192.230	0.202	-0.002
-653.857	45.887	0.162	0.151
-652.843	-139.670	-0.666	0.072
-651.828	162.032	0.032	0.046
-650.814	-200.000	-0.032	0.154
-649.799	-98.505	-0.216	0.056
-648.784	345.182	-0.205	-0.408
-647.770	800.000	0.070	0.198
-646.755	421.278	0.033	0.071
-645.741	-200.000	-0.006	0.033
-644.726	-200.000	-0.008	-0.055
-643.711	507.586	0.181	-0.426
-642.697	-92.034	0.253	-0.072
-641.682	-200.000	-0.015	-0.153
-640.668	-110.191	-0.185	-0.039
-639.653	-200.000	-0.123	-0.553
-638.638	131.439	0.105	0.137
-637.624	-147.293	-0.243	0.021
-636.609	614.254	-0.057	0.145
-635.595	201.639	0.125	0.194
-634.580	-29.064	-0.058	0.033
-633.565	326.397	0.049	0.095
-632.551	268.580	-0.153	0.271
-631.536	-58.174	0.100	0.044
-630.522	-1.521	0.115	-0.082
-629.507	7.856	-0.260	-0.197
-628.492	11.010	-0.326	-0.252
-627.478	800.000	0.085	-0.290
-626.463	-200.000	0.016	0.232
-625.449	239.492	0.095	-0.159
-624.434	-8.036	-0.292	-0.199
-623.419	217.199	0.187	-0.301
-622.405	99.071	0.097	0.113
-621.390	-37.936	-0.198	-0.106
-620.376	-153.668	-0.074	0.005
-619.361	-117.040	-0.084	0.015
-618.346	-160.939	-0.059	-0.003
-617.332	5.449	-0.201	0.150
-616.317	-200.000	0.008	-0.090
-615.303	-200.000	-0.003	-0.130
-614.288	519.961	-0.035	-0.083
-613.273	-49.599	-0.199	-0.096
-612.259	-200.000	0.037	-0.209
-611.244	20.456	0.102	0.083
-610.230	-132.796	-0.130	-0.017
-609.215	467.395	-0.100	0.227
-608.201	800.000	-0.025	-0.073
-607.186	58.652	-0.135	-0.134
-606.171	-87.505	-0.309	-0.094
-605.157	-200.000	-0.004	-0.312
-604.142	-68.179	-0.306	-0.120
-603.128	306.424	-0.133	-0.250
-602.113	-200.000	0.011	0.102
-601.098	323.504	0.101	-0.195
-600.084	18.658	0.027	-0.022
-599.069	-109.408	-0.194	0.041
-598.055	86.330	0.042	-0.047
-597.040	188.288	0.171	-0.258
-596.025	-200.000	0.061	-0.290
-595.011	95.815	0.169	-0.195
-593.996	-147.677	0.102	-0.009
-592.982	48.081	-0.254	-0.240
-591.967	54.845	-0.022	0.021
-590.952	800.000	0.046	-0.143
-589.938	21.759	0.152	0.125
-588.923	21.519	0.287	0.235
-587.909	260.771	-0.121	-0.211
-586.894	-200.000	-0.031	-0.211
-585.879	353.719	0.100	-0.200
-584.865	-108.622	0.119	-0.026
-583.850	709.831	-0.181	0.483
-582.836	457.452	-0.079	0.177
-581.821	190.863	-0.072	0.109
-580.806	-37.210	-0.181	-0.098
-579.792	-47.171	0.257	-0.126
-578.777	130.812	0.248	0.322
-577.763	-1.014	0.505	-0.360
-576.748	7.477	-0.185	0.139
-575.733	-200.000	0.048	0.000
-574.719	-111.256	0.131	0.027
-573.704	800.000	-0.034	0.132
-572.690	-117.748	-0.232	-0.042
-571.675	800.000	0.101	0.389
-570.661	12.630	0.039	-0.030
-569.646	-200.000	0.000	0.109
-568.631	9.544	-0.267	-0.204
-567.617	800.000	0.045	0.164
-566.602	800.000	-0.072	-0.244
-565.588	-65.877	0.156	0.063
-564.573	365.502	0.047	0.095
-563.558	-200.000	-0.009	-0.211
-562.544	800.000	-0.072	0.202
-561.529	-169.289	-0.076	0.003
-560.515	-63.827	-0.021	-0.009
-559.500	-168.698	0.035	0.001
-558.485	2.331	0.375	0.274
-557.471	79.759	-0.119	0.129
-556.456	-107.250	-0.360	0.080
-555.442	-200.000	-0.043	-0.237
-554.427	-121.540	0.153	-0.026
-553.412	-200.000	-0.003	-0.235
-552.398	-67.068	-0.246	-0.098
-551.383	13.440	0.078	-0.061
-550.369	29.042	0.192	0.164
-549.354	10.095	-0.073	-0.056
-548.339	132.485	0.027	-0.035
-547.325	800.000	-0.080	0.242
-546.310	-200.000	0.024	0.387
-545.296	55.802	0.175	0.171
-544.281	31.753	0.317	0.275
-543.266	210.990	0.113	0.179
-542.252	-200.000	0.005	0.043
-541.237	-34.965	-0.126	0.069
-540.223	70.692	-0.077	0.081
-539.208	-200.000	-0.058	-0.337
-538.193	-9.885	0.160	0.107
-537.179	2.579	0.341	-0.249
-536.164	-129.636	0.075	-0.010
-535.150	800.000	0.034	0.118
-534.135	350.617	0.127	0.253
-533.121	-122.596	0.097	-0.016
-532.106	11.059	-0.163	-0.125
-531.091	66.169	0.192	-0.196
-530.077	-200.000	0.013	0.214
-529.062	-33.650	0.161	-0.090
-528.048	-102.809	-0.448	0.107
-527.033	800.000	-0.043	-0.166
-526.018	800.000	0.020	-0.061
-525.004	121.133	0.060	0.075
-523.989	800.000	-0.025	-0.075
-522.975	510.840	0.102	0.238
-521.960	-200.000	0.004	0.064
-520.945	-200.000	-0.035	0.170
-519.931	-67.634	-0.231	-0.091
-518.916	-200.000	0.021	0.467
-517.902	96.856	-0.148	0.171
-516.887	316.408	0.093	-0.178
-515.872	632.293	0.137	-0.348
-514.858	13.620	-0.239	0.187
-513.843	800.000	-0.099	0.382
-512.829	311.734	0.019	-0.036
-511.814	-200.000	-0.049	-0.314
-510.799	297.935	0.020	0.038
-509.785	184.187	-0.067	-0.100
-508.770	-83.852	-0.388	-0.124
-507.756	-200.000	0.015	0.341
-506.741	-60.410	0.461	-0.197
-505.726	800.000	-0.041	0.131
-504.712	800.000	-0.057	-0.221
-503.697	800.000	-0.139	0.512
-502.683	800.000	-0.041	-0.159
-501.668	114.796	0.139	-0.170
-500.653	18.535	0.103	0.083
-499.639	-200.000	-0.032	0.246
-498.624	-200.000	-0.037	-0.231
-497.610	-96.404	-0.145	-0.039
-496.595	-175.894	-0.333	-0.009
-495.581	-200.000	-0.026	0.126
-494.566	-50.218	-0.234	-0.111
-493.551	-200.000	-0.002	0.125
-492.537	696.587	-0.029	0.076
-491.522	93.411	-0.152	0.173
-490.508	-68.224	-0.194	0.076
-489.493	289.198	-0.127	-0.232
-488.478	-200.000	0.024	-0.522
-487.464	800.000	-0.019	-0.054
-486.449	521.723	0.064	0.150
-485.435	-96.357	-0.302	-0.080
-484.420	-22.428	-0.046	-0.028
-483.405	800.000	0.010	0.029
-482.391	-126.296	-0.324	0.049
-481.376	333.467	0.202	0.393
-480.362	-105.751	0.070	-0.016
-479.347	800.000	-0.029	0.083
-478.332	52.978	-0.103	0.099
-477.318	48.723	-0.122	-0.115
-476.303	-48.609	0.055	0.026
-475.289	771.532	-0.048	-0.133
-474.274	800.000	-0.020	-0.068
-473.259	361.070	0.062	-0.124
-472.245	189.603	-0.127	-0.191
-471.230	448.275	0.037	-0.083
-470.216	-79.736	0.068	-0.023
-469.201	-200.000	-0.012	0.302
-468.186	-200.000	-0.009	0.088
-467.172	-18.335	0.177	-0.111
-466.157	-111.607	0.437	0.089
-465.143	60.027	-0.086	-0.085
-464.128	62.220	-0.151	0.151
-463.113	800.000	-0.022	0.090
-462.099	800.000	0.029	0.123
-461.084	-103.395	0.258	-0.061
-460.070	138.548	-0.061	-0.080
-459.055	-115.485	0.025	-0.005
-458.040	-20.597	0.208	0.128
-457.026	63.256	-0.084	-0.084
-456.011	-104.609	0.153	-0.035
-454.997	-200.000	-0.042	-0.247
-453.982	-174.786	-0.146	0.004
-452.968	-67.548	0.038	0.015
-451.953	425.321	0.028	0.060
-450.938	-130.805	0.154	0.021
-449.924	800.000	-0.057	0.231
-448.909	-200.000	-0.008	0.204
-447.895	-200.000	0.007	0.035
-446.880	-149.981	-0.178	0.014
-445.865	-200.000	0.009	0.105
-444.851	546.274	-0.072	-0.174
-443.836	134.303	0.117	0.152
-442.822	-200.000	0.053	-0.253
-441.807	-116.624	0.154	0.028
-440.792	-200.000	-0.015	0.549
-439.778	324.879	0.179	-0.344
-438.763	800.000	0.025	-0.106
-437.749	142.236	0.196	-0.261
-436.734	50.409	0.247	0.234
-435.719	27.673	0.107	-0.091
-434.705	26.496	0.233	-0.195
-433.690	-149.941	0.218	-0.017
-432.676	99.843	-0.085	0.099
-431.661	-15.000	0.102	0.066
-430.646	-10.446	0.227	-0.151
-429.632	-18.524	0.130	-0.081
-428.617	89.913	-0.225	-0.252
-427.603	-200.000	-0.087	-0.392
-426.588	-164.651	0.372	0.017
-425.573	-200.000	0.040	-0.317
-424.559	-44.136	0.159	-0.080
-423.544	-156.343	-0.024	-0.001
-422.530	254.672	-0.054	-0.092
-421.515	-78.288	-0.218	0.075
-420.500	38.531	-0.235	0.210
-419.486	-92.056	0.125	0.035
-418.471	-200.000	-0.014	0.106
-417.457	-0.344	0.026	0.019
-416.442	-81.938	0.182	0.060
-415.428	-168.105	-0.209	0.008
-414.413	-200.000	-0.032	0.209
-413.398	-200.000	-0.015	-0.077
-412.384	9.424	0.215	0.163
-411.369	152.674	0.019	-0.026
-410.355	-143.418	0.095	-0.009
-409.340	126.880	0.040	-0.051
-408.325	-131.363	0.082	-0.011
-407.311	-162.577	-0.018	0.001
-406.296	46.189	-0.213	0.198
-405.282	-85.770	0.225	0.070
-404.267	800.000	-0.121	-0.398
-403.252	-114.068	-0.209	0.041
-402.238	-93.203	-0.347	-0.097
-401.223	-73.514	0.325	-0.119
-400.209	-200.000	0.040	0.442
-399.194	-103.007	-0.254	0.060
-398.179	3.417	0.208	-0.152
-397.165	262.232	0.226	0.393
-396.150	102.337	-0.033	-0.038
-395.136	-96.019	-0.157	-0.042
-394.121	-17.567	-0.373	-0.235
-393.106	13.787	0.066	0.051
-392.092	280.223	-0.182	0.326
-391.077	-200.000	0.020	-0.174
-390.063	-200.000	-0.023	-0.122
-389.048	-109.859	-0.322	-0.068
-388.033	266.242	-0.094	0.164
-387.019	800.000	-0.071	0.269
-386.004	-200.000	0.021	-0.335
-384.990	-42.326	0.123	0.063
-383.975	-126.599	0.145	-0.022
-382.960	-200.000	-0.009	0.334
-381.946	65.551	0.146	0.148
-380.931	-146.607	-0.384	0.033
-379.917	-160.860	0.173	0.009
-378.902	-76.976	-0.152	0.053
-377.888	-26.034	0.364	-0.214
-376.873	-200.000	-0.060	-0.322
-375.858	800.000	0.032	0.112
-374.844	-200.000	-0.001	-0.054
-373.829	36.080	0.073	-0.064
-372.815	617.293	-0.130	0.325
-371.800	-118.912	-0.304	-0.053
-370.785	-200.000	-0.015	-0.084
-369.771	-22.289	-0.297	-0.180
-368.756	287.992	-0.062	0.111
-367.742	334.615	0.048	0.093
-366.727	-77.440	-0.377	-0.131
-365.712	-200.000	0.058	0.390
-364.698	-173.752	0.205	-0.006
-363.683	-13.114	0.190	-0.123
-362.669	-200.000	-0.007	0.112
-361.654	232.750	-0.063	-0.103
-360.639	-101.049	0.153	0.038
-359.625	-54.372	-0.332	0.151
-358.610	453.284	0.156	-0.346
-357.596	-20.637	0.323	-0.199
-356.581	800.000	0.053	0.206
-355.566	49.292	-0.234	0.220
-354.552	-109.999	0.080	-0.017
-353.537	-29.725	0.277	0.158
-352.523	75.918	0.252	0.267
-351.508	-14.307	0.372	0.240
-350.493	322.791	-0.053	0.100
-349.479	800.000	0.135	-0.428
-348.464	43.829	0.075	0.068
-347.450	-3.889	0.224	0.155
-346.435	-161.686	0.125	0.006
-345.420	97.001	-0.250	-0.287
-344.406	-200.000	0.197	0.001
-343.391	-5.785	0.111	0.076
-342.377	139.244	-0.119	-0.157
-341.362	-8.110	0.068	0.046
-340.348	176.824	0.037	-0.053
-339.333	800.000	0.068	0.200
-338.318	666.365	0.062	0.159
-337.304	-160.594	-0.155	0.008
-336.289	-114.175	-0.246	-0.048
-335.275	694.357	-0.115	-0.301
-334.260	-154.392	-0.341	-0.023
-333.245	-200.000	-0.048	-0.322
-332.231	-200.000	-0.055	-0.293
-331.216	183.287	0.083	-0.122
-330.202	573.153	0.085	-0.206
-329.187	800.000	-0.030	0.089
-328.172	-74.889	-0.131	0.047
-327.158	-4.261	0.219	0.151
-326.143	325.292	0.138	0.264
-325.129	795.596	0.019	0.052
-324.114	-125.568	0.236	0.036
-323.099	607.874	-0.070	0.173
-322.085	-200.000	0.009	-0.155
-321.070	-143.080	0.287	-0.028
-320.056	406.923	-0.174	0.367
-319.041	800.000	-0.093	0.353
-318.026	800.000	0.083	-0.307
-317.012	-74.851	-0.412	-0.148
-315.997	-40.806	-0.407	0.210
-314.983	-122.563	0.097	-0.016
-313.968	404.812	-0.026	0.056
-312.953	144.619	-0.335	0.447
-311.939	800.000	0.073	0.265
-310.924	-133.624	-0.092	0.012
-309.910	-105.274	0.228	0.052
-308.895	-66.614	-0.279	0.111
-307.880	99.902	0.039	-0.045
-306.866	406.362	0.073	-0.153
-305.851	-82.834	0.085	0.027
-304.837	237.099	0.218	0.360
-303.822	80.667	0.266	0.286
-302.807	24.040	-0.167	-0.137
-301.793	-102.369	0.213	0.051
-300.778	230.021	0.193	0.314
-299.764	-56.646	-0.334	-0.148
-298.749	-25.089	-0.033	-0.020
-297.735	71.340	0.175	-0.181
-296.720	-71.957	0.161	0.060
-295.705	-58.353	0.261	0.113
-294.691	37.029	-0.026	-0.023
-293.676	-200.000	-0.100	0.000
-292.662	137.204	0.127	-0.165
-291.647	800.000	-0.136	0.399
-290.632	-36.015	0.324	-0.174
-289.618	-69.649	-0.163	-0.062
-288.603	282.279	-0.141	-0.251
-287.589	-200.000	0.026	0.220
-286.574	176.902	-0.041	-0.060
-285.559	-200.000	0.053	0.237
-284.545	722.367	-0.091	-0.241
-283.530	63.400	-0.201	-0.201
-282.516	-200.000	0.014	-0.115
-281.501	40.191	-0.183	-0.165
-280.486	76.748	0.084	-0.089
-279.472	125.106	-0.300	0.377
-278.457	-151.861	-0.224	-0.016
-277.443	-157.081	0.181	0.011
-276.428	-27.632	0.400	0.232
-275.413	215.742	0.074	0.117
-274.399	198.842	-0.178	-0.271
-273.384	-17.777	0.310	0.194
-272.370	800.000	0.047	0.146
-271.355	771.886	-0.102	-0.276
-270.340	8.754	-0.127	-0.095
-269.326	-200.000	0.006	0.048
-268.311	-146.692	-0.292	0.025
-267.297	-156.267	0.268	0.017
-266.282	-48.443	0.092	-0.044
-265.267	-49.490	-0.071	0.034
-264.253	-132.452	0.251	0.032
-263.238	187.124	-0.043	0.063
-262.224	-200.000	-0.051	-0.240
-261.209	401.622	0.140	0.292
-260.195	-200.000	-0.024	-0.211
-259.180	800.000	0.036	-0.130
-258.165	-200.000	0.019	-0.170
-257.151	-200.000	-0.006	-0.067
-256.136	302.739	0.262	-0.484
-255.122	800.000	0.032	0.130
-254.107	59.409	-0.314	0.308
-253.092	324.379	-0.145	-0.276
-252.078	800.000	0.144	-0.427
-251.063	-121.212	0.176	0.029
-250.049	800.000	0.118	-0.332
-249.034	35.414	0.178	-0.156
-248.019	8.319	0.134	0.100
-247.005	-56.362	0.165	0.073
-245.990	800.000	0.027	0.118
-244.976	-200.000	-0.012	0.054
-243.961	303.005	-0.095	0.175
-242.946	45.053	-0.159	0.146
-241.932	-179.218	0.172	0.004
-240.917	-187.522	-0.212	0.003
-239.903	-134.847	0.194	0.023
-238.888	-200.000	0.022	-0.150
-237.873	47.272	-0.245	-0.227
-236.859	-200.000	-0.005	0.325
-235.844	539.987	0.073	-0.173
-234.830	24.711	0.053	-0.043
-233.815	586.106	-0.074	-0.180
-232.800	554.311	-0.029	0.070
-231.786	192.377	0.049	0.073
-230.771	268.636	-0.063	-0.110
-229.757	800.000	-0.067	0.219
-228.742	47.523	0.075	-0.069
-227.727	47.204	-0.178	-0.165
-226.713	-107.876	-0.283	0.061
-225.698	-200.000	-0.002	0.174
-224.684	2.834	-0.177	-0.128
-223.669	44.246	-0.138	0.126
-222.655	-114.720	-0.161	0.031
-221.640	800.000	-0.035	0.114
-220.625	138.087	-0.151	0.197
-219.611	-115.065	0.058	0.011
-218.596	-39.605	0.113	0.059
-217.582	231.713	-0.031	-0.051
-216.567	31.222	0.106	-0.090
-215.552	195.913	-0.173	0.262
-214.538	-92.228	0.075	-0.021
-213.523	144.461	-0.125	0.167
-212.509	-82.935	0.371	0.119
-211.494	-200.000	0.011	0.063
-210.479	-122.745	-0.187	-0.030
-209.465	-200.000	0.030	0.141
-208.450	42.240	0.084	0.076
-207.436	-168.941	-0.310	0.012
-206.421	72.964	0.133	-0.138
-205.406	-41.564	0.133	0.068
-204.392	-12.908	0.147	0.095
-203.377	-112.919	0.412	0.081
-202.363	143.203	-0.127	0.167
-201.348	-114.085	-0.051	0.010
-200.333	-200.000	0.016	-0.119
-199.319	133.619	-0.184	-0.236
-198.304	800.000	-0.085	-0.241
-197.290	94.633	0.175	0.198
-196.275	-97.582	0.281	-0.072
-195.260	-51.123	0.218	-0.101
-194.246	219.277	0.176	-0.279
-193.231	-156.208	-0.030	0.002
-192.217	64.605	-0.180	-0.180
-191.202	800.000	0.051	0.196
-190.187	-89.983	-0.226	-0.066
-189.173	-147.782	0.180	0.015
-188.158	73.736	0.197	-0.205
-187.144	-51.827	0.132	0.061
-186.129	-200.000	-0.047	0.337
-185.114	-123.903	-0.244	0.038
-184.100	-20.208	-0.105	0.064
-183.085	11.883	-0.397	0.303
-182.071	92.717	-0.099	0.111
-181.056	779.252	-0.038	-0.103
-180.042	534.083	-0.075	0.177
-179.027	-158.248	0.211	-0.012
-178.012	-200.000	0.036	0.214
-176.998	-200.000	0.025	0.267
-175.983	-200.000	0.041	0.216
-174.969	-160.928	-0.316	-0.017
-173.954	70.624	0.389	-0.400
-172.939	-200.000	0.001	-0.224
-171.925	-140.204	-0.012	-0.001
-170.910	-37.690	0.217	-0.115
-169.896	-72.495	-0.072	-0.026
-168.881	59.495	0.123	0.121
-167.866	-92.770	-0.373	-0.104
-166.852	800.000	0.108	0.391
-165.837	415.651	0.145	0.306
-164.823	-41.362	-0.045	0.023
-163.808	-48.687	-0.197	-0.094
-162.793	63.091	0.172	0.171
-161.779	18.283	-0.191	0.152
-160.764	173.720	0.079	-0.113
-159.750	460.395	-0.073	-0.161
-158.735	520.385	0.091	-0.212
-157.720	122.894	-0.166	-0.207
-156.706	73.736	0.192	-0.200
-155.691	800.000	-0.082	-0.296
-154.677	-200.000	-0.034	-0.262
-153.662	-5.857	-0.045	0.030
-152.647	35.779	0.224	0.195
-151.633	7.212	0.262	-0.194
-150.618	15.296	-0.087	-0.068
-149.604	5.994	-0.196	0.144
-148.589	-122.640	0.186	0.030
-147.574	-18.654	-0.097	-0.060
-146.560	313.496	-0.066	-0.123
-145.545	260.413	0.034	-0.058
-144.531	-90.497	0.280	-0.080
-143.516	-88.219	0.218	-0.065
-142.502	-200.000	0.031	0.512
-141.487	-200.000	-0.039	0.282
-140.472	-200.000	-0.049	-0.434
-139.458	-200.000	0.021	-0.271
-138.443	800.000	-0.032	-0.127
-137.429	-84.341	-0.422	0.132
-136.414	-5.740	0.137	-0.093
-135.399	63.221	-0.133	-0.132
-134.385	-55.445	-0.295	-0.131
-133.370	-200.000	0.009	-0.118
-132.356	364.491	0.103	-0.204
-131.341	-200.000	0.048	-0.394
-130.326	800.000	0.069	-0.252
-129.312	800.000	-0.049	-0.180
-128.297	167.741	-0.181	0.256
-127.283	230.689	-0.204	0.331
-126.268	79.491	0.183	-0.194
-125.253	162.834	0.103	0.144
-124.239	-200.000	0.053	0.264
-123.224	36.096	-0.231	0.201
-122.210	-200.000	-0.020	-0.261
-121.195	-18.141	-0.221	-0.137
-120.180	-69.179	0.362	0.138
-119.166	-83.134	0.268	0.085
-118.151	-3.000	-0.097	0.067
-117.137	248.972	-0.158	0.265
-116.122	-134.147	-0.275	0.034
-115.107	-200.000	-0.066	-0.297
-114.093	-9.531	-0.072	-0.047
-113.078	-147.286	0.220	0.019
-112.064	-7.739	0.181	0.121
-111.049	-151.559	0.462	-0.034
-110.034	-16.641	0.414	0.260
-109.020	297.376	-0.202	-0.367
-108.005	-9.393	0.275	0.182
-106.991	800.000	0.119	0.489
-105.976	125.010	0.070	-0.087
-104.962	-124.118	-0.167	0.026
-103.947	-68.088	0.243	0.094
-102.932	800.000	-0.036	0.132
-101.918	800.000	0.046	0.158
-100.903	-200.000	0.010	-0.141
-99.889	169.101	0.084	0.119
-98.874	-200.000	-0.010	0.397
-97.859	-61.778	0.227	-0.094
-96.845	116.094	-0.176	-0.213
-95.830	800.000	-0.104	-0.341
-94.816	-142.459	-0.378	-0.037
-93.801	58.894	-0.144	0.140
-92.786	-184.720	0.244	-0.004
-91.772	-50.711	0.157	-0.073
-90.757	-126.833	0.198	-0.029
-89.743	151.489	0.062	-0.083
-88.728	-70.750	-0.209	0.078
-87.713	-88.784	-0.028	0.008
-86.699	1.489	-0.097	-0.069
-85.684	-200.000	-0.051	0.269
-84.670	10.178	0.113	-0.085
-83.655	-200.000	-0.017	0.110
-82.640	83.893	-0.119	0.129
-81.626	391.473	0.027	0.055
-80.611	383.604	-0.162	-0.329
-79.597	-55.120	0.378	-0.168
-78.582	-135.879	0.387	0.045
-77.567	266.930	0.214	-0.370
-76.553	-200.000	-0.026	-0.125
-75.538	-24.186	0.125	0.074
-74.524	-131.394	-0.409	-0.053
-73.509	-85.093	-0.393	-0.122
-72.494	-57.917	-0.097	0.042
-71.480	19.458	-0.113	-0.090
-70.465	-56.568	-0.238	-0.104
-69.451	800.000	0.063	-0.236
-68.436	-129.907	0.146	-0.020
-67.422	-44.563	-0.198	0.098
-66.407	-68.377	0.247	0.095
-65.392	42.608	-0.100	-0.090
-64.378	101.489	0.073	0.084
-63.363	281.259	0.142	0.252
-62.349	-167.057	0.151	-0.006
-61.334	-13.905	-1.003	-0.641
-60.319	-103.044	0.572	0.134
-59.305	800.000	-0.326	-0.954
-58.290	536.432	0.512	1.201
-57.276	735.448	0.675	1.789
-56.261	-200.000	95.354	544.111
-55.246	519.560	1397.587	3236.724
-54.232	148.634	2615.148	3492.432
-53.217	110.861	2211.425	2630.437
-52.203	45.581	1655.678	1511.384
-51.188	37.458	1387.045	1215.598
-50.173	34.321	1343.293	1158.177
-49.159	53.698	1391.361	1320.013
-48.144	57.021	1408.812	1357.092
-47.130	37.804	1364.453	1197.737
-46.115	34.318	1346.220	1160.498
-45.100	34.141	1341.611	1155.403
-44.086	34.086	1338.602	1152.435
-43.071	34.019	1336.986	1150.590
-42.057	33.995	1334.449	1148.217
-41.042	34.054	1333.005	1147.284
-40.027	33.988	1331.368	1145.432
-39.013	34.049	1329.264	1143.942
-37.998	33.993	1327.921	1142.404
-36.984	34.132	1325.554	1141.157
-35.969	34.210	1323.737	1140.017
-34.954	34.243	1321.987	1138.658
-33.940	34.272	1320.819	1137.784
-32.925	34.209	1319.569	1136.284
-31.911	34.278	1317.805	1135.132
-30.896	34.369	1316.279	1134.314
-29.881	34.258	1315.121	1132.608
-28.867	34.264	1313.777	1131.441
-27.852	34.356	1312.360	1130.723
-26.838	34.274	1310.881	1128.919
-25.823	34.209	1309.638	1127.421
-24.809	34.192	1308.140	1125.983
-23.794	34.331	1306.764	1125.576
-22.779	34.235	1305.453	1123.833
-21.765	34.246	1304.087	1122.678
-20.750	34.179	1302.722	1121.065
-19.736	34.199	1301.043	1119.693
-18.721	34.048	1300.498	1118.293
-17.706	34.162	1299.007	1117.638
-16.692	34.181	1297.258	1116.196
-15.677	34.037	1296.794	1114.911
-14.663	34.117	1295.553	1114.265
-13.648	34.125	1294.188	1113.095
-12.633	34.208	1293.335	1112.802
-11.619	34.035	1292.606	1111.120
-10.604	34.091	1292.223	1111.078
-9.590	34.098	1290.688	1109.754
-8.575	34.140	1289.609	1109.025
-7.560	34.116	1288.876	1108.209
-6.546	34.102	1288.288	1107.578
-5.531	34.120	1287.040	1106.566
-4.517	34.113	1285.822	1105.436
-3.502	34.085	1285.357	1104.830
-2.487	34.063	1284.414	1103.847
-1.473	34.271	1280.463	1101.611
-0.458	33.302	1266.013	1083.590
0.556	28.576	1248.661	1047.230
1.571	24.546	1254.431	1028.813
2.586	23.260	1269.508	1033.589
3.600	22.252	1258.305	1018.538
4.615	16.263	1181.449	923.575
5.629	5.928	1099.909	806.862
6.644	0.786	1077.612	764.488
7.659	0.403	1074.935	760.594
8.673	0.267	1074.053	759.218
9.688	0.215	1072.644	757.893
10.702	0.630	1070.927	758.696
11.717	6.347	1079.376	793.491
12.731	15.420	1091.538	848.426
13.746	18.422	1094.122	865.545
14.761	17.278	1092.065	858.070
15.775	16.262	1089.972	851.229
16.790	15.282	1087.961	844.650
17.804	14.594	1086.224	839.765
18.819	14.219	1085.485	837.235
19.834	13.920	1084.024	834.528
20.848	13.603	1083.081	832.138
21.863	13.340	1082.525	830.316
22.877	13.275	1081.223	828.920
23.892	13.092	1081.000	827.760
24.907	13.168	1079.807	827.153
25.921	13.291	1079.113	827.164
26.936	13.272	1078.564	826.574
27.950	13.242	1077.742	825.720
28.965	13.416	1076.479	825.549
29.980	13.432	1075.347	824.687
30.994	13.509	1074.075	824.019
32.009	13.473	1073.142	823.053
33.023	13.507	1072.043	822.305
34.038	13.284	1071.295	820.554
35.053	13.429	1070.029	820.227
36.067	13.300	1069.341	818.991
37.082	13.433	1068.214	818.714
38.096	13.545	1067.559	818.693
39.111	13.321	1067.209	817.242
40.126	13.324	1066.091	816.333
41.140	13.136	1064.879	814.406
42.155	13.267	1063.654	814.040
43.169	13.292	1062.300	813.055
44.184	13.284	1061.341	812.211
45.199	13.213	1060.412	811.080
46.213	13.274	1059.305	810.460
47.228	13.314	1058.388	809.881
48.242	13.285	1057.127	808.704
49.257	13.413	1056.099	808.470
50.271	13.449	1055.353	808.005
51.286	13.519	1054.240	807.423
52.301	13.407	1053.351	806.124
53.315	13.271	1052.461	804.709
54.330	13.284	1051.372	803.869
55.344	13.254	1050.576	803.042
56.359	13.295	1049.880	802.640
57.374	13.210	1048.746	801.289
58.388	13.192	1048.137	800.668
59.403	13.221	1047.326	800.115
60.417	13.203	1045.963	798.918
61.432	13.170	1045.664	798.458
62.447	13.169	1044.909	797.805
63.461	13.188	1043.748	796.940
64.476	13.130	1043.163	796.141
65.490	13.219	1041.766	795.434
66.505	13.194	1041.219	794.828
67.520	13.313	1040.593	794.850
68.534	13.291	1039.778	794.054
69.549	13.233	1039.354	793.382
70.563	13.143	1038.469	792.203
71.578	13.114	1037.427	791.198
72.593	13.138	1036.766	790.740
73.607	13.128	1036.361	790.313
74.622	13.122	1035.741	789.741
75.636	13.156	1034.737	789.068
76.651	13.129	1034.263	788.508
77.666	13.104	1033.650	787.851
78.680	13.091	1032.837	787.102
79.695	13.142	1032.149	786.749
80.709	13.172	1031.904	786.634
81.724	13.330	1030.663	786.370
82.739	13.192	1030.543	785.555
83.753	13.249	1029.595	785.033
84.768	13.346	1028.313	784.444
85.782	13.537	1027.166	784.408
86.797	13.428	1026.566	783.363
87.812	13.220	1026.178	782.015
88.826	13.330	1024.612	781.271
89.841	13.400	1023.771	780.892
90.855	13.340	1023.246	780.137
91.870	13.391	1021.967	779.332
92.884	13.416	1021.259	778.844
93.899	13.496	1020.407	778.502
94.914	13.517	1019.771	778.046
95.928	13.426	1018.912	776.894
96.943	13.405	1017.895	775.953
97.957	13.468	1016.896	775.418
98.972	13.553	1016.275	775.273
99.987	13.385	1015.350	773.713
101.001	13.306	1014.570	772.678
102.016	13.407	1013.375	772.170
103.030	13.511	1012.447	771.880
104.045	13.399	1011.991	770.946
105.060	13.446	1011.006	770.343
106.074	13.305	1010.319	769.095
107.089	13.214	1009.527	768.004
108.103	13.251	1007.792	766.787
109.118	13.282	1007.547	766.678
110.133	13.221	1006.651	765.645
111.147	13.257	1005.769	765.074
112.162	13.248	1004.442	763.954
113.176	13.313	1004.129	763.948
114.191	13.368	1003.267	763.479
115.206	13.395	1002.146	762.681
116.220	13.335	1001.395	761.765
117.235	13.336	1000.469	761.001
118.249	13.369	999.667	760.474
119.264	13.348	998.944	759.759
120.279	13.353	998.216	759.163
121.293	13.404	997.182	758.541
122.308	13.362	996.554	757.806
123.322	13.253	995.543	756.473
124.337	13.378	994.340	756.063
125.352	13.361	993.234	755.074
126.366	13.377	991.738	753.944
127.381	13.316	991.408	753.351
128.395	13.401	990.099	752.675
129.410	13.286	989.683	751.766
130.424	13.367	988.238	750.975
131.439	13.535	987.509	751.114
132.454	13.451	987.067	750.330
133.468	13.433	985.947	749.333
134.483	13.408	985.012	748.444
135.497	13.383	984.119	747.583
136.512	13.494	983.610	747.631
137.527	13.399	982.549	746.332
138.541	13.492	981.836	746.141
139.556	13.562	980.991	745.750
140.570	13.451	980.643	744.919
141.585	13.564	979.481	744.477
142.600	13.614	978.849	744.159
143.614	13.682	977.762	743.568
144.629	13.656	976.767	742.630
145.643	13.640	976.038	741.939
146.658	13.583	974.914	740.762
147.673	13.464	974.152	739.590
148.687	13.430	973.505	738.878
149.702	13.482	972.478	738.265
150.716	13.379	971.438	736.956
151.731	13.481	970.916	736.947
152.746	13.523	970.080	736.432
153.760	13.494	969.802	736.028
154.775	13.715	969.242	736.517
155.789	13.618	968.407	735.391
156.804	13.609	967.631	734.694
157.819	13.556	967.122	734.009
158.833	13.679	966.282	733.852
159.848	13.831	965.324	733.729
160.862	13.874	963.919	732.787
161.877	13.721	963.300	731.576
162.892	13.522	962.641	730.137
163.906	13.579	961.869	729.736
164.921	13.635	960.469	728.856
165.935	13.837	959.506	728.946
166.950	13.725	958.623	727.721
167.964	13.724	957.986	727.170
168.979	13.703	956.614	725.971
169.994	13.680	956.438	725.672
171.008	13.618	955.946	724.965
172.023	13.776	954.902	724.797
173.037	13.831	953.979	724.272
174.052	13.773	953.508	723.599
175.067	13.664	952.815	722.535
176.081	13.706	952.132	722.136
177.096	13.689	951.910	721.828
178.110	13.877	951.019	721.907
179.125	13.670	950.559	720.595
180.140	13.662	950.370	720.353
181.154	13.877	949.410	720.494
182.169	13.935	948.784	720.207
183.183	13.910	948.528	719.840
184.198	13.980	947.430	719.248
185.213	14.003	946.537	718.603
186.227	13.898	946.287	717.898
187.242	13.931	945.779	717.591
188.256	14.008	944.611	716.974
189.271	14.016	944.040	716.511
190.286	13.828	943.381	715.139
191.300	13.779	942.735	714.374
192.315	13.865	941.757	713.938
193.329	13.832	941.289	713.377
194.344	13.780	941.255	713.068
195.359	13.982	940.404	713.226
196.373	13.937	939.706	712.439
197.388	14.113	939.224	712.766
198.402	14.155	938.525	712.353
199.417	14.195	937.889	711.978
200.432	14.205	937.219	711.448
201.446	14.180	936.982	711.101
202.461	14.210	936.224	710.589
203.475	14.248	935.631	710.240
204.490	14.020	935.555	709.145
205.504	14.129	934.123	708.463
206.519	14.146	933.748	708.186
207.534	14.195	932.577	707.445
208.548	14.194	932.113	707.027
209.563	14.213	931.266	706.402
210.577	14.307	930.497	706.155
211.592	14.311	929.802	705.581
212.607	14.472	928.909	705.520
213.621	14.413	928.104	704.600
214.636	14.298	927.704	703.748
215.650	14.366	927.339	703.694
216.665	14.399	926.530	703.157
217.680	14.419	925.488	702.389
218.694	14.506	924.998	702.320
219.709	14.359	924.444	701.222
220.723	14.416	923.867	700.959
221.738	14.544	922.711	700.558
222.753	14.520	922.421	700.176
223.767	14.331	922.591	699.451
224.782	14.649	921.446	699.855
225.796	14.601	920.706	699.028
226.811	14.728	919.519	698.597
227.826	14.456	919.245	697.189
228.840	14.523	918.467	696.817
229.855	14.643	917.582	696.586
230.869	14.624	916.365	695.520
231.884	14.515	916.274	694.936
232.899	14.525	915.162	694.073
233.913	14.506	914.683	693.570
234.928	14.505	914.157	693.105
235.942	14.546	913.378	692.622
236.957	14.682	912.765	692.658
237.972	14.510	912.356	691.575
238.986	14.556	911.859	691.330
240.001	14.508	911.099	690.493
241.015	14.692	910.391	690.657
242.030	14.553	910.026	689.742
243.045	14.615	908.986	689.149
244.059	14.605	908.659	688.799
245.074	14.603	908.158	688.350
246.088	14.752	907.023	688.043
247.103	14.704	906.767	687.590
248.117	14.873	905.999	687.641
249.132	14.744	905.834	686.926
250.147	14.821	905.262	686.748
251.161	14.966	904.012	686.335
252.176	15.029	903.623	686.234
253.190	15.057	903.233	685.993
254.205	15.047	902.378	685.241
255.220	15.070	901.664	684.732
256.234	15.009	900.971	683.896
257.249	15.120	900.421	683.874
258.263	15.071	899.378	682.821
259.278	15.074	898.903	682.410
260.293	14.987	898.428	681.637
261.307	15.086	897.543	681.307
262.322	15.141	896.938	681.013
263.336	15.162	896.762	680.904
264.351	15.141	895.729	679.972
265.366	15.102	895.257	679.396
266.380	15.218	894.688	679.373
267.395	15.285	893.388	678.600
268.409	15.299	892.727	678.092
269.424	15.250	892.340	677.540
270.439	15.218	891.631	676.815
271.453	15.252	890.824	676.278
272.468	15.192	890.219	675.516
273.482	15.250	889.630	675.246
274.497	15.271	888.914	674.727
275.512	15.311	888.278	674.343
276.526	15.357	888.054	674.298
277.541	15.272	887.554	673.517
278.555	15.413	886.898	673.526
279.570	15.427	886.381	673.129
280.585	15.350	885.519	672.108
281.599	15.481	884.224	671.589
282.614	15.491	883.574	671.078
283.628	15.395	883.489	670.570
284.643	15.450	882.584	670.044
285.657	15.413	882.199	669.543
286.672	15.429	881.430	668.966
287.687	15.458	880.682	668.452
288.701	15.513	880.087	668.160
289.716	15.517	879.516	667.686
290.730	15.517	878.831	667.105
291.745	15.576	878.487	667.021
292.760	15.687	877.594	666.722
293.774	15.578	877.289	666.001
294.789	15.568	876.405	665.229
295.803	15.669	875.997	665.261
296.818	15.676	875.129	664.572
297.833	15.603	874.315	663.607
298.847	15.655	873.741	663.318
299.862	15.688	873.276	663.036
300.876	15.759	872.900	662.969
301.891	15.665	872.305	662.089
302.906	15.744	872.133	662.212
303.920	15.832	871.471	661.998
304.935	15.812	871.027	661.521
305.949	15.824	870.171	660.861
306.964	15.814	869.386	660.165
307.979	15.774	869.027	659.677
308.993	15.850	868.316	659.378
310.008	15.805	867.716	658.690
311.022	15.790	867.138	658.131
312.037	15.990	866.078	658.051
313.052	15.890	865.838	657.419
314.066	15.922	865.092	656.921
315.081	15.946	864.460	656.477
316.095	15.933	863.872	655.919
317.110	15.828	863.512	655.182
318.125	15.816	863.196	654.837
319.139	15.935	862.392	654.630
320.154	15.910	862.183	654.315
321.168	16.130	861.045	654.248
322.183	16.069	860.570	653.594
323.197	16.044	860.347	653.271
324.212	15.918	860.031	652.484
325.227	16.046	858.992	652.132
326.241	15.993	858.824	651.741
327.256	16.046	858.247	651.451
328.270	16.040	857.242	650.609
329.285	16.014	856.838	650.145
330.300	15.894	856.605	649.447
331.314	15.917	856.316	649.257
332.329	16.073	855.640	649.290
333.343	16.158	855.115	649.163
334.358	16.109	854.616	648.538
335.373	16.081	854.108	647.986
336.387	16.175	854.022	648.226
337.402	16.172	853.781	647.971
338.416	16.163	853.448	647.630
339.431	16.362	852.791	647.835
340.446	16.355	852.370	647.430
341.460	16.453	852.049	647.508
342.475	16.306	851.659	646.589
343.489	16.314	850.918	646.001
344.504	16.380	850.646	645.988
345.519	16.423	850.078	645.666
346.533	16.562	849.175	645.453
347.548	16.384	848.968	644.557
348.562	16.358	848.518	644.062
349.577	16.343	848.033	643.579
350.592	16.319	847.303	642.875
351.606	16.363	846.493	642.372
352.621	16.499	845.668	642.206
353.635	16.541	844.891	641.720
354.650	16.589	844.437	641.497
355.665	16.395	843.870	640.277
356.679	16.465	843.291	640.044
357.694	16.477	842.526	639.455
358.708	16.447	841.983	638.871
359.723	16.535	841.707	638.939
360.738	16.488	841.421	638.487
361.752	16.582	840.415	638.021
362.767	16.680	839.647	637.753
363.781	16.607	839.284	637.145
364.796	16.718	838.581	636.973
365.810	16.884	838.272	637.304
366.825	16.925	838.132	637.294
367.840	16.769	837.265	635.993
368.854	16.758	836.749	635.504
369.869	16.817	836.220	635.270
370.883	16.746	836.302	635.007
371.898	16.909	835.927	635.279
372.913	16.879	835.329	634.655
373.927	16.855	834.660	634.002
374.942	16.797	834.387	633.521
375.956	16.944	834.132	633.822
376.971	16.992	833.408	633.395
377.986	16.996	833.094	633.112
379.000	17.009	832.630	632.752
380.015	17.045	831.718	632.139
381.029	17.034	831.635	631.980
382.044	16.986	830.771	631.086
383.059	17.127	830.196	631.118
384.073	16.960	829.958	630.261
385.088	17.009	829.380	629.948
386.102	16.973	828.481	629.078
387.117	17.048	827.893	628.852
388.132	17.081	827.250	628.432
389.146	17.024	826.843	627.855
390.161	17.283	826.210	628.276
391.175	17.234	825.828	627.749
392.190	17.170	825.272	627.033
393.205	17.037	825.020	626.297
394.219	16.956	824.819	625.790
395.234	17.069	824.311	625.766
396.248	17.030	823.803	625.183
397.263	16.965	823.401	624.582
398.278	16.903	823.166	624.118
399.292	17.177	822.408	624.498
400.307	17.113	821.818	623.758
401.321	17.082	821.489	623.338
402.336	17.203	820.972	623.338
403.350	17.201	820.712	623.076
404.365	17.238	820.168	622.745
405.380	17.341	819.464	622.532
406.394	17.336	819.117	622.194
407.409	17.275	818.565	621.495
408.423	17.369	818.517	621.749
409.438	17.442	817.769	621.393
410.453	17.411	817.401	620.945
411.467	17.332	816.934	620.247
412.482	17.475	816.566	620.434
413.496	17.494	816.124	620.112
414.511	17.503	815.861	619.889
415.526	17.540	815.977	620.057
416.540	17.586	814.951	619.391
417.555	17.593	814.302	618.867
418.569	17.568	814.059	618.537
419.584	17.505	813.439	617.783
420.599	17.757	812.673	618.059
421.613	104.127	1285.373	1444.437
422.628	89.776	1354.216	1444.546
