DTS Sentinel unit serial number:	SN413079Multiplexer serial number:	ORYXHardware model number:	OX4-SRSoftware version number:	ORYX F/W v4.00 Oryx Data Collector v3.7.2.0data status	okinstallation	princeton_trtdifferential loss correction	single-endedforward channel	channel 1reverse channel	N/Adate	2019/09/13time	13:38:35forward acquisition time	60.00reverse acquisition time	0.00gamma	496.2192k internal	0.2303k external	0.2303temperature offset calibration	1.0162default loss term (dB/km)	0.3790temperature slope calibration	1.0000multiplexer offset coefficient	1.0000multiplexer slope coefficient	1.0000fibre end	0.00T internal ref (°C)	35.08T ext. ref 1 (°C)	4.57T ext. ref 2 (°C)	31.57length (m)	temperature (°C)	Stokes	anti-Stokes-747.200	-71.139	0.232	0.089
-746.185	-104.440	-0.135	-0.032
-745.171	400.631	-0.184	0.394
-744.156	-42.696	0.175	0.091
-743.142	-200.000	0.030	0.280
-742.127	-200.000	-0.034	-0.211
-741.112	499.585	0.084	0.197
-740.098	279.523	0.060	0.109
-739.083	-158.898	0.142	-0.008
-738.069	680.919	-0.033	0.086
-737.054	-100.374	0.197	0.050
-736.039	16.192	-0.270	0.217
-735.025	9.131	-0.112	0.086
-734.010	-70.421	-0.071	0.028
-732.996	-85.262	-0.128	-0.041
-731.981	171.932	0.179	-0.262
-730.966	800.000	0.031	0.098
-729.952	0.991	0.293	-0.214
-728.937	-165.033	-0.313	0.014
-727.923	101.133	0.042	-0.049
-726.908	-71.047	-0.089	-0.034
-725.894	-138.157	-0.324	0.037
-724.879	210.264	0.081	-0.130
-723.864	0.578	0.083	-0.060
-722.850	-200.000	0.068	-0.449
-721.835	104.999	-0.322	-0.387
-720.821	309.218	-0.073	-0.138
-719.806	-93.308	-0.152	-0.043
-718.791	-38.602	-0.255	0.137
-717.777	-99.080	-0.129	-0.033
-716.762	-54.504	-0.223	0.103
-715.748	-105.574	0.233	0.054
-714.733	-64.249	-0.184	0.076
-713.718	63.977	-0.246	-0.251
-712.704	100.767	0.104	-0.123
-711.689	-81.077	-0.193	-0.065
-710.675	-200.000	-0.030	-0.273
-709.660	786.707	0.072	-0.201
-708.645	-65.652	0.251	-0.102
-707.631	-81.389	-0.099	-0.033
-706.616	-200.000	-0.003	-0.229
-705.602	-13.196	-0.210	-0.139
-704.587	-47.392	-0.227	-0.112
-703.572	-65.428	0.045	0.018
-702.558	-47.549	0.205	0.101
-701.543	-103.702	0.182	-0.043
-700.529	71.830	0.194	-0.205
-699.514	106.307	0.182	-0.219
-698.499	601.228	-0.062	0.155
-697.485	-65.061	-0.171	-0.070
-696.470	800.000	0.055	-0.237
-695.456	-58.411	-0.451	-0.199
-694.441	-141.528	0.251	-0.026
-693.426	-39.926	-0.224	-0.119
-692.412	119.899	0.114	0.144
-691.397	-58.882	0.074	0.032
-690.383	-24.203	-0.272	-0.165
-689.368	-200.000	0.045	-0.361
-688.354	-3.313	-0.321	0.227
-687.339	318.005	-0.043	-0.083
-686.324	-200.000	0.003	-0.040
-685.310	-165.642	-0.090	0.004
-684.295	-36.309	0.176	-0.096
-683.281	473.360	0.164	0.375
-682.266	-46.369	-0.385	-0.192
-681.251	71.024	0.355	-0.374
-680.237	256.214	-0.079	-0.138
-679.222	800.000	0.042	-0.143
-678.208	119.701	0.107	-0.134
-677.193	24.464	0.357	-0.300
-676.178	324.438	-0.120	0.232
-675.164	800.000	-0.123	0.473
-674.149	-20.298	-0.092	0.057
-673.135	-200.000	-0.043	-0.289
-672.120	-200.000	0.007	0.046
-671.105	-77.367	0.280	0.099
-670.091	-92.673	-0.069	-0.020
-669.076	577.029	0.029	0.072
-668.062	-115.397	0.248	-0.047
-667.047	-123.680	-0.295	0.047
-666.032	73.367	0.149	0.158
-665.018	-135.494	-0.509	-0.062
-664.003	69.078	0.071	-0.074
-662.989	127.369	0.211	-0.272
-661.974	800.000	0.116	-0.444
-660.959	-59.248	-0.125	0.055
-659.945	-100.996	-0.231	0.058
-658.930	206.398	0.098	-0.156
-657.916	547.079	-0.028	0.068
-656.901	-87.742	0.086	0.026
-655.886	104.656	-0.094	-0.113
-654.872	-18.439	-0.300	-0.190
-653.857	-200.000	-0.025	0.207
-652.843	800.000	-0.054	0.179
-651.828	-109.661	0.189	-0.040
-650.814	193.717	0.069	0.106
-649.799	-170.232	-0.164	-0.006
-648.784	493.299	-0.027	-0.063
-647.770	-81.541	0.357	-0.119
-646.755	-77.032	-0.469	-0.166
-645.741	35.144	0.119	-0.106
-644.726	800.000	0.057	-0.194
-643.711	-200.000	0.018	-0.204
-642.697	296.064	0.071	0.132
-641.682	-86.862	0.193	-0.060
-640.668	169.403	-0.218	0.316
-639.653	65.778	0.099	0.102
-638.638	-195.731	-0.331	-0.002
-637.624	-200.000	0.015	-0.117
-636.609	159.411	0.098	0.139
-635.595	-20.887	0.167	0.104
-634.580	-78.759	-0.329	-0.114
-633.565	30.664	-0.188	-0.163
-632.551	-3.682	-0.399	-0.281
-631.536	-127.424	0.261	-0.039
-630.522	800.000	0.056	0.246
-629.507	8.836	0.425	0.325
-628.492	65.279	0.256	-0.262
-627.478	-91.926	-0.130	0.037
-626.463	-170.876	0.125	-0.004
-625.449	800.000	-0.030	0.090
-624.434	204.708	-0.108	-0.170
-623.419	445.216	-0.074	-0.165
-622.405	-167.267	-0.331	-0.014
-621.390	101.792	0.167	-0.197
-620.376	70.809	0.051	0.054
-619.361	800.000	0.022	-0.062
-618.346	-14.126	-0.168	0.110
-617.332	-73.475	0.193	-0.072
-616.317	-148.582	-0.207	-0.017
-615.303	-64.871	0.056	0.023
-614.288	-200.000	-0.002	-0.020
-613.273	223.588	0.111	0.182
-612.259	69.788	-0.158	0.165
-611.244	-55.814	-0.094	-0.043
-610.230	-120.139	-0.268	-0.047
-609.215	-87.149	0.196	-0.060
-608.201	800.000	-0.022	0.066
-607.186	-9.934	-0.129	0.087
-606.171	47.899	0.208	-0.197
-605.157	6.686	-0.069	0.052
-604.142	-200.000	0.026	0.229
-603.128	2.443	0.111	0.082
-602.113	-63.570	-0.253	0.105
-601.098	-155.657	-0.138	0.009
-600.084	-17.034	0.457	0.292
-599.069	-95.577	-0.082	0.022
-598.055	800.000	-0.026	-0.082
-597.040	-62.839	0.140	0.059
-596.025	-117.051	0.115	-0.021
-595.011	46.944	-0.190	-0.179
-593.996	-171.022	-0.286	-0.010
-592.982	399.562	-0.117	-0.248
-591.967	-114.292	0.223	-0.044
-590.952	68.749	-0.183	-0.190
-589.938	-9.576	0.240	0.162
-588.923	-200.000	0.061	0.337
-587.909	-40.262	0.299	0.158
-586.894	-88.559	0.093	0.028
-585.879	-200.000	0.013	-0.232
-584.865	32.828	0.112	-0.098
-583.850	-130.983	-0.248	0.034
-582.836	-200.000	0.018	0.153
-581.821	-200.000	-0.069	0.394
-580.806	21.982	-0.409	-0.337
-579.792	47.015	-0.076	-0.071
-578.777	88.315	-0.106	-0.119
-577.763	-200.000	0.016	-0.257
-576.748	-200.000	-0.047	0.281
-575.733	-33.689	-0.268	0.150
-574.719	-46.731	0.190	0.094
-573.704	104.118	-0.229	-0.273
-572.690	501.213	-0.077	-0.181
-571.675	-114.049	0.309	0.061
-570.661	366.614	0.146	-0.299
-569.646	-89.043	-0.227	0.068
-568.631	-200.000	-0.005	0.192
-567.617	-65.270	-0.158	-0.064
-566.602	3.732	-0.206	-0.152
-565.588	-126.761	0.288	-0.043
-564.573	176.790	0.189	-0.277
-563.558	-0.164	0.261	-0.188
-562.544	-87.115	0.164	-0.050
-561.529	-88.530	-0.389	-0.117
-560.515	-148.455	-0.133	0.011
-559.500	25.352	0.186	-0.156
-558.485	-110.188	0.411	0.087
-557.471	317.024	-0.144	0.274
-556.456	16.915	0.279	0.223
-555.442	148.562	-0.032	0.043
-554.427	313.600	-0.119	0.227
-553.412	23.432	-0.165	-0.138
-552.398	-74.029	0.193	-0.071
-551.383	-113.248	0.295	0.059
-550.369	50.399	-0.310	0.296
-549.354	1.195	0.072	-0.052
-548.339	438.220	-0.157	-0.345
-547.325	634.333	-0.041	0.105
-546.310	112.599	0.142	0.174
-545.296	-78.568	-0.267	0.092
-544.281	259.570	-0.209	-0.364
-543.266	40.078	0.264	-0.240
-542.252	230.552	-0.057	0.094
-541.237	-10.217	-0.190	0.127
-540.223	224.953	0.024	0.039
-539.208	51.152	0.190	0.182
-538.193	-120.742	0.117	0.020
-537.179	-58.930	-0.153	0.067
-536.164	-32.942	0.345	0.194
-535.150	65.224	-0.041	-0.042
-534.135	-71.207	-0.330	-0.125
-533.121	-17.990	0.205	-0.130
-532.106	304.916	0.100	-0.188
-531.091	-63.436	0.107	0.045
-530.077	-159.693	-0.113	0.006
-529.062	800.000	0.144	0.481
-528.048	-200.000	-0.018	-0.204
-527.033	736.186	-0.063	0.170
-526.018	220.185	-0.085	-0.137
-525.004	428.451	-0.045	-0.098
-523.989	3.843	-0.238	0.176
-522.975	29.711	0.271	0.233
-521.960	-36.627	-0.206	-0.112
-520.945	285.141	0.130	-0.236
-519.931	369.331	0.079	0.161
-518.916	-55.589	-0.113	-0.051
-517.902	-200.000	0.031	-0.190
-516.887	174.524	-0.192	0.281
-515.872	284.626	0.152	-0.275
-514.858	800.000	-0.026	-0.085
-513.843	301.526	0.049	-0.092
-512.829	121.236	0.190	0.239
-511.814	40.220	0.219	0.199
-510.799	40.749	0.349	-0.318
-509.785	14.728	0.261	0.206
-508.770	-101.132	0.083	-0.020
-507.756	-46.478	-0.223	-0.110
-506.741	736.278	-0.102	0.275
-505.726	-200.000	-0.051	0.260
-504.712	97.354	0.063	-0.073
-503.697	19.736	-0.168	0.137
-502.683	-14.329	-0.233	-0.151
-501.668	-144.776	-0.071	-0.007
-500.653	800.000	0.056	0.213
-499.639	-41.969	-0.048	-0.025
-498.624	-50.719	0.148	-0.070
-497.610	-135.690	0.202	-0.024
-496.595	286.673	0.141	0.257
-495.581	587.389	-0.159	0.395
-494.566	257.588	-0.053	0.092
-493.551	-97.142	-0.290	0.077
-492.537	-173.389	0.278	-0.009
-491.522	-200.000	-0.005	0.186
-490.508	48.574	-0.075	0.070
-489.493	-200.000	0.018	-0.127
-488.478	-200.000	-0.004	-0.182
-487.464	85.423	-0.108	0.120
-486.449	800.000	-0.029	-0.092
-485.435	-200.000	0.016	0.170
-484.420	80.724	-0.160	0.173
-483.405	368.001	-0.007	0.014
-482.391	55.752	0.201	0.196
-481.376	615.892	0.148	0.375
-480.362	4.910	-0.047	-0.035
-479.347	152.539	0.056	-0.077
-478.332	132.286	0.112	-0.145
-477.318	-73.791	-0.151	-0.055
-476.303	-44.038	0.091	0.046
-475.289	36.274	0.258	-0.229
-474.274	-200.000	0.023	0.332
-473.259	-81.331	-0.478	0.159
-472.245	-200.000	-0.000	0.047
-471.230	-200.000	0.012	-0.177
-470.216	64.544	0.317	-0.322
-469.201	-200.000	0.013	0.154
-468.186	800.000	-0.077	0.249
-467.172	-200.000	0.046	0.249
-466.157	235.204	0.162	0.269
-465.143	-84.941	0.070	0.022
-464.128	16.671	0.224	-0.178
-463.113	183.092	-0.204	0.304
-462.099	-200.000	0.040	0.195
-461.084	62.949	-0.341	0.344
-460.070	-71.023	-0.321	-0.122
-459.055	-102.625	-0.217	-0.052
-458.040	-200.000	0.039	-0.176
-457.026	-200.000	-0.064	-0.308
-456.011	-113.693	0.252	-0.049
-454.997	-200.000	0.010	-0.099
-453.982	634.649	-0.108	-0.276
-452.968	-34.294	-0.097	-0.054
-451.953	-57.081	0.316	-0.140
-450.938	-19.273	-0.035	0.022
-449.924	92.057	-0.078	0.089
-448.909	-60.503	-0.075	0.032
-447.895	-200.000	-0.023	0.148
-446.880	-200.000	0.019	-0.347
-445.865	156.152	0.205	-0.284
-444.851	201.231	-0.078	0.120
-443.836	639.156	-0.134	-0.344
-442.822	-103.676	-0.150	0.035
-441.807	607.050	0.040	-0.099
-440.792	203.764	-0.088	0.137
-439.778	42.470	-0.142	0.130
-438.763	-16.474	0.181	0.116
-437.749	103.619	-0.076	-0.090
-436.734	740.646	-0.087	-0.234
-435.719	-38.768	0.393	-0.209
-434.705	64.061	0.072	-0.073
-433.690	-94.294	0.273	-0.075
-432.676	-123.875	-0.541	-0.086
-431.661	-200.000	0.011	0.087
-430.646	190.780	-0.112	-0.170
-429.632	-92.719	-0.111	0.031
-428.617	57.751	-0.147	0.145
-427.603	24.863	0.239	0.200
-426.588	-200.000	-0.013	0.217
-425.573	-78.840	0.065	0.022
-424.559	175.713	0.141	-0.206
-423.544	800.000	-0.037	-0.113
-422.530	34.266	0.113	0.099
-421.515	27.132	0.100	0.084
-420.500	452.726	-0.040	0.088
-419.486	-45.668	-0.171	0.085
-418.471	-124.433	0.228	-0.036
-417.457	347.863	0.033	-0.065
-416.442	-111.962	-0.208	-0.042
-415.428	217.095	-0.155	0.249
-414.413	181.791	0.119	-0.176
-413.398	-141.352	-0.184	-0.019
-412.384	-151.999	0.288	0.021
-411.369	-168.257	-0.266	0.010
-410.355	327.926	0.073	-0.141
-409.340	42.042	0.078	0.071
-408.325	101.858	0.116	-0.136
-407.311	4.754	0.195	-0.144
-406.296	-3.158	0.039	0.027
-405.282	-200.000	0.008	-0.160
-404.267	-200.000	-0.027	-0.227
-403.252	-100.223	-0.270	0.067
-402.238	-42.997	0.205	0.104
-401.223	-7.993	0.179	0.121
-400.209	-89.835	-0.271	0.080
-399.194	-200.000	-0.011	0.087
-398.179	-200.000	0.019	0.265
-397.165	107.055	0.007	0.008
-396.150	613.371	-0.083	0.209
-395.136	6.626	0.377	0.282
-394.121	213.877	-0.146	0.233
-393.106	17.053	0.183	-0.146
-392.092	204.874	-0.117	0.183
-391.077	-125.722	0.309	0.047
-390.063	800.000	0.045	0.139
-389.048	-200.000	-0.045	0.397
-388.033	388.915	-0.040	0.084
-387.019	-62.736	0.084	-0.035
-386.004	122.791	-0.150	0.188
-384.990	370.603	0.149	-0.303
-383.975	221.691	0.099	-0.160
-382.960	-13.670	0.388	-0.252
-381.946	183.987	-0.064	0.096
-380.931	179.973	-0.038	0.056
-379.917	46.827	0.229	0.214
-378.902	139.987	-0.186	-0.246
-377.888	261.991	0.164	0.286
-376.873	50.334	0.209	0.198
-375.858	-156.714	-0.152	-0.009
-374.844	-143.048	-0.365	0.035
-373.829	-1.137	-0.259	-0.184
-372.815	-10.986	0.358	0.237
-371.800	116.387	-0.137	-0.168
-370.785	102.637	-0.110	0.129
-369.771	28.012	-0.189	0.160
-368.756	800.000	-0.039	-0.149
-367.742	212.805	0.208	-0.329
-366.727	-161.210	0.241	0.013
-365.712	197.867	0.207	-0.318
-364.698	-55.115	-0.178	0.080
-363.683	-120.526	-0.049	0.008
-362.669	-36.155	-0.306	0.166
-361.654	-119.439	0.209	0.036
-360.639	-200.000	-0.048	-0.387
-359.625	-200.000	-0.002	-0.346
-358.610	127.096	0.212	-0.270
-357.596	-11.187	0.042	-0.028
-356.581	-102.699	-0.560	0.134
-355.566	34.715	0.046	-0.040
-354.552	-200.000	0.069	0.372
-353.537	630.825	-0.084	-0.213
-352.523	800.000	-0.056	-0.238
-351.508	-82.675	0.152	0.049
-350.493	132.651	-0.048	0.062
-349.479	-89.051	0.430	0.128
-348.464	-200.000	0.032	0.219
-347.450	91.474	0.098	0.111
-346.435	800.000	-0.103	-0.318
-345.420	-110.354	0.114	0.024
-344.406	1.091	0.176	-0.127
-343.391	76.659	0.011	0.012
-342.377	800.000	-0.056	-0.190
-341.362	-200.000	0.016	0.090
-340.348	8.422	-0.314	0.237
-339.333	15.109	0.258	0.203
-338.318	441.999	-0.117	-0.257
-337.304	-200.000	0.009	-0.178
-336.289	800.000	0.043	-0.186
-335.275	138.351	-0.035	0.047
-334.260	248.489	0.188	-0.319
-333.245	-12.040	0.295	0.193
-332.231	-185.183	0.054	0.001
-331.216	261.532	-0.136	0.236
-330.202	30.515	-0.128	-0.109
-329.187	301.136	0.140	-0.259
-328.172	288.981	-0.091	-0.165
-327.158	9.772	0.170	0.129
-326.143	295.685	-0.068	0.125
-325.129	-105.720	-0.209	0.047
-324.114	-123.061	0.215	-0.035
-323.099	-135.179	-0.175	-0.021
-322.085	115.573	-0.111	0.136
-321.070	-54.061	0.184	-0.084
-320.056	-91.809	-0.328	0.093
-319.041	-130.028	0.068	0.009
-318.026	800.000	0.133	-0.447
-317.012	-21.809	-0.343	-0.209
-315.997	-23.211	0.126	-0.076
-314.983	-82.132	-0.116	-0.038
-313.968	39.224	-0.233	0.208
-312.953	-119.036	0.173	-0.030
-311.939	288.543	0.115	-0.208
-310.924	151.704	-0.037	-0.051
-309.910	-200.000	0.010	0.130
-308.895	20.386	-0.194	0.157
-307.880	179.611	0.157	-0.231
-306.866	424.970	0.039	0.085
-305.851	152.707	0.192	0.262
-304.837	309.311	-0.194	0.363
-303.822	-135.542	-0.303	0.036
-302.807	-130.554	-0.012	-0.002
-301.793	-144.160	-0.318	-0.030
-300.778	51.781	0.106	-0.101
-299.764	-9.890	-0.176	0.117
-298.749	-127.584	0.407	-0.059
-297.735	-96.394	-0.105	0.028
-296.720	-185.407	-0.180	-0.003
-295.705	163.377	0.113	-0.159
-294.691	78.788	-0.034	-0.037
-293.676	-27.828	0.207	-0.120
-292.662	-200.000	0.016	-0.107
-291.647	-157.950	-0.330	-0.019
-290.632	1.332	0.368	-0.265
-289.618	-46.501	-0.105	-0.051
-288.603	258.361	0.090	0.155
-287.589	-116.666	0.228	-0.042
-286.574	-73.982	-0.162	0.059
-285.559	381.614	-0.198	-0.408
-284.545	-200.000	0.019	-0.333
-283.530	-43.341	0.188	0.095
-282.516	-200.000	0.008	-0.080
-281.501	26.879	-0.135	0.113
-280.486	-133.152	0.113	0.014
-279.472	323.500	0.170	0.324
-278.457	-164.341	0.209	0.010
-277.443	-83.647	-0.348	0.111
-276.428	-56.472	-0.194	-0.086
-275.413	-93.598	0.294	-0.081
-274.399	-140.173	0.132	-0.014
-273.384	-60.661	-0.183	-0.077
-272.370	201.153	-0.139	0.214
-271.355	49.307	-0.123	0.116
-270.340	-125.859	-0.159	0.024
-269.326	-200.000	-0.012	-0.074
-268.311	-101.099	0.060	-0.015
-267.297	232.585	-0.094	-0.154
-266.282	-138.264	0.046	-0.005
-265.267	-200.000	0.055	-0.328
-264.253	56.224	-0.065	-0.063
-263.238	16.224	0.267	0.211
-262.224	800.000	0.024	-0.099
-261.209	-43.159	0.105	-0.053
-260.195	-55.710	0.124	0.056
-259.180	-99.585	0.017	-0.004
-258.165	276.172	-0.260	0.461
-257.151	11.698	0.285	-0.219
-256.136	-200.000	0.035	-0.263
-255.122	-80.429	-0.179	-0.060
-254.107	-200.000	0.056	-0.251
-253.092	37.360	-0.229	0.203
-252.078	-200.000	0.010	0.075
-251.063	-37.710	-0.419	-0.223
-250.049	161.045	0.042	0.058
-249.034	111.305	-0.018	-0.022
-248.019	550.019	-0.069	0.166
-247.005	315.316	-0.108	0.204
-245.990	-42.820	-0.165	-0.084
-244.976	-162.887	0.283	0.014
-243.961	19.004	0.060	0.048
-242.946	-68.083	0.209	0.081
-241.932	-200.000	0.027	-0.366
-240.917	800.000	0.056	0.203
-239.903	-0.968	0.302	-0.213
-238.888	-200.000	0.051	0.228
-237.873	54.821	-0.207	-0.200
-236.859	-118.758	-0.210	0.037
-235.844	-28.353	-0.258	-0.149
-234.830	227.375	-0.096	-0.155
-233.815	-45.849	-0.280	0.138
-232.800	115.011	-0.099	0.121
-231.786	536.818	0.049	-0.117
-230.771	61.679	0.221	-0.220
-229.757	67.854	0.179	-0.183
-228.742	24.668	-0.173	-0.143
-227.727	0.754	-0.037	-0.027
-226.713	-155.285	0.264	-0.017
-225.698	-200.000	0.020	-0.090
-224.684	29.397	-0.184	-0.156
-223.669	-200.000	-0.002	-0.011
-222.655	-6.051	0.194	0.132
-221.640	-52.308	0.166	-0.077
-220.625	800.000	-0.023	0.077
-219.611	-62.493	0.296	0.123
-218.596	-200.000	0.009	0.250
-217.582	615.407	0.033	0.082
-216.567	-54.450	-0.108	-0.049
-215.552	92.288	0.193	0.217
-214.538	-200.000	-0.010	-0.223
-213.523	66.171	0.044	0.044
-212.509	-79.077	0.054	-0.018
-211.494	-200.000	-0.005	0.163
-210.479	185.425	-0.159	0.236
-209.465	130.656	-0.112	0.143
-208.450	-4.726	-0.124	0.085
-207.436	23.364	-0.099	-0.081
-206.421	-131.940	-0.393	0.051
-205.406	128.879	-0.099	-0.125
-204.392	-82.314	0.220	0.072
-203.377	87.316	0.069	0.076
-202.363	626.916	-0.059	-0.149
-201.348	800.000	0.115	-0.405
-200.333	-172.341	-0.361	-0.011
-199.319	800.000	-0.033	-0.092
-198.304	56.819	0.186	-0.181
-197.290	-81.173	-0.203	0.067
-196.275	-143.222	0.246	0.024
-195.260	140.517	-0.351	-0.461
-194.246	6.929	-0.304	-0.226
-193.231	725.615	-0.042	-0.112
-192.217	144.073	0.177	0.235
-191.202	800.000	-0.053	-0.210
-190.187	255.185	0.112	-0.191
-189.173	-200.000	-0.019	0.240
-188.158	-156.086	0.208	-0.013
-187.144	0.248	-0.239	0.170
-186.129	-200.000	0.003	-0.134
-185.114	27.073	-0.394	0.330
-184.100	-8.427	0.038	-0.026
-183.085	-200.000	-0.020	0.492
-182.071	65.205	0.350	0.352
-181.056	-200.000	0.008	0.431
-180.042	-23.357	-0.208	0.124
-179.027	800.000	-0.052	-0.186
-178.012	394.219	0.024	-0.049
-176.998	623.750	-0.038	0.096
-175.983	32.485	-0.174	0.150
-174.969	145.437	0.220	-0.294
-173.954	-11.262	0.130	-0.085
-172.939	-58.297	-0.310	-0.134
-171.925	-200.000	-0.005	-0.091
-170.910	-200.000	0.039	0.319
-169.896	-164.544	0.237	-0.011
-168.881	-68.030	0.222	-0.086
-167.866	-200.000	0.021	-0.287
-166.852	502.780	-0.063	-0.146
-165.837	65.256	0.023	0.023
-164.823	-16.051	0.116	-0.074
-163.808	-39.614	-0.078	-0.041
-162.793	-200.000	0.021	0.191
-161.779	800.000	-0.047	0.201
-160.764	800.000	0.107	-0.333
-159.750	-125.946	-0.087	0.013
-158.735	164.991	0.312	0.438
-157.720	-72.871	-0.063	0.023
-156.706	33.955	-0.137	0.119
-155.691	-100.168	0.304	-0.075
-154.677	800.000	-0.058	-0.206
-153.662	-78.512	-0.113	0.039
-152.647	-135.577	0.072	-0.009
-151.633	-200.000	0.073	0.379
-150.618	4.732	-0.140	0.103
-149.604	47.505	-0.254	0.236
-148.589	-69.999	-0.154	0.058
-147.574	-155.599	-0.162	0.010
-146.560	783.809	-0.114	0.310
-145.545	-168.157	-0.178	-0.007
-144.531	-71.806	-0.173	0.064
-143.516	-19.306	-0.269	0.166
-142.502	-80.435	0.401	-0.133
-141.487	117.307	0.105	0.129
-140.472	7.348	-0.158	0.117
-139.458	89.948	0.089	0.099
-138.443	-63.137	0.177	0.073
-137.429	297.648	-0.133	-0.242
-136.414	9.397	-0.077	-0.058
-135.399	-74.309	-0.485	-0.174
-134.385	-93.278	0.065	-0.018
-133.370	-117.509	-0.280	-0.050
-132.356	719.300	-0.030	0.079
-131.341	-112.949	-0.035	0.007
-130.326	32.924	0.271	-0.233
-129.312	-46.882	-0.309	0.150
-128.297	87.938	0.054	-0.059
-127.283	-117.463	-0.051	-0.009
-126.268	-30.484	0.131	0.074
-125.253	55.125	0.168	-0.161
-124.239	-200.000	-0.060	0.306
-123.224	-86.175	-0.205	0.063
-122.210	58.056	-0.168	0.164
-121.195	-54.862	0.284	-0.127
-120.180	-83.746	0.209	0.066
-119.166	18.200	0.125	-0.099
-118.151	-57.229	0.110	0.048
-117.137	800.000	-0.028	-0.094
-116.122	165.507	0.098	-0.138
-115.107	-200.000	0.039	0.224
-114.093	-176.469	-0.130	0.003
-113.078	-200.000	-0.067	0.315
-112.064	81.110	-0.157	0.169
-111.049	167.804	0.073	-0.103
-110.034	29.411	0.099	0.083
-109.020	800.000	0.018	0.052
-108.005	800.000	-0.027	0.105
-106.991	58.137	0.156	0.152
-105.976	218.663	0.126	0.200
-104.962	188.303	0.072	-0.106
-103.947	-200.000	0.056	0.262
-102.932	159.325	0.096	0.132
-101.918	-11.762	0.290	0.189
-100.903	118.795	-0.225	0.276
-99.889	800.000	0.062	-0.217
-98.874	-9.647	-0.202	0.134
-97.859	-125.007	0.102	0.016
-96.845	-38.766	-0.129	-0.067
-95.830	100.412	0.212	-0.244
-94.816	27.948	-0.292	0.244
-93.801	92.746	0.024	-0.027
-92.786	41.653	-0.045	0.041
-91.772	-8.364	0.308	0.206
-90.757	-200.000	-0.076	0.348
-89.743	-58.963	0.290	-0.124
-88.728	-20.905	0.288	0.175
-87.713	34.626	-0.070	-0.061
-86.699	-15.601	-0.196	-0.124
-85.684	563.041	0.135	0.323
-84.670	-19.374	-0.105	0.065
-83.655	7.739	0.201	0.149
-82.640	-72.573	-0.298	0.109
-81.626	-103.389	0.099	0.023
-80.611	-50.474	0.124	-0.058
-79.597	-133.932	-0.168	0.021
-78.582	-47.863	0.035	-0.017
-77.567	-192.543	0.332	-0.003
-76.553	800.000	-0.052	0.197
-75.538	800.000	0.052	0.197
-74.524	-46.466	0.350	0.170
-73.509	-9.642	-0.141	0.093
-72.494	141.683	0.075	-0.098
-71.480	-18.726	-0.279	-0.172
-70.465	-200.000	0.026	-0.121
-69.451	-129.388	-0.009	-0.001
-68.436	800.000	-0.083	-0.358
-67.422	-200.000	-0.028	0.250
-66.407	126.791	0.190	0.239
-65.392	-200.000	-0.023	-0.132
-64.378	-200.000	-0.010	-0.206
-63.363	-200.000	0.011	-0.076
-62.349	732.794	-0.039	0.103
-61.334	9.190	-0.783	-0.587
-60.319	422.785	0.250	0.532
-59.305	-200.000	-0.066	-0.969
-58.290	318.677	0.465	0.874
-57.276	527.302	0.644	1.505
-56.261	-200.000	94.578	555.628
-55.246	630.052	1382.391	3466.758
-54.232	185.645	2605.185	3837.035
-53.217	122.557	2198.841	2725.497
-52.203	46.978	1648.567	1519.725
-51.188	38.774	1381.801	1222.868
-50.173	35.257	1338.994	1163.640
-49.159	55.315	1387.446	1330.172
-48.144	59.757	1405.557	1374.921
-47.130	38.934	1360.153	1204.502
-46.115	35.273	1342.559	1166.649
-45.100	35.083	1337.769	1161.285
-44.086	34.863	1334.956	1157.465
-43.071	34.798	1332.835	1155.190
-42.057	34.905	1330.374	1153.653
-41.042	34.897	1328.823	1152.215
-40.027	35.058	1326.693	1151.289
-39.013	35.085	1324.504	1149.511
-37.998	34.953	1323.558	1147.849
-36.984	35.058	1321.333	1146.507
-35.969	35.120	1319.867	1145.556
-34.954	35.055	1317.897	1143.413
-33.940	35.107	1316.552	1142.510
-32.925	35.197	1315.311	1141.926
-31.911	35.095	1313.592	1139.780
-30.896	35.132	1312.627	1139.120
-29.881	35.168	1311.009	1137.881
-28.867	35.286	1309.412	1137.153
-27.852	35.217	1308.222	1135.668
-26.838	35.238	1306.571	1134.311
-25.823	35.223	1304.871	1132.699
-24.809	35.112	1304.219	1131.435
-23.794	35.095	1303.086	1130.306
-22.779	35.253	1300.571	1129.011
-21.765	35.138	1299.979	1127.773
-20.750	35.247	1298.566	1127.148
-19.736	35.097	1297.118	1124.962
-18.721	34.996	1296.307	1123.623
-17.706	35.024	1294.395	1122.086
-16.692	35.057	1293.092	1121.105
-15.677	35.053	1292.287	1120.336
-14.663	34.961	1291.635	1119.190
-13.648	35.063	1290.269	1118.559
-12.633	34.985	1289.255	1117.178
-11.619	34.910	1288.854	1116.350
-10.604	35.006	1287.614	1115.792
-9.590	34.874	1286.541	1114.046
-8.575	34.984	1285.771	1113.976
-7.560	35.124	1284.410	1113.566
-6.546	34.994	1283.750	1112.193
-5.531	34.979	1283.145	1111.543
-4.517	35.067	1281.762	1110.808
-3.502	35.045	1281.153	1110.111
-2.487	35.006	1279.714	1108.592
-1.473	35.072	1276.171	1105.860
-0.458	33.844	1261.221	1085.847
0.556	32.004	1241.674	1043.311
1.571	27.547	1245.515	1021.522
2.586	26.003	1259.643	1024.260
3.600	24.163	1246.541	1003.163
4.615	17.976	1172.973	910.983
5.629	9.047	1095.454	806.039
6.644	5.037	1073.978	770.392
7.659	4.553	1071.692	766.295
8.673	4.329	1070.379	764.189
9.688	4.363	1069.140	763.403
10.702	4.955	1067.828	765.307
11.717	10.719	1075.713	799.330
12.731	19.190	1087.517	850.015
13.746	22.377	1091.041	868.443
14.761	21.865	1090.078	865.075
15.775	21.013	1088.017	859.167
16.790	20.040	1085.758	852.521
17.804	19.287	1084.284	847.588
18.819	19.004	1083.491	845.501
19.834	18.992	1082.384	844.505
20.848	18.754	1081.879	842.866
21.863	18.510	1080.881	840.821
22.877	18.488	1080.530	840.365
23.892	18.390	1079.848	839.281
24.907	18.278	1079.255	838.194
25.921	18.406	1077.758	837.586
26.936	18.251	1076.878	836.069
27.950	18.417	1075.160	835.469
28.965	18.515	1073.839	834.846
29.980	18.791	1071.798	834.530
30.994	18.777	1071.285	833.985
32.009	18.794	1070.665	833.513
33.023	18.657	1069.134	831.581
34.038	18.654	1068.214	830.782
35.053	18.437	1067.554	829.145
36.067	18.631	1065.973	828.779
37.082	18.577	1065.427	828.019
38.096	18.764	1064.718	828.299
39.111	18.698	1064.065	827.399
40.126	18.569	1063.107	825.957
41.140	18.193	1061.388	822.741
42.155	18.184	1059.868	821.450
43.169	18.034	1059.119	820.073
44.184	18.139	1057.703	819.411
45.199	18.077	1057.161	818.622
46.213	18.154	1056.196	818.170
47.228	18.473	1055.432	819.029
48.242	18.585	1054.584	818.835
49.257	18.495	1053.628	817.588
50.271	18.570	1052.683	817.142
51.286	18.702	1051.566	816.830
52.301	18.596	1051.057	815.857
53.315	18.348	1049.888	813.701
54.330	18.269	1048.578	812.239
55.344	18.406	1047.214	811.762
56.359	18.422	1046.478	811.194
57.374	18.345	1045.909	810.315
58.388	18.119	1045.060	808.518
59.403	18.096	1044.203	807.673
60.417	18.096	1043.400	806.981
61.432	18.108	1042.762	806.472
62.447	17.990	1042.206	805.414
63.461	17.935	1040.746	803.957
64.476	17.734	1040.376	802.656
65.490	17.882	1039.541	802.633
66.505	17.987	1038.717	802.421
67.520	18.033	1037.612	801.712
68.534	18.102	1036.685	801.248
69.549	18.072	1036.185	800.652
70.563	17.920	1035.521	799.354
71.578	17.840	1034.268	797.943
72.593	17.694	1033.698	796.750
73.607	17.708	1033.023	796.223
74.622	17.735	1032.774	796.090
75.636	17.700	1031.741	795.060
76.651	17.824	1030.668	794.740
77.666	17.844	1030.773	794.843
78.680	17.943	1029.472	794.228
79.695	17.908	1028.935	793.582
80.709	18.051	1028.360	793.733
81.724	18.160	1028.031	793.914
82.739	18.186	1026.917	793.106
83.753	18.402	1026.739	793.898
84.768	18.689	1025.718	794.369
85.782	18.851	1025.353	794.765
86.797	18.683	1024.808	793.496
87.812	18.592	1023.203	791.761
88.826	18.478	1022.573	790.679
89.841	18.739	1021.258	790.794
90.855	18.700	1020.755	790.153
91.870	18.796	1019.915	789.876
92.884	18.631	1018.742	788.141
93.899	18.618	1018.123	787.533
94.914	18.892	1017.062	787.897
95.928	18.824	1016.715	787.247
96.943	18.655	1015.859	785.741
97.957	18.626	1015.053	784.913
98.972	18.614	1013.885	783.888
99.987	18.730	1012.778	783.492
101.001	18.615	1012.190	782.443
102.016	18.563	1011.269	781.426
103.030	18.540	1010.261	780.472
104.045	18.743	1009.416	780.675
105.060	18.564	1008.596	779.156
106.074	18.225	1007.652	776.821
107.089	18.122	1006.090	775.082
108.103	18.044	1004.864	773.713
109.118	18.029	1004.310	773.152
110.133	17.983	1003.169	771.997
111.147	17.880	1002.271	770.771
112.162	18.000	1001.393	770.570
113.176	18.213	1000.824	771.025
114.191	18.251	1000.061	770.541
115.206	18.244	999.170	769.753
116.220	18.104	998.211	768.319
117.235	18.206	997.185	767.919
118.249	18.110	996.839	767.154
119.264	17.990	995.658	765.636
120.279	17.922	995.306	764.995
121.293	17.895	994.498	764.187
122.308	17.935	993.073	763.201
123.322	17.958	991.704	762.184
124.337	17.814	990.878	760.841
125.352	17.844	989.736	760.031
126.366	17.817	989.209	759.439
127.381	17.895	988.064	758.837
128.395	17.879	987.009	757.892
129.410	17.878	986.174	757.175
130.424	18.027	985.298	757.098
131.439	18.154	985.028	757.385
132.454	18.139	984.137	756.566
133.468	18.281	983.421	756.579
134.483	18.327	981.954	755.584
135.497	18.278	981.565	755.005
136.512	18.252	980.928	754.331
137.527	18.221	979.980	753.401
138.541	18.172	979.391	752.666
139.556	18.477	978.487	753.243
140.570	18.518	977.783	752.816
141.585	18.661	977.397	753.079
142.600	18.817	976.201	752.775
143.614	18.771	975.557	752.011
144.629	18.735	975.007	751.362
145.643	18.736	974.088	750.591
146.658	18.630	972.406	748.766
147.673	18.507	971.492	747.460
148.687	18.233	971.236	746.003
149.702	18.385	969.492	745.260
150.716	18.204	969.106	744.108
151.731	18.225	968.400	743.591
152.746	18.431	967.495	743.725
153.760	18.371	967.265	743.220
154.775	18.468	966.706	743.149
155.789	18.640	965.044	742.549
156.804	18.510	964.981	741.874
157.819	18.719	964.143	742.065
158.833	18.745	963.869	741.902
159.848	18.954	963.075	742.124
160.862	18.574	961.985	739.581
161.877	18.392	960.451	737.554
162.892	18.206	959.721	736.127
163.906	18.383	958.622	735.982
164.921	18.353	957.764	735.130
165.935	18.463	956.620	734.657
166.950	18.585	956.095	734.709
167.964	18.494	955.170	733.544
168.979	18.362	954.158	732.138
169.994	18.432	953.256	731.684
171.008	18.419	953.019	731.381
172.023	18.616	952.160	731.496
173.037	18.847	951.363	731.803
174.052	18.645	950.607	730.296
175.067	18.465	949.699	728.767
176.081	18.242	949.677	727.739
177.096	18.379	948.533	727.382
178.110	18.453	947.892	727.139
179.125	18.409	947.343	726.464
180.140	18.541	946.896	726.620
181.154	18.572	946.810	726.619
182.169	18.758	946.065	726.772
183.183	18.729	945.620	726.242
184.198	18.803	944.663	725.754
185.213	18.599	944.279	724.536
186.227	18.799	943.300	724.562
187.242	18.866	942.475	724.147
188.256	19.000	942.562	724.713
189.271	18.930	941.521	723.557
190.286	18.827	940.278	722.105
191.300	18.320	939.136	719.035
192.315	18.169	938.557	717.894
193.329	18.274	937.763	717.664
194.344	18.297	938.052	717.917
195.359	18.463	937.050	717.782
196.373	18.777	936.503	718.615
197.388	18.901	936.136	718.785
198.402	19.098	935.865	719.339
199.417	19.097	935.501	718.992
200.432	19.345	934.698	719.344
201.446	19.201	934.489	718.519
202.461	19.193	933.961	718.015
203.475	19.168	933.198	717.261
204.490	19.167	931.865	716.172
205.504	18.908	931.112	714.454
206.519	18.803	930.427	713.428
207.534	18.850	929.737	713.031
208.548	18.901	929.091	712.683
209.563	18.907	928.586	712.258
210.577	19.067	927.717	712.192
211.592	19.111	927.530	712.166
212.607	19.354	926.379	712.224
213.621	19.241	925.623	711.112
214.636	19.183	924.975	710.311
215.650	19.301	924.197	710.138
216.665	19.349	923.409	709.668
217.680	19.349	923.340	709.551
218.694	19.447	922.321	709.110
219.709	19.363	921.871	708.353
220.723	19.324	921.214	707.628
221.738	19.173	920.582	706.458
222.753	19.182	919.814	705.845
223.767	19.383	919.453	706.330
224.782	19.377	918.971	705.870
225.796	19.474	918.590	705.912
226.811	19.402	917.949	705.064
227.826	19.167	916.587	702.996
228.840	19.412	915.767	703.303
229.855	19.222	915.368	702.161
230.869	19.179	914.653	701.375
231.884	19.113	914.207	700.702
232.899	19.082	913.317	699.833
233.913	19.129	912.390	699.252
234.928	18.980	911.709	698.063
235.942	18.975	911.252	697.631
236.957	19.010	910.961	697.487
237.972	19.073	909.621	696.656
238.986	19.034	909.383	696.255
240.001	18.997	908.440	695.321
241.015	19.195	907.671	695.472
242.030	19.262	907.381	695.456
243.045	19.473	906.802	695.801
244.059	19.308	906.469	694.822
245.074	19.369	906.088	694.711
246.088	19.362	905.381	694.080
247.103	19.455	905.049	694.139
248.117	19.681	904.374	694.467
249.132	19.914	904.155	695.174
250.147	20.087	903.634	695.405
251.161	20.210	902.978	695.335
252.176	20.200	902.125	694.574
253.190	20.230	901.737	694.336
254.205	20.195	901.020	693.582
255.220	20.061	900.314	692.443
256.234	20.067	899.833	692.035
257.249	20.057	899.533	691.701
258.263	19.980	898.178	690.292
259.278	20.056	897.557	690.056
260.293	20.140	897.207	690.061
261.307	20.329	896.831	690.461
262.322	20.243	896.344	689.685
263.336	20.316	895.309	689.118
264.351	20.333	894.343	688.381
265.366	20.347	893.891	688.028
266.380	20.166	893.648	687.060
267.395	20.236	892.432	686.341
268.409	20.142	891.646	685.305
269.424	20.029	890.792	684.144
270.439	20.141	890.060	683.960
271.453	19.821	889.720	682.376
272.468	19.859	889.384	682.209
273.482	19.988	888.561	682.028
274.497	20.066	887.619	681.549
275.512	20.126	887.171	681.381
276.526	20.084	886.642	680.750
277.541	20.157	886.242	680.668
278.555	20.256	885.813	680.668
279.570	20.526	885.199	681.194
280.585	20.381	884.607	680.111
281.599	20.245	883.930	678.995
282.614	20.220	882.719	677.911
283.628	20.251	882.113	677.505
284.643	20.200	881.403	676.700
285.657	20.111	881.139	676.089
286.672	20.151	880.612	675.784
287.687	20.265	879.844	675.576
288.701	20.186	879.300	674.791
289.716	20.244	878.535	674.372
290.730	20.190	878.157	673.813
291.745	20.446	877.158	673.978
292.760	20.486	876.951	673.915
293.774	20.635	876.269	673.910
294.789	20.521	875.500	672.816
295.803	20.359	874.582	671.425
296.818	20.257	873.928	670.468
297.833	20.199	873.723	670.028
298.847	20.222	873.139	669.610
299.862	20.290	872.521	669.338
300.876	20.520	872.053	669.807
301.891	20.581	871.670	669.690
302.906	20.583	871.411	669.440
303.920	20.738	870.876	669.566
304.935	20.899	870.125	669.547
305.949	20.781	869.410	668.484
306.964	20.605	869.028	667.457
307.979	20.622	867.970	666.650
308.993	20.801	867.534	666.941
310.008	20.726	867.391	666.485
311.022	20.671	866.313	665.388
312.037	20.619	865.583	664.570
313.052	20.505	864.845	663.507
314.066	20.379	864.195	662.471
315.081	20.300	863.962	661.932
316.095	20.364	863.255	661.578
317.110	20.391	862.736	661.223
318.125	20.497	862.247	661.192
319.139	20.358	861.540	660.062
320.154	20.382	861.242	659.869
321.168	20.506	860.671	659.841
322.183	20.325	860.646	659.079
323.197	20.539	859.825	659.202
324.212	20.569	859.249	658.817
325.227	20.584	858.577	658.300
326.241	20.485	857.567	657.092
327.256	20.427	857.188	656.524
328.270	20.461	856.820	656.312
329.285	20.478	855.578	655.367
330.300	20.451	855.118	654.854
331.314	20.515	854.865	654.844
332.329	20.701	854.494	655.202
333.343	20.744	854.242	655.114
334.358	20.746	854.140	654.986
335.373	20.815	853.701	654.849
336.387	20.819	853.434	654.601
337.402	20.836	853.172	654.408
338.416	20.930	853.178	654.708
339.431	21.115	852.869	655.107
340.446	21.180	851.919	654.563
341.460	21.233	851.657	654.503
342.475	21.364	850.908	654.358
343.489	21.304	850.754	653.957
344.504	21.470	850.315	654.183
345.519	21.383	849.818	653.419
346.533	21.298	848.647	652.143
347.548	21.076	848.299	650.991
348.562	21.085	847.852	650.623
349.577	20.916	847.055	649.324
350.592	20.807	846.400	648.358
351.606	20.792	845.592	647.628
352.621	20.937	844.874	647.559
353.635	20.812	844.734	646.928
354.650	21.005	843.889	646.940
355.665	20.991	843.476	646.514
356.679	21.201	842.593	646.557
357.694	21.210	841.953	646.042
358.708	21.191	841.219	645.353
359.723	21.154	840.466	644.582
360.738	21.164	840.477	644.568
361.752	21.304	839.646	644.393
362.767	21.418	839.106	644.342
363.781	21.391	838.815	643.960
364.796	21.643	838.685	644.731
365.810	21.621	838.158	644.187
366.825	21.569	838.141	643.926
367.840	21.616	837.558	643.597
368.854	21.498	836.830	642.546
369.869	21.495	836.389	642.140
370.883	21.407	836.015	641.471
371.898	21.703	835.364	642.001
372.913	21.703	835.276	641.876
373.927	21.534	834.784	640.822
374.942	21.673	833.890	640.589
375.956	21.768	833.739	640.761
376.971	21.958	833.261	641.031
377.986	21.932	833.172	640.812
379.000	21.953	832.352	640.202
380.015	21.811	831.902	639.281
381.029	21.914	831.291	639.129
382.044	21.813	830.796	638.324
383.059	21.856	830.287	638.033
384.073	21.789	829.350	637.014
385.088	21.578	828.520	635.553
386.102	21.375	828.473	634.724
387.117	21.603	827.430	634.697
388.132	21.518	826.428	633.564
389.146	21.681	826.208	633.929
390.161	21.816	826.132	634.302
391.175	21.868	825.581	634.013
392.190	21.582	825.012	632.488
393.205	21.667	823.932	631.909
394.219	21.555	824.076	631.560
395.234	21.550	823.602	631.120
396.248	21.578	822.929	630.650
397.263	21.414	822.321	629.541
398.278	21.396	822.124	629.266
399.292	21.366	821.650	628.743
400.307	21.275	821.421	628.183
401.321	21.595	820.825	628.820
402.336	21.492	820.318	628.006
403.350	21.663	820.135	628.425
404.365	21.805	819.479	628.378
405.380	22.003	818.793	628.503
406.394	21.895	818.954	628.186
407.409	21.963	818.670	628.156
408.423	22.189	818.367	628.676
409.438	22.151	817.698	627.969
410.453	22.259	816.681	627.520
411.467	22.378	816.458	627.716
412.482	22.433	816.240	627.690
413.496	22.608	815.544	627.720
414.511	22.482	815.674	627.318
415.526	22.209	815.607	626.238
416.540	22.193	814.800	625.506
417.555	22.296	814.306	625.437
418.569	22.239	813.588	624.630
419.584	22.299	813.305	624.570
420.599	22.260	813.031	624.164
421.613	158.976	1370.032	1789.317
422.628	138.402	1451.185	1789.411
