DTS Sentinel unit serial number:	SN413079Multiplexer serial number:	ORYXHardware model number:	OX4-SRSoftware version number:	ORYX F/W v4.00 Oryx Data Collector v3.7.2.0data status	okinstallation	princeton_trtdifferential loss correction	single-endedforward channel	channel 1reverse channel	N/Adate	2019/09/15time	04:58:35forward acquisition time	60.00reverse acquisition time	0.00gamma	496.2192k internal	0.2324k external	0.2324temperature offset calibration	1.0001default loss term (dB/km)	0.3790temperature slope calibration	1.0000multiplexer offset coefficient	1.0000multiplexer slope coefficient	1.0000fibre end	0.00T internal ref (°C)	30.69T ext. ref 1 (°C)	4.85T ext. ref 2 (°C)	25.14length (m)	temperature (°C)	Stokes	anti-Stokes-747.200	-144.223	0.224	0.021
-746.185	126.356	-0.366	0.468
-745.171	-119.194	-0.239	-0.042
-744.156	101.353	-0.046	-0.055
-743.142	-188.467	-0.153	-0.002
-742.127	-77.654	0.193	0.067
-741.112	-140.371	0.045	-0.005
-740.098	-200.000	0.001	0.135
-739.083	37.283	-0.268	-0.239
-738.069	-200.000	-0.017	-0.184
-737.054	-200.000	0.053	-0.278
-736.039	264.054	-0.089	0.156
-735.025	800.000	-0.046	-0.189
-734.010	-84.353	0.059	-0.019
-732.996	-141.534	-0.688	0.070
-731.981	-168.926	-0.146	0.006
-730.966	-200.000	0.028	-0.164
-729.952	60.658	0.244	-0.244
-728.937	-155.135	-0.128	0.008
-727.923	-200.000	0.012	0.075
-726.908	-10.608	-0.320	0.214
-725.894	-200.000	-0.024	-0.134
-724.879	-24.826	-0.285	0.171
-723.864	800.000	0.114	0.396
-722.850	-157.856	-0.313	-0.019
-721.835	-74.947	0.130	0.047
-720.821	150.453	0.279	0.382
-719.806	-24.641	-0.366	-0.220
-718.791	-67.457	0.140	0.055
-717.777	-6.631	-0.068	0.046
-716.762	45.102	0.150	-0.139
-715.748	800.000	0.073	-0.268
-714.733	-100.982	-0.130	-0.032
-713.718	128.772	0.085	-0.109
-712.704	-87.613	-0.027	-0.008
-711.689	324.090	-0.093	0.180
-710.675	-34.628	0.172	0.095
-709.660	2.664	-0.094	0.068
-708.645	82.625	-0.209	-0.228
-707.631	250.408	-0.169	0.290
-706.616	-200.000	0.020	0.114
-705.602	-200.000	-0.007	-0.361
-704.587	-141.278	-0.104	0.011
-703.572	-76.516	-0.276	-0.098
-702.558	-14.828	0.520	-0.336
-701.543	-94.198	-0.164	0.045
-700.529	-118.849	-0.234	-0.041
-699.514	184.903	-0.066	-0.098
-698.499	-200.000	-0.005	0.089
-697.485	800.000	-0.033	0.094
-696.470	107.358	-0.332	-0.398
-695.456	454.158	0.052	-0.115
-694.441	654.373	0.063	-0.163
-693.426	3.126	-0.069	-0.050
-692.412	38.274	-0.353	0.317
-691.397	-7.221	0.031	0.021
-690.383	-118.020	-0.233	-0.042
-689.368	-108.341	-0.404	-0.088
-688.354	-91.266	-0.243	-0.070
-687.339	-79.670	0.128	-0.043
-686.324	191.210	-0.094	0.142
-685.310	91.384	0.133	0.150
-684.295	655.646	0.149	-0.386
-683.281	-200.000	0.001	0.131
-682.266	54.123	-0.117	-0.114
-681.251	148.125	-0.217	-0.295
-680.237	-33.482	0.252	-0.140
-679.222	-102.877	0.143	-0.034
-678.208	-139.968	0.088	-0.009
-677.193	-136.149	-0.513	0.061
-676.178	-200.000	0.020	0.136
-675.164	83.066	-0.197	0.216
-674.149	-200.000	0.009	-0.184
-673.135	77.750	-0.209	-0.224
-672.120	228.057	-0.248	-0.407
-671.105	-58.936	-0.292	-0.127
-670.091	-166.491	0.276	0.012
-669.076	-35.585	-0.265	-0.145
-668.062	-89.833	0.219	0.064
-667.047	-200.000	-0.002	-0.038
-666.032	104.488	-0.106	-0.126
-665.018	230.035	0.074	-0.121
-664.003	-200.000	0.001	0.185
-662.989	36.338	-0.354	-0.314
-661.974	161.743	-0.056	0.079
-660.959	251.112	0.077	-0.132
-659.945	94.738	-0.110	-0.126
-658.930	-78.002	0.174	-0.060
-657.916	-67.668	0.199	0.078
-656.901	-200.000	0.006	-0.107
-655.886	-118.232	-0.294	-0.053
-654.872	-21.813	0.166	-0.102
-653.857	589.481	-0.053	-0.132
-652.843	149.648	0.074	0.100
-651.828	-71.748	0.123	0.046
-650.814	56.643	0.244	0.239
-649.799	-43.723	0.106	-0.054
-648.784	800.000	0.069	-0.294
-647.770	18.126	-0.299	-0.240
-646.755	-200.000	0.031	-0.158
-645.741	479.934	-0.078	0.179
-644.726	38.733	0.014	-0.012
-643.711	8.228	0.136	0.102
-642.697	-200.000	0.000	0.119
-641.682	-200.000	-0.009	0.268
-640.668	-200.000	0.004	-0.117
-639.653	-124.124	0.415	0.065
-638.638	3.270	-0.132	-0.097
-637.624	34.876	-0.242	-0.212
-636.609	-113.553	-0.066	0.013
-635.595	332.832	-0.068	0.131
-634.580	-68.245	-0.156	0.061
-633.565	629.579	-0.104	0.265
-632.551	-200.000	0.043	0.215
-631.536	-22.557	-0.264	0.160
-630.522	-95.534	0.221	0.060
-629.507	-117.164	0.136	-0.025
-628.492	-200.000	0.037	-0.253
-627.478	-200.000	0.023	-0.332
-626.463	-115.126	-0.375	0.072
-625.449	65.793	0.273	-0.278
-624.434	800.000	-0.123	-0.353
-623.419	-120.204	0.174	0.030
-622.405	-12.180	0.170	0.112
-621.390	-9.323	0.148	-0.100
-620.376	-117.452	0.135	0.025
-619.361	101.400	-0.113	-0.132
-618.346	42.677	0.228	0.208
-617.332	800.000	0.102	-0.363
-616.317	800.000	-0.083	-0.300
-615.303	241.753	0.203	0.341
-614.288	-92.772	-0.052	-0.015
-613.273	259.042	-0.124	-0.216
-612.259	723.831	-0.035	-0.093
-611.244	109.000	-0.076	-0.091
-610.230	-78.752	0.205	0.070
-609.215	-149.704	-0.169	0.013
-608.201	-7.538	0.084	0.057
-607.186	468.902	-0.061	0.138
-606.171	72.271	-0.316	0.330
-605.157	-200.000	0.010	-0.047
-604.142	56.194	0.077	0.075
-603.128	90.384	-0.054	-0.061
-602.113	78.948	0.069	-0.074
-601.098	-50.636	-0.137	-0.065
-600.084	-200.000	0.007	-0.068
-599.069	15.613	-0.253	0.200
-598.055	-69.549	0.286	0.110
-597.040	86.509	0.285	0.316
-596.025	341.831	0.145	-0.284
-595.011	170.567	-0.045	0.065
-593.996	-149.414	-0.129	0.010
-592.982	-18.791	0.108	-0.067
-591.967	-200.000	0.001	-0.192
-590.952	177.177	-0.182	-0.266
-589.938	112.416	-0.030	-0.036
-588.923	-200.000	-0.053	-0.264
-587.909	-8.570	0.165	-0.111
-586.894	138.107	0.067	-0.088
-585.879	-42.474	0.158	0.081
-584.865	129.212	0.121	0.155
-583.850	6.858	-0.056	-0.042
-582.836	260.363	-0.026	-0.045
-581.821	-21.123	-0.102	0.063
-580.806	-8.060	-0.183	0.124
-579.792	4.366	-0.109	0.080
-578.777	204.620	0.047	-0.073
-577.763	89.235	-0.191	-0.213
-576.748	55.292	0.139	0.135
-575.733	97.491	-0.134	0.155
-574.719	-200.000	0.009	0.048
-573.704	146.614	0.193	0.260
-572.690	800.000	-0.049	0.185
-571.675	800.000	-0.043	0.127
-570.661	262.355	0.172	-0.299
-569.646	466.159	-0.017	0.039
-568.631	199.959	0.107	-0.164
-567.617	800.000	0.054	0.166
-566.602	236.123	0.119	0.198
-565.588	631.272	-0.074	0.188
-564.573	-200.000	-0.038	0.201
-563.558	800.000	-0.010	0.035
-562.544	-200.000	-0.022	0.148
-561.529	-18.682	-0.174	-0.109
-560.515	60.830	-0.213	-0.212
-559.500	-200.000	0.005	-0.025
-558.485	224.948	0.074	-0.120
-557.471	61.000	0.066	-0.066
-556.456	38.660	-0.161	-0.144
-555.442	-200.000	0.001	0.077
-554.427	132.188	-0.174	0.225
-553.412	22.662	-0.149	-0.122
-552.398	-200.000	-0.008	0.072
-551.383	-17.011	0.168	0.106
-550.369	-42.807	-0.067	-0.034
-549.354	143.011	-0.042	-0.057
-548.339	-200.000	-0.000	0.343
-547.325	7.209	-0.306	0.229
-546.310	800.000	-0.021	0.063
-545.296	101.486	0.128	0.150
-544.281	-140.298	0.254	-0.027
-543.266	-114.531	-0.220	-0.042
-542.252	-200.000	0.036	-0.281
-541.237	604.346	0.200	-0.498
-540.223	-200.000	-0.025	0.187
-539.208	800.000	0.066	0.238
-538.193	800.000	0.020	-0.080
-537.179	-84.775	0.286	0.090
-536.164	-131.446	-0.074	-0.010
-535.150	64.634	-0.199	-0.201
-534.135	-200.000	0.012	0.241
-533.121	-67.893	0.058	-0.023
-532.106	-101.204	-0.135	-0.033
-531.091	800.000	-0.042	0.158
-530.077	417.089	-0.141	-0.302
-529.062	-200.000	0.041	-0.305
-528.048	-60.079	-0.315	-0.135
-527.033	48.867	-0.063	0.059
-526.018	-34.729	0.147	-0.081
-525.004	-124.577	0.094	0.015
-523.989	-200.000	-0.006	0.160
-522.975	2.320	0.271	0.196
-521.960	-8.157	0.136	-0.092
-520.945	125.579	-0.108	0.136
-519.931	-113.921	-0.065	0.013
-518.916	-50.625	-0.313	0.148
-517.902	-200.000	0.030	0.228
-516.887	-116.899	-0.238	0.044
-515.872	-126.516	-0.237	0.035
-514.858	800.000	0.060	-0.183
-513.843	426.025	-0.091	-0.197
-512.829	-200.000	-0.005	-0.062
-511.814	-163.011	0.119	-0.006
-510.799	-64.231	-0.040	-0.016
-509.785	65.042	0.082	0.083
-508.770	-147.787	0.271	-0.023
-507.756	90.762	-0.187	-0.210
-506.741	800.000	0.024	-0.082
-505.726	-200.000	-0.033	-0.244
-504.712	-100.973	0.371	0.091
-503.697	-200.000	0.009	-0.096
-502.683	712.102	0.035	-0.093
-501.668	-200.000	-0.029	-0.135
-500.653	-57.854	-0.317	-0.139
-499.639	123.944	-0.222	0.279
-498.624	-71.173	0.218	-0.082
-497.610	-143.708	-0.126	0.012
-496.595	-42.654	-0.479	-0.243
-495.581	-147.952	-0.114	0.010
-494.566	259.397	-0.077	0.133
-493.551	25.116	0.227	0.188
-492.537	800.000	-0.071	-0.217
-491.522	-159.078	0.050	-0.003
-490.508	75.858	0.318	0.336
-489.493	800.000	-0.119	0.377
-488.478	-28.242	-0.200	0.115
-487.464	719.301	-0.032	-0.084
-486.449	458.029	-0.119	0.265
-485.435	-78.720	0.232	-0.079
-484.420	-141.901	0.067	0.007
-483.405	800.000	-0.045	-0.146
-482.391	-38.107	0.262	-0.139
-481.376	-200.000	0.001	-0.445
-480.362	-200.000	0.007	-0.313
-479.347	-12.174	0.260	0.170
-478.332	800.000	0.086	0.371
-477.318	-179.862	-0.194	0.004
-476.303	141.242	0.261	-0.345
-475.289	-133.043	-0.030	-0.004
-474.274	-200.000	-0.008	-0.129
-473.259	-59.888	-0.103	0.044
-472.245	-30.525	0.274	0.155
-471.230	800.000	0.035	0.144
-470.216	161.561	-0.187	0.261
-469.201	-45.692	-0.261	0.129
-468.186	800.000	0.142	0.410
-467.172	800.000	-0.037	-0.122
-466.157	91.111	0.124	-0.139
-465.143	1.697	0.099	-0.071
-464.128	-145.710	-0.256	0.023
-463.113	72.653	0.241	0.252
-462.099	79.675	-0.143	-0.153
-461.084	46.184	-0.158	-0.146
-460.070	367.028	0.063	-0.128
-459.055	800.000	-0.053	0.185
-458.040	210.385	0.130	-0.204
-457.026	129.389	0.091	0.116
-456.011	-49.663	0.232	0.110
-454.997	-200.000	0.003	-0.060
-453.982	-1.713	0.043	0.030
-452.968	166.289	0.135	0.191
-451.953	-136.839	-0.163	-0.019
-450.938	30.961	0.150	0.128
-449.924	583.804	0.044	0.108
-448.909	-60.966	0.122	-0.051
-447.895	-14.340	-0.247	-0.158
-446.880	-138.056	0.380	0.042
-445.865	-175.721	0.347	-0.009
-444.851	68.912	-0.176	-0.180
-443.836	604.046	-0.132	-0.327
-442.822	-151.934	0.267	-0.019
-441.807	-30.505	0.317	-0.179
-440.792	800.000	0.110	-0.303
-439.778	524.336	0.114	-0.266
-438.763	19.528	0.168	-0.134
-437.749	22.483	-0.182	-0.149
-436.734	130.621	0.076	0.097
-435.719	41.807	-0.230	0.208
-434.705	19.599	-0.281	0.225
-433.690	-200.000	-0.029	-0.184
-432.676	-115.067	0.263	-0.050
-431.661	-90.958	-0.250	-0.072
-430.646	31.297	-0.246	0.211
-429.632	-53.436	0.203	0.093
-428.617	800.000	-0.039	0.136
-427.603	319.545	0.100	0.189
-426.588	-55.696	0.082	-0.036
-425.573	33.423	-0.127	0.110
-424.559	-200.000	-0.022	0.148
-423.544	-200.000	0.009	-0.059
-422.530	-120.463	0.178	-0.030
-421.515	36.681	0.202	-0.178
-420.500	-47.980	0.254	0.122
-419.486	477.972	0.053	0.120
-418.471	376.659	-0.028	0.057
-417.457	-200.000	0.037	0.160
-416.442	242.168	0.055	-0.091
-415.428	127.085	-0.164	-0.207
-414.413	-116.233	0.302	0.056
-413.398	-31.695	0.216	-0.121
-412.384	67.637	0.064	-0.065
-411.369	-19.953	0.047	0.029
-410.355	-200.000	-0.017	0.123
-409.340	183.397	-0.070	-0.102
-408.325	136.068	-0.247	0.321
-407.311	800.000	0.073	0.223
-406.296	800.000	0.052	-0.163
-405.282	-3.661	-0.487	-0.337
-404.267	800.000	-0.097	-0.386
-403.252	320.012	0.075	0.142
-402.238	-200.000	0.067	-0.351
-401.223	-12.334	-0.279	0.181
-400.209	-31.406	0.188	0.105
-399.194	800.000	0.066	0.189
-398.179	800.000	-0.069	0.216
-397.165	463.478	0.104	0.231
-396.150	-12.069	-0.118	-0.077
-395.136	-53.724	-0.125	0.057
-394.121	800.000	-0.076	-0.247
-393.106	53.450	-0.156	0.149
-392.092	-95.124	0.194	-0.052
-391.077	407.128	-0.224	0.470
-390.063	-13.430	0.247	0.160
-389.048	800.000	-0.022	0.082
-388.033	42.933	-0.197	0.179
-387.019	126.614	-0.098	0.124
-386.004	104.980	-0.052	-0.061
-384.990	-29.684	-0.268	0.152
-383.975	-200.000	0.043	0.227
-382.960	800.000	0.084	-0.287
-381.946	-116.618	-0.273	-0.050
-380.931	27.276	0.162	0.136
-379.917	-82.829	0.065	-0.021
-378.902	-200.000	0.044	-0.207
-377.888	117.240	-0.103	0.126
-376.873	-200.000	0.016	0.101
-375.858	800.000	-0.050	0.212
-374.844	19.594	0.244	-0.195
-373.829	3.210	0.335	-0.242
-372.815	800.000	-0.046	0.152
-371.800	42.016	-0.189	-0.171
-370.785	-165.594	-0.152	0.007
-369.771	-200.000	-0.008	0.047
-368.756	-200.000	0.021	-0.164
-367.742	474.887	0.103	-0.232
-366.727	-150.427	-0.199	0.015
-365.712	-122.370	0.166	0.027
-364.698	112.494	0.047	-0.057
-363.683	176.402	0.050	0.072
-362.669	40.637	-0.043	-0.039
-361.654	29.881	-0.192	0.163
-360.639	-173.512	0.388	0.012
-359.625	143.156	0.376	-0.497
-358.610	37.961	0.118	-0.105
-357.596	800.000	-0.026	0.082
-356.581	48.265	-0.096	-0.089
-355.566	148.932	0.201	0.270
-354.552	-115.161	-0.090	-0.017
-353.537	32.550	-0.144	-0.124
-352.523	316.098	-0.116	0.217
-351.508	2.865	-0.438	-0.316
-350.493	19.760	0.078	-0.062
-349.479	-200.000	0.022	-0.120
-348.464	-63.930	-0.200	-0.081
-347.450	-95.474	0.271	0.072
-346.435	800.000	0.061	0.180
-345.420	77.198	0.331	0.350
-344.406	391.455	0.120	-0.247
-343.391	-97.967	-0.260	-0.067
-342.377	76.554	0.074	-0.078
-341.362	51.001	-0.181	-0.171
-340.348	536.193	0.079	-0.187
-339.333	-200.000	0.029	0.161
-338.318	-100.342	-0.134	-0.033
-337.304	263.362	0.070	0.121
-336.289	-49.362	0.571	-0.271
-335.275	-107.127	0.171	-0.038
-334.260	49.812	-0.278	-0.261
-333.245	-25.583	-0.145	0.085
-332.231	-200.000	0.006	0.296
-331.216	128.377	-0.055	0.069
-330.202	-200.000	-0.018	0.178
-329.187	800.000	-0.001	-0.004
-328.172	-10.993	0.384	-0.252
-327.158	-21.029	-0.403	-0.245
-326.143	126.610	0.098	-0.124
-325.129	724.329	-0.115	0.304
-324.114	543.640	-0.041	-0.098
-323.099	-88.019	0.291	0.087
-322.085	-57.691	-0.247	-0.107
-321.070	-69.231	0.526	0.201
-320.056	-200.000	0.055	0.265
-319.041	-93.746	-0.299	0.082
-318.026	29.289	0.180	0.152
-317.012	-200.000	-0.023	-0.319
-315.997	800.000	0.024	0.079
-314.983	-200.000	0.029	-0.175
-313.968	151.092	0.042	-0.057
-312.953	-161.977	-0.495	0.025
-311.939	-200.000	0.018	-0.347
-310.924	-54.638	0.285	0.128
-309.910	-64.233	0.256	0.104
-308.895	69.421	-0.188	-0.192
-307.880	800.000	0.017	0.049
-306.866	-114.721	0.108	-0.020
-305.851	800.000	0.073	-0.227
-304.837	704.937	-0.164	-0.428
-303.822	4.189	0.259	-0.188
-302.807	-21.733	0.250	-0.151
-301.793	653.357	-0.206	0.525
-300.778	206.949	-0.126	-0.195
-299.764	136.759	-0.056	0.072
-298.749	-150.664	-0.134	0.010
-297.735	-55.807	-0.138	-0.061
-296.720	8.707	-0.167	0.125
-295.705	-200.000	-0.021	-0.240
-294.691	-200.000	0.042	0.320
-293.676	-131.470	-0.126	0.017
-292.662	22.029	0.196	-0.159
-291.647	46.618	-0.291	0.268
-290.632	-152.477	0.223	-0.016
-289.618	526.783	-0.077	0.180
-288.603	-47.266	-0.230	-0.111
-287.589	800.000	-0.035	0.131
-286.574	-200.000	0.025	0.249
-285.559	-83.879	-0.083	-0.026
-284.545	489.211	-0.218	0.493
-283.530	-144.828	0.219	0.020
-282.516	-108.875	0.107	-0.023
-281.501	135.405	-0.096	0.124
-280.486	800.000	0.092	0.312
-279.472	227.157	-0.169	-0.273
-278.457	183.743	-0.108	-0.158
-277.443	-200.000	0.028	0.272
-276.428	-200.000	-0.014	-0.116
-275.413	728.708	-0.072	0.191
-274.399	-79.790	-0.224	-0.075
-273.384	-200.000	0.007	-0.035
-272.370	186.059	-0.150	0.221
-271.355	800.000	-0.036	0.139
-270.340	-103.201	-0.110	-0.026
-269.326	384.814	0.075	-0.153
-268.311	-61.218	0.212	0.089
-267.297	-200.000	-0.014	0.253
-266.282	-36.962	0.154	-0.082
-265.267	0.660	-0.248	0.176
-264.253	-87.741	0.188	0.056
-263.238	23.972	0.327	0.267
-262.224	139.076	0.048	-0.063
-261.209	-33.577	-0.083	-0.046
-260.195	-200.000	0.061	-0.368
-259.180	-200.000	0.011	-0.173
-258.165	-14.542	-0.183	-0.116
-257.151	52.819	0.263	0.249
-256.136	47.402	-0.111	-0.103
-255.122	-108.274	-0.193	0.041
-254.107	800.000	0.148	0.430
-253.092	116.018	0.085	0.103
-252.078	576.538	0.167	-0.403
-251.063	800.000	-0.077	-0.233
-250.049	-200.000	-0.095	-0.438
-249.034	-200.000	0.014	-0.063
-248.019	-37.683	0.168	-0.088
-247.005	773.200	0.079	-0.213
-245.990	-119.797	-0.344	0.059
-244.976	-200.000	0.014	0.236
-243.961	-200.000	0.040	0.220
-242.946	53.090	-0.143	0.136
-241.932	-200.000	-0.041	0.302
-240.917	-105.398	0.235	0.053
-239.903	-149.936	-0.154	0.012
-238.888	-200.000	0.040	-0.210
-237.873	-160.254	-0.425	-0.023
-236.859	-20.389	0.204	0.124
-235.844	-200.000	-0.008	0.414
-234.830	133.626	0.175	-0.224
-233.815	-45.356	0.077	-0.038
-232.800	58.430	-0.163	-0.158
-231.786	535.648	-0.050	0.118
-230.771	145.294	-0.137	-0.181
-229.757	51.752	0.216	-0.203
-228.742	-75.890	0.180	0.063
-227.727	800.000	-0.022	-0.090
-226.713	25.927	0.208	0.171
-225.698	97.326	0.142	0.162
-224.684	155.963	-0.063	0.086
-223.669	-200.000	-0.033	-0.317
-222.655	284.184	0.094	0.168
-221.640	415.243	-0.127	0.267
-220.625	106.992	0.223	-0.262
-219.611	-67.476	-0.226	0.088
-218.596	51.067	0.219	0.206
-217.582	-28.196	0.113	0.065
-216.567	-143.172	0.316	-0.030
-215.552	-148.136	-0.485	0.040
-214.538	-143.018	-0.185	0.018
-213.523	-113.047	0.381	-0.074
-212.509	-174.712	0.118	0.003
-211.494	-48.148	0.208	0.099
-210.479	-107.382	-0.198	-0.043
-209.465	-200.000	-0.029	-0.283
-208.450	228.096	-0.157	0.252
-207.436	-200.000	0.011	-0.112
-206.421	800.000	0.063	-0.224
-205.406	354.094	0.140	-0.275
-204.392	-200.000	-0.046	-0.222
-203.377	-102.622	-0.207	0.049
-202.363	-200.000	-0.004	-0.101
-201.348	-18.095	-0.097	0.060
-200.333	-60.322	-0.231	0.097
-199.319	-200.000	0.059	0.299
-198.304	276.699	0.035	0.062
-197.290	-73.711	0.171	0.062
-196.275	45.085	-0.092	0.084
-195.260	-79.655	-0.151	0.050
-194.246	-60.642	-0.052	-0.022
-193.231	-18.154	0.323	0.200
-192.217	-1.007	0.198	0.139
-191.202	-48.337	-0.242	-0.115
-190.187	-200.000	-0.010	0.056
-189.173	516.428	0.052	0.119
-188.158	-37.869	-0.023	0.012
-187.144	-148.732	-0.237	0.019
-186.129	188.460	0.129	-0.191
-185.114	-200.000	0.024	-0.368
-184.100	-60.957	-0.338	-0.141
-183.085	-118.642	-0.170	0.030
-182.071	-73.934	-0.277	-0.099
-181.056	-112.875	0.134	-0.026
-180.042	800.000	0.125	0.446
-179.027	152.664	0.205	-0.276
-178.012	800.000	-0.031	0.121
-176.998	273.007	-0.178	0.311
-175.983	800.000	0.049	-0.194
-174.969	-134.657	0.243	-0.029
-173.954	-171.254	-0.225	0.007
-172.939	196.394	-0.044	0.066
-171.925	-163.342	-0.150	-0.007
-170.910	-126.989	-0.218	0.032
-169.896	86.031	0.133	-0.145
-168.881	800.000	0.071	-0.233
-167.866	195.082	-0.149	0.223
-166.852	-200.000	0.027	0.404
-165.837	-17.864	-0.106	0.066
-164.823	-29.008	0.174	0.099
-163.808	-65.622	-0.149	0.059
-162.793	800.000	0.026	-0.082
-161.779	336.581	0.141	-0.270
-160.764	-200.000	0.021	-0.297
-159.750	800.000	-0.034	-0.128
-158.735	-200.000	0.006	-0.176
-157.720	800.000	-0.045	0.181
-156.706	-65.198	0.346	0.138
-155.691	-131.508	-0.227	-0.030
-154.677	800.000	0.055	-0.169
-153.662	-200.000	-0.057	-0.386
-152.647	-53.956	-0.324	0.146
-151.633	-44.210	-0.088	0.044
-150.618	-59.295	-0.208	-0.088
-149.604	800.000	-0.038	0.138
-148.589	-124.144	0.316	-0.049
-147.574	-70.628	-0.046	-0.017
-146.560	-87.600	-0.120	0.036
-145.545	28.325	-0.174	0.145
-144.531	-200.000	0.008	-0.126
-143.516	79.865	-0.096	0.102
-142.502	-104.314	-0.231	-0.053
-141.487	-145.295	-0.316	0.028
-140.472	29.453	0.098	0.082
-139.458	-43.681	-0.056	-0.028
-138.443	800.000	0.085	-0.244
-137.429	-93.647	0.470	-0.128
-136.414	8.022	0.094	0.070
-135.399	292.460	0.208	0.373
-134.385	-75.040	0.037	-0.013
-133.370	-46.124	-0.134	-0.065
-132.356	-3.445	-0.199	-0.137
-131.341	61.623	-0.089	0.088
-130.326	-200.000	0.015	-0.156
-129.312	16.873	0.074	0.058
-128.297	182.775	0.053	0.077
-127.283	-33.854	-0.154	0.084
-126.268	683.433	-0.140	0.359
-125.253	80.541	-0.138	-0.146
-124.239	-200.000	0.033	0.153
-123.224	-200.000	-0.085	-0.371
-122.210	-200.000	-0.005	-0.375
-121.195	83.511	0.081	0.087
-120.180	800.000	0.087	0.286
-119.166	443.035	0.161	-0.348
-118.151	51.149	0.146	-0.136
-117.137	-200.000	-0.011	-0.174
-116.122	-200.000	-0.011	-0.198
-115.107	-38.802	-0.210	0.109
-114.093	171.132	0.079	-0.111
-113.078	-81.061	-0.167	0.054
-112.064	42.148	0.083	-0.075
-111.049	-87.540	-0.240	-0.072
-110.034	435.792	-0.133	-0.285
-109.020	-200.000	0.028	-0.226
-108.005	-200.000	0.061	-0.333
-106.991	433.361	0.077	0.164
-105.976	-88.871	-0.290	-0.085
-104.962	-72.789	0.208	0.076
-103.947	-15.193	-0.061	0.039
-102.932	240.425	-0.078	-0.128
-101.918	192.049	0.013	0.019
-100.903	-142.819	-0.251	-0.024
-99.889	-200.000	0.004	0.088
-98.874	-200.000	-0.084	0.396
-97.859	-11.260	0.348	0.226
-96.845	-84.911	0.216	0.067
-95.830	82.213	0.072	0.077
-94.816	-194.911	-0.230	-0.002
-93.801	175.123	-0.176	0.251
-92.786	57.492	0.274	-0.264
-91.772	-87.051	-0.367	-0.110
-90.757	800.000	0.064	0.226
-89.743	121.986	-0.090	0.111
-88.728	-99.773	-0.141	0.035
-87.713	144.388	-0.067	-0.089
-86.699	16.450	0.313	-0.243
-85.684	322.205	-0.127	0.238
-84.670	-35.344	0.173	-0.093
-83.655	39.797	-0.206	-0.182
-82.640	-200.000	-0.007	0.276
-81.626	800.000	-0.019	0.064
-80.611	-118.893	0.217	-0.038
-79.597	23.460	-0.136	0.110
-78.582	-200.000	-0.018	0.442
-77.567	454.927	0.053	-0.116
-76.553	-96.692	0.221	0.057
-75.538	-107.597	0.077	0.016
-74.524	800.000	0.056	-0.153
-73.509	-99.843	-0.201	-0.049
-72.494	-200.000	-0.083	-0.471
-71.480	-156.711	-0.230	-0.014
-70.465	51.382	0.128	0.119
-69.451	800.000	0.092	-0.275
-68.436	754.052	0.094	0.249
-67.422	-200.000	0.021	0.206
-66.407	28.124	0.177	0.147
-65.392	6.299	-0.091	-0.066
-64.378	100.625	-0.313	-0.358
-63.363	-13.502	0.111	-0.071
-62.349	424.581	0.059	-0.124
-61.334	-2.095	-1.054	-0.728
-60.319	224.039	0.420	0.667
-59.305	681.907	-0.427	-1.094
-58.290	130.279	0.828	1.042
-57.276	800.000	0.521	1.458
-56.261	-200.000	102.769	586.093
-55.246	548.905	1434.039	3376.101
-54.232	187.842	2620.516	3845.004
-53.217	115.903	2145.333	2579.567
-52.203	42.499	1592.858	1423.629
-51.188	34.216	1328.395	1137.972
-50.173	31.121	1286.541	1084.126
-49.159	54.318	1338.114	1265.621
-48.144	55.846	1354.467	1290.080
-47.130	34.422	1310.356	1123.555
-46.115	30.896	1293.080	1088.149
-45.100	30.729	1288.320	1083.128
-44.086	30.643	1285.817	1080.481
-43.071	30.675	1283.002	1078.255
-42.057	30.449	1281.775	1075.874
-41.042	30.593	1279.439	1074.701
-40.027	30.647	1278.572	1074.246
-39.013	30.621	1276.582	1072.381
-37.998	30.581	1274.903	1070.697
-36.984	30.687	1273.073	1069.725
-35.969	30.660	1271.074	1067.850
-34.954	30.715	1269.614	1066.892
-33.940	30.701	1268.134	1065.531
-32.925	30.791	1266.925	1064.987
-31.911	30.792	1265.404	1063.670
-30.896	30.754	1264.186	1062.386
-29.881	30.825	1262.563	1061.387
-28.867	30.766	1261.533	1060.143
-27.852	30.873	1259.781	1059.234
-26.838	30.834	1258.495	1057.894
-25.823	30.808	1256.958	1056.413
-24.809	30.854	1255.642	1055.520
-23.794	30.770	1254.791	1054.291
-22.779	30.721	1253.650	1053.014
-21.765	30.808	1251.657	1051.787
-20.750	30.637	1251.074	1050.291
-19.736	30.671	1249.401	1049.037
-18.721	30.607	1248.464	1047.848
-17.706	30.736	1247.105	1047.393
-16.692	30.697	1246.386	1046.525
-15.677	30.583	1245.079	1044.746
-14.663	30.606	1243.711	1043.684
-13.648	30.549	1242.847	1042.599
-12.633	30.642	1241.698	1042.114
-11.619	30.621	1240.761	1041.173
-10.604	30.533	1239.834	1039.860
-9.590	30.676	1239.102	1040.003
-8.575	30.658	1238.179	1039.084
-7.560	30.656	1236.947	1038.002
-6.546	30.659	1236.075	1037.247
-5.531	30.500	1235.848	1036.127
-4.517	30.562	1234.851	1035.597
-3.502	30.652	1233.680	1035.070
-2.487	30.592	1232.935	1034.070
-1.473	30.540	1228.885	1030.348
-0.458	29.106	1214.034	1009.994
0.556	24.593	1196.713	972.515
1.571	20.905	1202.399	956.843
2.586	19.875	1217.341	962.914
3.600	19.644	1206.450	952.942
4.615	15.310	1136.557	875.087
5.629	8.119	1065.305	784.868
6.644	5.025	1047.240	756.497
7.659	4.808	1044.550	753.436
8.673	4.752	1043.210	752.133
9.688	4.826	1042.120	751.640
10.702	4.979	1039.686	750.551
11.717	8.949	1045.564	773.921
12.731	15.502	1055.088	812.715
13.746	18.582	1058.000	829.813
14.761	17.979	1057.261	826.242
15.775	17.029	1054.861	819.707
16.790	16.170	1052.416	813.591
17.804	15.279	1051.134	808.237
18.819	14.989	1050.154	806.016
19.834	14.770	1049.056	804.046
20.848	14.664	1048.257	802.852
21.863	14.291	1047.498	800.407
22.877	14.282	1046.530	799.553
23.892	14.139	1046.178	798.530
24.907	14.050	1045.812	797.750
25.921	14.205	1044.438	797.377
26.936	14.168	1043.286	796.249
27.950	14.266	1041.808	795.517
28.965	14.400	1039.893	794.626
29.980	14.358	1038.824	793.539
30.994	14.390	1037.539	792.636
32.009	14.413	1036.866	792.162
33.023	14.481	1035.450	791.333
34.038	14.531	1034.061	790.437
35.053	14.269	1033.515	788.708
36.067	14.178	1033.110	787.900
37.082	14.313	1032.315	787.862
38.096	14.370	1031.350	787.328
39.111	14.368	1030.772	786.807
40.126	14.280	1029.680	785.486
41.140	14.118	1028.272	783.581
42.155	13.939	1026.713	781.483
43.169	13.987	1025.853	780.985
44.184	14.052	1024.897	780.491
45.199	14.058	1024.134	779.870
46.213	14.225	1022.540	779.369
47.228	14.204	1021.609	778.494
48.242	14.283	1020.870	778.228
49.257	14.285	1019.829	777.377
50.271	14.193	1019.260	776.445
51.286	14.328	1018.125	776.141
52.301	14.225	1017.279	774.947
53.315	14.089	1016.210	773.433
54.330	14.187	1014.883	772.809
55.344	14.139	1014.208	772.005
56.359	14.199	1013.360	771.568
57.374	14.106	1012.326	770.283
58.388	14.064	1011.525	769.410
59.403	13.922	1010.855	768.174
60.417	14.078	1010.014	768.188
61.432	14.003	1009.264	767.205
62.447	13.931	1008.397	766.146
63.461	13.988	1007.388	765.573
64.476	13.928	1006.974	764.918
65.490	13.971	1005.776	764.138
66.505	13.959	1005.126	763.518
67.520	13.978	1004.461	763.036
68.534	14.056	1003.724	762.762
69.549	13.941	1003.277	761.829
70.563	13.941	1002.474	761.152
71.578	13.946	1001.603	760.444
72.593	13.864	1001.256	759.739
73.607	13.901	1000.219	759.054
74.622	13.876	999.717	758.495
75.636	13.884	998.946	757.875
76.651	13.925	997.965	757.253
77.666	13.909	997.942	757.094
78.680	13.957	997.279	756.743
79.695	14.121	996.104	756.530
80.709	14.110	995.872	756.238
81.724	13.980	995.513	755.310
82.739	14.178	994.176	755.128
83.753	14.169	994.007	754.889
84.768	14.263	992.780	754.316
85.782	14.443	992.069	754.526
86.797	14.243	991.715	753.285
87.812	14.268	990.137	752.133
88.826	14.322	989.384	751.739
89.841	14.312	988.621	751.045
90.855	14.309	987.811	750.350
91.870	14.358	987.093	749.962
92.884	14.338	985.760	748.789
93.899	14.480	985.230	748.958
94.914	14.439	984.431	748.102
95.928	14.571	983.455	747.888
96.943	14.350	982.839	746.362
97.957	14.342	981.959	745.590
98.972	14.324	981.382	745.008
99.987	14.436	980.250	744.583
101.001	14.330	979.663	743.597
102.016	14.345	978.819	742.959
103.030	14.359	977.984	742.319
104.045	14.454	977.007	741.935
105.060	14.412	976.072	740.974
106.074	14.258	975.115	739.498
107.089	14.168	974.180	738.322
108.103	14.076	973.142	737.064
109.118	14.119	972.319	736.567
110.133	14.041	971.622	735.628
111.147	14.045	970.767	734.932
112.162	14.074	970.063	734.460
113.176	14.151	969.193	734.078
114.191	14.175	968.805	733.825
115.206	14.143	967.888	732.927
116.220	14.223	966.879	732.447
117.235	14.188	966.265	731.762
118.249	14.154	965.577	731.027
119.264	14.056	964.782	729.934
120.279	14.032	963.957	729.136
121.293	14.183	962.748	728.820
122.308	14.000	961.855	727.278
123.322	14.000	961.189	726.713
124.337	13.964	960.192	725.736
125.352	14.006	959.113	725.041
126.366	14.150	957.790	724.602
127.381	14.099	957.156	723.837
128.395	14.065	956.655	723.244
129.410	13.990	955.843	722.240
130.424	14.173	954.725	722.127
131.439	14.158	954.035	721.477
132.454	14.286	953.168	721.311
133.468	14.111	952.702	720.138
134.483	14.259	951.544	719.840
135.497	14.167	950.975	718.947
136.512	14.351	949.769	718.766
137.527	14.320	949.239	718.167
138.541	14.192	948.590	717.062
139.556	14.263	948.125	716.952
140.570	14.489	947.135	717.112
141.585	14.446	946.221	716.173
142.600	14.368	945.695	715.376
143.614	14.525	944.444	715.038
144.629	14.565	943.576	714.489
145.643	14.489	943.163	713.789
146.658	14.432	941.865	712.500
147.673	14.516	940.685	711.902
148.687	14.372	940.080	710.766
149.702	14.285	939.510	709.904
150.716	14.272	939.003	709.401
151.731	14.330	938.057	708.872
152.746	14.325	937.380	708.276
153.760	14.309	937.167	707.982
154.775	14.299	936.575	707.431
155.789	14.410	935.753	707.219
156.804	14.588	935.030	707.365
157.819	14.554	934.581	706.816
158.833	14.515	933.775	705.980
159.848	14.643	932.708	705.654
160.862	14.550	931.852	704.549
161.877	14.352	930.900	702.934
162.892	14.409	930.290	702.649
163.906	14.419	929.356	701.927
164.921	14.455	928.285	701.206
165.935	14.404	927.577	700.392
166.950	14.452	926.496	699.719
167.964	14.562	925.739	699.544
168.979	14.413	925.070	698.352
169.994	14.514	924.265	698.106
171.008	14.464	923.810	697.491
172.023	14.575	922.669	697.033
173.037	14.534	922.564	696.721
174.052	14.536	921.578	695.921
175.067	14.498	920.595	694.960
176.081	14.489	920.072	694.467
177.096	14.322	920.125	693.751
178.110	14.460	919.470	693.769
179.125	14.601	918.284	693.398
180.140	14.555	918.119	693.020
181.154	14.616	917.464	692.719
182.169	14.785	916.972	692.987
183.183	14.797	916.657	692.736
184.198	14.813	915.510	691.876
185.213	14.764	914.817	691.086
186.227	14.837	914.298	690.937
187.242	14.783	914.259	690.621
188.256	14.984	913.147	690.553
189.271	14.933	912.237	689.592
190.286	14.609	911.494	687.633
191.300	14.392	911.111	686.389
192.315	14.539	910.275	686.304
193.329	14.468	909.787	685.582
194.344	14.568	909.254	685.533
195.359	14.620	908.195	684.887
196.373	14.667	907.931	684.821
197.388	14.753	908.001	685.166
198.402	15.079	907.124	685.778
199.417	14.945	906.664	684.823
200.432	15.109	905.996	684.928
201.446	15.176	905.483	684.753
202.461	15.121	905.037	684.131
203.475	15.036	904.457	683.282
204.490	14.984	903.367	682.189
205.504	15.069	902.158	681.560
206.519	15.041	901.683	681.027
207.534	14.927	901.212	680.149
208.548	14.984	900.693	679.930
209.563	15.040	899.732	679.368
210.577	15.053	899.237	678.988
211.592	15.090	898.728	678.696
212.607	15.234	897.981	678.652
213.621	15.079	897.392	677.519
214.636	15.071	896.627	676.852
215.650	15.291	895.840	677.086
216.665	15.164	895.206	676.036
217.680	15.096	895.236	675.723
218.694	15.188	894.315	675.337
219.709	15.289	893.170	674.821
220.723	15.321	892.771	674.588
221.738	15.170	892.225	673.508
222.753	15.321	891.388	673.425
223.767	15.426	890.638	673.218
224.782	15.448	890.250	672.953
225.796	15.334	890.312	672.483
226.811	15.314	889.553	671.771
227.826	15.320	888.477	670.922
228.840	15.353	887.403	670.183
229.855	15.411	886.464	669.648
230.869	15.096	886.473	668.338
231.884	15.141	885.800	667.953
232.899	15.234	884.885	667.571
233.913	15.251	884.303	667.141
234.928	15.077	883.986	666.150
235.942	15.207	883.059	665.910
236.957	15.111	882.722	665.215
237.972	15.270	882.195	665.391
238.986	15.089	881.357	663.982
240.001	15.356	880.734	664.514
241.015	15.402	880.071	664.138
242.030	15.318	879.324	663.182
243.045	15.449	878.357	662.909
244.059	15.417	878.445	662.791
245.074	15.420	877.965	662.382
246.088	15.613	876.859	662.249
247.103	15.572	876.496	661.755
248.117	15.649	876.415	661.940
249.132	15.788	875.765	661.939
250.147	15.801	875.009	661.359
251.161	15.891	874.166	661.015
252.176	15.757	873.617	660.015
253.190	15.872	872.857	659.834
254.205	15.928	872.389	659.643
255.220	15.997	871.756	659.375
256.234	15.961	871.176	658.736
257.249	16.014	870.696	658.522
258.263	15.895	869.818	657.339
259.278	15.937	869.410	657.133
260.293	15.934	868.666	656.503
261.307	16.172	867.794	656.710
262.322	16.176	867.300	656.296
263.336	16.066	866.620	655.296
264.351	16.210	866.015	655.340
265.366	16.215	865.213	654.694
266.380	16.016	865.122	653.792
267.395	16.117	864.121	653.369
268.409	16.088	863.136	652.457
269.424	16.164	862.342	652.093
270.439	16.076	861.900	651.361
271.453	16.111	861.388	651.049
272.468	15.800	860.997	649.498
273.482	16.227	860.344	650.594
274.497	15.978	859.924	649.261
275.512	16.006	859.229	648.784
276.526	16.029	858.686	648.404
277.541	16.113	858.255	648.344
278.555	16.086	857.573	647.669
279.570	16.239	857.107	647.849
280.585	16.365	856.112	647.520
281.599	16.315	854.989	646.424
282.614	16.124	854.657	645.385
283.628	16.187	854.098	645.147
284.643	16.221	853.661	644.887
285.657	16.162	853.079	644.167
286.672	16.207	852.468	643.819
287.687	16.258	851.790	643.447
288.701	16.303	851.159	643.085
289.716	16.218	850.630	642.302
290.730	16.252	850.198	642.049
291.745	16.370	849.636	642.016
292.760	16.356	849.088	641.491
293.774	16.425	848.125	640.969
294.789	16.217	848.270	640.234
295.803	16.344	846.829	639.569
296.818	16.243	846.354	638.771
297.833	16.304	845.712	638.462
298.847	16.362	845.314	638.325
299.862	16.337	844.806	637.790
300.876	16.423	844.335	637.702
301.891	16.504	843.397	637.242
302.906	16.540	843.222	637.190
303.920	16.633	842.901	637.243
304.935	16.641	841.926	636.480
305.949	16.715	841.440	636.334
306.964	16.576	841.161	635.542
307.979	16.623	840.424	635.105
308.993	16.645	839.788	634.652
310.008	16.676	839.319	634.357
311.022	16.742	837.915	633.489
312.037	16.603	838.002	632.975
313.052	16.436	837.470	631.895
314.066	16.558	836.824	631.807
315.081	16.470	836.439	631.133
316.095	16.666	835.465	631.072
317.110	16.601	835.319	630.662
318.125	16.648	834.391	630.083
319.139	16.539	834.205	629.481
320.154	16.601	833.584	629.185
321.168	16.677	833.032	628.997
322.183	16.561	832.784	628.324
323.197	16.686	831.919	628.077
324.212	16.904	831.417	628.453
325.227	16.695	831.080	627.368
326.241	16.626	830.639	626.725
327.256	16.819	829.654	626.638
328.270	16.575	829.409	625.498
329.285	16.724	828.661	625.429
330.300	16.788	828.346	625.371
331.314	16.649	827.726	624.334
332.329	16.725	827.280	624.222
333.343	16.798	826.694	623.993
334.358	16.725	826.385	623.437
335.373	16.802	826.153	623.491
336.387	16.897	825.749	623.480
337.402	17.028	825.410	623.650
338.416	17.096	825.130	623.631
339.431	16.899	824.997	622.752
340.446	17.075	824.525	622.988
341.460	17.112	823.995	622.668
342.475	17.066	823.464	622.045
343.489	17.091	823.068	621.782
344.504	17.153	822.751	621.711
345.519	17.074	822.273	621.009
346.533	17.208	821.726	621.030
347.548	17.149	821.351	620.474
348.562	17.029	820.742	619.521
349.577	17.047	820.178	619.108
350.592	17.107	819.408	618.691
351.606	17.103	818.828	618.183
352.621	17.040	817.951	617.237
353.635	17.013	817.627	616.840
354.650	17.095	816.961	616.580
355.665	17.098	816.303	616.042
356.679	17.274	815.797	616.242
357.694	17.354	814.738	615.678
358.708	17.345	814.275	615.241
359.723	17.224	814.083	614.602
360.738	17.219	813.549	614.129
361.752	17.277	812.923	613.811
362.767	17.340	812.413	613.598
363.781	17.384	811.807	613.245
364.796	17.613	811.048	613.441
365.810	17.546	811.021	613.127
366.825	17.566	810.627	612.847
367.840	17.558	810.243	612.473
368.854	17.509	809.791	611.903
369.869	17.468	809.513	611.489
370.883	17.392	808.978	610.757
371.898	17.649	808.389	611.180
372.913	17.718	808.029	611.103
373.927	17.459	807.732	609.895
374.942	17.590	807.107	609.837
375.956	17.682	806.870	609.933
376.971	17.912	806.030	610.066
377.986	17.779	805.975	609.496
379.000	17.926	805.257	609.425
380.015	17.850	804.886	608.818
381.029	17.750	804.419	608.057
382.044	17.873	803.402	607.670
383.059	17.913	802.912	607.388
384.073	17.825	802.526	606.728
385.088	17.761	801.790	605.894
386.102	17.797	801.252	605.561
387.117	17.703	800.764	604.803
388.132	17.664	800.070	604.089
389.146	17.850	799.412	604.198
390.161	17.759	799.363	603.783
391.175	17.990	798.828	604.144
392.190	17.760	798.212	602.812
393.205	17.796	797.997	602.724
394.219	17.769	797.615	602.287
395.234	17.800	796.964	601.850
396.248	17.849	796.104	601.321
397.263	17.833	796.012	601.143
398.278	17.762	796.082	600.891
399.292	17.631	795.977	600.296
400.307	17.706	795.286	599.986
401.321	17.894	794.330	599.872
402.336	17.759	794.295	599.319
403.350	17.888	793.857	599.389
404.365	18.003	793.280	599.303
405.380	18.089	792.734	599.140
406.394	18.082	792.312	598.743
407.409	18.142	792.193	598.811
408.423	18.050	791.841	598.168
409.438	18.135	791.156	597.895
410.453	18.193	790.894	597.847
411.467	18.081	790.690	597.250
412.482	18.288	790.316	597.636
413.496	18.266	789.818	597.129
414.511	18.369	789.150	596.931
415.526	18.138	789.004	595.962
416.540	18.204	788.203	595.535
417.555	18.306	788.052	595.722
418.569	18.286	787.460	595.153
419.584	18.224	787.314	594.775
420.599	18.428	786.636	594.918
421.613	158.053	1370.428	1798.142
422.628	136.655	1455.489	1798.220
