DTS Sentinel unit serial number:	SN413079Multiplexer serial number:	ORYXHardware model number:	OX4-SRSoftware version number:	ORYX F/W v4.00 Oryx Data Collector v3.7.2.0data status	okinstallation	princeton_trtdifferential loss correction	single-endedforward channel	channel 1reverse channel	N/Adate	2019/09/16time	00:14:36forward acquisition time	60.00reverse acquisition time	0.00gamma	496.2192k internal	0.2333k external	0.2333temperature offset calibration	0.9978default loss term (dB/km)	0.3790temperature slope calibration	1.0000multiplexer offset coefficient	1.0000multiplexer slope coefficient	1.0000fibre end	0.00T internal ref (°C)	27.69T ext. ref 1 (°C)	9.47T ext. ref 2 (°C)	21.60length (m)	temperature (°C)	Stokes	anti-Stokes-747.200	-64.586	0.114	0.047
-746.185	-93.439	-0.240	-0.067
-745.171	172.273	-0.231	0.334
-744.156	800.000	0.059	0.258
-743.142	800.000	0.138	0.417
-742.127	148.973	-0.080	0.109
-741.112	25.775	-0.241	-0.202
-740.098	-6.565	-0.415	0.284
-739.083	-200.000	0.014	0.230
-738.069	800.000	0.078	0.290
-737.054	-200.000	0.033	0.169
-736.039	-5.332	-0.100	0.069
-735.025	800.000	0.111	0.387
-734.010	-85.825	-0.340	-0.106
-732.996	800.000	0.135	-0.415
-731.981	-71.812	-0.190	-0.071
-730.966	203.653	-0.202	0.315
-729.952	-123.068	-0.584	0.094
-728.937	-150.958	-0.261	-0.020
-727.923	-200.000	-0.018	-0.255
-726.908	-200.000	-0.008	0.152
-725.894	-200.000	0.356	-0.000
-724.879	-155.730	-0.131	0.008
-723.864	-39.720	-0.352	-0.185
-722.850	53.418	0.097	0.094
-721.835	267.010	-0.142	-0.249
-720.821	3.718	-0.153	-0.112
-719.806	-56.603	-0.216	-0.096
-718.791	-200.000	-0.007	0.049
-717.777	132.870	0.103	-0.133
-716.762	75.193	0.146	0.154
-715.748	800.000	0.064	-0.189
-714.733	-200.000	-0.005	0.071
-713.718	55.194	-0.082	0.080
-712.704	74.136	-0.163	0.172
-711.689	-200.000	0.009	0.091
-710.675	25.379	-0.050	0.042
-709.660	-115.696	-0.037	-0.007
-708.645	-103.931	-0.255	-0.060
-707.631	37.927	0.197	0.176
-706.616	800.000	-0.048	0.166
-705.602	-48.380	0.140	-0.068
-704.587	-58.174	-0.035	-0.015
-703.572	-137.031	-0.146	0.017
-702.558	-95.905	-0.233	-0.062
-701.543	-149.591	0.130	-0.010
-700.529	-33.571	-0.395	-0.219
-699.514	-200.000	-0.053	-0.289
-698.499	-123.940	-0.172	0.027
-697.485	-152.800	-0.156	0.011
-696.470	-152.085	0.314	-0.023
-695.456	432.988	-0.052	0.113
-694.441	-40.847	0.338	-0.176
-693.426	-52.701	-0.234	0.108
-692.412	241.829	-0.106	-0.179
-691.397	-57.450	0.072	0.032
-690.383	221.042	-0.067	-0.108
-689.368	49.521	-0.166	0.157
-688.354	262.684	-0.140	0.244
-687.339	-200.000	-0.031	-0.498
-686.324	341.738	0.060	-0.117
-685.310	8.512	0.175	0.132
-684.295	-71.072	-0.092	0.035
-683.281	321.995	-0.023	0.044
-682.266	-200.000	0.035	0.197
-681.251	-91.532	-0.061	-0.017
-680.237	-147.014	0.121	0.010
-679.222	547.474	-0.027	0.066
-678.208	-39.879	-0.155	0.081
-677.193	-50.722	-0.206	-0.097
-676.178	-200.000	0.045	0.247
-675.164	-44.255	-0.178	0.089
-674.149	-171.608	-0.272	0.009
-673.135	-120.163	0.182	0.031
-672.120	-73.337	-0.134	-0.049
-671.105	-77.120	-0.394	-0.138
-670.091	461.776	-0.148	-0.331
-669.076	57.755	0.238	-0.233
-668.062	-200.000	-0.033	-0.280
-667.047	-3.690	-0.362	-0.252
-666.032	661.722	-0.056	-0.146
-665.018	-26.612	0.158	0.093
-664.003	-103.766	-0.209	-0.049
-662.989	-59.368	-0.172	0.074
-661.974	800.000	-0.110	-0.309
-660.959	-200.000	-0.022	0.344
-659.945	-200.000	0.030	-0.191
-658.930	-200.000	0.080	-0.381
-657.916	-63.020	-0.078	-0.032
-656.901	-200.000	0.030	0.144
-655.886	27.014	-0.048	-0.041
-654.872	108.836	0.198	-0.237
-653.857	322.480	-0.103	0.197
-652.843	426.781	0.147	-0.317
-651.828	-151.243	-0.183	-0.014
-650.814	-38.911	0.132	-0.070
-649.799	-200.000	-0.023	0.221
-648.784	-200.000	0.029	-0.172
-647.770	800.000	-0.029	-0.119
-646.755	-22.576	0.161	-0.097
-645.741	-200.000	0.010	-0.413
-644.726	-43.010	-0.134	0.068
-643.711	-70.302	-0.180	0.068
-642.697	379.596	-0.050	-0.103
-641.682	162.293	0.180	0.253
-640.668	90.511	-0.108	-0.121
-639.653	-172.538	0.165	-0.005
-638.638	-129.838	-0.266	-0.037
-637.624	28.548	-0.419	-0.355
-636.609	-93.695	0.087	0.024
-635.595	800.000	0.121	-0.365
-634.580	323.874	0.032	-0.061
-633.565	-67.257	0.227	-0.089
-632.551	-30.242	0.237	-0.135
-631.536	-99.796	-0.127	0.032
-630.522	6.705	-0.169	0.126
-629.507	145.636	0.156	0.209
-628.492	-119.674	-0.058	0.010
-627.478	-98.572	0.216	-0.055
-626.463	-141.565	0.419	-0.042
-625.449	14.498	0.174	-0.136
-624.434	-200.000	-0.050	-0.262
-623.419	800.000	-0.051	-0.212
-622.405	800.000	-0.026	0.089
-621.390	-200.000	0.026	0.284
-620.376	800.000	0.029	0.122
-619.361	41.398	0.239	-0.217
-618.346	248.225	-0.064	-0.108
-617.332	695.075	-0.090	0.238
-616.317	-186.692	0.198	0.003
-615.303	202.317	0.213	-0.328
-614.288	-66.207	0.065	-0.026
-613.273	128.150	-0.142	-0.181
-612.259	-170.240	-0.230	0.008
-611.244	-200.000	0.080	0.384
-610.230	-131.501	-0.378	0.050
-609.215	237.209	0.164	-0.271
-608.201	155.031	-0.099	-0.136
-607.186	95.468	0.022	-0.025
-606.171	92.283	0.182	-0.205
-605.157	-200.000	-0.031	0.193
-604.142	600.294	-0.064	0.158
-603.128	-191.138	-0.089	-0.001
-602.113	390.249	-0.166	-0.344
-601.098	52.445	0.308	-0.294
-600.084	-64.577	-0.365	0.148
-599.069	-131.877	0.166	-0.022
-598.055	483.205	0.109	-0.248
-597.040	-200.000	-0.018	-0.136
-596.025	85.966	0.108	0.118
-595.011	-1.069	0.363	0.257
-593.996	791.114	-0.004	0.011
-592.982	-145.991	-0.116	-0.010
-591.967	-6.414	0.081	-0.055
-590.952	800.000	-0.071	0.214
-589.938	-200.000	-0.015	-0.372
-588.923	-55.228	0.136	0.061
-587.909	-39.380	-0.088	-0.046
-586.894	96.642	0.245	0.280
-585.879	137.708	0.268	0.351
-584.865	-94.304	0.179	0.049
-583.850	-50.368	-0.463	0.219
-582.836	-116.712	0.276	-0.051
-581.821	-200.000	0.067	-0.336
-580.806	66.156	0.302	0.306
-579.792	-113.860	-0.129	0.025
-578.777	-116.837	-0.160	0.029
-577.763	-45.158	0.277	-0.138
-576.748	-9.516	0.057	0.038
-575.733	-149.340	0.039	0.003
-574.719	-131.506	-0.119	0.016
-573.704	32.544	0.356	0.307
-572.690	-200.000	0.039	0.593
-571.675	219.072	-0.256	-0.409
-570.661	362.850	-0.090	0.181
-569.646	251.826	-0.231	-0.393
-568.631	7.500	-0.177	0.132
-567.617	-200.000	-0.021	-0.133
-566.602	-114.110	0.204	0.039
-565.588	147.107	-0.094	-0.126
-564.573	800.000	-0.107	0.320
-563.558	-23.932	-0.440	-0.263
-562.544	410.343	0.101	-0.214
-561.529	94.419	-0.040	0.045
-560.515	800.000	-0.032	-0.103
-559.500	186.780	0.052	0.077
-558.485	-200.000	0.029	0.130
-557.471	-36.995	0.207	0.111
-556.456	-200.000	0.004	0.150
-555.442	18.175	0.325	0.259
-554.427	-200.000	-0.001	-0.043
-553.412	204.205	0.108	-0.168
-552.398	800.000	-0.058	0.168
-551.383	28.175	0.161	0.135
-550.369	800.000	-0.065	-0.254
-549.354	-200.000	0.003	-0.184
-548.339	800.000	0.079	-0.241
-547.325	-38.584	0.077	-0.041
-546.310	-87.180	0.200	0.061
-545.296	-144.084	0.131	-0.012
-544.281	-188.120	-0.060	-0.001
-543.266	395.456	0.112	0.234
-542.252	-200.000	0.013	0.000
-541.237	563.124	0.133	-0.321
-540.223	-64.073	-0.326	-0.133
-539.208	-29.055	0.366	-0.210
-538.193	-181.148	0.185	0.004
-537.179	-74.178	-0.296	0.107
-536.164	-49.443	-0.348	0.165
-535.150	88.459	-0.168	-0.186
-534.135	168.461	-0.084	-0.120
-533.121	217.814	-0.128	0.204
-532.106	505.272	-0.056	-0.130
-531.091	-100.212	-0.319	-0.079
-530.077	459.189	-0.169	0.375
-529.062	-66.193	0.147	0.058
-528.048	226.434	0.082	0.133
-527.033	84.215	-0.150	0.164
-526.018	-200.000	-0.018	-0.261
-525.004	89.980	-0.176	-0.196
-523.989	800.000	-0.066	0.266
-522.975	-200.000	-0.015	0.075
-521.960	-97.178	0.132	-0.034
-520.945	147.396	-0.094	0.126
-519.931	131.108	0.091	-0.117
-518.916	246.509	0.026	0.044
-517.902	-111.520	0.176	-0.036
-516.887	800.000	-0.065	0.231
-515.872	487.706	0.086	-0.195
-514.858	-115.520	-0.325	-0.061
-513.843	-120.505	-0.463	-0.078
-512.829	-110.923	0.351	-0.072
-511.814	59.298	-0.296	-0.291
-510.799	-200.000	0.003	-0.296
-509.785	198.775	0.143	0.218
-508.770	800.000	0.084	0.291
-507.756	410.132	0.109	0.230
-506.741	-56.947	-0.499	-0.219
-505.726	-66.904	-0.310	0.122
-504.712	-117.747	-0.138	0.025
-503.697	800.000	-0.087	-0.318
-502.683	267.626	0.093	0.162
-501.668	707.584	-0.094	-0.247
-500.653	800.000	0.052	0.156
-499.639	800.000	-0.024	0.084
-498.624	-140.860	0.083	-0.008
-497.610	513.033	-0.098	-0.228
-496.595	-24.711	0.116	0.068
-495.581	-134.787	0.136	0.016
-494.566	-200.000	-0.056	-0.333
-493.551	-200.000	-0.012	-0.052
-492.537	44.803	0.178	0.163
-491.522	-200.000	-0.032	-0.184
-490.508	-142.121	-0.178	-0.018
-489.493	582.125	-0.021	-0.052
-488.478	50.697	0.111	-0.104
-487.464	-9.196	-0.093	0.062
-486.449	168.644	-0.060	0.085
-485.435	-108.950	0.165	-0.035
-484.420	-102.471	-0.245	0.058
-483.405	392.147	0.165	-0.342
-482.391	-200.000	0.004	0.089
-481.376	202.451	0.075	-0.116
-480.362	800.000	0.051	-0.220
-479.347	743.541	-0.105	-0.281
-478.332	-200.000	0.063	-0.387
-477.318	-42.760	0.118	-0.060
-476.303	-200.000	0.021	-0.219
-475.289	-4.696	-0.193	0.133
-474.274	-20.739	0.244	0.149
-473.259	-200.000	-0.018	-0.312
-472.245	195.878	0.171	0.259
-471.230	252.236	-0.172	0.292
-470.216	178.610	0.080	-0.116
-469.201	-124.948	0.075	-0.011
-468.186	-17.189	-0.157	0.099
-467.172	-200.000	-0.007	-0.330
-466.157	800.000	-0.064	-0.201
-465.143	130.199	-0.241	0.307
-464.128	-132.526	0.082	-0.010
-463.113	53.420	0.064	0.061
-462.099	-129.826	0.283	-0.039
-461.084	-200.000	-0.001	0.174
-460.070	800.000	0.089	0.333
-459.055	361.100	-0.132	0.264
-458.040	6.018	0.140	-0.103
-457.026	-200.000	0.038	-0.170
-456.011	800.000	-0.068	0.216
-454.997	-150.159	0.485	0.037
-453.982	-200.000	0.010	-0.075
-452.968	800.000	-0.053	0.190
-451.953	15.804	-0.215	0.168
-450.938	800.000	-0.073	0.264
-449.924	80.673	-0.086	-0.092
-448.909	64.330	0.133	0.133
-447.895	-78.521	-0.082	0.028
-446.880	41.042	0.124	-0.112
-445.865	-112.693	0.156	0.031
-444.851	681.620	0.046	0.119
-443.836	-65.719	-0.264	-0.105
-442.822	-106.445	0.278	-0.062
-441.807	-29.239	0.215	-0.123
-440.792	-16.955	0.287	-0.180
-439.778	-40.470	-0.202	0.104
-438.763	-29.805	-0.035	0.020
-437.749	104.031	0.092	0.108
-436.734	151.674	0.107	0.144
-435.719	-108.813	-0.322	0.068
-434.705	-82.098	-0.198	-0.064
-433.690	118.099	0.308	-0.377
-432.676	800.000	0.101	0.280
-431.661	166.837	0.159	-0.225
-430.646	-1.206	0.024	-0.017
-429.632	-140.606	-0.530	0.055
-428.617	65.823	0.218	0.219
-427.603	20.179	-0.026	0.021
-426.588	-71.416	0.476	0.177
-425.573	800.000	0.021	-0.062
-424.559	38.455	-0.110	-0.097
-423.544	-188.581	0.039	-0.000
-422.530	800.000	-0.063	-0.245
-421.515	211.228	-0.134	0.210
-420.500	-127.617	0.176	0.025
-419.486	-81.846	-0.220	0.072
-418.471	-118.595	-0.092	0.016
-417.457	-102.323	0.174	-0.041
-416.442	800.000	0.038	-0.117
-415.428	732.390	0.083	-0.220
-414.413	174.577	0.200	0.288
-413.398	-96.268	0.213	0.056
-412.384	83.201	-0.118	-0.127
-411.369	-167.838	0.316	-0.012
-410.355	65.611	-0.202	-0.203
-409.340	300.982	0.087	-0.159
-408.325	-200.000	-0.033	-0.152
-407.311	8.981	-0.251	-0.188
-406.296	11.877	0.188	-0.143
-405.282	-99.888	0.133	0.033
-404.267	-63.952	0.417	-0.169
-403.252	800.000	0.106	0.410
-402.238	637.767	-0.041	0.102
-401.223	13.125	0.101	-0.078
-400.209	14.773	-0.040	0.031
-399.194	-200.000	-0.049	0.337
-398.179	277.039	-0.129	-0.228
-397.165	-70.356	-0.490	-0.184
-396.150	-47.960	0.237	0.114
-395.136	-0.446	-0.014	-0.010
-394.121	331.842	0.144	-0.275
-393.106	-170.624	-0.545	-0.019
-392.092	-61.749	0.224	0.093
-391.077	231.910	0.116	0.189
-390.063	-14.614	0.119	0.076
-389.048	519.333	0.007	-0.016
-388.033	-80.614	-0.367	-0.121
-387.019	-200.000	0.064	0.341
-386.004	128.852	-0.095	-0.120
-384.990	-200.000	0.034	-0.163
-383.975	-83.652	-0.285	-0.090
-382.960	53.484	-0.186	-0.177
-381.946	800.000	-0.125	-0.468
-380.931	-200.000	0.013	-0.192
-379.917	-200.000	0.070	-0.313
-378.902	120.863	-0.256	-0.316
-377.888	161.135	0.084	0.116
-376.873	130.642	-0.355	0.451
-375.858	-196.242	-0.264	-0.002
-374.844	-130.808	0.077	0.010
-373.829	88.050	0.227	0.250
-372.815	-200.000	0.031	-0.154
-371.800	-190.999	-0.261	-0.003
-370.785	172.638	-0.054	0.076
-369.771	-23.512	0.235	0.140
-368.756	85.200	-0.031	-0.034
-367.742	-200.000	-0.010	-0.298
-366.727	-101.735	0.084	-0.020
-365.712	-167.450	-0.188	-0.007
-364.698	144.883	-0.148	0.196
-363.683	-200.000	-0.029	-0.233
-362.669	414.567	-0.106	0.223
-361.654	46.272	-0.077	0.070
-360.639	-1.817	0.163	-0.114
-359.625	-118.491	-0.132	0.023
-358.610	-5.433	-0.292	-0.199
-357.596	-65.918	0.063	-0.025
-356.581	52.728	-0.071	-0.067
-355.566	-66.109	-0.186	-0.073
-354.552	-200.000	0.020	0.096
-353.537	166.950	-0.192	0.270
-352.523	436.058	0.083	0.178
-351.508	-43.073	-0.090	0.045
-350.493	65.238	0.134	-0.134
-349.479	75.412	0.274	0.287
-348.464	105.528	-0.088	-0.104
-347.450	-200.000	-0.068	0.397
-346.435	-97.319	0.171	0.044
-345.420	-200.000	0.051	0.399
-344.406	500.415	-0.109	0.249
-343.391	108.879	0.059	0.070
-342.377	800.000	0.106	-0.320
-341.362	128.600	-0.109	-0.137
-340.348	-170.369	0.168	-0.006
-339.333	-141.317	-0.153	0.015
-338.318	116.719	-0.020	0.024
-337.304	-53.279	-0.063	-0.028
-336.289	-80.184	0.164	-0.054
-335.275	-200.000	-0.037	0.352
-334.260	-79.094	0.107	0.036
-333.245	-136.735	-0.003	-0.000
-332.231	-200.000	-0.020	-0.233
-331.216	-146.407	-0.088	-0.008
-330.202	310.451	-0.113	0.209
-329.187	689.962	-0.021	0.053
-328.172	-90.022	0.279	0.081
-327.158	-74.475	-0.121	0.043
-326.143	800.000	0.098	0.269
-325.129	72.759	-0.232	-0.240
-324.114	69.696	-0.225	-0.229
-323.099	-64.181	0.211	0.085
-322.085	29.730	-0.117	0.098
-321.070	-200.000	0.020	-0.091
-320.056	-76.296	0.215	-0.075
-319.041	412.412	-0.131	0.276
-318.026	-6.261	0.141	0.095
-317.012	-26.883	0.182	-0.105
-315.997	203.716	0.080	0.123
-314.983	0.349	0.314	0.222
-313.968	-18.154	-0.280	0.173
-312.953	11.363	-0.024	0.018
-311.939	146.799	0.057	-0.076
-310.924	458.911	0.070	-0.155
-309.910	785.566	0.068	0.185
-308.895	-20.545	0.351	0.213
-307.880	64.215	-0.170	-0.169
-306.866	-200.000	0.002	0.333
-305.851	192.884	-0.137	-0.205
-304.837	145.485	0.118	-0.156
-303.822	620.779	0.091	0.227
-302.807	741.640	-0.100	0.265
-301.793	-200.000	-0.024	-0.188
-300.778	136.066	-0.078	0.100
-299.764	770.483	-0.079	-0.213
-298.749	-200.000	-0.007	-0.170
-297.735	-6.080	0.102	0.069
-296.720	-77.182	0.177	-0.061
-295.705	-80.783	-0.189	0.062
-294.691	-103.091	-0.245	0.057
-293.676	10.984	-0.233	-0.176
-292.662	193.941	-0.077	0.116
-291.647	-77.513	0.033	0.011
-290.632	-4.711	0.086	-0.058
-289.618	-200.000	-0.038	-0.256
-288.603	-200.000	-0.047	-0.214
-287.589	800.000	-0.085	0.242
-286.574	-87.828	-0.132	-0.039
-285.559	-6.314	0.097	-0.066
-284.545	212.516	0.113	0.176
-283.530	127.640	0.074	0.093
-282.516	-200.000	0.004	0.257
-281.501	800.000	-0.039	0.119
-280.486	140.386	-0.098	0.127
-279.472	97.937	0.052	-0.060
-278.457	-23.532	-0.249	-0.148
-277.443	-109.305	0.048	-0.010
-276.428	-21.584	-0.108	0.065
-275.413	34.865	0.374	0.323
-274.399	54.009	-0.112	0.106
-273.384	32.818	0.231	0.197
-272.370	248.967	0.093	-0.155
-271.355	-188.009	0.073	-0.001
-270.340	-200.000	0.022	-0.149
-269.326	-18.027	-0.268	0.166
-268.311	141.909	-0.070	0.092
-267.297	-100.634	0.228	0.056
-266.282	-137.417	-0.222	-0.025
-265.267	800.000	0.099	0.313
-264.253	185.903	0.133	-0.196
-263.238	-148.768	0.223	-0.018
-262.224	606.981	0.056	-0.138
-261.209	-92.911	-0.201	0.055
-260.195	-200.000	-0.002	-0.256
-259.180	210.776	0.073	-0.114
-258.165	255.889	-0.119	0.202
-257.151	152.164	0.150	0.201
-256.136	-26.710	-0.207	0.120
-255.122	-139.589	-0.208	-0.022
-254.107	28.289	0.137	-0.114
-253.092	-72.549	-0.280	-0.102
-252.078	-200.000	0.049	-0.314
-251.063	358.326	-0.125	-0.246
-250.049	113.458	-0.286	0.342
-249.034	800.000	-0.017	0.049
-248.019	800.000	0.122	-0.389
-247.005	209.090	0.235	0.363
-245.990	-200.000	-0.056	-0.341
-244.976	-146.534	0.245	0.021
-243.961	-186.146	-0.410	0.006
-242.946	-200.000	-0.018	-0.111
-241.932	-200.000	-0.008	0.195
-240.917	597.500	-0.101	-0.246
-239.903	639.256	0.109	0.272
-238.888	-182.260	0.180	-0.003
-237.873	-41.234	-0.399	-0.203
-236.859	-38.455	-0.117	0.061
-235.844	-200.000	-0.001	-0.182
-234.830	-76.803	-0.413	0.142
-233.815	141.878	-0.054	0.071
-232.800	192.833	-0.108	0.161
-231.786	-166.499	0.068	0.003
-230.771	-200.000	0.002	0.240
-229.757	30.510	-0.198	-0.167
-228.742	127.949	0.048	-0.060
-227.727	-89.815	0.154	-0.044
-226.713	26.399	0.165	-0.136
-225.698	244.350	-0.125	0.208
-224.684	-200.000	-0.029	-0.195
-223.669	36.094	0.243	-0.211
-222.655	-200.000	-0.058	0.372
-221.640	-77.349	-0.204	-0.070
-220.625	290.035	0.053	-0.094
-219.611	5.289	0.272	0.198
-218.596	99.798	0.067	0.076
-217.582	-88.287	0.278	-0.082
-216.567	800.000	-0.070	0.235
-215.552	2.948	-0.286	0.204
-214.538	-2.374	0.336	0.232
-213.523	719.267	0.065	0.169
-212.509	-200.000	-0.010	0.375
-211.494	-87.582	0.059	0.017
-210.479	-71.028	0.149	0.055
-209.465	4.175	-0.220	0.159
-208.450	166.602	0.084	0.118
-207.436	84.790	-0.094	-0.102
-206.421	-140.412	0.135	-0.014
-205.406	-49.838	0.154	0.072
-204.392	-200.000	-0.046	-0.225
-203.377	-28.301	-0.129	0.074
-202.363	-54.955	0.344	-0.153
-201.348	-150.121	-0.239	0.018
-200.333	116.033	0.050	0.061
-199.319	-32.001	-0.037	-0.020
-198.304	800.000	-0.035	0.107
-197.290	-123.577	-0.098	-0.015
-196.275	-35.100	0.033	-0.018
-195.260	-9.552	-0.095	-0.063
-194.246	-4.340	0.306	-0.208
-193.231	265.844	0.168	0.289
-192.217	150.133	-0.077	0.102
-191.202	-63.522	0.135	-0.055
-190.187	-75.087	0.097	-0.034
-189.173	-200.000	-0.057	-0.377
-188.158	800.000	0.046	0.142
-187.144	-51.169	0.109	0.050
-186.129	800.000	0.042	0.169
-185.114	800.000	-0.049	0.197
-184.100	-158.496	0.037	-0.002
-183.085	800.000	0.147	-0.433
-182.071	18.075	-0.243	-0.191
-181.056	-96.330	-0.171	0.045
-180.042	-115.367	0.224	0.042
-179.027	396.692	-0.141	-0.290
-178.012	215.113	0.116	0.180
-176.998	312.549	-0.082	-0.151
-175.983	-166.873	0.287	-0.012
-174.969	3.402	-0.101	0.072
-173.954	-34.385	-0.291	0.157
-172.939	-64.824	0.384	-0.153
-171.925	226.033	0.027	-0.044
-170.910	-13.746	-0.126	-0.080
-169.896	800.000	0.016	0.048
-168.881	137.515	-0.093	-0.119
-167.866	6.192	0.075	0.055
-166.852	-25.418	-0.043	0.025
-165.837	800.000	-0.028	0.101
-164.823	-124.276	0.163	-0.025
-163.808	276.025	-0.080	0.139
-162.793	-151.278	-0.071	-0.005
-161.779	-12.997	-0.223	-0.143
-160.764	800.000	-0.040	0.121
-159.750	-200.000	0.027	-0.185
-158.735	-157.515	-0.047	0.003
-157.720	218.505	0.136	-0.213
-156.706	-200.000	-0.017	0.135
-155.691	-200.000	0.027	0.138
-154.677	-144.792	-0.224	-0.020
-153.662	-200.000	0.012	-0.139
-152.647	-200.000	-0.053	0.326
-151.633	-200.000	0.017	0.109
-150.618	162.816	-0.158	-0.218
-149.604	-200.000	0.039	-0.201
-148.589	-75.581	-0.125	-0.044
-147.574	-77.607	0.260	-0.089
-146.560	42.084	0.028	-0.025
-145.545	-111.464	0.330	-0.066
-144.531	-200.000	-0.002	0.134
-143.516	-93.959	0.238	-0.064
-142.502	-124.307	0.093	-0.014
-141.487	-200.000	-0.015	0.329
-140.472	79.127	0.263	-0.277
-139.458	613.366	-0.095	0.232
-138.443	-51.884	0.195	0.089
-137.429	-144.341	0.318	0.029
-136.414	271.153	0.130	0.225
-135.399	32.853	0.173	0.147
-134.385	-200.000	0.001	0.126
-133.370	-200.000	-0.029	-0.288
-132.356	117.548	-0.148	-0.178
-131.341	676.588	-0.156	-0.397
-130.326	341.307	-0.206	-0.394
-129.312	45.949	0.130	0.118
-128.297	-58.866	-0.282	0.120
-127.283	137.130	-0.132	0.169
-126.268	120.968	-0.361	-0.441
-125.253	16.351	-0.307	0.238
-124.239	669.982	-0.090	0.228
-123.224	-200.000	0.064	-0.329
-122.210	-105.610	0.204	0.045
-121.195	800.000	-0.044	0.150
-120.180	404.045	0.175	0.361
-119.166	-176.767	-0.141	0.004
-118.151	-200.000	0.026	0.149
-117.137	-46.123	0.078	0.038
-116.122	-106.710	0.334	-0.073
-115.107	-200.000	-0.063	-0.270
-114.093	774.640	0.084	0.224
-113.078	-44.136	0.065	-0.032
-112.064	-200.000	0.024	-0.186
-111.049	-200.000	0.049	0.241
-110.034	-84.172	-0.293	-0.091
-109.020	-39.950	0.127	-0.065
-108.005	613.698	0.064	0.156
-106.991	800.000	0.052	0.185
-105.976	-90.606	-0.214	0.061
-104.962	110.234	0.134	0.158
-103.947	800.000	-0.097	0.293
-102.932	405.705	0.023	0.047
-101.918	14.852	0.185	-0.142
-100.903	-145.945	0.247	0.021
-99.889	800.000	0.025	0.102
-98.874	27.976	0.157	0.130
-97.859	-177.303	-0.038	-0.001
-96.845	800.000	0.080	0.288
-95.830	-200.000	-0.101	-0.536
-94.816	208.446	0.160	-0.245
-93.801	141.817	0.126	0.164
-92.786	151.345	0.241	0.322
-91.772	-90.198	-0.255	-0.073
-90.757	-99.225	0.212	-0.052
-89.743	-99.018	0.127	-0.032
-88.728	-86.342	-0.267	0.080
-87.713	-200.000	0.002	-0.020
-86.699	-64.748	-0.167	0.066
-85.684	523.207	-0.017	0.040
-84.670	800.000	0.076	0.216
-83.655	32.358	-0.151	0.128
-82.640	-200.000	0.032	-0.208
-81.626	-200.000	-0.085	0.492
-80.611	-200.000	-0.045	0.224
-79.597	-128.005	-0.193	0.027
-78.582	-200.000	-0.017	-0.154
-77.567	-200.000	0.018	-0.100
-76.553	44.124	0.193	0.174
-75.538	-200.000	-0.055	-0.274
-74.524	-70.754	0.291	0.108
-73.509	-12.839	-0.075	-0.048
-72.494	-200.000	-0.026	0.131
-71.480	-184.922	-0.261	-0.004
-70.465	-97.137	0.277	-0.071
-69.451	-200.000	0.063	0.354
-68.436	-200.000	-0.001	0.229
-67.422	-129.156	0.251	0.034
-66.407	-67.660	0.283	-0.109
-65.392	137.401	0.149	0.191
-64.378	-55.538	-0.217	-0.095
-63.363	139.300	0.260	-0.335
-62.349	-94.943	-0.636	0.168
-61.334	209.970	-1.087	-1.669
-60.319	105.429	0.689	0.797
-59.305	80.756	-0.751	-0.792
-58.290	144.324	0.995	1.300
-57.276	800.000	0.566	1.630
-56.261	-200.000	113.193	648.104
-55.246	483.534	1491.473	3320.232
-54.232	150.632	2651.277	3525.852
-53.217	104.295	2138.290	2462.798
-52.203	38.803	1593.368	1392.497
-51.188	30.860	1341.575	1124.671
-50.173	28.098	1304.046	1076.929
-49.159	55.616	1359.201	1288.363
-48.144	54.283	1374.526	1294.854
-47.130	31.296	1330.310	1117.658
-46.115	27.854	1312.568	1082.350
-45.100	27.577	1307.553	1076.535
-44.086	27.531	1305.511	1074.540
-43.071	27.559	1302.672	1072.324
-42.057	27.388	1301.654	1070.438
-41.042	27.593	1298.726	1069.190
-40.027	27.546	1298.074	1068.337
-39.013	27.550	1295.997	1066.605
-37.998	27.501	1294.311	1064.889
-36.984	27.697	1292.004	1064.092
-35.969	27.724	1290.214	1062.738
-34.954	27.712	1288.901	1061.541
-33.940	27.824	1287.302	1060.833
-32.925	27.667	1286.489	1059.211
-31.911	27.768	1284.520	1058.135
-30.896	27.672	1283.861	1056.993
-29.881	27.765	1282.114	1056.047
-28.867	27.798	1280.620	1054.966
-27.852	27.856	1279.121	1054.028
-26.838	27.750	1277.840	1052.320
-25.823	27.670	1276.739	1050.905
-24.809	27.782	1275.174	1050.223
-23.794	27.837	1273.836	1049.397
-22.779	27.754	1272.735	1047.971
-21.765	27.747	1271.178	1046.607
-20.750	27.906	1269.618	1046.190
-19.736	27.689	1268.763	1044.200
-18.721	27.623	1267.576	1042.805
-17.706	27.711	1266.661	1042.514
-16.692	27.708	1265.434	1041.448
-15.677	27.651	1264.286	1040.137
-14.663	27.628	1262.903	1038.828
-13.648	27.625	1261.932	1037.967
-12.633	27.557	1261.344	1037.055
-11.619	27.626	1260.482	1036.699
-10.604	27.685	1259.070	1035.831
-9.590	27.700	1258.139	1035.107
-8.575	27.550	1257.488	1033.683
-7.560	27.698	1256.214	1033.434
-6.546	27.611	1255.732	1032.504
-5.531	27.551	1254.777	1031.336
-4.517	27.594	1254.216	1031.079
-3.502	27.542	1253.564	1030.210
-2.487	27.577	1252.684	1029.640
-1.473	27.544	1248.090	1025.637
-0.458	26.071	1232.940	1004.952
0.556	20.958	1216.183	966.729
1.571	17.375	1222.308	951.508
2.586	16.512	1237.048	958.007
3.600	16.384	1225.792	948.490
4.615	14.740	1159.585	888.439
5.629	11.372	1092.819	820.305
6.644	9.690	1076.086	799.340
7.659	9.373	1074.403	796.450
8.673	9.469	1072.886	795.728
9.688	9.348	1071.656	794.149
10.702	9.577	1069.379	793.519
11.717	11.678	1071.455	805.347
12.731	15.201	1075.982	826.075
13.746	17.404	1078.563	838.859
14.761	17.510	1078.289	839.092
15.775	16.499	1076.503	832.655
16.790	15.614	1073.841	826.171
17.804	14.784	1072.599	821.066
18.819	14.230	1071.486	817.423
19.834	13.957	1070.621	815.349
20.848	13.864	1069.554	814.009
21.863	13.710	1068.615	812.467
22.877	13.443	1068.211	810.783
23.892	13.489	1067.187	810.155
24.907	13.525	1066.167	809.489
25.921	13.564	1065.276	808.928
26.936	13.596	1064.288	808.262
27.950	13.624	1062.999	807.350
28.965	13.760	1061.002	806.423
29.980	13.880	1059.375	805.698
30.994	13.712	1058.789	804.367
32.009	13.746	1058.164	803.987
33.023	13.606	1056.718	802.134
34.038	13.754	1055.203	801.630
35.053	13.617	1054.832	800.618
36.067	13.555	1053.891	799.531
37.082	13.724	1052.962	799.570
38.096	13.758	1052.084	798.998
39.111	13.650	1051.748	798.152
40.126	13.590	1050.381	796.755
41.140	13.618	1048.718	795.559
42.155	13.411	1047.971	793.930
43.169	13.450	1046.886	793.224
44.184	13.416	1045.848	792.205
45.199	13.554	1044.452	791.734
46.213	13.550	1044.192	791.451
47.228	13.586	1043.035	790.675
48.242	13.558	1041.549	789.342
49.257	13.517	1040.705	788.440
50.271	13.630	1039.408	787.922
51.286	13.597	1038.788	787.229
52.301	13.582	1038.017	786.504
53.315	13.440	1037.643	785.476
54.330	13.476	1036.145	784.442
55.344	13.640	1035.079	784.341
56.359	13.511	1034.015	782.856
57.374	13.564	1033.239	782.448
58.388	13.403	1032.386	780.976
59.403	13.430	1031.718	780.531
60.417	13.490	1030.656	779.940
61.432	13.442	1030.149	779.259
62.447	13.330	1029.718	778.340
63.461	13.280	1028.612	777.200
64.476	13.371	1027.647	776.827
65.490	13.362	1026.788	776.068
66.505	13.323	1026.117	775.311
67.520	13.417	1025.317	775.075
68.534	13.484	1024.783	774.918
69.549	13.448	1023.866	773.986
70.563	13.225	1023.331	772.472
71.578	13.398	1022.123	772.297
72.593	13.234	1021.625	771.088
73.607	13.306	1021.008	770.892
74.622	13.335	1020.064	770.245
75.636	13.339	1019.414	769.705
76.651	13.297	1018.962	769.100
77.666	13.345	1018.101	768.607
78.680	13.386	1017.548	768.311
79.695	13.382	1016.500	767.435
80.709	13.435	1016.297	767.459
81.724	13.624	1015.288	767.504
82.739	13.511	1015.035	766.721
83.753	13.613	1014.195	766.489
84.768	13.598	1013.400	765.754
85.782	13.781	1011.984	765.458
86.797	13.646	1011.482	764.389
87.812	13.710	1010.217	763.659
88.826	13.653	1009.118	762.498
89.841	13.705	1008.463	762.178
90.855	13.657	1007.444	761.117
91.870	13.647	1007.237	760.850
92.884	13.703	1006.142	760.212
93.899	13.650	1005.496	759.411
94.914	13.908	1004.327	759.644
95.928	13.763	1003.619	758.375
96.943	13.728	1002.882	757.595
97.957	13.725	1001.642	756.576
98.972	13.695	1000.791	755.731
99.987	13.721	1000.314	755.421
101.001	13.619	999.130	753.994
102.016	13.717	998.257	753.717
103.030	13.723	997.377	753.010
104.045	13.732	996.806	752.555
105.060	13.847	995.605	752.104
106.074	13.633	994.685	750.372
107.089	13.550	993.903	749.342
108.103	13.590	992.276	748.230
109.118	13.416	991.911	747.100
110.133	13.429	991.222	746.575
111.147	13.406	990.038	745.515
112.162	13.594	989.175	745.645
113.176	13.627	988.734	745.392
114.191	13.594	987.779	744.460
115.206	13.562	986.981	743.649
116.220	13.520	986.125	742.748
117.235	13.605	985.116	742.306
118.249	13.586	984.337	741.565
119.264	13.571	983.382	740.714
120.279	13.436	982.918	739.699
121.293	13.501	981.796	739.076
122.308	13.369	981.153	737.938
123.322	13.413	980.035	737.230
124.337	13.493	978.668	736.489
125.352	13.500	977.415	735.512
126.366	13.545	976.378	734.867
127.381	13.494	975.500	733.917
128.395	13.449	975.085	733.341
129.410	13.515	974.218	732.916
130.424	13.527	973.236	732.165
131.439	13.545	972.562	731.675
132.454	13.617	971.724	731.295
133.468	13.476	971.097	730.134
134.483	13.750	969.864	730.351
135.497	13.651	968.848	729.087
136.512	13.673	968.354	728.748
137.527	13.610	967.610	727.846
138.541	13.666	966.934	727.519
139.556	13.673	966.516	727.172
140.570	13.697	965.902	726.749
141.585	13.736	964.758	725.997
142.600	13.805	963.691	725.431
143.614	13.958	962.708	725.292
144.629	13.828	962.543	724.535
145.643	13.796	961.488	723.540
146.658	13.817	960.167	722.572
147.673	13.740	959.081	721.359
148.687	13.688	958.273	720.461
149.702	13.599	957.803	719.659
150.716	13.607	956.822	718.888
151.731	13.669	956.181	718.612
152.746	13.742	955.464	718.328
153.760	13.825	954.897	718.197
154.775	13.838	954.367	717.791
155.789	13.943	953.671	717.658
156.804	13.853	952.803	716.555
157.819	13.953	952.085	716.379
158.833	14.097	951.424	716.442
159.848	13.993	950.389	715.150
160.862	14.024	949.831	714.798
161.877	13.888	948.963	713.499
162.892	13.936	947.705	712.696
163.906	13.801	947.183	711.662
164.921	13.773	946.566	711.017
165.935	13.757	945.663	710.204
166.950	13.968	944.258	709.988
167.964	13.809	943.748	708.862
168.979	13.819	942.779	708.118
169.994	13.821	941.919	707.415
171.008	13.982	941.086	707.413
172.023	13.952	940.465	706.755
173.037	14.106	939.607	706.703
174.052	13.919	939.117	705.479
175.067	13.977	938.287	705.037
176.081	13.914	937.858	704.385
177.096	13.917	937.008	703.697
178.110	13.926	936.446	703.251
179.125	13.916	935.902	702.739
180.140	13.979	935.973	702.996
181.154	14.061	935.250	702.740
182.169	14.015	934.704	702.071
183.183	14.092	933.949	701.767
184.198	14.159	933.133	701.372
185.213	14.098	932.349	700.468
186.227	14.147	931.807	700.202
187.242	14.231	930.952	699.853
188.256	14.364	930.270	699.837
189.271	14.406	929.673	699.503
190.286	14.137	928.388	697.344
191.300	13.982	928.246	696.526
192.315	13.860	927.973	695.748
193.329	13.808	927.328	694.986
194.344	14.030	926.491	695.227
195.359	14.119	925.968	695.142
196.373	14.292	924.965	695.053
197.388	14.304	925.296	695.289
198.402	14.367	924.341	694.774
199.417	14.338	923.675	694.090
200.432	14.470	923.074	694.125
201.446	14.523	922.593	693.923
202.461	14.499	922.161	693.436
203.475	14.580	921.350	693.103
204.490	14.449	920.819	692.097
205.504	14.488	919.835	691.459
206.519	14.329	919.416	690.423
207.534	14.440	918.688	690.278
208.548	14.435	918.216	689.837
209.563	14.441	917.315	689.129
210.577	14.420	916.612	688.449
211.592	14.513	915.925	688.256
212.607	14.641	915.091	688.096
213.621	14.591	914.398	687.310
214.636	14.645	913.586	686.863
215.650	14.620	913.527	686.653
216.665	14.639	912.029	685.544
217.680	14.666	911.850	685.461
218.694	14.713	910.762	684.773
219.709	14.742	910.390	684.551
220.723	14.788	909.353	683.902
221.738	14.703	909.093	683.296
222.753	14.668	907.896	682.195
223.767	14.783	907.782	682.518
224.782	14.780	907.310	682.088
225.796	14.771	906.755	681.576
226.811	14.689	906.244	680.795
227.826	14.843	905.104	680.505
228.840	14.780	904.432	679.687
229.855	14.650	903.808	678.627
230.869	14.641	903.271	678.129
231.884	14.621	902.761	677.604
232.899	14.735	901.687	677.200
233.913	14.671	900.959	676.334
234.928	14.653	900.116	675.568
235.942	14.508	900.102	674.914
236.957	14.569	899.597	674.720
237.972	14.800	898.739	674.951
238.986	14.823	897.838	674.307
240.001	14.619	897.870	673.447
241.015	14.767	897.161	673.454
242.030	14.938	895.861	673.108
243.045	14.941	895.743	672.968
244.059	14.808	895.042	671.848
245.074	14.911	894.492	671.791
246.088	14.719	894.029	670.612
247.103	14.997	893.248	671.084
248.117	15.011	892.659	670.635
249.132	15.075	892.080	670.398
250.147	15.228	891.539	670.545
251.161	15.215	890.704	669.806
252.176	15.219	890.343	669.491
253.190	15.290	889.354	668.971
254.205	15.323	888.921	668.719
255.220	15.255	888.146	667.806
256.234	15.375	887.526	667.756
257.249	15.458	887.017	667.646
258.263	15.299	886.390	666.481
259.278	15.242	885.394	665.449
260.293	15.346	885.123	665.597
261.307	15.549	884.425	665.817
262.322	15.493	883.789	665.061
263.336	15.537	882.861	664.478
264.351	15.448	882.417	663.731
265.366	15.579	881.833	663.752
266.380	15.425	881.282	662.669
267.395	15.530	880.368	662.336
268.409	15.552	879.717	661.878
269.424	15.501	878.642	660.811
270.439	15.400	878.024	659.888
271.453	15.408	877.473	659.445
272.468	15.462	877.198	659.393
273.482	15.348	876.970	658.718
274.497	15.492	875.613	658.202
275.512	15.493	875.298	657.912
276.526	15.516	874.995	657.717
277.541	15.553	874.657	657.550
278.555	15.697	873.480	657.168
279.570	15.801	872.669	656.906
280.585	15.810	872.013	656.390
281.599	15.733	871.288	655.485
282.614	15.697	870.216	654.481
283.628	15.591	869.962	653.821
284.643	15.674	869.358	653.632
285.657	15.746	868.760	653.402
286.672	15.816	868.002	653.048
287.687	15.704	867.906	652.484
288.701	15.803	867.153	652.244
289.716	15.743	866.421	651.403
290.730	15.851	866.243	651.628
291.745	15.828	865.415	650.859
292.760	15.902	865.135	650.877
293.774	15.845	864.266	649.947
294.789	16.008	863.482	649.925
295.803	15.798	862.722	648.488
296.818	15.769	862.055	647.819
297.833	15.829	861.442	647.529
298.847	15.702	861.245	646.837
299.862	15.946	860.085	646.844
300.876	16.000	859.865	646.830
301.891	15.976	859.257	646.224
302.906	15.982	858.752	645.808
303.920	16.219	858.374	646.376
304.935	16.311	857.246	645.822
305.949	16.016	857.266	644.650
306.964	15.998	856.589	644.017
307.979	16.153	855.922	644.051
308.993	16.166	855.172	643.478
310.008	16.132	854.627	642.882
311.022	16.085	854.001	642.175
312.037	16.125	853.415	641.830
313.052	16.278	852.369	641.568
314.066	15.972	852.358	640.340
315.081	16.084	851.699	640.212
316.095	16.126	850.964	639.761
317.110	16.045	850.390	638.968
318.125	16.043	849.981	638.596
319.139	16.097	849.715	638.543
320.154	16.188	849.004	638.298
321.168	16.147	848.685	637.846
322.183	16.240	847.874	637.533
323.197	16.016	847.984	636.712
324.212	16.171	847.150	636.614
325.227	16.121	846.837	636.134
326.241	16.155	845.780	635.411
327.256	16.134	845.156	634.807
328.270	16.219	844.654	634.694
329.285	16.208	844.451	634.443
330.300	16.120	843.660	633.463
331.314	16.258	843.250	633.619
332.329	16.212	842.561	632.872
333.343	16.208	842.539	632.784
334.358	16.323	841.948	632.716
335.373	16.263	841.931	632.420
336.387	16.338	841.222	632.113
337.402	16.317	840.973	631.792
338.416	16.519	840.674	632.265
339.431	16.512	840.063	631.724
340.446	16.553	839.573	631.452
341.460	16.675	839.048	631.456
342.475	16.667	838.795	631.181
343.489	16.541	838.826	630.679
344.504	16.684	837.702	630.313
345.519	16.682	837.636	630.198
346.533	16.723	836.792	629.660
347.548	16.702	836.027	628.950
348.562	16.512	835.711	627.953
349.577	16.586	835.037	627.664
350.592	16.738	834.221	627.558
351.606	16.563	834.012	626.698
352.621	16.585	833.247	626.149
353.635	16.633	832.450	625.670
354.650	16.639	831.726	625.094
355.665	16.758	831.424	625.250
356.679	16.821	830.632	624.834
357.694	16.674	829.968	623.735
358.708	16.643	829.653	623.330
359.723	16.753	828.972	623.167
360.738	16.584	828.651	622.249
361.752	16.738	827.789	622.115
362.767	16.867	827.232	622.114
363.781	16.892	826.840	621.857
364.796	16.958	826.511	621.793
365.810	17.076	825.767	621.613
366.825	17.112	825.487	621.480
367.840	17.037	825.076	620.838
368.854	16.842	824.709	619.796
369.869	16.951	824.191	619.749
370.883	16.916	823.785	619.260
371.898	17.047	823.403	619.398
372.913	17.143	822.821	619.255
373.927	17.045	822.583	618.665
374.942	17.035	822.170	618.263
375.956	17.271	821.538	618.591
376.971	17.262	821.073	618.153
377.986	17.259	820.628	617.752
379.000	17.265	820.241	617.428
380.015	17.311	819.924	617.304
381.029	17.272	819.203	616.564
382.044	17.353	818.521	616.289
383.059	17.404	818.122	616.121
384.073	17.349	817.005	615.024
385.088	17.331	816.804	614.752
386.102	17.239	816.123	613.856
387.117	17.284	815.769	613.695
388.132	17.216	815.227	612.988
389.146	17.343	814.622	612.936
390.161	17.338	814.273	612.601
391.175	17.320	813.972	612.256
392.190	17.307	813.485	611.790
393.205	17.248	813.043	611.192
394.219	17.294	812.684	611.033
395.234	17.269	811.860	610.270
396.248	17.247	811.866	610.142
397.263	17.264	810.877	609.404
398.278	17.253	810.517	609.040
399.292	17.318	810.523	609.225
400.307	17.268	809.618	608.311
401.321	17.378	809.286	608.401
402.336	17.326	808.938	607.901
403.350	17.387	808.539	607.765
404.365	17.403	808.083	607.427
405.380	17.497	807.238	607.072
406.394	17.543	806.740	606.807
407.409	17.652	806.397	606.883
408.423	17.630	806.536	606.855
409.438	17.642	805.986	606.432
410.453	17.696	805.461	606.175
411.467	17.707	805.011	605.822
412.482	17.648	804.696	605.320
413.496	17.753	804.364	605.391
414.511	17.702	804.397	605.180
415.526	17.786	803.514	604.761
416.540	17.827	802.992	604.459
417.555	17.758	802.419	603.732
418.569	17.785	802.063	603.506
419.584	17.831	801.695	603.336
420.599	17.909	801.051	603.075
421.613	111.905	1295.125	1478.180
422.628	96.439	1367.092	1478.272
