DTS Sentinel unit serial number:	SN413079Multiplexer serial number:	ORYXHardware model number:	OX4-SRSoftware version number:	ORYX F/W v4.00 Oryx Data Collector v3.7.2.0data status	okinstallation	princeton_trtdifferential loss correction	single-endedforward channel	channel 1reverse channel	N/Adate	2019/09/14time	01:30:35forward acquisition time	60.00reverse acquisition time	0.00gamma	496.2192k internal	0.2336k external	0.2336temperature offset calibration	1.0078default loss term (dB/km)	0.3790temperature slope calibration	1.0000multiplexer offset coefficient	1.0000multiplexer slope coefficient	1.0000fibre end	0.00T internal ref (°C)	26.44T ext. ref 1 (°C)	3.19T ext. ref 2 (°C)	21.49length (m)	temperature (°C)	Stokes	anti-Stokes-747.200	140.293	0.079	-0.105
-746.185	37.258	-0.303	0.269
-745.171	-81.753	0.236	-0.078
-744.156	220.068	0.074	0.119
-743.142	800.000	0.055	-0.170
-742.127	-107.804	-0.339	0.074
-741.112	-33.516	-0.196	-0.109
-740.098	-38.525	0.150	0.079
-739.083	-113.965	-0.165	-0.032
-738.069	251.198	-0.101	-0.172
-737.054	72.115	0.186	-0.194
-736.039	-157.299	-0.470	0.029
-735.025	-200.000	0.084	0.508
-734.010	-158.427	-0.248	-0.014
-732.996	364.418	0.199	-0.403
-731.981	-200.000	0.010	-0.095
-730.966	50.335	-0.226	0.214
-729.952	-126.117	0.059	-0.009
-728.937	-19.509	-0.156	0.097
-727.923	800.000	-0.082	-0.234
-726.908	-98.153	-0.305	0.079
-725.894	50.322	0.086	0.082
-724.879	-199.029	-0.258	0.001
-723.864	-200.000	-0.011	0.077
-722.850	-200.000	0.040	-0.345
-721.835	-200.000	-0.019	0.343
-720.821	800.000	0.078	-0.308
-719.806	792.688	0.126	-0.348
-718.791	387.756	-0.141	-0.293
-717.777	-15.221	0.184	0.118
-716.762	-168.938	-0.113	-0.004
-715.748	23.263	-0.122	0.101
-714.733	99.335	0.086	0.099
-713.718	23.916	-0.196	-0.162
-712.704	-39.658	-0.154	-0.081
-711.689	-43.347	-0.051	0.026
-710.675	548.310	0.148	0.356
-709.660	-133.880	-0.194	0.024
-708.645	89.135	-0.142	-0.159
-707.631	-141.091	-0.306	-0.031
-706.616	103.672	0.164	-0.194
-705.602	155.662	0.121	0.167
-704.587	800.000	0.079	-0.244
-703.572	-83.834	-0.392	-0.125
-702.558	24.775	-0.029	0.024
-701.543	-200.000	-0.042	-0.230
-700.529	406.915	0.125	-0.265
-699.514	-24.900	0.231	0.138
-698.499	178.489	0.067	0.099
-697.485	-200.000	0.041	0.185
-696.470	-107.414	0.105	-0.023
-695.456	35.123	0.201	-0.176
-694.441	-200.000	0.007	0.190
-693.426	-98.334	0.460	0.118
-692.412	-138.530	0.036	0.004
-691.397	35.716	-0.330	0.291
-690.383	229.736	0.143	-0.234
-689.368	-41.907	-0.076	0.039
-688.354	242.198	0.102	-0.171
-687.339	61.530	-0.092	0.091
-686.324	29.557	0.087	-0.074
-685.310	362.301	0.085	0.170
-684.295	291.692	0.103	-0.187
-683.281	-200.000	0.002	-0.039
-682.266	-70.973	-0.266	0.100
-681.251	18.819	0.176	0.142
-680.237	142.194	-0.072	-0.096
-679.222	-14.317	-0.171	-0.110
-678.208	65.643	0.198	0.201
-677.193	-72.133	-0.163	-0.060
-676.178	-5.581	0.364	-0.250
-675.164	47.067	-0.104	-0.097
-674.149	-96.888	0.305	-0.080
-673.135	-10.694	0.207	-0.137
-672.120	520.257	0.095	-0.224
-671.105	519.185	-0.131	0.308
-670.091	-120.493	0.077	0.013
-669.076	37.984	-0.139	0.124
-668.062	76.094	-0.367	-0.388
-667.047	-200.000	-0.052	0.450
-666.032	-200.000	-0.006	-0.140
-665.018	-1.579	-0.065	-0.046
-664.003	-63.214	-0.042	0.017
-662.989	-21.750	0.106	-0.065
-661.974	-96.626	0.097	-0.026
-660.959	53.368	-0.135	-0.130
-659.945	-93.290	-0.417	0.116
-658.930	-200.000	0.039	0.319
-657.916	-52.117	-0.242	-0.112
-656.901	-138.002	0.377	-0.042
-655.886	-45.366	0.172	0.086
-654.872	2.075	-0.364	0.263
-653.857	800.000	-0.070	0.296
-652.843	-200.000	0.047	0.262
-651.828	-200.000	0.012	-0.093
-650.814	336.271	0.148	0.288
-649.799	-120.056	0.398	-0.068
-648.784	800.000	0.029	-0.097
-647.770	356.039	-0.076	0.152
-646.755	7.260	-0.117	-0.087
-645.741	-40.505	0.315	-0.163
-644.726	-106.830	-0.236	-0.052
-643.711	800.000	-0.125	0.417
-642.697	190.540	0.152	-0.229
-641.682	430.151	0.024	-0.051
-640.668	800.000	-0.062	-0.240
-639.653	-200.000	-0.050	0.266
-638.638	-200.000	0.033	0.188
-637.624	117.092	-0.043	-0.053
-636.609	-200.000	0.009	-0.115
-635.595	669.791	0.103	-0.267
-634.580	-39.221	0.318	-0.167
-633.565	-63.574	-0.479	0.197
-632.551	-200.000	0.032	0.357
-631.536	4.374	-0.038	0.028
-630.522	241.511	0.183	-0.306
-629.507	-200.000	0.010	-0.182
-628.492	-163.892	-0.156	0.007
-627.478	33.190	-0.133	-0.115
-626.463	-200.000	0.016	0.218
-625.449	-200.000	0.033	0.224
-624.434	386.958	-0.089	-0.184
-623.419	-200.000	0.027	0.159
-622.405	28.068	-0.267	-0.225
-621.390	60.733	0.091	0.090
-620.376	-72.556	-0.236	-0.087
-619.361	-200.000	-0.013	0.133
-618.346	519.898	-0.116	0.271
-617.332	-2.147	0.294	0.206
-616.317	29.479	0.269	0.229
-615.303	3.066	0.241	-0.175
-614.288	759.071	0.098	-0.265
-613.273	-200.000	0.019	0.255
-612.259	-64.924	-0.324	-0.131
-611.244	800.000	0.054	0.214
-610.230	0.125	0.263	-0.187
-609.215	2.798	0.312	-0.226
-608.201	-14.829	0.123	-0.079
-607.186	-200.000	0.019	-0.216
-606.171	-70.926	-0.242	0.091
-605.157	95.226	0.116	0.132
-604.142	713.903	0.040	-0.105
-603.128	101.683	-0.209	-0.244
-602.113	-200.000	0.000	0.042
-601.098	13.684	0.239	-0.186
-600.084	385.827	0.032	-0.066
-599.069	-105.670	0.071	-0.016
-598.055	146.878	0.039	-0.052
-597.040	1.529	-0.253	-0.182
-596.025	-21.561	-0.254	0.155
-595.011	380.878	0.065	-0.133
-593.996	142.817	-0.077	0.102
-592.982	-200.000	0.022	0.228
-591.967	-72.279	-0.385	0.142
-590.952	132.798	-0.068	-0.088
-589.938	-154.311	0.228	0.015
-588.923	-140.409	-0.156	-0.016
-587.909	423.545	-0.043	0.092
-586.894	677.105	0.068	0.176
-585.879	-82.642	-0.147	-0.047
-584.865	-18.818	-0.132	-0.082
-583.850	-135.914	0.202	-0.024
-582.836	-79.639	0.300	-0.101
-581.821	-200.000	-0.017	-0.183
-580.806	800.000	-0.103	-0.445
-579.792	637.010	-0.060	0.153
-578.777	27.596	0.090	0.075
-577.763	-10.075	-0.250	0.166
-576.748	115.635	-0.140	0.171
-575.733	131.552	-0.192	-0.246
-574.719	-96.300	-0.230	0.061
-573.704	-200.000	0.015	0.167
-572.690	245.608	-0.057	0.096
-571.675	29.050	0.121	-0.103
-570.661	34.270	0.102	-0.089
-569.646	758.798	-0.109	0.293
-568.631	-29.719	0.151	0.086
-567.617	-200.000	-0.014	0.071
-566.602	86.325	-0.063	-0.069
-565.588	-200.000	-0.044	-0.320
-564.573	-15.441	0.429	-0.273
-563.558	-5.533	0.344	0.235
-562.544	-200.000	-0.023	0.289
-561.529	-62.293	-0.220	0.091
-560.515	800.000	-0.059	-0.192
-559.500	-101.789	-0.337	0.081
-558.485	65.525	-0.189	0.191
-557.471	-200.000	0.030	-0.149
-556.456	-8.443	-0.259	0.173
-555.442	-200.000	-0.002	0.138
-554.427	-200.000	0.023	-0.117
-553.412	-89.748	-0.209	-0.061
-552.398	-87.068	-0.187	-0.057
-551.383	-200.000	0.019	0.190
-550.369	-37.681	0.161	-0.086
-549.354	-160.869	-0.164	-0.009
-548.339	-63.738	0.099	0.040
-547.325	-121.311	-0.045	-0.007
-546.310	-156.271	-0.198	-0.012
-545.296	-39.633	0.242	0.126
-544.281	-86.198	0.192	-0.059
-543.266	673.804	-0.105	0.271
-542.252	-50.907	-0.299	-0.140
-541.237	-87.273	-0.330	-0.100
-540.223	70.354	0.082	-0.085
-539.208	407.215	-0.111	0.233
-538.193	-200.000	-0.003	0.056
-537.179	408.204	-0.110	0.231
-536.164	800.000	0.024	0.097
-535.150	194.127	-0.057	0.086
-534.135	384.563	0.145	0.298
-533.121	-179.479	0.197	0.004
-532.106	112.789	-0.173	0.209
-531.091	800.000	0.037	-0.103
-530.077	-149.110	0.300	0.024
-529.062	-13.450	-0.106	0.068
-528.048	-200.000	0.040	0.195
-527.033	-36.844	-0.253	0.135
-526.018	452.803	-0.047	0.103
-525.004	726.553	0.128	-0.339
-523.989	-64.001	0.165	-0.067
-522.975	16.131	-0.430	0.337
-521.960	21.690	-0.070	-0.057
-520.945	-121.171	0.234	-0.039
-519.931	-33.053	0.300	0.166
-518.916	-106.474	0.361	-0.080
-517.902	-140.982	0.433	-0.044
-516.887	-200.000	-0.020	-0.162
-515.872	331.559	-0.050	0.096
-514.858	24.041	0.076	-0.063
-513.843	171.827	0.221	-0.316
-512.829	-88.484	-0.199	-0.059
-511.814	-5.998	-0.083	-0.056
-510.799	260.973	0.068	-0.118
-509.785	98.203	-0.089	-0.102
-508.770	-200.000	0.007	0.101
-507.756	386.305	-0.046	0.095
-506.741	-200.000	0.033	-0.182
-505.726	111.214	0.137	0.164
-504.712	-142.354	-0.303	0.030
-503.697	-44.033	0.031	-0.016
-502.683	-200.000	-0.001	-0.139
-501.668	720.023	0.054	-0.141
-500.653	-130.793	-0.082	0.011
-499.639	800.000	0.081	0.245
-498.624	-200.000	0.046	0.206
-497.610	252.445	0.112	-0.190
-496.595	144.317	-0.150	-0.199
-495.581	-61.461	-0.053	-0.022
-494.566	-163.358	0.222	0.011
-493.551	129.653	0.171	0.217
-492.537	420.340	-0.066	-0.141
-491.522	-200.000	0.006	-0.125
-490.508	-200.000	0.073	-0.363
-489.493	-76.036	-0.263	-0.092
-488.478	800.000	0.029	-0.098
-487.464	65.220	-0.226	0.227
-486.449	86.817	-0.194	0.212
-485.435	-7.326	-0.259	0.175
-484.420	800.000	0.112	-0.312
-483.405	63.132	-0.223	0.222
-482.391	-200.000	0.012	-0.221
-481.376	31.345	0.349	0.298
-480.362	800.000	0.037	0.130
-479.347	-148.443	-0.092	-0.008
-478.332	125.781	-0.113	0.142
-477.318	-107.754	0.275	0.060
-476.303	-73.145	-0.191	-0.070
-475.289	129.964	0.273	-0.347
-474.274	-200.000	0.093	0.431
-473.259	93.831	-0.218	-0.245
-472.245	-200.000	-0.014	0.109
-471.230	800.000	0.072	-0.287
-470.216	32.342	0.212	0.182
-469.201	403.347	-0.067	0.141
-468.186	-108.095	-0.487	-0.105
-467.172	102.133	-0.127	0.147
-466.157	-200.000	-0.044	-0.238
-465.143	-62.998	-0.149	-0.061
-464.128	800.000	0.020	-0.081
-463.113	-169.411	0.010	-0.000
-462.099	-98.542	-0.265	0.067
-461.084	-86.409	-0.289	-0.088
-460.070	-132.301	0.222	0.029
-459.055	-93.864	-0.173	-0.047
-458.040	107.966	-0.109	0.129
-457.026	200.078	-0.241	-0.367
-456.011	104.552	-0.263	-0.308
-454.997	13.931	-0.075	0.058
-453.982	270.617	-0.226	-0.394
-452.968	-75.031	-0.148	-0.053
-451.953	97.275	-0.151	0.172
-450.938	-34.962	-0.375	0.203
-449.924	9.494	0.443	0.333
-448.909	-200.000	-0.002	-0.095
-447.895	-72.094	-0.282	-0.104
-446.880	-200.000	0.016	-0.129
-445.865	-124.613	-0.106	0.016
-444.851	-30.455	-0.249	0.140
-443.836	163.822	0.140	-0.195
-442.822	683.327	0.063	-0.163
-441.807	299.570	0.166	-0.303
-440.792	-47.317	-0.030	0.015
-439.778	800.000	-0.069	-0.200
-438.763	-176.546	0.108	-0.003
-437.749	-200.000	0.008	-0.157
-436.734	-70.207	0.093	0.035
-435.719	-106.210	-0.156	-0.035
-434.705	36.193	0.246	0.215
-433.690	-200.000	-0.052	0.277
-432.676	-136.083	-0.207	0.024
-431.661	-65.237	0.342	-0.136
-430.646	75.563	-0.259	-0.272
-429.632	445.981	-0.091	-0.198
-428.617	100.297	0.241	-0.277
-427.603	-200.000	0.001	-0.224
-426.588	406.328	-0.094	-0.196
-425.573	58.000	0.251	-0.244
-424.559	-120.303	-0.346	-0.058
-423.544	-196.171	0.195	-0.001
-422.530	-36.643	-0.174	-0.093
-421.515	-99.081	0.104	-0.026
-420.500	-130.481	0.250	0.033
-419.486	800.000	-0.052	0.165
-418.471	-200.000	0.008	0.124
-417.457	-200.000	-0.006	0.223
-416.442	-200.000	0.052	0.252
-415.428	26.538	-0.102	0.085
-414.413	-163.300	0.349	-0.017
-413.398	67.587	-0.096	-0.098
-412.384	-23.646	-0.128	0.076
-411.369	800.000	-0.025	-0.086
-410.355	-200.000	-0.029	-0.185
-409.340	-140.129	0.217	0.023
-408.325	-11.725	0.245	0.160
-407.311	41.208	0.130	0.116
-406.296	-13.782	0.229	0.147
-405.282	280.649	-0.128	0.227
-404.267	-32.567	0.078	0.043
-403.252	-78.243	-0.127	-0.043
-402.238	27.476	0.192	-0.160
-401.223	-200.000	0.019	-0.166
-400.209	-105.772	-0.063	-0.014
-399.194	492.155	-0.039	0.089
-398.179	-200.000	-0.002	0.128
-397.165	-157.969	0.208	0.012
-396.150	-2.445	-0.108	-0.075
-395.136	800.000	-0.094	0.336
-394.121	-192.804	-0.369	0.003
-393.106	234.095	0.078	0.127
-392.092	800.000	-0.010	0.042
-391.077	132.423	0.153	0.195
-390.063	-22.037	-0.170	-0.102
-389.048	-51.669	0.027	0.013
-388.033	79.465	-0.050	-0.053
-387.019	175.369	-0.157	-0.225
-386.004	-67.222	0.149	0.058
-384.990	142.964	0.094	-0.124
-383.975	-103.049	-0.603	-0.141
-382.960	59.542	0.068	-0.067
-381.946	-72.470	0.072	-0.026
-380.931	-99.529	-0.107	0.027
-379.917	204.433	-0.025	-0.039
-378.902	-84.677	-0.078	-0.024
-377.888	-89.513	-0.349	0.102
-376.873	-5.503	0.228	0.155
-375.858	-134.825	0.193	-0.023
-374.844	-43.430	-0.080	-0.040
-373.829	-200.000	0.024	-0.117
-372.815	61.284	-0.188	0.185
-371.800	456.230	0.077	0.168
-370.785	347.550	-0.144	-0.280
-369.771	-200.000	-0.015	0.297
-368.756	800.000	-0.058	0.234
-367.742	-200.000	-0.035	-0.159
-366.727	-200.000	-0.030	-0.280
-365.712	-167.767	0.404	0.016
-364.698	-114.347	0.175	-0.033
-363.683	-100.291	0.148	0.036
-362.669	-200.000	-0.014	-0.139
-361.654	-200.000	-0.007	-0.102
-360.639	101.855	0.154	0.178
-359.625	-200.000	0.063	0.339
-358.610	-28.039	0.577	-0.330
-357.596	-119.430	-0.276	0.047
-356.581	-108.197	0.057	0.012
-355.566	-145.639	0.261	0.023
-354.552	-49.402	0.134	-0.063
-353.537	193.123	-0.138	0.206
-352.523	-116.469	0.218	0.040
-351.508	171.799	-0.023	0.032
-350.493	-93.207	0.364	0.100
-349.479	71.661	-0.156	-0.160
-348.464	-132.832	-0.378	-0.048
-347.450	-131.437	0.080	-0.010
-346.435	-200.000	0.041	0.384
-345.420	-27.574	0.092	0.053
-344.406	-200.000	-0.037	-0.365
-343.391	36.543	-0.155	-0.135
-342.377	-200.000	-0.012	0.259
-341.362	-60.759	0.269	-0.113
-340.348	800.000	-0.093	-0.290
-339.333	-24.805	-0.172	0.101
-338.318	340.736	0.137	0.265
-337.304	-200.000	0.002	0.500
-336.289	415.152	-0.171	-0.361
-335.275	291.930	0.169	0.305
-334.260	90.632	-0.097	0.108
-333.245	56.125	-0.443	-0.425
-332.231	640.055	0.041	0.102
-331.216	81.645	0.201	-0.215
-330.202	48.394	-0.184	0.171
-329.187	-173.964	-0.238	-0.007
-328.172	-200.000	-0.026	-0.250
-327.158	-18.259	0.250	-0.155
-326.143	1.142	-0.091	-0.065
-325.129	-200.000	0.054	-0.267
-324.114	800.000	0.035	0.102
-323.099	-66.123	0.259	-0.102
-322.085	-31.408	0.083	-0.046
-321.070	2.342	0.529	-0.378
-320.056	147.798	0.118	-0.157
-319.041	-29.355	0.151	-0.085
-318.026	54.082	0.272	-0.258
-317.012	-20.523	0.112	-0.068
-315.997	33.217	0.260	-0.222
-314.983	-200.000	-0.007	0.172
-313.968	109.165	0.020	0.023
-312.953	-1.475	-0.045	-0.031
-311.939	800.000	0.029	-0.121
-310.924	0.756	-0.011	0.008
-309.910	-130.899	0.188	-0.025
-308.895	-200.000	0.002	-0.191
-307.880	-23.596	-0.269	-0.159
-306.866	84.950	0.240	-0.260
-305.851	84.033	-0.137	-0.148
-304.837	-111.694	0.363	0.073
-303.822	-124.270	0.271	0.042
-302.807	-200.000	-0.023	0.237
-301.793	25.108	-0.103	-0.084
-300.778	800.000	0.059	-0.170
-299.764	193.081	0.061	-0.091
-298.749	-200.000	-0.021	0.112
-297.735	-81.750	0.278	0.090
-296.720	-200.000	-0.047	-0.245
-295.705	-79.730	-0.149	-0.049
-294.691	-142.492	0.153	-0.015
-293.676	-52.904	-0.310	-0.141
-292.662	-148.956	-0.401	-0.032
-291.647	-132.076	0.230	0.030
-290.632	-26.192	-0.195	-0.113
-289.618	-36.093	-0.144	0.077
-288.603	127.155	-0.069	-0.086
-287.589	800.000	0.096	0.307
-286.574	-118.615	0.273	0.048
-285.559	800.000	-0.072	-0.244
-284.545	-200.000	-0.069	0.344
-283.530	347.175	-0.117	0.228
-282.516	-131.502	0.184	0.024
-281.501	-14.122	0.122	0.078
-280.486	-144.200	0.223	-0.021
-279.472	800.000	-0.148	-0.429
-278.457	800.000	-0.068	-0.201
-277.443	-200.000	-0.009	0.064
-276.428	492.697	0.108	0.244
-275.413	315.503	-0.129	0.240
-274.399	-200.000	0.011	0.191
-273.384	391.577	-0.022	-0.045
-272.370	-200.000	-0.016	-0.215
-271.355	-83.676	-0.139	0.044
-270.340	-96.283	-0.352	0.092
-269.326	1.373	0.203	0.144
-268.311	457.520	-0.051	0.111
-267.297	188.476	-0.240	0.354
-266.282	177.118	-0.126	0.181
-265.267	-133.267	0.127	0.016
-264.253	800.000	-0.075	0.226
-263.238	-139.647	-0.211	-0.022
-262.224	440.618	0.083	0.178
-261.209	-200.000	-0.012	0.129
-260.195	800.000	0.020	0.081
-259.180	54.441	0.205	0.194
-258.165	70.547	0.127	0.130
-257.151	-93.295	0.257	0.070
-256.136	2.263	-0.158	0.113
-255.122	55.194	0.121	-0.116
-254.107	317.517	-0.231	0.431
-253.092	41.928	-0.307	0.274
-252.078	28.954	-0.277	-0.231
-251.063	77.685	0.230	0.241
-250.049	-164.771	-0.095	0.004
-249.034	-163.838	0.332	-0.015
-248.019	565.326	-0.090	0.215
-247.005	329.061	-0.108	-0.205
-245.990	-58.889	-0.002	0.001
-244.976	-200.000	-0.026	-0.214
-243.961	-161.902	0.276	-0.014
-242.946	-0.166	0.185	0.130
-241.932	-106.760	0.269	-0.059
-240.917	800.000	-0.032	0.131
-239.903	20.695	0.110	-0.088
-238.888	-94.573	-0.290	-0.078
-237.873	-200.000	-0.054	0.424
-236.859	-200.000	-0.011	0.172
-235.844	-164.713	-0.052	0.002
-234.830	261.860	-0.061	-0.103
-233.815	28.215	0.075	-0.063
-232.800	800.000	0.094	0.361
-231.786	-200.000	0.063	-0.372
-230.771	19.792	0.113	0.090
-229.757	-41.892	0.048	-0.024
-228.742	-74.390	0.184	-0.065
-227.727	800.000	0.112	-0.307
-226.713	296.967	0.093	0.168
-225.698	-28.765	0.089	0.050
-224.684	-60.397	0.291	-0.122
-223.669	-200.000	0.020	0.210
-222.655	24.327	0.110	-0.089
-221.640	-13.932	-0.208	0.132
-220.625	-167.612	-0.083	0.003
-219.611	-27.506	-0.177	-0.101
-218.596	800.000	-0.060	0.170
-217.582	-92.796	-0.120	0.033
-216.567	800.000	0.078	0.223
-215.552	-88.271	-0.313	0.092
-214.538	-200.000	0.082	-0.499
-213.523	-200.000	0.075	-0.355
-212.509	-160.984	-0.305	-0.016
-211.494	127.454	-0.073	-0.091
-210.479	-200.000	0.017	0.152
-209.465	543.740	-0.204	0.479
-208.450	-200.000	0.041	0.280
-207.436	-43.040	0.169	-0.084
-206.421	-20.481	0.360	-0.217
-205.406	-108.057	-0.172	-0.037
-204.392	173.832	0.113	0.160
-203.377	-200.000	-0.009	-0.212
-202.363	476.240	-0.112	-0.249
-201.348	589.176	-0.207	-0.502
-200.333	70.959	-0.016	0.016
-199.319	7.734	0.383	-0.282
-198.304	-200.000	0.062	-0.285
-197.290	-103.372	-0.131	-0.030
-196.275	147.231	0.041	-0.055
-195.260	-200.000	0.034	-0.158
-194.246	-27.302	0.098	-0.056
-193.231	-25.636	-0.037	0.022
-192.217	-142.203	0.299	0.029
-191.202	137.430	0.095	0.122
-190.187	110.342	-0.077	-0.091
-189.173	141.569	-0.193	0.251
-188.158	-200.000	-0.048	0.351
-187.144	-29.641	0.236	0.132
-186.129	800.000	0.009	0.039
-185.114	-36.095	0.161	0.086
-184.100	192.896	-0.057	0.085
-183.085	-101.641	-0.201	-0.048
-182.071	800.000	0.096	-0.358
-181.056	-200.000	-0.038	-0.337
-180.042	70.496	-0.237	0.241
-179.027	-0.774	-0.422	-0.294
-178.012	-3.055	-0.182	0.125
-176.998	-43.808	-0.159	0.079
-175.983	-200.000	0.009	0.145
-174.969	205.667	-0.097	0.148
-173.954	49.647	0.172	0.159
-172.939	68.400	0.261	0.263
-171.925	34.248	-0.098	-0.084
-170.910	-177.838	0.218	-0.005
-169.896	-102.529	-0.093	0.022
-168.881	249.518	0.120	0.201
-167.866	-85.788	0.431	0.131
-166.852	156.474	-0.098	0.132
-165.837	416.590	0.100	-0.210
-164.823	800.000	-0.021	-0.072
-163.808	780.810	0.085	-0.229
-162.793	-200.000	-0.038	-0.171
-161.779	-200.000	-0.009	0.270
-160.764	-74.525	0.209	-0.074
-159.750	-47.018	0.071	-0.034
-158.735	-12.775	-0.051	-0.032
-157.720	281.639	0.263	0.463
-156.706	-53.928	-0.198	0.088
-155.691	-120.410	-0.071	0.012
-154.677	-72.638	-0.311	-0.113
-153.662	-76.272	-0.176	-0.061
-152.647	194.184	0.110	-0.163
-151.633	-200.000	-0.025	0.351
-150.618	176.158	-0.161	0.230
-149.604	-82.770	0.132	0.042
-148.589	-200.000	0.075	-0.331
-147.574	-116.107	-0.243	0.044
-146.560	-78.677	0.327	-0.110
-145.545	-200.000	-0.019	0.106
-144.531	54.803	0.174	-0.165
-143.516	800.000	-0.059	0.235
-142.502	7.372	-0.333	-0.244
-141.487	-52.531	-0.199	-0.090
-140.472	-200.000	0.049	-0.350
-139.458	-200.000	-0.020	-0.148
-138.443	466.720	0.170	0.374
-137.429	309.960	-0.043	-0.079
-136.414	0.221	-0.056	-0.039
-135.399	-175.568	-0.106	0.003
-134.385	-137.765	-0.257	-0.028
-133.370	-67.050	-0.143	-0.055
-132.356	-60.147	0.160	-0.067
-131.341	-200.000	-0.016	0.190
-130.326	-189.573	0.202	0.002
-129.312	-38.888	-0.103	0.053
-128.297	-200.000	0.062	-0.316
-127.283	60.334	0.192	-0.186
-126.268	170.189	0.282	0.395
-125.253	-43.560	-0.263	0.130
-124.239	-8.634	-0.296	0.195
-123.224	-23.379	0.134	-0.079
-122.210	52.090	-0.090	-0.084
-121.195	-101.380	-0.321	-0.077
-120.180	-200.000	-0.051	0.224
-119.166	168.250	-0.097	0.135
-118.151	-89.493	0.032	-0.009
-117.137	307.426	0.123	-0.225
-116.122	-135.554	0.208	-0.024
-115.107	800.000	-0.129	0.534
-114.093	-200.000	0.008	0.057
-113.078	21.702	0.206	0.164
-112.064	-132.112	0.298	0.038
-111.049	-200.000	0.012	-0.171
-110.034	366.860	-0.038	-0.076
-109.020	-107.841	-0.254	0.054
-108.005	438.538	-0.097	0.208
-106.991	-200.000	-0.013	0.301
-105.976	-200.000	0.054	0.248
-104.962	-200.000	-0.022	0.206
-103.947	-19.704	-0.310	-0.188
-102.932	-76.073	-0.125	0.043
-101.918	79.026	0.074	-0.078
-100.903	139.829	0.147	-0.190
-99.889	-200.000	0.002	-0.163
-98.874	73.164	0.294	0.301
-97.859	115.573	0.087	0.104
-96.845	-44.637	0.082	0.040
-95.830	-26.745	-0.165	-0.095
-94.816	10.056	0.509	0.379
-93.801	-6.919	0.025	-0.016
-92.786	192.793	-0.017	-0.025
-91.772	76.702	-0.196	0.204
-90.757	-200.000	0.043	0.186
-89.743	131.207	0.243	-0.305
-88.728	31.646	0.095	0.080
-87.713	-99.934	0.189	0.046
-86.699	18.719	-0.192	0.150
-85.684	-200.000	-0.002	-0.087
-84.670	49.420	0.120	0.110
-83.655	186.153	0.106	0.155
-82.640	-11.561	-0.310	-0.199
-81.626	191.098	0.258	-0.380
-80.611	-54.678	-0.261	-0.116
-79.597	54.246	-0.105	0.099
-78.582	58.485	-0.186	0.179
-77.567	-78.101	-0.043	-0.014
-76.553	-89.780	-0.046	-0.013
-75.538	-71.422	0.321	0.117
-74.524	-74.922	0.155	-0.054
-73.509	-200.000	-0.033	0.213
-72.494	-81.692	-0.304	0.098
-71.480	-5.209	0.084	0.056
-70.465	-21.959	-0.146	-0.087
-69.451	-200.000	0.022	0.220
-68.436	-66.895	-0.251	0.097
-67.422	-78.148	-0.124	0.042
-66.407	240.849	-0.176	0.287
-65.392	-5.415	0.191	-0.128
-64.378	-150.610	-0.155	-0.012
-63.363	-117.578	0.049	0.009
-62.349	800.000	0.049	-0.148
-61.334	279.284	-0.580	-1.011
-60.319	54.218	0.643	0.605
-59.305	800.000	-0.364	-1.227
-58.290	66.708	0.891	0.886
-57.276	370.441	0.637	1.263
-56.261	-200.000	116.695	645.599
-55.246	500.492	1541.495	3476.231
-54.232	175.583	2710.139	3841.031
-53.217	105.084	2152.382	2482.240
-52.203	37.995	1585.971	1378.317
-51.188	29.766	1328.772	1105.787
-50.173	26.961	1290.443	1057.533
-49.159	52.782	1349.065	1260.254
-48.144	51.153	1361.847	1262.455
-47.130	29.923	1316.332	1096.190
-46.115	26.630	1298.161	1061.745
-45.100	26.404	1293.271	1056.384
-44.086	26.325	1290.678	1053.764
-43.071	26.085	1288.396	1050.465
-42.057	26.255	1286.436	1049.812
-41.042	26.254	1285.037	1048.626
-40.027	26.261	1283.356	1047.251
-39.013	26.307	1281.272	1045.773
-37.998	26.364	1278.991	1044.201
-36.984	26.473	1277.460	1043.538
-35.969	26.467	1275.848	1042.146
-34.954	26.381	1274.154	1040.225
-33.940	26.508	1272.508	1039.570
-32.925	26.411	1271.648	1038.269
-31.911	26.471	1269.820	1037.079
-30.896	26.507	1268.529	1036.192
-29.881	26.469	1267.403	1035.014
-28.867	26.534	1265.543	1033.823
-27.852	26.563	1264.579	1033.159
-26.838	26.549	1263.211	1031.919
-25.823	26.575	1261.358	1030.516
-24.809	26.530	1260.257	1029.320
-23.794	26.464	1258.969	1027.849
-22.779	26.527	1257.725	1027.155
-21.765	26.506	1256.175	1025.727
-20.750	26.583	1254.952	1025.121
-19.736	26.458	1254.133	1023.708
-18.721	26.398	1252.819	1022.255
-17.706	26.512	1251.245	1021.572
-16.692	26.459	1250.568	1020.678
-15.677	26.375	1249.717	1019.471
-14.663	26.504	1248.357	1019.046
-13.648	26.410	1247.229	1017.557
-12.633	26.257	1246.718	1016.242
-11.619	26.286	1245.738	1015.563
-10.604	26.360	1244.986	1015.325
-9.590	26.456	1243.407	1014.534
-8.575	26.268	1243.003	1013.110
-7.560	26.326	1241.870	1012.474
-6.546	26.433	1240.742	1012.113
-5.531	26.400	1240.191	1011.440
-4.517	26.295	1239.455	1010.210
-3.502	26.419	1238.440	1010.037
-2.487	26.334	1237.715	1008.932
-1.473	26.366	1233.152	1005.349
-0.458	24.932	1218.499	985.479
0.556	21.876	1202.501	949.980
1.571	18.365	1208.398	935.411
2.586	17.486	1223.410	942.085
3.600	17.111	1211.473	930.753
4.615	12.787	1140.134	853.514
5.629	5.983	1070.152	767.878
6.644	3.274	1052.653	742.211
7.659	3.133	1050.400	739.876
8.673	3.121	1049.560	739.161
9.688	3.242	1047.786	738.428
10.702	3.342	1045.999	737.581
11.717	7.242	1050.886	759.690
12.731	14.516	1061.482	802.399
13.746	18.966	1066.811	827.828
14.761	19.669	1067.288	831.509
15.775	18.834	1065.122	825.735
16.790	17.857	1063.461	819.683
17.804	17.224	1061.622	815.159
18.819	16.840	1061.042	812.801
19.834	16.672	1060.147	811.237
20.848	16.576	1059.379	810.120
21.863	16.503	1058.052	808.682
22.877	16.246	1057.703	807.115
23.892	16.189	1056.980	806.221
24.907	16.170	1056.395	805.609
25.921	16.205	1055.442	804.978
26.936	16.208	1053.968	803.801
27.950	16.375	1052.361	803.298
28.965	16.479	1051.176	802.815
29.980	16.385	1049.498	801.018
30.994	16.387	1049.137	800.679
32.009	16.559	1047.735	800.353
33.023	16.506	1046.901	799.394
34.038	16.464	1045.434	798.006
35.053	16.335	1044.701	796.768
36.067	16.423	1043.716	796.362
37.082	16.464	1042.700	795.709
38.096	16.463	1042.399	795.401
39.111	16.581	1041.660	795.323
40.126	16.357	1040.104	793.012
41.140	16.182	1038.749	791.087
42.155	15.953	1037.792	789.219
43.169	15.930	1036.760	788.254
44.184	15.878	1035.816	787.222
45.199	16.062	1034.513	787.026
46.213	16.207	1033.669	786.988
47.228	16.322	1032.664	786.688
48.242	16.320	1031.563	785.771
49.257	16.362	1030.748	785.275
50.271	16.310	1029.884	784.309
51.286	16.333	1029.145	783.780
52.301	16.311	1028.508	783.124
53.315	16.208	1027.267	781.633
54.330	15.991	1026.447	779.939
55.344	16.005	1025.559	779.257
56.359	16.121	1024.320	778.786
57.374	16.107	1023.586	778.090
58.388	16.055	1022.681	777.096
59.403	16.000	1021.451	775.839
60.417	15.975	1020.955	775.277
61.432	16.021	1019.963	774.667
62.447	15.905	1019.304	773.565
63.461	15.786	1018.723	772.509
64.476	15.910	1017.331	771.956
65.490	15.889	1016.448	771.123
66.505	15.891	1015.752	770.536
67.520	15.807	1015.508	769.897
68.534	16.096	1014.171	770.135
69.549	15.818	1014.547	769.083
70.563	15.871	1013.086	768.146
71.578	15.752	1012.331	766.963
72.593	15.816	1011.219	766.347
73.607	15.779	1010.672	765.697
74.622	15.674	1010.282	764.854
75.636	15.782	1009.616	764.771
76.651	15.800	1008.737	764.122
77.666	15.824	1008.217	763.771
78.680	15.894	1007.666	763.601
79.695	15.820	1006.772	762.519
80.709	16.047	1006.120	762.986
81.724	16.089	1005.996	763.014
82.739	16.068	1005.410	762.410
83.753	16.255	1004.218	762.284
84.768	16.545	1003.683	763.117
85.782	16.590	1002.543	762.386
86.797	16.465	1001.907	761.274
87.812	16.277	1001.186	759.809
88.826	16.385	999.786	759.165
89.841	16.448	999.030	758.806
90.855	16.535	997.974	758.327
91.870	16.492	997.304	757.561
92.884	16.467	996.798	756.997
93.899	16.522	995.738	756.369
94.914	16.561	994.879	755.827
95.928	16.515	994.315	755.127
96.943	16.537	993.089	754.225
97.957	16.396	992.093	752.772
98.972	16.477	991.283	752.455
99.987	16.524	990.467	751.976
101.001	16.487	989.401	750.937
102.016	16.473	988.873	750.406
103.030	16.642	988.406	750.736
104.045	16.474	987.404	749.165
105.060	16.449	986.392	748.220
106.074	16.178	985.467	746.253
107.089	16.099	984.227	744.900
108.103	16.020	983.199	743.705
109.118	16.133	982.184	743.371
110.133	16.063	981.395	742.397
111.147	15.992	980.738	741.523
112.162	16.082	979.771	741.123
113.176	16.057	979.327	740.614
114.191	16.324	978.568	741.143
115.206	16.202	977.531	739.760
116.220	16.081	976.979	738.747
117.235	16.055	976.116	737.913
118.249	16.080	974.972	737.093
119.264	16.034	974.472	736.447
120.279	16.042	973.640	735.790
121.293	15.908	972.542	734.310
122.308	15.934	971.386	733.487
123.322	15.778	970.898	732.371
124.337	15.995	969.072	731.873
125.352	15.861	968.424	730.737
126.366	15.853	967.506	729.944
127.381	16.004	966.504	729.780
128.395	16.046	965.782	729.353
129.410	15.891	964.968	728.000
130.424	16.065	963.910	727.891
131.439	15.981	963.769	727.356
132.454	16.103	962.489	726.853
133.468	16.300	961.437	726.844
134.483	16.168	960.819	725.743
135.497	16.125	960.066	724.924
136.512	16.218	959.374	724.739
137.527	16.108	958.441	723.496
138.541	16.187	957.590	723.127
139.556	16.177	957.483	722.940
140.570	16.339	956.457	722.795
141.585	16.480	955.750	722.799
142.600	16.416	955.059	721.939
143.614	16.517	954.266	721.711
144.629	16.514	953.467	721.028
145.643	16.405	952.340	719.648
146.658	16.490	951.109	719.015
147.673	16.258	950.808	717.738
148.687	16.187	949.994	716.759
149.702	16.226	949.030	716.131
150.716	16.156	948.289	715.211
151.731	16.237	947.413	714.831
152.746	16.355	946.505	714.583
153.760	16.302	946.095	713.987
154.775	16.375	945.643	713.890
155.789	16.578	944.479	713.806
156.804	16.575	943.935	713.320
157.819	16.523	943.479	712.691
158.833	16.632	942.871	712.629
159.848	16.810	941.641	712.385
160.862	16.592	940.994	710.918
161.877	16.487	939.985	709.650
162.892	16.233	938.899	707.701
163.906	16.201	938.034	706.854
164.921	16.336	937.029	706.600
165.935	16.384	936.132	706.062
166.950	16.458	935.003	705.454
167.964	16.351	934.965	704.917
168.979	16.359	933.703	703.938
169.994	16.320	932.917	703.121
171.008	16.370	932.413	702.887
172.023	16.746	931.714	703.861
173.037	16.685	930.920	702.943
174.052	16.643	930.144	702.123
175.067	16.478	929.206	700.668
176.081	16.153	929.217	699.267
177.096	16.288	928.204	699.002
178.110	16.372	927.739	698.939
179.125	16.410	927.213	698.636
180.140	16.583	926.136	698.479
181.154	16.640	926.089	698.614
182.169	16.633	925.719	698.247
183.183	16.734	924.895	697.977
184.198	16.617	924.324	697.002
185.213	16.723	923.658	696.876
186.227	16.650	923.323	696.261
187.242	16.851	922.571	696.457
188.256	16.972	922.441	696.797
189.271	16.956	921.487	695.950
190.286	16.607	920.422	693.652
191.300	16.429	919.180	691.928
192.315	16.273	918.653	690.828
193.329	16.462	918.178	691.182
194.344	16.581	917.894	691.394
195.359	16.535	917.610	690.931
196.373	16.688	916.828	690.907
197.388	16.800	916.596	691.129
198.402	16.973	915.827	691.192
199.417	16.910	915.080	690.310
200.432	17.261	914.759	691.435
201.446	17.097	914.391	690.432
202.461	17.136	913.751	690.042
203.475	17.179	913.178	689.722
204.490	17.007	912.020	688.092
205.504	16.902	911.348	687.098
206.519	16.892	910.651	686.471
207.534	16.869	909.993	685.821
208.548	16.916	909.116	685.289
209.563	17.028	908.664	685.342
210.577	17.087	908.099	685.090
211.592	17.183	907.473	684.947
212.607	17.199	907.093	684.664
213.621	17.135	906.373	683.802
214.636	17.084	905.242	682.681
215.650	17.082	904.458	682.023
216.665	17.291	903.819	682.320
217.680	17.271	903.483	681.927
218.694	17.202	903.064	681.272
219.709	17.327	901.853	680.798
220.723	17.224	901.620	680.150
221.738	17.180	901.100	679.522
222.753	17.206	900.523	679.132
223.767	17.312	899.890	679.017
224.782	17.459	899.043	678.905
225.796	17.516	898.375	678.567
226.811	17.327	897.689	677.234
227.826	17.312	896.995	676.594
228.840	17.259	896.173	675.701
229.855	17.238	895.494	675.048
230.869	17.139	894.834	674.095
231.884	17.153	893.952	673.429
232.899	17.171	893.690	673.244
233.913	17.255	892.472	672.597
234.928	17.057	892.083	671.461
235.942	16.921	891.853	670.691
236.957	17.124	891.118	670.880
237.972	17.200	890.401	670.580
238.986	17.082	890.416	670.067
240.001	17.075	889.275	669.125
241.015	17.317	888.704	669.588
242.030	17.168	888.499	668.788
243.045	17.275	887.741	668.578
244.059	17.264	887.136	668.019
245.074	17.366	886.175	667.639
246.088	17.562	885.325	667.707
247.103	17.573	885.359	667.716
248.117	17.598	884.643	667.215
249.132	17.799	884.289	667.678
250.147	17.993	883.739	667.958
251.161	17.898	883.233	667.147
252.176	17.889	882.816	666.740
253.190	17.964	881.813	666.216
254.205	17.978	881.255	665.790
255.220	17.952	880.695	665.205
256.234	18.087	879.779	664.979
257.249	17.924	879.514	664.087
258.263	17.926	878.185	663.032
259.278	18.056	878.060	663.385
260.293	18.103	877.797	663.307
261.307	18.292	876.748	663.189
262.322	18.027	876.676	662.052
263.336	18.233	875.535	661.929
264.351	18.129	874.798	660.908
265.366	18.149	874.548	660.738
266.380	18.248	873.844	660.530
267.395	18.211	873.048	659.729
268.409	18.138	871.979	658.579
269.424	18.094	871.645	658.102
270.439	18.030	870.741	657.115
271.453	17.833	870.157	655.857
272.468	18.015	869.444	655.961
273.482	17.977	868.826	655.292
274.497	18.012	868.220	654.912
275.512	17.995	867.697	654.392
276.526	18.086	867.633	654.636
277.541	18.305	866.575	654.616
278.555	18.278	866.417	654.337
279.570	18.371	865.744	654.127
280.585	18.308	864.924	653.209
281.599	18.249	864.307	652.460
282.614	18.267	863.632	651.960
283.628	18.114	862.965	650.818
284.643	18.133	862.492	650.474
285.657	18.265	861.498	650.167
286.672	18.216	860.787	649.390
287.687	18.187	860.601	649.080
288.701	18.129	860.076	648.405
289.716	18.239	859.081	648.018
290.730	18.099	858.886	647.281
291.745	18.246	858.317	647.351
292.760	18.280	858.021	647.199
293.774	18.445	857.164	647.121
294.789	18.397	856.386	646.293
295.803	18.332	855.573	645.377
296.818	18.263	855.157	644.749
297.833	18.378	854.268	644.452
298.847	18.346	853.633	643.796
299.862	18.329	853.248	643.385
300.876	18.545	852.893	643.873
301.891	18.699	851.900	643.643
302.906	18.612	851.829	643.207
303.920	18.736	851.040	643.015
304.935	18.882	850.136	642.824
305.949	18.532	849.757	641.170
306.964	18.638	849.057	640.983
307.979	18.604	849.051	640.794
308.993	18.644	848.504	640.475
310.008	18.676	847.755	639.970
311.022	18.628	846.896	639.086
312.037	18.595	846.602	638.685
313.052	18.443	845.772	637.440
314.066	18.464	845.198	637.027
315.081	18.434	844.621	636.425
316.095	18.502	844.134	636.253
317.110	18.508	843.229	635.537
318.125	18.556	842.707	635.264
319.139	18.529	842.483	634.941
320.154	18.488	842.322	634.611
321.168	18.491	841.927	634.268
322.183	18.589	840.841	633.756
323.197	18.634	840.308	633.465
324.212	18.468	840.455	632.907
325.227	18.582	839.202	632.327
326.241	18.521	838.865	631.792
327.256	18.364	838.249	630.693
328.270	18.646	837.458	631.082
329.285	18.519	837.074	630.270
330.300	18.536	836.542	629.877
331.314	18.557	835.839	629.369
332.329	18.510	835.860	629.155
333.343	18.727	835.254	629.438
334.358	18.863	834.610	629.397
335.373	18.787	834.448	628.938
336.387	18.886	833.902	628.835
337.402	18.847	834.089	628.779
338.416	18.900	833.509	628.478
339.431	19.101	833.109	628.857
340.446	19.155	832.836	628.789
341.460	19.123	832.399	628.290
342.475	19.160	832.002	628.067
343.489	19.219	831.727	628.019
344.504	19.219	831.055	627.458
345.519	19.327	830.793	627.598
346.533	19.270	829.899	626.660
347.548	19.148	829.355	625.751
348.562	19.069	828.486	624.751
349.577	19.025	828.153	624.286
350.592	18.799	827.327	622.789
351.606	18.808	826.636	622.247
352.621	18.807	825.980	621.695
353.635	18.910	825.534	621.677
354.650	18.951	825.066	621.414
355.665	18.892	824.349	620.610
356.679	19.119	823.952	621.073
357.694	19.163	822.909	620.389
358.708	19.233	822.322	620.145
359.723	19.067	822.115	619.337
360.738	19.160	821.092	618.845
361.752	19.079	821.085	618.495
362.767	19.323	820.428	618.820
363.781	19.326	820.127	618.551
364.796	19.390	819.625	618.345
365.810	19.585	819.346	618.780
366.825	19.631	818.837	618.506
367.840	19.524	818.474	617.793
368.854	19.548	817.469	617.067
369.869	19.518	817.144	616.658
370.883	19.412	816.949	616.077
371.898	19.658	816.420	616.501
372.913	19.664	816.106	616.232
373.927	19.487	815.554	615.131
374.942	19.653	815.188	615.391
375.956	19.796	814.423	615.266
376.971	19.856	814.075	615.165
377.986	19.907	813.846	615.118
379.000	19.862	813.372	614.543
380.015	19.708	812.942	613.619
381.029	19.735	812.335	613.202
382.044	19.783	811.598	612.763
383.059	19.817	811.070	612.430
384.073	19.759	810.462	611.711
385.088	19.591	809.643	610.445
386.102	19.634	809.126	610.154
387.117	19.755	808.664	610.179
388.132	19.578	807.971	608.975
389.146	19.785	807.365	609.196
390.161	19.808	807.377	609.231
391.175	19.869	806.615	608.819
392.190	19.715	806.567	608.185
393.205	19.605	805.988	607.308
394.219	19.698	805.733	607.391
395.234	19.575	805.324	606.597
396.248	19.446	804.575	605.524
397.263	19.492	803.907	605.129
398.278	19.450	803.675	604.753
399.292	19.476	803.088	604.351
400.307	19.556	802.865	604.409
401.321	19.658	802.002	604.062
402.336	19.686	801.773	603.933
403.350	19.662	801.708	603.748
404.365	19.833	801.242	603.940
405.380	20.044	800.582	604.124
406.394	20.035	800.284	603.816
407.409	20.033	800.070	603.592
408.423	20.156	799.472	603.518
409.438	20.093	799.154	603.004
410.453	20.160	798.748	602.878
411.467	20.194	798.206	602.533
412.482	20.405	797.813	602.916
413.496	20.227	797.961	602.356
414.511	20.418	797.238	602.420
415.526	20.334	796.424	601.461
416.540	20.333	795.880	600.993
417.555	20.375	795.419	600.736
418.569	20.344	795.541	600.670
419.584	20.245	795.110	599.947
420.599	20.395	794.272	599.782
421.613	162.160	1371.924	1796.391
422.628	140.602	1456.084	1796.485
