DTS Sentinel unit serial number:	SN413079Multiplexer serial number:	ORYXHardware model number:	OX4-SRSoftware version number:	ORYX F/W v4.00 Oryx Data Collector v3.7.2.0data status	okinstallation	princeton_trtdifferential loss correction	single-endedforward channel	channel 1reverse channel	N/Adate	2019/09/18time	10:42:35forward acquisition time	60.00reverse acquisition time	0.00gamma	496.2192k internal	0.2327k external	0.2327temperature offset calibration	0.9978default loss term (dB/km)	0.3790temperature slope calibration	1.0000multiplexer offset coefficient	1.0000multiplexer slope coefficient	1.0000fibre end	0.00T internal ref (°C)	28.75T ext. ref 1 (°C)	0.36T ext. ref 2 (°C)	25.43length (m)	temperature (°C)	Stokes	anti-Stokes-747.200	51.878	0.233	-0.224
-746.185	800.000	0.090	0.318
-745.171	-200.000	-0.015	-0.202
-744.156	800.000	0.091	0.272
-743.142	-27.769	-0.026	-0.015
-742.127	-200.000	0.094	0.484
-741.112	340.192	-0.087	-0.171
-740.098	800.000	0.016	0.044
-739.083	-200.000	0.036	-0.174
-738.069	-53.015	-0.105	0.049
-737.054	-162.956	0.115	-0.006
-736.039	-143.535	-0.546	-0.052
-735.025	36.565	0.384	0.341
-734.010	15.607	0.081	0.064
-732.996	-200.000	0.012	-0.245
-731.981	-37.500	-0.349	-0.187
-730.966	-147.764	-0.243	-0.021
-729.952	482.161	0.153	-0.349
-728.937	-200.000	0.065	-0.405
-727.923	-162.771	-0.042	0.002
-726.908	-61.100	-0.306	-0.130
-725.894	-5.029	-0.205	0.142
-724.879	246.434	0.176	-0.299
-723.864	-68.814	-0.191	0.074
-722.850	41.857	0.343	-0.314
-721.835	800.000	-0.104	-0.291
-720.821	202.021	0.097	0.150
-719.806	-200.000	-0.087	-0.484
-718.791	800.000	-0.069	-0.199
-717.777	-200.000	0.060	0.342
-716.762	-39.484	0.206	0.109
-715.748	-29.392	-0.135	-0.078
-714.733	73.235	-0.224	0.236
-713.718	67.925	0.133	-0.137
-712.704	-80.728	0.246	0.082
-711.689	-73.227	-0.255	-0.094
-710.675	-200.000	-0.023	0.190
-709.660	-63.020	-0.512	-0.213
-708.645	422.689	0.102	-0.221
-707.631	-99.999	0.322	-0.081
-706.616	-136.842	0.267	-0.031
-705.602	-98.584	-0.186	0.048
-704.587	-0.730	0.242	-0.172
-703.572	-147.225	0.151	-0.013
-702.558	162.254	0.042	0.060
-701.543	-39.011	-0.068	0.036
-700.529	800.000	-0.050	-0.163
-699.514	140.743	0.093	0.123
-698.499	-170.525	0.174	0.006
-697.485	-200.000	-0.002	-0.322
-696.470	373.892	0.020	0.042
-695.456	215.962	0.135	-0.216
-694.441	27.602	0.151	0.128
-693.426	101.590	0.139	0.163
-692.412	42.693	-0.270	-0.248
-691.397	-200.000	0.017	-0.258
-690.383	-28.058	-0.222	0.129
-689.368	-200.000	0.041	-0.374
-688.354	-45.483	-0.369	0.184
-687.339	-75.252	-0.327	0.117
-686.324	-200.000	0.006	0.224
-685.310	312.386	-0.026	0.049
-684.295	-93.153	0.131	-0.037
-683.281	108.557	0.113	-0.136
-682.266	215.862	-0.025	0.040
-681.251	78.716	0.175	0.188
-680.237	-66.957	-0.241	0.096
-679.222	-65.906	-0.101	-0.041
-678.208	800.000	-0.081	-0.338
-677.193	-11.591	0.174	0.115
-676.178	340.541	-0.018	0.036
-675.164	106.466	-0.028	0.033
-674.149	-105.026	-0.148	-0.034
-673.135	-200.000	-0.043	0.383
-672.120	131.662	0.145	-0.188
-671.105	-89.822	0.333	0.098
-670.091	-184.900	-0.401	0.006
-669.076	104.015	-0.203	0.240
-668.062	133.909	-0.145	-0.188
-667.047	66.111	0.169	-0.172
-666.032	481.962	0.104	0.237
-665.018	299.170	-0.074	0.137
-664.003	200.019	-0.199	0.307
-662.989	-8.229	0.223	0.151
-661.974	-114.323	0.400	0.077
-660.959	51.751	-0.218	0.209
-659.945	88.744	-0.098	-0.109
-658.930	-89.674	0.092	0.027
-657.916	-112.538	-0.310	0.062
-656.901	-153.584	-0.236	-0.016
-655.886	7.433	0.222	0.167
-654.872	36.255	-0.165	-0.146
-653.857	-22.344	-0.157	-0.096
-652.843	800.000	-0.095	0.340
-651.828	-47.746	0.275	0.134
-650.814	232.862	0.131	-0.216
-649.799	-200.000	0.037	0.283
-648.784	350.275	-0.147	-0.291
-647.770	800.000	-0.070	0.244
-646.755	800.000	0.044	0.148
-645.741	-200.000	0.068	0.434
-644.726	-200.000	-0.019	0.171
-643.711	488.143	-0.108	-0.247
-642.697	174.197	0.197	0.286
-641.682	-200.000	0.023	0.240
-640.668	-200.000	0.008	0.335
-639.653	-73.738	0.024	0.009
-638.638	-94.604	-0.213	-0.058
-637.624	-200.000	-0.020	0.193
-636.609	800.000	-0.112	-0.323
-635.595	-200.000	-0.060	-0.359
-634.580	-62.543	0.224	-0.094
-633.565	26.708	-0.042	-0.035
-632.551	359.680	-0.203	-0.409
-631.536	-79.670	-0.317	0.107
-630.522	800.000	-0.086	0.296
-629.507	-200.000	0.089	-0.392
-628.492	182.750	0.034	-0.050
-627.478	132.022	0.216	-0.279
-626.463	-119.032	0.352	0.062
-625.449	-108.455	0.173	0.037
-624.434	-56.488	0.314	-0.140
-623.419	189.167	0.034	-0.051
-622.405	-200.000	-0.023	-0.258
-621.390	-200.000	0.060	-0.278
-620.376	31.923	-0.073	0.063
-619.361	236.759	-0.122	-0.203
-618.346	33.616	-0.094	0.082
-617.332	-200.000	0.061	0.433
-616.317	-142.489	0.066	0.007
-615.303	-79.227	-0.155	-0.053
-614.288	-147.617	-0.090	-0.008
-613.273	800.000	0.050	-0.182
-612.259	-200.000	-0.031	0.176
-611.244	495.084	0.084	0.192
-610.230	444.156	0.067	0.148
-609.215	-104.339	-0.118	-0.027
-608.201	-89.493	0.418	-0.123
-607.186	-33.106	0.159	0.088
-606.171	-41.800	-0.223	0.115
-605.157	6.481	0.194	-0.145
-604.142	-99.239	0.189	0.048
-603.128	600.603	0.148	0.369
-602.113	334.152	-0.128	-0.248
-601.098	-20.145	0.060	-0.037
-600.084	800.000	-0.119	-0.333
-599.069	-200.000	0.063	-0.435
-598.055	-66.472	0.098	-0.039
-597.040	-130.588	0.386	-0.052
-596.025	44.235	-0.155	-0.142
-595.011	800.000	0.051	-0.151
-593.996	0.248	0.098	0.070
-592.982	3.452	-0.113	0.083
-591.967	248.423	0.187	-0.317
-590.952	95.629	0.298	0.341
-589.938	109.865	0.135	-0.163
-588.923	-200.000	-0.012	-0.061
-587.909	-23.421	-0.201	-0.121
-586.894	537.134	0.080	0.190
-585.879	243.624	0.045	0.076
-584.865	-111.214	-0.260	-0.053
-583.850	-200.000	0.001	-0.169
-582.836	-107.649	0.231	-0.051
-581.821	-21.838	-0.404	-0.246
-580.806	800.000	-0.088	-0.264
-579.792	-200.000	-0.001	0.465
-578.777	67.868	0.121	0.124
-577.763	54.337	0.084	-0.081
-576.748	-32.295	0.128	-0.071
-575.733	-200.000	-0.002	-0.057
-574.719	-200.000	0.042	-0.385
-573.704	137.813	0.097	0.127
-572.690	-63.523	-0.243	-0.100
-571.675	-200.000	0.022	-0.240
-570.661	-200.000	0.004	0.064
-569.646	-87.360	-0.272	-0.083
-568.631	-101.933	0.137	-0.033
-567.617	195.966	0.110	-0.167
-566.602	-30.688	-0.315	0.178
-565.588	144.840	-0.121	0.162
-564.573	-190.012	0.185	0.002
-563.558	709.364	0.090	-0.238
-562.544	-26.535	-0.224	0.131
-561.529	-12.421	0.106	-0.069
-560.515	-87.650	0.221	-0.067
-559.500	800.000	0.087	0.337
-558.485	38.239	-0.158	0.141
-557.471	108.010	0.197	0.235
-556.456	-45.697	0.219	-0.109
-555.442	-98.140	0.029	-0.008
-554.427	172.454	0.077	0.111
-553.412	-16.522	0.233	-0.148
-552.398	-5.823	-0.028	-0.019
-551.383	-79.331	0.215	-0.073
-550.369	-23.957	0.089	-0.053
-549.354	30.353	0.107	0.091
-548.339	-158.187	-0.558	0.033
-547.325	-140.968	-0.307	0.031
-546.310	647.852	0.177	-0.454
-545.296	-68.495	0.208	-0.081
-544.281	30.659	-0.077	0.066
-543.266	59.800	0.238	0.235
-542.252	-31.421	-0.312	0.176
-541.237	39.634	-0.090	-0.081
-540.223	140.698	0.105	0.139
-539.208	-200.000	0.009	-0.246
-538.193	-200.000	0.004	-0.060
-537.179	448.527	-0.071	-0.156
-536.164	33.911	0.163	-0.142
-535.150	-60.862	0.494	-0.209
-534.135	235.087	0.160	-0.264
-533.121	-40.486	0.472	-0.245
-532.106	156.261	0.251	-0.346
-531.091	35.451	-0.321	-0.281
-530.077	-181.448	0.053	-0.001
-529.062	68.814	-0.069	-0.071
-528.048	280.390	0.184	-0.328
-527.033	-200.000	0.002	-0.408
-526.018	15.682	-0.213	0.168
-525.004	-200.000	-0.215	0.000
-523.989	124.350	-0.050	-0.063
-522.975	800.000	-0.068	-0.243
-521.960	-44.359	-0.315	-0.158
-520.945	-109.318	-0.162	-0.034
-519.931	9.556	0.094	-0.071
-518.916	-200.000	0.002	-0.026
-517.902	226.924	0.039	0.063
-516.887	-143.124	0.120	0.012
-515.872	-200.000	0.097	-0.477
-514.858	-171.268	0.124	0.004
-513.843	-64.744	0.130	-0.052
-512.829	-200.000	-0.048	0.298
-511.814	-120.889	-0.215	-0.036
-510.799	703.541	-0.040	0.106
-509.785	37.061	-0.156	0.138
-508.770	672.803	0.028	-0.072
-507.756	259.617	-0.027	0.046
-506.741	169.070	-0.179	-0.255
-505.726	209.418	0.047	-0.074
-504.712	-30.144	0.201	-0.114
-503.697	236.928	-0.110	0.182
-502.683	217.069	0.130	0.206
-501.668	-47.551	0.348	0.169
-500.653	-128.980	0.195	-0.027
-499.639	208.155	0.229	-0.358
-498.624	122.827	-0.197	0.246
-497.610	431.158	-0.054	-0.118
-496.595	-11.480	-0.176	-0.115
-495.581	800.000	-0.046	0.200
-494.566	3.374	0.194	0.141
-493.551	88.748	0.147	0.163
-492.537	-104.743	-0.234	0.054
-491.522	-53.984	0.080	0.037
-490.508	223.256	0.093	0.150
-489.493	-118.449	-0.095	-0.017
-488.478	800.000	-0.123	-0.368
-487.464	-155.656	-0.246	-0.016
-486.449	-200.000	0.021	0.375
-485.435	249.479	-0.206	0.348
-484.420	800.000	-0.029	0.119
-483.405	190.821	-0.105	0.158
-482.391	4.598	-0.214	-0.157
-481.376	715.810	0.073	0.192
-480.362	187.728	0.048	-0.071
-479.347	581.526	0.095	0.233
-478.332	164.067	-0.052	-0.073
-477.318	144.666	-0.010	-0.014
-476.303	-200.000	0.017	0.308
-475.289	-110.871	-0.095	0.019
-474.274	-60.151	-0.416	0.177
-473.259	-190.442	0.123	-0.001
-472.245	-69.408	-0.399	-0.153
-471.230	201.342	-0.082	0.127
-470.216	217.868	-0.229	-0.365
-469.201	-91.247	0.227	-0.065
-468.186	103.855	-0.116	0.136
-467.172	-200.000	0.029	0.167
-466.157	-29.870	-0.096	0.055
-465.143	103.891	-0.150	-0.176
-464.128	-25.545	-0.152	-0.090
-463.113	28.064	0.257	-0.217
-462.099	-11.823	-0.219	-0.143
-461.084	-33.447	0.034	0.019
-460.070	-66.585	0.288	0.114
-459.055	103.932	0.177	0.208
-458.040	-200.000	0.031	-0.203
-457.026	72.116	-0.162	-0.168
-456.011	668.492	-0.117	0.303
-454.997	17.563	0.210	0.166
-453.982	79.814	-0.141	0.151
-452.968	-40.517	-0.112	0.058
-451.953	404.602	-0.123	0.258
-450.938	-200.000	0.030	0.208
-449.924	-119.890	0.166	0.028
-448.909	-200.000	0.032	0.156
-447.895	-156.557	0.170	-0.011
-446.880	800.000	0.035	-0.124
-445.865	800.000	-0.065	0.198
-444.851	-16.912	-0.374	-0.235
-443.836	-200.000	0.010	0.342
-442.822	50.064	-0.054	0.051
-441.807	-146.740	-0.221	0.019
-440.792	-19.770	0.111	-0.069
-439.778	-200.000	0.038	0.242
-438.763	-137.747	0.070	-0.008
-437.749	800.000	-0.116	-0.483
-436.734	-146.974	0.085	-0.007
-435.719	-64.491	0.207	0.084
-434.705	291.372	-0.170	-0.308
-433.690	-200.000	0.013	0.166
-432.676	332.233	-0.220	0.422
-431.661	800.000	0.006	-0.020
-430.646	134.359	0.102	-0.132
-429.632	-156.768	-0.036	-0.002
-428.617	-200.000	0.298	0.001
-427.603	-71.084	0.181	-0.068
-426.588	624.707	-0.117	-0.293
-425.573	36.204	0.207	-0.182
-424.559	-111.805	0.316	0.064
-423.544	350.546	-0.120	-0.237
-422.530	-69.608	-0.319	-0.122
-421.515	-19.210	-0.181	0.112
-420.500	-200.000	0.018	0.083
-419.486	800.000	0.136	-0.448
-418.471	615.143	-0.039	-0.098
-417.457	170.843	0.294	0.419
-416.442	306.977	0.098	0.182
-415.428	79.913	-0.056	0.060
-414.413	800.000	-0.068	0.290
-413.398	13.798	0.198	-0.153
-412.384	-3.950	0.166	-0.114
-411.369	-78.661	0.042	0.014
-410.355	17.654	-0.045	0.036
-409.340	-200.000	-0.046	0.227
-408.325	-84.637	0.303	0.095
-407.311	-88.197	0.376	-0.112
-406.296	-20.547	0.103	0.063
-405.282	0.017	-0.101	-0.071
-404.267	800.000	-0.034	-0.123
-403.252	-93.304	0.270	-0.075
-402.238	-89.209	-0.109	-0.032
-401.223	-29.354	0.169	-0.096
-400.209	-1.148	0.186	0.131
-399.194	-4.953	0.109	-0.075
-398.179	770.641	0.080	0.217
-397.165	19.016	0.388	0.309
-396.150	-26.574	0.238	0.138
-395.136	-31.381	-0.234	-0.131
-394.121	-50.930	0.129	-0.060
-393.106	18.955	-0.250	0.199
-392.092	-21.526	0.204	0.124
-391.077	-200.000	-0.020	0.330
-390.063	105.692	0.037	0.044
-389.048	-200.000	-0.048	-0.301
-388.033	-143.264	0.277	0.026
-387.019	-200.000	-0.087	-0.392
-386.004	-174.969	0.187	-0.005
-384.990	-76.736	0.109	0.038
-383.975	61.778	0.150	-0.148
-382.960	527.451	0.030	0.071
-381.946	37.085	0.116	0.102
-380.931	69.366	0.083	0.085
-379.917	-22.038	-0.097	-0.059
-378.902	-200.000	-0.012	-0.238
-377.888	32.180	0.140	0.120
-376.873	-13.313	0.202	0.130
-375.858	-200.000	0.009	0.335
-374.844	-78.008	0.065	-0.022
-373.829	71.693	-0.170	0.175
-372.815	-200.000	0.007	-0.161
-371.800	129.143	0.214	0.272
-370.785	234.133	-0.138	0.227
-369.771	-114.316	0.153	-0.029
-368.756	466.814	0.084	-0.187
-367.742	-75.893	0.069	0.024
-366.727	16.690	-0.216	-0.170
-365.712	190.954	-0.079	0.118
-364.698	-48.254	-0.056	-0.027
-363.683	398.806	-0.053	0.111
-362.669	8.854	0.103	0.077
-361.654	2.879	-0.137	0.099
-360.639	-21.880	-0.168	-0.101
-359.625	236.733	0.022	0.037
-358.610	-200.000	-0.025	0.160
-357.596	-123.989	-0.246	-0.038
-356.581	797.496	0.088	0.241
-355.566	-158.805	-0.262	-0.015
-354.552	-84.666	0.046	-0.014
-353.537	-3.156	-0.061	-0.042
-352.523	43.418	0.292	0.265
-351.508	107.696	-0.186	-0.219
-350.493	800.000	-0.117	-0.383
-349.479	-11.008	-0.080	-0.052
-348.464	173.420	-0.086	0.123
-347.450	-200.000	0.054	-0.295
-346.435	-200.000	0.013	-0.123
-345.420	-127.329	-0.128	0.019
-344.406	-62.683	-0.135	0.056
-343.391	526.857	0.042	-0.099
-342.377	800.000	0.032	-0.108
-341.362	-1.013	0.146	-0.103
-340.348	800.000	0.093	-0.322
-339.333	-17.811	-0.158	-0.098
-338.318	312.795	-0.113	-0.211
-337.304	-122.011	-0.170	0.028
-336.289	-179.904	0.084	-0.002
-335.275	-200.000	-0.024	0.180
-334.260	32.981	0.058	0.050
-333.245	-37.299	-0.151	-0.080
-332.231	800.000	-0.045	0.167
-331.216	-200.000	0.097	0.450
-330.202	-80.074	-0.046	-0.015
-329.187	395.905	-0.120	0.248
-328.172	276.258	-0.020	-0.034
-327.158	800.000	-0.027	0.107
-326.143	62.318	-0.114	-0.113
-325.129	-200.000	-0.020	0.124
-324.114	-200.000	-0.019	-0.184
-323.099	-125.355	0.092	0.014
-322.085	-200.000	-0.015	0.343
-321.070	84.685	-0.207	-0.224
-320.056	373.574	-0.039	0.079
-319.041	-161.796	0.265	-0.013
-318.026	800.000	-0.043	-0.159
-317.012	-143.589	0.118	0.011
-315.997	-200.000	-0.048	0.228
-314.983	-42.110	-0.180	0.092
-313.968	509.453	0.057	0.131
-312.953	-82.729	-0.066	0.021
-311.939	-200.000	-0.027	-0.135
-310.924	442.084	-0.066	-0.143
-309.910	12.578	0.199	0.152
-308.895	-200.000	0.004	0.030
-307.880	113.087	-0.106	-0.127
-306.866	-30.131	0.169	0.095
-305.851	250.234	0.021	0.035
-304.837	6.321	0.162	-0.119
-303.822	-118.058	0.190	0.034
-302.807	493.209	0.097	-0.221
-301.793	80.643	0.118	0.126
-300.778	-61.068	-0.048	-0.020
-299.764	-200.000	-0.017	-0.283
-298.749	-155.001	-0.237	-0.015
-297.735	62.269	-0.023	0.023
-296.720	102.388	0.123	-0.142
-295.705	-200.000	0.042	0.198
-294.691	-64.893	-0.072	0.029
-293.676	-200.000	-0.008	0.142
-292.662	-200.000	0.112	-0.570
-291.647	542.376	-0.093	0.219
-290.632	218.677	-0.157	-0.248
-289.618	198.932	-0.145	0.220
-288.603	-167.479	-0.127	0.005
-287.589	-99.791	-0.205	-0.051
-286.574	124.158	-0.032	0.040
-285.559	-8.676	-0.101	-0.067
-284.545	151.610	0.201	-0.272
-283.530	63.575	-0.114	0.114
-282.516	-164.144	-0.484	-0.022
-281.501	33.612	-0.194	-0.167
-280.486	167.174	0.170	0.238
-279.472	767.981	0.069	0.186
-278.457	94.037	0.325	0.365
-277.443	152.341	-0.208	-0.281
-276.428	26.182	-0.187	-0.155
-275.413	-200.000	-0.009	-0.088
-274.399	-33.314	-0.252	0.138
-273.384	800.000	0.052	-0.217
-272.370	-200.000	0.025	0.166
-271.355	-65.928	-0.167	-0.066
-270.340	-35.332	-0.086	-0.046
-269.326	-108.708	-0.207	0.044
-268.311	66.218	0.057	-0.057
-267.297	-200.000	-0.006	0.332
-266.282	-200.000	-0.001	0.037
-265.267	-109.527	0.304	-0.063
-264.253	309.947	0.123	0.228
-263.238	800.000	-0.077	-0.212
-262.224	424.178	-0.111	-0.236
-261.209	800.000	-0.126	-0.382
-260.195	-33.732	0.272	-0.149
-259.180	412.220	-0.093	0.196
-258.165	-200.000	0.006	0.139
-257.151	155.327	0.217	0.295
-256.136	800.000	0.040	0.141
-255.122	71.737	-0.065	-0.067
-254.107	-22.024	-0.370	0.223
-253.092	-53.298	-0.170	-0.077
-252.078	75.912	0.136	-0.142
-251.063	-94.862	0.312	0.084
-250.049	-200.000	-0.012	-0.260
-249.034	-200.000	-0.009	0.285
-248.019	-111.287	0.057	-0.012
-247.005	-200.000	0.020	0.138
-245.990	108.223	0.202	0.238
-244.976	-146.738	-0.280	-0.024
-243.961	136.436	0.209	0.269
-242.946	-200.000	-0.007	0.165
-241.932	263.692	-0.117	-0.202
-240.917	117.943	-0.132	-0.161
-239.903	-200.000	0.008	0.054
-238.888	-146.302	-0.190	-0.016
-237.873	393.318	0.182	-0.375
-236.859	-144.833	0.248	-0.022
-235.844	-200.000	0.004	0.027
-234.830	475.832	0.099	0.222
-233.815	-53.315	0.110	-0.050
-232.800	2.424	-0.190	0.136
-231.786	-19.672	0.035	-0.022
-230.771	241.394	-0.239	0.395
-229.757	-174.015	-0.092	-0.003
-228.742	-27.582	-0.370	-0.213
-227.727	411.368	0.110	-0.231
-226.713	4.474	0.105	-0.076
-225.698	27.896	-0.366	0.304
-224.684	-61.392	0.094	0.039
-223.669	-200.000	-0.032	0.218
-222.655	-57.554	-0.110	-0.048
-221.640	765.428	0.052	0.141
-220.625	800.000	0.074	0.221
-219.611	-65.992	-0.215	0.085
-218.596	18.311	0.036	-0.028
-217.582	-200.000	0.006	-0.099
-216.567	27.962	0.128	0.107
-215.552	156.180	0.036	-0.050
-214.538	-200.000	0.016	0.087
-213.523	74.315	0.135	-0.140
-212.509	-200.000	-0.029	-0.168
-211.494	42.536	-0.159	0.143
-210.479	-146.952	-0.081	-0.007
-209.465	-200.000	-0.019	-0.126
-208.450	-200.000	0.025	-0.391
-207.436	130.847	0.047	-0.060
-206.421	-152.135	-0.129	-0.009
-205.406	-200.000	-0.015	-0.489
-204.392	137.699	0.162	-0.210
-203.377	-144.545	-0.329	-0.030
-202.363	-74.009	-0.410	0.147
-201.348	-101.586	0.131	-0.031
-200.333	322.214	-0.129	0.243
-199.319	-200.000	-0.007	0.176
-198.304	-200.000	-0.019	-0.143
-197.290	-130.914	-0.172	-0.023
-196.275	-200.000	0.023	0.270
-195.260	9.269	-0.068	-0.051
-194.246	-109.695	0.320	0.067
-193.231	-66.419	0.095	0.037
-192.217	-142.062	-0.321	-0.031
-191.202	-149.615	-0.137	0.011
-190.187	-200.000	0.017	0.086
-189.173	-136.127	-0.339	0.039
-188.158	-200.000	0.048	0.344
-187.144	-42.032	-0.471	0.238
-186.129	155.518	-0.134	0.182
-185.114	79.670	0.128	-0.136
-184.100	41.505	0.097	0.087
-183.085	100.369	-0.011	-0.012
-182.071	-200.000	0.042	0.272
-181.056	-59.282	-0.123	0.052
-180.042	-111.853	0.212	-0.042
-179.027	-200.000	0.051	-0.350
-178.012	-200.000	-0.002	-0.422
-176.998	92.475	0.317	-0.352
-175.983	-58.973	0.083	-0.036
-174.969	-122.687	-0.331	0.053
-173.954	-119.146	0.097	-0.017
-172.939	-200.000	-0.006	0.034
-171.925	800.000	-0.024	0.078
-170.910	-100.563	-0.278	-0.068
-169.896	-7.435	0.181	0.121
-168.881	-26.164	0.121	-0.070
-167.866	-139.748	0.458	0.048
-166.852	153.632	0.053	0.072
-165.837	-153.719	-0.309	-0.021
-164.823	5.543	-0.319	0.232
-163.808	73.402	0.060	0.062
-162.793	-200.000	-0.059	0.270
-161.779	178.251	-0.203	0.293
-160.764	113.124	0.175	0.209
-159.750	327.189	-0.189	0.358
-158.735	153.300	-0.154	-0.207
-157.720	-26.733	0.225	-0.130
-156.706	-130.155	-0.386	-0.052
-155.691	496.877	0.118	-0.266
-154.677	-74.996	0.015	-0.005
-153.662	89.600	0.094	0.103
-152.647	-200.000	0.024	0.115
-151.633	-139.491	0.223	0.023
-150.618	-79.937	0.167	0.055
-149.604	121.738	0.112	0.137
-148.589	86.120	-0.279	-0.302
-147.574	103.424	0.112	0.129
-146.560	800.000	0.025	-0.086
-145.545	-113.550	0.267	0.051
-144.531	73.340	-0.128	-0.132
-143.516	-59.548	-0.022	-0.009
-142.502	-54.505	0.124	-0.055
-141.487	-123.851	-0.065	-0.010
-140.472	-22.469	0.070	-0.042
-139.458	236.883	-0.099	-0.162
-138.443	45.003	0.293	0.266
-137.429	-169.699	0.217	0.008
-136.414	287.189	-0.105	-0.187
-135.399	371.298	-0.123	-0.246
-134.385	800.000	-0.088	0.246
-133.370	99.470	0.137	-0.156
-132.356	212.148	0.186	-0.289
-131.341	-161.903	0.170	0.008
-130.326	709.514	-0.069	0.179
-129.312	-200.000	-0.038	0.173
-128.297	137.016	0.192	-0.246
-127.283	-43.574	0.199	0.099
-126.268	-80.183	-0.164	-0.054
-125.253	48.594	0.086	-0.080
-124.239	193.405	-0.275	-0.409
-123.224	-55.227	-0.296	0.131
-122.210	-200.000	-0.030	-0.217
-121.195	-26.890	0.324	0.186
-120.180	510.001	0.114	0.261
-119.166	429.771	-0.148	0.315
-118.151	-200.000	0.032	-0.305
-117.137	-147.991	-0.194	-0.016
-116.122	269.563	-0.101	-0.174
-115.107	-42.997	-0.197	-0.098
-114.093	-108.068	-0.153	-0.033
-113.078	-63.049	0.055	0.022
-112.064	144.358	-0.039	0.051
-111.049	-49.024	0.135	-0.064
-110.034	110.426	-0.206	-0.244
-109.020	-63.398	-0.221	0.089
-108.005	-200.000	-0.005	-0.204
-106.991	234.977	-0.043	0.071
-105.976	-71.145	0.052	0.019
-104.962	-151.670	0.471	-0.034
-103.947	586.511	0.079	0.190
-102.932	-139.115	-0.303	0.032
-101.918	522.174	-0.191	-0.441
-100.903	194.219	-0.103	0.153
-99.889	311.702	0.016	-0.029
-98.874	734.763	-0.042	-0.110
-97.859	29.957	-0.127	-0.107
-96.845	-98.824	0.383	-0.096
-95.830	-74.699	-0.275	0.097
-94.816	233.133	0.130	-0.210
-93.801	-43.994	0.100	-0.049
-92.786	-80.186	-0.079	0.026
-91.772	-129.851	-0.321	0.043
-90.757	455.675	0.130	-0.282
-89.743	-87.153	0.071	0.021
-88.728	-200.000	0.064	-0.514
-87.713	-143.579	0.381	-0.036
-86.699	-63.583	-0.103	0.041
-85.684	414.223	-0.071	-0.148
-84.670	327.392	0.093	0.175
-83.655	122.038	0.174	-0.213
-82.640	-70.354	-0.249	0.093
-81.626	-200.000	0.039	0.292
-80.611	-99.804	0.314	-0.077
-79.597	26.100	-0.043	-0.036
-78.582	-200.000	0.056	0.278
-77.567	-200.000	-0.017	-0.322
-76.553	-91.728	0.285	-0.079
-75.538	-107.737	0.237	-0.051
-74.524	6.463	0.052	0.038
-73.509	714.832	0.047	0.123
-72.494	425.264	-0.067	0.142
-71.480	-18.509	0.049	-0.030
-70.465	238.875	-0.050	-0.081
-69.451	197.138	-0.140	-0.209
-68.436	751.016	0.024	-0.063
-67.422	18.301	0.248	-0.194
-66.407	471.152	0.174	0.383
-65.392	250.745	0.094	-0.157
-64.378	-36.351	0.142	0.075
-63.363	-200.000	0.037	-0.219
-62.349	800.000	0.045	0.182
-61.334	96.018	-1.096	-1.230
-60.319	-90.288	0.718	0.205
-59.305	-200.000	-0.126	-0.877
-58.290	264.307	0.647	1.104
-57.276	-200.000	0.133	1.331
-56.261	-200.000	107.767	577.152
-55.246	412.705	1518.358	3166.551
-54.232	140.020	2721.738	3521.000
-53.217	102.654	2198.785	2524.195
-52.203	40.010	1633.815	1440.173
-51.188	32.007	1371.505	1159.693
-50.173	29.076	1330.504	1107.378
-49.159	52.519	1384.799	1297.118
-48.144	52.713	1400.965	1313.396
-47.130	32.309	1355.679	1147.978
-46.115	29.015	1337.542	1112.690
-45.100	28.694	1332.911	1106.858
-44.086	28.605	1330.838	1104.561
-43.071	28.611	1328.342	1102.480
-42.057	28.618	1325.657	1100.251
-41.042	28.616	1324.297	1099.068
-40.027	28.666	1322.605	1097.916
-39.013	28.673	1320.361	1096.050
-37.998	28.702	1318.723	1094.820
-36.984	28.708	1316.888	1093.290
-35.969	28.828	1314.752	1092.185
-34.954	28.700	1313.362	1090.229
-33.940	28.756	1312.122	1089.486
-32.925	28.802	1311.045	1088.825
-31.911	28.818	1309.478	1087.571
-30.896	28.941	1307.748	1086.820
-29.881	28.863	1306.539	1085.311
-28.867	29.047	1304.437	1084.609
-27.852	28.966	1303.164	1083.027
-26.838	28.853	1301.976	1081.334
-25.823	28.878	1301.024	1080.648
-24.809	28.792	1299.624	1078.935
-23.794	28.754	1298.003	1077.328
-22.779	28.935	1296.467	1077.068
-21.765	28.860	1295.013	1075.380
-20.750	28.765	1293.963	1073.909
-19.736	28.677	1292.780	1072.371
-18.721	28.674	1291.764	1071.470
-17.706	28.721	1290.341	1070.519
-16.692	28.680	1289.160	1069.260
-15.677	28.689	1288.124	1068.407
-14.663	28.675	1286.713	1067.113
-13.648	28.593	1286.027	1066.024
-12.633	28.699	1284.817	1065.598
-11.619	28.715	1283.629	1064.659
-10.604	28.640	1283.462	1064.046
-9.590	28.629	1282.383	1063.048
-8.575	28.732	1281.021	1062.473
-7.560	28.683	1280.077	1061.361
-6.546	28.699	1279.603	1061.017
-5.531	28.585	1278.830	1059.677
-4.517	28.718	1277.479	1059.283
-3.502	28.706	1276.775	1058.587
-2.487	28.729	1276.039	1058.066
-1.473	28.769	1271.968	1054.884
-0.458	27.488	1257.729	1035.752
0.556	23.129	1241.067	1001.251
1.571	19.647	1248.118	986.993
2.586	18.681	1263.193	993.241
3.600	18.073	1251.159	980.202
4.615	13.286	1176.131	895.475
5.629	4.656	1099.699	793.342
6.644	0.644	1079.691	758.719
7.659	0.356	1077.403	755.600
8.673	0.150	1076.966	754.194
9.688	0.302	1075.213	753.661
10.702	0.546	1073.221	753.417
11.717	5.378	1079.856	782.226
12.731	13.226	1089.862	828.904
13.746	16.777	1094.114	849.910
14.761	16.800	1093.448	849.437
15.775	16.207	1091.769	845.085
16.790	15.198	1089.597	838.285
17.804	14.460	1088.073	833.351
18.819	14.263	1086.736	831.269
19.834	13.868	1085.591	828.351
20.848	13.622	1084.948	826.559
21.863	13.352	1083.913	824.349
22.877	13.172	1083.540	823.097
23.892	13.161	1082.749	822.367
24.907	13.307	1081.777	822.283
25.921	13.192	1081.260	821.247
26.936	13.287	1080.333	820.941
27.950	13.350	1078.965	820.140
28.965	13.346	1078.109	819.397
29.980	13.304	1077.044	818.312
30.994	13.343	1075.447	817.214
32.009	13.453	1074.877	817.252
33.023	13.444	1073.716	816.254
34.038	13.390	1072.728	815.165
35.053	13.308	1071.757	813.952
36.067	13.400	1070.924	813.700
37.082	13.316	1070.280	812.726
38.096	13.503	1069.128	812.696
39.111	13.320	1069.066	811.680
40.126	13.324	1067.666	810.564
41.140	13.209	1066.655	809.163
42.155	13.218	1065.017	807.893
43.169	13.252	1064.035	807.241
44.184	13.148	1063.112	805.963
45.199	13.237	1061.834	805.358
46.213	13.205	1061.176	804.630
47.228	13.224	1059.857	803.649
48.242	13.216	1058.641	802.618
49.257	13.329	1057.425	802.172
50.271	13.412	1056.936	802.136
51.286	13.369	1055.940	801.100
52.301	13.342	1054.884	800.098
53.315	13.341	1054.122	799.445
54.330	13.259	1053.259	798.324
55.344	13.182	1052.304	797.158
56.359	13.354	1051.270	797.130
57.374	13.313	1050.584	796.343
58.388	13.357	1049.495	795.657
59.403	13.127	1049.077	794.164
60.417	13.241	1048.266	794.031
61.432	13.214	1046.983	792.858
62.447	13.226	1046.387	792.391
63.461	13.169	1045.609	791.461
64.476	13.201	1044.595	790.775
65.490	13.105	1043.969	789.773
66.505	13.152	1042.985	789.187
67.520	13.183	1042.775	789.102
68.534	13.209	1041.890	788.487
69.549	13.171	1041.067	787.615
70.563	13.239	1039.929	787.009
71.578	13.148	1039.445	786.139
72.593	13.159	1038.058	785.073
73.607	13.068	1037.937	784.478
74.622	13.086	1037.467	784.141
75.636	13.129	1036.126	783.262
76.651	13.112	1035.226	782.433
77.666	13.096	1035.105	782.193
78.680	13.050	1034.218	781.237
79.695	13.198	1033.755	781.519
80.709	13.229	1032.766	780.848
81.724	13.101	1032.376	779.881
82.739	13.231	1031.948	780.100
83.753	13.339	1030.541	779.479
84.768	13.265	1029.969	778.627
85.782	13.285	1029.461	778.269
86.797	13.400	1027.945	777.595
87.812	13.333	1027.145	776.606
88.826	13.281	1026.160	775.548
89.841	13.328	1025.366	775.100
90.855	13.330	1024.358	774.280
91.870	13.473	1023.293	774.075
92.884	13.381	1022.563	773.024
93.899	13.306	1021.915	772.116
94.914	13.495	1020.992	772.232
95.928	13.612	1019.887	771.870
96.943	13.428	1019.549	770.691
97.957	13.446	1018.098	769.610
98.972	13.418	1017.583	769.019
99.987	13.362	1016.675	768.006
101.001	13.364	1016.037	767.465
102.016	13.460	1014.839	766.939
103.030	13.438	1013.961	766.104
104.045	13.376	1013.102	765.100
105.060	13.343	1012.428	764.372
106.074	13.391	1011.287	763.666
107.089	13.083	1010.855	761.848
108.103	13.228	1009.967	761.782
109.118	13.238	1008.758	760.850
110.133	13.297	1007.390	760.023
111.147	13.266	1006.870	759.418
112.162	13.464	1005.792	759.446
113.176	13.420	1005.456	758.923
114.191	13.374	1004.664	758.049
115.206	13.404	1003.912	757.553
116.220	13.279	1003.151	756.340
117.235	13.257	1002.646	755.792
118.249	13.353	1001.665	755.421
119.264	13.331	1000.707	754.532
120.279	13.423	999.613	754.059
121.293	13.207	999.286	752.763
122.308	13.294	997.888	752.038
123.322	13.412	996.954	751.803
124.337	13.265	995.538	750.006
125.352	13.305	994.586	749.399
126.366	13.244	993.950	748.580
127.381	13.368	992.962	748.331
128.395	13.396	992.101	747.741
129.410	13.381	990.835	746.655
130.424	13.271	990.566	745.889
131.439	13.338	989.583	745.384
132.454	13.449	988.687	745.145
133.468	13.358	987.938	744.103
134.483	13.414	986.678	743.342
135.497	13.450	985.935	742.878
136.512	13.514	984.476	741.996
137.527	13.303	984.018	740.642
138.541	13.455	983.370	740.768
139.556	13.451	982.495	740.025
140.570	13.438	982.168	739.657
141.585	13.442	981.125	738.825
142.600	13.391	980.141	737.789
143.614	13.530	979.230	737.660
144.629	13.617	978.502	737.431
145.643	13.617	977.750	736.800
146.658	13.530	976.858	735.674
147.673	13.353	976.192	734.323
148.687	13.474	975.165	734.021
149.702	13.445	974.704	733.484
150.716	13.457	973.652	732.679
151.731	13.542	972.910	732.433
152.746	13.474	972.189	731.522
153.760	13.542	971.582	731.300
154.775	13.548	970.994	730.823
155.789	13.636	970.095	730.470
156.804	13.634	969.647	730.056
157.819	13.595	968.844	729.219
158.833	13.589	968.106	728.568
159.848	13.798	967.080	728.649
160.862	13.599	966.289	727.118
161.877	13.647	965.230	726.466
162.892	13.612	964.327	725.570
163.906	13.655	963.120	724.787
164.921	13.746	961.993	724.270
165.935	13.662	961.452	723.433
166.950	13.636	960.788	722.755
167.964	13.759	959.727	722.431
168.979	13.679	958.860	721.363
169.994	13.605	958.030	720.353
171.008	13.656	957.465	720.088
172.023	13.741	956.594	719.737
173.037	13.860	955.988	719.733
174.052	13.803	954.794	718.527
175.067	13.645	954.425	717.500
176.081	13.658	953.794	717.018
177.096	13.667	953.338	716.649
178.110	13.740	952.582	716.333
179.125	13.743	952.081	715.905
180.140	13.759	951.631	715.574
181.154	13.820	951.103	715.376
182.169	13.956	950.660	715.565
183.183	13.873	950.415	714.961
184.198	14.062	948.634	714.370
185.213	13.866	948.573	713.418
186.227	13.914	947.556	712.796
187.242	13.942	946.909	712.366
188.256	14.017	946.440	712.274
189.271	13.933	945.399	711.066
190.286	13.696	945.086	709.753
191.300	13.773	944.400	709.504
192.315	13.718	943.774	708.737
193.329	13.788	943.158	708.511
194.344	13.820	942.475	708.071
195.359	13.892	941.722	707.750
196.373	14.032	940.874	707.647
197.388	14.061	940.734	707.601
198.402	14.164	939.970	707.405
199.417	14.116	939.746	706.969
200.432	14.236	938.481	706.463
201.446	14.149	938.196	705.816
202.461	14.285	937.517	705.822
203.475	14.191	937.073	705.027
204.490	14.075	936.441	703.994
205.504	14.158	935.484	703.563
206.519	14.089	934.722	702.637
207.534	14.168	934.144	702.475
208.548	14.111	933.747	701.872
209.563	14.198	932.856	701.510
210.577	14.159	932.125	700.734
211.592	14.289	931.456	700.714
212.607	14.287	930.728	700.098
213.621	14.276	929.825	699.310
214.636	14.249	929.255	698.707
215.650	14.301	928.635	698.396
216.665	14.447	927.535	698.119
217.680	14.275	927.194	697.082
218.694	14.434	926.303	697.012
219.709	14.281	925.808	695.942
220.723	14.389	925.053	695.763
221.738	14.478	924.197	695.427
222.753	14.416	923.532	694.605
223.767	14.552	922.766	694.535
224.782	14.376	922.640	693.648
225.796	14.470	922.197	693.644
226.811	14.415	921.139	692.559
227.826	14.487	920.490	692.309
228.840	14.374	920.003	691.411
229.855	14.381	918.964	690.600
230.869	14.556	917.881	690.446
231.884	14.502	917.738	690.054
232.899	14.435	916.878	689.071
233.913	14.524	915.691	688.486
234.928	14.358	915.453	687.560
235.942	14.477	914.958	687.619
236.957	14.578	914.286	687.470
237.972	14.510	913.758	686.731
238.986	14.566	913.067	686.379
240.001	14.580	912.280	685.786
241.015	14.575	911.405	685.047
242.030	14.557	911.150	684.721
243.045	14.590	910.428	684.253
244.059	14.647	909.762	683.928
245.074	14.604	909.215	683.279
246.088	14.665	908.527	682.949
247.103	14.703	907.529	682.296
248.117	14.841	907.056	682.444
249.132	14.828	906.821	682.151
250.147	14.828	906.135	681.576
251.161	14.939	905.412	681.425
252.176	14.851	904.732	680.491
253.190	14.935	904.062	680.271
254.205	14.999	903.165	679.798
255.220	14.954	902.746	679.240
256.234	14.995	902.179	678.917
257.249	14.945	901.295	677.987
258.263	15.065	900.452	677.781
259.278	15.186	899.754	677.685
260.293	15.034	899.572	676.874
261.307	15.022	899.046	676.371
262.322	14.989	898.697	675.913
263.336	15.147	897.272	675.420
264.351	15.348	896.253	675.402
265.366	15.232	895.952	674.649
266.380	15.166	895.479	673.967
267.395	15.116	895.196	673.492
268.409	15.110	894.415	672.820
269.424	15.096	893.639	672.121
270.439	15.183	892.679	671.689
271.453	15.043	892.114	670.645
272.468	15.231	891.237	670.678
273.482	15.160	890.995	670.152
274.497	15.284	890.176	669.971
275.512	15.195	889.645	669.158
276.526	15.192	889.482	668.963
277.541	15.314	888.505	668.659
278.555	15.356	887.822	668.252
279.570	15.436	887.349	668.153
280.585	15.250	886.816	666.954
281.599	15.416	885.598	666.637
282.614	15.361	885.008	665.918
283.628	15.441	884.519	665.809
284.643	15.436	883.992	665.331
285.657	15.378	883.491	664.666
286.672	15.411	882.454	663.958
287.687	15.405	881.750	663.345
288.701	15.470	881.670	663.484
289.716	15.341	881.117	662.500
290.730	15.590	880.062	662.629
291.745	15.549	879.407	661.917
292.760	15.569	879.166	661.755
293.774	15.652	877.977	661.130
294.789	15.520	878.065	660.618
295.803	15.550	877.100	659.952
296.818	15.673	876.735	660.100
297.833	15.542	875.788	658.815
298.847	15.675	874.757	658.503
299.862	15.696	874.579	658.394
300.876	15.712	873.966	657.935
301.891	15.721	873.276	657.394
302.906	15.666	873.099	656.986
303.920	15.910	871.648	656.788
304.935	15.918	871.104	656.350
305.949	15.955	870.286	655.820
306.964	15.804	870.350	655.224
307.979	15.737	870.391	654.935
308.993	15.857	869.270	654.502
310.008	16.094	868.096	654.480
311.022	16.001	867.915	653.925
312.037	15.948	867.117	653.057
313.052	15.848	866.772	652.353
314.066	15.883	866.351	652.113
315.081	15.810	865.925	651.452
316.095	15.926	865.112	651.233
317.110	15.738	865.000	650.364
318.125	15.769	864.637	650.153
319.139	16.022	863.468	650.193
320.154	15.841	863.448	649.421
321.168	15.850	862.696	648.832
322.183	15.884	862.149	648.496
323.197	15.902	861.783	648.231
324.212	16.074	861.007	648.254
325.227	15.961	860.402	647.306
326.241	15.959	859.745	646.748
327.256	16.005	859.401	646.605
328.270	16.117	858.995	646.673
329.285	16.041	858.066	645.625
330.300	16.084	857.355	645.200
331.314	15.998	856.964	644.518
332.329	15.890	856.907	644.007
333.343	16.112	855.850	644.002
334.358	16.118	855.675	643.837
335.373	16.061	855.186	643.195
336.387	16.189	854.842	643.367
337.402	16.183	854.528	643.053
338.416	16.127	854.467	642.732
339.431	16.340	853.591	642.828
340.446	16.324	853.367	642.542
341.460	16.341	852.906	642.202
342.475	16.428	852.242	641.977
343.489	16.336	852.176	641.519
344.504	16.396	851.181	640.944
345.519	16.379	850.944	640.645
346.533	16.285	850.626	639.991
347.548	16.461	849.575	639.808
348.562	16.344	849.448	639.213
349.577	16.355	848.864	638.762
350.592	16.387	848.146	638.286
351.606	16.511	847.446	638.169
352.621	16.340	846.878	637.041
353.635	16.300	846.524	636.567
354.650	16.300	846.012	636.125
355.665	16.282	845.315	635.476
356.679	16.469	844.573	635.566
357.694	16.457	843.559	634.703
358.708	16.490	843.301	634.574
359.723	16.603	842.160	634.085
360.738	16.612	841.748	633.750
361.752	16.700	841.256	633.655
362.767	16.624	840.771	632.949
363.781	16.696	840.220	632.748
364.796	16.723	839.472	632.228
365.810	16.800	839.081	632.164
366.825	16.842	839.006	632.209
367.840	16.767	838.682	631.631
368.854	16.697	838.063	630.846
369.869	16.697	837.625	630.463
370.883	16.859	836.932	630.485
371.898	16.863	836.851	630.385
372.913	16.819	836.566	629.950
373.927	16.855	836.163	629.727
374.942	16.921	835.244	629.221
375.956	17.035	834.997	629.402
376.971	17.032	834.290	628.805
377.986	16.771	834.137	627.664
379.000	16.870	833.628	627.594
380.015	17.076	832.764	627.648
381.029	17.024	832.317	627.065
382.044	16.983	832.008	626.626
383.059	17.033	831.178	626.128
384.073	16.932	831.012	625.576
385.088	16.975	830.304	625.146
386.102	16.975	829.804	624.715
387.117	17.030	829.069	624.310
388.132	17.043	828.290	623.716
389.146	17.107	827.994	623.673
390.161	16.921	827.741	622.742
391.175	17.072	827.115	622.772
392.190	17.051	826.425	622.120
393.205	17.020	826.082	621.692
394.219	17.043	825.725	621.452
395.234	16.999	825.555	621.111
396.248	16.952	824.810	620.322
397.263	16.988	824.626	620.259
398.278	17.060	824.243	620.179
399.292	17.128	823.609	619.897
400.307	17.113	823.010	619.337
401.321	17.101	822.460	618.823
402.336	17.112	822.138	618.568
403.350	17.205	821.507	618.374
404.365	17.171	821.295	618.037
405.380	17.224	820.782	617.788
406.394	17.307	820.082	617.511
407.409	17.349	820.060	617.590
408.423	17.509	819.404	617.623
409.438	17.527	819.057	617.373
410.453	17.496	818.610	616.868
411.467	17.486	818.058	616.360
412.482	17.439	817.637	615.819
413.496	17.535	817.041	615.664
414.511	17.467	816.934	615.282
415.526	17.487	816.621	615.065
416.540	17.445	816.202	614.542
417.555	17.404	815.352	613.701
418.569	17.581	815.160	614.139
419.584	17.619	814.755	613.915
420.599	17.594	814.166	613.327
421.613	109.968	1296.013	1473.219
422.628	95.019	1366.198	1473.307
