DTS Sentinel unit serial number:	SN413079Multiplexer serial number:	ORYXHardware model number:	OX4-SRSoftware version number:	ORYX F/W v4.00 Oryx Data Collector v3.7.2.0data status	okinstallation	princeton_trtdifferential loss correction	single-endedforward channel	channel 1reverse channel	N/Adate	2019/09/12time	18:52:34forward acquisition time	15.00reverse acquisition time	0.00gamma	496.2192k internal	0.2320k external	0.2320temperature offset calibration	1.0098default loss term (dB/km)	0.3790temperature slope calibration	1.0000multiplexer offset coefficient	1.0000multiplexer slope coefficient	1.0000fibre end	0.00T internal ref (°C)	32.87T ext. ref 1 (°C)	2.98T ext. ref 2 (°C)	27.42length (m)	temperature (°C)	Stokes	anti-Stokes-747.200	134.138	-0.410	0.537
-746.185	17.147	0.204	-0.164
-745.171	-200.000	-0.007	0.213
-744.156	-25.764	0.491	0.293
-743.142	640.823	-0.046	0.118
-742.127	268.055	-0.138	0.244
-741.112	-38.965	0.277	-0.148
-740.098	-19.011	-0.460	0.289
-739.083	-123.979	0.816	0.130
-738.069	745.317	-0.227	-0.618
-737.054	-50.291	-0.652	-0.312
-736.039	-13.381	-0.264	-0.173
-735.025	-200.000	0.026	0.423
-734.010	-43.410	0.584	0.298
-732.996	55.388	-0.504	0.493
-731.981	-200.000	0.061	0.506
-730.966	-134.486	-0.496	-0.061
-729.952	-30.522	-0.169	0.097
-728.937	-144.446	-0.821	-0.077
-727.923	-102.988	0.842	-0.202
-726.908	-200.000	-0.048	-0.291
-725.894	76.770	-0.381	0.408
-724.879	562.760	-0.096	-0.236
-723.864	-200.000	0.047	-0.721
-722.850	89.512	-0.043	-0.049
-721.835	-104.347	0.798	-0.187
-720.821	-110.510	0.224	0.047
-719.806	266.583	0.166	0.293
-718.791	-200.000	0.038	1.036
-717.777	143.117	0.333	-0.448
-716.762	486.107	-0.199	-0.459
-715.748	800.000	-0.137	0.441
-714.733	576.084	0.286	0.707
-713.718	-200.000	-0.078	-0.388
-712.704	-107.884	-1.029	0.226
-711.689	-200.000	0.098	0.844
-710.675	361.501	-0.087	0.176
-709.660	-132.318	0.689	0.090
-708.645	159.400	-0.489	-0.687
-707.631	-200.000	-0.036	-0.707
-706.616	322.490	-0.491	0.945
-705.602	-200.000	-0.077	-0.627
-704.587	-200.000	-0.033	0.216
-703.572	-200.000	0.006	-0.607
-702.558	-21.569	-0.321	0.198
-701.543	314.485	0.299	0.569
-700.529	303.588	0.188	0.351
-699.514	-131.539	-0.996	0.133
-698.499	36.818	0.289	0.258
-697.485	94.230	0.155	-0.178
-696.470	5.146	-0.654	0.486
-695.456	-103.979	-0.496	0.117
-694.441	132.021	-0.065	0.084
-693.426	-59.482	-0.596	0.258
-692.412	-200.000	-0.001	-0.809
-691.397	-115.427	0.528	0.100
-690.383	496.473	-0.072	-0.168
-689.368	123.419	-0.121	0.153
-688.354	312.438	-0.213	-0.403
-687.339	651.860	0.354	0.915
-686.324	121.026	0.245	-0.308
-685.310	-200.000	0.034	0.651
-684.295	-139.744	-0.280	0.030
-683.281	-74.307	-0.305	-0.111
-682.266	800.000	-0.172	0.714
-681.251	-8.930	0.151	-0.102
-680.237	800.000	0.080	-0.293
-679.222	-27.382	-0.690	-0.405
-678.208	-93.251	-0.432	0.121
-677.193	236.961	-0.502	0.839
-676.178	-145.422	0.208	-0.019
-675.164	-165.047	0.500	-0.022
-674.149	800.000	-0.176	0.652
-673.135	29.633	0.213	0.182
-672.120	-200.000	0.043	0.689
-671.105	277.707	-0.228	0.410
-670.091	-76.150	0.068	-0.024
-669.076	-200.000	-0.002	-0.259
-668.062	41.965	-0.644	0.589
-667.047	800.000	0.120	0.497
-666.032	-70.234	0.272	0.104
-665.018	298.318	0.582	1.080
-664.003	56.746	0.380	-0.373
-662.989	532.241	-0.028	-0.066
-661.974	-44.145	-0.680	-0.344
-660.959	-200.000	0.079	-0.455
-659.945	120.143	0.553	0.692
-658.930	800.000	-0.023	0.079
-657.916	-142.846	-0.256	0.025
-656.901	-200.000	0.436	0.001
-655.886	54.906	-0.570	0.555
-654.872	-170.237	-0.193	0.007
-653.857	106.398	-0.422	-0.504
-652.843	476.896	-0.390	0.888
-651.828	-200.000	0.150	0.926
-650.814	-200.000	-0.025	0.931
-649.799	800.000	-0.104	-0.308
-648.784	27.280	-0.246	-0.208
-647.770	86.835	-0.141	0.157
-646.755	32.139	0.360	0.313
-645.741	-60.362	0.671	0.288
-644.726	-70.548	-0.129	0.049
-643.711	-106.794	0.840	-0.188
-642.697	652.772	-0.164	-0.424
-641.682	-1.631	-0.447	0.317
-640.668	-168.788	-0.622	0.024
-639.653	-99.858	-0.533	0.134
-638.638	-49.743	-0.737	-0.353
-637.624	226.244	0.119	0.195
-636.609	-95.457	0.212	0.057
-635.595	-110.747	0.544	0.113
-634.580	223.483	-0.352	0.572
-633.565	-155.221	0.609	0.040
-632.551	223.910	0.093	-0.151
-631.536	800.000	0.181	-0.629
-630.522	-155.048	-0.385	-0.025
-629.507	122.249	-0.386	0.485
-628.492	-132.703	1.060	-0.137
-627.478	-29.624	0.675	0.388
-626.463	3.671	-0.820	-0.603
-625.449	-200.000	-0.038	-0.484
-624.434	-200.000	0.071	0.923
-623.419	-130.583	0.482	-0.065
-622.405	109.464	0.236	-0.284
-621.390	-127.400	0.320	0.047
-620.376	-74.271	0.670	-0.244
-619.361	-9.740	0.377	-0.253
-618.346	452.985	0.191	0.426
-617.332	94.494	0.338	0.387
-616.317	533.564	0.067	-0.161
-615.303	-147.288	-0.575	0.049
-614.288	-60.718	0.541	0.231
-613.273	-121.678	-0.893	0.149
-612.259	-55.220	-0.368	0.166
-611.244	-93.563	0.711	0.198
-610.230	-120.563	-0.504	-0.086
-609.215	-110.021	-0.684	-0.144
-608.201	-42.035	-0.411	-0.212
-607.186	-36.548	0.714	-0.386
-606.171	153.330	-0.569	-0.783
-605.157	265.826	-0.247	-0.434
-604.142	-115.915	0.125	-0.024
-603.128	21.216	-0.256	0.209
-602.113	800.000	0.018	-0.077
-601.098	270.663	0.156	-0.276
-600.084	36.907	-0.271	0.241
-599.069	286.943	0.292	0.531
-598.055	41.745	-0.500	0.456
-597.040	-200.000	-0.026	-0.724
-596.025	-200.000	0.045	0.241
-595.011	90.744	-0.461	0.520
-593.996	66.766	-0.276	0.283
-592.982	105.833	-0.598	0.712
-591.967	-107.011	-1.163	0.258
-590.952	241.483	0.617	1.035
-589.938	160.695	-0.277	-0.389
-588.923	419.354	-0.285	-0.613
-587.909	-102.278	-0.927	-0.224
-586.894	70.415	0.150	-0.156
-585.879	-200.000	-0.043	0.231
-584.865	-119.402	-0.640	0.112
-583.850	-103.352	-0.687	0.163
-582.836	-47.826	-0.602	0.293
-581.821	-200.000	0.040	0.282
-580.806	333.467	-0.144	-0.280
-579.792	-69.696	-1.000	-0.384
-578.777	-136.268	-0.574	0.067
-577.763	-156.987	0.485	0.030
-576.748	-200.000	-0.047	-0.288
-575.733	436.012	-0.234	0.513
-574.719	800.000	0.224	-0.947
-573.704	360.398	0.239	-0.480
-572.690	-43.362	-0.454	-0.231
-571.675	55.377	0.222	-0.215
-570.661	139.414	0.177	-0.233
-569.646	-27.686	0.362	-0.211
-568.631	-200.000	0.039	0.257
-567.617	92.218	-0.309	-0.349
-566.602	-10.747	0.528	-0.351
-565.588	-148.839	-0.491	0.040
-564.573	20.247	0.424	-0.344
-563.558	124.789	-0.362	-0.458
-562.544	-48.472	0.166	0.080
-561.529	47.046	-0.861	-0.805
-560.515	-132.459	0.761	-0.098
-559.500	-113.469	1.122	0.221
-558.485	644.058	-0.281	-0.720
-557.471	59.004	-0.265	0.261
-556.456	800.000	-0.045	-0.170
-555.442	-200.000	-0.001	0.103
-554.427	183.344	-0.440	0.653
-553.412	-52.033	-0.169	0.079
-552.398	-100.546	0.347	-0.086
-551.383	-63.645	0.298	0.123
-550.369	-60.251	-0.382	-0.163
-549.354	800.000	0.059	0.254
-548.339	452.974	-0.174	0.386
-547.325	181.832	0.469	-0.693
-546.310	800.000	0.137	-0.415
-545.296	213.080	-0.089	0.141
-544.281	225.517	-0.260	-0.423
-543.266	-77.191	-0.246	-0.086
-542.252	171.364	-0.382	-0.550
-541.237	381.710	0.159	0.328
-540.223	-118.910	1.080	0.190
-539.208	-44.670	0.600	0.301
-538.193	-85.493	0.332	-0.104
-537.179	231.543	-0.199	0.327
-536.164	54.099	0.147	0.142
-535.150	800.000	0.098	-0.378
-534.135	410.611	-0.178	-0.379
-533.121	107.500	0.575	0.687
-532.106	689.785	-0.115	0.302
-531.091	49.678	0.310	-0.292
-530.077	400.308	0.220	0.462
-529.062	-59.480	0.201	0.087
-528.048	23.739	0.441	-0.364
-527.033	-175.108	0.644	-0.018
-526.018	-200.000	-0.079	0.447
-525.004	7.809	-0.138	0.104
-523.989	-200.000	0.031	0.775
-522.975	49.900	-0.884	-0.836
-521.960	-5.177	0.422	-0.291
-520.945	90.476	-0.152	-0.171
-519.931	800.000	-0.173	-0.591
-518.916	-120.847	-0.629	-0.106
-517.902	34.667	-0.221	-0.194
-516.887	134.800	0.405	0.527
-515.872	263.239	-0.148	0.257
-514.858	-200.000	-0.002	0.317
-513.843	-200.000	0.072	0.595
-512.829	800.000	0.218	-0.714
-511.814	-10.464	-0.591	0.392
-510.799	-50.569	-0.640	0.302
-509.785	91.897	0.439	-0.495
-508.770	-87.143	-0.739	-0.225
-507.756	-93.676	0.228	0.063
-506.741	524.578	0.310	0.730
-505.726	-200.000	-0.097	0.597
-504.712	-18.723	0.211	0.132
-503.697	44.200	0.498	0.458
-502.683	-55.814	-0.356	0.159
-501.668	510.439	-0.111	0.259
-500.653	-141.150	0.466	0.048
-499.639	-200.000	0.009	0.466
-498.624	-61.352	0.689	0.290
-497.610	800.000	-0.101	0.416
-496.595	-200.000	0.067	0.809
-495.581	-55.362	-0.178	-0.080
-494.566	-1.284	-0.336	-0.238
-493.551	160.847	-0.281	-0.393
-492.537	31.619	0.333	0.287
-491.522	129.074	0.282	0.360
-490.508	91.821	-0.204	-0.230
-489.493	-150.627	0.327	0.025
-488.478	-56.406	0.621	0.276
-487.464	-71.265	0.601	-0.226
-486.449	-121.384	0.688	-0.115
-485.435	174.732	-0.191	-0.277
-484.420	-64.628	0.582	-0.237
-483.405	-66.360	-0.257	-0.102
-482.391	-13.555	0.186	0.121
-481.376	376.689	0.402	-0.821
-480.362	-200.000	0.004	-0.871
-479.347	492.793	-0.477	-1.094
-478.332	16.457	0.475	-0.376
-477.318	69.365	-0.543	0.559
-476.303	-58.457	-0.754	0.328
-475.289	-50.687	0.255	-0.120
-474.274	-126.716	0.380	0.056
-473.259	-144.878	0.901	-0.083
-472.245	-56.112	0.788	0.351
-471.230	41.222	-0.386	-0.349
-470.216	-200.000	0.062	0.582
-469.201	123.557	-0.286	-0.359
-468.186	22.249	-0.161	0.132
-467.172	49.687	-0.531	-0.501
-466.157	800.000	-0.327	1.045
-465.143	475.526	0.144	0.326
-464.128	-83.689	-0.972	-0.310
-463.113	-200.000	0.063	-0.316
-462.099	800.000	0.151	-0.469
-461.084	-200.000	0.049	0.323
-460.070	382.603	0.537	1.104
-459.055	-200.000	-0.047	-0.211
-458.040	-200.000	0.030	-0.313
-457.026	-12.888	0.189	-0.123
-456.011	-142.643	1.003	0.098
-454.997	693.803	0.084	0.221
-453.982	-200.000	-0.040	0.464
-452.968	91.050	-0.220	0.247
-451.953	438.681	0.234	0.510
-450.938	-125.694	-0.799	-0.121
-449.924	29.975	-0.203	-0.173
-448.909	-12.091	-0.776	-0.508
-447.895	-94.249	0.822	-0.225
-446.880	120.488	0.261	0.324
-445.865	-26.023	-0.493	-0.290
-444.851	-139.300	0.555	0.060
-443.836	-200.000	-0.061	1.234
-442.822	92.814	-0.097	-0.110
-441.807	473.780	0.375	-0.846
-440.792	49.310	-0.157	0.148
-439.778	-25.373	0.634	0.375
-438.763	800.000	-0.052	0.155
-437.749	-200.000	0.136	0.639
-436.734	-132.643	1.385	-0.177
-435.719	-200.000	0.047	0.253
-434.705	59.246	0.775	-0.762
-433.690	53.271	-0.350	0.335
-432.676	132.758	0.387	-0.499
-431.661	396.538	0.266	0.556
-430.646	11.392	1.033	0.791
-429.632	113.954	0.367	0.446
-428.617	-111.975	-1.000	0.201
-427.603	-200.000	0.076	0.720
-426.588	154.511	-0.099	-0.136
-425.573	99.293	0.488	0.563
-424.559	800.000	0.149	-0.417
-423.544	800.000	0.304	-0.854
-422.530	446.857	-0.290	0.636
-421.515	256.996	0.164	-0.282
-420.500	361.116	-0.326	0.652
-419.486	-74.948	0.385	-0.138
-418.471	-151.574	-0.806	-0.060
-417.457	35.536	0.303	-0.266
-416.442	-200.000	-0.048	0.441
-415.428	800.000	-0.126	-0.353
-414.413	-200.000	-0.100	-0.521
-413.398	-78.303	-0.488	-0.167
-412.384	109.309	-0.356	0.426
-411.369	608.816	0.121	0.301
-410.355	5.033	0.189	0.139
-409.340	-113.142	0.717	-0.141
-408.325	-29.141	-0.966	0.553
-407.311	-172.459	-0.673	0.021
-406.296	-11.808	0.320	-0.210
-405.282	53.895	-0.673	0.645
-404.267	-150.247	0.489	0.038
-403.252	-200.000	0.035	0.344
-402.238	-125.148	-1.236	-0.189
-401.223	2.585	-0.226	-0.163
-400.209	122.780	-0.382	-0.476
-399.194	46.046	-0.201	-0.186
-398.179	-20.728	0.238	0.146
-397.165	378.515	0.413	-0.843
-396.150	139.566	0.097	0.127
-395.136	98.139	-0.819	-0.940
-394.121	226.760	0.392	-0.636
-393.106	800.000	-0.206	-0.636
-392.092	800.000	-0.248	-0.793
-391.077	108.090	-0.562	0.669
-390.063	663.554	-0.042	-0.107
-389.048	180.274	-0.154	-0.225
-388.033	-200.000	0.220	1.060
-387.019	-200.000	-0.005	-0.265
-386.004	598.672	-0.250	-0.618
-384.990	-200.000	0.108	-0.750
-383.975	-134.742	0.791	-0.096
-382.960	350.087	-0.105	0.206
-381.946	-200.000	-0.049	0.919
-380.931	-51.420	0.447	0.208
-379.917	46.047	0.211	-0.195
-378.902	-200.000	0.063	0.798
-377.888	94.005	-0.113	-0.128
-376.873	-140.214	-0.502	-0.052
-375.858	116.525	0.319	-0.390
-374.844	747.398	-0.137	0.368
-373.829	36.300	-0.376	0.330
-372.815	-93.241	0.234	-0.065
-371.800	-115.255	-0.589	0.111
-370.785	135.110	0.351	-0.454
-369.771	-132.643	-0.554	0.071
-368.756	767.287	-0.340	-0.920
-367.742	-200.000	0.059	-1.161
-366.727	79.914	-0.389	-0.416
-365.712	-200.000	0.036	-0.830
-364.698	800.000	-0.112	0.356
-363.683	477.391	0.306	0.689
-362.669	800.000	-0.119	-0.338
-361.654	800.000	0.233	-0.846
-360.639	78.193	-0.492	-0.523
-359.625	278.420	-0.357	0.633
-358.610	-106.115	0.747	0.167
-357.596	5.616	-0.711	0.523
-356.581	-148.539	0.348	0.028
-355.566	46.609	-0.240	0.222
-354.552	-36.165	-0.282	0.151
-353.537	127.468	0.366	-0.462
-352.523	58.172	-0.305	0.298
-351.508	529.068	0.043	-0.100
-350.493	200.119	-0.128	-0.196
-349.479	438.965	0.183	0.397
-348.464	75.946	0.106	-0.112
-347.450	-43.774	-0.195	0.098
-346.435	-75.181	-0.298	-0.106
-345.420	-125.352	-0.680	-0.103
-344.406	-133.067	0.197	0.025
-343.391	-200.000	-0.029	-0.670
-342.377	-200.000	-0.008	-0.147
-341.362	-135.821	-0.647	-0.076
-340.348	-200.000	-0.033	0.243
-339.333	75.980	-0.247	-0.260
-338.318	-34.694	0.171	-0.093
-337.304	-158.871	-0.516	0.029
-336.289	-41.492	0.860	0.440
-335.275	-200.000	0.105	-0.549
-334.260	-119.107	-1.044	-0.182
-333.245	-200.000	-0.143	0.955
-332.231	-169.551	0.794	0.029
-331.216	62.881	0.775	-0.772
-330.202	78.752	-0.666	0.709
-329.187	-116.722	0.655	0.120
-328.172	-69.536	0.968	0.369
-327.158	-145.998	-0.487	-0.043
-326.143	24.796	1.106	-0.912
-325.129	-28.524	0.929	0.533
-324.114	202.177	0.201	0.309
-323.099	-105.526	-0.240	0.054
-322.085	-200.000	0.075	0.596
-321.070	-200.000	-0.148	-1.271
-320.056	4.302	0.416	-0.303
-319.041	-164.898	-1.675	0.075
-318.026	-59.705	0.417	-0.178
-317.012	-86.456	-0.508	0.155
-315.997	-200.000	-0.139	-0.727
-314.983	71.318	-0.177	0.183
-313.968	-50.604	-0.785	0.368
-312.953	680.317	-0.249	0.644
-311.939	487.020	-0.219	-0.496
-310.924	-200.000	0.070	0.396
-309.910	-177.994	-0.456	-0.011
-308.895	5.387	1.041	0.764
-307.880	225.449	0.136	-0.219
-306.866	169.027	-0.117	0.166
-305.851	-200.000	0.078	0.440
-304.837	-81.146	0.502	0.165
-303.822	-200.000	0.010	0.294
-302.807	800.000	0.145	0.539
-301.793	-35.152	0.615	0.333
-300.778	-200.000	-0.084	0.566
-299.764	-200.000	0.006	0.098
-298.749	112.934	-0.231	-0.278
-297.735	-5.663	1.216	0.829
-296.720	-92.075	0.370	-0.104
-295.705	282.629	-0.439	-0.784
-294.691	-200.000	0.193	-0.858
-293.676	-200.000	0.162	-0.889
-292.662	-75.627	0.817	0.289
-291.647	238.190	0.380	-0.627
-290.632	-50.776	0.605	-0.283
-289.618	-105.459	0.091	-0.021
-288.603	89.989	-0.273	-0.303
-287.589	-200.000	-0.001	-0.058
-286.574	-200.000	-0.083	-0.365
-285.559	27.035	-0.061	-0.051
-284.545	542.209	-0.300	-0.711
-283.530	-63.398	0.381	-0.155
-282.516	-200.000	0.093	-0.484
-281.501	-107.425	-0.395	-0.086
-280.486	52.587	0.102	0.097
-279.472	800.000	-0.298	-0.954
-278.457	-200.000	0.182	0.835
-277.443	-98.371	0.559	0.142
-276.428	-108.600	-0.665	0.142
-275.413	-200.000	0.055	0.261
-274.399	20.248	-0.087	0.070
-273.384	-200.000	-0.091	-0.596
-272.370	-71.735	-0.527	-0.195
-271.355	7.675	-0.114	0.085
-270.340	59.414	-0.170	-0.166
-269.326	194.017	-0.433	-0.651
-268.311	-56.671	0.435	-0.191
-267.297	135.145	-0.047	-0.060
-266.282	164.256	-0.262	0.367
-265.267	-73.591	-0.287	0.104
-264.253	-200.000	-0.056	0.497
-263.238	-97.511	0.671	-0.173
-262.224	272.865	-0.183	-0.321
-261.209	-23.398	-0.249	0.149
-260.195	6.632	-0.554	0.409
-259.180	800.000	0.088	-0.274
-258.165	529.226	0.294	0.689
-257.151	145.559	-0.433	0.575
-256.136	-200.000	-0.041	0.225
-255.122	-178.789	-0.497	-0.011
-254.107	-84.588	-0.418	0.131
-253.092	-160.233	0.359	-0.019
-252.078	568.890	-0.405	-0.977
-251.063	-109.330	-0.454	-0.095
-250.049	-36.095	-0.198	-0.106
-249.034	800.000	0.208	0.674
-248.019	-48.773	0.339	-0.161
-247.005	-140.429	-0.553	0.057
-245.990	-185.079	0.581	0.009
-244.976	-103.488	0.749	-0.175
-243.961	93.381	0.069	0.077
-242.946	800.000	0.148	0.412
-241.932	-200.000	0.041	-0.562
-240.917	-137.372	0.175	-0.020
-239.903	-85.312	-0.394	0.122
-238.888	-116.390	-1.026	0.188
-237.873	9.046	0.483	0.362
-236.859	-73.376	-0.837	0.303
-235.844	-158.667	-0.227	0.013
-234.830	-200.000	0.073	-0.394
-233.815	58.528	0.394	0.384
-232.800	800.000	-0.098	-0.405
-231.786	-57.057	-0.296	0.129
-230.771	800.000	-0.247	-0.916
-229.757	-98.069	-0.310	-0.079
-228.742	83.139	0.192	-0.207
-227.727	328.292	-0.306	0.583
-226.713	251.497	-0.228	-0.385
-225.698	342.025	-0.394	0.765
-224.684	-109.151	-0.415	0.087
-223.669	-71.413	0.276	0.102
-222.655	-78.235	0.469	0.160
-221.640	-200.000	-0.031	0.406
-220.625	-200.000	0.056	0.443
-219.611	531.468	0.084	-0.197
-218.596	71.699	-0.673	0.693
-217.582	800.000	-0.049	0.173
-216.567	-77.738	0.316	0.108
-215.552	-133.210	0.740	-0.093
-214.538	193.951	-0.025	-0.038
-213.523	-143.586	-0.461	-0.043
-212.509	270.853	-0.202	0.352
-211.494	35.656	-0.473	0.411
-210.479	-38.195	0.205	-0.107
-209.465	-153.252	0.307	-0.021
-208.450	-59.749	-0.624	0.265
-207.436	536.964	0.169	-0.398
-206.421	23.923	0.649	-0.530
-205.406	800.000	0.338	-1.354
-204.392	400.591	-0.114	-0.236
-203.377	-115.533	0.719	-0.134
-202.363	-21.792	-0.588	-0.354
-201.348	-176.855	1.042	0.026
-200.333	-144.953	0.970	-0.088
-199.319	354.245	0.194	-0.382
-198.304	-75.318	0.394	0.139
-197.290	-39.608	0.285	0.148
-196.275	194.621	0.141	0.212
-195.260	-44.775	0.383	-0.189
-194.246	120.743	-0.374	-0.460
-193.231	-200.000	-0.016	-0.918
-192.217	177.447	0.381	0.549
-191.202	175.375	-0.208	0.299
-190.187	214.964	0.328	-0.514
-189.173	-200.000	0.053	-0.602
-188.158	-117.056	1.080	0.195
-187.144	18.159	0.270	-0.213
-186.129	-96.384	-0.154	-0.040
-185.114	290.167	0.384	-0.689
-184.100	246.773	-0.083	0.138
-183.085	390.435	-0.162	-0.333
-182.071	449.953	0.071	0.154
-181.056	-134.535	0.250	0.030
-180.042	-53.658	0.790	0.357
-179.027	-200.000	-0.019	0.182
-178.012	-15.066	-0.098	-0.062
-176.998	-200.000	0.008	-0.309
-175.983	198.917	-0.586	-0.888
-174.969	542.609	0.072	0.171
-173.954	-138.399	-0.507	-0.055
-172.939	117.620	-0.191	0.232
-171.925	115.251	0.449	0.542
-170.910	19.232	0.458	-0.364
-169.896	-200.000	-0.061	0.966
-168.881	-17.631	-0.652	0.405
-167.866	5.974	-0.207	-0.151
-166.852	-84.623	-0.419	0.131
-165.837	-107.681	-0.210	0.045
-164.823	191.747	-0.276	-0.411
-163.808	251.373	0.144	-0.242
-162.793	136.202	-0.173	0.223
-161.779	-200.000	-0.018	0.091
-160.764	95.576	-0.596	0.672
-159.750	218.797	-0.657	-1.038
-158.735	800.000	-0.202	0.758
-157.720	-200.000	0.004	0.428
-156.706	800.000	0.545	1.522
-155.691	95.339	0.313	0.353
-154.677	800.000	-0.264	0.900
-153.662	235.428	0.113	0.185
-152.647	220.524	0.393	0.623
-151.633	122.944	-0.311	-0.385
-150.618	-200.000	-0.020	-0.771
-149.604	258.424	0.300	-0.511
-148.589	729.002	-0.147	-0.389
-147.574	-115.203	-0.362	0.068
-146.560	233.510	-0.314	0.510
-145.545	155.352	-0.621	0.845
-144.531	-96.186	1.021	0.268
-143.516	800.000	0.341	0.997
-142.502	-108.331	0.579	0.123
-141.487	-200.000	0.051	0.677
-140.472	-55.854	0.771	-0.340
-139.458	-74.384	-0.667	-0.238
-138.443	482.892	-0.121	0.272
-137.429	56.436	-0.946	-0.908
-136.414	-32.287	-0.669	-0.369
-135.399	-73.236	-0.809	0.293
-134.385	-200.000	0.071	-0.489
-133.370	800.000	0.146	-0.625
-132.356	-200.000	-0.078	-0.480
-131.341	547.675	-0.075	0.177
-130.326	800.000	-0.147	-0.614
-129.312	800.000	0.073	-0.204
-128.297	-200.000	-0.031	-0.189
-127.283	-200.000	0.001	-0.307
-126.268	43.690	0.472	-0.426
-125.253	-48.495	-0.964	-0.458
-124.239	164.241	0.171	-0.238
-123.224	5.233	-0.261	0.190
-122.210	-200.000	-0.062	0.548
-121.195	-200.000	0.020	0.542
-120.180	93.133	-0.486	-0.542
-119.166	-87.541	0.330	0.098
-118.151	13.924	0.403	0.309
-117.137	-72.121	0.128	-0.047
-116.122	138.006	-0.134	0.173
-115.107	-168.623	-1.280	0.048
-114.093	545.600	0.120	-0.284
-113.078	443.415	-0.183	0.397
-112.064	-49.725	0.281	0.132
-111.049	-200.000	0.059	-0.314
-110.034	-161.809	0.684	0.034
-109.020	-200.000	0.161	1.066
-108.005	422.896	-0.455	0.965
-106.991	531.056	0.243	-0.566
-105.976	56.532	0.057	-0.054
-104.962	800.000	0.035	0.132
-103.947	-0.526	-0.112	-0.078
-102.932	491.223	-0.160	-0.361
-101.918	-200.000	0.047	0.483
-100.903	-49.151	-0.314	0.148
-99.889	-200.000	0.039	0.390
-98.874	800.000	0.021	-0.079
-97.859	-200.000	-0.011	-0.502
-96.845	-84.320	-0.660	0.206
-95.830	70.921	0.449	0.459
-94.816	67.895	0.099	-0.100
-93.801	50.537	-0.383	-0.357
-92.786	461.389	-0.292	-0.643
-91.772	46.422	-0.576	-0.526
-90.757	-66.427	-0.980	0.384
-89.743	-200.000	-0.027	-0.322
-88.728	800.000	0.337	-1.190
-87.713	-17.986	0.599	0.370
-86.699	192.136	-0.020	-0.030
-85.684	205.447	-0.301	-0.461
-84.670	-200.000	0.002	0.396
-83.655	-200.000	0.109	0.819
-82.640	-98.346	-0.352	-0.089
-81.626	-200.000	0.242	1.055
-80.611	-119.353	-0.381	-0.065
-79.597	107.328	0.396	0.464
-78.582	51.914	-0.442	-0.415
-77.567	-86.532	-0.389	0.118
-76.553	234.871	-0.377	-0.613
-75.538	134.611	-0.368	0.470
-74.524	-52.860	0.518	0.235
-73.509	436.155	-0.350	-0.752
-72.494	-164.180	-0.641	-0.029
-71.480	-200.000	0.002	0.249
-70.465	102.596	-0.178	0.205
-69.451	-83.146	0.329	0.104
-68.436	228.853	-0.235	0.377
-67.422	800.000	-0.129	0.535
-66.407	121.667	0.586	0.719
-65.392	-169.163	0.215	-0.008
-64.378	-54.684	-0.611	0.272
-63.363	-59.073	0.553	0.235
-62.349	-200.000	-0.827	0.003
-61.334	-22.929	-1.291	-0.767
-60.319	-125.067	0.402	0.061
-59.305	-76.161	-1.238	-0.430
-58.290	3.689	0.871	0.626
-57.276	-200.000	0.217	2.092
-56.261	-200.000	95.771	580.726
-55.246	661.872	1360.717	3452.454
-54.232	203.088	2523.250	3839.446
-53.217	118.761	2124.136	2582.894
-52.203	44.524	1594.185	1441.932
-51.188	36.311	1335.510	1158.859
-50.173	33.279	1294.000	1105.120
-49.159	57.238	1342.911	1289.754
-48.144	57.733	1359.859	1308.913
-47.130	36.731	1317.073	1145.166
-46.115	33.154	1300.836	1110.052
-45.100	33.112	1294.956	1104.742
-44.086	32.667	1293.041	1100.466
-43.071	33.122	1289.309	1099.896
-42.057	32.608	1289.313	1096.862
-41.042	32.899	1287.597	1097.053
-40.027	32.912	1285.691	1095.461
-39.013	32.791	1284.317	1093.546
-37.998	33.025	1281.198	1092.200
-36.984	32.802	1280.474	1090.252
-35.969	32.840	1278.924	1089.109
-34.954	32.946	1276.059	1087.231
-33.940	32.742	1276.933	1086.762
-32.925	32.877	1274.565	1085.479
-31.911	32.806	1273.222	1083.880
-30.896	32.931	1271.159	1082.800
-29.881	33.130	1268.966	1082.028
-28.867	33.128	1267.720	1080.912
-27.852	32.970	1266.987	1079.344
-26.838	32.958	1265.722	1078.150
-25.823	33.008	1265.056	1077.828
-24.809	32.849	1263.940	1075.930
-23.794	32.950	1260.635	1073.644
-22.779	33.287	1259.971	1074.954
-21.765	33.119	1259.003	1073.127
-20.750	32.844	1258.329	1070.952
-19.736	32.747	1256.898	1069.141
-18.721	33.020	1255.212	1069.211
-17.706	32.672	1254.980	1067.001
-16.692	32.823	1252.805	1065.962
-15.677	32.713	1252.372	1064.931
-14.663	32.708	1251.686	1064.278
-13.648	32.989	1249.520	1063.978
-12.633	32.753	1250.250	1063.222
-11.619	33.118	1248.176	1063.476
-10.604	32.830	1247.857	1061.538
-9.590	32.591	1247.780	1060.084
-8.575	32.692	1245.521	1058.690
-7.560	32.974	1244.689	1059.526
-6.546	32.518	1244.386	1056.667
-5.531	32.840	1242.206	1056.577
-4.517	32.739	1242.254	1056.015
-3.502	32.893	1241.032	1055.792
-2.487	32.881	1240.405	1055.151
-1.473	32.787	1235.996	1050.834
-0.458	31.130	1221.761	1029.557
0.556	28.332	1203.578	990.820
1.571	24.614	1209.081	975.013
2.586	23.438	1223.602	980.138
3.600	22.772	1213.424	968.246
4.615	16.880	1139.966	879.090
5.629	7.514	1063.582	774.596
6.644	3.298	1045.597	741.179
7.659	3.138	1041.997	737.792
8.673	2.815	1040.240	734.938
9.688	2.670	1039.760	733.839
10.702	2.992	1039.857	735.382
11.717	9.257	1046.674	770.241
12.731	18.794	1059.817	825.913
13.746	23.659	1065.727	853.910
14.761	24.568	1066.735	859.012
15.775	24.467	1065.282	857.281
16.790	23.785	1065.481	854.090
17.804	23.692	1065.482	853.568
18.819	24.145	1063.301	853.919
19.834	24.125	1063.109	853.592
20.848	24.363	1062.475	854.147
21.863	23.971	1063.203	852.778
22.877	23.931	1062.162	851.675
23.892	24.038	1060.547	850.816
24.907	23.977	1060.482	850.397
25.921	23.861	1059.024	848.599
26.936	24.114	1056.654	847.833
27.950	23.812	1055.786	845.621
28.965	23.794	1054.888	844.742
29.980	24.073	1053.009	844.487
30.994	23.919	1052.108	842.958
32.009	24.229	1051.367	843.761
33.023	23.762	1051.154	841.305
34.038	23.992	1048.772	840.407
35.053	23.914	1048.330	839.612
36.067	23.846	1047.397	838.472
37.082	24.212	1046.420	839.340
38.096	24.057	1046.697	838.756
39.111	24.075	1046.150	838.327
40.126	23.932	1044.743	836.454
41.140	23.574	1043.185	833.454
42.155	23.611	1042.275	832.823
43.169	23.311	1041.187	830.474
44.184	23.736	1040.074	831.501
45.199	23.652	1038.573	829.837
46.213	23.773	1038.376	830.171
47.228	23.972	1038.558	831.176
48.242	24.374	1036.875	831.627
49.257	24.151	1036.801	830.454
50.271	23.975	1036.469	829.297
51.286	24.451	1035.480	830.646
52.301	24.171	1034.496	828.483
53.315	24.141	1033.477	827.451
54.330	23.889	1032.709	825.598
55.344	23.969	1031.246	824.723
56.359	23.831	1031.184	823.959
57.374	23.599	1030.116	821.959
58.388	23.925	1028.859	822.392
59.403	23.504	1028.161	819.815
60.417	23.478	1027.265	818.911
61.432	23.459	1026.129	817.846
62.447	23.711	1025.887	818.739
63.461	23.693	1024.964	817.849
64.476	23.505	1025.741	817.530
65.490	23.898	1022.665	816.812
66.505	23.614	1022.475	815.283
67.520	23.703	1021.494	814.837
68.534	23.480	1021.084	813.414
69.549	23.242	1020.162	811.518
70.563	22.933	1020.146	810.016
71.578	23.096	1017.824	808.848
72.593	22.988	1017.194	807.781
73.607	22.843	1017.664	807.420
74.622	23.421	1016.854	809.347
75.636	23.092	1017.021	807.902
76.651	23.311	1015.814	807.874
77.666	23.184	1015.402	806.896
78.680	23.356	1013.532	806.122
79.695	23.453	1013.525	806.483
80.709	23.373	1013.642	806.140
81.724	23.484	1011.998	805.267
82.739	23.710	1011.142	805.540
83.753	23.975	1010.847	806.433
84.768	24.377	1010.374	807.806
85.782	24.360	1011.151	808.280
86.797	23.985	1009.297	805.031
87.812	24.351	1008.265	805.791
88.826	24.253	1007.531	804.688
89.841	24.368	1006.182	804.059
90.855	24.273	1005.539	803.048
91.870	24.578	1003.648	802.835
92.884	24.321	1003.533	801.516
93.899	24.153	1002.700	800.026
94.914	24.403	1001.606	800.207
95.928	24.049	1001.195	798.217
96.943	24.099	999.679	797.161
97.957	23.973	998.942	795.940
98.972	23.769	998.207	794.373
99.987	23.890	997.807	794.526
101.001	24.250	996.259	794.827
102.016	24.134	995.732	793.822
103.030	24.430	994.885	794.391
104.045	24.130	993.012	791.494
105.060	24.061	992.021	790.327
106.074	24.001	991.857	789.859
107.089	24.107	991.691	790.129
108.103	23.915	989.682	787.607
109.118	23.649	988.266	785.236
110.133	23.617	987.971	784.791
111.147	23.363	986.295	782.270
112.162	23.710	985.246	782.896
113.176	23.302	985.392	781.146
114.191	23.694	983.800	781.541
115.206	23.771	982.356	780.662
116.220	23.663	982.276	780.054
117.235	23.245	981.631	777.637
118.249	23.438	980.696	777.673
119.264	23.178	979.952	775.877
120.279	23.043	978.843	774.338
121.293	23.367	977.221	774.405
122.308	22.935	978.568	773.512
123.322	23.187	977.059	773.350
124.337	22.645	975.860	769.965
125.352	22.944	974.438	770.080
126.366	23.102	973.807	770.201
127.381	23.644	973.319	772.107
128.395	23.759	972.915	772.215
129.410	23.760	971.909	771.356
130.424	23.766	971.176	770.729
131.439	24.020	970.319	771.083
132.454	23.832	970.417	770.277
133.468	24.039	968.377	769.484
134.483	23.663	968.259	767.698
135.497	23.870	967.460	767.893
136.512	24.003	965.700	767.000
137.527	23.942	966.145	767.023
138.541	23.914	964.894	765.841
139.556	23.758	963.982	764.377
140.570	24.108	963.391	765.346
141.585	24.593	962.260	766.461
142.600	24.478	961.930	765.637
143.614	24.498	960.819	764.772
144.629	24.435	960.624	764.277
145.643	24.309	958.663	762.110
146.658	24.399	957.373	761.403
147.673	24.261	956.219	759.830
148.687	24.014	955.299	757.981
149.702	24.113	954.715	757.869
150.716	23.949	953.720	756.315
151.731	24.057	953.060	756.187
152.746	23.689	952.815	754.359
153.760	24.428	951.486	756.374
154.775	24.425	950.463	755.482
155.789	24.400	950.179	755.086
156.804	24.023	950.337	753.545
157.819	24.261	948.826	753.289
158.833	24.459	949.111	754.285
159.848	24.591	947.966	753.864
160.862	24.272	947.106	751.768
161.877	24.504	945.434	751.352
162.892	24.199	944.236	749.053
163.906	23.904	944.711	748.120
164.921	23.829	943.197	746.541
165.935	24.192	941.243	746.451
166.950	24.051	940.978	745.585
167.964	24.046	940.827	745.377
168.979	24.036	939.556	744.263
169.994	24.133	938.005	743.370
171.008	24.522	937.232	744.317
172.023	24.534	937.924	744.848
173.037	24.375	936.502	742.992
174.052	24.506	935.385	742.586
175.067	24.184	935.105	740.957
176.081	23.762	934.072	738.320
177.096	24.023	933.629	738.990
178.110	23.667	932.939	736.902
179.125	23.669	932.342	736.370
180.140	23.532	932.312	735.716
181.154	24.122	930.905	736.981
182.169	24.042	931.996	737.448
183.183	24.500	930.999	738.488
184.198	24.072	930.265	736.074
185.213	24.337	928.865	735.993
186.227	24.314	928.177	735.289
187.242	24.249	928.132	734.921
188.256	24.529	927.057	735.155
189.271	24.655	926.423	735.107
190.286	24.138	925.437	732.137
191.300	23.600	925.084	729.581
192.315	22.765	924.422	725.561
193.329	22.755	923.683	724.876
194.344	24.118	922.812	729.716
195.359	24.199	922.381	729.643
196.373	24.535	921.326	730.119
197.388	24.537	921.284	730.027
198.402	24.546	920.796	729.615
199.417	24.728	920.466	730.030
200.432	24.541	920.925	729.569
201.446	24.655	920.294	729.467
202.461	24.607	919.114	728.271
203.475	24.247	918.751	726.452
204.490	23.527	916.898	721.994
205.504	24.094	915.784	723.357
206.519	24.438	915.611	724.556
207.534	24.471	914.834	724.009
208.548	24.268	914.908	723.178
209.563	24.481	913.795	723.100
210.577	24.445	913.032	722.284
211.592	24.465	913.529	722.696
212.607	25.081	911.903	723.835
213.621	24.944	911.138	722.608
214.636	24.725	911.229	721.736
215.650	24.739	910.243	720.948
216.665	24.584	909.948	720.023
217.680	24.783	908.520	719.632
218.694	24.878	907.517	719.154
219.709	24.227	907.770	716.675
220.723	24.225	907.251	716.193
221.738	24.352	906.001	715.652
222.753	24.589	905.112	715.836
223.767	24.515	905.378	715.686
224.782	24.696	905.170	716.185
225.796	25.031	903.870	716.433
226.811	24.354	903.072	713.030
227.826	24.002	903.061	711.552
228.840	24.282	901.221	711.159
229.855	24.011	901.852	710.508
230.869	23.848	900.388	708.643
231.884	24.419	899.666	710.288
232.899	24.406	899.510	710.051
233.913	24.578	898.178	709.616
234.928	24.019	898.038	707.223
235.942	23.477	897.526	704.606
236.957	23.721	896.168	704.443
237.972	23.684	896.471	704.474
238.986	23.621	896.095	703.868
240.001	23.901	894.840	703.927
241.015	23.968	894.871	704.153
242.030	24.202	894.074	704.387
243.045	24.179	893.096	703.467
244.059	24.170	894.182	704.223
245.074	24.320	892.856	703.708
246.088	24.058	891.753	701.744
247.103	24.591	891.006	703.193
248.117	24.885	892.084	705.138
249.132	25.249	891.217	705.824
250.147	25.497	890.262	705.980
251.161	25.519	890.209	705.963
252.176	25.459	889.527	705.124
253.190	25.514	889.061	704.905
254.205	25.470	888.048	703.868
255.220	25.303	886.949	702.284
256.234	25.047	886.636	700.969
257.249	24.982	886.254	700.353
258.263	25.342	884.559	700.356
259.278	24.935	884.480	698.646
260.293	25.051	885.008	699.452
261.307	25.383	883.326	699.355
262.322	25.199	882.948	698.277
263.336	24.876	882.164	696.338
264.351	25.026	880.574	695.603
265.366	24.753	880.843	694.692
266.380	25.218	879.997	695.768
267.395	24.834	880.213	694.388
268.409	25.170	878.527	694.298
269.424	25.074	878.357	693.732
270.439	25.183	877.545	693.448
271.453	25.152	876.405	692.368
272.468	25.390	875.654	692.631
273.482	25.292	875.879	692.370
274.497	25.168	874.796	690.977
275.512	25.038	875.202	690.734
276.526	25.220	873.756	690.230
277.541	25.059	874.661	690.266
278.555	25.271	873.230	689.889
279.570	25.072	873.463	689.247
280.585	25.412	872.801	689.970
281.599	25.073	871.085	687.254
282.614	24.587	870.312	684.718
283.628	24.768	870.349	685.382
284.643	24.788	869.486	684.718
285.657	25.103	868.026	684.713
286.672	25.026	867.341	683.817
287.687	24.968	866.966	683.238
288.701	25.354	866.198	684.045
289.716	25.332	866.043	683.776
290.730	24.920	866.356	682.396
291.745	25.091	865.188	682.066
292.760	24.962	865.274	681.580
293.774	25.541	864.557	683.156
294.789	25.706	862.838	682.365
295.803	25.415	862.842	681.202
296.818	25.236	862.024	679.818
297.833	24.966	862.611	679.199
298.847	24.792	861.516	677.616
299.862	25.389	860.350	678.899
300.876	25.594	859.790	679.169
301.891	25.079	861.521	678.528
302.906	25.825	859.055	679.340
303.920	25.647	859.353	678.842
304.935	25.373	859.364	677.759
305.949	25.624	857.113	676.869
306.964	25.395	856.865	675.751
307.979	24.935	857.265	674.277
308.993	25.182	856.762	674.750
310.008	25.536	854.983	674.615
311.022	25.011	855.195	672.754
312.037	25.151	855.148	673.183
313.052	25.000	852.991	670.862
314.066	24.972	851.877	669.819
315.081	24.703	851.930	668.795
316.095	25.072	851.406	669.705
317.110	25.040	851.076	669.266
318.125	24.809	850.020	667.517
319.139	24.225	849.786	665.093
320.154	24.488	848.576	665.067
321.168	24.722	848.567	665.872
322.183	25.029	848.385	666.815
323.197	24.687	848.140	665.289
324.212	24.954	847.042	665.361
325.227	24.713	847.431	664.713
326.241	24.618	846.806	663.810
327.256	24.480	846.055	662.649
328.270	24.841	844.510	662.718
329.285	24.452	844.151	660.940
330.300	24.138	843.429	659.153
331.314	24.466	843.340	660.238
332.329	24.846	842.848	661.198
333.343	25.248	843.078	662.807
334.358	25.492	842.428	663.138
335.373	25.173	842.780	662.179
336.387	25.451	842.322	662.784
337.402	25.787	841.534	663.345
338.416	25.716	840.754	662.411
339.431	25.702	841.866	663.174
340.446	25.725	841.424	662.853
341.460	25.602	841.010	662.017
342.475	25.808	840.588	662.382
343.489	25.757	839.421	661.216
344.504	26.471	838.452	663.015
345.519	26.001	838.680	661.412
346.533	25.863	838.062	660.359
347.548	25.712	838.041	659.731
348.562	25.971	836.903	659.726
349.577	25.790	836.565	658.739
350.592	25.693	835.129	657.194
351.606	25.489	834.760	656.102
352.621	25.767	833.665	656.197
353.635	25.489	832.927	654.544
354.650	25.053	833.028	652.977
355.665	25.211	831.800	652.531
356.679	25.500	831.708	653.454
357.694	25.471	830.376	652.245
358.708	24.955	830.499	650.407
359.723	25.275	829.224	650.514
360.738	25.224	828.897	650.016
361.752	25.652	827.859	650.692
362.767	26.152	827.526	652.178
363.781	25.949	828.161	651.888
364.796	26.268	827.325	652.323
365.810	26.222	826.996	651.840
366.825	26.052	826.653	650.899
367.840	25.770	825.478	648.899
368.854	25.707	825.276	648.459
369.869	25.733	824.379	647.788
370.883	25.733	824.246	647.627
371.898	26.020	824.320	648.661
372.913	25.800	824.119	647.652
373.927	26.110	822.607	647.520
374.942	25.474	822.439	645.048
375.956	26.026	821.607	646.319
376.971	25.929	822.117	646.313
377.986	26.370	821.116	647.050
379.000	26.432	820.531	646.751
380.015	26.235	819.233	644.969
381.029	26.032	819.518	644.410
382.044	26.426	818.419	644.895
383.059	26.457	818.112	644.705
384.073	26.091	817.908	643.183
385.088	25.646	817.897	641.533
386.102	25.747	815.550	639.992
387.117	25.413	815.786	638.934
388.132	25.643	814.963	639.051
389.146	25.609	814.361	638.401
390.161	26.032	814.242	639.752
391.175	26.013	814.204	639.596
392.190	25.583	814.029	637.877
393.205	25.618	811.960	636.324
394.219	24.703	810.675	632.028
395.234	24.734	810.983	632.323
396.248	25.358	810.547	634.130
397.263	25.547	810.923	635.036
398.278	25.108	810.945	633.448
399.292	24.799	810.400	631.874
400.307	24.843	808.686	630.638
401.321	25.093	809.329	631.965
402.336	25.835	808.851	634.149
403.350	25.789	808.692	633.804
404.365	26.134	808.172	634.555
405.380	26.506	808.013	635.679
406.394	26.559	807.674	635.545
407.409	26.659	806.995	635.304
408.423	26.656	806.612	634.935
409.438	26.536	806.046	634.013
410.453	26.788	805.128	634.118
411.467	26.779	804.431	633.481
412.482	26.162	804.962	631.684
413.496	26.583	804.915	633.063
414.511	26.275	803.960	631.182
415.526	26.403	803.411	631.141
416.540	26.213	803.545	630.528
417.555	26.048	803.498	629.858
418.569	26.417	802.082	629.977
419.584	26.743	801.051	630.247
420.599	26.485	800.652	628.982
421.613	159.775	1371.041	1793.255
422.628	138.669	1454.137	1793.276
