DTS Sentinel unit serial number:	SN413079Multiplexer serial number:	ORYXHardware model number:	OX4-SRSoftware version number:	ORYX F/W v4.00 Oryx Data Collector v3.7.2.0data status	okinstallation	princeton_trtdifferential loss correction	single-endedforward channel	channel 1reverse channel	N/Adate	2019/09/12time	10:48:11forward acquisition time	60.00reverse acquisition time	0.00gamma	496.2192k internal	0.2295k external	0.2295temperature offset calibration	1.0047default loss term (dB/km)	0.3790temperature slope calibration	1.0000multiplexer offset coefficient	1.0000multiplexer slope coefficient	1.0000fibre end	0.00T internal ref (°C)	37.86T ext. ref 1 (°C)	1.91T ext. ref 2 (°C)	36.56length (m)	temperature (°C)	Stokes	anti-Stokes-747.200	84.201	0.141	0.158
-746.185	-81.546	0.276	0.093
-745.171	128.941	0.096	0.125
-744.156	57.143	-0.194	0.194
-743.142	800.000	-0.119	-0.339
-742.127	61.126	0.156	0.158
-741.112	-138.730	0.460	0.051
-740.098	294.685	-0.223	0.417
-739.083	82.688	0.242	-0.269
-738.069	189.078	-0.187	0.287
-737.054	-90.869	0.178	-0.052
-736.039	154.264	-0.182	-0.255
-735.025	800.000	0.104	0.419
-734.010	-23.271	-0.333	0.204
-732.996	-124.099	0.114	-0.018
-731.981	-133.708	-0.174	0.022
-730.966	-66.853	-0.018	-0.007
-729.952	353.583	-0.160	-0.324
-728.937	115.243	0.186	0.232
-727.923	800.000	-0.066	-0.213
-726.908	-91.486	0.030	0.009
-725.894	23.893	-0.229	-0.193
-724.879	-59.071	-0.554	-0.244
-723.864	-200.000	0.025	-0.192
-722.850	800.000	0.069	0.218
-721.835	-90.866	-0.031	-0.009
-720.821	578.245	-0.064	-0.160
-719.806	-43.513	-0.140	0.072
-718.791	-200.000	0.066	-0.423
-717.777	-196.786	-0.161	0.001
-716.762	-103.535	-0.240	-0.058
-715.748	543.831	0.169	-0.412
-714.733	69.814	0.103	0.109
-713.718	-119.378	0.090	-0.016
-712.704	-101.042	-0.122	-0.031
-711.689	-37.827	0.091	0.050
-710.675	45.910	0.197	-0.186
-709.660	452.244	0.059	-0.132
-708.645	2.830	0.368	-0.273
-707.631	345.545	-0.029	-0.058
-706.616	-18.829	0.041	0.026
-705.602	-11.223	-0.070	0.047
-704.587	800.000	-0.102	0.320
-703.572	-200.000	-0.006	0.368
-702.558	800.000	0.023	0.091
-701.543	-200.000	0.021	-0.142
-700.529	428.079	0.068	-0.151
-699.514	354.577	0.123	-0.250
-698.499	-200.000	-0.019	0.146
-697.485	-111.942	-0.321	-0.066
-696.470	-79.454	-0.075	0.026
-695.456	-146.576	-0.095	-0.008
-694.441	-13.164	0.064	0.042
-693.426	132.776	-0.173	-0.227
-692.412	-136.001	-0.188	0.023
-691.397	446.739	-0.089	-0.200
-690.383	155.050	-0.197	0.277
-689.368	5.143	0.355	-0.266
-688.354	-173.671	-0.160	0.005
-687.339	-87.263	-0.247	0.076
-686.324	120.070	0.146	0.185
-685.310	-57.165	-0.062	0.028
-684.295	18.295	-0.193	0.157
-683.281	27.350	0.198	0.169
-682.266	398.929	-0.062	-0.133
-681.251	680.593	0.089	0.238
-680.237	-23.299	-0.287	-0.176
-679.222	-15.425	0.124	-0.081
-678.208	-54.457	0.282	0.130
-677.193	-115.493	-0.223	-0.043
-676.178	-66.410	0.102	-0.041
-675.164	-134.527	0.296	0.037
-674.149	47.802	0.074	-0.070
-673.135	5.964	0.090	-0.068
-672.120	646.351	-0.119	-0.309
-671.105	30.904	-0.249	-0.217
-670.091	609.841	-0.127	-0.324
-669.076	-52.174	0.102	-0.048
-668.062	800.000	0.021	0.073
-667.047	48.652	0.266	-0.254
-666.032	-200.000	-0.004	0.204
-665.018	-200.000	-0.022	-0.177
-664.003	-56.176	-0.111	-0.050
-662.989	-163.512	0.257	-0.012
-661.974	-92.028	0.152	-0.044
-660.959	383.035	-0.110	-0.231
-659.945	240.824	-0.163	0.277
-658.930	-154.576	0.162	0.011
-657.916	800.000	0.091	0.260
-656.901	-200.000	-0.015	-0.084
-655.886	-117.638	-0.056	0.010
-654.872	221.754	0.062	-0.101
-653.857	-84.803	-0.333	0.107
-652.843	-30.258	-0.125	0.072
-651.828	51.854	0.123	0.119
-650.814	159.244	0.162	0.229
-649.799	67.774	0.279	-0.291
-648.784	800.000	0.051	-0.208
-647.770	800.000	-0.068	-0.248
-646.755	-200.000	0.007	-0.262
-645.741	167.797	-0.129	0.187
-644.726	800.000	0.031	-0.122
-643.711	-93.053	-0.364	0.103
-642.697	-112.287	-0.039	0.008
-641.682	-44.795	-0.266	0.135
-640.668	36.593	0.051	-0.046
-639.653	256.127	-0.058	0.101
-638.638	800.000	-0.076	0.329
-637.624	-200.000	-0.044	-0.229
-636.609	800.000	-0.066	0.287
-635.595	39.348	-0.110	-0.100
-634.580	-116.504	0.235	-0.044
-633.565	105.219	-0.131	0.158
-632.551	396.054	0.132	0.281
-631.536	24.970	-0.225	0.190
-630.522	258.685	0.200	-0.351
-629.507	490.661	-0.059	-0.137
-628.492	-69.945	-0.132	-0.051
-627.478	800.000	-0.032	0.097
-626.463	-75.691	0.118	-0.043
-625.449	99.091	-0.171	0.201
-624.434	696.382	-0.145	0.386
-623.419	316.359	-0.148	0.284
-622.405	598.401	-0.026	-0.065
-621.390	-74.807	0.365	-0.133
-620.376	-200.000	0.037	-0.198
-619.361	90.047	0.219	0.249
-618.346	65.081	0.102	-0.105
-617.332	286.297	0.097	-0.178
-616.317	-138.755	-0.246	-0.027
-615.303	-65.162	0.096	-0.040
-614.288	88.331	0.406	0.459
-613.273	-200.000	0.046	-0.366
-612.259	-200.000	-0.034	-0.275
-611.244	379.204	0.143	0.298
-610.230	-43.802	-0.243	-0.124
-609.215	98.379	-0.056	0.066
-608.201	-200.000	-0.011	0.166
-607.186	-200.000	-0.016	0.229
-606.171	800.000	0.080	-0.307
-605.157	7.783	-0.224	-0.170
-604.142	753.902	-0.105	0.288
-603.128	330.950	-0.050	0.097
-602.113	800.000	0.109	-0.326
-601.098	800.000	-0.062	-0.187
-600.084	485.972	-0.074	0.170
-599.069	-16.574	0.095	0.061
-598.055	74.246	-0.045	-0.048
-597.040	-123.959	0.183	0.029
-596.025	-200.000	0.035	-0.175
-595.011	129.882	-0.122	0.159
-593.996	-200.000	-0.038	0.268
-592.982	-200.000	-0.053	0.254
-591.967	800.000	0.038	-0.128
-590.952	-200.000	-0.019	0.204
-589.938	617.241	0.081	-0.205
-588.923	328.348	-0.057	0.111
-587.909	-200.000	0.002	-0.282
-586.894	-41.794	-0.251	-0.131
-585.879	4.324	0.384	-0.286
-584.865	161.787	-0.206	0.293
-583.850	166.470	-0.096	-0.139
-582.836	3.452	0.127	-0.094
-581.821	-200.000	-0.055	-0.247
-580.806	0.810	-0.166	-0.121
-579.792	161.088	-0.045	0.064
-578.777	224.063	0.186	-0.305
-577.763	-100.215	-0.152	0.038
-576.748	-64.573	0.199	0.082
-575.733	-155.808	-0.226	-0.015
-574.719	-114.121	-0.261	0.051
-573.704	121.294	0.207	-0.261
-572.690	454.288	0.039	-0.088
-571.675	148.315	0.179	-0.245
-570.661	80.344	0.172	0.188
-569.646	-200.000	-0.006	-0.508
-568.631	-200.000	0.051	-0.278
-567.617	-60.463	-0.141	-0.061
-566.602	-47.480	0.300	-0.148
-565.588	-32.894	-0.131	0.074
-564.573	220.568	0.105	0.171
-563.558	-127.730	-0.419	0.061
-562.544	-102.142	0.171	-0.042
-561.529	-87.982	-0.257	0.078
-560.515	143.982	0.235	0.318
-559.500	79.445	-0.029	0.031
-558.485	800.000	-0.034	-0.098
-557.471	-174.104	0.149	-0.004
-556.456	42.026	-0.287	0.264
-555.442	538.025	0.147	0.355
-554.427	800.000	-0.033	0.130
-553.412	-200.000	0.032	-0.384
-552.398	-121.650	0.197	-0.033
-551.383	557.188	-0.020	0.049
-550.369	800.000	-0.054	0.223
-549.354	49.430	-0.140	0.134
-548.339	45.645	-0.187	0.175
-547.325	-200.000	-0.014	-0.097
-546.310	166.714	0.132	0.190
-545.296	171.969	0.085	0.123
-544.281	157.879	0.104	0.146
-543.266	-67.442	0.280	-0.112
-542.252	-79.155	0.156	0.054
-541.237	-151.889	0.155	-0.012
-540.223	202.998	0.082	-0.128
-539.208	-99.432	0.366	0.093
-538.193	-81.630	-0.455	0.151
-537.179	88.489	0.108	0.121
-536.164	229.161	-0.271	-0.448
-535.150	449.365	-0.144	0.323
-534.135	800.000	0.092	0.355
-533.121	-174.235	-0.118	0.003
-532.106	57.296	0.224	-0.222
-531.091	-153.713	0.129	-0.009
-530.077	-40.523	-0.249	0.131
-529.062	486.414	0.063	-0.146
-528.048	-200.000	-0.067	-0.342
-527.033	-66.576	-0.205	-0.082
-526.018	-25.353	-0.129	-0.077
-525.004	-41.895	-0.062	0.032
-523.989	332.917	-0.095	0.185
-522.975	-200.000	0.001	-0.255
-521.960	411.009	0.110	0.237
-520.945	156.095	-0.119	-0.166
-519.931	800.000	-0.159	-0.649
-518.916	800.000	-0.025	-0.104
-517.902	-200.000	-0.022	-0.427
-516.887	-200.000	0.018	-0.344
-515.872	43.839	0.417	-0.387
-514.858	-87.872	-0.141	0.043
-513.843	-65.642	0.167	-0.068
-512.829	-28.043	-0.110	0.064
-511.814	14.602	0.154	0.122
-510.799	272.926	-0.035	0.062
-509.785	-41.050	0.231	-0.121
-508.770	165.477	0.066	0.094
-507.756	-80.622	0.173	0.058
-506.741	-5.031	-0.231	0.161
-505.726	800.000	0.075	-0.215
-504.712	800.000	-0.071	0.232
-503.697	164.752	-0.139	-0.199
-502.683	-41.865	-0.175	-0.091
-501.668	-200.000	-0.008	-0.349
-500.653	-200.000	0.104	0.529
-499.639	800.000	-0.013	-0.045
-498.624	-92.068	-0.313	-0.090
-497.610	318.655	0.082	-0.157
-496.595	297.034	-0.140	-0.260
-495.581	-98.605	-0.164	-0.042
-494.566	78.672	0.034	-0.037
-493.551	467.206	0.101	0.230
-492.537	78.509	0.172	0.186
-491.522	-16.152	0.172	0.111
-490.508	-20.741	-0.214	0.133
-489.493	-32.014	-0.112	-0.064
-488.478	-78.732	0.022	0.007
-487.464	-200.000	-0.025	0.249
-486.449	-200.000	-0.051	-0.261
-485.435	-134.882	0.369	0.045
-484.420	160.481	0.181	-0.256
-483.405	120.841	-0.072	-0.091
-482.391	635.166	0.032	-0.082
-481.376	156.274	-0.274	-0.382
-480.362	-184.197	-0.242	0.004
-479.347	75.962	0.038	-0.041
-478.332	187.914	0.223	0.337
-477.318	-200.000	0.003	-0.286
-476.303	242.513	-0.081	0.138
-475.289	-103.511	0.258	0.061
-474.274	-200.000	0.013	0.091
-473.259	57.325	-0.135	-0.133
-472.245	175.965	-0.204	0.299
-471.230	-200.000	-0.004	-0.190
-470.216	800.000	0.136	0.458
-469.201	-200.000	0.018	0.146
-468.186	-176.271	0.150	-0.004
-467.172	78.419	-0.129	-0.139
-466.157	485.901	0.127	-0.292
-465.143	-78.291	0.134	-0.047
-464.128	292.163	0.062	0.114
-463.113	-37.313	0.168	-0.091
-462.099	-141.655	0.056	0.006
-461.084	-27.602	0.199	-0.117
-460.070	-200.000	0.026	-0.183
-459.055	800.000	-0.082	0.250
-458.040	-36.078	-0.276	0.151
-457.026	-147.471	0.104	0.009
-456.011	10.981	0.054	0.041
-454.997	-82.920	0.114	-0.037
-453.982	77.777	0.104	-0.112
-452.968	-83.830	0.052	0.017
-451.953	113.582	0.107	-0.131
-450.938	-9.549	-0.176	0.119
-449.924	-200.000	-0.025	0.125
-448.909	349.917	0.107	0.214
-447.895	-28.352	-0.374	-0.218
-446.880	-200.000	0.012	0.144
-445.865	176.136	-0.048	-0.071
-444.851	170.994	0.055	0.079
-443.836	128.963	-0.108	0.139
-442.822	161.492	0.060	0.085
-441.807	111.044	-0.046	-0.056
-440.792	-119.178	-0.400	-0.071
-439.778	800.000	-0.051	0.174
-438.763	-38.810	-0.290	0.154
-437.749	190.251	-0.145	-0.219
-436.734	-148.153	-0.122	0.010
-435.719	-70.982	-0.263	0.100
-434.705	-108.140	-0.180	0.039
-433.690	177.542	0.128	0.188
-432.676	55.967	0.073	-0.071
-431.661	-4.025	-0.118	-0.083
-430.646	-161.826	0.096	-0.005
-429.632	-200.000	-0.301	0.001
-428.617	-200.000	0.018	-0.337
-427.603	800.000	0.040	-0.165
-426.588	239.908	-0.159	-0.267
-425.573	40.512	0.190	0.173
-424.559	128.164	0.174	-0.224
-423.544	-111.323	0.078	0.016
-422.530	-94.810	0.214	-0.059
-421.515	800.000	0.058	0.215
-420.500	320.669	-0.269	-0.515
-419.486	668.844	0.094	0.246
-418.471	77.897	-0.210	0.226
-417.457	121.101	0.114	-0.143
-416.442	145.445	0.118	-0.159
-415.428	26.866	0.077	-0.065
-414.413	-200.000	0.111	-0.595
-413.398	-200.000	0.024	-0.277
-412.384	-14.136	0.325	-0.211
-411.369	106.899	0.430	-0.516
-410.355	-55.891	-0.090	0.040
-409.340	782.653	0.034	0.095
-408.325	-122.233	0.149	-0.025
-407.311	233.823	-0.107	-0.177
-406.296	-115.301	0.282	-0.054
-405.282	-33.373	-0.173	0.097
-404.267	-200.000	0.008	0.365
-403.252	-200.000	-0.006	0.149
-402.238	272.791	-0.100	0.178
-401.223	800.000	-0.057	-0.248
-400.209	800.000	-0.027	0.088
-399.194	-200.000	-0.059	0.545
-398.179	800.000	0.089	0.304
-397.165	-139.046	-0.280	0.031
-396.150	-87.574	0.320	0.097
-395.136	618.481	0.152	0.386
-394.121	24.312	0.388	0.323
-393.106	-200.000	0.012	0.166
-392.092	232.191	0.129	-0.214
-391.077	313.365	0.150	-0.284
-390.063	71.616	0.141	-0.148
-389.048	1.221	0.123	-0.089
-388.033	-66.429	-0.263	-0.105
-387.019	182.012	0.050	0.074
-386.004	-28.175	-0.273	0.159
-384.990	-52.977	0.125	-0.058
-383.975	-71.707	0.053	-0.020
-382.960	-59.688	-0.388	-0.168
-381.946	34.602	-0.243	-0.214
-380.931	-5.157	0.151	0.104
-379.917	-200.000	0.022	-0.109
-378.902	-58.904	-0.250	0.109
-377.888	-200.000	-0.017	-0.105
-376.873	-173.904	-0.111	0.003
-375.858	-53.310	-0.131	0.061
-374.844	800.000	0.031	0.121
-373.829	800.000	-0.035	-0.154
-372.815	-200.000	-0.021	0.211
-371.800	-200.000	0.058	-0.371
-370.785	-200.000	-0.006	0.210
-369.771	-132.411	-0.383	-0.050
-368.756	-200.000	0.009	-0.482
-367.742	143.179	0.220	-0.295
-366.727	671.081	0.116	-0.302
-365.712	800.000	-0.076	-0.215
-364.698	288.672	-0.189	0.344
-363.683	-181.832	-0.364	-0.007
-362.669	-200.000	-0.022	-0.129
-361.654	116.200	0.176	-0.217
-360.639	800.000	-0.066	0.242
-359.625	21.892	0.098	-0.080
-358.610	-155.706	0.245	-0.016
-357.596	721.841	-0.072	0.194
-356.581	4.718	-0.076	-0.056
-355.566	-82.990	0.066	0.021
-354.552	-200.000	0.019	0.087
-353.537	-43.750	0.065	-0.033
-352.523	-11.408	0.190	-0.126
-351.508	-200.000	-0.041	0.236
-350.493	27.488	-0.215	-0.182
-349.479	-200.000	0.008	0.062
-348.464	570.788	0.050	-0.122
-347.450	-200.000	0.003	-0.175
-346.435	-31.122	-0.148	-0.084
-345.420	97.572	-0.122	-0.141
-344.406	-55.209	-0.095	0.043
-343.391	-157.981	-0.206	-0.012
-342.377	26.877	0.036	-0.030
-341.362	88.685	-0.172	-0.192
-340.348	-75.028	0.056	0.020
-339.333	-170.759	0.245	-0.008
-338.318	-42.351	0.165	0.085
-337.304	786.568	0.059	-0.163
-336.289	185.503	0.214	0.320
-335.275	4.279	-0.292	0.215
-334.260	-200.000	-0.006	0.117
-333.245	-101.115	0.135	-0.033
-332.231	800.000	0.088	0.278
-331.216	259.292	0.074	0.128
-330.202	26.264	0.071	0.060
-329.187	312.290	0.048	-0.091
-328.172	-75.220	-0.111	-0.040
-327.158	-12.082	-0.086	0.057
-326.143	158.020	-0.235	0.328
-325.129	800.000	0.009	-0.026
-324.114	184.796	-0.045	-0.067
-323.099	147.587	0.202	0.274
-322.085	-113.674	0.078	0.015
-321.070	-122.383	-0.068	-0.011
-320.056	-27.442	-0.284	-0.166
-319.041	-53.547	-0.193	-0.089
-318.026	800.000	-0.021	-0.059
-317.012	800.000	0.131	-0.421
-315.997	80.047	0.121	-0.131
-314.983	-74.254	-0.013	0.005
-313.968	-104.517	-0.039	-0.009
-312.953	32.274	-0.022	-0.019
-311.939	505.180	-0.149	-0.346
-310.924	-200.000	-0.012	0.508
-309.910	-185.450	0.374	-0.006
-308.895	-10.480	-0.167	0.111
-307.880	800.000	-0.053	-0.207
-306.866	-200.000	0.014	-0.088
-305.851	-10.451	-0.208	0.138
-304.837	58.828	0.142	-0.140
-303.822	-149.592	0.157	-0.012
-302.807	692.542	-0.059	0.155
-301.793	135.499	0.148	0.193
-300.778	-200.000	-0.040	0.237
-299.764	-16.198	0.325	0.207
-298.749	308.462	0.034	0.064
-297.735	18.763	0.239	0.192
-296.720	-84.782	-0.131	-0.041
-295.705	800.000	0.072	0.221
-294.691	-200.000	0.008	-0.171
-293.676	-200.000	-0.016	-0.355
-292.662	-84.352	-0.377	-0.120
-291.647	-91.275	-0.112	-0.032
-290.632	-65.935	0.133	0.053
-289.618	-200.000	0.068	0.439
-288.603	173.454	-0.116	0.168
-287.589	800.000	0.044	0.142
-286.574	-200.000	0.026	-0.163
-285.559	175.844	-0.172	0.250
-284.545	800.000	0.065	-0.198
-283.530	-108.295	-0.145	0.032
-282.516	-200.000	0.000	-0.133
-281.501	-23.224	0.177	0.107
-280.486	129.009	0.068	-0.087
-279.472	800.000	-0.014	0.049
-278.457	-200.000	0.006	-0.059
-277.443	-103.894	-0.086	0.020
-276.428	-14.384	-0.061	0.039
-275.413	-121.102	-0.222	-0.037
-274.399	208.862	0.142	0.223
-273.384	-146.481	0.169	-0.015
-272.370	167.594	0.319	0.454
-271.355	19.681	0.341	-0.275
-270.340	-116.122	-0.105	-0.020
-269.326	377.657	-0.085	-0.174
-268.311	-200.000	0.046	-0.292
-267.297	186.412	-0.082	-0.122
-266.282	-38.286	-0.250	0.133
-265.267	-68.855	-0.250	-0.097
-264.253	-97.667	-0.236	0.061
-263.238	166.406	0.135	-0.191
-262.224	-83.849	0.315	0.101
-261.209	54.053	-0.086	-0.083
-260.195	-200.000	0.002	0.014
-259.180	-12.241	-0.129	0.084
-258.165	475.289	-0.038	-0.086
-257.151	373.886	0.045	-0.091
-256.136	-2.812	0.169	0.118
-255.122	136.321	-0.151	0.198
-254.107	-200.000	-0.001	0.046
-253.092	-200.000	0.025	0.119
-252.078	-200.000	0.023	0.138
-251.063	71.087	0.159	-0.165
-250.049	662.970	0.120	0.309
-249.034	8.546	0.119	-0.090
-248.019	79.433	-0.156	0.168
-247.005	-77.987	0.237	0.082
-245.990	39.873	-0.215	0.194
-244.976	-85.471	0.296	-0.092
-243.961	196.837	-0.205	0.314
-242.946	-200.000	0.000	-0.007
-241.932	-57.365	0.064	0.028
-240.917	-200.000	0.109	0.479
-239.903	-84.327	0.070	0.022
-238.888	39.492	-0.199	0.179
-237.873	12.557	-0.237	-0.183
-236.859	-33.162	-0.231	-0.128
-235.844	2.688	0.031	0.022
-234.830	117.694	-0.193	0.238
-233.815	76.190	-0.193	0.205
-232.800	24.399	-0.169	-0.140
-231.786	-98.108	0.205	0.053
-230.771	-1.583	0.145	0.102
-229.757	-200.000	0.015	-0.122
-228.742	209.429	-0.129	-0.203
-227.727	-87.070	0.181	-0.055
-226.713	129.685	-0.098	-0.125
-225.698	-5.018	0.078	0.054
-224.684	52.103	0.169	-0.162
-223.669	800.000	0.062	0.230
-222.655	-134.289	0.308	-0.038
-221.640	-32.012	-0.276	0.155
-220.625	-200.000	0.029	0.133
-219.611	-118.288	0.222	0.040
-218.596	-44.335	-0.185	-0.093
-217.582	2.280	0.191	0.138
-216.567	-109.124	-0.060	0.013
-215.552	-200.000	-0.006	-0.258
-214.538	249.329	-0.071	-0.120
-213.523	800.000	0.091	-0.288
-212.509	-200.000	-0.034	0.313
-211.494	-127.244	-0.237	0.035
-210.479	80.593	0.141	0.152
-209.465	389.195	-0.168	0.349
-208.450	-35.721	0.265	-0.144
-207.436	681.005	0.139	-0.362
-206.421	205.795	-0.051	-0.079
-205.406	-200.000	0.007	0.063
-204.392	30.394	-0.369	-0.316
-203.377	-89.905	-0.090	0.026
-202.363	-143.986	0.225	-0.021
-201.348	39.820	0.134	-0.120
-200.333	20.594	-0.088	0.071
-199.319	800.000	-0.012	0.044
-198.304	194.769	-0.175	0.266
-197.290	524.189	-0.097	0.228
-196.275	495.546	-0.100	0.230
-195.260	-200.000	-0.016	0.424
-194.246	-200.000	-0.069	0.394
-193.231	-107.833	-0.376	0.082
-192.217	520.259	0.086	0.201
-191.202	800.000	-0.095	0.325
-190.187	-200.000	-0.042	-0.219
-189.173	-48.147	0.181	0.088
-188.158	366.728	-0.175	-0.352
-187.144	82.773	0.331	-0.360
-186.129	215.509	0.184	-0.292
-185.114	11.040	0.264	0.202
-184.100	-200.000	-0.021	0.113
-183.085	2.109	0.263	0.190
-182.071	-97.468	-0.074	0.019
-181.056	800.000	0.074	0.212
-180.042	-200.000	0.032	-0.209
-179.027	84.076	-0.155	-0.170
-178.012	-166.083	0.329	0.014
-176.998	-13.408	-0.149	0.097
-175.983	-200.000	0.034	-0.320
-174.969	7.928	-0.254	-0.190
-173.954	-75.987	0.096	-0.034
-172.939	-78.642	-0.095	-0.032
-171.925	-200.000	0.027	0.396
-170.910	403.371	0.106	0.222
-169.896	247.477	-0.029	-0.048
-168.881	193.108	0.028	0.042
-167.866	-200.000	-0.019	0.124
-166.852	-108.926	0.293	0.063
-165.837	-162.091	0.332	0.017
-164.823	170.521	0.100	-0.143
-163.808	-200.000	-0.044	0.269
-162.793	547.071	0.113	-0.270
-161.779	-200.000	0.015	-0.133
-160.764	800.000	-0.135	0.420
-159.750	91.702	-0.073	0.082
-158.735	800.000	0.028	0.102
-157.720	54.366	0.115	0.110
-156.706	306.910	-0.152	-0.282
-155.691	97.403	0.047	-0.054
-154.677	-200.000	0.008	0.097
-153.662	-200.000	-0.003	-0.196
-152.647	-61.599	-0.137	0.057
-151.633	-39.408	0.090	-0.047
-150.618	-16.019	0.187	0.119
-149.604	-5.804	-0.281	0.192
-148.589	98.670	0.182	-0.209
-147.574	-101.406	0.089	-0.022
-146.560	-65.272	0.339	-0.136
-145.545	-200.000	0.006	-0.073
-144.531	-77.606	0.302	0.104
-143.516	-171.804	0.026	-0.001
-142.502	-200.000	0.008	0.052
-141.487	-36.947	-0.218	0.117
-140.472	-200.000	0.035	0.156
-139.458	145.654	0.253	0.338
-138.443	-45.798	-0.350	-0.172
-137.429	-80.418	-0.085	-0.028
-136.414	-200.000	0.031	0.355
-135.399	299.372	-0.100	0.184
-134.385	-132.259	-0.190	-0.025
-133.370	0.594	0.218	0.156
-132.356	-32.610	-0.254	-0.141
-131.341	611.105	0.195	-0.488
-130.326	-96.484	0.190	-0.050
-129.312	85.260	0.170	0.186
-128.297	-120.738	-0.282	-0.048
-127.283	-126.618	-0.185	0.027
-126.268	800.000	-0.032	0.119
-125.253	-41.611	-0.059	-0.030
-124.239	5.763	0.141	0.104
-123.224	-129.571	0.238	0.033
-122.210	-131.544	-0.097	-0.013
-121.195	-176.220	0.106	-0.003
-120.180	-57.957	0.202	0.088
-119.166	-72.837	-0.337	0.124
-118.151	46.150	0.373	0.344
-117.137	-100.825	0.453	-0.111
-116.122	-200.000	0.027	-0.153
-115.107	56.107	-0.161	-0.156
-114.093	25.919	0.188	0.156
-113.078	200.579	0.083	0.127
-112.064	302.660	-0.186	0.344
-111.049	-200.000	0.067	-0.297
-110.034	-200.000	-0.000	-0.061
-109.020	-75.503	0.222	0.079
-108.005	-31.580	-0.227	-0.127
-106.991	31.399	-0.181	-0.155
-105.976	-63.261	0.159	-0.065
-104.962	-200.000	0.006	0.292
-103.947	-200.000	-0.017	0.156
-102.932	385.694	0.095	-0.196
-101.918	-200.000	0.004	-0.123
-100.903	-114.004	-0.087	-0.017
-99.889	114.111	0.141	-0.171
-98.874	247.722	-0.116	0.195
-97.859	800.000	-0.051	-0.173
-96.845	254.273	0.056	-0.096
-95.830	-87.207	0.124	-0.038
-94.816	-175.039	0.055	0.002
-93.801	-200.000	0.047	-0.429
-92.786	-56.843	-0.138	0.061
-91.772	-0.327	-0.199	0.141
-90.757	-159.023	0.451	-0.025
-89.743	102.814	-0.045	0.052
-88.728	193.990	0.337	0.509
-87.713	800.000	0.053	0.205
-86.699	179.243	-0.090	-0.131
-85.684	238.587	-0.156	-0.257
-84.670	18.848	-0.117	0.093
-83.655	-17.804	0.306	0.191
-82.640	4.991	-0.322	0.236
-81.626	120.137	-0.147	0.182
-80.611	-200.000	-0.018	-0.240
-79.597	-34.708	-0.206	0.112
-78.582	-37.417	-0.170	0.090
-77.567	181.580	-0.115	0.168
-76.553	322.754	-0.122	0.231
-75.538	209.224	-0.054	0.084
-74.524	-200.000	0.003	-0.107
-73.509	614.629	-0.045	0.113
-72.494	93.221	0.166	-0.187
-71.480	119.322	-0.074	0.091
-70.465	-156.924	-0.139	0.009
-69.451	232.113	-0.183	0.300
-68.436	-87.429	0.275	-0.083
-67.422	800.000	-0.070	-0.204
-66.407	-31.580	-0.140	0.078
-65.392	-200.000	0.002	-0.138
-64.378	13.040	-0.063	0.049
-63.363	47.539	0.099	-0.092
-62.349	-24.231	-0.181	-0.107
-61.334	59.661	-0.981	-0.963
-60.319	800.000	0.100	0.431
-59.305	-200.000	0.079	-0.848
-58.290	208.231	0.531	0.826
-57.276	558.341	0.614	1.473
-56.261	-200.000	83.940	496.100
-55.246	455.497	1390.816	3068.593
-54.232	143.551	2611.465	3460.411
-53.217	110.065	2240.211	2674.997
-52.203	48.611	1683.916	1570.114
-51.188	41.166	1414.061	1271.150
-50.173	37.925	1370.002	1211.403
-49.159	56.567	1410.020	1364.414
-48.144	61.348	1428.804	1412.595
-47.130	41.719	1389.135	1252.009
-46.115	37.940	1371.508	1212.638
-45.100	37.844	1367.200	1208.188
-44.086	37.735	1364.539	1205.115
-43.071	37.747	1362.207	1203.079
-42.057	37.709	1359.956	1200.810
-41.042	37.761	1358.177	1199.510
-40.027	37.859	1356.474	1198.564
-39.013	37.705	1354.956	1196.229
-37.998	37.792	1352.969	1194.961
-36.984	37.830	1351.296	1193.665
-35.969	37.882	1349.719	1192.541
-34.954	37.977	1347.621	1191.223
-33.940	37.981	1345.852	1189.638
-32.925	37.957	1344.663	1188.390
-31.911	37.968	1343.484	1187.370
-30.896	38.037	1341.757	1186.215
-29.881	37.961	1340.731	1184.799
-28.867	37.980	1339.116	1183.442
-27.852	38.018	1337.317	1182.036
-26.838	37.928	1336.463	1180.690
-25.823	37.991	1334.889	1179.635
-24.809	37.910	1333.442	1177.817
-23.794	37.945	1332.123	1176.816
-22.779	37.991	1330.708	1175.798
-21.765	38.059	1328.950	1174.605
-20.750	37.977	1327.833	1173.080
-19.736	37.774	1326.805	1170.905
-18.721	37.765	1325.576	1169.717
-17.706	37.722	1324.546	1168.505
-16.692	37.769	1323.143	1167.506
-15.677	37.836	1321.635	1166.528
-14.663	37.748	1320.862	1165.275
-13.648	37.696	1319.781	1163.964
-12.633	37.795	1318.134	1163.055
-11.619	37.818	1317.764	1162.821
-10.604	37.723	1317.309	1161.804
-9.590	37.691	1316.100	1160.500
-8.575	37.787	1314.616	1159.718
-7.560	37.740	1314.335	1159.143
-6.546	37.878	1312.537	1158.331
-5.531	37.830	1312.103	1157.621
-4.517	37.769	1311.230	1156.441
-3.502	37.854	1310.360	1156.129
-2.487	37.822	1309.425	1155.075
-1.473	37.831	1305.675	1151.772
-0.458	37.214	1290.919	1135.102
0.556	34.064	1272.601	1097.304
1.571	30.465	1276.488	1079.685
2.586	29.464	1291.350	1086.269
3.600	27.883	1279.167	1066.701
4.615	19.800	1199.804	955.951
5.629	7.656	1115.726	826.096
6.644	2.432	1091.983	781.808
7.659	1.808	1089.405	776.717
8.673	1.736	1087.616	775.003
9.688	1.677	1086.200	773.627
10.702	1.954	1084.983	774.095
11.717	8.883	1095.269	816.772
12.731	19.776	1111.684	884.988
13.746	24.840	1117.223	915.295
14.761	25.169	1117.907	917.457
15.775	25.230	1116.883	916.845
16.790	25.039	1116.362	915.360
17.804	24.980	1115.617	914.369
18.819	25.000	1115.342	914.165
19.834	25.204	1114.678	914.579
20.848	25.279	1114.395	914.648
21.863	25.332	1113.360	913.989
22.877	25.092	1113.102	912.472
23.892	25.242	1112.265	912.469
24.907	25.157	1111.642	911.447
25.921	25.150	1110.483	910.381
26.936	25.092	1108.988	908.779
27.950	25.055	1107.510	907.302
28.965	24.874	1105.907	904.990
29.980	24.951	1104.238	903.938
30.994	25.220	1103.462	904.576
32.009	25.141	1102.305	903.151
33.023	24.954	1101.227	901.247
34.038	25.061	1100.156	900.826
35.053	25.226	1099.590	901.112
36.067	25.108	1098.688	899.702
37.082	25.219	1098.006	899.623
38.096	25.458	1097.007	899.919
39.111	25.527	1096.266	899.578
40.126	25.284	1095.219	897.423
41.140	24.957	1093.380	894.207
42.155	24.742	1092.116	892.021
43.169	24.725	1090.916	890.875
44.184	24.699	1090.172	890.062
45.199	24.737	1089.024	889.235
46.213	24.871	1087.794	888.819
47.228	25.024	1087.031	888.875
48.242	25.101	1086.522	888.760
49.257	25.099	1085.808	888.087
50.271	25.258	1084.900	888.053
51.286	25.390	1084.021	887.908
52.301	25.269	1083.519	886.820
53.315	25.127	1082.477	885.188
54.330	25.136	1081.593	884.432
55.344	25.221	1080.811	884.133
56.359	25.028	1080.119	882.538
57.374	24.865	1079.032	880.769
58.388	24.894	1078.352	880.281
59.403	24.867	1077.567	879.425
60.417	24.723	1076.460	877.740
61.432	24.808	1075.371	877.191
62.447	24.815	1074.845	876.718
63.461	24.877	1074.503	876.667
64.476	24.890	1073.205	875.592
65.490	24.761	1072.150	874.026
66.505	24.834	1071.435	873.722
67.520	24.848	1071.160	873.489
68.534	24.580	1069.915	871.087
69.549	24.436	1068.507	869.165
70.563	24.338	1067.673	867.930
71.578	24.278	1067.649	867.544
72.593	24.175	1066.238	865.820
73.607	24.521	1065.237	866.609
74.622	24.740	1065.230	867.588
75.636	24.570	1064.635	866.202
76.651	24.563	1063.593	865.243
77.666	24.590	1062.609	864.499
78.680	24.674	1061.618	864.024
79.695	24.666	1061.633	863.917
80.709	24.767	1061.025	863.834
81.724	24.657	1059.952	862.354
82.739	24.703	1059.141	861.838
83.753	25.048	1058.778	863.131
84.768	25.496	1057.809	864.418
85.782	25.560	1057.007	863.996
86.797	25.381	1055.567	861.884
87.812	25.230	1055.184	860.768
88.826	25.227	1054.442	860.072
89.841	25.321	1053.047	859.311
90.855	25.498	1051.630	858.923
91.870	25.393	1050.831	857.695
92.884	25.288	1049.895	856.353
93.899	25.139	1049.332	855.109
94.914	25.455	1047.845	855.325
95.928	25.219	1047.086	853.508
96.943	25.017	1045.874	851.482
97.957	24.786	1044.517	849.206
98.972	24.743	1043.209	847.865
99.987	24.924	1042.954	848.438
101.001	25.120	1042.101	848.597
102.016	25.171	1040.900	847.786
103.030	25.009	1040.240	846.407
104.045	24.910	1039.206	845.025
105.060	24.670	1038.118	842.932
106.074	24.788	1037.683	843.063
107.089	25.141	1037.308	844.346
108.103	25.024	1036.103	842.739
109.118	24.859	1034.449	840.544
110.133	24.767	1033.297	839.102
111.147	24.598	1032.477	837.571
112.162	24.469	1031.475	836.081
113.176	24.868	1030.845	837.363
114.191	24.722	1030.353	836.206
115.206	24.465	1028.711	833.599
116.220	24.481	1028.111	833.116
117.235	24.583	1027.456	832.987
118.249	24.541	1026.636	832.050
119.264	24.457	1025.632	830.774
120.279	24.560	1025.040	830.697
121.293	24.570	1024.274	830.050
122.308	24.537	1023.284	829.024
123.322	24.505	1022.117	827.855
124.337	24.377	1020.930	826.227
125.352	23.824	1019.301	822.278
126.366	23.939	1018.207	821.852
127.381	24.680	1018.197	825.194
128.395	24.844	1018.548	826.164
129.410	25.073	1017.102	825.974
130.424	25.189	1015.960	825.507
131.439	25.061	1015.217	824.245
132.454	24.969	1014.615	823.258
133.468	25.051	1013.277	822.477
134.483	25.206	1012.369	822.375
135.497	25.276	1012.156	822.451
136.512	25.272	1011.315	821.677
137.527	25.438	1010.142	821.409
138.541	25.352	1009.453	820.382
139.556	25.346	1008.605	819.597
140.570	25.569	1007.687	819.795
141.585	25.381	1007.071	818.361
142.600	25.422	1005.691	817.354
143.614	25.588	1005.425	817.824
144.629	25.683	1004.027	817.046
145.643	25.578	1002.972	815.636
146.658	25.400	1001.232	813.342
147.673	25.218	1000.668	811.988
148.687	25.150	1000.068	811.123
149.702	25.002	999.000	809.517
150.716	25.182	997.678	809.184
151.731	25.140	997.604	808.865
152.746	25.482	996.514	809.451
153.760	25.449	996.090	808.885
154.775	25.601	994.933	808.561
155.789	25.346	994.590	807.063
156.804	25.419	993.331	806.297
157.819	25.438	992.792	805.871
158.833	25.540	992.192	805.772
159.848	25.566	991.028	804.872
160.862	25.479	989.862	803.466
161.877	25.540	988.837	802.837
162.892	25.530	987.677	801.777
163.906	25.364	986.825	800.276
164.921	25.436	985.563	799.500
165.935	25.331	985.200	798.666
166.950	25.543	983.978	798.547
167.964	25.366	983.095	796.975
168.979	25.232	981.860	795.312
169.994	25.184	981.015	794.343
171.008	25.430	980.828	795.212
172.023	25.525	979.924	794.828
173.037	25.263	978.614	792.536
174.052	25.243	977.504	791.482
175.067	25.177	977.230	790.898
176.081	25.276	976.735	790.865
177.096	25.225	975.800	789.810
178.110	24.978	974.710	787.774
179.125	24.675	974.283	786.027
180.140	24.849	973.620	786.188
181.154	24.999	973.373	786.577
182.169	25.148	973.509	787.270
183.183	25.427	972.861	787.901
184.198	25.447	971.938	787.172
185.213	25.385	971.121	786.169
186.227	25.463	970.711	786.109
187.242	25.542	969.645	785.520
188.256	25.463	969.349	784.868
189.271	25.591	968.310	784.515
190.286	25.262	966.780	781.770
191.300	24.531	965.644	777.600
192.315	23.850	963.591	772.920
193.329	23.666	963.418	771.914
194.344	24.578	964.310	776.528
195.359	25.236	963.881	778.969
196.373	25.298	963.662	778.991
197.388	25.245	963.003	778.162
198.402	25.351	961.977	777.724
199.417	25.325	961.456	777.119
200.432	25.104	960.180	775.066
201.446	24.920	959.911	773.984
202.461	24.978	959.193	773.586
203.475	24.021	957.450	767.986
204.490	23.376	955.894	763.888
205.504	24.136	956.603	767.663
206.519	24.900	956.443	770.758
207.534	24.981	955.543	770.313
208.548	25.493	955.114	772.099
209.563	25.110	954.163	769.621
210.577	25.146	953.595	769.250
211.592	25.531	954.005	771.162
212.607	25.564	952.574	770.081
213.621	25.540	951.947	769.403
214.636	25.541	951.362	768.865
215.650	25.492	950.701	768.051
216.665	25.497	950.537	767.873
217.680	25.537	949.520	767.157
218.694	25.131	948.033	764.158
219.709	25.032	947.517	763.252
220.723	25.201	947.337	763.759
221.738	25.329	946.338	763.429
222.753	25.392	945.789	763.186
223.767	25.479	945.519	763.270
224.782	25.677	945.251	763.829
225.796	25.644	944.731	763.198
226.811	24.939	943.045	758.785
227.826	24.308	941.540	754.836
228.840	24.446	940.930	754.863
229.855	24.582	940.401	754.945
230.869	24.225	939.073	752.306
231.884	24.595	939.664	754.279
232.899	25.420	939.540	757.592
233.913	25.188	938.853	755.992
234.928	25.226	937.766	755.208
235.942	25.259	937.502	755.068
236.957	24.813	936.703	752.485
237.972	24.903	935.956	752.194
238.986	24.970	935.567	752.096
240.001	25.080	934.769	751.850
241.015	25.122	934.212	751.514
242.030	25.420	933.368	752.016
243.045	25.357	932.981	751.371
244.059	25.518	932.640	751.707
245.074	25.391	931.558	750.235
246.088	25.207	930.436	748.500
247.103	25.343	930.318	748.904
248.117	25.729	930.988	750.986
249.132	26.099	930.167	751.799
250.147	26.129	929.706	751.488
251.161	26.225	929.121	751.347
252.176	26.241	928.769	751.064
253.190	26.360	928.285	751.098
254.205	26.463	928.031	751.253
255.220	26.393	926.959	750.030
256.234	26.345	926.291	749.225
257.249	26.136	925.677	747.795
258.263	26.177	924.722	747.128
259.278	26.138	924.441	746.672
260.293	26.312	923.484	746.552
261.307	26.150	923.099	745.506
262.322	26.052	921.928	744.093
263.336	25.135	920.132	738.798
264.351	24.320	918.104	733.752
265.366	24.288	918.289	733.706
266.380	25.437	918.619	738.630
267.395	25.882	918.227	740.078
268.409	25.700	917.613	738.770
269.424	26.021	917.311	739.779
270.439	26.083	916.363	739.201
271.453	26.080	915.785	738.658
272.468	26.180	915.608	738.859
273.482	26.308	915.352	739.112
274.497	25.809	913.961	735.884
275.512	25.472	912.973	733.650
276.526	25.937	913.013	735.514
277.541	26.154	912.503	735.920
278.555	25.851	912.011	734.226
279.570	25.740	910.950	732.854
280.585	25.933	909.988	732.803
281.599	25.860	909.480	732.032
282.614	25.360	907.854	728.627
283.628	25.376	907.197	728.101
284.643	25.805	906.898	729.538
285.657	25.206	906.186	726.472
286.672	25.031	905.138	724.862
287.687	25.582	905.358	727.204
288.701	25.719	904.633	727.109
289.716	25.299	903.805	724.682
290.730	25.266	903.081	723.906
291.745	24.998	902.254	722.100
292.760	25.193	902.336	722.888
293.774	26.284	902.397	727.266
294.789	26.658	902.066	728.440
295.803	26.644	901.456	727.824
296.818	26.737	900.563	727.412
297.833	26.171	899.839	724.492
298.847	25.958	899.110	722.988
299.862	26.473	898.846	724.774
300.876	26.515	898.699	724.762
301.891	26.419	897.925	723.688
302.906	26.028	896.811	721.163
303.920	26.168	896.772	721.629
304.935	26.714	896.086	723.193
305.949	26.398	895.849	721.678
306.964	26.246	894.768	720.137
307.979	26.343	894.159	719.966
308.993	26.720	893.853	721.158
310.008	26.674	893.252	720.428
311.022	26.420	892.577	718.809
312.037	26.325	891.815	717.756
313.052	26.063	890.858	715.884
314.066	25.192	889.335	711.144
315.081	24.788	888.796	709.048
316.095	25.756	888.939	712.936
317.110	26.013	889.023	713.957
318.125	25.412	887.287	710.126
319.139	24.388	885.742	704.783
320.154	24.235	885.479	703.906
321.168	25.105	886.163	707.823
322.183	25.868	885.876	710.541
323.197	26.107	885.404	711.043
324.212	26.330	885.338	711.805
325.227	26.222	884.740	710.835
326.241	26.102	883.959	709.673
327.256	26.153	883.134	709.151
328.270	26.039	882.561	708.180
329.285	25.649	881.970	706.112
330.300	25.555	881.016	704.918
331.314	25.855	880.610	705.704
332.329	26.286	880.276	707.061
333.343	26.465	880.172	707.618
334.358	26.272	879.472	706.237
335.373	26.421	879.329	706.641
336.387	26.664	879.315	707.516
337.402	26.871	879.341	708.282
338.416	26.769	878.841	707.419
339.431	26.859	878.409	707.359
340.446	27.136	877.640	707.756
341.460	26.923	877.335	706.619
342.475	26.706	876.801	705.283
343.489	26.803	876.872	705.655
344.504	27.195	876.088	706.485
345.519	27.315	875.788	706.647
346.533	27.378	875.065	706.246
347.548	27.252	874.673	705.378
348.562	27.112	874.372	704.530
349.577	27.135	873.489	703.843
350.592	26.975	872.922	702.707
351.606	27.023	872.141	702.201
352.621	27.104	870.892	701.448
353.635	26.995	870.391	700.559
354.650	26.241	868.649	696.190
355.665	25.413	867.292	691.854
356.679	25.687	867.313	692.865
357.694	26.265	866.685	694.525
358.708	26.045	866.204	693.234
359.723	26.625	865.881	695.139
360.738	26.920	865.551	695.946
361.752	26.868	865.093	695.316
362.767	27.161	865.205	696.467
363.781	27.544	864.334	697.172
364.796	27.499	864.332	696.937
365.810	27.703	863.734	697.173
366.825	27.722	863.267	696.805
367.840	27.370	862.330	694.644
368.854	26.896	861.743	692.301
369.869	26.987	861.093	692.064
370.883	26.987	860.518	691.542
371.898	26.868	860.236	690.801
372.913	27.000	859.811	690.902
373.927	27.045	859.363	690.649
374.942	27.265	859.054	691.175
375.956	27.193	858.917	690.733
376.971	27.426	858.406	691.146
377.986	27.542	858.091	691.269
379.000	27.496	857.130	690.260
380.015	27.387	856.695	689.437
381.029	27.359	856.275	688.929
382.044	27.576	855.790	689.299
383.059	27.561	854.821	688.402
384.073	27.620	854.302	688.148
385.088	27.519	853.480	687.044
386.102	27.326	853.009	685.875
387.117	27.147	852.274	684.549
388.132	26.838	851.093	682.376
389.146	26.426	850.124	679.992
390.161	26.819	850.068	681.364
391.175	27.404	849.635	683.154
392.190	26.914	848.625	680.442
393.205	25.692	846.565	674.157
394.219	24.004	844.735	666.327
395.234	24.020	844.437	666.093
396.248	25.586	846.340	673.401
397.263	27.193	846.628	679.586
398.278	26.974	846.407	678.527
399.292	26.827	845.430	677.137
400.307	26.948	845.135	677.290
401.321	26.935	844.757	676.880
402.336	27.294	844.775	678.176
403.350	27.618	844.817	679.355
404.365	27.819	844.802	680.033
405.380	28.172	844.339	680.913
406.394	28.301	843.635	680.763
407.409	28.158	843.056	679.708
408.423	28.032	842.919	679.068
409.438	28.315	842.519	679.736
410.453	28.382	842.021	679.523
411.467	28.291	841.368	678.598
412.482	28.243	840.764	677.871
413.496	28.278	840.332	677.593
414.511	28.301	840.193	677.505
415.526	28.179	839.667	676.570
416.540	28.070	839.050	675.611
417.555	27.790	838.469	674.049
418.569	27.983	838.084	674.395
419.584	27.834	837.305	673.159
420.599	27.773	836.553	672.269
421.613	100.250	1276.262	1412.392
422.628	87.022	1340.347	1412.530
