DTS Sentinel unit serial number:	SN413079Multiplexer serial number:	ORYXHardware model number:	OX4-SRSoftware version number:	ORYX F/W v4.00 Oryx Data Collector v3.7.2.0data status	okinstallation	princeton_trtdifferential loss correction	single-endedforward channel	channel 1reverse channel	N/Adate	2019/09/16time	03:42:35forward acquisition time	60.00reverse acquisition time	0.00gamma	496.2192k internal	0.2331k external	0.2331temperature offset calibration	0.9980default loss term (dB/km)	0.3790temperature slope calibration	1.0000multiplexer offset coefficient	1.0000multiplexer slope coefficient	1.0000fibre end	0.00T internal ref (°C)	27.56T ext. ref 1 (°C)	10.62T ext. ref 2 (°C)	21.71length (m)	temperature (°C)	Stokes	anti-Stokes-747.200	800.000	0.108	0.333
-746.185	131.967	-0.093	0.120
-745.171	-99.830	0.385	0.097
-744.156	229.531	-0.124	0.204
-743.142	-61.860	-0.218	-0.092
-742.127	384.259	0.015	0.031
-741.112	800.000	-0.075	-0.328
-740.098	597.030	0.018	0.045
-739.083	-36.409	0.145	0.079
-738.069	-126.194	0.197	-0.030
-737.054	542.015	0.068	-0.164
-736.039	8.746	-0.355	-0.269
-735.025	-157.673	0.172	-0.010
-734.010	800.000	-0.023	-0.103
-732.996	-64.792	0.041	-0.017
-731.981	-150.875	-0.149	-0.011
-730.966	-200.000	-0.157	0.000
-729.952	-200.000	0.003	-0.165
-728.937	-63.031	-0.151	0.063
-727.923	206.645	-0.195	-0.306
-726.908	45.313	-0.187	-0.174
-725.894	-77.558	-0.125	0.044
-724.879	-200.000	-0.009	-0.140
-723.864	203.006	-0.099	0.154
-722.850	-200.000	0.002	0.216
-721.835	128.879	-0.141	-0.180
-720.821	40.889	0.140	-0.127
-719.806	-104.769	-0.193	-0.045
-718.791	311.924	0.045	0.084
-717.777	-200.000	-0.008	-0.181
-716.762	77.202	-0.123	0.132
-715.748	800.000	0.065	0.206
-714.733	-200.000	-0.013	-0.138
-713.718	-66.719	-0.214	-0.085
-712.704	-135.617	0.294	-0.035
-711.689	-27.682	-0.176	0.103
-710.675	24.707	-0.138	-0.115
-709.660	399.968	0.031	0.065
-708.645	-63.874	-0.365	0.150
-707.631	101.741	-0.060	-0.070
-706.616	206.288	-0.068	-0.107
-705.602	290.217	0.035	0.063
-704.587	-200.000	0.023	-0.257
-703.572	-141.454	-0.274	-0.028
-702.558	-3.654	-0.166	0.116
-701.543	44.262	-0.115	-0.106
-700.529	281.844	-0.081	-0.146
-699.514	-152.969	-0.307	0.022
-698.499	-84.772	-0.143	0.045
-697.485	-200.000	-0.028	0.390
-696.470	-10.174	-0.109	-0.073
-695.456	-200.000	-0.012	0.400
-694.441	-127.880	-0.207	0.030
-693.426	102.412	0.103	0.120
-692.412	-171.701	0.434	0.014
-691.397	-120.238	-0.390	0.067
-690.383	-138.195	-0.265	0.029
-689.368	-102.474	0.139	0.034
-688.354	-69.195	-0.228	0.088
-687.339	-171.075	0.281	0.010
-686.324	-43.016	0.159	0.081
-685.310	800.000	-0.051	-0.207
-684.295	-35.267	0.149	-0.081
-683.281	-114.130	-0.285	-0.055
-682.266	800.000	-0.066	-0.254
-681.251	56.853	-0.146	-0.142
-680.237	149.981	0.100	-0.136
-679.222	-200.000	-0.038	0.315
-678.208	-113.894	-0.118	-0.023
-677.193	-88.248	-0.233	-0.070
-676.178	-145.122	-0.499	-0.046
-675.164	-46.489	0.184	-0.091
-674.149	42.018	0.251	0.229
-673.135	-200.000	-0.063	-0.284
-672.120	-200.000	0.045	-0.431
-671.105	-19.482	0.164	0.102
-670.091	-88.456	-0.048	-0.014
-669.076	-200.000	-0.002	0.066
-668.062	-127.281	0.137	0.020
-667.047	6.827	-0.321	0.240
-666.032	-200.000	-0.013	0.205
-665.018	-200.000	0.005	0.086
-664.003	-200.000	-0.056	-0.259
-662.989	-162.360	0.106	0.005
-661.974	800.000	0.032	-0.140
-660.959	-96.113	0.351	-0.094
-659.945	-124.892	-0.443	-0.069
-658.930	268.829	0.057	-0.101
-657.916	6.385	0.332	0.247
-656.901	600.826	0.023	-0.058
-655.886	58.702	0.298	-0.293
-654.872	485.377	0.084	-0.191
-653.857	-66.114	-0.175	-0.070
-652.843	225.914	0.070	-0.114
-651.828	-200.000	-0.045	-0.208
-650.814	800.000	-0.077	0.223
-649.799	800.000	0.097	0.344
-648.784	-96.427	-0.421	0.112
-647.770	-82.376	0.347	-0.113
-646.755	-16.962	0.037	0.023
-645.741	800.000	-0.053	-0.234
-644.726	538.923	0.055	0.130
-643.711	-92.150	0.128	-0.036
-642.697	-53.225	0.356	-0.164
-641.682	191.037	-0.180	-0.271
-640.668	-60.022	0.158	-0.068
-639.653	-42.037	0.289	0.148
-638.638	-78.294	0.199	0.068
-637.624	-119.064	-0.174	0.031
-636.609	-200.000	0.004	0.103
-635.595	-5.939	0.122	-0.084
-634.580	24.198	-0.149	-0.123
-633.565	-200.000	0.023	-0.149
-632.551	8.563	0.048	0.036
-631.536	-32.831	-0.307	0.171
-630.522	-200.000	-0.010	0.091
-629.507	-106.508	-0.123	0.027
-628.492	-200.000	-0.037	0.459
-627.478	-200.000	0.019	-0.319
-626.463	-124.063	-0.138	0.022
-625.449	-48.084	0.112	0.054
-624.434	-122.786	-0.264	0.043
-623.419	-200.000	-0.011	-0.246
-622.405	-105.301	0.207	0.047
-621.390	165.957	-0.102	0.145
-620.376	-53.488	-0.215	-0.098
-619.361	33.579	-0.179	-0.156
-618.346	90.929	0.082	0.093
-617.332	800.000	0.114	-0.363
-616.317	38.180	0.220	-0.196
-615.303	33.809	-0.180	0.157
-614.288	166.879	-0.123	-0.174
-613.273	142.237	0.207	0.275
-612.259	85.344	0.234	0.257
-611.244	86.216	0.210	0.232
-610.230	217.190	-0.178	0.284
-609.215	204.130	-0.145	0.225
-608.201	-83.642	-0.337	-0.108
-607.186	-96.301	-0.321	0.085
-606.171	-83.073	0.225	-0.073
-605.157	800.000	0.043	0.131
-604.142	-94.699	0.404	-0.110
-603.128	54.697	-0.171	-0.166
-602.113	-12.376	0.055	-0.036
-601.098	119.100	0.416	0.515
-600.084	754.729	0.057	0.153
-599.069	-67.096	0.254	-0.100
-598.055	-114.943	0.287	-0.055
-597.040	127.381	0.119	-0.151
-596.025	-43.354	-0.420	0.213
-595.011	-200.000	0.014	-0.101
-593.996	-200.000	0.003	-0.096
-592.982	-62.987	-0.040	-0.016
-591.967	189.106	-0.099	-0.149
-590.952	800.000	-0.022	0.065
-589.938	800.000	-0.070	0.222
-588.923	7.362	0.152	-0.114
-587.909	34.423	0.133	0.116
-586.894	48.126	0.222	0.208
-585.879	3.212	0.089	0.065
-584.865	-155.034	0.087	-0.006
-583.850	-2.863	-0.301	-0.211
-582.836	485.833	-0.125	0.286
-581.821	21.729	0.298	0.243
-580.806	-10.624	-0.413	-0.273
-579.792	385.473	0.069	-0.142
-578.777	-200.000	0.038	0.311
-577.763	-5.448	0.078	0.054
-576.748	497.564	-0.059	0.135
-575.733	-85.248	0.032	0.010
-574.719	-83.116	0.207	-0.067
-573.704	-113.779	-0.245	-0.048
-572.690	-158.463	-0.409	0.024
-571.675	436.598	0.074	-0.161
-570.661	98.724	0.211	-0.243
-569.646	291.790	0.184	-0.335
-568.631	-145.931	0.296	-0.026
-567.617	800.000	-0.134	0.465
-566.602	800.000	0.027	-0.103
-565.588	-29.018	-0.179	-0.103
-564.573	-200.000	0.028	0.571
-563.558	5.134	0.315	-0.232
-562.544	-70.059	-0.257	-0.098
-561.529	121.909	0.113	-0.141
-560.515	231.650	0.191	-0.313
-559.500	-17.552	-0.201	0.126
-558.485	79.293	0.106	0.113
-557.471	-17.324	-0.207	-0.130
-556.456	800.000	0.064	-0.207
-555.442	-5.280	0.146	-0.100
-554.427	-41.095	-0.134	-0.069
-553.412	375.265	0.106	-0.216
-552.398	52.216	0.192	0.183
-551.383	169.733	0.167	0.238
-550.369	0.250	0.146	-0.104
-549.354	430.114	0.101	-0.219
-548.339	52.732	0.185	0.176
-547.325	800.000	0.087	-0.265
-546.310	-200.000	-0.016	-0.106
-545.296	413.144	0.022	-0.046
-544.281	800.000	-0.050	0.217
-543.266	187.428	0.220	-0.328
-542.252	44.315	0.331	0.303
-541.237	39.175	-0.242	0.216
-540.223	-12.599	-0.232	-0.151
-539.208	-200.000	-0.003	0.227
-538.193	-200.000	0.045	0.333
-537.179	10.666	-0.246	0.188
-536.164	-95.000	-0.130	0.035
-535.150	-33.155	0.221	-0.122
-534.135	274.610	-0.117	-0.207
-533.121	42.310	-0.012	-0.011
-532.106	800.000	-0.114	0.368
-531.091	135.839	0.092	0.120
-530.077	160.468	-0.112	-0.156
-529.062	-200.000	0.044	-0.272
-528.048	117.839	0.077	0.095
-527.033	-34.260	-0.268	-0.147
-526.018	-112.150	-0.058	0.012
-525.004	-84.317	-0.058	-0.018
-523.989	-59.533	0.142	-0.061
-522.975	144.416	-0.170	0.227
-521.960	81.832	0.145	-0.157
-520.945	204.660	-0.091	-0.140
-519.931	-140.852	-0.092	-0.009
-518.916	37.154	-0.178	0.157
-517.902	-19.267	0.104	-0.065
-516.887	24.204	0.163	-0.135
-515.872	102.181	0.154	-0.180
-514.858	-54.373	-0.201	-0.091
-513.843	57.416	0.232	0.227
-512.829	305.494	0.060	-0.111
-511.814	-200.000	0.010	-0.229
-510.799	-78.807	0.229	0.078
-509.785	-49.192	-0.071	-0.034
-508.770	-200.000	-0.003	-0.048
-507.756	-200.000	0.003	-0.183
-506.741	540.015	-0.075	0.178
-505.726	-87.582	0.138	-0.042
-504.712	-200.000	0.000	0.020
-503.697	800.000	-0.050	-0.142
-502.683	32.465	-0.093	-0.080
-501.668	202.909	0.087	-0.135
-500.653	-88.748	-0.079	-0.024
-499.639	-10.123	-0.069	0.045
-498.624	800.000	-0.113	-0.318
-497.610	-200.000	0.268	0.001
-496.595	-200.000	0.038	-0.342
-495.581	77.533	0.029	-0.030
-494.566	-103.171	0.089	-0.021
-493.551	-142.023	-0.421	-0.042
-492.537	-38.599	-0.140	-0.074
-491.522	-200.000	0.014	-0.236
-490.508	-67.194	-0.254	0.100
-489.493	341.727	0.118	0.231
-488.478	-154.613	0.108	-0.007
-487.464	164.925	-0.294	-0.413
-486.449	-49.296	0.228	-0.108
-485.435	-13.828	-0.177	-0.114
-484.420	-200.000	-0.051	-0.000
-483.405	143.558	0.133	0.176
-482.391	-75.710	0.420	0.149
-481.376	-59.719	0.203	0.087
-480.362	41.937	-0.087	0.079
-479.347	6.381	0.235	-0.174
-478.332	-68.622	0.104	-0.040
-477.318	800.000	0.068	-0.263
-476.303	-47.698	0.221	-0.107
-475.289	37.742	0.121	-0.107
-474.274	51.505	-0.054	0.051
-473.259	28.583	-0.049	0.041
-472.245	-200.000	0.015	-0.415
-471.230	107.808	0.112	-0.133
-470.216	-38.457	0.238	-0.125
-469.201	-180.311	0.204	-0.004
-468.186	-133.466	-0.180	0.023
-467.172	-31.799	-0.145	-0.081
-466.157	11.732	0.303	-0.232
-465.143	109.120	-0.191	-0.228
-464.128	800.000	0.072	-0.200
-463.113	-200.000	0.000	0.288
-462.099	-157.839	0.193	0.011
-461.084	128.681	-0.139	0.177
-460.070	-200.000	0.010	0.069
-459.055	-21.291	-0.246	0.150
-458.040	-107.095	0.254	0.056
-457.026	185.761	0.137	0.203
-456.011	-53.143	0.214	-0.098
-454.997	2.646	-0.376	0.271
-453.982	541.715	0.070	0.166
-452.968	-135.065	0.159	-0.019
-451.953	35.571	0.271	-0.237
-450.938	-200.000	0.065	0.355
-449.924	-186.484	-0.308	-0.004
-448.909	-34.908	0.291	0.158
-447.895	-122.381	0.124	-0.020
-446.880	800.000	-0.009	-0.029
-445.865	69.275	0.154	0.158
-444.851	-45.764	-0.225	-0.111
-443.836	-50.974	0.299	0.139
-442.822	-100.138	-0.174	-0.043
-441.807	-56.152	0.154	0.068
-440.792	145.109	-0.226	-0.300
-439.778	-59.592	-0.184	-0.078
-438.763	-200.000	-0.022	-0.186
-437.749	186.599	-0.187	-0.277
-436.734	56.144	-0.263	-0.254
-435.719	-164.840	0.168	-0.007
-434.705	65.460	0.199	0.201
-433.690	86.280	0.161	0.176
-432.676	800.000	0.030	-0.126
-431.661	-35.655	0.248	-0.133
-430.646	-18.835	0.158	0.098
-429.632	-183.021	0.340	-0.006
-428.617	175.412	0.172	-0.248
-427.603	-126.246	0.180	-0.027
-426.588	-161.232	0.099	0.005
-425.573	-24.272	-0.053	-0.032
-424.559	-146.310	0.148	0.013
-423.544	800.000	0.072	-0.291
-422.530	800.000	0.023	-0.080
-421.515	103.705	0.166	0.194
-420.500	119.618	-0.129	0.159
-419.486	-101.977	0.143	0.034
-418.471	-200.000	0.116	0.574
-417.457	-195.528	-0.071	-0.001
-416.442	176.422	-0.166	-0.239
-415.428	-16.682	-0.180	0.113
-414.413	-25.970	-0.201	0.118
-413.398	3.074	-0.135	-0.098
-412.384	19.316	-0.192	0.153
-411.369	385.769	0.104	0.214
-410.355	-200.000	0.012	-0.301
-409.340	315.953	-0.048	0.090
-408.325	-45.457	0.223	-0.110
-407.311	800.000	-0.078	0.267
-406.296	-200.000	-0.046	0.337
-405.282	800.000	-0.084	0.255
-404.267	-61.772	0.249	0.103
-403.252	-108.481	-0.116	0.025
-402.238	25.286	-0.218	-0.180
-401.223	-131.744	-0.254	0.033
-400.209	-11.144	-0.168	0.110
-399.194	-200.000	-0.003	0.049
-398.179	-6.248	-0.223	0.151
-397.165	-161.058	0.438	-0.023
-396.150	-24.760	0.172	0.102
-395.136	111.361	0.075	-0.090
-394.121	800.000	-0.080	0.262
-393.106	800.000	-0.041	-0.136
-392.092	-200.000	0.050	0.277
-391.077	-42.362	0.232	-0.117
-390.063	-93.851	0.269	-0.073
-389.048	-200.000	-0.026	0.370
-388.033	-200.000	0.018	-0.125
-387.019	398.469	-0.143	0.297
-386.004	73.262	0.088	-0.092
-384.990	-113.675	-0.076	0.015
-383.975	-84.090	-0.166	0.052
-382.960	361.872	-0.101	-0.200
-381.946	-89.154	-0.206	-0.060
-380.931	-120.649	0.173	0.029
-379.917	185.733	-0.117	0.172
-378.902	-200.000	0.015	0.219
-377.888	-130.643	-0.076	0.010
-376.873	-40.376	0.169	-0.087
-375.858	-200.000	0.015	-0.361
-374.844	800.000	0.013	0.038
-373.829	173.660	0.188	-0.269
-372.815	-200.000	0.016	-0.304
-371.800	395.798	0.002	-0.005
-370.785	-200.000	0.012	0.148
-369.771	-200.000	0.060	0.285
-368.756	800.000	-0.116	0.395
-367.742	17.583	0.205	0.162
-366.727	-63.200	-0.136	0.056
-365.712	68.248	-0.208	-0.212
-364.698	42.895	-0.231	-0.209
-363.683	-177.926	0.486	0.012
-362.669	-200.000	-0.027	0.218
-361.654	-119.243	0.299	0.052
-360.639	800.000	0.028	-0.088
-359.625	-200.000	-0.037	-0.246
-358.610	5.625	0.143	-0.105
-357.596	-200.000	-0.003	0.388
-356.581	533.818	-0.147	0.346
-355.566	52.510	0.145	0.138
-354.552	-142.295	0.187	0.018
-353.537	-200.000	0.048	0.259
-352.523	800.000	-0.124	0.420
-351.508	-145.632	-0.137	-0.012
-350.493	-120.720	0.089	0.015
-349.479	-149.250	0.130	0.010
-348.464	-200.000	-0.034	-0.387
-347.450	0.425	-0.095	0.067
-346.435	167.843	0.040	0.056
-345.420	200.395	-0.190	-0.289
-344.406	-200.000	0.004	0.291
-343.391	-103.379	0.191	0.045
-342.377	10.976	-0.317	-0.240
-341.362	197.546	0.044	0.067
-340.348	-200.000	0.044	0.222
-339.333	304.918	-0.088	0.162
-338.318	5.227	-0.121	0.089
-337.304	-24.692	0.290	0.171
-336.289	-200.000	-0.013	0.070
-335.275	346.993	-0.164	0.320
-334.260	-159.887	-0.122	0.007
-333.245	75.030	-0.232	-0.242
-332.231	738.832	0.107	-0.284
-331.216	73.123	-0.294	-0.305
-330.202	15.994	0.154	0.120
-329.187	-200.000	-0.005	-0.197
-328.172	800.000	-0.066	-0.272
-327.158	800.000	-0.078	-0.228
-326.143	-132.000	0.060	0.008
-325.129	0.432	0.369	0.261
-324.114	-117.518	-0.376	-0.067
-323.099	306.804	0.161	0.297
-322.085	77.590	-0.169	0.178
-321.070	9.591	-0.107	-0.081
-320.056	-68.895	-0.367	-0.140
-319.041	-200.000	-0.004	0.080
-318.026	-91.979	0.417	0.117
-317.012	73.732	0.027	-0.028
-315.997	508.580	-0.160	-0.369
-314.983	-33.205	-0.043	-0.023
-313.968	-200.000	0.021	-0.145
-312.953	102.458	0.248	-0.287
-311.939	-147.380	-0.311	-0.026
-310.924	-147.966	-0.107	0.009
-309.910	237.213	0.131	0.214
-308.895	102.798	0.183	0.211
-307.880	379.898	0.091	0.185
-306.866	-200.000	0.002	-0.150
-305.851	-116.224	0.276	0.051
-304.837	-200.000	0.011	0.178
-303.822	-37.652	0.224	-0.118
-302.807	210.699	0.072	0.112
-301.793	467.547	0.034	0.076
-300.778	89.752	0.131	-0.144
-299.764	76.221	-0.008	0.009
-298.749	-148.278	-0.074	-0.006
-297.735	209.918	-0.153	0.237
-296.720	143.304	-0.264	0.348
-295.705	51.365	-0.047	0.045
-294.691	115.124	-0.124	0.150
-293.676	-76.698	0.385	0.134
-292.662	-85.565	-0.271	0.083
-291.647	8.600	0.156	-0.116
-290.632	592.076	-0.066	-0.160
-289.618	-78.755	0.076	-0.026
-288.603	143.878	0.117	0.154
-287.589	-200.000	-0.099	-0.432
-286.574	-200.000	-0.039	-0.509
-285.559	-200.000	0.005	-0.166
-284.545	456.024	0.087	0.192
-283.530	-200.000	-0.021	0.143
-282.516	-137.366	0.152	-0.017
-281.501	-129.408	-0.174	0.024
-280.486	87.464	0.271	-0.297
-279.472	-114.605	0.095	-0.018
-278.457	-54.837	-0.051	0.023
-277.443	29.583	0.044	-0.037
-276.428	-135.559	-0.298	-0.035
-275.413	687.975	-0.114	0.296
-274.399	221.465	0.149	-0.236
-273.384	800.000	0.078	0.244
-272.370	-154.168	-0.363	-0.024
-271.355	-47.480	-0.120	-0.058
-270.340	55.951	-0.300	-0.288
-269.326	721.056	-0.102	-0.267
-268.311	647.513	0.047	0.119
-267.297	15.182	-0.222	-0.172
-266.282	-1.853	-0.338	-0.235
-265.267	528.411	-0.031	0.073
-264.253	83.204	-0.059	0.064
-263.238	698.110	-0.068	-0.176
-262.224	-200.000	0.006	-0.105
-261.209	800.000	0.048	0.137
-260.195	-66.794	-0.133	0.052
-259.180	60.062	0.029	-0.028
-258.165	800.000	0.035	-0.131
-257.151	-200.000	-0.031	0.293
-256.136	-125.849	0.252	-0.038
-255.122	-200.000	-0.013	0.194
-254.107	-10.275	-0.100	0.065
-253.092	-200.000	-0.018	0.304
-252.078	2.985	-0.147	0.105
-251.063	-200.000	-0.011	0.344
-250.049	-53.377	0.086	0.039
-249.034	-200.000	-0.000	-0.364
-248.019	77.196	-0.067	0.070
-247.005	307.408	-0.109	-0.201
-245.990	-132.918	0.355	0.045
-244.976	-95.310	-0.043	0.012
-243.961	-111.836	0.229	0.046
-242.946	-23.664	-0.212	-0.125
-241.932	-77.530	0.276	0.095
-240.917	10.017	-0.075	0.056
-239.903	457.483	-0.013	-0.029
-238.888	-188.119	-0.170	-0.002
-237.873	254.432	-0.118	-0.199
-236.859	-43.221	-0.156	0.078
-235.844	59.376	-0.197	-0.191
-234.830	-200.000	0.026	0.331
-233.815	-200.000	-0.076	-0.342
-232.800	-73.834	0.254	0.091
-231.786	128.962	-0.102	0.129
-230.771	12.456	-0.219	0.167
-229.757	118.674	-0.249	0.304
-228.742	479.386	-0.062	-0.138
-227.727	-100.701	0.236	0.057
-226.713	-51.170	0.305	-0.141
-225.698	44.590	0.117	-0.106
-224.684	93.154	-0.226	-0.253
-223.669	-154.760	-0.178	-0.012
-222.655	173.899	0.113	-0.161
-221.640	-144.235	-0.054	-0.005
-220.625	623.823	0.063	0.157
-219.611	-71.874	0.194	0.071
-218.596	73.385	-0.142	-0.146
-217.582	191.834	-0.048	0.071
-216.567	-141.539	-0.380	-0.038
-215.552	385.317	0.097	0.198
-214.538	-45.337	-0.276	-0.135
-213.523	-200.000	-0.004	-0.151
-212.509	-120.402	-0.162	-0.027
-211.494	-115.970	0.083	-0.015
-210.479	-16.217	0.162	-0.102
-209.465	-200.000	0.072	0.468
-208.450	143.511	0.032	-0.041
-207.436	-200.000	-0.001	0.254
-206.421	-200.000	-0.042	-0.202
-205.406	-59.301	-0.154	0.065
-204.392	-200.000	0.007	0.044
-203.377	437.301	0.065	0.140
-202.363	-158.717	0.099	0.006
-201.348	63.949	-0.174	-0.172
-200.333	800.000	0.031	-0.110
-199.319	-105.057	-0.139	0.031
-198.304	262.079	-0.159	0.272
-197.290	800.000	-0.144	-0.511
-196.275	364.781	0.033	0.066
-195.260	800.000	0.037	0.105
-194.246	-151.588	-0.199	0.014
-193.231	-200.000	0.016	-0.375
-192.217	-11.044	-0.033	0.022
-191.202	10.762	-0.114	-0.086
-190.187	-140.477	-0.144	0.015
-189.173	-200.000	-0.018	-0.194
-188.158	-99.924	0.349	-0.086
-187.144	-35.839	-0.024	-0.013
-186.129	35.956	-0.163	-0.141
-185.114	251.740	0.088	0.147
-184.100	-0.224	-0.178	-0.125
-183.085	-60.524	0.117	0.049
-182.071	30.174	-0.142	-0.119
-181.056	84.164	-0.200	-0.215
-180.042	-200.000	0.017	0.214
-179.027	18.218	-0.326	0.257
-178.012	677.149	0.167	0.428
-176.998	-150.589	-0.062	0.005
-175.983	-191.152	-0.285	-0.003
-174.969	50.396	-0.100	0.093
-173.954	265.860	0.076	0.131
-172.939	-139.788	-0.233	0.024
-171.925	245.839	0.197	0.327
-170.910	30.092	-0.250	-0.210
-169.896	65.326	0.222	-0.221
-168.881	800.000	0.064	0.179
-167.866	-76.699	-0.105	-0.036
-166.852	800.000	0.013	0.050
-165.837	404.164	-0.092	0.190
-164.823	-200.000	0.008	-0.239
-163.808	496.953	-0.022	-0.049
-162.793	456.599	-0.046	-0.100
-161.779	111.612	-0.208	-0.247
-160.764	-116.751	0.282	-0.051
-159.750	-136.090	-0.178	-0.021
-158.735	-15.337	-0.221	-0.139
-157.720	-73.795	-0.395	-0.141
-156.706	-200.000	-0.011	-0.163
-155.691	131.933	-0.171	-0.216
-154.677	48.777	-0.063	0.058
-153.662	91.242	-0.119	-0.132
-152.647	52.018	0.093	0.087
-151.633	96.043	0.252	0.284
-150.618	56.200	-0.341	-0.325
-149.604	16.645	-0.041	0.032
-148.589	800.000	0.084	-0.271
-147.574	800.000	-0.051	-0.160
-146.560	-37.394	-0.174	0.091
-145.545	-75.442	0.239	-0.084
-144.531	-83.500	0.441	0.139
-143.516	321.539	0.167	0.312
-142.502	291.444	0.132	0.237
-141.487	-200.000	-0.002	-0.064
-140.472	57.129	-0.349	-0.335
-139.458	-28.931	-0.079	-0.045
-138.443	398.447	-0.059	-0.122
-137.429	-200.000	-0.040	-0.240
-136.414	800.000	0.063	0.196
-135.399	800.000	-0.038	0.165
-134.385	-29.639	0.159	-0.089
-133.370	24.553	0.129	-0.105
-132.356	-200.000	-0.007	0.126
-131.341	258.220	0.155	0.262
-130.326	-42.973	0.208	-0.104
-129.312	-10.109	0.145	0.095
-128.297	316.943	0.011	-0.021
-127.283	-96.862	0.218	-0.056
-126.268	-154.218	0.167	-0.011
-125.253	63.248	0.301	-0.296
-124.239	119.583	-0.181	0.220
-123.224	291.600	-0.025	0.045
-122.210	63.008	0.312	0.307
-121.195	-25.935	-0.287	-0.166
-120.180	-53.105	0.230	-0.104
-119.166	-200.000	-0.053	0.329
-118.151	-53.202	-0.093	0.042
-117.137	489.761	-0.107	-0.241
-116.122	-121.825	-0.234	0.038
-115.107	262.114	0.304	0.518
-114.093	321.072	-0.123	0.229
-113.078	0.519	0.138	0.097
-112.064	-200.000	0.035	0.279
-111.049	-111.886	0.228	-0.045
-110.034	-16.363	-0.117	0.073
-109.020	418.901	0.048	0.100
-108.005	202.373	-0.190	0.288
-106.991	-132.627	-0.100	-0.013
-105.976	-200.000	0.035	0.174
-104.962	-120.172	0.440	0.074
-103.947	800.000	-0.075	0.220
-102.932	-200.000	-0.036	0.161
-101.918	-176.600	-0.174	0.004
-100.903	133.078	0.117	0.149
-99.889	60.308	0.254	0.247
-98.874	-200.000	-0.029	-0.316
-97.859	18.132	0.356	-0.279
-96.845	-46.070	-0.475	0.230
-95.830	-182.038	-0.213	-0.004
-94.816	800.000	0.170	-0.681
-93.801	197.288	0.125	-0.187
-92.786	-23.990	0.252	0.148
-91.772	147.689	0.128	-0.169
-90.757	19.380	0.062	-0.049
-89.743	-103.581	-0.240	0.055
-88.728	-62.985	0.083	0.034
-87.713	800.000	0.076	0.211
-86.699	-200.000	-0.010	-0.139
-85.684	-200.000	-0.021	-0.147
-84.670	37.486	0.263	0.228
-83.655	181.837	0.195	0.281
-82.640	-92.694	0.274	0.075
-81.626	11.521	0.179	0.134
-80.611	-200.000	-0.057	0.326
-79.597	800.000	0.114	-0.314
-78.582	418.530	-0.075	0.156
-77.567	209.424	-0.061	0.094
-76.553	191.589	0.053	0.079
-75.538	48.220	-0.138	-0.127
-74.524	-168.230	0.362	-0.014
-73.509	-37.096	-0.160	-0.084
-72.494	-200.000	0.013	0.058
-71.480	-200.000	-0.001	0.191
-70.465	-9.979	0.419	-0.273
-69.451	109.794	0.109	0.128
-68.436	-131.967	0.231	0.029
-67.422	29.005	0.212	0.176
-66.407	172.104	-0.091	-0.128
-65.392	-171.020	0.421	-0.014
-64.378	-200.000	0.004	-0.208
-63.363	-200.000	0.006	0.159
-62.349	45.229	0.135	0.122
-61.334	127.507	-0.890	-1.108
-60.319	320.937	0.404	0.753
-59.305	376.791	-0.477	-0.955
-58.290	323.745	0.781	1.460
-57.276	800.000	0.331	1.410
-56.261	-200.000	112.839	645.467
-55.246	475.253	1502.676	3324.457
-54.232	147.712	2668.864	3524.206
-53.217	104.420	2152.547	2482.891
-52.203	38.985	1602.494	1403.230
-51.188	30.730	1349.311	1131.546
-50.173	27.874	1311.255	1082.687
-49.159	55.951	1366.982	1299.089
-48.144	54.368	1381.423	1303.225
-47.130	31.185	1337.154	1123.915
-46.115	27.833	1319.248	1088.866
-45.100	27.557	1314.659	1083.398
-44.086	27.339	1312.999	1080.691
-43.071	27.315	1310.271	1078.258
-42.057	27.316	1308.355	1076.649
-41.042	27.454	1306.320	1075.746
-40.027	27.369	1304.904	1074.037
-39.013	27.452	1302.604	1072.589
-37.998	27.454	1300.968	1071.208
-36.984	27.565	1298.805	1070.041
-35.969	27.662	1297.068	1069.134
-34.954	27.656	1295.559	1067.814
-33.940	27.577	1294.692	1066.594
-32.925	27.580	1292.894	1065.087
-31.911	27.630	1291.626	1064.289
-30.896	27.689	1290.330	1063.525
-29.881	27.652	1289.080	1062.237
-28.867	27.618	1288.084	1061.175
-27.852	27.573	1286.090	1059.232
-26.838	27.653	1284.793	1058.583
-25.823	27.676	1283.525	1057.628
-24.809	27.635	1282.224	1056.282
-23.794	27.642	1281.034	1055.298
-22.779	27.639	1279.390	1053.883
-21.765	27.661	1278.326	1053.095
-20.750	27.602	1276.938	1051.565
-19.736	27.554	1275.356	1049.948
-18.721	27.572	1274.336	1049.170
-17.706	27.547	1273.596	1048.375
-16.692	27.549	1271.900	1046.946
-15.677	27.492	1271.355	1046.132
-14.663	27.457	1270.016	1044.787
-13.648	27.475	1268.925	1043.952
-12.633	27.535	1267.462	1043.050
-11.619	27.491	1267.371	1042.682
-10.604	27.448	1266.395	1041.591
-9.590	27.581	1264.966	1041.132
-8.575	27.447	1264.302	1039.781
-7.560	27.479	1263.036	1038.883
-6.546	27.521	1262.242	1038.424
-5.531	27.577	1261.233	1037.877
-4.517	27.573	1260.435	1037.153
-3.502	27.551	1259.867	1036.518
-2.487	27.528	1258.658	1035.355
-1.473	27.540	1254.312	1031.803
-0.458	25.792	1239.811	1010.041
0.556	21.001	1223.105	973.240
1.571	17.361	1229.973	958.154
2.586	16.685	1244.746	965.720
3.600	16.680	1234.063	957.318
4.615	15.382	1167.131	898.370
5.629	12.269	1100.503	831.270
6.644	10.792	1083.623	811.079
7.659	10.687	1081.199	808.672
8.673	10.541	1080.510	807.358
9.688	10.480	1079.142	805.957
10.702	10.590	1077.223	804.999
11.717	12.557	1078.787	815.862
12.731	15.657	1082.853	834.275
13.746	17.473	1084.998	844.877
14.761	17.474	1084.362	844.307
15.775	16.620	1082.322	838.418
16.790	15.517	1080.113	831.176
17.804	14.787	1077.931	825.816
18.819	14.351	1077.414	823.194
19.834	14.109	1076.272	821.051
20.848	13.854	1075.398	819.054
21.863	13.575	1075.117	817.394
22.877	13.521	1074.112	816.291
23.892	13.456	1073.143	815.162
24.907	13.444	1072.521	814.557
25.921	13.547	1071.353	814.106
26.936	13.539	1069.741	812.769
27.950	13.660	1068.398	812.266
28.965	13.662	1067.098	811.219
29.980	13.821	1065.058	810.374
30.994	13.700	1064.325	809.152
32.009	13.780	1063.415	808.780
33.023	13.784	1062.457	808.001
34.038	13.689	1061.416	806.675
35.053	13.692	1060.542	805.953
36.067	13.648	1059.548	804.913
37.082	13.771	1058.643	804.748
38.096	13.837	1057.783	804.344
39.111	13.732	1057.133	803.269
40.126	13.732	1055.843	802.219
41.140	13.539	1054.800	800.421
42.155	13.534	1053.162	799.083
43.169	13.389	1052.799	798.038
44.184	13.470	1051.108	797.079
45.199	13.481	1050.182	796.360
46.213	13.491	1049.103	795.516
47.228	13.552	1048.081	794.967
48.242	13.614	1047.019	794.388
49.257	13.571	1046.088	793.403
50.271	13.536	1045.612	792.802
51.286	13.653	1044.586	792.515
52.301	13.665	1043.511	791.687
53.315	13.608	1042.611	790.663
54.330	13.481	1041.519	789.160
55.344	13.459	1041.106	788.672
56.359	13.533	1039.764	787.940
57.374	13.626	1038.797	787.579
58.388	13.454	1037.921	786.025
59.403	13.308	1038.012	785.335
60.417	13.450	1036.696	784.942
61.432	13.446	1035.665	784.074
62.447	13.423	1034.665	783.135
63.461	13.384	1034.348	782.644
64.476	13.312	1033.443	781.549
65.490	13.449	1032.137	781.140
66.505	13.410	1031.662	780.528
67.520	13.337	1031.281	779.826
68.534	13.515	1030.230	779.797
69.549	13.430	1029.500	778.779
70.563	13.481	1028.337	778.066
71.578	13.413	1027.581	777.109
72.593	13.302	1027.113	776.163
73.607	13.347	1026.310	775.700
74.622	13.311	1025.892	775.145
75.636	13.369	1025.034	774.702
76.651	13.276	1024.340	773.672
77.666	13.442	1023.772	773.954
78.680	13.244	1023.516	772.763
79.695	13.359	1022.175	772.221
80.709	13.447	1021.570	772.105
81.724	13.480	1021.465	772.114
82.739	13.554	1020.464	771.630
83.753	13.585	1019.882	771.267
84.768	13.634	1018.877	770.665
85.782	13.661	1018.118	770.149
86.797	13.746	1016.729	769.428
87.812	13.536	1016.060	767.878
88.826	13.599	1015.208	767.458
89.841	13.629	1013.864	766.515
90.855	13.741	1012.924	766.251
91.870	13.732	1012.314	765.682
92.884	13.831	1011.687	765.595
93.899	13.805	1010.911	764.821
94.914	13.889	1009.794	764.295
95.928	13.661	1009.614	763.044
96.943	13.724	1008.251	762.234
97.957	13.704	1007.803	761.735
98.972	13.800	1006.587	761.187
99.987	13.866	1005.540	760.631
101.001	13.760	1004.436	759.245
102.016	13.746	1003.731	758.583
103.030	13.796	1003.046	758.226
104.045	13.816	1002.450	757.800
105.060	13.771	1000.881	756.343
106.074	13.672	1000.374	755.438
107.089	13.548	999.561	754.193
108.103	13.465	998.604	753.027
109.118	13.562	997.284	752.406
110.133	13.489	996.367	751.317
111.147	13.437	995.883	750.648
112.162	13.586	994.860	750.486
113.176	13.588	994.051	749.818
114.191	13.736	993.378	749.915
115.206	13.609	992.275	748.441
116.220	13.633	991.490	747.893
117.235	13.600	990.869	747.208
118.249	13.553	989.813	746.135
119.264	13.470	989.464	745.430
120.279	13.637	988.346	745.277
121.293	13.535	987.650	744.227
122.308	13.515	986.842	743.461
123.322	13.474	985.578	742.261
124.337	13.481	984.642	741.521
125.352	13.588	983.178	740.830
126.366	13.545	982.234	739.861
127.381	13.578	981.113	739.098
128.395	13.439	980.865	738.227
129.410	13.507	979.896	737.737
130.424	13.540	978.727	736.936
131.439	13.680	977.788	736.785
132.454	13.709	977.292	736.477
133.468	13.590	976.739	735.465
134.483	13.769	975.847	735.525
135.497	13.686	974.661	734.196
136.512	13.659	973.850	733.403
137.527	13.638	973.209	732.760
138.541	13.650	972.625	732.308
139.556	13.648	971.576	731.445
140.570	13.681	971.367	731.371
141.585	13.709	970.291	730.618
142.600	13.828	969.503	730.484
143.614	13.804	968.887	729.851
144.629	14.049	967.568	729.865
145.643	13.803	967.188	728.439
146.658	13.751	965.656	726.991
147.673	13.804	964.933	726.615
148.687	13.730	964.053	725.561
149.702	13.654	963.240	724.553
150.716	13.703	962.304	723.998
151.731	13.784	961.326	723.553
152.746	13.711	961.090	722.995
153.760	13.957	960.135	723.283
154.775	13.818	959.870	722.412
155.789	13.848	959.230	721.997
156.804	13.754	958.732	721.152
157.819	13.732	957.720	720.231
158.833	13.971	957.101	720.739
159.848	13.991	956.195	720.077
160.862	13.969	955.293	719.242
161.877	13.884	954.053	717.877
162.892	13.775	953.854	717.194
163.906	13.774	952.354	715.995
164.921	13.835	951.652	715.667
165.935	13.855	951.117	715.290
166.950	13.991	949.655	714.711
167.964	13.885	948.996	713.698
168.979	13.937	948.252	713.299
169.994	13.844	947.526	712.289
171.008	13.952	946.742	712.098
172.023	13.985	946.228	711.792
173.037	14.088	945.257	711.439
174.052	14.079	944.362	710.663
175.067	13.934	943.903	709.637
176.081	13.906	943.228	708.945
177.096	13.947	942.946	708.846
178.110	14.025	942.075	708.461
179.125	14.101	941.201	708.066
180.140	13.942	940.889	707.091
181.154	14.124	940.891	707.806
182.169	14.075	940.113	706.949
183.183	14.209	939.340	706.875
184.198	14.075	938.787	705.826
185.213	14.134	937.796	705.271
186.227	14.165	937.527	705.134
187.242	14.256	936.378	704.595
188.256	14.287	936.188	704.518
189.271	14.146	935.206	703.122
190.286	14.130	933.974	702.066
191.300	13.907	933.968	701.059
192.315	13.899	933.146	700.346
193.329	13.792	932.617	699.435
194.344	13.978	931.878	699.601
195.359	14.182	931.045	699.773
196.373	14.215	930.608	699.522
197.388	14.274	930.711	699.786
198.402	14.392	929.885	699.600
199.417	14.256	929.243	698.481
200.432	14.351	928.754	698.452
201.446	14.531	928.310	698.809
202.461	14.634	927.694	698.717
203.475	14.370	927.345	697.285
204.490	14.473	925.967	696.619
205.504	14.441	924.955	695.663
206.519	14.321	924.612	694.842
207.534	14.334	923.928	694.320
208.548	14.417	923.254	694.098
209.563	14.466	922.532	693.698
210.577	14.400	922.065	693.012
211.592	14.576	920.939	692.834
212.607	14.613	920.110	692.304
213.621	14.513	919.689	691.511
214.636	14.496	918.958	690.830
215.650	14.582	917.957	690.373
216.665	14.862	917.087	690.812
217.680	14.533	917.254	689.517
218.694	14.646	916.065	689.028
219.709	14.705	915.649	688.901
220.723	14.820	914.774	688.654
221.738	14.698	914.312	687.742
222.753	14.724	913.621	687.271
223.767	14.737	912.937	686.746
224.782	14.762	912.345	686.343
225.796	14.851	911.957	686.356
226.811	14.740	911.141	685.227
227.826	14.637	910.704	684.416
228.840	14.797	909.679	684.238
229.855	14.742	908.741	683.250
230.869	14.800	908.029	682.890
231.884	14.695	907.832	682.252
232.899	14.663	906.843	681.318
233.913	14.853	906.150	681.512
234.928	14.720	906.159	680.918
235.942	14.683	905.073	679.887
236.957	14.651	904.524	679.287
237.972	14.553	904.377	678.715
238.986	14.673	903.417	678.424
240.001	14.875	902.410	678.428
241.015	14.853	901.891	677.887
242.030	14.841	901.248	677.297
243.045	14.995	900.246	677.107
244.059	14.984	899.753	676.632
245.074	14.875	899.584	676.005
246.088	14.924	898.842	675.582
247.103	14.838	898.404	674.849
248.117	15.051	897.837	675.222
249.132	15.096	897.114	674.798
250.147	15.193	896.273	674.498
251.161	15.246	895.822	674.312
252.176	15.209	895.311	673.718
253.190	15.419	894.344	673.777
254.205	15.413	893.907	673.360
255.220	15.298	893.305	672.389
256.234	15.230	893.077	671.884
257.249	15.186	892.304	671.069
258.263	15.352	891.039	670.719
259.278	15.357	890.753	670.464
260.293	15.362	889.831	669.732
261.307	15.381	889.374	669.406
262.322	15.436	888.602	668.982
263.336	15.399	887.981	668.311
264.351	15.409	887.780	668.140
265.366	15.514	886.858	667.803
266.380	15.464	886.304	667.130
267.395	15.550	885.395	666.727
268.409	15.440	884.536	665.584
269.424	15.515	883.767	665.246
270.439	15.485	883.042	664.521
271.453	15.467	882.471	663.960
272.468	15.356	882.249	663.297
273.482	15.465	881.501	663.106
274.497	15.458	881.217	662.806
275.512	15.536	880.188	662.280
276.526	15.539	879.988	662.084
277.541	15.700	879.058	661.960
278.555	15.605	878.681	661.243
279.570	15.843	877.923	661.550
280.585	15.633	877.413	660.283
281.599	15.694	876.168	659.525
282.614	15.698	875.783	659.192
283.628	15.669	875.768	659.012
284.643	15.822	874.903	658.899
285.657	15.753	873.744	657.698
286.672	15.841	873.132	657.525
287.687	15.693	872.811	656.646
288.701	15.787	872.067	656.394
289.716	15.649	871.938	655.702
290.730	15.830	870.945	655.601
291.745	15.971	870.158	655.501
292.760	15.807	869.670	654.437
293.774	15.879	869.217	654.318
294.789	15.932	868.565	653.976
295.803	15.897	867.730	653.151
296.818	15.850	867.132	652.462
297.833	15.834	866.202	651.642
298.847	15.898	865.910	651.613
299.862	15.908	865.380	651.195
300.876	16.030	864.961	651.295
301.891	15.931	864.512	650.516
302.906	15.972	863.835	650.110
303.920	16.131	863.393	650.333
304.935	16.231	862.396	649.907
305.949	16.190	861.925	649.336
306.964	16.127	861.351	648.604
307.979	16.157	861.135	648.499
308.993	16.160	860.571	648.031
310.008	16.058	860.085	647.213
311.022	16.066	859.498	646.746
312.037	16.120	858.711	646.302
313.052	16.072	857.977	645.512
314.066	15.984	857.472	644.738
315.081	16.050	857.053	644.616
316.095	16.107	856.432	644.311
317.110	15.988	856.073	643.530
318.125	16.160	855.273	643.526
319.139	16.026	855.192	642.897
320.154	16.184	854.263	642.745
321.168	16.169	853.708	642.215
322.183	16.191	853.114	641.792
323.197	16.210	852.618	641.435
324.212	16.239	852.129	641.120
325.227	16.282	851.345	640.636
326.241	16.322	850.695	640.245
327.256	16.263	850.148	639.552
328.270	16.267	849.863	639.296
329.285	16.322	848.891	638.716
330.300	16.221	848.606	638.063
331.314	16.262	848.265	637.904
332.329	16.216	847.787	637.315
333.343	16.274	847.359	637.155
334.358	16.335	846.832	636.933
335.373	16.356	846.570	636.760
336.387	16.453	846.488	637.009
337.402	16.399	846.182	636.517
338.416	16.511	845.663	636.493
339.431	16.422	845.689	636.119
340.446	16.513	844.968	635.865
341.460	16.572	844.761	635.874
342.475	16.755	843.811	635.789
343.489	16.591	843.475	634.865
344.504	16.631	842.993	634.596
345.519	16.748	842.484	634.596
346.533	16.641	842.452	634.114
347.548	16.677	841.466	633.451
348.562	16.583	840.786	632.531
349.577	16.625	840.366	632.314
350.592	16.734	839.463	631.988
351.606	16.579	839.191	631.148
352.621	16.643	838.302	630.662
353.635	16.513	837.836	629.773
354.650	16.518	837.074	629.162
355.665	16.810	836.461	629.731
356.679	16.799	835.848	629.172
357.694	16.778	835.196	628.547
358.708	16.728	834.539	627.815
359.723	16.768	834.066	627.549
360.738	16.901	833.349	627.446
361.752	16.865	832.978	626.977
362.767	16.997	832.100	626.750
363.781	16.994	831.733	626.407
364.796	16.833	831.640	625.686
365.810	17.042	830.928	625.869
366.825	16.957	830.779	625.387
367.840	17.118	829.933	625.286
368.854	16.994	829.612	624.532
369.869	17.042	829.399	624.494
370.883	16.972	828.925	623.826
371.898	17.103	828.340	623.810
372.913	17.138	828.174	623.758
373.927	17.117	827.547	623.154
374.942	17.084	827.256	622.760
375.956	17.060	827.038	622.453
376.971	17.179	826.046	622.086
377.986	17.298	825.893	622.352
379.000	17.331	825.203	621.898
380.015	17.236	824.664	621.088
381.029	17.421	823.949	621.170
382.044	17.390	823.217	620.451
383.059	17.292	822.963	619.847
384.073	17.303	822.276	619.316
385.088	17.264	821.765	618.732
386.102	17.359	820.997	618.444
387.117	17.383	820.602	618.179
388.132	17.341	820.202	617.671
389.146	17.329	819.465	617.018
390.161	17.425	819.389	617.255
391.175	17.498	818.295	616.640
392.190	17.381	818.171	616.068
393.205	17.379	817.566	615.551
394.219	17.278	817.578	615.141
395.234	17.259	816.817	614.447
396.248	17.349	816.584	614.541
397.263	17.321	815.998	613.943
398.278	17.362	815.583	613.727
399.292	17.347	815.086	613.244
400.307	17.188	814.917	612.489
401.321	17.312	814.261	612.389
402.336	17.370	813.769	612.172
403.350	17.288	813.216	611.408
404.365	17.361	812.791	611.297
405.380	17.507	811.942	611.126
406.394	17.485	811.830	610.909
407.409	17.673	811.103	610.982
408.423	17.665	811.111	610.907
409.438	17.696	810.698	610.651
410.453	17.505	810.686	609.905
411.467	17.765	810.032	610.290
412.482	17.639	809.734	609.562
413.496	17.774	809.287	609.654
414.511	17.782	808.863	609.309
415.526	17.856	808.502	609.246
416.540	17.829	807.689	608.482
417.555	17.942	807.010	608.322
418.569	17.822	806.870	607.735
419.584	17.960	806.337	607.769
420.599	17.873	805.951	607.117
421.613	111.377	1294.873	1476.450
422.628	96.097	1366.112	1476.547
