DTS Sentinel unit serial number:	SN413079Multiplexer serial number:	ORYXHardware model number:	OX4-SRSoftware version number:	ORYX F/W v4.00 Oryx Data Collector v3.7.2.0data status	okinstallation	princeton_trtdifferential loss correction	single-endedforward channel	channel 1reverse channel	N/Adate	2019/09/16time	12:02:35forward acquisition time	60.00reverse acquisition time	0.00gamma	496.2192k internal	0.2296k external	0.2296temperature offset calibration	0.9960default loss term (dB/km)	0.3790temperature slope calibration	1.0000multiplexer offset coefficient	1.0000multiplexer slope coefficient	1.0000fibre end	0.00T internal ref (°C)	38.72T ext. ref 1 (°C)	13.17T ext. ref 2 (°C)	35.86length (m)	temperature (°C)	Stokes	anti-Stokes-747.200	190.760	-0.105	0.162
-746.185	99.136	-0.175	-0.206
-745.171	-17.568	0.185	-0.119
-744.156	-92.328	-0.087	0.025
-743.142	-56.082	-0.210	-0.096
-742.127	-19.885	0.117	-0.074
-741.112	238.513	-0.113	-0.192
-740.098	-95.965	-0.230	0.063
-739.083	219.785	0.140	0.230
-738.069	23.784	-0.334	0.281
-737.054	-79.979	-0.120	-0.041
-736.039	-140.100	-0.104	-0.011
-735.025	606.605	0.294	0.749
-734.010	140.968	-0.123	-0.166
-732.996	436.473	0.128	-0.285
-731.981	800.000	0.080	0.273
-730.966	57.067	-0.050	-0.049
-729.952	-200.000	-0.027	-0.401
-728.937	240.572	0.123	-0.210
-727.923	-84.929	-0.203	0.065
-726.908	4.720	-0.276	0.207
-725.894	-159.832	-0.152	0.009
-724.879	115.013	0.088	-0.110
-723.864	65.921	-0.178	0.185
-722.850	-160.679	0.220	-0.012
-721.835	-200.000	-0.036	-0.249
-720.821	-162.584	0.034	0.002
-719.806	244.330	0.038	0.066
-718.791	36.451	-0.224	0.202
-717.777	-33.338	0.137	-0.077
-716.762	-200.000	-0.031	-0.553
-715.748	-99.880	-0.113	-0.029
-714.733	-112.654	-0.182	0.037
-713.718	1.647	-0.317	-0.233
-712.704	22.830	-0.044	0.037
-711.689	28.964	-0.267	0.231
-710.675	683.697	0.049	-0.131
-709.660	-200.000	-0.018	-0.396
-708.645	196.749	-0.173	-0.269
-707.631	-23.545	0.068	-0.041
-706.616	374.209	0.151	-0.313
-705.602	-88.345	0.162	0.049
-704.587	-200.000	-0.006	-0.267
-703.572	-200.000	-0.002	-0.133
-702.558	122.448	0.271	0.346
-701.543	184.643	0.151	-0.229
-700.529	-200.000	0.059	-0.427
-699.514	131.729	0.114	-0.150
-698.499	299.583	-0.087	0.164
-697.485	182.073	-0.154	0.231
-696.470	178.473	-0.155	0.232
-695.456	223.066	-0.155	-0.256
-694.441	800.000	0.048	-0.173
-693.426	-56.160	-0.082	-0.037
-692.412	10.984	-0.240	0.187
-691.397	111.048	-0.111	-0.136
-690.383	-29.909	0.120	-0.070
-689.368	28.974	0.254	0.219
-688.354	-114.912	0.113	0.022
-687.339	-115.888	-0.158	0.030
-686.324	-60.072	-0.189	0.082
-685.310	28.807	-0.155	-0.134
-684.295	800.000	0.055	-0.195
-683.281	132.062	0.181	0.237
-682.266	-200.000	0.016	-0.074
-681.251	-99.713	-0.302	-0.077
-680.237	154.719	-0.091	0.128
-679.222	-200.000	0.088	0.404
-678.208	-100.634	-0.162	-0.041
-677.193	800.000	-0.030	-0.097
-676.178	5.884	0.197	-0.148
-675.164	-200.000	-0.006	0.358
-674.149	-200.000	0.009	0.156
-673.135	117.904	0.133	0.167
-672.120	66.761	0.270	-0.280
-671.105	-14.941	-0.288	0.188
-670.091	114.217	-0.209	0.259
-669.076	-90.354	-0.091	-0.027
-668.062	29.962	0.250	0.217
-667.047	307.017	-0.118	-0.224
-666.032	42.939	-0.092	-0.086
-665.018	213.172	-0.076	-0.122
-664.003	-1.147	-0.044	0.031
-662.989	192.675	0.023	0.035
-661.974	-130.124	0.147	-0.020
-660.959	236.950	-0.189	-0.318
-659.945	800.000	0.035	0.116
-658.930	112.196	0.183	0.226
-657.916	-200.000	0.040	-0.203
-656.901	-189.308	0.203	0.002
-655.886	-162.097	-0.338	-0.017
-654.872	-181.210	0.142	0.003
-653.857	183.925	0.120	-0.182
-652.843	800.000	-0.033	-0.102
-651.828	10.383	-0.098	-0.076
-650.814	-114.981	0.115	-0.022
-649.799	-110.710	-0.015	0.003
-648.784	-26.229	0.154	0.092
-647.770	-94.991	-0.117	0.032
-646.755	-91.836	-0.289	-0.084
-645.741	238.066	0.129	-0.219
-644.726	-161.764	-0.316	0.016
-643.711	-56.419	-0.125	-0.056
-642.697	-179.812	-0.050	0.001
-641.682	800.000	-0.101	-0.346
-640.668	126.197	-0.181	-0.233
-639.653	-200.000	0.018	-0.252
-638.638	329.221	0.113	-0.222
-637.624	287.971	0.135	0.249
-636.609	11.264	-0.157	0.122
-635.595	571.816	-0.022	-0.054
-634.580	-81.217	0.246	0.083
-633.565	302.211	0.026	-0.049
-632.551	91.479	-0.143	0.163
-631.536	-200.000	-0.026	0.121
-630.522	-200.000	0.000	-0.005
-629.507	61.851	0.106	0.107
-628.492	-200.000	0.017	-0.128
-627.478	489.826	-0.062	-0.145
-626.463	-47.572	0.197	0.098
-625.449	-95.592	0.048	0.013
-624.434	-200.000	-0.007	0.034
-623.419	777.985	0.164	0.457
-622.405	-200.000	0.018	-0.101
-621.390	-162.252	-0.285	0.014
-620.376	-57.432	0.201	-0.090
-619.361	-20.539	-0.244	0.153
-618.346	-59.452	-0.073	-0.032
-617.332	-65.676	0.154	-0.063
-616.317	-28.106	0.362	-0.213
-615.303	-140.803	0.056	-0.006
-614.288	-200.000	0.016	0.153
-613.273	800.000	-0.053	-0.183
-612.259	-119.543	0.134	0.024
-611.244	800.000	-0.054	-0.164
-610.230	362.696	0.097	-0.198
-609.215	-43.188	0.323	0.166
-608.201	-131.046	0.074	0.010
-607.186	130.167	-0.028	-0.036
-606.171	-62.260	-0.005	0.002
-605.157	-140.280	-0.234	0.025
-604.142	65.024	-0.284	-0.292
-603.128	-35.078	-0.165	-0.092
-602.113	800.000	-0.042	-0.124
-601.098	-200.000	0.007	0.244
-600.084	-165.586	0.220	-0.010
-599.069	-143.003	-0.257	0.025
-598.055	231.270	0.116	-0.192
-597.040	-200.000	0.033	-0.266
-596.025	-200.000	-0.038	0.262
-595.011	-17.476	-0.256	0.164
-593.996	-20.266	0.213	-0.133
-592.982	-76.267	-0.235	0.084
-591.967	-14.290	0.263	0.172
-590.952	38.433	-0.104	0.094
-589.938	-91.993	0.281	0.081
-588.923	224.858	0.149	0.245
-587.909	-200.000	-0.041	-0.365
-586.894	-200.000	0.003	-0.034
-585.879	174.178	-0.160	-0.235
-584.865	141.021	-0.251	-0.337
-583.850	-44.613	0.099	0.050
-582.836	800.000	0.035	0.142
-581.821	-113.277	-0.167	0.033
-580.806	55.876	-0.234	-0.230
-579.792	464.175	-0.075	0.169
-578.777	800.000	-0.120	0.441
-577.763	212.994	-0.091	0.146
-576.748	188.768	0.116	0.176
-575.733	-56.285	-0.104	0.047
-574.719	696.787	-0.078	-0.208
-573.704	-200.000	-0.002	0.202
-572.690	-37.188	-0.447	-0.243
-571.675	-95.579	0.179	0.049
-570.661	-171.821	-0.342	0.011
-569.646	-81.782	-0.327	-0.109
-568.631	-200.000	-0.006	-0.226
-567.617	354.602	0.075	-0.152
-566.602	411.584	0.146	0.314
-565.588	-24.492	-0.351	0.212
-564.573	800.000	-0.074	-0.224
-563.558	800.000	0.001	0.005
-562.544	-200.000	-0.043	-0.347
-561.529	-3.192	0.197	0.140
-560.515	-200.000	0.010	0.198
-559.500	-200.000	-0.027	0.361
-558.485	784.514	-0.088	-0.244
-557.471	-54.032	0.093	0.043
-556.456	-101.969	0.178	0.044
-555.442	-108.567	-0.102	0.022
-554.427	-155.242	0.327	-0.022
-553.412	-123.378	-0.162	-0.026
-552.398	57.877	0.031	0.030
-551.383	388.617	0.105	0.221
-550.369	-200.000	0.005	0.145
-549.354	66.387	-0.027	0.027
-548.339	-119.499	0.211	0.037
-547.325	36.549	-0.145	0.130
-546.310	800.000	0.078	0.245
-545.296	-99.746	-0.229	-0.058
-544.281	78.313	-0.102	0.110
-543.266	-200.000	0.009	-0.185
-542.252	471.591	-0.117	0.267
-541.237	800.000	0.156	0.488
-540.223	-200.000	0.007	-0.127
-539.208	-46.871	-0.388	0.192
-538.193	-151.874	-0.187	-0.014
-537.179	800.000	-0.037	0.104
-536.164	71.866	-0.233	0.246
-535.150	-82.345	-0.305	-0.100
-534.135	103.022	0.187	-0.221
-533.121	217.656	0.147	0.237
-532.106	800.000	0.038	0.135
-531.091	793.521	-0.004	0.011
-530.077	800.000	0.133	0.403
-529.062	203.954	-0.097	-0.152
-528.048	345.388	0.086	0.171
-527.033	-200.000	0.012	-0.214
-526.018	-99.561	-0.069	0.017
-525.004	800.000	-0.137	-0.429
-523.989	338.262	-0.095	-0.187
-522.975	-92.195	-0.068	0.019
-521.960	-200.000	-0.044	0.275
-520.945	83.829	-0.111	-0.122
-519.931	-75.341	-0.039	0.014
-518.916	-68.214	-0.180	0.071
-517.902	-84.219	-0.090	-0.029
-516.887	-41.603	-0.065	0.034
-515.872	16.117	-0.250	0.200
-514.858	-57.970	0.421	0.186
-513.843	-172.751	-0.110	-0.003
-512.829	-127.753	0.245	-0.036
-511.814	416.198	-0.084	-0.182
-510.799	18.223	-0.158	-0.128
-509.785	-78.174	-0.239	-0.083
-508.770	800.000	-0.047	-0.159
-507.756	800.000	0.018	-0.071
-506.741	93.866	-0.195	-0.224
-505.726	800.000	0.048	0.149
-504.712	-200.000	-0.001	0.152
-503.697	-18.216	-0.200	0.126
-502.683	-94.838	-0.287	0.079
-501.668	-26.427	-0.166	0.099
-500.653	-200.000	-0.003	0.332
-499.639	-86.771	-0.385	0.119
-498.624	800.000	-0.028	0.092
-497.610	14.966	0.240	0.190
-496.595	800.000	-0.046	0.147
-495.581	-200.000	-0.044	0.249
-494.566	800.000	-0.073	-0.249
-493.551	800.000	0.075	0.242
-492.537	-189.060	0.115	0.001
-491.522	-200.000	-0.040	0.263
-490.508	500.448	-0.036	0.084
-489.493	-200.000	-0.024	-0.156
-488.478	-87.333	-0.099	-0.030
-487.464	-164.290	0.241	0.011
-486.449	-128.284	0.120	0.017
-485.435	-200.000	0.002	-0.197
-484.420	-125.371	0.082	-0.013
-483.405	-45.507	0.073	0.037
-482.391	-5.986	-0.317	-0.219
-481.376	-200.000	0.009	0.366
-480.362	456.335	-0.129	-0.290
-479.347	-142.246	-0.142	-0.014
-478.332	800.000	-0.026	-0.115
-477.318	124.783	0.113	0.144
-476.303	-98.717	0.188	-0.048
-475.289	-26.612	-0.187	0.110
-474.274	20.443	-0.432	-0.353
-473.259	-130.375	0.323	0.044
-472.245	800.000	0.153	0.518
-471.230	-80.291	-0.132	-0.045
-470.216	-98.114	0.086	0.022
-469.201	358.582	0.164	-0.331
-468.186	64.370	0.175	0.178
-467.172	9.145	-0.035	0.026
-466.157	0.869	-0.172	-0.125
-465.143	-91.047	-0.048	-0.014
-464.128	-130.821	0.234	-0.032
-463.113	9.930	0.156	-0.120
-462.099	276.628	-0.098	0.175
-461.084	4.582	0.181	-0.134
-460.070	800.000	-0.075	-0.281
-459.055	-44.636	-0.141	-0.071
-458.040	252.540	0.147	-0.253
-457.026	-167.429	0.075	-0.003
-456.011	761.393	-0.026	-0.072
-454.997	-100.503	-0.282	0.071
-453.982	-46.831	-0.185	-0.091
-452.968	-2.868	0.104	0.074
-451.953	53.854	0.144	0.140
-450.938	-0.001	-0.113	-0.081
-449.924	-116.628	-0.172	0.032
-448.909	800.000	0.033	0.102
-447.895	800.000	0.102	0.345
-446.880	131.352	-0.225	-0.291
-445.865	-34.753	-0.153	-0.085
-444.851	-200.000	0.012	0.166
-443.836	116.318	-0.090	0.111
-442.822	153.674	0.139	0.193
-441.807	44.304	0.137	0.127
-440.792	800.000	-0.070	-0.272
-439.778	380.483	0.081	-0.168
-438.763	-138.909	0.125	-0.014
-437.749	-37.214	-0.124	0.067
-436.734	-200.000	-0.006	-0.100
-435.719	-167.964	-0.295	-0.012
-434.705	800.000	0.021	0.085
-433.690	40.860	0.102	-0.093
-432.676	-200.000	-0.020	-0.245
-431.661	251.803	0.050	-0.086
-430.646	-67.580	0.219	-0.087
-429.632	414.023	-0.031	0.066
-428.617	-93.418	-0.225	-0.063
-427.603	-125.697	-0.105	-0.016
-426.588	-60.725	-0.058	0.025
-425.573	153.085	0.080	-0.110
-424.559	800.000	0.091	-0.347
-423.544	-67.152	0.146	0.058
-422.530	-129.676	-0.279	-0.039
-421.515	-200.000	-0.016	0.149
-420.500	-65.613	-0.225	0.091
-419.486	85.501	0.124	-0.138
-418.471	-111.273	-0.079	-0.016
-417.457	-200.000	0.002	0.175
-416.442	-200.000	-0.004	-0.050
-415.428	-200.000	0.013	-0.302
-414.413	12.542	0.146	-0.113
-413.398	-200.000	0.029	-0.143
-412.384	94.174	-0.187	-0.214
-411.369	-28.187	-0.137	0.080
-410.355	-52.592	-0.062	0.029
-409.340	-122.273	-0.371	-0.061
-408.325	158.036	-0.082	-0.114
-407.311	-200.000	0.001	0.040
-406.296	-200.000	0.014	0.086
-405.282	-126.874	-0.194	-0.029
-404.267	44.154	-0.208	0.192
-403.252	800.000	-0.035	0.146
-402.238	-77.911	0.270	-0.094
-401.223	-72.436	-0.299	0.111
-400.209	-200.000	0.027	-0.312
-399.194	35.520	0.156	0.138
-398.179	-200.000	-0.030	-0.195
-397.165	-61.587	-0.196	-0.083
-396.150	6.599	0.163	-0.122
-395.136	142.915	-0.047	0.063
-394.121	-125.532	0.362	0.055
-393.106	800.000	0.125	0.364
-392.092	-46.514	-0.133	-0.066
-391.077	-200.000	0.054	-0.242
-390.063	800.000	-0.049	-0.199
-389.048	15.008	-0.196	-0.154
-388.033	800.000	-0.010	-0.044
-387.019	176.086	0.211	-0.309
-386.004	-200.000	0.020	-0.092
-384.990	-87.423	0.032	-0.010
-383.975	-200.000	-0.039	-0.206
-382.960	800.000	-0.013	-0.049
-381.946	37.843	0.155	0.139
-380.931	18.780	-0.211	0.170
-379.917	394.687	0.074	0.155
-378.902	-66.891	-0.270	-0.108
-377.888	-78.984	0.131	0.045
-376.873	-130.420	0.374	-0.051
-375.858	-200.000	-0.022	0.122
-374.844	-87.366	0.044	0.013
-373.829	-200.000	-0.008	-0.190
-372.815	14.893	0.406	0.320
-371.800	183.048	0.187	0.278
-370.785	-20.352	0.136	-0.084
-369.771	-56.419	0.221	0.099
-368.756	85.912	-0.028	-0.032
-367.742	67.749	-0.106	0.109
-366.727	-200.000	0.003	0.082
-365.712	58.081	-0.195	0.192
-364.698	-123.842	0.184	0.029
-363.683	-151.603	0.376	0.028
-362.669	-40.067	-0.261	0.137
-361.654	-200.000	0.057	0.450
-360.639	347.178	-0.108	-0.214
-359.625	-100.315	0.235	-0.059
-358.610	99.084	0.062	0.072
-357.596	270.161	0.055	0.097
-356.581	-200.000	0.000	-0.173
-355.566	-200.000	-0.025	0.439
-354.552	0.008	-0.141	0.101
-353.537	-191.212	0.224	0.002
-352.523	367.800	0.084	-0.171
-351.508	426.008	0.049	0.106
-350.493	619.167	0.126	0.319
-349.479	-121.373	0.341	-0.057
-348.464	-69.761	-0.062	-0.024
-347.450	73.296	0.157	-0.165
-346.435	800.000	-0.018	-0.052
-345.420	1.400	0.229	-0.166
-344.406	222.166	-0.117	-0.189
-343.391	-108.574	0.125	0.027
-342.377	-4.956	0.085	0.059
-341.362	52.714	0.236	-0.226
-340.348	73.615	0.176	0.185
-339.333	200.321	-0.147	-0.227
-338.318	-200.000	0.062	0.351
-337.304	445.531	0.104	-0.231
-336.289	800.000	-0.092	-0.291
-335.275	-137.458	0.131	-0.015
-334.260	-200.000	-0.039	0.184
-333.245	300.648	-0.161	-0.299
-332.231	-155.639	0.054	0.003
-331.216	160.281	0.043	0.061
-330.202	-114.949	0.266	-0.051
-329.187	-52.541	0.059	-0.028
-328.172	-90.747	-0.201	0.058
-327.158	-14.590	0.181	0.117
-326.143	-133.875	-0.158	0.020
-325.129	-99.498	0.212	0.053
-324.114	305.421	0.166	0.310
-323.099	408.382	0.050	0.106
-322.085	204.117	0.048	0.074
-321.070	30.590	0.239	0.206
-320.056	-55.625	0.210	-0.094
-319.041	25.134	-0.124	-0.103
-318.026	800.000	0.040	0.131
-317.012	-93.554	-0.069	-0.019
-315.997	5.111	-0.101	0.075
-314.983	-64.296	0.263	0.108
-313.968	140.636	0.093	0.123
-312.953	-36.579	-0.393	-0.213
-311.939	774.487	0.050	-0.136
-310.924	-200.000	0.006	0.307
-309.910	-94.677	-0.290	-0.079
-308.895	-152.092	0.133	0.010
-307.880	-200.000	0.035	0.354
-306.866	800.000	-0.076	0.289
-305.851	657.102	0.088	-0.228
-304.837	-22.569	-0.146	-0.089
-303.822	-128.125	0.181	-0.026
-302.807	133.624	0.066	-0.085
-301.793	38.495	-0.106	0.095
-300.778	-83.770	-0.280	0.090
-299.764	499.009	0.084	0.194
-298.749	-181.291	0.378	0.008
-297.735	93.819	-0.101	-0.115
-296.720	800.000	0.054	0.171
-295.705	-200.000	0.061	0.375
-294.691	-41.416	0.281	-0.145
-293.676	-200.000	0.020	0.250
-292.662	361.664	-0.217	0.437
-291.647	-200.000	0.036	-0.231
-290.632	800.000	0.034	0.102
-289.618	-200.000	-0.012	-0.063
-288.603	249.304	0.207	-0.353
-287.589	109.461	-0.129	-0.155
-286.574	-200.000	-0.035	-0.156
-285.559	-106.091	0.387	0.087
-284.545	-200.000	-0.229	0.001
-283.530	-200.000	-0.007	-0.149
-282.516	-148.280	-0.087	-0.007
-281.501	-126.039	0.055	0.008
-280.486	-62.871	0.240	0.099
-279.472	57.682	-0.184	0.181
-278.457	-138.688	-0.191	-0.021
-277.443	-63.349	0.140	-0.058
-276.428	-115.811	-0.081	-0.015
-275.413	-101.736	0.422	0.103
-274.399	-93.707	0.203	0.056
-273.384	800.000	0.008	-0.031
-272.370	17.520	0.080	0.064
-271.355	-200.000	-0.013	-0.324
-270.340	696.731	-0.080	-0.210
-269.326	165.484	0.175	0.248
-268.311	28.004	-0.071	0.060
-267.297	-200.000	0.014	-0.331
-266.282	-121.450	-0.093	0.016
-265.267	76.154	0.064	0.068
-264.253	188.648	0.170	-0.255
-263.238	46.945	0.216	-0.201
-262.224	-78.228	0.351	-0.121
-261.209	88.731	-0.112	0.124
-260.195	-114.090	0.404	0.078
-259.180	-13.206	-0.175	0.114
-258.165	-142.435	0.238	-0.024
-257.151	-200.000	0.059	-0.279
-256.136	140.110	0.056	0.073
-255.122	-159.665	0.694	0.038
-254.107	50.897	-0.128	-0.122
-253.092	-22.653	-0.248	-0.150
-252.078	800.000	0.046	-0.171
-251.063	-134.680	-0.324	-0.040
-250.049	800.000	-0.080	0.258
-249.034	248.322	-0.216	-0.367
-248.019	-200.000	-0.039	-0.231
-247.005	30.452	-0.042	-0.036
-245.990	101.019	0.308	-0.359
-244.976	91.867	0.250	-0.282
-243.961	419.375	0.029	0.062
-242.946	296.631	-0.061	-0.111
-241.932	507.828	0.085	-0.197
-240.917	-200.000	-0.045	-0.216
-239.903	48.869	-0.100	-0.094
-238.888	58.925	-0.144	0.142
-237.873	34.830	-0.202	0.177
-236.859	268.934	0.236	-0.415
-235.844	-34.966	-0.288	0.157
-234.830	800.000	-0.080	0.316
-233.815	10.666	0.141	-0.107
-232.800	30.124	0.028	0.024
-231.786	800.000	0.071	0.239
-230.771	-136.792	-0.065	0.007
-229.757	-156.489	0.229	-0.014
-228.742	144.570	0.245	-0.327
-227.727	-15.323	-0.116	0.074
-226.713	-26.688	0.204	0.119
-225.698	8.083	-0.243	-0.182
-224.684	-199.472	-0.331	-0.002
-223.669	-75.242	0.257	-0.092
-222.655	19.839	0.134	-0.108
-221.640	-135.038	-0.321	-0.039
-220.625	114.025	0.188	0.229
-219.611	-176.196	0.065	-0.002
-218.596	-91.348	0.203	0.058
-217.582	-167.849	-0.330	0.013
-216.567	150.449	0.046	0.063
-215.552	121.078	0.172	-0.214
-214.538	-75.006	0.223	0.080
-213.523	-200.000	-0.015	-0.185
-212.509	-116.781	0.328	0.060
-211.494	672.586	0.094	-0.245
-210.479	-77.546	0.158	0.055
-209.465	-46.677	0.333	-0.163
-208.450	-187.913	0.107	0.001
-207.436	121.632	-0.027	0.034
-206.421	46.387	0.034	-0.031
-205.406	-166.807	-0.117	0.005
-204.392	253.989	-0.159	0.272
-203.377	0.752	0.073	0.053
-202.363	-200.000	0.004	-0.078
-201.348	800.000	-0.073	0.266
-200.333	-95.681	0.253	0.068
-199.319	800.000	-0.050	-0.166
-198.304	142.831	0.025	0.033
-197.290	-34.189	0.066	-0.036
-196.275	555.441	-0.069	-0.167
-195.260	21.959	0.112	0.091
-194.246	-64.533	-0.010	0.004
-193.231	275.644	-0.175	0.310
-192.217	113.802	-0.191	0.232
-191.202	-200.000	0.029	-0.134
-190.187	-131.370	-0.356	0.047
-189.173	-126.786	-0.383	0.057
-188.158	516.226	-0.157	-0.368
-187.144	-81.514	0.114	0.037
-186.129	-66.842	-0.101	0.040
-185.114	58.519	-0.074	-0.073
-184.100	-200.000	0.044	0.215
-183.085	-102.683	0.062	-0.015
-182.071	-94.241	0.297	-0.081
-181.056	-61.132	0.350	0.148
-180.042	-28.559	0.107	-0.062
-179.027	79.060	-0.119	-0.128
-178.012	-125.548	-0.392	0.060
-176.998	118.007	-0.111	-0.136
-175.983	-200.000	0.003	-0.060
-174.969	-200.000	0.046	0.219
-173.954	5.018	0.093	-0.069
-172.939	153.824	-0.219	-0.300
-171.925	-200.000	-0.031	0.264
-170.910	800.000	-0.027	-0.074
-169.896	-123.879	0.276	-0.043
-168.881	157.194	-0.197	0.272
-167.866	800.000	0.027	-0.113
-166.852	-148.426	0.216	-0.018
-165.837	800.000	-0.059	0.163
-164.823	550.908	0.078	0.187
-163.808	79.551	-0.212	-0.228
-162.793	524.799	0.049	-0.116
-161.779	122.012	0.115	-0.144
-160.764	-131.529	-0.153	-0.020
-159.750	624.374	0.050	0.125
-158.735	88.075	0.083	0.092
-157.720	117.573	-0.229	0.281
-156.706	46.954	-0.239	-0.222
-155.691	-30.888	-0.118	-0.067
-154.677	-163.122	-0.356	0.017
-153.662	-80.116	0.150	-0.050
-152.647	-106.759	0.127	0.028
-151.633	-111.062	-0.117	0.024
-150.618	-122.502	-0.133	0.022
-149.604	-146.240	0.348	0.030
-148.589	-69.905	0.165	0.063
-147.574	18.187	-0.080	-0.063
-146.560	31.297	-0.128	-0.110
-145.545	-25.902	-0.190	-0.112
-144.531	-34.567	0.222	0.121
-143.516	118.976	-0.284	0.350
-142.502	105.959	-0.093	0.110
-141.487	338.622	-0.211	-0.411
-140.472	-185.157	0.244	0.004
-139.458	-53.204	0.380	-0.174
-138.443	718.346	-0.095	0.252
-137.429	-36.592	0.406	-0.218
-136.414	-84.547	0.092	0.029
-135.399	-133.223	0.053	0.007
-134.385	-200.000	0.038	-0.241
-133.370	85.159	0.029	-0.032
-132.356	-192.735	0.088	-0.001
-131.341	-51.827	0.170	-0.079
-130.326	158.060	-0.102	0.141
-129.312	-200.000	-0.024	0.248
-128.297	-110.718	0.482	0.099
-127.283	800.000	0.025	0.093
-126.268	-200.000	-0.007	-0.075
-125.253	-150.219	0.147	-0.011
-124.239	-200.000	-0.030	0.189
-123.224	504.880	0.068	-0.157
-122.210	-200.000	-0.002	-0.204
-121.195	63.269	-0.182	0.182
-120.180	-92.547	0.126	0.035
-119.166	149.942	-0.141	0.191
-118.151	-58.961	0.244	0.105
-117.137	800.000	0.122	0.408
-116.122	314.059	0.110	0.206
-115.107	-200.000	0.004	-0.262
-114.093	80.005	-0.198	0.213
-113.078	-98.513	0.073	0.019
-112.064	800.000	0.036	0.124
-111.049	23.794	0.114	0.094
-110.034	107.330	0.258	0.306
-109.020	-130.201	0.488	-0.066
-108.005	781.334	0.096	-0.261
-106.991	409.208	-0.186	0.394
-105.976	-89.100	-0.230	0.068
-104.962	-111.186	0.299	0.061
-103.947	-62.956	-0.418	0.172
-102.932	-95.114	-0.403	-0.108
-101.918	88.580	0.164	0.181
-100.903	800.000	0.033	-0.125
-99.889	-192.327	-0.372	0.003
-98.874	71.364	-0.073	-0.075
-97.859	209.774	-0.130	0.202
-96.845	-200.000	-0.025	-0.116
-95.830	147.184	0.214	-0.286
-94.816	99.574	0.143	-0.165
-93.801	621.371	-0.080	-0.200
-92.786	71.635	0.177	-0.183
-91.772	-38.077	0.197	0.104
-90.757	505.764	-0.060	-0.138
-89.743	-63.657	0.115	-0.047
-88.728	-102.705	-0.057	-0.014
-87.713	-200.000	0.019	0.378
-86.699	-188.240	0.122	0.002
-85.684	35.774	-0.138	0.121
-84.670	254.808	0.034	0.058
-83.655	123.595	0.183	-0.229
-82.640	-200.000	-0.038	-0.371
-81.626	221.333	0.138	-0.221
-80.611	-117.277	0.153	0.028
-79.597	-185.288	0.314	0.005
-78.582	-200.000	0.027	0.160
-77.567	-200.000	0.069	-0.319
-76.553	7.079	-0.147	0.109
-75.538	-67.652	-0.283	0.110
-74.524	132.088	-0.149	-0.191
-73.509	-111.235	0.065	0.013
-72.494	98.417	0.031	-0.035
-71.480	8.687	-0.110	-0.082
-70.465	29.989	0.099	0.084
-69.451	-200.000	-0.021	0.260
-68.436	381.251	0.109	0.223
-67.422	137.762	0.058	-0.075
-66.407	-67.578	0.081	0.032
-65.392	-79.147	-0.234	0.079
-64.378	-28.807	0.152	0.087
-63.363	800.000	-0.077	0.215
-62.349	-200.000	0.043	0.221
-61.334	53.408	-0.742	-0.708
-60.319	-8.638	0.412	0.275
-59.305	-200.000	-0.116	-0.826
-58.290	533.468	0.405	0.953
-57.276	684.967	0.679	1.764
-56.261	-200.000	80.779	498.780
-55.246	479.544	1365.662	3078.154
-54.232	143.397	2606.375	3450.785
-53.217	110.677	2259.213	2702.198
-52.203	49.542	1706.217	1597.370
-51.188	42.112	1434.376	1295.021
-50.173	38.768	1389.981	1233.893
-49.159	56.170	1429.982	1380.672
-48.144	61.056	1448.768	1429.911
-47.130	42.542	1408.457	1274.151
-46.115	38.858	1391.209	1235.356
-45.100	38.586	1386.535	1229.449
-44.086	38.499	1384.256	1226.835
-43.071	38.506	1381.855	1224.701
-42.057	38.563	1379.184	1222.640
-41.042	38.598	1377.554	1221.364
-40.027	38.546	1376.688	1220.226
-39.013	38.528	1374.628	1218.241
-37.998	38.565	1373.035	1217.010
-36.984	38.704	1370.653	1215.712
-35.969	38.725	1368.955	1214.289
-34.954	38.773	1367.245	1213.017
-33.940	38.929	1365.185	1212.106
-32.925	38.807	1364.745	1210.917
-31.911	38.891	1362.776	1209.636
-30.896	38.791	1361.325	1207.687
-29.881	38.832	1359.790	1206.528
-28.867	38.866	1358.423	1205.477
-27.852	38.776	1356.809	1203.444
-26.838	38.782	1355.463	1202.239
-25.823	38.871	1353.520	1201.014
-24.809	38.727	1352.628	1199.296
-23.794	38.888	1350.856	1198.658
-22.779	38.883	1349.294	1197.196
-21.765	38.913	1348.137	1196.302
-20.750	38.755	1347.223	1194.483
-19.736	38.679	1345.907	1192.804
-18.721	38.547	1344.855	1191.021
-17.706	38.590	1343.165	1189.740
-16.692	38.663	1342.036	1189.137
-15.677	38.705	1341.124	1188.533
-14.663	38.672	1340.188	1187.457
-13.648	38.587	1338.777	1185.645
-12.633	38.679	1338.090	1185.545
-11.619	38.670	1336.909	1184.402
-10.604	38.685	1335.845	1183.500
-9.590	38.702	1334.999	1182.807
-8.575	38.556	1334.325	1181.282
-7.560	38.607	1333.045	1180.411
-6.546	38.630	1332.358	1179.894
-5.531	38.704	1331.097	1179.172
-4.517	38.560	1330.498	1177.729
-3.502	38.795	1329.177	1177.928
-2.487	38.692	1328.464	1176.631
-1.473	38.810	1324.688	1173.944
-0.458	37.808	1309.504	1154.508
0.556	32.608	1290.539	1113.439
1.571	28.584	1295.153	1093.398
2.586	27.317	1309.722	1097.962
3.600	26.061	1299.320	1081.620
4.615	22.345	1226.778	1000.065
5.629	16.428	1149.978	905.754
6.644	13.393	1128.411	872.708
7.659	13.139	1125.582	869.105
8.673	13.109	1124.379	867.943
9.688	13.039	1122.843	866.312
10.702	13.404	1121.546	867.147
11.717	17.055	1126.735	890.270
12.731	21.098	1131.589	915.275
13.746	19.989	1128.946	907.249
14.761	17.624	1125.335	891.903
15.775	16.496	1122.791	883.914
16.790	15.442	1120.446	876.490
17.804	14.702	1118.936	871.369
18.819	14.179	1117.994	867.831
19.834	13.889	1116.267	864.904
20.848	13.685	1115.561	863.221
21.863	13.324	1114.333	860.315
22.877	13.206	1113.905	859.298
23.892	13.286	1113.103	859.014
24.907	13.241	1111.860	857.747
25.921	13.175	1111.123	856.763
26.936	13.255	1110.171	856.363
27.950	13.350	1108.394	855.412
28.965	13.385	1106.973	854.421
29.980	13.444	1105.167	853.252
30.994	13.489	1103.827	852.378
32.009	13.524	1102.572	851.512
33.023	13.350	1101.847	849.982
34.038	13.383	1100.803	849.272
35.053	13.214	1100.171	847.842
36.067	13.364	1099.035	847.657
37.082	13.405	1098.121	847.090
38.096	13.418	1097.365	846.499
39.111	13.427	1096.583	845.864
40.126	13.406	1094.888	844.375
41.140	13.229	1093.910	842.646
42.155	13.100	1093.160	841.337
43.169	13.162	1091.667	840.426
44.184	13.256	1090.276	839.761
45.199	13.171	1089.568	838.710
46.213	13.272	1088.541	838.357
47.228	13.399	1086.903	837.661
48.242	13.313	1085.980	836.445
49.257	13.368	1085.150	836.009
50.271	13.325	1084.210	834.992
51.286	13.412	1083.483	834.796
52.301	13.337	1082.449	833.548
53.315	13.183	1081.446	831.926
54.330	13.225	1080.288	831.176
55.344	13.275	1079.406	830.673
56.359	13.190	1078.699	829.627
57.374	13.292	1077.388	829.056
58.388	13.004	1077.095	827.314
59.403	13.084	1075.679	826.555
60.417	13.119	1074.820	825.996
61.432	13.108	1073.805	825.091
62.447	13.088	1073.530	824.703
63.461	12.970	1072.771	823.458
64.476	12.993	1071.324	822.389
65.490	13.085	1070.803	822.377
66.505	13.099	1069.971	821.732
67.520	13.130	1069.490	821.448
68.534	13.186	1068.307	820.742
69.549	13.179	1067.667	820.145
70.563	13.104	1067.117	819.276
71.578	13.013	1066.182	818.034
72.593	12.922	1065.600	817.069
73.607	13.143	1064.612	817.329
74.622	13.068	1064.026	816.435
75.636	12.874	1063.806	815.236
76.651	13.006	1062.349	814.698
77.666	13.059	1061.808	814.477
78.680	13.116	1061.444	814.407
79.695	13.061	1060.955	813.688
80.709	13.124	1059.963	813.162
81.724	13.066	1059.496	812.446
82.739	13.261	1058.657	812.689
83.753	13.244	1057.838	811.907
84.768	13.295	1056.850	811.327
85.782	13.371	1055.904	810.902
86.797	13.360	1054.910	810.014
87.812	13.376	1053.962	809.290
88.826	13.307	1053.020	808.160
89.841	13.415	1051.663	807.574
90.855	13.279	1051.431	806.660
91.870	13.431	1050.364	806.509
92.884	13.411	1049.344	805.560
93.899	13.498	1048.537	805.290
94.914	13.540	1047.763	804.832
95.928	13.559	1046.840	804.141
96.943	13.480	1045.656	802.778
97.957	13.365	1045.110	801.731
98.972	13.366	1044.368	801.094
99.987	13.404	1043.460	800.512
101.001	13.496	1042.052	799.807
102.016	13.418	1041.394	798.851
103.030	13.486	1040.622	798.518
104.045	13.366	1039.893	797.309
105.060	13.240	1039.068	796.000
106.074	13.334	1037.328	795.051
107.089	13.273	1036.448	794.010
108.103	13.176	1035.603	792.828
109.118	13.193	1034.485	791.986
110.133	13.135	1033.567	790.932
111.147	13.288	1032.842	791.042
112.162	13.195	1032.369	790.161
113.176	13.254	1031.277	789.539
114.191	13.377	1030.399	789.384
115.206	13.384	1029.781	788.875
116.220	13.302	1028.855	787.706
117.235	13.350	1027.695	786.976
118.249	13.242	1027.005	785.865
119.264	13.230	1026.366	785.246
120.279	13.282	1025.096	784.454
121.293	13.068	1024.506	782.919
122.308	13.169	1023.398	782.479
123.322	13.265	1022.072	781.853
124.337	13.084	1021.338	780.366
125.352	13.348	1019.829	780.389
126.366	13.233	1019.127	779.242
127.381	13.221	1018.236	778.432
128.395	13.318	1016.737	777.675
129.410	13.247	1016.341	776.971
130.424	13.231	1015.372	776.086
131.439	13.419	1014.779	776.445
132.454	13.445	1013.884	775.814
133.468	13.392	1013.305	775.053
134.483	13.369	1012.300	774.106
135.497	13.403	1011.456	773.555
136.512	13.441	1010.468	772.905
137.527	13.457	1009.737	772.356
138.541	13.471	1008.939	771.741
139.556	13.443	1008.390	771.124
140.570	13.419	1007.637	770.366
141.585	13.569	1006.600	770.206
142.600	13.573	1005.449	769.271
143.614	13.525	1004.848	768.522
144.629	13.584	1003.743	767.882
145.643	13.552	1003.086	767.163
146.658	13.505	1002.015	766.057
147.673	13.504	1000.943	765.168
148.687	13.392	1000.480	764.227
149.702	13.430	999.312	763.442
150.716	13.405	998.403	762.567
151.731	13.381	997.665	761.824
152.746	13.427	997.093	761.531
153.760	13.485	996.335	761.155
154.775	13.580	995.908	761.197
155.789	13.579	995.240	760.614
156.804	13.504	994.518	759.649
157.819	13.482	994.080	759.150
158.833	13.628	993.302	759.156
159.848	13.727	992.221	758.714
160.862	13.736	990.742	757.557
161.877	13.611	990.161	756.477
162.892	13.590	988.885	755.337
163.906	13.393	988.045	753.734
164.921	13.552	987.253	753.786
165.935	13.607	986.570	753.449
166.950	13.571	985.496	752.396
167.964	13.492	984.672	751.343
168.979	13.361	983.821	750.033
169.994	13.549	982.751	750.001
171.008	13.598	982.010	749.590
172.023	13.852	981.032	749.927
173.037	13.770	980.153	748.817
174.052	13.653	980.141	748.214
175.067	13.614	979.463	747.458
176.081	13.594	978.486	746.555
177.096	13.655	977.988	746.381
178.110	13.625	977.559	745.855
179.125	13.704	976.613	745.423
180.140	13.688	976.256	745.012
181.154	13.771	976.098	745.197
182.169	13.840	975.227	744.775
183.183	13.924	974.231	744.328
184.198	13.813	973.512	743.212
185.213	13.969	972.861	743.347
186.227	13.859	972.078	742.192
187.242	13.971	971.719	742.356
188.256	13.920	971.118	741.600
189.271	13.919	970.101	740.756
190.286	13.767	969.295	739.394
191.300	13.737	968.483	738.578
192.315	13.624	968.103	737.721
193.329	13.729	967.400	737.587
194.344	13.746	966.471	736.887
195.359	13.888	965.879	737.002
196.373	13.918	965.524	736.800
197.388	14.016	965.219	736.937
198.402	14.118	964.305	736.622
199.417	14.058	964.135	736.162
200.432	14.081	963.484	735.704
201.446	14.202	962.594	735.491
202.461	14.138	962.365	734.968
203.475	14.132	961.824	734.466
204.490	14.123	960.544	733.382
205.504	14.114	959.671	732.611
206.519	14.123	958.863	731.972
207.534	14.150	958.169	731.494
208.548	14.145	957.694	731.047
209.563	14.126	956.960	730.337
210.577	14.156	956.425	729.996
211.592	14.059	955.528	728.821
212.607	14.275	954.669	729.048
213.621	14.326	953.690	728.457
214.636	14.220	953.428	727.731
215.650	14.211	952.677	727.055
216.665	14.330	951.971	726.971
217.680	14.407	951.184	726.639
218.694	14.414	950.141	725.811
219.709	14.296	950.098	725.197
220.723	14.376	949.218	724.809
221.738	14.390	948.680	724.398
222.753	14.485	947.546	723.880
223.767	14.618	946.837	723.848
224.782	14.543	946.117	722.912
225.796	14.427	945.911	722.187
226.811	14.397	945.060	721.343
227.826	14.461	944.165	720.873
228.840	14.434	943.536	720.213
229.855	14.473	942.409	719.456
230.869	14.465	941.748	718.852
231.884	14.422	940.905	717.962
232.899	14.436	940.396	717.569
233.913	14.418	939.348	716.631
234.928	14.387	939.238	716.351
235.942	14.562	938.401	716.400
236.957	14.401	938.157	715.458
237.972	14.285	937.293	714.236
238.986	14.465	936.467	714.316
240.001	14.461	935.799	713.725
241.015	14.531	935.388	713.650
242.030	14.547	934.646	713.091
243.045	14.545	933.900	712.446
244.059	14.508	933.537	711.950
245.074	14.619	932.904	711.878
246.088	14.666	931.969	711.303
247.103	14.681	931.357	710.834
248.117	14.660	931.294	710.636
249.132	14.812	930.409	710.542
250.147	14.922	929.638	710.359
251.161	14.808	929.046	709.359
252.176	15.082	927.900	709.583
253.190	14.924	927.657	708.667
254.205	14.995	926.939	708.356
255.220	14.909	926.195	707.361
256.234	14.941	925.773	707.110
257.249	14.973	925.009	706.601
258.263	15.044	924.127	706.163
259.278	15.020	923.526	705.538
260.293	15.104	922.713	705.210
261.307	15.052	922.258	704.583
262.322	15.124	921.887	704.537
263.336	15.144	921.183	704.021
264.351	15.173	919.935	703.128
265.366	15.222	919.435	702.888
266.380	15.226	918.766	702.331
267.395	15.148	917.908	701.289
268.409	15.205	917.054	700.812
269.424	15.274	916.355	700.503
270.439	15.219	915.483	699.544
271.453	15.128	915.321	698.980
272.468	15.012	915.156	698.308
273.482	15.020	914.169	697.528
274.497	15.156	913.223	697.310
275.512	15.163	912.847	696.990
276.526	15.161	911.975	696.253
277.541	15.220	911.917	696.393
278.555	15.262	911.018	695.821
279.570	15.237	910.519	695.272
280.585	15.361	909.600	695.023
281.599	15.393	908.591	694.323
282.614	15.351	907.936	693.589
283.628	15.155	907.839	692.641
284.643	15.302	906.846	692.430
285.657	15.345	906.279	692.115
286.672	15.432	905.329	691.687
287.687	15.398	904.849	691.115
288.701	15.395	904.424	690.720
289.716	15.475	903.790	690.504
290.730	15.461	903.170	689.909
291.745	15.362	902.660	689.054
292.760	15.588	901.885	689.326
293.774	15.570	901.595	688.971
294.789	15.520	900.617	687.959
295.803	15.373	899.941	686.781
296.818	15.499	899.339	686.773
297.833	15.483	898.560	686.052
298.847	15.448	898.375	685.710
299.862	15.469	897.413	684.999
300.876	15.504	897.182	684.903
301.891	15.758	896.231	685.155
302.906	15.699	895.323	684.159
303.920	15.790	894.670	683.968
304.935	15.827	894.252	683.739
305.949	15.715	893.804	682.881
306.964	15.622	893.301	682.057
307.979	15.813	892.461	682.130
308.993	15.935	891.561	681.878
310.008	15.845	891.064	681.074
311.022	15.730	890.494	680.111
312.037	15.689	890.030	679.532
313.052	15.761	889.592	679.426
314.066	15.606	888.985	678.277
315.081	15.756	888.112	678.158
316.095	15.646	887.708	677.347
317.110	15.619	886.921	676.575
318.125	15.804	886.343	676.818
319.139	15.944	885.987	677.053
320.154	15.865	885.446	676.260
321.168	15.953	884.647	675.944
322.183	15.785	884.449	675.057
323.197	15.812	884.057	674.808
324.212	15.874	883.289	674.410
325.227	15.813	882.741	673.687
326.241	15.872	882.246	673.488
327.256	15.823	881.575	672.717
328.270	15.851	881.090	672.401
329.285	15.930	880.309	672.062
330.300	15.903	879.828	671.525
331.314	15.858	879.178	670.791
332.329	15.863	879.133	670.717
333.343	16.086	878.374	670.966
334.358	15.863	877.943	669.689
335.373	16.003	877.293	669.691
336.387	16.032	877.105	669.604
337.402	16.130	876.884	669.767
338.416	16.216	876.376	669.660
339.431	16.211	876.251	669.485
340.446	16.216	875.673	669.004
341.460	16.230	874.864	668.381
342.475	16.235	874.824	668.311
343.489	16.342	873.864	667.943
344.504	16.388	873.831	668.041
345.519	16.351	873.046	667.234
346.533	16.358	872.373	666.688
347.548	16.318	871.949	666.149
348.562	16.282	871.425	665.546
349.577	16.146	871.075	664.687
350.592	16.202	870.304	664.259
351.606	16.165	869.642	663.548
352.621	16.311	868.698	663.345
353.635	16.319	868.325	663.031
354.650	16.284	867.731	662.384
355.665	16.354	867.028	662.061
356.679	16.412	866.260	661.643
357.694	16.434	865.595	661.164
358.708	16.314	865.136	660.284
359.723	16.326	864.464	659.759
360.738	16.572	863.768	660.130
361.752	16.418	863.248	659.074
362.767	16.467	862.619	658.728
363.781	16.529	862.143	658.545
364.796	16.557	861.639	658.213
365.810	16.516	861.442	657.845
366.825	16.636	860.993	657.911
367.840	16.730	860.466	657.814
368.854	16.688	859.782	657.071
369.869	16.684	859.441	656.734
370.883	16.630	859.102	656.210
371.898	16.783	858.573	656.338
372.913	16.857	858.315	656.370
373.927	16.799	857.588	655.533
374.942	16.745	857.256	655.012
375.956	16.729	856.891	654.615
376.971	16.829	856.233	654.440
377.986	16.689	856.245	653.850
379.000	16.968	855.303	654.148
380.015	16.880	854.949	653.480
381.029	16.871	854.387	652.957
382.044	16.886	853.436	652.231
383.059	17.051	852.918	652.413
384.073	17.029	852.189	651.712
385.088	16.993	851.555	651.033
386.102	16.938	850.919	650.276
387.117	16.825	850.586	649.531
388.132	16.738	850.438	649.027
389.146	16.899	849.625	648.967
390.161	17.019	849.114	648.978
391.175	16.930	848.587	648.177
392.190	17.064	847.869	648.083
393.205	17.043	847.217	647.448
394.219	16.920	846.983	646.741
395.234	16.947	846.498	646.416
396.248	17.080	845.873	646.390
397.263	17.013	845.323	645.657
398.278	16.877	845.376	645.122
399.292	16.916	845.020	644.943
400.307	17.009	843.784	644.297
401.321	16.952	843.884	644.096
402.336	17.176	843.173	644.348
403.350	17.070	843.025	643.775
404.365	16.924	842.499	642.763
405.380	17.155	842.005	643.206
406.394	17.204	841.484	642.938
407.409	17.173	841.106	642.473
408.423	17.365	840.572	642.734
409.438	17.363	840.424	642.555
410.453	17.482	839.545	642.277
411.467	17.460	838.995	641.715
412.482	17.502	838.534	641.466
413.496	17.600	838.295	641.595
414.511	17.336	838.170	640.446
415.526	17.413	837.508	640.174
416.540	17.427	836.918	639.720
417.555	17.495	836.410	639.532
418.569	17.403	836.220	638.981
419.584	17.507	835.506	638.773
420.599	17.683	835.066	639.040
421.613	95.902	1276.933	1402.767
422.628	82.921	1341.318	1402.888
