DTS Sentinel unit serial number:	SN413079Multiplexer serial number:	ORYXHardware model number:	OX4-SRSoftware version number:	ORYX F/W v4.00 Oryx Data Collector v3.7.2.0data status	okinstallation	princeton_trtdifferential loss correction	single-endedforward channel	channel 1reverse channel	N/Adate	2019/09/13time	16:34:35forward acquisition time	60.00reverse acquisition time	0.00gamma	496.2192k internal	0.2304k external	0.2304temperature offset calibration	1.0163default loss term (dB/km)	0.3790temperature slope calibration	1.0000multiplexer offset coefficient	1.0000multiplexer slope coefficient	1.0000fibre end	0.00T internal ref (°C)	35.06T ext. ref 1 (°C)	4.89T ext. ref 2 (°C)	30.18length (m)	temperature (°C)	Stokes	anti-Stokes-747.200	36.210	-0.198	-0.178
-746.185	800.000	0.072	-0.220
-745.171	-200.000	0.005	0.074
-744.156	-32.580	-0.410	0.232
-743.142	59.188	0.072	0.072
-742.127	648.793	-0.033	0.087
-741.112	800.000	-0.053	0.153
-740.098	432.859	-0.144	0.318
-739.083	-69.031	0.326	0.128
-738.069	68.847	0.077	-0.081
-737.054	-93.659	0.426	0.120
-736.039	-85.678	0.042	-0.013
-735.025	-78.600	0.038	0.013
-734.010	4.419	-0.137	0.102
-732.996	161.016	-0.204	-0.291
-731.981	463.479	0.127	0.289
-730.966	-59.631	-0.215	-0.094
-729.952	-26.535	-0.287	0.171
-728.937	800.000	-0.091	0.360
-727.923	293.295	0.128	0.238
-726.908	-80.964	-0.241	-0.081
-725.894	48.774	-0.201	-0.192
-724.879	-120.835	0.304	0.052
-723.864	-200.000	-0.003	0.278
-722.850	800.000	-0.048	-0.167
-721.835	49.334	0.053	-0.051
-720.821	-200.000	-0.032	0.170
-719.806	-93.789	-0.116	0.033
-718.791	-45.251	-0.231	0.117
-717.777	91.281	-0.155	0.177
-716.762	49.154	-0.276	-0.264
-715.748	114.650	-0.077	-0.095
-714.733	1.822	-0.213	0.156
-713.718	-72.002	0.105	0.040
-712.704	-90.580	0.218	0.064
-711.689	251.410	-0.070	0.121
-710.675	170.614	-0.119	0.174
-709.660	577.792	0.078	-0.195
-708.645	79.651	0.138	0.151
-707.631	-66.415	-0.264	0.107
-706.616	-118.127	-0.241	-0.044
-705.602	483.646	0.032	-0.075
-704.587	219.954	0.061	0.100
-703.572	-113.125	0.260	-0.052
-702.558	-93.903	0.344	-0.096
-701.543	-187.266	0.055	0.001
-700.529	158.304	0.100	-0.141
-699.514	-5.633	-0.128	0.089
-698.499	79.610	0.257	0.280
-697.485	-22.319	0.091	-0.056
-696.470	512.154	0.046	0.109
-695.456	363.394	0.121	0.247
-694.441	-6.575	0.228	0.158
-693.426	228.660	0.114	0.189
-692.412	-132.318	-0.426	0.056
-691.397	-115.730	-0.223	0.042
-690.383	-75.865	-0.132	-0.047
-689.368	78.307	-0.070	-0.076
-688.354	40.375	-0.193	0.176
-687.339	-7.981	0.112	-0.077
-686.324	157.054	0.095	0.133
-685.310	24.826	0.222	-0.187
-684.295	-117.161	-0.218	0.040
-683.281	800.000	-0.082	-0.250
-682.266	-113.677	-0.061	0.012
-681.251	-200.000	0.005	0.102
-680.237	205.446	0.046	-0.072
-679.222	-179.715	-0.156	0.003
-678.208	38.536	-0.132	0.120
-677.193	552.967	0.052	-0.128
-676.178	-24.611	-0.086	-0.052
-675.164	-200.000	0.002	0.040
-674.149	220.425	-0.154	0.251
-673.135	-200.000	-0.032	-0.180
-672.120	800.000	-0.047	-0.190
-671.105	800.000	-0.108	-0.307
-670.091	52.236	-0.210	0.203
-669.076	790.393	-0.069	-0.191
-668.062	270.627	-0.185	-0.330
-667.047	-103.600	0.431	-0.103
-666.032	784.145	0.103	0.285
-665.018	-5.653	-0.214	0.149
-664.003	-200.000	0.026	0.183
-662.989	-200.000	-0.011	0.293
-661.974	490.674	-0.088	0.204
-660.959	-200.000	0.062	-0.377
-659.945	70.034	0.172	-0.181
-658.930	-51.866	0.229	-0.108
-657.916	681.486	-0.140	-0.370
-656.901	11.811	-0.270	0.210
-655.886	441.637	-0.074	0.164
-654.872	124.223	-0.031	-0.040
-653.857	-66.660	-0.122	-0.049
-652.843	-200.000	0.011	0.101
-651.828	800.000	0.070	0.295
-650.814	132.913	0.129	-0.169
-649.799	-200.000	0.048	-0.407
-648.784	-32.194	-0.229	-0.130
-647.770	426.781	0.052	-0.113
-646.755	139.476	-0.094	0.126
-645.741	-64.480	0.073	-0.030
-644.726	800.000	0.125	0.397
-643.711	416.328	0.109	-0.236
-642.697	202.336	-0.122	-0.191
-641.682	18.007	-0.179	0.145
-640.668	-81.056	-0.206	0.069
-639.653	-57.335	-0.328	-0.146
-638.638	234.209	0.029	0.048
-637.624	-57.158	-0.049	0.022
-636.609	-200.000	-0.071	-0.334
-635.595	51.387	0.104	-0.100
-634.580	194.138	0.051	0.079
-633.565	-200.000	0.007	0.089
-632.551	800.000	0.028	0.093
-631.536	-75.039	0.289	0.105
-630.522	-63.199	0.049	0.021
-629.507	-10.775	-0.264	-0.177
-628.492	-200.000	-0.017	-0.226
-627.478	-68.633	0.288	-0.113
-626.463	324.362	-0.045	-0.086
-625.449	317.089	0.138	-0.263
-624.434	-200.000	0.003	0.240
-623.419	-160.014	0.202	0.011
-622.405	-121.690	0.148	-0.025
-621.390	627.070	0.039	0.099
-620.376	17.890	-0.059	-0.048
-619.361	87.633	-0.305	-0.342
-618.346	345.022	0.164	0.326
-617.332	800.000	-0.135	0.519
-616.317	457.202	0.174	-0.391
-615.303	-200.000	0.008	0.183
-614.288	-40.236	-0.230	0.121
-613.273	-131.460	-0.283	0.038
-612.259	-23.695	-0.129	0.078
-611.244	122.295	-0.129	0.164
-610.230	147.081	0.133	0.181
-609.215	374.853	0.071	0.146
-608.201	214.608	0.038	-0.061
-607.186	-138.540	-0.183	-0.020
-606.171	-66.125	0.358	-0.145
-605.157	16.579	-0.026	-0.021
-604.142	-200.000	0.010	0.065
-603.128	-200.000	-0.035	-0.316
-602.113	800.000	0.141	0.405
-601.098	402.129	-0.077	0.163
-600.084	-48.698	-0.257	0.125
-599.069	504.526	0.077	-0.181
-598.055	120.214	-0.103	0.130
-597.040	-139.479	-0.070	-0.008
-596.025	-4.528	0.145	-0.102
-595.011	419.279	0.039	-0.085
-593.996	-200.000	-0.094	-0.436
-592.982	-3.072	-0.106	-0.075
-591.967	-153.697	-0.258	0.018
-590.952	60.994	0.237	0.238
-589.938	-110.621	-0.050	0.010
-588.923	-25.879	-0.149	-0.089
-587.909	112.431	-0.087	0.107
-586.894	800.000	0.082	-0.355
-585.879	12.539	-0.183	0.143
-584.865	347.959	-0.081	0.162
-583.850	800.000	0.143	0.430
-582.836	105.782	0.058	0.070
-581.821	87.783	0.204	-0.229
-580.806	-200.000	0.001	0.107
-579.792	-200.000	-0.008	-0.236
-578.777	3.010	0.173	0.127
-577.763	-9.264	-0.257	0.174
-576.748	362.121	-0.155	0.315
-575.733	65.415	-0.134	-0.138
-574.719	91.052	-0.055	-0.062
-573.704	800.000	-0.012	0.054
-572.690	11.849	-0.080	0.062
-571.675	-116.867	-0.012	-0.002
-570.661	-200.000	0.027	-0.149
-569.646	-59.395	0.194	-0.084
-568.631	18.143	-0.073	-0.059
-567.617	-132.572	-0.175	0.023
-566.602	-7.257	-0.326	-0.223
-565.588	-9.006	0.249	-0.169
-564.573	-128.737	0.210	-0.030
-563.558	800.000	0.067	0.206
-562.544	-126.207	-0.278	-0.042
-561.529	10.892	0.157	-0.121
-560.515	786.152	-0.020	0.056
-559.500	18.656	0.291	0.235
-558.485	384.718	0.064	-0.134
-557.471	-200.000	0.022	0.138
-556.456	-140.138	-0.247	-0.026
-555.442	-6.022	0.243	-0.168
-554.427	549.032	-0.031	0.074
-553.412	-200.000	-0.050	-0.242
-552.398	-80.674	-0.324	-0.109
-551.383	-181.774	0.329	-0.006
-550.369	-200.000	-0.007	0.336
-549.354	122.114	-0.358	0.452
-548.339	-85.623	0.208	-0.065
-547.325	-200.000	0.004	-0.041
-546.310	-167.757	0.190	0.008
-545.296	-200.000	-0.024	-0.197
-544.281	11.610	-0.076	0.059
-543.266	29.968	0.090	0.078
-542.252	-83.961	-0.206	0.066
-541.237	-200.000	-0.016	-0.080
-540.223	-29.942	0.178	0.102
-539.208	53.929	0.159	0.154
-538.193	-64.842	0.165	0.067
-537.179	-56.128	-0.202	-0.091
-536.164	283.809	-0.143	-0.259
-535.150	0.577	-0.033	0.024
-534.135	-84.537	0.109	-0.035
-533.121	-29.850	0.263	0.151
-532.106	12.687	0.137	0.107
-531.091	-137.278	-0.524	-0.060
-530.077	84.602	-0.068	0.075
-529.062	-119.304	0.238	0.042
-528.048	-155.297	0.127	-0.008
-527.033	800.000	-0.107	0.343
-526.018	27.263	0.108	-0.091
-525.004	58.011	0.304	-0.301
-523.989	-200.000	0.004	-0.386
-522.975	599.562	-0.085	-0.213
-521.960	-26.848	0.056	-0.033
-520.945	130.538	0.090	0.117
-519.931	737.195	0.078	-0.211
-518.916	-200.000	0.007	-0.388
-517.902	292.410	0.057	0.105
-516.887	579.204	0.128	0.315
-515.872	139.824	0.235	-0.312
-514.858	-200.000	0.240	-0.001
-513.843	280.306	0.116	0.210
-512.829	74.537	-0.178	-0.189
-511.814	800.000	-0.069	-0.218
-510.799	699.921	-0.084	0.224
-509.785	-36.486	0.270	-0.147
-508.770	406.748	0.103	-0.218
-507.756	-200.000	-0.005	-0.289
-506.741	380.148	-0.093	0.193
-505.726	800.000	0.079	-0.305
-504.712	21.263	0.258	-0.211
-503.697	673.173	0.059	0.155
-502.683	800.000	-0.050	0.140
-501.668	85.971	0.076	0.084
-500.653	800.000	-0.076	-0.266
-499.639	-1.975	-0.183	0.130
-498.624	-92.297	-0.377	0.107
-497.610	-109.669	0.533	-0.113
-496.595	-37.151	0.194	0.105
-495.581	127.310	0.223	0.285
-494.566	41.981	0.233	-0.213
-493.551	98.060	-0.257	0.298
-492.537	-156.598	0.133	0.008
-491.522	0.237	-0.081	0.058
-490.508	142.479	0.156	0.208
-489.493	2.169	0.211	-0.153
-488.478	445.962	0.138	-0.306
-487.464	-200.000	-0.019	-0.283
-486.449	-58.874	-0.123	0.054
-485.435	426.150	-0.064	-0.140
-484.420	800.000	0.041	-0.169
-483.405	44.423	-0.278	0.257
-482.391	-48.905	0.164	-0.079
-481.376	-180.220	-0.365	0.008
-480.362	308.917	-0.141	0.265
-479.347	-200.000	0.000	-0.141
-478.332	-200.000	0.079	0.460
-477.318	539.088	0.082	0.196
-476.303	800.000	-0.044	-0.158
-475.289	9.803	-0.198	-0.151
-474.274	72.866	-0.254	-0.267
-473.259	32.695	0.111	0.097
-472.245	274.283	0.182	0.325
-471.230	-24.180	0.108	0.065
-470.216	95.150	-0.280	0.321
-469.201	800.000	0.020	-0.081
-468.186	-0.135	-0.223	0.160
-467.172	-200.000	-0.034	-0.274
-466.157	540.098	0.068	-0.163
-465.143	5.608	-0.111	-0.083
-464.128	33.720	-0.142	0.124
-463.113	-52.730	-0.067	-0.031
-462.099	3.324	-0.291	0.213
-461.084	160.228	0.051	-0.072
-460.070	800.000	0.037	0.110
-459.055	44.795	-0.152	-0.141
-458.040	3.643	0.197	0.145
-457.026	-123.191	-0.154	0.025
-456.011	41.736	-0.138	0.126
-454.997	-65.809	0.190	0.076
-453.982	-86.936	-0.127	0.039
-452.968	582.869	-0.194	0.480
-451.953	64.264	-0.278	-0.282
-450.938	102.834	0.050	0.059
-449.924	53.979	-0.191	-0.185
-448.909	-96.011	-0.030	-0.008
-447.895	-200.000	0.004	-0.171
-446.880	103.070	0.128	-0.150
-445.865	-4.276	-0.071	0.050
-444.851	800.000	0.064	-0.212
-443.836	-200.000	-0.031	0.362
-442.822	437.450	0.047	-0.103
-441.807	-200.000	0.005	-0.124
-440.792	234.061	-0.044	0.073
-439.778	97.859	0.190	-0.220
-438.763	800.000	0.103	0.316
-437.749	-162.776	0.281	0.014
-436.734	124.308	-0.400	-0.506
-435.719	-161.884	-0.061	-0.003
-434.705	103.390	0.231	0.273
-433.690	313.538	0.119	-0.225
-432.676	-32.757	0.172	0.096
-431.661	190.038	-0.113	-0.171
-430.646	-44.397	-0.244	-0.123
-429.632	-40.221	0.296	0.155
-428.617	-200.000	-0.008	0.112
-427.603	-120.947	0.272	0.046
-426.588	-40.992	-0.195	0.102
-425.573	216.472	-0.162	0.259
-424.559	559.414	0.063	0.154
-423.544	-68.299	0.128	0.050
-422.530	358.002	-0.204	-0.409
-421.515	-200.000	0.068	-0.325
-420.500	-73.364	-0.097	-0.035
-419.486	-140.073	-0.337	0.036
-418.471	300.697	0.166	-0.308
-417.457	161.593	-0.136	-0.192
-416.442	171.286	0.064	-0.093
-415.428	-128.929	0.244	-0.034
-414.413	-200.000	0.081	0.386
-413.398	-200.000	0.035	0.419
-412.384	-144.254	0.171	0.016
-411.369	-200.000	0.013	-0.219
-410.355	-62.591	-0.163	-0.068
-409.340	-200.000	-0.192	-0.001
-408.325	-200.000	0.071	0.352
-407.311	31.710	0.114	-0.098
-406.296	269.101	-0.020	-0.036
-405.282	-200.000	0.002	-0.047
-404.267	-200.000	-0.044	0.427
-403.252	800.000	-0.011	-0.034
-402.238	-27.208	-0.180	-0.105
-401.223	-1.038	0.221	0.157
-400.209	537.707	0.102	-0.245
-399.194	-125.981	-0.159	-0.024
-398.179	-109.845	-0.324	0.068
-397.165	138.436	0.268	-0.353
-396.150	-105.822	-0.274	-0.062
-395.136	-200.000	-0.032	-0.146
-394.121	-14.188	0.295	-0.191
-393.106	14.332	0.167	0.131
-392.092	3.049	0.385	0.281
-391.077	-200.000	0.041	-0.203
-390.063	84.009	0.224	-0.246
-389.048	515.706	-0.091	0.213
-388.033	-25.223	-0.185	0.110
-387.019	56.835	0.205	0.200
-386.004	9.601	-0.160	0.121
-384.990	-103.579	-0.408	0.096
-383.975	-200.000	-0.057	0.371
-382.960	800.000	0.122	-0.429
-381.946	89.535	-0.022	-0.025
-380.931	31.541	0.070	0.060
-379.917	-200.000	0.027	-0.120
-378.902	62.083	0.237	-0.238
-377.888	-108.664	0.084	0.018
-376.873	800.000	-0.021	-0.083
-375.858	-14.663	-0.105	0.067
-374.844	-11.877	0.223	-0.147
-373.829	-200.000	0.041	0.241
-372.815	-39.599	-0.182	-0.096
-371.800	-200.000	-0.000	-0.142
-370.785	53.989	-0.137	0.132
-369.771	293.478	0.063	0.116
-368.756	72.487	0.253	0.265
-367.742	-200.000	-0.059	0.284
-366.727	626.953	-0.148	0.375
-365.712	52.452	0.070	-0.067
-364.698	248.036	-0.111	0.189
-363.683	394.345	-0.030	0.062
-362.669	-15.820	-0.220	-0.140
-361.654	392.689	0.152	0.318
-360.639	-200.000	0.013	0.072
-359.625	-63.920	0.127	0.052
-358.610	-40.727	-0.262	0.136
-357.596	437.942	0.015	-0.033
-356.581	50.152	-0.220	-0.209
-355.566	-196.989	0.227	-0.001
-354.552	-18.708	-0.192	-0.120
-353.537	-95.763	-0.152	0.041
-352.523	-118.557	-0.322	0.057
-351.508	-119.325	0.128	0.022
-350.493	800.000	-0.107	0.310
-349.479	-200.000	-0.031	0.198
-348.464	360.747	0.061	0.123
-347.450	26.720	-0.292	0.245
-346.435	84.845	-0.108	-0.118
-345.420	31.955	0.254	-0.219
-344.406	-200.000	-0.023	-0.256
-343.391	181.309	0.107	0.158
-342.377	-191.997	0.060	-0.001
-341.362	112.607	0.249	-0.302
-340.348	55.530	0.444	-0.431
-339.333	325.713	-0.045	0.087
-338.318	372.689	0.171	-0.349
-337.304	-38.902	-0.231	-0.122
-336.289	605.591	0.116	0.290
-335.275	31.631	0.196	-0.169
-334.260	-200.000	-0.005	0.292
-333.245	65.550	-0.154	0.156
-332.231	800.000	0.053	0.219
-331.216	-200.000	0.020	0.092
-330.202	523.508	0.127	0.298
-329.187	4.559	0.259	-0.191
-328.172	287.131	-0.124	0.224
-327.158	-147.394	0.406	-0.034
-326.143	2.321	-0.118	-0.086
-325.129	-200.000	0.007	-0.126
-324.114	-200.000	0.016	0.336
-323.099	100.490	0.300	0.349
-322.085	-91.467	0.109	0.031
-321.070	800.000	-0.085	-0.242
-320.056	138.404	0.179	0.235
-319.041	19.016	-0.269	0.216
-318.026	-116.815	-0.435	-0.080
-317.012	212.027	-0.079	0.125
-315.997	-79.623	-0.095	0.032
-314.983	-6.202	0.389	0.266
-313.968	51.576	-0.353	-0.336
-312.953	154.277	0.152	0.209
-311.939	-47.522	-0.278	-0.135
-310.924	-34.893	0.115	0.063
-309.910	800.000	0.061	-0.178
-308.895	-93.672	-0.524	-0.145
-307.880	-72.434	0.286	0.106
-306.866	62.825	0.221	0.222
-305.851	-200.000	0.003	0.114
-304.837	-37.908	-0.192	-0.102
-303.822	60.970	0.204	-0.203
-302.807	-185.068	-0.473	-0.007
-301.793	-160.795	0.252	-0.013
-300.778	85.010	0.015	-0.017
-299.764	-15.646	0.078	0.050
-298.749	-165.893	0.135	-0.006
-297.735	-186.161	-0.092	0.001
-296.720	-126.271	0.244	0.037
-295.705	-89.592	0.326	0.096
-294.691	38.414	0.283	0.253
-293.676	44.019	-0.176	0.162
-292.662	391.786	0.120	0.249
-291.647	800.000	-0.085	0.286
-290.632	98.744	0.143	-0.166
-289.618	173.328	0.098	-0.142
-288.603	47.724	0.147	-0.138
-287.589	-3.415	0.166	0.116
-286.574	340.414	-0.078	-0.152
-285.559	-200.000	-0.021	-0.122
-284.545	188.472	0.182	0.273
-283.530	-32.265	0.100	0.056
-282.516	-200.000	0.019	-0.266
-281.501	-200.000	0.015	-0.124
-280.486	131.867	-0.266	-0.342
-279.472	-75.783	0.135	0.048
-278.457	-70.848	0.251	-0.094
-277.443	155.047	-0.109	0.150
-276.428	-143.533	0.226	0.022
-275.413	103.871	0.083	0.098
-274.399	-93.038	-0.459	-0.128
-273.384	-200.000	-0.017	-0.097
-272.370	-200.000	0.001	-0.117
-271.355	-200.000	0.005	0.176
-270.340	-22.877	-0.199	-0.120
-269.326	625.313	-0.063	-0.158
-268.311	-200.000	0.069	-0.392
-267.297	800.000	-0.042	-0.134
-266.282	-62.608	-0.055	0.023
-265.267	-149.733	-0.094	-0.007
-264.253	-13.078	0.512	0.332
-263.238	-22.986	-0.193	0.116
-262.224	-55.972	-0.151	-0.067
-261.209	-147.830	-0.281	-0.023
-260.195	509.154	-0.048	0.110
-259.180	-200.000	-0.014	-0.387
-258.165	-59.328	-0.489	-0.210
-257.151	-200.000	-0.051	-0.359
-256.136	-28.180	-0.424	-0.245
-255.122	-5.370	0.153	-0.105
-254.107	-200.000	-0.019	-0.252
-253.092	44.518	0.120	0.110
-252.078	800.000	0.059	-0.167
-251.063	-66.085	-0.031	-0.012
-250.049	122.534	0.179	0.223
-249.034	62.205	-0.072	-0.071
-248.019	-72.046	0.029	0.011
-247.005	-41.662	0.285	0.146
-245.990	-93.154	-0.093	-0.026
-244.976	633.725	-0.129	-0.327
-243.961	121.611	-0.244	-0.304
-242.946	285.453	-0.011	-0.019
-241.932	-200.000	-0.010	0.198
-240.917	-67.270	-0.256	0.101
-239.903	93.270	-0.083	-0.093
-238.888	61.015	-0.123	0.122
-237.873	130.475	-0.145	-0.186
-236.859	-41.835	-0.221	0.113
-235.844	127.146	-0.199	-0.251
-234.830	-178.588	0.155	-0.004
-233.815	-59.950	0.174	0.074
-232.800	131.698	0.268	-0.344
-231.786	32.678	-0.315	0.272
-230.771	-139.053	-0.190	0.021
-229.757	-125.131	-0.115	-0.018
-228.742	-110.048	0.107	-0.022
-227.727	-200.000	0.004	0.111
-226.713	64.050	0.104	-0.105
-225.698	-200.000	-0.055	0.433
-224.684	105.965	-0.010	0.012
-223.669	-200.000	0.007	0.619
-222.655	-83.967	-0.110	0.035
-221.640	58.404	0.160	-0.157
-220.625	301.764	0.060	0.110
-219.611	-128.767	-0.109	-0.015
-218.596	-90.005	-0.234	0.068
-217.582	-200.000	0.007	0.192
-216.567	-89.260	0.198	-0.058
-215.552	153.704	-0.095	0.130
-214.538	15.487	0.220	-0.172
-213.523	-200.000	-0.015	-0.243
-212.509	111.198	0.048	-0.058
-211.494	-114.248	0.127	0.025
-210.479	-2.359	0.163	-0.114
-209.465	800.000	0.097	-0.321
-208.450	545.632	-0.063	0.150
-207.436	493.062	0.078	0.178
-206.421	46.353	0.229	-0.211
-205.406	-200.000	-0.001	-0.189
-204.392	396.598	0.037	0.076
-203.377	-136.538	-0.294	-0.034
-202.363	133.821	-0.074	0.096
-201.348	-29.921	0.204	0.116
-200.333	-119.096	0.285	0.050
-199.319	-22.114	0.258	0.156
-198.304	106.333	0.157	-0.185
-197.290	181.758	-0.100	-0.147
-196.275	683.141	0.095	-0.248
-195.260	800.000	-0.136	0.379
-194.246	63.095	-0.132	0.131
-193.231	734.368	0.024	0.064
-192.217	800.000	0.069	0.212
-191.202	-200.000	-0.000	0.255
-190.187	-100.709	-0.140	0.034
-189.173	-200.000	-0.004	0.414
-188.158	221.985	0.186	0.297
-187.144	800.000	0.052	-0.188
-186.129	46.655	-0.289	-0.267
-185.114	338.415	-0.159	-0.308
-184.100	-99.515	-0.261	0.065
-183.085	5.959	-0.016	-0.012
-182.071	262.903	-0.105	-0.181
-181.056	-135.326	0.348	-0.041
-180.042	800.000	-0.063	-0.239
-179.027	89.353	-0.094	-0.105
-178.012	786.530	0.109	0.298
-176.998	181.854	0.237	0.348
-175.983	211.848	0.119	-0.187
-174.969	-200.000	-0.018	-0.362
-173.954	800.000	0.067	0.226
-172.939	-200.000	-0.011	0.195
-171.925	-77.068	-0.229	0.079
-170.910	-89.419	-0.200	-0.059
-169.896	48.451	-0.158	-0.147
-168.881	-120.041	-0.175	0.030
-167.866	-109.776	-0.190	-0.040
-166.852	-63.854	0.074	0.030
-165.837	33.640	-0.264	-0.229
-164.823	422.470	0.125	0.267
-163.808	46.621	-0.132	0.122
-162.793	542.740	-0.084	0.199
-161.779	2.555	0.100	-0.072
-160.764	-162.788	-0.143	-0.007
-159.750	217.418	0.126	-0.200
-158.735	416.076	-0.135	-0.288
-157.720	-91.464	0.116	-0.033
-156.706	-51.307	0.054	0.025
-155.691	-133.792	-0.155	-0.019
-154.677	-54.641	0.196	0.088
-153.662	-200.000	0.009	0.044
-152.647	143.941	0.287	-0.381
-151.633	-19.165	0.142	-0.088
-150.618	-200.000	0.053	0.242
-149.604	-163.126	0.112	0.005
-148.589	800.000	0.020	-0.061
-147.574	-200.000	-0.010	-0.076
-146.560	-122.032	0.383	0.063
-145.545	-104.144	0.296	0.068
-144.531	-70.011	0.086	-0.033
-143.516	-29.182	0.331	-0.189
-142.502	-164.388	-0.085	-0.004
-141.487	-144.114	-0.037	0.003
-140.472	-194.773	-0.152	-0.001
-139.458	6.309	0.123	0.091
-138.443	-200.000	0.007	0.074
-137.429	-155.634	0.125	-0.008
-136.414	117.657	0.066	0.081
-135.399	-200.000	0.010	-0.055
-134.385	-123.322	-0.225	0.036
-133.370	212.674	0.049	0.076
-132.356	800.000	-0.115	0.337
-131.341	110.875	0.174	0.209
-130.326	-200.000	-0.017	0.128
-129.312	101.701	-0.096	0.111
-128.297	256.430	0.029	-0.049
-127.283	212.519	0.140	-0.220
-126.268	89.161	-0.190	-0.210
-125.253	-110.751	0.035	0.007
-124.239	800.000	-0.035	0.106
-123.224	-189.448	0.153	-0.002
-122.210	427.012	-0.049	0.104
-121.195	800.000	0.035	-0.106
-120.180	-200.000	-0.002	0.214
-119.166	-27.595	-0.142	0.082
-118.151	-200.000	-0.009	0.200
-117.137	-200.000	0.007	0.031
-116.122	651.457	0.099	0.252
-115.107	-200.000	0.027	0.303
-114.093	337.872	0.228	0.440
-113.078	658.445	0.092	-0.234
-112.064	-84.637	-0.337	-0.105
-111.049	290.214	-0.066	0.119
-110.034	44.894	0.286	0.261
-109.020	-53.397	-0.130	0.059
-108.005	-47.649	-0.153	-0.074
-106.991	-5.227	0.212	-0.145
-105.976	15.924	0.186	0.145
-104.962	-32.097	-0.178	0.099
-103.947	-200.000	-0.007	0.280
-102.932	-200.000	-0.001	-0.086
-101.918	-190.345	-0.425	0.005
-100.903	44.833	0.255	0.233
-99.889	-110.830	0.456	0.093
-98.874	-200.000	-0.030	0.205
-97.859	-16.489	0.112	0.071
-96.845	-200.000	-0.003	0.257
-95.830	-68.596	-0.174	-0.067
-94.816	-156.021	-0.392	-0.025
-93.801	-116.830	0.422	-0.077
-92.786	-75.223	0.331	-0.117
-91.772	-39.388	-0.199	0.103
-90.757	195.212	0.100	0.150
-89.743	800.000	0.124	0.405
-88.728	579.094	0.016	-0.038
-87.713	800.000	-0.115	0.358
-86.699	-119.393	-0.327	0.056
-85.684	800.000	-0.055	-0.198
-84.670	-78.055	0.351	-0.120
-83.655	345.849	-0.126	0.245
-82.640	-200.000	-0.011	0.336
-81.626	384.172	-0.023	-0.047
-80.611	191.071	0.152	0.228
-79.597	50.642	-0.185	0.173
-78.582	55.811	0.064	-0.061
-77.567	-101.012	0.210	0.051
-76.553	-29.789	0.037	0.021
-75.538	264.300	0.214	-0.369
-74.524	231.257	-0.045	-0.072
-73.509	10.776	0.296	0.224
-72.494	800.000	-0.114	-0.314
-71.480	0.018	0.302	0.213
-70.465	-200.000	0.016	-0.169
-69.451	-110.722	0.273	-0.056
-68.436	-200.000	-0.045	0.204
-67.422	800.000	-0.015	0.056
-66.407	-200.000	0.012	-0.195
-65.392	-60.434	-0.126	0.053
-64.378	174.805	0.155	0.223
-63.363	65.347	0.102	-0.102
-62.349	11.492	-0.240	0.182
-61.334	-2.142	-1.087	-0.757
-60.319	-200.000	0.051	0.868
-59.305	-200.000	-0.125	-0.861
-58.290	103.790	0.661	0.770
-57.276	579.905	0.651	1.581
-56.261	-200.000	95.614	570.133
-55.246	648.914	1382.179	3504.473
-54.232	186.676	2598.329	3835.206
-53.217	123.718	2185.941	2718.739
-52.203	46.937	1638.212	1509.479
-51.188	38.632	1372.808	1213.711
-50.173	35.281	1329.899	1155.573
-49.159	56.074	1379.320	1326.646
-48.144	60.712	1397.150	1372.174
-47.130	38.856	1351.344	1195.908
-46.115	35.277	1333.099	1158.141
-45.100	35.084	1328.308	1152.771
-44.086	34.985	1325.878	1150.023
-43.071	34.932	1323.953	1147.989
-42.057	34.869	1321.619	1145.543
-41.042	35.038	1319.792	1144.928
-40.027	34.935	1318.561	1143.200
-39.013	34.977	1316.614	1141.715
-37.998	34.883	1314.543	1139.310
-36.984	35.074	1312.667	1138.781
-35.969	35.120	1311.235	1137.763
-34.954	35.059	1309.497	1135.846
-33.940	35.100	1308.421	1135.114
-32.925	35.113	1306.637	1133.596
-31.911	35.291	1305.195	1133.353
-30.896	35.204	1303.721	1131.518
-29.881	35.176	1302.746	1130.457
-28.867	35.268	1301.006	1129.448
-27.852	35.118	1299.808	1127.481
-26.838	35.174	1298.450	1126.584
-25.823	35.193	1296.762	1125.188
-24.809	35.154	1295.623	1123.927
-23.794	35.141	1294.223	1122.588
-22.779	35.180	1292.808	1121.546
-21.765	35.127	1291.642	1120.180
-20.750	35.002	1290.811	1118.684
-19.736	34.964	1289.259	1117.071
-18.721	35.075	1287.763	1116.380
-17.706	35.067	1286.226	1114.957
-16.692	35.015	1284.901	1113.461
-15.677	34.983	1284.054	1112.499
-14.663	35.015	1282.709	1111.474
-13.648	35.006	1281.848	1110.629
-12.633	35.001	1281.065	1109.880
-11.619	35.066	1280.240	1109.500
-10.604	34.896	1279.735	1108.031
-9.590	34.957	1278.240	1107.049
-8.575	34.996	1277.304	1106.416
-7.560	35.000	1276.766	1105.931
-6.546	35.003	1275.623	1104.913
-5.531	34.955	1274.908	1103.973
-4.517	35.010	1273.764	1103.256
-3.502	34.862	1273.726	1102.327
-2.487	34.984	1272.198	1101.663
-1.473	34.911	1267.959	1097.531
-0.458	33.570	1251.870	1075.958
0.556	31.341	1232.845	1031.878
1.571	26.770	1235.996	1009.049
2.586	25.228	1249.805	1011.547
3.600	23.616	1237.513	992.500
4.615	17.898	1165.295	904.299
5.629	9.499	1089.048	803.308
6.644	5.095	1068.270	766.318
7.659	4.959	1065.594	763.666
8.673	4.683	1064.226	761.270
9.688	4.824	1062.444	760.613
10.702	5.309	1061.932	762.550
11.717	10.891	1069.424	795.227
12.731	18.852	1080.987	842.961
13.746	22.165	1083.932	861.453
14.761	21.795	1083.265	859.034
15.775	20.829	1081.244	852.627
16.790	19.889	1079.104	846.272
17.804	19.131	1077.291	841.074
18.819	18.750	1076.854	838.796
19.834	18.693	1075.586	837.456
20.848	18.467	1075.236	836.008
21.863	18.314	1074.401	834.536
22.877	18.068	1073.720	832.735
23.892	18.204	1072.417	832.315
24.907	18.089	1072.039	831.386
25.921	18.146	1070.749	830.593
26.936	18.225	1069.526	829.951
27.950	18.191	1068.398	828.837
28.965	18.213	1066.984	827.774
29.980	18.391	1065.447	827.370
30.994	18.514	1064.487	827.143
32.009	18.482	1063.368	826.044
33.023	18.557	1062.286	825.496
34.038	18.473	1060.968	823.993
35.053	18.376	1060.250	822.896
36.067	18.370	1059.268	822.035
37.082	18.268	1058.905	821.191
38.096	18.375	1058.090	820.998
39.111	18.568	1057.297	821.235
40.126	18.210	1056.118	818.534
41.140	18.074	1054.391	816.470
42.155	17.933	1053.315	814.896
43.169	17.927	1051.900	813.699
44.184	17.857	1050.856	812.484
45.199	17.820	1049.983	811.565
46.213	18.006	1049.355	811.888
47.228	18.116	1048.301	811.525
48.242	18.319	1047.432	811.743
49.257	18.189	1046.730	810.511
50.271	18.319	1045.785	810.323
51.286	18.278	1045.084	809.514
52.301	18.232	1043.860	808.275
53.315	18.164	1042.940	807.171
54.330	18.077	1041.695	805.726
55.344	18.094	1040.811	805.053
56.359	18.114	1039.919	804.386
57.374	18.062	1039.275	803.573
58.388	17.927	1038.104	801.959
59.403	17.799	1037.414	800.756
60.417	17.810	1036.971	800.395
61.432	17.849	1035.959	799.727
62.447	17.799	1035.125	798.776
63.461	17.666	1034.117	797.306
64.476	17.749	1032.741	796.564
65.490	17.656	1032.395	795.791
66.505	17.787	1031.936	795.979
67.520	17.809	1030.921	795.229
68.534	17.733	1030.427	794.420
69.549	17.696	1029.639	793.571
70.563	17.747	1028.347	792.741
71.578	17.559	1027.590	791.218
72.593	17.394	1027.104	790.004
73.607	17.468	1026.689	789.959
74.622	17.583	1025.498	789.507
75.636	17.592	1025.221	789.268
76.651	17.552	1024.522	788.473
77.666	17.548	1023.887	787.897
78.680	17.815	1022.605	788.072
79.695	17.693	1022.505	787.361
80.709	17.758	1022.188	787.350
81.724	17.879	1021.362	787.199
82.739	17.988	1020.602	787.048
83.753	18.255	1019.937	787.694
84.768	18.407	1019.411	787.919
85.782	18.599	1018.377	787.929
86.797	18.473	1017.555	786.647
87.812	18.372	1016.465	785.269
88.826	18.417	1015.483	784.651
89.841	18.349	1014.991	783.887
90.855	18.487	1013.996	783.680
91.870	18.618	1013.013	783.452
92.884	18.521	1012.005	782.162
93.899	18.469	1011.032	781.102
94.914	18.587	1010.706	781.319
95.928	18.544	1009.924	780.447
96.943	18.394	1008.843	778.860
97.957	18.399	1007.681	777.919
98.972	18.355	1007.105	777.205
99.987	18.414	1006.386	776.848
101.001	18.399	1005.455	775.996
102.016	18.297	1004.537	774.753
103.030	18.425	1003.744	774.653
104.045	18.385	1003.181	773.968
105.060	18.278	1002.266	772.712
106.074	17.897	1001.193	770.098
107.089	17.725	1000.344	768.603
108.103	17.847	998.694	767.815
109.118	17.916	997.642	767.251
110.133	17.826	996.795	766.126
111.147	17.823	996.027	765.454
112.162	17.783	995.352	764.688
113.176	18.039	994.443	765.069
114.191	18.064	994.120	764.865
115.206	18.110	993.035	764.169
116.220	17.782	992.515	762.235
117.235	17.837	991.308	761.486
118.249	17.981	990.203	761.213
119.264	17.827	989.843	760.180
120.279	17.749	989.008	759.124
121.293	17.721	987.858	758.052
122.308	17.690	987.040	757.221
123.322	17.686	986.044	756.368
124.337	17.635	985.135	755.379
125.352	17.613	984.373	754.630
126.366	17.514	982.903	752.998
127.381	17.615	982.217	752.855
128.395	17.710	981.128	752.373
129.410	17.830	980.276	752.183
130.424	17.787	979.834	751.587
131.439	18.021	978.648	751.638
132.454	18.038	978.208	751.311
133.468	17.984	977.233	750.259
134.483	17.912	976.808	749.546
135.497	18.010	976.092	749.363
136.512	18.011	975.128	748.559
137.527	18.132	974.244	748.344
138.541	17.968	974.002	747.376
139.556	18.202	972.569	747.231
140.570	18.358	971.849	747.293
141.585	18.375	971.468	747.006
142.600	18.361	970.473	746.118
143.614	18.558	969.681	746.296
144.629	18.540	969.276	745.843
145.643	18.444	968.305	744.612
146.658	18.398	966.668	743.087
147.673	18.177	966.090	741.620
148.687	18.092	965.194	740.499
149.702	18.006	963.930	739.093
150.716	18.043	963.173	738.605
151.731	18.160	962.582	738.592
152.746	18.151	961.831	737.913
153.760	18.166	961.398	737.579
154.775	18.276	960.887	737.595
155.789	18.295	960.290	737.152
156.804	18.266	959.652	736.475
157.819	18.361	958.807	736.167
158.833	18.604	958.532	736.936
159.848	18.650	957.438	736.229
160.862	18.576	956.619	735.218
161.877	18.188	955.654	732.746
162.892	18.132	954.389	731.474
163.906	18.172	953.193	730.663
164.921	18.200	952.272	730.011
165.935	18.160	951.812	729.421
166.950	18.440	950.632	729.649
167.964	18.244	950.219	728.432
168.979	18.202	948.981	727.240
169.994	18.227	948.338	726.786
171.008	18.301	947.748	726.587
172.023	18.462	947.192	726.779
173.037	18.444	946.555	726.150
174.052	18.486	945.445	725.410
175.067	18.183	944.956	723.691
176.081	18.044	944.368	722.587
177.096	18.122	943.430	722.136
178.110	18.080	943.309	721.802
179.125	18.209	942.624	721.759
180.140	18.212	942.131	721.329
181.154	18.373	941.749	721.653
182.169	18.582	941.257	722.089
183.183	18.449	940.475	720.869
184.198	18.661	939.428	720.893
185.213	18.582	939.075	720.226
186.227	18.635	938.657	720.064
187.242	18.723	937.401	719.407
188.256	18.792	937.068	719.374
189.271	18.912	936.071	719.046
190.286	18.428	935.471	716.500
191.300	18.053	934.028	713.766
192.315	17.997	933.726	713.237
193.329	17.984	933.180	712.703
194.344	18.207	932.853	713.319
195.359	18.356	932.188	713.369
196.373	18.493	931.752	713.544
197.388	18.543	931.460	713.464
198.402	18.880	930.454	714.031
199.417	18.838	930.191	713.589
200.432	19.055	929.446	713.855
201.446	19.006	929.368	713.532
202.461	19.147	929.158	713.890
203.475	18.949	928.376	712.408
204.490	18.823	926.975	710.747
205.504	18.651	926.228	709.398
206.519	18.839	925.211	709.334
207.534	18.731	924.515	708.292
208.548	18.697	924.104	707.776
209.563	18.737	923.465	707.386
210.577	18.756	923.015	707.058
211.592	19.029	921.990	707.332
212.607	19.144	921.251	707.176
213.621	19.065	920.814	706.454
214.636	18.787	920.433	704.959
215.650	18.967	919.584	704.984
216.665	19.075	918.734	704.712
217.680	19.044	918.401	704.267
218.694	19.162	917.744	704.184
219.709	19.000	916.941	702.844
220.723	19.019	916.359	702.414
221.738	18.964	915.460	701.439
222.753	18.994	914.876	701.049
223.767	19.083	914.513	701.075
224.782	19.276	913.975	701.384
225.796	19.220	913.598	700.807
226.811	19.074	912.953	699.653
227.826	19.077	912.102	698.952
228.840	19.105	910.930	698.105
229.855	19.070	910.463	697.543
230.869	18.993	909.541	696.466
231.884	18.973	909.028	695.930
232.899	19.031	907.867	695.215
233.913	18.898	907.346	694.216
234.928	18.860	906.467	693.330
235.942	18.920	905.971	693.131
236.957	18.927	905.129	692.450
237.972	18.846	905.047	692.004
238.986	18.853	904.548	691.588
240.001	18.931	903.606	691.118
241.015	18.897	903.031	690.481
242.030	19.063	902.745	690.868
243.045	19.055	902.326	690.457
244.059	18.898	901.757	689.328
245.074	19.129	900.671	689.362
246.088	19.331	900.346	689.862
247.103	19.261	899.322	688.736
248.117	19.477	899.214	689.454
249.132	19.723	899.150	690.328
250.147	19.920	898.044	690.202
251.161	19.844	897.805	689.656
252.176	19.868	897.012	689.083
253.190	19.915	896.509	688.820
254.205	19.928	895.808	688.275
255.220	19.833	895.165	687.340
256.234	19.753	894.575	686.511
257.249	19.925	893.688	686.451
258.263	19.870	892.690	685.406
259.278	19.949	892.029	685.149
260.293	19.980	891.889	685.104
261.307	20.033	891.576	685.014
262.322	19.987	890.721	684.113
263.336	20.071	889.912	683.763
264.351	20.108	889.144	683.257
265.366	20.086	888.582	682.678
266.380	19.996	887.876	681.720
267.395	19.914	887.249	680.859
268.409	19.885	886.299	679.955
269.424	19.972	885.577	679.683
270.439	19.774	885.341	678.663
271.453	19.631	884.151	677.132
272.468	19.817	883.547	677.337
273.482	19.704	883.018	676.431
274.497	19.767	882.346	676.100
275.512	19.816	881.962	675.939
276.526	19.869	881.005	675.352
277.541	19.957	881.008	675.637
278.555	19.942	880.478	675.112
279.570	20.090	880.014	675.275
280.585	20.253	878.916	675.005
281.599	20.002	877.767	673.088
282.614	19.955	877.317	672.501
283.628	19.928	876.684	671.854
284.643	19.944	876.318	671.574
285.657	20.094	875.436	671.421
286.672	19.901	875.130	670.380
287.687	19.984	874.420	670.095
288.701	20.055	874.036	670.016
289.716	19.899	873.498	668.944
290.730	20.046	872.587	668.754
291.745	20.194	872.147	668.928
292.760	20.088	871.833	668.219
293.774	20.311	870.959	668.348
294.789	20.179	870.146	667.158
295.803	20.020	869.383	665.901
296.818	20.040	868.629	665.344
297.833	19.969	868.331	664.783
298.847	20.093	867.485	664.553
299.862	20.256	867.120	664.838
300.876	20.328	866.360	664.472
301.891	20.425	865.786	664.346
302.906	20.401	865.952	664.320
303.920	20.587	865.130	664.344
304.935	20.541	864.618	663.715
305.949	20.515	864.270	663.289
306.964	20.389	863.498	662.159
307.979	20.494	862.681	661.876
308.993	20.560	862.347	661.812
310.008	20.627	861.500	661.357
311.022	20.576	860.461	660.305
312.037	20.386	860.062	659.222
313.052	20.189	859.428	657.928
314.066	20.138	858.562	657.017
315.081	20.149	858.393	656.868
316.095	20.334	857.787	657.050
317.110	20.172	857.419	656.096
318.125	20.235	856.273	655.396
319.139	20.146	856.385	655.089
320.154	20.295	855.945	655.258
321.168	20.186	855.611	654.531
322.183	20.298	854.674	654.179
323.197	20.384	854.199	654.083
324.212	20.452	853.556	653.787
325.227	20.308	853.222	652.932
326.241	20.162	852.805	652.006
327.256	20.263	852.357	651.986
328.270	20.360	851.160	651.377
329.285	20.334	850.715	650.881
330.300	20.127	850.258	649.699
331.314	20.212	849.956	649.728
332.329	20.438	849.131	649.887
333.343	20.479	848.917	649.816
334.358	20.503	848.687	649.674
335.373	20.502	848.076	649.146
336.387	20.674	847.768	649.492
337.402	20.692	847.524	649.316
338.416	20.868	847.233	649.694
339.431	20.956	846.769	649.609
340.446	21.032	846.620	649.718
341.460	21.004	846.499	649.464
342.475	20.991	845.790	648.814
343.489	21.046	845.235	648.534
344.504	21.222	844.942	648.908
345.519	21.072	844.563	648.001
346.533	21.161	843.554	647.500
347.548	20.934	843.251	646.368
348.562	20.884	842.568	645.601
349.577	20.790	841.537	644.409
350.592	20.617	840.907	643.227
351.606	20.619	840.648	642.980
352.621	20.638	839.771	642.323
353.635	20.805	839.036	642.322
354.650	20.878	838.408	642.053
355.665	20.895	838.198	641.898
356.679	20.919	837.134	641.114
357.694	21.001	836.713	641.035
358.708	20.810	836.204	639.886
359.723	20.948	835.354	639.687
360.738	21.010	834.750	639.396
361.752	21.028	834.235	639.010
362.767	21.237	833.799	639.385
363.781	21.205	833.416	638.916
364.796	21.378	833.306	639.410
365.810	21.544	832.757	639.539
366.825	21.497	832.490	639.106
367.840	21.372	831.956	638.184
368.854	21.296	831.617	637.589
369.869	21.195	831.014	636.702
370.883	21.444	830.384	637.068
371.898	21.534	830.053	637.087
372.913	21.590	829.483	636.796
373.927	21.413	828.949	635.685
374.942	21.399	828.601	635.314
375.956	21.558	828.383	635.666
376.971	21.612	827.766	635.335
377.986	21.693	827.351	635.253
379.000	21.821	826.964	635.361
380.015	21.717	826.401	634.498
381.029	21.718	825.462	633.724
382.044	21.610	825.116	633.011
383.059	21.640	824.696	632.742
384.073	21.539	823.899	631.709
385.088	21.469	823.201	630.867
386.102	21.442	822.671	630.307
387.117	21.345	822.150	629.502
388.132	21.204	821.513	628.451
389.146	21.589	820.784	629.223
390.161	21.656	820.332	629.061
391.175	21.715	820.033	628.987
392.190	21.486	819.583	627.764
393.205	21.523	819.016	627.408
394.219	21.545	818.409	626.968
395.234	21.325	818.308	626.045
396.248	21.298	817.606	625.357
397.263	21.201	817.356	624.765
398.278	21.294	816.811	624.624
399.292	21.257	816.506	624.203
400.307	21.149	816.131	623.475
401.321	21.271	815.323	623.239
402.336	21.408	815.026	623.443
403.350	21.698	814.662	624.145
404.365	21.767	814.297	624.056
405.380	21.807	813.819	623.776
406.394	21.994	813.176	623.893
407.409	21.767	813.540	623.309
408.423	21.898	812.869	623.204
409.438	21.958	812.374	622.983
410.453	22.144	811.753	623.112
411.467	22.239	810.957	622.781
412.482	22.163	811.370	622.773
413.496	22.272	810.926	622.767
414.511	22.129	810.509	621.885
415.526	22.185	809.631	621.352
416.540	22.191	809.153	620.951
417.555	22.006	808.903	620.053
418.569	21.974	808.628	619.675
419.584	22.137	808.008	619.717
420.599	22.041	807.994	619.315
421.613	159.007	1368.975	1787.476
422.628	138.278	1450.732	1787.595
