DTS Sentinel unit serial number:	SN413079Multiplexer serial number:	ORYXHardware model number:	OX4-SRSoftware version number:	ORYX F/W v4.00 Oryx Data Collector v3.7.2.0data status	okinstallation	princeton_trtdifferential loss correction	single-endedforward channel	channel 1reverse channel	N/Adate	2019/09/19time	10:50:35forward acquisition time	60.00reverse acquisition time	0.00gamma	496.2192k internal	0.2338k external	0.2338temperature offset calibration	1.0003default loss term (dB/km)	0.3790temperature slope calibration	1.0000multiplexer offset coefficient	1.0000multiplexer slope coefficient	1.0000fibre end	0.00T internal ref (°C)	24.72T ext. ref 1 (°C)	0.74T ext. ref 2 (°C)	20.16length (m)	temperature (°C)	Stokes	anti-Stokes-747.200	800.000	0.070	0.224
-746.185	711.889	-0.088	0.233
-745.171	-94.624	0.283	0.077
-744.156	-91.778	-0.122	-0.035
-743.142	-145.333	-0.109	-0.010
-742.127	-63.641	-0.328	-0.135
-741.112	-6.065	0.292	-0.200
-740.098	151.680	-0.168	0.229
-739.083	-66.538	-0.253	0.101
-738.069	303.953	-0.143	0.266
-737.054	726.611	0.084	-0.226
-736.039	800.000	-0.019	0.078
-735.025	-61.822	0.101	-0.043
-734.010	-200.000	-0.005	-0.169
-732.996	129.175	0.122	-0.156
-731.981	-66.531	-0.080	-0.032
-730.966	-169.630	-0.348	-0.013
-729.952	580.873	0.024	0.059
-728.937	800.000	0.043	-0.129
-727.923	-200.000	0.046	0.431
-726.908	791.872	0.119	0.329
-725.894	89.740	0.123	0.137
-724.879	277.283	-0.156	-0.279
-723.864	-141.697	0.478	-0.048
-722.850	-40.244	-0.143	-0.075
-721.835	29.281	0.064	0.054
-720.821	-77.349	-0.175	-0.061
-719.806	-27.179	0.170	-0.099
-718.791	-200.000	-0.024	-0.152
-717.777	389.402	0.094	0.195
-716.762	58.643	-0.228	0.224
-715.748	12.425	-0.297	-0.230
-714.733	-115.464	0.254	-0.048
-713.718	32.261	-0.296	-0.256
-712.704	-100.047	-0.069	-0.017
-711.689	201.053	-0.082	0.126
-710.675	-10.305	-0.115	-0.077
-709.660	-58.819	-0.176	-0.076
-708.645	62.136	0.141	-0.141
-707.631	66.276	0.122	0.124
-706.616	-166.123	0.057	-0.002
-705.602	-3.363	-0.101	-0.070
-704.587	377.334	-0.107	0.219
-703.572	800.000	0.076	-0.231
-702.558	260.481	0.122	0.211
-701.543	14.186	-0.427	0.333
-700.529	-200.000	0.048	-0.266
-699.514	222.107	-0.092	-0.149
-698.499	377.165	0.215	0.440
-697.485	144.858	0.112	0.150
-696.470	-123.600	-0.373	-0.059
-695.456	-82.806	0.217	-0.070
-694.441	-72.154	0.178	0.066
-693.426	103.694	0.123	-0.145
-692.412	78.768	0.139	-0.148
-691.397	308.264	-0.107	0.200
-690.383	-110.334	-0.210	0.044
-689.368	13.781	0.155	0.121
-688.354	800.000	-0.069	-0.195
-687.339	25.770	-0.158	-0.131
-686.324	31.972	-0.130	-0.112
-685.310	-111.982	0.245	-0.050
-684.295	-92.293	-0.376	0.106
-683.281	-200.000	0.017	0.245
-682.266	-111.413	-0.286	0.058
-681.251	512.875	0.107	-0.250
-680.237	-4.646	-0.282	-0.194
-679.222	-116.366	-0.406	0.075
-678.208	189.522	0.263	-0.394
-677.193	262.475	-0.117	-0.203
-676.178	204.426	-0.036	-0.056
-675.164	-93.585	-0.191	-0.053
-674.149	62.349	0.089	-0.089
-673.135	-200.000	-0.022	-0.395
-672.120	-66.402	0.189	-0.075
-671.105	800.000	-0.098	-0.414
-670.091	81.301	-0.137	0.148
-669.076	-139.179	-0.134	0.014
-668.062	-60.583	-0.518	-0.220
-667.047	383.814	0.055	-0.113
-666.032	-104.855	0.263	-0.060
-665.018	-200.000	0.026	-0.259
-664.003	167.744	0.129	0.184
-662.989	91.824	-0.173	0.195
-661.974	-131.551	0.154	0.020
-660.959	-119.790	-0.146	0.025
-659.945	38.335	0.169	-0.151
-658.930	-102.259	-0.159	-0.038
-657.916	477.162	-0.062	0.141
-656.901	534.911	0.081	-0.192
-655.886	616.911	-0.079	-0.197
-654.872	125.768	0.074	-0.094
-653.857	-151.206	-0.177	-0.013
-652.843	49.460	-0.227	-0.213
-651.828	456.046	0.097	0.215
-650.814	586.735	0.135	-0.333
-649.799	678.784	0.133	-0.345
-648.784	-200.000	0.003	-0.042
-647.770	-118.492	-0.258	0.046
-646.755	778.755	-0.096	0.264
-645.741	-200.000	0.003	0.081
-644.726	-173.946	0.281	-0.008
-643.711	-74.809	0.191	-0.068
-642.697	-15.847	-0.192	-0.122
-641.682	-60.578	-0.283	-0.120
-640.668	-110.240	0.072	-0.015
-639.653	311.228	-0.068	-0.128
-638.638	244.578	-0.052	-0.086
-637.624	52.347	0.027	0.025
-636.609	-77.404	-0.186	-0.064
-635.595	-2.244	0.098	-0.069
-634.580	-34.653	-0.341	0.186
-633.565	254.133	-0.224	-0.382
-632.551	13.436	0.146	-0.113
-631.536	-200.000	0.002	-0.075
-630.522	57.431	-0.432	-0.421
-629.507	-19.955	0.075	-0.046
-628.492	-74.592	-0.067	0.024
-627.478	14.406	0.086	0.067
-626.463	-29.452	0.258	0.148
-625.449	-66.591	0.188	-0.074
-624.434	-167.975	-0.367	-0.014
-623.419	15.712	0.132	-0.104
-622.405	54.343	-0.277	0.266
-621.390	-200.000	0.046	-0.203
-620.376	-161.707	0.260	0.013
-619.361	-96.326	-0.392	-0.104
-618.346	106.769	0.109	-0.129
-617.332	-12.271	0.265	-0.173
-616.317	800.000	0.119	0.364
-615.303	-200.000	-0.007	0.234
-614.288	392.595	-0.171	0.355
-613.273	-140.422	-0.115	0.012
-612.259	800.000	0.040	0.169
-611.244	421.085	0.172	-0.369
-610.230	-95.878	0.120	-0.032
-609.215	800.000	-0.066	-0.242
-608.201	341.048	0.199	-0.388
-607.186	-200.000	-0.023	0.137
-606.171	39.454	0.080	-0.072
-605.157	-88.634	0.302	-0.090
-604.142	279.391	0.133	0.237
-603.128	8.295	0.299	0.224
-602.113	125.192	-0.196	0.247
-601.098	-200.000	0.034	-0.332
-600.084	-200.000	-0.026	0.164
-599.069	-56.426	0.227	0.100
-598.055	380.550	-0.128	-0.261
-597.040	-200.000	0.032	-0.180
-596.025	-69.220	-0.215	-0.082
-595.011	-200.000	-0.070	0.482
-593.996	-126.937	-0.022	-0.003
-592.982	800.000	0.037	0.128
-591.967	-115.222	-0.278	-0.053
-590.952	-184.192	0.264	-0.004
-589.938	-3.292	-0.230	0.160
-588.923	157.302	-0.107	-0.148
-587.909	34.820	0.102	-0.089
-586.894	80.960	0.009	0.010
-585.879	-1.648	0.233	-0.164
-584.865	250.929	0.184	0.311
-583.850	79.453	-0.338	0.362
-582.836	12.587	-0.099	0.076
-581.821	-150.807	0.371	0.028
-580.806	-72.142	0.331	-0.123
-579.792	89.880	-0.129	0.143
-578.777	-200.000	0.016	-0.230
-577.763	318.863	-0.107	-0.203
-576.748	-124.558	0.229	0.035
-575.733	182.936	0.119	0.175
-574.719	95.142	0.076	0.087
-573.704	137.914	0.120	0.157
-572.690	-147.579	0.135	-0.011
-571.675	-200.000	-0.018	-0.130
-570.661	-200.000	0.021	0.201
-569.646	-200.000	-0.026	-0.121
-568.631	-200.000	-0.004	-0.155
-567.617	-17.807	0.192	0.120
-566.602	137.909	-0.041	0.053
-565.588	-142.968	0.347	-0.034
-564.573	-124.767	0.524	0.081
-563.558	-7.295	0.185	-0.125
-562.544	0.903	-0.187	-0.133
-561.529	-152.929	-0.144	0.010
-560.515	214.139	0.128	-0.201
-559.500	-200.000	-0.042	-0.311
-558.485	800.000	-0.077	-0.296
-557.471	-22.580	-0.353	-0.213
-556.456	120.522	-0.073	-0.090
-555.442	484.781	-0.101	-0.229
-554.427	-46.408	-0.018	0.009
-553.412	-156.386	0.452	-0.028
-552.398	78.250	0.145	0.154
-551.383	-107.367	0.057	-0.012
-550.369	-80.129	0.183	-0.061
-549.354	-28.349	0.127	0.073
-548.339	800.000	0.013	0.038
-547.325	147.993	0.133	0.179
-546.310	-42.258	-0.289	0.147
-545.296	800.000	0.081	-0.298
-544.281	615.994	0.117	0.292
-543.266	86.806	-0.279	-0.306
-542.252	587.916	0.074	0.182
-541.237	-102.145	0.266	-0.064
-540.223	-59.152	-0.146	0.063
-539.208	262.294	0.084	0.145
-538.193	118.792	0.093	-0.115
-537.179	-200.000	-0.035	-0.187
-536.164	-135.859	-0.101	0.012
-535.150	108.045	0.082	0.097
-534.135	800.000	0.077	0.277
-533.121	70.044	-0.108	-0.111
-532.106	-86.038	-0.297	-0.091
-531.091	648.775	0.139	0.354
-530.077	-88.260	-0.488	0.145
-529.062	667.845	0.077	-0.197
-528.048	112.585	0.290	-0.349
-527.033	-200.000	-0.009	0.088
-526.018	-27.691	-0.134	-0.078
-525.004	-41.711	0.108	0.055
-523.989	70.797	-0.087	-0.090
-522.975	39.360	0.127	0.113
-521.960	267.160	0.098	0.171
-520.945	31.362	0.246	0.210
-519.931	-78.993	0.261	-0.088
-518.916	-151.815	-0.218	0.016
-517.902	491.955	-0.113	0.258
-516.887	739.425	0.057	0.151
-515.872	169.432	-0.126	0.180
-514.858	387.708	-0.147	-0.302
-513.843	79.338	-0.291	-0.310
-512.829	19.509	0.180	-0.144
-511.814	-4.234	-0.265	-0.182
-510.799	144.015	-0.120	-0.159
-509.785	272.114	0.153	-0.268
-508.770	-134.458	-0.163	-0.020
-507.756	-100.007	-0.045	0.011
-506.741	-144.538	-0.080	-0.007
-505.726	102.666	-0.099	0.115
-504.712	-112.277	-0.187	0.037
-503.697	-200.000	-0.001	0.279
-502.683	-200.000	0.019	-0.090
-501.668	91.451	0.199	-0.222
-500.653	420.149	-0.198	-0.422
-499.639	-101.543	-0.156	-0.038
-498.624	14.068	-0.266	0.206
-497.610	55.590	-0.132	-0.127
-496.595	53.217	0.237	-0.226
-495.581	800.000	0.053	-0.205
-494.566	86.510	0.222	-0.243
-493.551	800.000	0.027	-0.087
-492.537	800.000	0.087	-0.282
-491.522	-134.632	0.409	0.050
-490.508	-56.388	-0.306	0.135
-489.493	800.000	-0.041	0.166
-488.478	-200.000	-0.001	0.096
-487.464	-62.367	0.294	-0.121
-486.449	-94.051	0.239	0.065
-485.435	0.827	-0.010	0.007
-484.420	-112.309	0.092	-0.018
-483.405	97.019	-0.061	-0.070
-482.391	-132.971	0.063	0.008
-481.376	100.687	-0.239	0.276
-480.362	-115.920	-0.215	-0.040
-479.347	190.882	0.300	-0.448
-478.332	573.168	0.034	-0.081
-477.318	-153.689	-0.158	0.011
-476.303	-102.839	-0.011	-0.003
-475.289	800.000	-0.060	-0.193
-474.274	800.000	-0.061	0.171
-473.259	-62.452	-0.169	0.070
-472.245	268.058	-0.213	0.370
-471.230	-140.541	0.347	-0.036
-470.216	800.000	0.093	0.277
-469.201	800.000	0.115	0.458
-468.186	800.000	-0.023	0.097
-467.172	800.000	-0.161	-0.475
-466.157	143.974	-0.122	0.162
-465.143	59.263	-0.134	-0.131
-464.128	-67.916	-0.108	-0.042
-463.113	800.000	-0.036	-0.102
-462.099	28.934	-0.156	0.131
-461.084	-83.072	-0.201	0.064
-460.070	-200.000	-0.002	0.179
-459.055	-26.207	-0.139	0.081
-458.040	-142.573	-0.254	0.025
-457.026	-124.948	-0.179	-0.027
-456.011	-200.000	-0.029	-0.139
-454.997	232.631	-0.264	0.431
-453.982	-200.000	0.019	0.098
-452.968	29.934	-0.228	0.193
-451.953	-83.192	0.127	0.040
-450.938	-173.086	0.411	-0.013
-449.924	-163.247	-0.382	0.018
-448.909	-4.324	-0.186	0.128
-447.895	-200.000	0.042	0.202
-446.880	206.425	-0.055	0.085
-445.865	-20.257	0.077	0.047
-444.851	109.544	0.221	0.263
-443.836	-124.758	-0.224	0.034
-442.822	39.949	-0.166	0.148
-441.807	-63.343	0.099	-0.040
-440.792	167.305	0.184	0.259
-439.778	220.259	-0.069	0.109
-438.763	-70.184	0.144	0.054
-437.749	-200.000	-0.072	-0.313
-436.734	-116.417	-0.120	0.022
-435.719	93.646	-0.009	-0.010
-434.705	-163.955	-0.120	-0.006
-433.690	-109.458	0.098	0.021
-432.676	164.546	0.054	0.075
-431.661	-43.826	-0.108	-0.054
-430.646	275.046	0.172	-0.301
-429.632	-27.110	0.272	0.157
-428.617	32.114	0.134	-0.115
-427.603	130.531	0.057	-0.072
-426.588	113.970	0.137	0.165
-425.573	-13.304	-0.169	0.109
-424.559	58.419	0.088	-0.086
-423.544	650.751	-0.138	0.350
-422.530	-43.249	0.114	0.057
-421.515	-27.681	0.056	0.032
-420.500	15.682	0.247	-0.192
-419.486	-116.844	-0.119	-0.022
-418.471	96.656	0.050	0.057
-417.457	-38.769	-0.071	-0.037
-416.442	-132.289	0.119	0.015
-415.428	-3.142	0.098	-0.067
-414.413	132.234	0.060	-0.077
-413.398	-84.701	-0.056	0.017
-412.384	-157.862	0.161	0.009
-411.369	-200.000	0.019	-0.210
-410.355	-200.000	0.016	-0.101
-409.340	-172.363	0.145	-0.005
-408.325	398.510	0.144	-0.298
-407.311	-71.559	-0.213	-0.079
-406.296	-111.874	0.111	0.022
-405.282	-100.463	0.082	0.020
-404.267	59.631	0.150	-0.146
-403.252	-66.005	0.072	0.028
-402.238	-103.262	-0.147	-0.034
-401.223	153.114	0.297	-0.402
-400.209	-38.709	-0.381	-0.199
-399.194	-59.791	0.170	-0.072
-398.179	-102.292	-0.154	0.037
-397.165	53.982	-0.206	-0.196
-396.150	-200.000	-0.018	-0.242
-395.136	50.648	-0.280	-0.262
-394.121	-123.580	-0.282	-0.044
-393.106	263.155	0.030	-0.052
-392.092	393.225	-0.110	0.226
-391.077	313.150	0.139	-0.258
-390.063	387.476	-0.139	0.285
-389.048	-200.000	-0.009	0.137
-388.033	75.499	-0.072	0.076
-387.019	-126.117	-0.232	-0.034
-386.004	-86.324	0.282	-0.086
-384.990	-200.000	-0.009	0.150
-383.975	5.871	0.169	0.124
-382.960	30.044	-0.091	-0.077
-381.946	-65.314	0.159	-0.063
-380.931	800.000	0.085	-0.248
-379.917	44.995	0.136	0.124
-378.902	-29.607	0.145	0.082
-377.888	-63.183	0.270	0.110
-376.873	-110.117	0.254	-0.053
-375.858	4.395	-0.261	0.189
-374.844	25.697	-0.143	0.118
-373.829	379.546	-0.032	-0.064
-372.815	-200.000	-0.051	-0.302
-371.800	-200.000	-0.019	-0.171
-370.785	164.323	0.075	-0.104
-369.771	630.433	0.051	0.128
-368.756	-200.000	0.037	0.247
-367.742	-109.993	-0.103	-0.021
-366.727	-108.229	-0.239	-0.051
-365.712	-200.000	-0.028	0.196
-364.698	-155.888	0.428	0.027
-363.683	-107.518	0.440	-0.095
-362.669	114.925	-0.243	0.292
-361.654	152.666	-0.048	-0.064
-360.639	-34.268	0.143	0.077
-359.625	163.408	0.033	-0.045
-358.610	211.570	0.125	-0.195
-357.596	426.700	-0.115	-0.245
-356.581	84.132	-0.121	0.131
-355.566	-136.022	-0.252	-0.029
-354.552	-200.000	-0.017	0.123
-353.537	649.385	0.132	0.333
-352.523	-167.995	0.427	0.017
-351.508	84.572	0.127	-0.137
-350.493	-200.000	-0.026	0.172
-349.479	174.700	-0.052	0.074
-348.464	-200.000	-0.046	-0.242
-347.450	-200.000	0.009	-0.126
-346.435	-159.319	-0.308	-0.017
-345.420	-200.000	-0.040	0.225
-344.406	-60.183	0.107	0.045
-343.391	388.241	0.134	0.275
-342.377	734.532	-0.128	0.338
-341.362	-200.000	0.062	-0.406
-340.348	185.323	0.094	-0.138
-339.333	800.000	0.008	-0.025
-338.318	191.843	-0.164	0.243
-337.304	46.097	-0.198	0.181
-336.289	-114.491	0.457	-0.087
-335.275	-131.059	-0.262	0.035
-334.260	191.290	0.087	0.129
-333.245	32.103	0.159	0.135
-332.231	421.935	-0.114	0.242
-331.216	350.463	0.197	-0.384
-330.202	27.739	0.112	-0.093
-329.187	433.694	-0.195	0.419
-328.172	800.000	-0.049	0.189
-327.158	224.496	-0.056	0.090
-326.143	120.633	0.230	0.282
-325.129	-11.463	-0.141	-0.092
-324.114	-191.499	-0.385	-0.004
-323.099	-18.090	-0.166	0.102
-322.085	-200.000	0.006	-0.201
-321.070	-150.422	-0.252	0.019
-320.056	-5.597	-0.221	0.149
-319.041	-11.134	-0.120	0.078
-318.026	71.313	0.074	-0.076
-317.012	69.670	-0.194	0.197
-315.997	800.000	0.077	-0.329
-314.983	-68.153	-0.185	0.071
-313.968	-58.545	0.257	0.110
-312.953	28.363	-0.343	0.286
-311.939	-175.545	0.204	-0.005
-310.924	-68.741	0.240	-0.091
-309.910	144.908	0.183	0.241
-308.895	47.241	0.239	0.219
-307.880	-200.000	0.000	-0.036
-306.866	196.426	0.186	0.280
-305.851	-48.358	0.247	-0.117
-304.837	4.568	0.108	-0.078
-303.822	-11.348	0.268	-0.174
-302.807	264.521	0.058	-0.100
-301.793	-200.000	-0.018	-0.120
-300.778	14.464	-0.218	0.168
-299.764	-200.000	0.003	-0.042
-298.749	120.597	-0.106	0.130
-297.735	-200.000	-0.003	0.307
-296.720	-169.818	-0.332	-0.012
-295.705	-140.861	0.158	0.016
-294.691	-158.242	-0.234	0.013
-293.676	357.280	0.128	0.252
-292.662	-149.673	-0.754	0.059
-291.647	800.000	0.088	-0.257
-290.632	-45.127	-0.262	-0.128
-289.618	-200.000	-0.006	-0.095
-288.603	-125.801	0.464	0.069
-287.589	9.599	-0.179	0.134
-286.574	-200.000	-0.035	0.170
-285.559	-121.703	-0.155	-0.025
-284.545	-200.000	-0.002	-0.217
-283.530	-85.892	-0.030	0.009
-282.516	-52.950	0.220	-0.100
-281.501	-200.000	-0.002	0.058
-280.486	306.797	-0.167	0.307
-279.472	-131.488	-0.446	-0.058
-278.457	-200.000	-0.049	0.226
-277.443	124.965	0.193	-0.240
-276.428	800.000	0.016	0.062
-275.413	-16.706	-0.074	-0.046
-274.399	-43.993	0.258	-0.128
-273.384	-109.166	0.222	-0.046
-272.370	0.722	0.084	0.059
-271.355	-54.238	-0.075	0.034
-270.340	-150.841	0.136	-0.010
-269.326	-138.659	-0.098	0.011
-268.311	800.000	-0.117	0.323
-267.297	800.000	0.020	-0.084
-266.282	-200.000	-0.043	-0.260
-265.267	-200.000	0.028	-0.130
-264.253	-200.000	-0.011	-0.251
-263.238	528.357	-0.037	0.087
-262.224	-17.095	-0.178	0.111
-261.209	-79.874	-0.273	-0.090
-260.195	-200.000	0.028	-0.205
-259.180	-141.820	0.246	0.024
-258.165	-168.028	-0.225	-0.009
-257.151	-167.582	0.094	-0.004
-256.136	-200.000	-0.032	-0.191
-255.122	-118.055	0.211	0.037
-254.107	658.958	-0.109	0.277
-253.092	-6.353	-0.101	0.068
-252.078	800.000	-0.029	0.082
-251.063	-107.590	-0.068	0.015
-250.049	105.779	-0.224	0.261
-249.034	313.623	0.269	0.498
-248.019	671.657	-0.093	0.237
-247.005	-200.000	-0.002	-0.207
-245.990	-167.780	-0.208	-0.008
-244.976	789.215	-0.025	0.067
-243.961	800.000	0.040	0.165
-242.946	800.000	0.046	0.164
-241.932	275.711	-0.009	0.016
-240.917	136.101	-0.075	-0.096
-239.903	800.000	0.171	0.552
-238.888	24.088	-0.223	-0.181
-237.873	-119.811	0.211	0.036
-236.859	197.156	-0.038	0.057
-235.844	800.000	-0.070	0.219
-234.830	-200.000	-0.004	-0.165
-233.815	382.439	-0.010	-0.021
-232.800	-153.941	-0.118	0.008
-231.786	-45.612	-0.071	0.034
-230.771	96.937	0.118	0.133
-229.757	-200.000	-0.016	-0.114
-228.742	-16.886	-0.313	-0.195
-227.727	34.779	-0.029	0.025
-226.713	76.544	0.312	-0.325
-225.698	654.096	0.137	-0.346
-224.684	-200.000	-0.033	0.246
-223.669	800.000	0.020	-0.085
-222.655	623.885	0.149	0.368
-221.640	800.000	0.027	-0.075
-220.625	-11.214	0.174	-0.113
-219.611	-90.284	-0.173	0.049
-218.596	-99.861	-0.105	0.026
-217.582	476.386	0.117	-0.260
-216.567	-46.981	-0.306	-0.147
-215.552	47.091	-0.148	-0.136
-214.538	71.093	0.126	-0.129
-213.523	-14.265	0.042	0.027
-212.509	-200.000	-0.013	-0.530
-211.494	800.000	-0.065	-0.263
-210.479	-20.203	-0.183	0.111
-209.465	-26.180	-0.390	-0.225
-208.450	206.044	0.204	-0.312
-207.436	-101.789	0.390	-0.093
-206.421	-200.000	0.002	0.090
-205.406	-91.777	0.119	-0.033
-204.392	-179.812	-0.146	-0.003
-203.377	-200.000	-0.024	0.112
-202.363	731.442	0.038	-0.099
-201.348	99.466	-0.090	0.102
-200.333	158.498	0.118	0.161
-199.319	101.492	-0.117	-0.133
-198.304	525.428	0.153	0.354
-197.290	9.612	-0.327	0.243
-196.275	-200.000	-0.007	0.429
-195.260	-71.719	-0.273	0.100
-194.246	-51.797	-0.093	0.042
-193.231	-29.385	0.135	0.076
-192.217	22.438	0.191	0.153
-191.202	-37.823	0.256	-0.134
-190.187	-9.398	0.239	0.156
-189.173	-141.670	0.312	-0.031
-188.158	232.457	0.179	0.288
-187.144	23.626	0.103	0.083
-186.129	-57.082	0.125	0.054
-185.114	-126.727	-0.078	0.011
-184.100	800.000	0.060	-0.231
-183.085	-200.000	0.007	-0.193
-182.071	-200.000	0.014	0.203
-181.056	36.102	-0.044	0.038
-180.042	-69.971	0.252	0.094
-179.027	800.000	-0.071	-0.254
-178.012	26.994	-0.106	-0.087
-176.998	-170.506	-0.102	-0.003
-175.983	800.000	-0.008	0.027
-174.969	99.359	0.065	0.073
-173.954	35.566	-0.065	-0.056
-172.939	134.078	0.066	-0.084
-171.925	-148.910	0.144	-0.011
-170.910	-97.218	-0.095	0.024
-169.896	108.943	-0.204	-0.239
-168.881	96.170	0.252	-0.283
-167.866	476.389	-0.204	-0.451
-166.852	35.470	0.227	0.195
-165.837	20.468	-0.140	0.111
-164.823	270.926	-0.067	0.116
-163.808	-4.232	0.062	-0.042
-162.793	92.695	-0.292	-0.323
-161.779	-157.108	-0.400	-0.024
-160.764	-90.863	0.160	0.045
-159.750	-146.415	-0.118	0.010
-158.735	71.826	0.086	-0.088
-157.720	5.299	-0.123	0.089
-156.706	88.699	0.154	-0.167
-155.691	157.287	-0.066	-0.090
-154.677	93.885	0.167	0.186
-153.662	218.030	0.101	0.157
-152.647	-54.699	0.069	-0.031
-151.633	-200.000	-0.038	-0.357
-150.618	-13.531	0.206	0.131
-149.604	389.358	-0.044	0.089
-148.589	800.000	-0.047	-0.156
-147.574	254.333	0.135	0.227
-146.560	-200.000	0.021	0.099
-145.545	-200.000	0.004	-0.122
-144.531	-200.000	-0.037	0.323
-143.516	210.393	0.040	-0.061
-142.502	-120.850	0.487	0.080
-141.487	163.529	-0.212	0.293
-140.472	-42.409	0.340	0.170
-139.458	-102.822	0.044	-0.010
-138.443	365.986	-0.229	-0.451
-137.429	-65.161	-0.201	0.079
-136.414	-12.053	-0.093	-0.059
-135.399	-67.625	-0.058	-0.022
-134.385	-138.871	0.097	0.010
-133.370	59.910	-0.182	0.176
-132.356	-200.000	-0.018	0.109
-131.341	-49.811	0.172	0.080
-130.326	2.055	-0.341	-0.241
-129.312	-30.373	0.208	-0.116
-128.297	800.000	-0.068	0.217
-127.283	-73.089	0.170	0.061
-126.268	-200.000	-0.037	0.439
-125.253	-200.000	-0.073	0.335
-124.239	38.167	-0.274	0.239
-123.224	471.146	-0.049	-0.109
-122.210	-54.101	0.101	-0.045
-121.195	396.610	-0.114	-0.233
-120.180	338.435	0.062	0.119
-119.166	693.487	0.030	-0.077
-118.151	800.000	0.051	-0.220
-117.137	800.000	-0.030	0.111
-116.122	800.000	0.038	0.142
-115.107	-200.000	0.012	0.137
-114.093	250.709	-0.124	-0.206
-113.078	-200.000	0.037	-0.249
-112.064	-168.788	0.312	0.012
-111.049	800.000	-0.096	0.265
-110.034	598.160	0.039	-0.094
-109.020	-84.369	0.225	0.070
-108.005	-145.470	0.360	0.032
-106.991	73.345	-0.131	0.135
-105.976	-153.987	-0.065	-0.004
-104.962	800.000	0.077	-0.291
-103.947	-27.007	0.174	-0.100
-102.932	-90.497	0.227	-0.064
-101.918	-200.000	0.031	0.303
-100.903	-45.153	-0.068	0.033
-99.889	79.410	0.143	-0.150
-98.874	9.565	-0.137	0.101
-97.859	1.983	0.306	0.216
-96.845	63.815	0.296	-0.291
-95.830	-34.347	-0.109	-0.059
-94.816	-200.000	-0.030	0.336
-93.801	186.160	0.017	-0.025
-92.786	800.000	0.057	0.206
-91.772	-200.000	-0.011	0.100
-90.757	14.507	0.095	0.073
-89.743	-111.694	0.167	0.033
-88.728	-142.397	-0.491	-0.047
-87.713	-164.204	0.025	0.001
-86.699	480.167	0.059	-0.130
-85.684	133.866	-0.309	-0.391
-84.670	-59.654	-0.396	-0.166
-83.655	-200.000	0.015	0.093
-82.640	-76.329	-0.039	0.014
-81.626	800.000	-0.121	0.359
-80.611	615.624	-0.039	0.096
-79.597	-200.000	-0.020	0.390
-78.582	577.610	-0.105	0.252
-77.567	-67.658	0.325	-0.124
-76.553	-67.056	-0.127	0.049
-75.538	-131.751	0.095	-0.012
-74.524	70.932	-0.139	-0.141
-73.509	-40.976	-0.062	0.031
-72.494	800.000	-0.087	-0.263
-71.480	-149.102	0.408	-0.032
-70.465	-134.861	-0.173	0.021
-69.451	638.420	-0.195	-0.486
-68.436	376.011	-0.044	0.087
-67.422	182.400	-0.072	0.103
-66.407	-74.926	0.250	-0.088
-65.392	-200.000	0.003	-0.132
-64.378	-200.000	-0.041	-0.195
-63.363	-21.279	0.368	-0.220
-62.349	158.709	0.237	0.322
-61.334	42.220	-1.270	-1.127
-60.319	98.275	0.535	0.602
-59.305	-200.000	-0.330	-1.469
-58.290	800.000	0.396	1.308
-57.276	300.859	0.693	1.249
-56.261	-200.000	121.412	613.184
-55.246	377.677	1583.472	3160.958
-54.232	138.848	2752.745	3531.902
-53.217	95.368	2186.903	2434.110
-52.203	36.420	1613.844	1389.950
-51.188	28.043	1355.109	1116.180
-50.173	25.219	1317.105	1068.048
-49.159	50.619	1381.961	1276.770
-48.144	48.702	1395.455	1277.468
-47.130	28.049	1344.935	1107.661
-46.115	24.825	1326.244	1072.924
-45.100	24.698	1320.709	1067.648
-44.086	24.671	1318.466	1065.628
-43.071	24.491	1316.466	1062.902
-42.057	24.522	1314.315	1061.304
-41.042	24.575	1312.848	1060.391
-40.027	24.739	1310.938	1059.780
-39.013	24.622	1309.172	1057.617
-37.998	24.618	1307.567	1056.255
-36.984	24.644	1305.679	1054.846
-35.969	24.781	1303.780	1054.074
-34.954	24.708	1302.065	1052.217
-33.940	24.683	1300.818	1051.018
-32.925	24.705	1299.653	1050.165
-31.911	24.759	1297.753	1048.904
-30.896	24.850	1296.041	1048.010
-29.881	24.761	1294.998	1046.609
-28.867	24.860	1293.729	1046.120
-27.852	24.850	1292.510	1045.035
-26.838	24.924	1291.254	1044.406
-25.823	24.896	1289.896	1043.106
-24.809	24.838	1288.661	1041.725
-23.794	24.746	1287.365	1040.101
-22.779	24.821	1285.575	1039.054
-21.765	24.851	1284.252	1038.113
-20.750	24.822	1283.087	1036.961
-19.736	24.671	1281.980	1035.155
-18.721	24.691	1280.702	1034.194
-17.706	24.676	1279.656	1033.223
-16.692	24.673	1278.510	1032.239
-15.677	24.726	1277.351	1031.568
-14.663	24.692	1276.253	1030.443
-13.648	24.630	1275.146	1029.155
-12.633	24.649	1273.996	1028.294
-11.619	24.743	1273.092	1028.062
-10.604	24.752	1272.164	1027.328
-9.590	24.635	1271.412	1026.004
-8.575	24.669	1270.268	1025.236
-7.560	24.547	1269.787	1024.108
-6.546	24.588	1268.954	1023.634
-5.531	24.580	1268.457	1023.142
-4.517	24.662	1267.474	1022.781
-3.502	24.812	1266.159	1022.535
-2.487	24.705	1265.103	1021.029
-1.473	24.689	1261.142	1017.705
-0.458	23.280	1246.849	998.191
0.556	18.904	1230.414	961.807
1.571	15.424	1238.008	948.032
2.586	14.605	1253.087	954.812
3.600	14.344	1241.619	944.507
4.615	10.755	1167.846	869.139
5.629	3.871	1095.407	780.506
6.644	0.789	1077.213	752.160
7.659	0.661	1075.396	750.191
8.673	0.729	1074.368	749.748
9.688	0.771	1072.929	748.886
10.702	0.682	1071.473	747.363
11.717	4.788	1076.524	771.190
12.731	11.772	1085.068	812.011
13.746	16.094	1090.303	837.367
14.761	17.177	1091.169	843.338
15.775	16.396	1089.859	838.377
16.790	15.458	1087.885	832.133
17.804	14.834	1086.107	827.613
18.819	14.489	1084.853	824.879
19.834	14.077	1084.295	822.341
20.848	13.838	1083.579	820.547
21.863	13.604	1082.459	818.469
22.877	13.536	1081.492	817.332
23.892	13.345	1081.278	816.153
24.907	13.468	1080.300	815.947
25.921	13.510	1079.463	815.452
26.936	13.466	1078.593	814.508
27.950	13.460	1077.731	813.754
28.965	13.613	1076.369	813.404
29.980	13.612	1074.771	812.120
30.994	13.696	1073.915	811.812
32.009	13.754	1072.855	811.220
33.023	13.772	1071.472	810.193
34.038	13.711	1070.713	809.249
35.053	13.630	1070.317	808.485
36.067	13.493	1069.324	806.995
37.082	13.592	1068.118	806.495
38.096	13.625	1067.489	806.108
39.111	13.669	1067.202	806.033
40.126	13.473	1065.791	803.945
41.140	13.462	1064.824	803.095
42.155	13.443	1063.514	801.943
43.169	13.521	1062.468	801.460
44.184	13.574	1060.943	800.492
45.199	13.483	1059.954	799.239
46.213	13.539	1059.019	798.731
47.228	13.428	1058.337	797.612
48.242	13.508	1057.111	797.001
49.257	13.530	1055.888	796.116
50.271	13.641	1054.944	795.866
51.286	13.663	1053.750	795.000
52.301	13.437	1053.403	793.586
53.315	13.560	1052.346	793.307
54.330	13.524	1051.196	792.198
55.344	13.437	1050.710	791.349
56.359	13.553	1049.945	791.257
57.374	13.470	1048.814	789.936
58.388	13.501	1047.905	789.329
59.403	13.571	1046.872	788.817
60.417	13.443	1046.384	787.768
61.432	13.534	1044.899	787.013
62.447	13.511	1044.505	786.537
63.461	13.585	1043.413	785.995
64.476	13.359	1043.133	784.646
65.490	13.507	1041.814	784.284
66.505	13.418	1041.526	783.577
67.520	13.530	1040.465	783.236
68.534	13.592	1039.513	782.746
69.549	13.441	1039.369	781.853
70.563	13.410	1038.342	780.864
71.578	13.433	1037.672	780.399
72.593	13.321	1036.888	779.216
73.607	13.396	1035.736	778.632
74.622	13.415	1035.143	778.206
75.636	13.420	1034.883	777.966
76.651	13.322	1034.228	776.943
77.666	13.355	1033.493	776.478
78.680	13.365	1032.524	775.730
79.695	13.351	1032.315	775.438
80.709	13.525	1031.346	775.457
81.724	13.442	1030.575	774.422
82.739	13.419	1030.255	774.003
83.753	13.550	1029.070	773.658
84.768	13.606	1028.146	773.155
85.782	13.763	1027.022	772.975
86.797	13.544	1026.560	771.535
87.812	13.555	1025.336	770.601
88.826	13.567	1024.386	769.875
89.841	13.593	1023.266	769.084
90.855	13.646	1022.303	768.536
91.870	13.694	1021.933	768.415
92.884	13.728	1020.873	767.709
93.899	13.695	1020.361	767.102
94.914	13.627	1019.299	765.923
95.928	13.705	1018.415	765.548
96.943	13.670	1017.516	764.645
97.957	13.648	1016.845	763.972
98.972	13.600	1015.881	762.956
99.987	13.702	1014.915	762.633
101.001	13.645	1013.803	761.471
102.016	13.588	1013.473	760.891
103.030	13.700	1012.613	760.694
104.045	13.783	1011.130	759.891
105.060	13.687	1010.991	759.281
106.074	13.550	1009.956	757.809
107.089	13.440	1009.161	756.644
108.103	13.499	1008.362	756.245
109.118	13.582	1007.200	755.685
110.133	13.518	1006.153	754.542
111.147	13.539	1005.631	754.179
112.162	13.588	1004.666	753.613
113.176	13.479	1004.363	752.821
114.191	13.772	1002.743	752.872
115.206	13.597	1002.402	751.755
116.220	13.549	1001.217	750.585
117.235	13.645	1000.217	750.201
118.249	13.617	999.830	749.718
119.264	13.463	999.304	748.561
120.279	13.696	997.769	748.395
121.293	13.641	997.059	747.548
122.308	13.640	996.554	747.099
123.322	13.688	995.609	746.544
124.337	13.730	994.135	745.561
125.352	13.761	992.865	744.678
126.366	13.579	992.234	743.326
127.381	13.588	991.322	742.616
128.395	13.638	990.095	741.854
129.410	13.670	989.337	741.364
130.424	13.617	988.642	740.540
131.439	13.638	987.615	739.798
132.454	13.639	986.801	739.130
133.468	13.820	985.815	739.132
134.483	13.587	985.271	737.623
135.497	13.760	984.153	737.487
136.512	13.629	983.423	736.295
137.527	13.632	982.538	735.580
138.541	13.692	981.508	735.009
139.556	13.781	981.024	734.976
140.570	13.837	980.408	734.697
141.585	13.810	979.596	733.905
142.600	13.845	978.268	732.998
143.614	13.869	977.433	732.416
144.629	13.867	976.585	731.707
145.643	13.764	975.940	730.702
146.658	13.766	974.735	729.746
147.673	13.698	974.049	728.869
148.687	13.782	973.162	728.511
149.702	13.726	972.516	727.716
150.716	13.716	971.741	727.026
151.731	13.810	970.681	726.582
152.746	13.851	970.411	726.495
153.760	13.751	969.527	725.333
154.775	13.848	969.066	725.347
155.789	13.963	968.535	725.388
156.804	13.911	967.509	724.330
157.819	13.978	966.596	723.873
158.833	13.981	966.248	723.560
159.848	13.977	965.425	722.864
160.862	13.863	964.810	721.843
161.877	13.970	963.225	721.055
162.892	13.967	962.506	720.442
163.906	13.935	961.597	719.561
164.921	13.874	960.810	718.643
165.935	13.948	959.875	718.202
166.950	13.963	959.056	717.589
167.964	13.912	958.534	716.913
168.979	13.939	957.508	716.202
169.994	13.978	956.652	715.663
171.008	14.036	955.836	715.239
172.023	14.043	954.980	714.565
173.037	14.072	954.120	713.982
174.052	14.046	953.950	713.683
175.067	14.099	953.225	713.302
176.081	13.936	952.738	712.177
177.096	13.947	952.053	711.651
178.110	14.017	951.580	711.532
179.125	14.096	950.936	711.325
180.140	14.023	950.670	710.753
181.154	14.025	949.871	710.101
182.169	14.114	949.361	710.037
183.183	14.340	948.180	710.054
184.198	14.329	947.335	709.312
185.213	14.223	947.326	708.790
186.227	14.145	946.484	707.764
187.242	14.291	945.621	707.677
188.256	14.390	944.806	707.428
189.271	14.246	944.541	706.553
190.286	14.169	943.474	705.367
191.300	14.136	942.565	704.485
192.315	14.277	941.949	704.560
193.329	14.182	941.611	703.841
194.344	14.295	940.957	703.770
195.359	14.076	940.488	702.429
196.373	14.345	939.697	702.912
197.388	14.318	939.295	702.437
198.402	14.485	938.636	702.583
199.417	14.424	937.959	701.758
200.432	14.291	937.630	700.890
201.446	14.477	936.948	701.101
202.461	14.457	936.254	700.436
203.475	14.575	935.777	700.512
204.490	14.416	935.017	699.215
205.504	14.353	934.297	698.350
206.519	14.437	933.342	697.925
207.534	14.370	932.749	697.141
208.548	14.502	932.177	697.204
209.563	14.448	931.631	696.509
210.577	14.549	930.495	696.019
211.592	14.549	930.048	695.623
212.607	14.678	929.096	695.386
213.621	14.564	928.678	694.539
214.636	14.590	927.685	693.841
215.650	14.818	926.760	694.035
216.665	14.568	926.619	692.828
217.680	14.749	925.709	692.838
218.694	14.792	924.844	692.311
219.709	14.676	924.616	691.596
220.723	14.787	923.980	691.521
221.738	14.745	923.135	690.650
222.753	14.853	922.166	690.310
223.767	14.659	921.835	689.203
224.782	14.839	921.016	689.271
225.796	14.879	920.619	689.078
226.811	14.772	920.102	688.187
227.826	14.834	918.910	687.490
228.840	14.808	918.288	686.859
229.855	14.828	917.595	686.362
230.869	14.800	916.901	685.668
231.884	14.761	916.170	684.902
232.899	14.775	915.250	684.208
233.913	14.741	914.566	683.498
234.928	14.835	913.955	683.364
235.942	14.735	913.718	682.719
236.957	14.723	912.940	682.029
237.972	14.820	912.215	681.823
238.986	14.819	911.652	681.337
240.001	14.897	910.524	680.749
241.015	14.928	910.085	680.487
242.030	14.914	909.818	680.170
243.045	14.856	909.196	679.412
244.059	14.955	908.649	679.344
245.074	14.928	907.925	678.633
246.088	15.053	907.156	678.504
247.103	14.985	906.419	677.617
248.117	15.045	905.972	677.467
249.132	15.114	905.426	677.276
250.147	14.997	905.016	676.438
251.161	15.197	903.845	676.310
252.176	15.241	903.144	675.903
253.190	15.186	902.750	675.325
254.205	15.256	901.984	674.976
255.220	15.273	901.285	674.463
256.234	15.313	900.595	674.048
257.249	15.343	900.097	673.733
258.263	15.281	899.235	672.781
259.278	15.391	898.378	672.521
260.293	15.350	897.807	671.871
261.307	15.382	897.305	671.563
262.322	15.436	896.559	671.160
263.336	15.413	895.861	670.489
264.351	15.447	895.023	669.938
265.366	15.446	894.666	669.606
266.380	15.395	894.304	669.075
267.395	15.604	893.257	669.061
268.409	15.569	892.380	668.206
269.424	15.417	891.800	667.109
270.439	15.440	891.061	666.588
271.453	15.458	890.433	666.131
272.468	15.503	889.963	665.898
273.482	15.574	889.489	665.766
274.497	15.578	889.284	665.571
275.512	15.582	888.293	664.787
276.526	15.544	888.015	664.368
277.541	15.710	887.055	664.248
278.555	15.640	886.915	663.810
279.570	15.726	885.876	663.310
280.585	15.809	884.793	662.769
281.599	15.622	884.399	661.679
282.614	15.825	883.557	661.786
283.628	15.799	882.929	661.158
284.643	15.678	882.600	660.377
285.657	15.778	881.861	660.159
286.672	15.849	881.032	659.756
287.687	15.787	880.474	659.039
288.701	15.704	880.169	658.428
289.716	15.789	879.951	658.537
290.730	15.773	878.974	657.687
291.745	15.804	878.057	657.064
292.760	15.904	877.766	657.179
293.774	16.029	877.245	657.216
294.789	16.010	876.194	656.295
295.803	15.882	875.827	655.465
296.818	16.029	875.066	655.411
297.833	15.923	874.449	654.476
298.847	15.919	874.126	654.161
299.862	15.922	873.473	653.627
300.876	15.910	872.796	653.017
301.891	16.012	872.580	653.192
302.906	16.120	871.687	652.886
303.920	16.115	871.092	652.361
304.935	16.122	870.776	652.093
305.949	16.243	869.881	651.835
306.964	16.137	869.496	651.077
307.979	16.158	868.900	650.655
308.993	16.192	868.452	650.392
310.008	16.236	867.495	649.789
311.022	16.224	866.805	649.168
312.037	16.211	866.487	648.824
313.052	16.255	865.956	648.539
314.066	16.137	865.544	647.719
315.081	16.299	864.641	647.605
316.095	16.161	864.003	646.541
317.110	16.223	863.249	646.158
318.125	16.271	862.897	646.021
319.139	16.288	862.334	645.608
320.154	16.251	862.355	645.426
321.168	16.413	861.292	645.188
322.183	16.361	860.740	644.522
323.197	16.339	860.380	644.111
324.212	16.294	859.590	643.292
325.227	16.345	859.157	643.106
326.241	16.309	858.633	642.518
327.256	16.351	857.969	642.123
328.270	16.317	857.366	641.487
329.285	16.423	856.724	641.353
330.300	16.360	856.318	640.753
331.314	16.379	855.825	640.399
332.329	16.446	854.970	639.956
333.343	16.414	854.464	639.399
334.358	16.297	854.387	638.842
335.373	16.666	853.469	639.494
336.387	16.412	853.690	638.643
337.402	16.432	853.179	638.281
338.416	16.509	853.163	638.502
339.431	16.585	852.891	638.527
340.446	16.676	851.966	638.124
341.460	16.517	851.628	637.214
342.475	16.662	851.240	637.413
343.489	16.671	850.885	637.124
344.504	16.770	850.211	636.938
345.519	16.751	849.858	636.543
346.533	16.794	849.507	636.385
347.548	16.729	848.756	635.523
348.562	16.770	848.184	635.194
349.577	16.795	847.514	634.729
350.592	16.691	846.840	633.778
351.606	16.646	846.636	633.402
352.621	16.711	845.674	632.868
353.635	16.679	845.322	632.428
354.650	16.744	844.474	631.980
355.665	16.725	844.043	631.533
356.679	16.892	842.889	631.234
357.694	16.860	842.244	630.576
358.708	16.959	841.657	630.451
359.723	16.736	841.515	629.459
360.738	16.950	840.560	629.485
361.752	16.937	840.310	629.191
362.767	16.958	839.799	628.831
363.781	17.061	839.124	628.653
364.796	17.049	838.692	628.229
365.810	17.190	838.032	628.199
366.825	17.043	837.389	627.120
367.840	17.111	837.449	627.361
368.854	17.030	836.691	626.439
369.869	17.044	836.218	626.080
370.883	17.100	835.725	625.860
371.898	17.132	835.592	625.826
372.913	17.239	835.331	625.966
373.927	17.170	834.644	625.145
374.942	17.212	834.338	625.012
375.956	17.184	833.976	624.585
376.971	17.149	833.323	623.911
377.986	17.414	832.385	624.127
379.000	17.455	832.112	624.017
380.015	17.503	831.686	623.819
381.029	17.350	830.926	622.631
382.044	17.441	830.324	622.460
383.059	17.433	829.581	621.818
384.073	17.457	829.289	621.629
385.088	17.457	829.394	621.654
386.102	17.337	828.366	620.391
387.117	17.382	827.584	619.913
388.132	17.458	827.050	619.736
389.146	17.466	826.576	619.356
390.161	17.361	826.262	618.683
391.175	17.443	825.635	618.456
392.190	17.341	825.216	617.719
393.205	17.503	824.709	617.873
394.219	17.467	824.370	617.434
395.234	17.525	824.073	617.368
396.248	17.512	823.749	617.022
397.263	17.338	823.636	616.252
398.278	17.339	823.071	615.780
399.292	17.550	822.419	615.999
400.307	17.399	821.856	614.977
401.321	17.534	821.219	614.935
402.336	17.630	820.685	614.825
403.350	17.640	820.646	614.777
404.365	17.711	819.759	614.316
405.380	17.707	819.399	613.978
406.394	17.735	818.743	613.533
407.409	17.696	818.819	613.394
408.423	17.666	818.461	612.963
409.438	17.791	818.133	613.113
410.453	17.831	817.292	612.573
411.467	17.826	816.695	612.055
412.482	17.975	816.486	612.376
413.496	17.774	816.387	611.527
414.511	17.719	816.176	611.120
415.526	17.800	815.236	610.650
416.540	17.984	814.440	610.658
417.555	18.063	814.004	610.559
418.569	17.878	813.741	609.647
419.584	18.010	813.211	609.667
420.599	17.768	813.003	608.593
421.613	113.911	1298.464	1484.673
422.628	98.589	1369.129	1484.765
