DTS Sentinel unit serial number:	SN413079Multiplexer serial number:	ORYXHardware model number:	OX4-SRSoftware version number:	ORYX F/W v4.00 Oryx Data Collector v3.7.2.0data status	okinstallation	princeton_trtdifferential loss correction	single-endedforward channel	channel 1reverse channel	N/Adate	2019/09/19time	12:54:35forward acquisition time	60.00reverse acquisition time	0.00gamma	496.2192k internal	0.2329k external	0.2329temperature offset calibration	1.0012default loss term (dB/km)	0.3790temperature slope calibration	1.0000multiplexer offset coefficient	1.0000multiplexer slope coefficient	1.0000fibre end	0.00T internal ref (°C)	28.33T ext. ref 1 (°C)	0.91T ext. ref 2 (°C)	26.62length (m)	temperature (°C)	Stokes	anti-Stokes-747.200	-120.417	0.220	-0.038
-746.185	-85.931	0.107	-0.033
-745.171	-114.489	-0.166	0.032
-744.156	-200.000	0.025	0.214
-743.142	256.215	-0.146	-0.252
-742.127	800.000	-0.146	0.433
-741.112	-200.000	0.021	-0.109
-740.098	-1.084	-0.185	0.132
-739.083	-200.000	0.007	0.077
-738.069	-182.340	0.408	-0.008
-737.054	9.637	0.358	0.273
-736.039	-162.811	-0.419	0.021
-735.025	-200.000	0.024	0.309
-734.010	-22.572	0.436	0.265
-732.996	-1.019	-0.010	0.007
-731.981	-12.298	0.183	0.120
-730.966	800.000	-0.045	-0.133
-729.952	79.008	0.151	-0.163
-728.937	-126.870	-0.241	0.036
-727.923	56.771	0.047	0.046
-726.908	287.335	-0.076	0.138
-725.894	800.000	0.063	0.252
-724.879	800.000	-0.031	0.093
-723.864	-19.490	-0.242	-0.151
-722.850	21.087	-0.156	-0.127
-721.835	-134.020	-0.261	0.032
-720.821	121.052	0.094	0.118
-719.806	27.221	-0.278	-0.235
-718.791	-200.000	-0.038	0.301
-717.777	-186.221	-0.139	0.002
-716.762	-143.997	-0.180	-0.017
-715.748	-200.000	-0.028	-0.188
-714.733	-183.300	-0.237	0.004
-713.718	800.000	0.084	-0.263
-712.704	800.000	-0.082	-0.314
-711.689	238.449	0.039	-0.065
-710.675	-81.195	0.370	0.123
-709.660	76.790	-0.232	0.248
-708.645	-99.891	0.205	-0.052
-707.631	-200.000	-0.005	-0.215
-706.616	-83.763	0.038	0.012
-705.602	261.503	0.089	-0.155
-704.587	29.880	-0.154	-0.132
-703.572	127.224	-0.095	-0.122
-702.558	-144.794	0.404	0.037
-701.543	-125.842	0.186	0.028
-700.529	2.368	-0.184	0.134
-699.514	800.000	0.087	0.323
-698.499	-200.000	-0.026	-0.132
-697.485	130.532	-0.146	0.188
-696.470	-152.601	0.339	-0.024
-695.456	-200.000	0.003	0.026
-694.441	-98.156	-0.256	-0.066
-693.426	10.474	-0.378	-0.290
-692.412	800.000	-0.037	-0.146
-691.397	93.657	-0.092	0.104
-690.383	107.294	-0.118	-0.141
-689.368	-200.000	0.016	-0.113
-688.354	233.873	0.161	-0.266
-687.339	-200.000	0.019	0.134
-686.324	47.515	0.245	0.229
-685.310	-109.684	0.402	-0.085
-684.295	800.000	-0.071	-0.239
-683.281	-25.211	-0.181	0.108
-682.266	-200.000	-0.071	-0.469
-681.251	-39.403	-0.361	0.190
-680.237	-23.133	-0.459	-0.277
-679.222	800.000	-0.121	-0.336
-678.208	800.000	-0.012	-0.044
-677.193	-82.366	-0.164	-0.054
-676.178	-200.000	-0.016	-0.193
-675.164	-200.000	-0.014	-0.185
-674.149	-140.962	-0.071	0.007
-673.135	103.912	-0.081	0.096
-672.120	220.058	0.068	0.110
-671.105	-200.000	0.043	0.278
-670.091	-200.000	-0.012	-0.236
-669.076	-24.118	-0.148	0.089
-668.062	-200.000	0.016	-0.357
-667.047	2.536	0.224	-0.163
-666.032	-66.658	0.105	-0.042
-665.018	-200.000	0.032	-0.154
-664.003	79.716	0.099	-0.106
-662.989	776.858	-0.089	0.245
-661.974	-43.374	0.140	0.071
-660.959	-200.000	-0.007	0.071
-659.945	120.384	-0.078	-0.097
-658.930	-200.000	0.006	-0.256
-657.916	310.104	-0.069	-0.129
-656.901	800.000	0.065	0.276
-655.886	683.774	0.123	-0.323
-654.872	-200.000	0.011	-0.187
-653.857	800.000	-0.082	-0.272
-652.843	-66.279	-0.111	0.044
-651.828	-200.000	0.081	-0.419
-650.814	-87.326	0.157	0.048
-649.799	757.069	-0.043	0.117
-648.784	-200.000	0.007	0.031
-647.770	450.715	-0.051	-0.113
-646.755	-200.000	0.055	-0.264
-645.741	234.847	0.056	-0.093
-644.726	-81.212	0.175	-0.058
-643.711	27.737	-0.044	-0.037
-642.697	384.897	-0.077	0.160
-641.682	458.348	0.049	-0.109
-640.668	-70.385	0.296	0.112
-639.653	40.044	-0.145	-0.131
-638.638	486.777	0.084	0.192
-637.624	-78.368	0.085	0.029
-636.609	-101.450	-0.358	0.088
-635.595	-81.484	-0.277	-0.091
-634.580	-7.303	-0.132	0.090
-633.565	-95.533	-0.326	0.088
-632.551	-23.496	-0.433	0.261
-631.536	-200.000	0.023	-0.113
-630.522	-45.864	-0.255	0.126
-629.507	92.559	-0.123	0.139
-628.492	-92.654	-0.085	0.024
-627.478	-109.604	0.233	0.049
-626.463	800.000	0.005	0.018
-625.449	692.987	-0.018	0.046
-624.434	-167.553	0.125	0.005
-623.419	-92.470	0.039	0.011
-622.405	-78.333	0.089	0.031
-621.390	-31.478	-0.244	0.138
-620.376	-66.934	-0.217	-0.086
-619.361	76.749	-0.065	-0.069
-618.346	239.933	0.057	0.095
-617.332	75.984	-0.135	-0.143
-616.317	-110.161	0.360	-0.075
-615.303	144.677	-0.129	-0.173
-614.288	-153.138	0.192	0.013
-613.273	188.276	0.135	0.202
-612.259	-88.774	-0.423	0.126
-611.244	-105.871	0.160	-0.036
-610.230	-54.219	-0.176	-0.080
-609.215	-27.960	-0.213	-0.123
-608.201	800.000	0.083	-0.337
-607.186	-108.560	-0.190	0.041
-606.171	-200.000	0.020	0.265
-605.157	645.874	0.211	-0.539
-604.142	-200.000	0.003	0.234
-603.128	631.275	0.115	0.293
-602.113	-200.000	0.005	0.174
-601.098	-200.000	0.032	-0.177
-600.084	-44.026	0.405	-0.204
-599.069	-141.160	0.126	0.013
-598.055	-49.382	-0.202	-0.097
-597.040	-189.562	0.040	0.000
-596.025	60.158	-0.224	-0.221
-595.011	25.383	0.269	-0.224
-593.996	-200.000	-0.041	-0.217
-592.982	-113.532	0.112	-0.022
-591.967	337.529	-0.242	-0.472
-590.952	-71.661	0.377	-0.141
-589.938	-200.000	0.021	0.188
-588.923	-128.188	0.148	-0.021
-587.909	-124.791	0.168	0.026
-586.894	35.682	-0.141	-0.124
-585.879	109.631	-0.153	-0.183
-584.865	266.494	0.091	0.159
-583.850	-72.879	-0.249	0.092
-582.836	-68.522	-0.161	0.063
-581.821	216.919	-0.143	-0.227
-580.806	-69.039	0.245	-0.094
-579.792	-37.713	-0.192	0.102
-578.777	-88.344	0.099	0.030
-577.763	-137.308	0.157	-0.018
-576.748	-112.945	-0.162	0.032
-575.733	530.141	0.043	-0.102
-574.719	-134.165	0.101	-0.012
-573.704	800.000	-0.060	-0.197
-572.690	-106.620	0.397	-0.088
-571.675	-29.811	-0.322	-0.184
-570.661	-200.000	-0.005	0.117
-569.646	-117.826	-0.244	-0.044
-568.631	-200.000	-0.028	0.186
-567.617	11.393	0.244	-0.187
-566.602	-114.612	-0.102	0.019
-565.588	-116.884	0.112	0.020
-564.573	114.215	-0.031	-0.037
-563.558	-200.000	-0.002	0.032
-562.544	178.292	-0.083	-0.121
-561.529	-137.074	-0.124	0.014
-560.515	-63.414	0.094	-0.039
-559.500	35.404	0.176	-0.155
-558.485	64.486	0.248	-0.250
-557.471	102.830	-0.228	0.267
-556.456	-55.884	-0.105	0.047
-555.442	577.191	0.105	-0.257
-554.427	113.361	-0.130	0.158
-553.412	451.027	0.086	-0.190
-552.398	284.289	0.098	-0.176
-551.383	49.359	-0.183	0.172
-550.369	-200.000	-0.010	0.092
-549.354	-64.909	0.091	-0.037
-548.339	238.262	0.096	0.160
-547.325	130.092	-0.022	-0.029
-546.310	-22.712	-0.132	0.080
-545.296	-200.000	-0.017	0.255
-544.281	636.060	-0.035	0.089
-543.266	137.917	0.197	0.258
-542.252	-200.000	0.047	-0.220
-541.237	119.578	0.111	0.137
-540.223	800.000	-0.036	-0.106
-539.208	448.379	-0.067	-0.148
-538.193	-66.007	0.324	0.129
-537.179	-113.447	0.080	-0.016
-536.164	690.751	-0.049	-0.129
-535.150	-137.188	-0.390	0.044
-534.135	49.959	-0.108	0.102
-533.121	-73.256	-0.159	-0.058
-532.106	65.922	-0.089	-0.090
-531.091	-200.000	0.052	-0.331
-530.077	416.690	0.056	0.118
-529.062	-22.588	0.226	0.136
-528.048	584.545	-0.068	0.168
-527.033	96.058	-0.273	-0.312
-526.018	-66.707	-0.284	-0.113
-525.004	-200.000	0.045	-0.251
-523.989	29.430	0.182	-0.154
-522.975	337.289	-0.171	-0.331
-521.960	199.969	0.053	0.081
-520.945	393.966	0.089	0.186
-519.931	-66.382	-0.026	-0.010
-518.916	-37.616	-0.072	0.038
-517.902	-200.000	-0.088	0.000
-516.887	-139.762	0.274	0.029
-515.872	-200.000	-0.008	-0.246
-514.858	-25.136	0.319	-0.189
-513.843	-63.845	-0.257	0.105
-512.829	-200.000	-0.010	-0.168
-511.814	-126.443	-0.362	-0.054
-510.799	-82.881	-0.394	-0.127
-509.785	7.407	0.302	0.225
-508.770	-83.685	-0.348	0.111
-507.756	158.315	0.047	-0.066
-506.741	-101.775	-0.392	-0.095
-505.726	800.000	-0.037	0.117
-504.712	-10.519	0.197	-0.130
-503.697	319.744	-0.193	-0.365
-502.683	-158.036	-0.165	-0.010
-501.668	143.111	-0.026	0.034
-500.653	254.107	-0.063	-0.107
-499.639	-200.000	-0.038	0.495
-498.624	-200.000	0.090	0.479
-497.610	-112.043	0.222	-0.045
-496.595	800.000	0.110	0.387
-495.581	-20.875	0.080	0.049
-494.566	-200.000	0.110	-0.486
-493.551	-148.241	-0.210	0.017
-492.537	-20.525	-0.082	0.050
-491.522	-200.000	0.028	-0.273
-490.508	-109.749	0.146	-0.031
-489.493	90.205	-0.259	-0.288
-488.478	606.302	-0.073	0.180
-487.464	-64.937	-0.462	-0.186
-486.449	243.217	0.153	0.255
-485.435	161.431	-0.105	0.146
-484.420	-200.000	0.025	-0.164
-483.405	111.675	0.156	-0.188
-482.391	-32.734	0.365	0.202
-481.376	-200.000	-0.022	0.139
-480.362	-113.003	-0.269	-0.053
-479.347	57.847	0.023	0.022
-478.332	-200.000	0.025	-0.176
-477.318	-94.418	-0.131	0.035
-476.303	2.223	0.047	-0.034
-475.289	4.204	0.015	0.011
-474.274	7.419	0.103	0.076
-473.259	-40.423	-0.188	0.097
-472.245	-200.000	-0.003	-0.107
-471.230	121.609	0.098	0.121
-470.216	45.362	-0.298	0.274
-469.201	-140.044	0.204	-0.021
-468.186	-131.007	-0.110	-0.015
-467.172	-200.000	0.003	-0.268
-466.157	0.160	-0.136	-0.097
-465.143	211.462	0.015	-0.024
-464.128	-25.703	-0.112	-0.066
-463.113	800.000	-0.041	-0.133
-462.099	-94.906	-0.072	0.020
-461.084	-24.862	0.368	0.218
-460.070	535.565	0.162	-0.383
-459.055	-33.240	-0.150	-0.083
-458.040	-104.259	0.113	0.026
-457.026	49.508	0.112	-0.105
-456.011	343.126	-0.078	-0.152
-454.997	121.744	0.164	-0.203
-453.982	-55.811	-0.052	-0.023
-452.968	33.442	0.144	0.124
-451.953	-129.144	-0.240	0.033
-450.938	-54.896	-0.393	-0.177
-449.924	-19.422	-0.207	-0.128
-448.909	89.126	0.093	0.103
-447.895	174.114	0.100	-0.144
-446.880	-157.124	-0.231	0.014
-445.865	267.630	0.025	-0.044
-444.851	-118.835	-0.060	0.011
-443.836	-200.000	-0.015	-0.250
-442.822	156.696	-0.258	-0.354
-441.807	152.103	0.147	-0.200
-440.792	-200.000	-0.010	-0.143
-439.778	-200.000	0.000	0.244
-438.763	-200.000	0.007	0.341
-437.749	6.879	-0.204	0.151
-436.734	-45.529	-0.062	0.031
-435.719	800.000	-0.113	0.340
-434.705	-44.170	0.120	-0.060
-433.690	-119.113	0.085	0.015
-432.676	-42.924	0.076	0.038
-431.661	226.887	0.115	0.186
-430.646	-128.662	0.302	0.042
-429.632	-25.378	-0.079	-0.046
-428.617	191.880	-0.041	0.062
-427.603	-200.000	0.058	-0.255
-426.588	-60.870	0.315	-0.132
-425.573	-6.673	0.195	0.132
-424.559	-200.000	0.034	-0.228
-423.544	281.372	-0.087	-0.156
-422.530	14.964	0.272	0.211
-421.515	-66.919	-0.282	0.111
-420.500	138.838	0.182	0.237
-419.486	-54.110	0.121	0.055
-418.471	184.999	-0.116	-0.171
-417.457	-197.767	0.090	0.001
-416.442	-96.721	-0.196	-0.051
-415.428	420.101	-0.067	0.142
-414.413	-165.472	0.143	-0.006
-413.398	133.631	0.121	-0.156
-412.384	-200.000	-0.019	-0.205
-411.369	800.000	-0.042	-0.117
-410.355	800.000	-0.042	-0.123
-409.340	-200.000	0.022	0.134
-408.325	341.276	0.131	0.254
-407.311	585.546	-0.096	0.234
-406.296	166.275	-0.153	-0.216
-405.282	551.516	-0.014	-0.034
-404.267	-1.572	-0.166	0.116
-403.252	-111.481	0.461	-0.093
-402.238	-87.799	-0.325	0.097
-401.223	165.827	-0.100	-0.141
-400.209	154.177	0.194	-0.265
-399.194	-133.216	0.090	-0.011
-398.179	800.000	0.044	0.123
-397.165	-159.496	0.192	0.011
-396.150	-27.185	0.136	0.079
-395.136	517.086	-0.090	0.209
-394.121	-13.010	-0.396	0.256
-393.106	82.687	0.334	0.361
-392.092	800.000	0.040	-0.111
-391.077	800.000	-0.104	0.307
-390.063	339.737	0.028	-0.054
-389.048	36.196	0.090	0.078
-388.033	800.000	0.065	0.269
-387.019	-200.000	0.009	-0.040
-386.004	-200.000	-0.021	-0.288
-384.990	654.520	0.083	-0.213
-383.975	-140.909	0.297	0.030
-382.960	98.642	-0.129	-0.147
-381.946	-91.631	-0.092	-0.026
-380.931	-77.174	-0.106	-0.037
-379.917	-41.248	-0.263	-0.135
-378.902	-200.000	0.001	-0.026
-377.888	-200.000	0.022	-0.122
-376.873	-63.522	0.192	-0.078
-375.858	476.369	-0.107	-0.240
-374.844	-200.000	0.050	-0.245
-373.829	585.977	0.038	0.094
-372.815	-200.000	-0.005	0.112
-371.800	277.761	0.044	-0.078
-370.785	-49.097	-0.286	0.136
-369.771	-115.035	0.302	-0.057
-368.756	-73.659	0.053	0.019
-367.742	145.464	-0.170	0.227
-366.727	-46.429	-0.102	-0.050
-365.712	-135.780	-0.090	-0.011
-364.698	-200.000	0.032	0.258
-363.683	-147.324	0.294	-0.025
-362.669	-61.703	-0.243	0.101
-361.654	800.000	-0.099	-0.399
-360.639	-60.201	0.344	-0.146
-359.625	29.294	-0.199	-0.167
-358.610	31.174	-0.113	0.096
-357.596	425.915	0.094	0.201
-356.581	-39.032	0.298	0.155
-355.566	-14.927	-0.207	0.131
-354.552	268.342	-0.082	0.142
-353.537	-48.707	-0.123	0.058
-352.523	-125.913	0.121	-0.018
-351.508	99.618	0.228	-0.262
-350.493	800.000	-0.014	-0.050
-349.479	-48.915	0.213	0.101
-348.464	-78.688	0.157	-0.053
-347.450	-42.112	-0.325	0.165
-346.435	-95.562	-0.252	-0.067
-345.420	558.924	0.078	0.187
-344.406	-27.810	0.114	-0.065
-343.391	85.807	0.054	0.059
-342.377	22.185	-0.270	-0.218
-341.362	800.000	0.086	-0.268
-340.348	180.357	-0.282	-0.411
-339.333	448.762	0.164	-0.358
-338.318	-156.946	0.200	0.012
-337.304	783.374	-0.030	-0.081
-336.289	800.000	0.064	-0.271
-335.275	-44.700	0.185	0.091
-334.260	-200.000	-0.029	0.242
-333.245	-200.000	-0.038	-0.200
-332.231	800.000	-0.026	0.103
-331.216	-62.372	0.054	-0.022
-330.202	-168.107	-0.144	-0.006
-329.187	91.739	0.185	0.207
-328.172	800.000	0.039	-0.145
-327.158	40.667	0.113	-0.101
-326.143	-78.517	0.170	-0.058
-325.129	266.541	-0.017	0.029
-324.114	-160.510	0.257	0.014
-323.099	431.532	-0.041	0.089
-322.085	-200.000	0.057	-0.299
-321.070	800.000	-0.024	-0.085
-320.056	29.281	0.295	0.248
-319.041	-200.000	-0.014	0.153
-318.026	39.949	-0.159	-0.141
-317.012	35.780	0.099	-0.086
-315.997	-101.228	0.177	-0.043
-314.983	145.865	-0.187	0.248
-313.968	38.841	-0.042	0.037
-312.953	-200.000	-0.003	-0.070
-311.939	-62.655	-0.217	0.089
-310.924	21.727	0.319	0.257
-309.910	401.804	0.051	-0.106
-308.895	-58.619	-0.231	-0.099
-307.880	-200.000	-0.008	0.240
-306.866	-83.161	-0.288	-0.092
-305.851	-28.982	-0.027	0.016
-304.837	-47.129	-0.305	-0.147
-303.822	-8.312	0.080	0.053
-302.807	426.545	-0.107	0.228
-301.793	460.415	-0.125	0.276
-300.778	316.270	0.114	-0.214
-299.764	-51.735	0.068	0.031
-298.749	290.922	-0.116	0.208
-297.735	-15.426	-0.191	0.121
-296.720	-40.108	-0.128	0.066
-295.705	-74.078	-0.164	0.059
-294.691	124.636	-0.102	-0.127
-293.676	8.756	0.200	0.149
-292.662	-150.688	0.327	0.025
-291.647	-92.552	-0.154	-0.043
-290.632	-72.796	0.130	0.047
-289.618	-44.296	-0.081	-0.040
-288.603	-200.000	0.007	-0.035
-287.589	308.558	0.202	-0.373
-286.574	800.000	0.054	-0.189
-285.559	507.624	-0.103	-0.237
-284.545	32.312	0.185	-0.158
-283.530	20.082	0.153	-0.122
-282.516	-200.000	-0.044	0.353
-281.501	241.751	0.220	-0.363
-280.486	-200.000	-0.005	-0.147
-279.472	800.000	-0.055	0.163
-278.457	-72.980	-0.306	-0.111
-277.443	-41.731	0.158	0.080
-276.428	-200.000	-0.034	0.394
-275.413	161.839	0.101	-0.140
-274.399	-44.089	-0.281	0.140
-273.384	-151.766	0.216	0.016
-272.370	-110.091	0.313	0.065
-271.355	-20.190	0.254	0.155
-270.340	800.000	-0.120	0.411
-269.326	-42.493	-0.178	-0.090
-268.311	-20.386	0.125	-0.076
-267.297	34.027	-0.081	-0.070
-266.282	800.000	-0.034	0.125
-265.267	-200.000	-0.005	-0.134
-264.253	-68.269	0.198	-0.076
-263.238	55.503	0.163	0.156
-262.224	651.221	-0.012	-0.031
-261.209	-200.000	-0.005	0.380
-260.195	-200.000	0.168	-0.000
-259.180	328.412	-0.036	-0.069
-258.165	-89.014	-0.028	-0.008
-257.151	-2.305	0.161	-0.112
-256.136	-113.703	0.291	0.056
-255.122	-54.990	0.123	0.055
-254.107	324.713	0.183	0.345
-253.092	128.205	-0.124	0.156
-252.078	101.266	-0.092	0.106
-251.063	56.166	-0.087	-0.083
-250.049	-168.294	0.475	-0.018
-249.034	-70.494	-0.143	0.054
-248.019	-115.271	0.253	-0.047
-247.005	800.000	-0.055	-0.176
-245.990	-73.178	-0.108	-0.039
-244.976	-200.000	0.063	-0.281
-243.961	-75.421	-0.091	0.032
-242.946	260.140	-0.113	-0.193
-241.932	-200.000	0.001	0.064
-240.917	800.000	0.094	0.392
-239.903	-56.891	0.246	0.108
-238.888	-106.788	-0.159	-0.035
-237.873	800.000	-0.055	0.166
-236.859	-37.905	-0.222	-0.117
-235.844	35.911	0.015	-0.013
-234.830	729.346	-0.056	0.146
-233.815	138.144	-0.126	-0.164
-232.800	681.181	-0.135	-0.347
-231.786	-46.508	-0.200	0.097
-230.771	203.546	0.093	0.143
-229.757	-150.729	-0.336	-0.025
-228.742	18.912	-0.009	-0.007
-227.727	-200.000	0.008	0.096
-226.713	-141.052	0.192	0.019
-225.698	800.000	0.025	-0.077
-224.684	-200.000	-0.017	0.201
-223.669	-104.274	-0.255	-0.058
-222.655	19.787	-0.084	-0.067
-221.640	15.413	-0.068	0.053
-220.625	-76.074	-0.035	0.012
-219.611	-32.591	-0.253	-0.139
-218.596	-59.056	0.361	0.154
-217.582	452.417	0.097	-0.212
-216.567	800.000	0.063	-0.187
-215.552	26.983	0.153	0.127
-214.538	-200.000	0.014	0.373
-213.523	-200.000	-0.008	-0.075
-212.509	397.336	0.137	-0.283
-211.494	-31.735	-0.159	-0.088
-210.479	399.434	0.102	0.210
-209.465	-5.844	-0.058	0.039
-208.450	-200.000	-0.017	0.126
-207.436	-200.000	-0.033	-0.206
-206.421	373.647	0.153	0.308
-205.406	-151.712	0.257	-0.019
-204.392	800.000	0.037	0.107
-203.377	-3.849	-0.132	-0.090
-202.363	0.713	0.262	0.185
-201.348	-113.112	-0.090	-0.018
-200.333	599.702	0.045	-0.109
-199.319	800.000	0.033	0.136
-198.304	-66.104	-0.263	0.104
-197.290	-45.570	0.258	-0.126
-196.275	-115.128	0.101	0.019
-195.260	-176.904	-0.138	0.003
-194.246	58.566	0.066	0.063
-193.231	351.814	0.121	0.237
-192.217	278.675	-0.049	0.087
-191.202	138.979	0.236	0.305
-190.187	800.000	-0.068	0.225
-189.173	617.535	0.175	0.434
-188.158	-107.844	-0.126	0.027
-187.144	-105.894	-0.283	0.063
-186.129	-200.000	-0.022	0.609
-185.114	-127.117	0.079	0.011
-184.100	136.250	0.076	-0.098
-183.085	33.454	0.060	0.051
-182.071	-29.553	-0.038	-0.022
-181.056	-200.000	-0.023	-0.180
-180.042	-200.000	-0.014	0.095
-179.027	61.819	-0.239	0.235
-178.012	310.376	0.072	0.132
-176.998	800.000	-0.076	0.212
-175.983	-78.016	-0.178	-0.060
-174.969	-165.874	-0.116	-0.005
-173.954	-200.000	0.008	0.397
-172.939	800.000	0.060	0.172
-171.925	-30.119	-0.183	-0.103
-170.910	-200.000	0.060	0.264
-169.896	-146.282	0.570	0.049
-168.881	-149.984	0.317	0.024
-167.866	100.533	0.170	0.195
-166.852	-200.000	0.036	-0.177
-165.837	110.912	0.106	0.125
-164.823	-147.617	-0.131	-0.011
-163.808	-138.999	0.308	0.033
-162.793	-170.648	-0.200	-0.007
-161.779	-200.000	0.043	-0.213
-160.764	-64.925	0.110	0.044
-159.750	-200.000	0.063	-0.490
-158.735	-90.360	0.248	-0.071
-157.720	412.539	-0.093	0.194
-156.706	217.789	-0.219	0.344
-155.691	124.353	-0.140	0.173
-154.677	189.950	-0.062	0.092
-153.662	99.336	-0.105	0.119
-152.647	-30.109	-0.219	-0.123
-151.633	-200.000	0.073	-0.449
-150.618	333.933	-0.135	0.257
-149.604	59.577	-0.108	0.105
-148.589	64.490	0.105	0.104
-147.574	-142.995	0.070	0.007
-146.560	-59.953	0.114	0.048
-145.545	-105.650	0.239	-0.053
-144.531	158.556	0.100	0.136
-143.516	-67.265	-0.164	0.063
-142.502	457.161	-0.033	-0.073
-141.487	-86.074	0.082	0.025
-140.472	-23.398	0.117	-0.069
-139.458	48.507	-0.120	0.111
-138.443	-126.140	0.169	-0.025
-137.429	800.000	-0.151	0.487
-136.414	219.365	-0.308	0.485
-135.399	-68.389	0.013	-0.005
-134.385	-28.720	0.139	0.079
-133.370	-200.000	-0.026	0.255
-132.356	-71.455	-0.224	0.082
-131.341	193.757	0.240	0.358
-130.326	181.955	-0.042	-0.061
-129.312	156.224	-0.069	0.094
-128.297	-36.938	-0.177	0.094
-127.283	-119.443	0.343	0.059
-126.268	-79.547	0.363	0.121
-125.253	197.721	-0.181	-0.271
-124.239	-87.008	-0.192	0.057
-123.224	-30.728	-0.127	-0.071
-122.210	-152.519	0.289	-0.020
-121.195	-200.000	-0.012	-0.248
-120.180	46.196	0.078	0.071
-119.166	800.000	-0.033	0.129
-118.151	800.000	-0.095	-0.341
-117.137	800.000	0.055	-0.184
-116.122	-10.713	0.148	0.096
-115.107	-157.848	0.152	0.009
-114.093	800.000	-0.017	-0.060
-113.078	59.523	-0.271	-0.263
-112.064	-23.474	-0.053	-0.031
-111.049	43.296	-0.027	-0.024
-110.034	30.902	0.183	0.154
-109.020	-200.000	0.031	0.354
-108.005	-200.000	0.001	-0.110
-106.991	-78.925	-0.290	0.097
-105.976	-200.000	0.097	-0.457
-104.962	-200.000	-0.009	0.234
-103.947	-150.888	-0.126	-0.009
-102.932	78.685	-0.143	0.150
-101.918	735.221	0.156	0.412
-100.903	-113.964	0.306	-0.058
-99.889	-67.233	0.078	0.030
-98.874	-200.000	0.042	0.243
-97.859	-145.636	0.406	0.036
-96.845	800.000	-0.031	-0.096
-95.830	-47.843	0.194	0.092
-94.816	-41.328	0.092	0.047
-93.801	87.167	0.281	-0.305
-92.786	800.000	-0.065	0.195
-91.772	722.085	0.061	-0.158
-90.757	148.819	0.162	-0.215
-89.743	507.087	0.008	-0.017
-88.728	800.000	0.162	0.466
-87.713	800.000	-0.088	-0.289
-86.699	-200.000	-0.006	0.089
-85.684	-76.299	0.364	-0.126
-84.670	-68.621	-0.306	-0.116
-83.655	-111.289	0.152	-0.030
-82.640	-3.367	0.112	0.077
-81.626	800.000	-0.070	0.210
-80.611	-133.492	-0.178	0.022
-79.597	-9.517	0.176	0.115
-78.582	-15.597	-0.369	0.231
-77.567	-166.321	0.227	0.009
-76.553	75.321	0.054	0.056
-75.538	800.000	-0.052	-0.146
-74.524	-200.000	-0.054	-0.390
-73.509	-166.028	0.205	-0.009
-72.494	-200.000	-0.004	0.100
-71.480	165.176	-0.152	0.210
-70.465	735.130	0.145	-0.380
-69.451	179.774	-0.101	-0.145
-68.436	-200.000	0.174	0.001
-67.422	702.405	-0.083	-0.214
-66.407	-58.717	0.065	-0.028
-65.392	239.685	0.094	-0.154
-64.378	234.232	-0.019	0.031
-63.363	-200.000	0.018	-0.133
-62.349	-113.694	0.219	-0.042
-61.334	56.190	-0.865	-0.824
-60.319	-109.044	0.688	0.144
-59.305	-200.000	-0.204	-1.251
-58.290	150.058	0.838	1.114
-57.276	430.088	0.617	1.308
-56.261	-200.000	109.219	586.149
-55.246	404.855	1534.951	3172.008
-54.232	137.402	2745.622	3522.086
-53.217	101.551	2207.062	2521.930
-52.203	39.770	1638.741	1441.648
-51.188	31.662	1375.606	1160.130
-50.173	28.704	1334.677	1107.756
-49.159	52.718	1390.461	1302.629
-48.144	52.541	1405.792	1315.851
-47.130	31.969	1359.851	1148.541
-46.115	28.510	1342.344	1112.762
-45.100	28.334	1337.494	1107.634
-44.086	28.160	1334.941	1104.424
-43.071	28.246	1332.587	1102.950
-42.057	28.100	1330.429	1100.247
-41.042	28.110	1328.645	1098.785
-40.027	28.148	1327.033	1097.637
-39.013	28.122	1325.245	1095.960
-37.998	28.238	1323.342	1095.038
-36.984	28.258	1321.358	1093.469
-35.969	28.374	1319.156	1092.297
-34.954	28.351	1317.467	1090.718
-33.940	28.239	1316.959	1089.586
-32.925	28.345	1315.417	1088.897
-31.911	28.411	1313.320	1087.508
-30.896	28.508	1311.834	1086.813
-29.881	28.515	1310.698	1085.866
-28.867	28.409	1309.683	1084.356
-27.852	28.528	1307.359	1083.091
-26.838	28.415	1306.417	1081.601
-25.823	28.465	1305.029	1080.704
-24.809	28.458	1303.675	1079.502
-23.794	28.448	1302.509	1078.435
-22.779	28.374	1301.159	1076.835
-21.765	28.453	1299.721	1076.071
-20.750	28.310	1299.129	1074.696
-19.736	28.427	1297.108	1073.665
-18.721	28.294	1295.982	1071.914
-17.706	28.256	1295.121	1070.935
-16.692	28.252	1293.503	1069.535
-15.677	28.278	1292.618	1068.913
-14.663	28.359	1291.336	1068.279
-13.648	28.322	1290.345	1067.206
-12.633	28.227	1289.096	1065.572
-11.619	28.293	1288.660	1065.558
-10.604	28.286	1287.677	1064.662
-9.590	28.283	1286.695	1063.790
-8.575	28.131	1286.017	1062.305
-7.560	28.317	1284.658	1062.218
-6.546	28.247	1284.269	1061.450
-5.531	28.186	1283.338	1060.284
-4.517	28.321	1282.433	1060.275
-3.502	28.337	1281.521	1059.574
-2.487	28.340	1280.277	1058.520
-1.473	28.359	1276.654	1055.588
-0.458	27.489	1262.215	1038.651
0.556	23.829	1246.540	1005.397
1.571	20.377	1253.156	990.978
2.586	18.954	1267.885	994.313
3.600	18.054	1255.022	978.984
4.615	13.180	1180.292	894.293
5.629	4.934	1103.664	794.275
6.644	1.181	1084.061	761.283
7.659	0.822	1081.800	757.827
8.673	0.837	1080.638	757.023
9.688	0.791	1079.686	756.059
10.702	1.043	1077.315	755.588
11.717	5.674	1083.152	782.794
12.731	12.886	1093.328	826.341
13.746	16.780	1097.179	848.722
14.761	17.378	1098.223	852.452
15.775	16.699	1095.892	847.170
16.790	15.726	1094.019	840.789
17.804	14.999	1092.722	836.084
18.819	14.749	1090.855	833.335
19.834	14.347	1090.357	830.876
20.848	14.090	1089.607	828.949
21.863	13.834	1088.713	826.922
22.877	13.769	1087.530	825.626
23.892	13.676	1087.166	824.815
24.907	13.651	1086.125	823.827
25.921	13.680	1085.596	823.499
26.936	13.791	1084.625	823.239
27.950	13.736	1084.127	822.516
28.965	13.785	1082.311	821.305
29.980	13.896	1080.826	820.654
30.994	13.953	1079.582	819.919
32.009	13.831	1079.001	818.802
33.023	13.812	1077.909	817.808
34.038	13.844	1077.261	817.403
35.053	13.888	1075.661	816.331
36.067	13.668	1075.283	814.891
37.082	13.770	1074.345	814.608
38.096	13.930	1073.948	815.025
39.111	13.788	1073.037	813.560
40.126	13.819	1071.917	812.793
41.140	13.722	1070.623	811.266
42.155	13.667	1069.785	810.291
43.169	13.580	1068.739	809.000
44.184	13.719	1067.255	808.485
45.199	13.654	1066.533	807.549
46.213	13.628	1065.205	806.348
47.228	13.738	1064.437	806.226
48.242	13.676	1063.411	805.079
49.257	13.721	1062.267	804.359
50.271	13.801	1060.886	803.632
51.286	13.806	1060.549	803.329
52.301	13.755	1059.487	802.204
53.315	13.603	1058.572	800.710
54.330	13.825	1057.127	800.614
55.344	13.828	1056.243	799.888
56.359	13.792	1055.247	798.890
57.374	13.715	1054.632	797.986
58.388	13.605	1053.778	796.739
59.403	13.624	1053.098	796.247
60.417	13.665	1052.038	795.570
61.432	13.604	1051.453	794.766
62.447	13.558	1050.589	793.820
63.461	13.538	1049.886	793.122
64.476	13.511	1049.087	792.319
65.490	13.652	1047.911	792.038
66.505	13.583	1047.016	790.961
67.520	13.693	1046.527	791.047
68.534	13.650	1045.523	790.010
69.549	13.759	1044.630	789.787
70.563	13.699	1043.906	788.885
71.578	13.564	1043.269	787.692
72.593	13.652	1042.641	787.565
73.607	13.564	1042.356	786.862
74.622	13.484	1041.822	786.008
75.636	13.584	1040.438	785.369
76.651	13.476	1039.842	784.338
77.666	13.505	1038.996	783.769
78.680	13.573	1038.446	783.605
79.695	13.520	1037.854	782.841
80.709	13.614	1036.880	782.476
81.724	13.803	1035.889	782.553
82.739	13.733	1035.187	781.626
83.753	13.713	1034.772	781.148
84.768	13.766	1033.307	780.223
85.782	13.747	1032.658	779.572
86.797	13.785	1031.956	779.152
87.812	13.745	1030.880	778.082
88.826	13.655	1029.890	776.847
89.841	13.813	1028.597	776.541
90.855	13.756	1027.988	775.745
91.870	13.761	1027.636	775.436
92.884	13.807	1026.532	774.747
93.899	13.787	1025.259	773.627
94.914	13.741	1024.931	773.094
95.928	13.853	1024.107	772.926
96.943	13.791	1023.034	771.759
97.957	13.783	1021.909	770.807
98.972	13.819	1021.342	770.476
99.987	13.853	1020.265	769.754
101.001	14.031	1018.814	769.416
102.016	13.704	1019.026	767.994
103.030	13.769	1017.590	767.145
104.045	13.835	1016.745	766.744
105.060	13.831	1015.861	765.993
106.074	13.825	1015.010	765.255
107.089	13.713	1013.998	763.906
108.103	13.753	1013.216	763.436
109.118	13.751	1012.224	762.611
110.133	13.641	1011.639	761.597
111.147	13.621	1010.783	760.796
112.162	13.861	1009.511	760.871
113.176	13.737	1009.173	759.980
114.191	13.883	1007.806	759.551
115.206	13.898	1007.176	759.075
116.220	13.627	1006.959	757.608
117.235	13.776	1005.753	757.312
118.249	13.790	1004.787	756.581
119.264	13.779	1004.449	756.211
120.279	13.851	1003.227	755.551
121.293	13.792	1002.473	754.649
122.308	13.792	1001.865	754.125
123.322	13.825	1000.534	753.207
124.337	13.866	999.341	752.427
125.352	13.738	998.394	751.065
126.366	13.820	997.315	750.561
127.381	13.828	996.229	749.714
128.395	13.892	995.154	749.125
129.410	13.782	994.444	748.031
130.424	13.829	993.549	747.499
131.439	13.871	992.784	747.050
132.454	13.842	992.289	746.480
133.468	13.909	991.202	745.899
134.483	13.767	990.529	744.689
135.497	13.861	989.138	743.999
136.512	13.931	988.458	743.734
137.527	13.823	987.731	742.638
138.541	13.810	986.961	741.935
139.556	13.856	986.065	741.402
140.570	13.852	985.789	741.109
141.585	13.973	984.733	740.788
142.600	13.909	983.456	739.480
143.614	14.022	982.642	739.305
144.629	14.093	981.927	739.017
145.643	14.009	981.190	738.023
146.658	13.842	980.425	736.642
147.673	13.949	979.034	736.006
148.687	13.968	978.091	735.317
149.702	13.926	977.799	734.845
150.716	13.877	976.913	733.896
151.731	14.050	975.755	733.727
152.746	13.905	975.582	732.889
153.760	14.125	974.662	733.107
154.775	13.956	974.313	732.035
155.789	13.989	973.694	731.649
156.804	14.012	972.600	730.863
157.819	14.147	971.977	730.925
158.833	14.058	971.277	729.943
159.848	14.126	970.718	729.755
160.862	14.187	969.472	729.020
161.877	14.061	968.660	727.793
162.892	14.041	967.729	726.942
163.906	14.094	966.642	726.295
164.921	14.083	965.997	725.698
165.935	14.057	965.034	724.796
166.950	14.019	964.426	724.109
167.964	14.089	963.341	723.536
168.979	14.124	962.388	722.910
169.994	14.169	961.317	722.236
171.008	14.217	960.867	722.042
172.023	14.129	960.353	721.208
173.037	14.141	959.773	720.764
174.052	14.170	958.639	719.971
175.067	14.172	958.335	719.689
176.081	14.026	957.929	718.689
177.096	14.121	957.157	718.457
178.110	14.215	956.501	718.306
179.125	14.279	955.828	718.015
180.140	14.219	955.217	717.234
181.154	14.357	954.662	717.348
182.169	14.276	953.980	716.422
183.183	14.282	953.690	716.167
184.198	14.308	952.933	715.645
185.213	14.493	951.845	715.561
186.227	14.434	951.217	714.770
187.242	14.404	950.491	714.034
188.256	14.545	949.741	714.010
189.271	14.426	949.198	713.029
190.286	14.501	948.082	712.448
191.300	14.281	947.768	711.210
192.315	14.211	947.353	710.538
193.329	14.266	946.541	710.100
194.344	14.334	945.733	709.722
195.359	14.370	945.106	709.340
196.373	14.366	944.526	708.827
197.388	14.499	944.046	708.968
198.402	14.512	943.511	708.560
199.417	14.557	942.823	708.171
200.432	14.618	941.906	707.680
201.446	14.663	941.532	707.526
202.461	14.634	941.122	707.033
203.475	14.576	940.511	706.265
204.490	14.695	939.038	705.598
205.504	14.616	938.649	704.912
206.519	14.605	938.011	704.323
207.534	14.778	937.084	704.293
208.548	14.482	936.746	702.730
209.563	14.641	935.834	702.653
210.577	14.628	935.076	701.967
211.592	14.777	934.401	702.025
212.607	14.775	934.110	701.734
213.621	14.727	933.001	700.637
214.636	14.744	932.644	700.382
215.650	14.743	931.981	699.815
216.665	14.802	930.698	699.039
217.680	14.882	930.246	698.971
218.694	14.873	929.602	698.385
219.709	14.842	929.081	697.803
220.723	14.874	928.473	697.421
221.738	14.843	927.708	696.653
222.753	14.859	927.366	696.403
223.767	14.846	926.710	695.795
224.782	15.006	925.379	695.396
225.796	14.955	925.317	695.079
226.811	14.955	924.368	694.303
227.826	14.913	924.106	693.873
228.840	14.914	923.437	693.312
229.855	15.076	922.095	692.912
230.869	15.003	921.387	692.018
231.884	15.065	920.831	691.795
232.899	15.035	919.921	690.928
233.913	14.883	919.428	689.869
234.928	15.018	918.236	689.470
235.942	15.098	918.039	689.588
236.957	14.993	917.412	688.625
237.972	14.956	916.825	687.971
238.986	14.984	916.102	687.482
240.001	15.002	915.327	686.914
241.015	15.146	914.801	687.049
242.030	15.102	914.340	686.464
243.045	15.113	913.831	686.067
244.059	15.084	913.165	685.384
245.074	15.113	912.493	684.938
246.088	15.330	911.521	685.036
247.103	15.184	911.043	684.020
248.117	15.181	910.601	683.616
249.132	15.298	910.233	683.756
250.147	15.302	909.319	683.023
251.161	15.241	908.753	682.292
252.176	15.328	907.615	681.729
253.190	15.357	907.209	681.484
254.205	15.319	906.610	680.819
255.220	15.386	905.881	680.481
256.234	15.446	904.906	679.933
257.249	15.434	904.347	679.405
258.263	15.497	903.792	679.182
259.278	15.505	902.519	678.198
260.293	15.454	902.665	678.042
261.307	15.515	902.103	677.803
262.322	15.657	901.126	677.583
263.336	15.630	900.477	676.927
264.351	15.590	899.611	676.053
265.366	15.656	899.001	675.803
266.380	15.765	898.127	675.522
267.395	15.532	898.131	674.531
268.409	15.566	897.182	673.894
269.424	15.665	896.456	673.687
270.439	15.785	895.429	673.334
271.453	15.724	895.220	672.875
272.468	15.692	894.585	672.211
273.482	15.621	894.145	671.535
274.497	15.663	893.488	671.151
275.512	15.715	892.662	670.676
276.526	15.646	892.459	670.190
277.541	15.758	892.032	670.258
278.555	15.791	891.279	669.764
279.570	15.928	890.193	669.433
280.585	15.718	889.839	668.275
281.599	15.823	889.191	668.144
282.614	15.899	888.340	667.747
283.628	15.910	887.565	667.149
284.643	15.740	887.604	666.448
285.657	15.820	886.624	665.969
286.672	15.839	885.788	665.356
287.687	15.967	885.302	665.438
288.701	16.001	884.661	665.031
289.716	15.908	884.278	664.318
290.730	16.041	883.485	664.188
291.745	15.862	882.935	663.012
292.760	16.082	882.159	663.236
293.774	15.972	881.668	662.372
294.789	16.067	880.462	661.783
295.803	16.123	880.034	661.620
296.818	16.113	879.117	660.835
297.833	16.085	878.737	660.380
298.847	16.217	877.885	660.197
299.862	16.152	877.506	659.602
300.876	16.124	877.201	659.202
301.891	16.254	876.258	658.944
302.906	16.268	875.865	658.644
303.920	16.192	875.222	657.805
304.935	16.297	874.758	657.810
305.949	16.267	873.899	656.988
306.964	16.333	873.630	656.984
307.979	16.244	873.193	656.250
308.993	16.237	872.701	655.796
310.008	16.343	871.606	655.327
311.022	16.298	871.091	654.708
312.037	16.361	870.580	654.508
313.052	16.267	870.027	653.673
314.066	16.219	869.850	653.296
315.081	16.318	868.872	652.885
316.095	16.317	868.045	652.201
317.110	16.360	867.666	652.025
318.125	16.304	867.306	651.483
319.139	16.406	866.468	651.187
320.154	16.444	865.886	650.841
321.168	16.485	865.404	650.576
322.183	16.463	865.067	650.183
323.197	16.487	864.622	649.883
324.212	16.506	863.872	649.335
325.227	16.350	863.616	648.483
326.241	16.359	862.563	647.672
327.256	16.592	861.936	648.038
328.270	16.419	861.766	647.187
329.285	16.378	861.375	646.680
330.300	16.607	860.299	646.692
331.314	16.536	859.884	646.049
332.329	16.437	859.661	645.447
333.343	16.559	858.993	645.354
334.358	16.550	858.734	645.067
335.373	16.545	858.053	644.481
336.387	16.608	857.908	644.555
337.402	16.528	857.831	644.133
338.416	16.785	857.143	644.538
339.431	16.767	856.250	643.741
340.446	16.680	856.274	643.374
341.460	16.812	855.839	643.491
342.475	16.715	855.442	642.767
343.489	16.877	855.179	643.126
344.504	16.854	854.793	642.692
345.519	16.873	854.025	642.129
346.533	16.995	853.425	642.086
347.548	16.811	853.289	641.228
348.562	16.868	852.445	640.752
349.577	16.900	851.668	640.235
350.592	16.893	851.008	639.653
351.606	16.809	850.635	639.002
352.621	16.814	849.926	638.430
353.635	16.900	849.008	638.006
354.650	16.877	848.624	637.576
355.665	17.026	848.062	637.659
356.679	17.045	846.995	636.870
357.694	16.974	846.668	636.300
358.708	17.007	846.105	635.945
359.723	17.028	845.538	635.542
360.738	16.979	844.846	634.783
361.752	16.940	844.366	634.218
362.767	17.080	843.789	634.253
363.781	17.037	843.330	633.692
364.796	17.168	842.850	633.764
365.810	17.088	842.286	632.984
366.825	17.300	841.791	633.347
367.840	17.375	841.149	633.087
368.854	17.100	841.195	632.043
369.869	17.222	840.410	631.851
370.883	17.303	839.808	631.644
371.898	17.266	839.666	631.343
372.913	17.177	839.676	630.962
373.927	17.225	838.942	630.534
374.942	17.351	838.293	630.459
375.956	17.187	838.264	629.773
376.971	17.383	837.591	629.937
377.986	17.516	836.809	629.787
379.000	17.491	836.372	629.308
380.015	17.460	835.793	628.703
381.029	17.615	835.132	628.721
382.044	17.563	834.542	628.030
383.059	17.455	834.027	627.189
384.073	17.583	833.831	627.457
385.088	17.481	833.210	626.559
386.102	17.609	832.348	626.325
387.117	17.377	831.916	625.093
388.132	17.512	831.486	625.211
389.146	17.574	830.947	624.977
390.161	17.616	830.122	624.455
391.175	17.568	829.823	623.998
392.190	17.710	829.225	624.015
393.205	17.597	828.639	623.103
394.219	17.472	828.833	622.737
395.234	17.503	828.320	622.413
396.248	17.585	827.610	622.120
397.263	17.503	827.633	621.783
398.278	17.525	826.896	621.256
399.292	17.525	826.841	621.158
400.307	17.545	825.924	620.490
401.321	17.781	824.929	620.544
402.336	17.726	825.052	620.381
403.350	17.746	824.629	620.082
404.365	17.686	823.978	619.319
405.380	17.814	823.521	619.385
406.394	17.726	823.025	618.637
407.409	17.829	822.628	618.660
408.423	17.828	822.234	618.303
409.438	17.864	821.870	618.106
410.453	17.919	821.549	618.009
411.467	17.863	820.911	617.273
412.482	17.830	820.727	616.958
413.496	17.990	820.083	616.999
414.511	18.051	819.683	616.864
415.526	17.998	819.236	616.281
416.540	18.003	818.774	615.898
417.555	18.068	817.893	615.416
418.569	18.024	818.140	615.386
419.584	18.115	817.213	614.964
420.599	18.183	816.838	614.872
421.613	111.461	1295.902	1474.292
422.628	96.483	1365.676	1474.398
