DTS Sentinel unit serial number:	SN413079Multiplexer serial number:	ORYXHardware model number:	OX4-SRSoftware version number:	ORYX F/W v4.00 Oryx Data Collector v3.7.2.0data status	okinstallation	princeton_trtdifferential loss correction	single-endedforward channel	channel 1reverse channel	N/Adate	2019/09/12time	19:10:34forward acquisition time	15.00reverse acquisition time	0.00gamma	496.2192k internal	0.2320k external	0.2320temperature offset calibration	1.0126default loss term (dB/km)	0.3790temperature slope calibration	1.0000multiplexer offset coefficient	1.0000multiplexer slope coefficient	1.0000fibre end	0.00T internal ref (°C)	32.62T ext. ref 1 (°C)	3.21T ext. ref 2 (°C)	27.19length (m)	temperature (°C)	Stokes	anti-Stokes-747.200	398.000	0.417	0.881
-746.185	37.545	-0.472	0.423
-745.171	11.078	-0.218	-0.168
-744.156	-65.150	-1.039	-0.424
-743.142	129.239	-0.303	0.391
-742.127	31.352	0.721	0.626
-741.112	-142.533	0.547	0.054
-740.098	221.905	-0.131	-0.212
-739.083	177.475	0.382	0.563
-738.069	-200.000	0.175	0.909
-737.054	342.668	0.110	0.218
-736.039	217.826	0.336	-0.542
-735.025	50.080	0.447	0.426
-734.010	420.215	-0.011	-0.024
-732.996	305.979	0.135	-0.253
-731.981	38.478	0.639	0.576
-730.966	539.436	-0.429	1.032
-729.952	-11.334	0.722	0.480
-728.937	800.000	0.192	-0.549
-727.923	-1.969	0.672	0.477
-726.908	159.943	0.546	0.769
-725.894	-118.417	1.165	0.209
-724.879	-200.000	0.014	-0.281
-723.864	-16.503	-0.280	0.180
-722.850	800.000	0.212	-0.605
-721.835	800.000	-0.241	-0.745
-720.821	-96.723	-0.569	-0.151
-719.806	325.758	0.127	-0.245
-718.791	-200.000	0.021	-0.396
-717.777	264.235	0.144	-0.253
-716.762	205.838	-0.212	-0.333
-715.748	135.667	-0.426	-0.561
-714.733	84.898	-0.329	-0.365
-713.718	-20.690	0.350	-0.217
-712.704	282.850	-0.489	-0.887
-711.689	-149.312	-0.071	-0.006
-710.675	428.150	0.168	-0.366
-709.660	119.590	-0.557	0.696
-708.645	-200.000	0.030	0.316
-707.631	-200.000	-0.109	-0.545
-706.616	80.339	0.209	0.228
-705.602	69.344	0.504	-0.524
-704.587	-129.118	0.450	0.063
-703.572	-172.154	0.441	-0.014
-702.558	137.913	0.324	-0.429
-701.543	-77.058	0.347	0.122
-700.529	77.774	-0.054	-0.058
-699.514	800.000	0.219	-0.775
-698.499	630.552	-0.126	-0.323
-697.485	281.405	0.345	-0.624
-696.470	596.055	0.206	-0.514
-695.456	304.778	0.274	-0.513
-694.441	493.272	-0.305	0.706
-693.426	50.038	-0.056	-0.054
-692.412	-46.228	0.458	-0.227
-691.397	-12.939	-1.132	-0.743
-690.383	-8.781	-0.296	-0.201
-689.368	-200.000	-0.066	0.389
-688.354	194.641	-0.155	0.237
-687.339	6.182	-0.029	-0.022
-686.324	-116.129	-0.492	-0.092
-685.310	-81.278	-0.342	-0.114
-684.295	109.852	-0.610	-0.739
-683.281	800.000	-0.204	-0.597
-682.266	-125.908	0.290	-0.044
-681.251	-95.191	-0.688	0.187
-680.237	-44.264	0.611	-0.309
-679.222	365.959	-0.250	-0.509
-678.208	-88.708	-0.627	0.188
-677.193	597.107	0.108	-0.270
-676.178	-116.790	0.716	0.132
-675.164	-153.974	-0.926	-0.064
-674.149	800.000	-0.151	-0.482
-673.135	-59.615	1.249	-0.540
-672.120	121.667	-0.581	-0.731
-671.105	800.000	-0.186	-0.536
-670.091	-60.016	-0.451	0.194
-669.076	-161.639	1.080	0.056
-668.062	65.478	0.706	-0.720
-667.047	44.488	-0.413	-0.382
-666.032	-76.529	0.259	-0.092
-665.018	-122.704	-0.129	-0.021
-664.003	-200.000	-0.040	0.863
-662.989	800.000	0.129	0.536
-661.974	385.224	0.215	-0.446
-660.959	223.495	0.265	0.431
-659.945	-113.217	-0.353	-0.070
-658.930	541.561	0.134	0.323
-657.916	-67.421	0.050	0.020
-656.901	45.413	0.225	-0.209
-655.886	800.000	-0.139	0.449
-654.872	800.000	0.114	0.491
-653.857	800.000	-0.030	0.120
-652.843	-35.960	-0.922	-0.502
-651.828	-133.178	0.372	-0.047
-650.814	-147.151	-0.370	-0.032
-649.799	-153.379	-0.925	0.065
-648.784	-132.131	0.251	0.033
-647.770	405.569	-0.086	-0.182
-646.755	-80.035	-0.314	-0.106
-645.741	34.340	0.518	-0.455
-644.726	12.786	-0.756	-0.589
-643.711	-200.000	0.071	0.535
-642.697	-31.412	-0.225	0.128
-641.682	-94.307	-0.587	-0.161
-640.668	0.148	0.509	0.365
-639.653	-177.272	-0.479	-0.012
-638.638	52.725	-0.301	-0.289
-637.624	-40.215	-0.447	0.234
-636.609	127.158	-0.311	-0.397
-635.595	2.108	-0.191	0.139
-634.580	277.389	-0.188	0.337
-633.565	-10.503	-0.155	-0.104
-632.551	-61.498	0.842	0.356
-631.536	191.236	0.270	0.409
-630.522	800.000	0.464	-1.480
-629.507	292.526	-0.170	0.312
-628.492	-99.705	-0.415	0.105
-627.478	62.486	0.237	-0.238
-626.463	-120.912	-0.434	0.074
-625.449	82.102	0.058	0.063
-624.434	-200.000	0.019	-0.547
-623.419	-26.883	0.775	-0.456
-622.405	-64.807	0.359	0.146
-621.390	800.000	-0.078	-0.313
-620.376	-200.000	0.061	-0.731
-619.361	800.000	0.152	-0.458
-618.346	-124.198	0.508	-0.080
-617.332	-76.451	-0.536	0.189
-616.317	-40.217	0.067	0.035
-615.303	-82.250	0.449	-0.147
-614.288	-44.516	0.640	0.322
-613.273	16.073	-0.503	-0.399
-612.259	39.983	0.159	-0.144
-611.244	86.164	0.400	0.443
-610.230	-127.274	0.445	0.065
-609.215	90.599	-0.515	-0.580
-608.201	155.523	-0.209	0.289
-607.186	354.764	0.179	0.359
-606.171	90.561	0.291	0.328
-605.157	14.710	-0.712	0.560
-604.142	-84.983	-0.384	0.121
-603.128	79.026	-0.785	0.845
-602.113	235.594	-0.197	-0.327
-601.098	-85.771	-0.315	-0.098
-600.084	800.000	-0.232	-0.700
-599.069	-130.397	0.893	-0.122
-598.055	-143.689	-0.222	-0.021
-597.040	-35.164	0.239	0.131
-596.025	157.617	0.226	0.315
-595.011	-108.669	0.414	-0.089
-593.996	-43.140	-0.205	0.105
-592.982	29.291	0.825	-0.704
-591.967	-31.023	0.447	-0.254
-590.952	250.801	-0.097	0.165
-589.938	-148.432	0.804	-0.066
-588.923	116.503	-0.578	-0.712
-587.909	389.208	0.064	0.133
-586.894	91.612	0.186	0.210
-585.879	624.720	-0.155	0.392
-584.865	-131.938	-0.726	-0.095
-583.850	556.210	0.291	-0.703
-582.836	-132.248	-0.839	-0.109
-581.821	800.000	0.041	-0.132
-580.806	151.818	0.371	-0.508
-579.792	-126.888	-0.962	-0.142
-578.777	192.569	0.060	0.091
-577.763	12.476	-0.049	0.038
-576.748	-97.240	-0.497	0.130
-575.733	-71.020	-0.906	-0.342
-574.719	321.054	-0.415	0.793
-573.704	-64.183	0.893	-0.366
-572.690	40.533	-0.216	0.196
-571.675	1.468	0.255	0.184
-570.661	-26.483	0.856	0.504
-569.646	800.000	-0.183	0.602
-568.631	323.647	-0.201	0.385
-567.617	113.585	0.437	0.533
-566.602	-158.305	0.533	-0.031
-565.588	63.946	-0.280	0.283
-564.573	-119.016	0.592	-0.104
-563.558	-37.023	-0.474	-0.255
-562.544	800.000	-0.187	-0.743
-561.529	-200.000	0.017	-0.514
-560.515	-200.000	-0.160	0.897
-559.500	800.000	0.059	0.228
-558.485	-77.950	0.536	-0.185
-557.471	12.626	0.455	-0.353
-556.456	81.424	0.533	-0.578
-555.442	-111.423	-0.864	-0.177
-554.427	319.125	-0.157	-0.298
-553.412	199.573	-0.132	-0.204
-552.398	800.000	0.180	0.671
-551.383	-59.011	0.929	0.403
-550.369	56.071	-0.387	-0.377
-549.354	-46.408	0.162	-0.080
-548.339	-200.000	0.072	0.515
-547.325	-61.037	-0.161	-0.068
-546.310	-200.000	0.053	0.997
-545.296	-140.049	0.397	0.042
-544.281	186.956	-0.593	-0.887
-543.266	-132.325	0.896	-0.116
-542.252	719.387	-0.314	0.838
-541.237	753.979	0.095	-0.256
-540.223	-200.000	-0.032	-0.331
-539.208	-119.719	-0.665	0.115
-538.193	-20.598	0.692	-0.426
-537.179	-103.946	0.782	0.183
-536.164	-69.426	-0.286	-0.110
-535.150	-45.004	-0.503	-0.251
-534.135	-72.067	0.127	-0.047
-533.121	-200.000	-0.033	0.207
-532.106	139.360	-0.379	-0.500
-531.091	-94.346	-0.472	0.129
-530.077	-156.655	0.140	0.009
-529.062	-55.182	-0.401	-0.181
-528.048	-200.000	-0.053	-0.243
-527.033	-33.156	-0.626	0.348
-526.018	316.669	-0.243	0.460
-525.004	-52.825	-0.139	0.064
-523.989	-200.000	-0.056	0.494
-522.975	-97.816	-0.317	-0.082
-521.960	0.313	-0.583	0.417
-520.945	285.275	-0.112	-0.202
-519.931	86.621	0.284	-0.314
-518.916	67.044	0.039	-0.040
-517.902	743.447	0.344	-0.927
-516.887	-41.695	0.923	-0.475
-515.872	-143.161	-0.248	0.024
-514.858	-63.574	0.272	0.112
-513.843	800.000	0.033	-0.107
-512.829	-200.000	-0.138	1.180
-511.814	149.321	0.170	0.231
-510.799	-125.812	-0.327	0.050
-509.785	445.916	-0.072	-0.158
-508.770	-82.111	0.393	-0.129
-507.756	-200.000	0.088	0.523
-506.741	690.913	0.101	0.265
-505.726	-148.474	0.607	0.050
-504.712	33.356	-0.321	-0.279
-503.697	57.792	-0.971	0.951
-502.683	569.715	-0.300	0.730
-501.668	800.000	-0.182	0.543
-500.653	168.830	0.320	0.456
-499.639	67.702	0.368	-0.377
-498.624	-189.342	-0.699	0.008
-497.610	4.457	-0.250	0.184
-496.595	-148.291	0.441	0.036
-495.581	349.406	-0.317	0.628
-494.566	299.106	0.263	-0.484
-493.551	-28.271	0.906	0.524
-492.537	-104.552	-0.332	0.077
-491.522	501.773	-0.202	-0.467
-490.508	698.051	-0.436	1.146
-489.493	655.017	-0.352	-0.904
-488.478	-151.094	0.442	0.033
-487.464	-54.969	-0.863	0.389
-486.449	-69.044	-0.671	-0.259
-485.435	-103.975	0.343	0.080
-484.420	-121.526	-0.345	0.057
-483.405	-128.967	0.145	0.020
-482.391	257.621	0.046	-0.079
-481.376	-20.242	0.199	-0.123
-480.362	-200.000	0.031	-0.750
-479.347	-159.824	0.566	-0.031
-478.332	-0.743	-0.701	-0.497
-477.318	68.580	0.781	0.802
-476.303	36.891	-0.527	0.466
-475.289	-94.972	-0.651	0.176
-474.274	-50.104	-0.720	0.341
-473.259	-106.599	0.345	-0.077
-472.245	230.579	-0.384	-0.628
-471.230	575.438	0.021	-0.051
-470.216	169.824	0.303	-0.433
-469.201	141.871	0.674	-0.894
-468.186	-200.000	-0.004	-0.142
-467.172	-14.673	-0.628	-0.403
-466.157	315.315	0.406	0.766
-465.143	608.855	0.245	0.612
-464.128	-200.000	0.137	-1.088
-463.113	-130.946	-0.299	0.040
-462.099	-90.199	-0.341	0.099
-461.084	-132.626	-0.091	0.012
-460.070	-125.910	-0.286	0.043
-459.055	343.264	-0.084	-0.165
-458.040	-200.000	0.063	-0.399
-457.026	-37.543	-0.566	-0.302
-456.011	-166.277	0.235	0.010
-454.997	-18.915	0.655	-0.408
-453.982	289.041	-0.370	-0.670
-452.968	-71.786	-0.827	0.308
-451.953	-63.824	-0.844	0.345
-450.938	-200.000	-0.090	-0.397
-449.924	-20.686	-0.510	-0.313
-448.909	-200.000	-0.044	0.687
-447.895	-81.162	0.321	-0.106
-446.880	-200.000	-0.003	0.556
-445.865	-70.689	0.134	0.051
-444.851	-89.421	0.631	-0.185
-443.836	68.339	0.515	-0.527
-442.822	-76.080	-0.441	0.156
-441.807	-200.000	-0.034	0.235
-440.792	22.851	-0.489	0.400
-439.778	-123.941	1.097	-0.173
-438.763	495.396	-0.273	0.627
-437.749	-158.756	0.729	0.042
-436.734	-200.000	-0.057	-0.728
-435.719	-0.969	0.455	-0.322
-434.705	760.256	0.208	0.564
-433.690	90.328	0.468	0.523
-432.676	539.561	-0.114	0.271
-431.661	-4.226	0.612	0.423
-430.646	176.935	-0.436	-0.634
-429.632	-178.191	0.877	-0.021
-428.617	179.126	0.248	-0.363
-427.603	117.083	0.441	-0.541
-426.588	-200.000	0.004	-0.283
-425.573	141.570	-0.426	-0.564
-424.559	-200.000	0.022	0.707
-423.544	98.580	0.389	0.448
-422.530	-152.996	0.218	-0.015
-421.515	54.321	0.367	-0.353
-420.500	22.516	-0.444	0.363
-419.486	-178.215	0.608	0.014
-418.471	91.173	-0.222	0.249
-417.457	-34.665	-0.497	0.271
-416.442	-166.040	-0.405	0.017
-415.428	-129.246	0.442	-0.061
-414.413	-54.385	0.348	-0.158
-413.398	-200.000	-0.076	-0.591
-412.384	-95.639	-0.204	0.054
-411.369	-131.159	0.523	0.069
-410.355	-8.887	0.257	0.172
-409.340	-0.301	0.434	0.308
-408.325	-200.000	0.033	0.774
-407.311	800.000	-0.081	0.232
-406.296	-200.000	-0.134	-0.672
-405.282	800.000	0.141	-0.608
-404.267	-200.000	-0.068	-0.584
-403.252	-62.263	0.356	-0.148
-402.238	-149.216	-0.510	0.041
-401.223	648.390	-0.155	-0.395
-400.209	-14.922	0.762	-0.487
-399.194	-114.593	0.121	-0.023
-398.179	-50.471	-0.365	-0.172
-397.165	800.000	0.214	-0.712
-396.150	552.078	-0.285	0.684
-395.136	280.321	0.181	0.322
-394.121	-127.109	-0.264	0.039
-393.106	133.461	0.245	-0.316
-392.092	174.086	-0.317	-0.457
-391.077	-200.000	-0.042	0.526
-390.063	46.584	-0.393	0.363
-389.048	-200.000	0.016	0.071
-388.033	-200.000	0.033	-0.172
-387.019	800.000	0.177	0.683
-386.004	-77.894	-0.261	-0.090
-384.990	-200.000	0.037	-0.250
-383.975	194.698	0.308	-0.466
-382.960	-200.000	0.188	0.863
-381.946	48.403	-0.304	0.284
-380.931	-200.000	0.025	0.707
-379.917	126.883	-0.408	-0.516
-378.902	-200.000	0.249	1.207
-377.888	-167.270	0.900	0.036
-376.873	-144.230	-1.088	-0.101
-375.858	800.000	-0.051	-0.185
-374.844	157.580	0.074	0.102
-373.829	-28.848	-0.913	-0.523
-372.815	-33.683	-0.262	-0.144
-371.800	68.590	-0.933	0.954
-370.785	-200.000	-0.090	-0.604
-369.771	23.252	-0.414	-0.339
-368.756	547.102	0.138	0.328
-367.742	27.972	-0.521	-0.438
-366.727	668.153	-0.339	-0.873
-365.712	800.000	0.130	-0.415
-364.698	-11.866	0.468	0.306
-363.683	-145.553	1.118	-0.100
-362.669	170.009	0.762	-1.085
-361.654	306.616	0.233	-0.432
-360.639	84.678	-0.260	0.283
-359.625	4.314	-0.447	-0.326
-358.610	275.859	-0.023	0.041
-357.596	-139.052	-1.210	0.131
-356.581	-10.672	-0.779	0.513
-355.566	253.119	-0.185	0.314
-354.552	-51.203	-0.613	0.286
-353.537	174.910	-0.338	0.487
-352.523	-200.000	-0.005	-0.134
-351.508	-113.298	0.521	0.102
-350.493	395.197	0.054	0.112
-349.479	-98.329	-0.215	0.055
-348.464	-200.000	-0.085	0.594
-347.450	-117.489	0.648	0.117
-346.435	-12.269	-0.288	0.188
-345.420	800.000	-0.013	-0.041
-344.406	-7.572	0.669	-0.451
-343.391	-124.319	0.390	-0.061
-342.377	359.559	-0.132	0.263
-341.362	45.280	-0.492	-0.452
-340.348	215.960	-0.068	-0.108
-339.333	-86.664	0.307	0.094
-338.318	142.469	-0.202	0.267
-337.304	-154.963	-0.236	0.015
-336.289	551.647	-0.228	-0.544
-335.275	-25.435	-0.709	-0.417
-334.260	167.629	0.109	-0.154
-333.245	-103.284	-0.083	0.019
-332.231	-153.124	-0.596	-0.042
-331.216	-158.442	0.869	-0.050
-330.202	61.649	0.491	0.486
-329.187	209.183	0.190	-0.296
-328.172	-106.278	-0.150	0.033
-327.158	243.176	-0.201	0.335
-326.143	-103.356	0.256	-0.060
-325.129	754.126	0.245	-0.659
-324.114	-78.763	-0.782	-0.265
-323.099	12.420	0.345	-0.264
-322.085	-56.510	-1.263	-0.557
-321.070	23.130	-0.222	-0.181
-320.056	-112.681	-0.516	0.102
-319.041	262.481	0.260	0.449
-318.026	32.651	-0.635	0.546
-317.012	-88.107	0.801	-0.239
-315.997	-7.853	-0.486	0.326
-314.983	487.909	0.204	0.463
-313.968	530.968	0.510	1.200
-312.953	172.751	-0.307	-0.440
-311.939	192.401	-0.304	0.456
-310.924	254.261	0.196	0.333
-309.910	2.005	-0.244	-0.175
-308.895	-200.000	0.136	-0.650
-307.880	88.608	0.230	0.254
-306.866	86.484	0.534	0.585
-305.851	-44.435	0.541	0.269
-304.837	-200.000	-0.153	0.752
-303.822	151.621	0.316	-0.428
-302.807	108.980	0.130	-0.155
-301.793	-95.408	-0.196	-0.052
-300.778	153.479	0.150	-0.204
-299.764	-150.957	0.680	0.051
-298.749	341.858	-0.240	-0.465
-297.735	-21.396	-0.536	-0.325
-296.720	-136.702	0.504	-0.058
-295.705	-200.000	-0.156	-0.794
-294.691	-136.159	0.693	-0.081
-293.676	305.621	0.482	0.891
-292.662	-44.331	-0.261	0.130
-291.647	-132.080	0.297	0.038
-290.632	57.204	-0.590	0.572
-289.618	-200.000	0.081	0.971
-288.603	134.384	-0.489	0.629
-287.589	-200.000	0.124	1.238
-286.574	28.449	-0.513	-0.431
-285.559	800.000	0.302	-1.056
-284.545	291.442	0.078	0.141
-283.530	-104.916	-0.644	-0.147
-282.516	368.286	0.247	0.495
-281.501	-100.537	0.346	-0.085
-280.486	-194.949	-0.598	0.005
-279.472	800.000	0.074	0.218
-278.457	800.000	0.156	0.653
-277.443	428.581	-0.223	0.479
-276.428	800.000	-0.022	0.068
-275.413	57.109	-0.858	-0.831
-274.399	-36.390	0.259	-0.139
-273.384	-128.903	-0.699	-0.097
-272.370	-95.591	1.432	0.381
-271.355	-200.000	-0.033	-1.079
-270.340	-200.000	-0.042	1.403
-269.326	133.360	-0.614	0.788
-268.311	764.606	-0.150	0.406
-267.297	532.322	0.089	-0.210
-266.282	-94.194	0.240	-0.065
-265.267	84.811	0.513	0.558
-264.253	800.000	-0.212	-0.658
-263.238	-173.152	-0.239	-0.007
-262.224	-10.516	0.290	-0.191
-261.209	-200.000	0.062	-1.158
-260.195	800.000	-0.290	0.883
-259.180	-14.256	-0.535	0.342
-258.165	122.742	-0.339	-0.420
-257.151	163.595	0.571	0.797
-256.136	-128.699	0.587	-0.082
-255.122	-130.459	0.511	-0.069
-254.107	367.066	0.470	-0.941
-253.092	398.633	-0.097	0.202
-252.078	542.527	-0.109	-0.259
-251.063	-121.979	0.477	0.078
-250.049	-40.293	0.074	-0.038
-249.034	-8.455	0.156	-0.104
-248.019	800.000	0.053	0.182
-247.005	738.770	0.323	0.859
-245.990	50.346	0.711	-0.666
-244.976	91.985	0.432	-0.483
-243.961	34.126	-0.176	-0.152
-242.946	-200.000	-0.063	0.722
-241.932	413.061	-0.198	0.418
-240.917	138.559	-0.294	-0.382
-239.903	-160.472	-1.071	0.057
-238.888	-150.683	-0.797	0.060
-237.873	-200.000	-0.025	0.139
-236.859	-109.315	-0.818	-0.172
-235.844	-45.874	0.273	-0.134
-234.830	-176.341	1.106	0.029
-233.815	-50.341	-0.367	-0.172
-232.800	-200.000	0.124	0.890
-231.786	-103.158	0.533	0.125
-230.771	-200.000	0.077	0.607
-229.757	-62.456	-0.605	0.249
-228.742	74.536	0.325	-0.339
-227.727	-159.725	0.685	-0.037
-226.713	-200.000	-0.005	0.574
-225.698	800.000	0.115	-0.405
-224.684	-200.000	0.008	0.120
-223.669	0.682	0.314	-0.223
-222.655	20.102	-0.396	0.317
-221.640	800.000	0.142	0.586
-220.625	105.788	-0.230	-0.270
-219.611	-23.435	-0.222	-0.132
-218.596	-63.492	-0.554	0.226
-217.582	800.000	0.213	-0.696
-216.567	-133.390	0.286	-0.036
-215.552	-55.568	-0.741	0.329
-214.538	-26.984	-0.507	-0.293
-213.523	-13.043	0.456	-0.294
-212.509	-35.255	-1.123	-0.605
-211.494	368.266	0.321	-0.642
-210.479	727.094	0.129	-0.340
-209.465	800.000	0.268	-1.006
-208.450	-200.000	0.037	-0.531
-207.436	492.690	-0.087	0.198
-206.421	-25.211	-0.438	0.257
-205.406	800.000	-0.174	0.553
-204.392	262.259	0.066	0.113
-203.377	-130.985	0.198	0.026
-202.363	152.970	0.292	-0.396
-201.348	-81.853	-0.712	-0.231
-200.333	-117.251	0.598	0.107
-199.319	-49.893	-0.684	-0.321
-198.304	-54.660	0.181	-0.081
-197.290	-99.422	0.692	0.173
-196.275	-200.000	-0.070	0.785
-195.260	800.000	0.277	-0.906
-194.246	-12.438	0.301	-0.195
-193.231	-146.188	-0.542	-0.047
-192.217	258.937	-0.132	-0.225
-191.202	93.070	0.258	-0.288
-190.187	-125.785	-0.197	-0.029
-189.173	-88.997	0.960	-0.281
-188.158	-200.000	-0.074	-0.863
-187.144	-114.258	0.582	0.111
-186.129	2.191	-0.242	0.173
-185.114	81.447	0.582	-0.623
-184.100	548.113	-0.613	-1.451
-183.085	800.000	0.205	-0.589
-182.071	-164.459	-0.542	-0.024
-181.056	112.359	-0.327	-0.391
-180.042	-92.051	0.474	0.133
-179.027	579.976	0.470	1.139
-178.012	-200.000	-0.065	0.331
-176.998	-138.454	-0.215	-0.023
-175.983	70.399	0.127	0.130
-174.969	800.000	-0.141	0.386
-173.954	-200.000	-0.079	0.433
-172.939	-50.451	0.451	0.210
-171.925	800.000	0.185	-0.602
-170.910	-105.604	1.025	0.230
-169.896	157.871	-0.257	-0.352
-168.881	179.799	0.340	-0.492
-167.866	26.837	-0.360	0.298
-166.852	-11.765	-0.353	0.229
-165.837	-29.363	0.337	-0.191
-164.823	-22.523	-0.312	-0.187
-163.808	-200.000	-0.054	0.317
-162.793	216.788	-0.274	0.431
-161.779	156.721	0.537	0.733
-160.764	-49.203	-0.178	0.084
-159.750	388.558	0.414	-0.847
-158.735	-4.286	0.693	0.474
-157.720	65.588	0.559	0.560
-156.706	-83.603	-0.283	0.089
-155.691	361.084	0.225	0.446
-154.677	-156.261	1.174	0.073
-153.662	477.697	-0.120	0.267
-152.647	-20.356	0.215	-0.131
-151.633	-11.291	0.525	-0.342
-150.618	209.936	-0.152	-0.235
-149.604	-200.000	0.031	-0.185
-148.589	12.728	-0.353	-0.269
-147.574	800.000	0.088	-0.276
-146.560	-200.000	-0.025	-0.487
-145.545	-200.000	-0.096	0.591
-144.531	35.685	1.054	-0.914
-143.516	-93.259	-0.709	0.195
-142.502	-200.000	0.091	0.956
-141.487	-71.638	0.373	-0.137
-140.472	-97.608	-0.143	0.037
-139.458	-90.140	0.317	-0.091
-138.443	165.464	0.391	0.546
-137.429	800.000	-0.104	-0.339
-136.414	58.821	-0.484	-0.469
-135.399	272.132	0.251	0.437
-134.385	435.830	0.215	0.462
-133.370	-62.012	-0.712	-0.294
-132.356	-73.684	-0.520	-0.187
-131.341	-200.000	0.002	0.272
-130.326	80.164	0.484	-0.514
-129.312	-16.070	0.399	0.251
-128.297	-200.000	-0.087	0.564
-127.283	-39.163	-0.441	-0.229
-126.268	-110.696	0.556	-0.113
-125.253	388.054	-0.112	-0.228
-124.239	-6.604	0.751	0.505
-123.224	-147.424	0.949	0.079
-122.210	135.906	-0.204	-0.262
-121.195	-200.000	0.008	-0.339
-120.180	-58.483	-0.995	-0.426
-119.166	-200.000	0.086	0.540
-118.151	429.587	-0.145	-0.310
-117.137	30.424	-0.283	-0.238
-116.122	-50.023	-0.219	-0.103
-115.107	-200.000	-0.071	0.333
-114.093	-60.436	0.345	0.145
-113.078	-90.896	-0.580	0.165
-112.064	-200.000	-0.043	-0.661
-111.049	61.897	-0.182	-0.179
-110.034	-84.624	0.093	0.029
-109.020	-200.000	-0.025	-0.559
-108.005	800.000	0.110	0.301
-106.991	466.591	-0.169	-0.374
-105.976	141.159	-0.196	0.256
-104.962	-64.600	-0.902	-0.361
-103.947	800.000	-0.068	-0.198
-102.932	-159.824	0.405	0.022
-101.918	727.111	0.240	-0.632
-100.903	-200.000	0.006	-0.353
-99.889	428.935	-0.267	0.570
-98.874	-200.000	-0.001	-0.511
-97.859	331.946	0.181	-0.344
-96.845	800.000	-0.069	0.228
-95.830	-200.000	0.018	0.351
-94.816	-157.091	-0.157	-0.009
-93.801	-103.898	-0.578	-0.133
-92.786	-116.280	0.429	0.078
-91.772	-200.000	-0.129	0.667
-90.757	399.876	0.361	-0.746
-89.743	-118.306	0.200	-0.035
-88.728	-134.737	0.247	-0.030
-87.713	-43.499	-0.878	0.437
-86.699	800.000	0.194	-0.617
-85.684	-142.366	-0.605	0.059
-84.670	800.000	-0.126	0.517
-83.655	154.692	-0.553	-0.748
-82.640	40.785	-0.068	-0.061
-81.626	-40.676	-0.376	-0.192
-80.611	800.000	-0.284	-0.775
-79.597	-79.884	0.293	0.097
-78.582	100.160	0.333	0.380
-77.567	69.562	-0.226	-0.229
-76.553	-101.542	0.233	0.056
-75.538	110.994	-0.239	0.283
-74.524	19.470	0.388	0.307
-73.509	181.338	0.164	-0.237
-72.494	-120.586	-0.312	-0.052
-71.480	-200.000	0.022	-0.273
-70.465	800.000	0.160	-0.450
-69.451	-200.000	-0.007	0.125
-68.436	65.073	0.243	0.242
-67.422	800.000	-0.147	0.546
-66.407	-91.339	0.314	-0.089
-65.392	311.074	-0.347	-0.640
-64.378	-59.953	0.484	-0.204
-63.363	222.622	0.148	-0.235
-62.349	-200.000	-0.020	1.124
-61.334	3.453	-1.306	-0.937
-60.319	-72.178	0.940	0.343
-59.305	-200.000	0.169	-0.941
-58.290	-200.000	0.260	1.395
-57.276	-200.000	0.189	1.988
-56.261	-200.000	94.710	591.787
-55.246	677.367	1355.152	3467.175
-54.232	204.377	2516.845	3839.342
-53.217	119.960	2120.720	2587.943
-52.203	44.315	1593.646	1439.529
-51.188	36.251	1332.264	1155.340
-50.173	32.924	1292.576	1101.507
-49.159	56.510	1341.512	1283.761
-48.144	57.444	1358.806	1305.797
-47.130	36.367	1316.676	1142.328
-46.115	32.635	1299.807	1105.799
-45.100	32.448	1293.954	1099.683
-44.086	32.439	1291.575	1097.562
-43.071	32.391	1290.229	1096.095
-42.057	32.593	1287.001	1094.481
-41.042	32.360	1286.342	1092.526
-40.027	32.625	1283.785	1091.850
-39.013	32.466	1281.897	1089.278
-37.998	32.535	1280.853	1088.744
-36.984	32.716	1278.304	1087.581
-35.969	32.803	1276.641	1086.624
-34.954	32.473	1275.216	1083.467
-33.940	32.747	1273.668	1083.686
-32.925	32.939	1271.437	1082.848
-31.911	32.738	1271.330	1081.557
-30.896	32.782	1269.065	1079.844
-29.881	32.583	1268.481	1078.165
-28.867	32.765	1267.081	1077.972
-27.852	32.791	1264.821	1076.151
-26.838	32.791	1264.141	1075.531
-25.823	32.665	1262.998	1073.799
-24.809	32.702	1261.103	1072.354
-23.794	32.995	1259.545	1072.651
-22.779	32.730	1258.662	1070.354
-21.765	32.742	1257.777	1069.628
-20.750	32.155	1256.610	1065.264
-19.736	32.646	1254.417	1066.141
-18.721	32.669	1254.589	1066.375
-17.706	32.439	1252.606	1063.350
-16.692	32.571	1250.844	1062.556
-15.677	32.604	1250.634	1062.522
-14.663	32.785	1248.060	1061.310
-13.648	32.559	1247.892	1059.851
-12.633	32.468	1248.084	1059.462
-11.619	32.391	1246.117	1057.319
-10.604	32.642	1245.452	1058.120
-9.590	32.336	1244.264	1055.352
-8.575	32.584	1243.479	1056.035
-7.560	32.616	1243.203	1055.939
-6.546	32.553	1241.789	1054.346
-5.531	32.507	1240.715	1053.133
-4.517	32.856	1239.511	1054.022
-3.502	32.807	1238.950	1053.228
-2.487	32.606	1238.076	1051.319
-1.473	32.498	1234.206	1047.392
-0.458	30.979	1219.250	1026.302
0.556	28.306	1201.978	986.293
1.571	24.638	1205.579	969.302
2.586	23.545	1219.477	974.389
3.600	22.901	1208.090	961.705
4.615	17.265	1137.160	876.187
5.629	7.896	1062.617	773.351
6.644	3.666	1041.219	737.543
7.659	3.105	1038.701	733.018
8.673	3.063	1037.247	731.727
9.688	3.009	1036.085	730.586
10.702	3.658	1034.788	732.689
11.717	9.372	1042.730	765.505
12.731	18.949	1055.531	820.763
13.746	23.873	1061.757	849.112
14.761	24.657	1062.597	853.453
15.775	24.409	1061.507	851.317
16.790	24.232	1060.093	849.264
17.804	23.978	1059.390	847.417
18.819	24.266	1058.620	848.098
19.834	24.062	1059.303	847.599
20.848	24.056	1058.464	846.822
21.863	24.225	1057.975	847.163
22.877	23.878	1057.796	845.296
23.892	23.768	1056.937	844.007
24.907	23.664	1055.821	842.552
25.921	23.822	1054.540	842.200
26.936	23.830	1053.257	841.142
27.950	23.496	1052.215	838.657
28.965	23.659	1051.229	838.563
29.980	23.752	1049.930	837.895
30.994	23.934	1047.742	836.930
32.009	23.858	1048.160	836.830
33.023	23.819	1046.325	835.107
34.038	24.100	1045.258	835.503
35.053	23.413	1046.114	832.885
36.067	23.654	1043.752	832.061
37.082	23.821	1043.375	832.467
38.096	24.066	1042.464	832.816
39.111	24.255	1041.177	832.597
40.126	23.858	1040.513	830.136
41.140	23.440	1038.957	826.873
42.155	23.226	1036.969	824.222
43.169	23.061	1036.619	823.106
44.184	23.226	1035.740	823.102
45.199	23.261	1034.616	822.297
46.213	23.380	1034.029	822.310
47.228	23.920	1033.686	824.469
48.242	24.060	1032.241	823.891
49.257	23.897	1032.443	823.226
50.271	24.009	1031.674	823.054
51.286	23.952	1031.459	822.547
52.301	23.976	1030.109	821.510
53.315	24.002	1028.474	820.252
54.330	23.672	1028.682	818.827
55.344	23.887	1025.963	817.575
56.359	23.584	1026.405	816.464
57.374	23.727	1025.024	815.947
58.388	23.643	1023.986	814.664
59.403	23.378	1023.422	812.930
60.417	23.502	1022.179	812.439
61.432	23.351	1022.354	811.812
62.447	23.527	1021.307	811.713
63.461	23.308	1020.692	810.154
64.476	23.335	1019.542	809.294
65.490	23.349	1018.225	808.240
66.505	23.460	1018.684	809.037
67.520	23.307	1018.264	807.937
68.534	23.130	1017.054	806.099
69.549	22.884	1015.932	804.018
70.563	22.703	1014.667	802.120
71.578	22.969	1013.063	801.988
72.593	22.464	1012.716	799.354
73.607	22.779	1012.655	800.664
74.622	23.062	1011.743	801.155
75.636	22.919	1011.590	800.315
76.651	22.878	1010.801	799.431
77.666	23.013	1010.182	799.484
78.680	22.944	1009.201	798.325
79.695	22.989	1009.335	798.563
80.709	23.110	1008.275	798.202
81.724	23.234	1007.231	797.860
82.739	23.229	1007.385	797.891
83.753	23.910	1006.847	800.462
84.768	24.375	1005.507	801.412
85.782	24.131	1006.215	800.809
86.797	24.091	1005.331	799.856
87.812	24.249	1003.109	798.727
88.826	24.166	1001.774	797.222
89.841	24.086	1001.446	796.529
90.855	24.152	999.873	795.505
91.870	24.335	999.621	796.052
92.884	24.325	998.231	794.829
93.899	24.316	997.703	794.300
94.914	24.361	996.811	793.715
95.928	23.906	996.648	791.494
96.943	24.102	995.214	791.157
97.957	23.899	994.288	789.447
98.972	24.073	993.012	789.134
99.987	23.975	992.101	787.907
101.001	23.653	991.766	786.147
102.016	23.946	990.762	786.579
103.030	24.104	989.484	786.189
104.045	24.167	989.597	786.491
105.060	23.913	989.974	785.596
106.074	23.975	987.677	783.979
107.089	23.762	987.188	782.583
108.103	23.647	984.716	780.048
109.118	23.559	983.237	778.420
110.133	23.206	983.091	776.689
111.147	23.033	982.679	775.535
112.162	23.220	981.902	775.674
113.176	23.230	981.087	775.005
114.191	23.200	980.971	774.713
115.206	23.045	979.511	772.814
116.220	23.108	978.426	772.163
117.235	23.030	978.019	771.435
118.249	23.314	976.264	771.217
119.264	22.850	975.465	768.499
120.279	22.762	975.859	768.358
121.293	22.635	973.756	766.085
122.308	22.824	972.865	766.137
123.322	22.557	972.674	764.758
124.337	22.608	971.782	764.210
125.352	22.923	969.954	764.069
126.366	22.892	968.311	762.571
127.381	23.105	969.689	764.511
128.395	23.415	968.040	764.482
129.410	23.499	967.108	764.038
130.424	23.620	966.827	764.270
131.439	23.787	965.236	763.664
132.454	23.476	966.447	763.217
133.468	23.738	963.455	761.910
134.483	23.441	963.110	760.295
135.497	23.887	962.074	761.320
136.512	23.962	962.013	761.527
137.527	23.633	960.783	759.076
138.541	23.769	960.629	759.472
139.556	23.854	959.208	758.641
140.570	24.121	958.646	759.272
141.585	24.162	958.413	759.194
142.600	24.313	957.324	758.905
143.614	24.308	956.752	758.364
144.629	24.361	955.798	757.767
145.643	24.229	954.783	756.332
146.658	23.859	953.313	753.534
147.673	23.872	952.671	753.016
148.687	23.571	950.915	750.288
149.702	23.850	949.303	750.129
150.716	23.465	950.657	749.504
151.731	23.804	948.950	749.521
152.746	23.923	947.635	748.917
153.760	23.798	948.388	748.921
154.775	23.963	947.421	748.786
155.789	24.065	946.210	748.190
156.804	23.926	944.657	746.313
157.819	24.193	944.351	747.123
158.833	24.122	944.824	747.137
159.848	24.462	943.617	747.537
160.862	24.206	942.193	745.276
161.877	23.865	941.333	743.104
162.892	23.832	939.551	741.493
163.906	23.904	937.967	740.475
164.921	23.581	937.847	738.974
165.935	23.736	937.801	739.513
166.950	24.014	937.134	740.080
167.964	23.870	935.070	737.788
168.979	23.796	934.742	737.157
169.994	23.842	933.608	736.386
171.008	23.987	933.608	736.921
172.023	24.345	931.685	736.821
173.037	24.081	932.202	736.073
174.052	24.217	931.063	735.669
175.067	23.669	930.396	732.816
176.081	23.443	929.819	731.363
177.096	23.201	928.867	729.554
178.110	22.894	928.987	728.318
179.125	23.187	927.480	728.277
180.140	23.428	927.320	729.078
181.154	23.983	926.698	730.806
182.169	24.094	927.690	731.976
183.183	23.935	925.959	729.894
184.198	24.166	925.543	730.451
185.213	23.997	925.271	729.477
186.227	23.968	924.908	729.007
187.242	23.643	923.573	726.563
188.256	23.980	924.715	728.776
189.271	24.146	922.909	727.967
190.286	23.785	921.373	725.219
191.300	23.481	919.945	722.790
192.315	23.094	918.812	720.264
193.329	22.954	918.553	719.423
194.344	23.247	919.410	721.228
195.359	23.802	918.672	722.843
196.373	23.997	917.738	722.833
197.388	24.312	917.058	723.512
198.402	24.714	916.137	724.350
199.417	24.353	917.311	723.753
200.432	24.558	915.814	723.338
201.446	24.399	915.342	722.258
202.461	24.390	915.143	721.997
203.475	23.981	913.651	719.105
204.490	23.965	912.991	718.457
205.504	24.145	911.553	717.990
206.519	24.393	911.171	718.622
207.534	24.206	910.782	717.499
208.548	24.100	910.902	717.102
209.563	24.388	908.693	716.458
210.577	24.115	908.460	715.115
211.592	24.625	908.702	717.290
212.607	24.811	907.391	716.938
213.621	24.412	907.142	715.077
214.636	24.468	907.050	715.167
215.650	24.446	905.997	714.186
216.665	24.348	904.791	712.779
217.680	24.561	904.491	713.332
218.694	24.454	904.751	713.047
219.709	24.092	903.308	710.402
220.723	24.029	902.173	709.195
221.738	23.803	901.785	707.928
222.753	24.039	901.961	708.942
223.767	24.193	900.807	708.584
224.782	24.356	900.665	709.061
225.796	24.362	900.910	709.214
226.811	24.456	899.096	708.095
227.826	23.693	898.348	704.416
228.840	23.952	897.575	704.777
229.855	23.917	896.785	703.956
230.869	23.885	895.649	702.874
231.884	23.700	895.599	702.043
232.899	23.911	895.048	702.380
233.913	23.746	894.737	701.422
234.928	24.069	892.941	701.226
235.942	23.759	892.843	699.866
236.957	23.477	892.823	698.678
237.972	23.178	891.815	696.651
238.986	23.581	891.100	697.614
240.001	23.319	890.565	696.103
241.015	23.797	889.950	697.438
242.030	23.802	889.336	696.913
243.045	23.971	890.012	698.046
244.059	23.729	888.745	696.043
245.074	23.953	888.577	696.727
246.088	24.039	886.729	695.553
247.103	24.290	888.176	697.608
248.117	24.556	887.561	698.101
249.132	25.372	886.347	700.269
250.147	25.483	885.817	700.221
251.161	25.294	886.314	699.815
252.176	25.125	885.917	698.781
253.190	24.988	885.581	697.920
254.205	25.227	884.016	697.553
255.220	25.022	883.083	695.962
256.234	24.917	882.581	695.095
257.249	24.910	882.636	695.052
258.263	24.977	880.732	693.751
259.278	25.053	880.464	693.771
260.293	24.887	879.883	692.608
261.307	24.991	879.824	692.903
262.322	25.193	879.644	693.483
263.336	24.958	878.350	691.494
264.351	24.584	877.214	689.096
265.366	24.854	876.847	689.788
266.380	24.835	876.869	689.669
267.395	24.981	875.819	689.345
268.409	24.781	874.465	687.451
269.424	24.842	874.682	687.796
270.439	24.702	874.015	686.670
271.453	24.851	872.822	686.246
272.468	24.947	873.219	686.862
273.482	24.722	872.653	685.496
274.497	25.020	871.712	685.836
275.512	24.705	870.886	683.922
276.526	24.940	870.091	684.135
277.541	25.340	870.011	685.538
278.555	25.178	870.088	684.919
279.570	25.295	868.969	684.426
280.585	25.274	867.872	683.421
281.599	24.869	867.072	681.189
282.614	24.499	866.718	679.441
283.628	24.925	865.084	679.719
284.643	24.637	865.047	678.535
285.657	24.948	863.954	678.799
286.672	24.743	863.730	677.784
287.687	24.869	864.175	678.552
288.701	24.914	862.590	677.417
289.716	24.810	862.143	676.612
290.730	24.939	862.225	677.106
291.745	24.872	861.044	675.867
292.760	25.277	861.415	677.626
293.774	25.506	860.330	677.577
294.789	25.627	859.715	677.488
295.803	25.059	860.053	675.553
296.818	24.852	859.162	674.015
297.833	24.813	857.850	672.779
298.847	25.004	857.317	673.018
299.862	24.926	856.742	672.214
300.876	25.362	856.314	673.457
301.891	25.559	856.200	674.046
302.906	25.526	855.253	673.115
303.920	25.752	855.607	674.183
304.935	25.752	854.499	673.250
305.949	25.768	853.213	672.237
306.964	25.052	853.070	669.391
307.979	25.345	852.381	669.883
308.993	25.596	851.425	670.008
310.008	25.578	852.194	670.485
311.022	25.279	851.056	668.419
312.037	25.022	849.657	666.305
313.052	25.068	849.163	666.030
314.066	24.563	848.227	663.361
315.081	24.566	848.616	663.618
316.095	24.639	847.632	663.063
317.110	24.724	846.987	662.814
318.125	24.463	846.938	661.748
319.139	24.369	846.295	660.840
320.154	24.053	845.646	659.103
321.168	24.307	844.718	659.264
322.183	24.825	844.275	660.773
323.197	24.753	844.477	660.605
324.212	24.985	842.359	659.744
325.227	24.721	842.747	659.017
326.241	24.592	842.121	657.994
327.256	24.494	841.802	657.328
328.270	24.273	841.619	656.311
329.285	24.606	840.235	656.397
330.300	24.463	839.405	655.167
331.314	24.543	838.803	654.931
332.329	25.191	838.418	656.946
333.343	25.076	839.651	657.434
334.358	25.043	839.083	656.808
335.373	24.750	839.335	655.876
336.387	25.373	837.572	656.717
337.402	25.446	837.185	656.622
338.416	25.528	836.765	656.534
339.431	25.659	838.287	658.150
340.446	25.898	837.060	658.002
341.460	25.950	836.517	657.707
342.475	25.904	836.532	657.492
343.489	25.987	836.817	657.959
344.504	25.991	836.104	657.357
345.519	26.226	836.068	658.126
346.533	25.817	835.125	655.839
347.548	25.908	834.640	655.730
348.562	25.510	832.945	652.893
349.577	25.614	832.774	653.081
350.592	25.463	831.109	651.169
351.606	25.330	830.806	650.391
352.621	25.320	829.526	649.298
353.635	25.613	829.536	650.308
354.650	25.279	828.514	648.242
355.665	25.303	828.010	647.878
356.679	25.187	827.624	647.099
357.694	25.144	827.372	646.690
358.708	25.027	826.320	645.390
359.723	25.178	825.672	645.370
360.738	25.025	825.818	644.874
361.752	25.581	824.578	645.848
362.767	25.557	824.225	645.426
363.781	26.040	823.789	646.762
364.796	26.123	823.551	646.814
365.810	26.528	823.327	648.032
366.825	26.287	823.222	647.029
367.840	25.808	822.633	644.794
368.854	25.738	821.935	643.942
369.869	25.409	821.397	642.287
370.883	25.299	821.440	641.871
371.898	26.063	820.346	643.685
372.913	26.099	820.164	643.614
373.927	25.573	819.089	640.840
374.942	25.926	818.580	641.639
375.956	25.780	819.345	641.662
376.971	26.061	818.754	642.143
377.986	25.944	818.552	641.513
379.000	26.246	818.364	642.382
380.015	25.812	817.467	640.077
381.029	26.250	816.710	640.984
382.044	25.951	816.540	639.735
383.059	26.053	815.881	639.524
384.073	25.740	814.646	637.390
385.088	25.405	813.679	635.391
386.102	25.276	813.324	634.603
387.117	25.552	812.459	634.845
388.132	25.209	811.730	633.009
389.146	25.632	811.143	633.987
390.161	25.940	810.183	634.264
391.175	25.759	811.132	634.315
392.190	25.960	809.822	633.941
393.205	25.707	808.888	632.265
394.219	24.513	808.437	627.662
395.234	24.774	808.025	628.202
396.248	25.225	807.447	629.281
397.263	25.100	807.797	629.058
398.278	25.164	806.491	628.210
399.292	25.170	806.199	627.947
400.307	24.801	807.260	627.424
401.321	25.096	805.741	627.222
402.336	25.655	805.234	628.727
403.350	25.866	805.226	629.398
404.365	26.185	805.480	630.656
405.380	26.358	805.106	630.912
406.394	26.217	804.085	629.565
407.409	26.650	803.997	630.950
408.423	26.605	803.168	630.085
409.438	26.638	803.540	630.436
410.453	26.592	802.173	629.147
411.467	26.573	801.568	628.554
412.482	26.181	801.673	627.219
413.496	26.441	801.520	627.945
414.511	26.441	801.484	627.863
415.526	26.393	800.581	626.932
416.540	26.474	799.825	626.568
417.555	26.834	799.306	627.349
418.569	26.255	799.351	625.324
419.584	26.244	799.053	624.999
420.599	26.266	798.908	624.906
421.613	161.078	1370.443	1793.071
422.628	139.797	1453.746	1793.123
