DTS Sentinel unit serial number:	SN413079Multiplexer serial number:	ORYXHardware model number:	OX4-SRSoftware version number:	ORYX F/W v4.00 Oryx Data Collector v3.7.2.0data status	okinstallation	princeton_trtdifferential loss correction	single-endedforward channel	channel 1reverse channel	N/Adate	2019/09/14time	09:50:35forward acquisition time	60.00reverse acquisition time	0.00gamma	496.2192k internal	0.2316k external	0.2316temperature offset calibration	1.0069default loss term (dB/km)	0.3790temperature slope calibration	1.0000multiplexer offset coefficient	1.0000multiplexer slope coefficient	1.0000fibre end	0.00T internal ref (°C)	32.52T ext. ref 1 (°C)	3.94T ext. ref 2 (°C)	30.70length (m)	temperature (°C)	Stokes	anti-Stokes-747.200	800.000	0.100	-0.286
-746.185	-58.486	-0.053	-0.023
-745.171	25.952	0.198	-0.168
-744.156	-46.180	0.114	0.057
-743.142	800.000	-0.029	-0.091
-742.127	-152.584	-0.479	0.035
-741.112	-125.087	-0.490	-0.076
-740.098	800.000	0.072	0.313
-739.083	91.531	-0.128	0.146
-738.069	88.389	-0.185	0.208
-737.054	800.000	0.043	0.165
-736.039	120.836	-0.138	-0.174
-735.025	25.090	0.178	-0.150
-734.010	-98.874	-0.286	0.074
-732.996	-128.538	0.153	-0.022
-731.981	-17.834	-0.212	-0.134
-730.966	-110.577	-0.135	-0.028
-729.952	-67.120	-0.158	0.063
-728.937	226.943	-0.110	-0.181
-727.923	12.998	-0.216	-0.169
-726.908	-119.740	-0.225	-0.039
-725.894	-200.000	0.020	-0.221
-724.879	-169.457	-0.329	-0.012
-723.864	-200.000	0.010	0.176
-722.850	800.000	0.066	0.271
-721.835	800.000	-0.105	-0.463
-720.821	728.955	-0.089	0.240
-719.806	-200.000	0.002	0.115
-718.791	-145.546	-0.362	0.033
-717.777	-118.268	-0.201	-0.036
-716.762	800.000	-0.023	0.100
-715.748	29.400	0.072	0.062
-714.733	-200.000	-0.040	-0.208
-713.718	-130.474	0.160	0.022
-712.704	-18.551	0.282	-0.178
-711.689	82.967	-0.065	-0.071
-710.675	-200.000	-0.042	-0.196
-709.660	800.000	-0.092	-0.299
-708.645	-141.742	-0.026	0.003
-707.631	-136.780	-0.482	-0.056
-706.616	217.040	0.117	-0.189
-705.602	800.000	0.072	-0.259
-704.587	213.714	0.147	0.234
-703.572	-73.984	-0.140	0.051
-702.558	37.737	0.120	-0.108
-701.543	-200.000	-0.033	0.242
-700.529	-95.403	-0.266	0.072
-699.514	-27.649	-0.288	0.169
-698.499	21.034	-0.258	-0.211
-697.485	-200.000	-0.003	-0.301
-696.470	-93.165	0.042	0.012
-695.456	-78.173	-0.345	0.120
-694.441	41.460	-0.250	-0.229
-693.426	-144.781	-0.242	-0.022
-692.412	-15.799	-0.099	-0.064
-691.397	293.362	-0.105	-0.193
-690.383	152.413	-0.254	0.351
-689.368	33.494	0.141	0.124
-688.354	-200.000	0.027	-0.145
-687.339	-93.397	-0.142	-0.040
-686.324	-167.115	-0.122	0.005
-685.310	140.826	-0.120	0.161
-684.295	254.292	-0.106	-0.183
-683.281	-42.252	-0.251	0.129
-682.266	-21.329	-0.150	0.093
-681.251	-200.000	-0.005	0.194
-680.237	-79.098	0.178	0.061
-679.222	-200.000	0.059	-0.303
-678.208	-141.731	0.337	-0.034
-677.193	800.000	0.056	0.202
-676.178	-200.000	-0.013	0.069
-675.164	-122.677	-0.113	0.019
-674.149	113.755	-0.107	-0.132
-673.135	7.123	-0.264	0.199
-672.120	-113.670	0.080	-0.016
-671.105	-200.000	0.004	-0.083
-670.091	-124.649	-0.119	0.019
-669.076	-57.765	-0.310	-0.137
-668.062	-200.000	0.050	0.223
-667.047	-200.000	0.103	-0.512
-666.032	118.173	0.115	-0.143
-665.018	342.576	0.127	-0.251
-664.003	800.000	-0.039	0.113
-662.989	-200.000	0.014	0.307
-661.974	800.000	-0.012	-0.044
-660.959	800.000	0.032	-0.109
-659.945	-46.758	0.156	0.077
-658.930	-33.368	-0.077	-0.043
-657.916	-57.160	0.128	-0.057
-656.901	19.479	0.170	-0.138
-655.886	132.900	-0.091	-0.119
-654.872	155.936	-0.264	-0.367
-653.857	438.430	0.089	-0.195
-652.843	398.870	0.067	-0.141
-651.828	97.542	0.103	-0.119
-650.814	213.889	-0.160	-0.255
-649.799	-95.906	0.209	0.056
-648.784	-61.032	0.152	0.065
-647.770	7.478	-0.251	-0.189
-646.755	-70.000	0.118	-0.045
-645.741	170.098	0.096	-0.138
-644.726	133.271	-0.015	-0.020
-643.711	-71.806	0.271	0.102
-642.697	-34.771	-0.056	0.031
-641.682	-200.000	0.003	-0.061
-640.668	15.835	0.258	0.205
-639.653	155.540	-0.166	0.231
-638.638	178.782	-0.057	0.084
-637.624	170.443	-0.087	-0.126
-636.609	-91.400	0.255	0.073
-635.595	800.000	0.034	0.103
-634.580	137.560	-0.149	-0.196
-633.565	-200.000	-0.001	0.057
-632.551	744.668	-0.026	0.071
-631.536	-40.979	-0.084	-0.044
-630.522	654.175	-0.037	-0.095
-629.507	-192.871	0.231	-0.002
-628.492	-2.170	-0.224	-0.158
-627.478	64.404	0.219	-0.222
-626.463	70.435	-0.157	-0.163
-625.449	518.028	-0.018	-0.042
-624.434	800.000	0.101	-0.309
-623.419	-109.393	-0.378	-0.081
-622.405	-87.481	0.092	0.028
-621.390	-110.041	-0.199	0.042
-620.376	750.077	0.112	-0.305
-619.361	311.577	-0.119	0.225
-618.346	-46.143	0.288	0.143
-617.332	625.972	0.116	0.295
-616.317	516.934	0.065	0.153
-615.303	24.188	0.238	-0.198
-614.288	355.963	0.108	-0.217
-613.273	-78.877	-0.178	0.061
-612.259	-7.905	-0.113	0.077
-611.244	-129.639	-0.270	0.038
-610.230	-117.241	0.044	0.008
-609.215	-38.506	-0.166	0.088
-608.201	-166.128	-0.072	0.003
-607.186	-200.000	0.042	-0.250
-606.171	-149.909	-0.184	0.015
-605.157	-200.000	-0.035	0.162
-604.142	800.000	-0.072	-0.255
-603.128	53.409	0.242	-0.234
-602.113	506.135	0.170	-0.398
-601.098	-89.630	-0.082	-0.024
-600.084	-200.000	0.007	0.235
-599.069	-101.378	0.193	-0.047
-598.055	-20.319	-0.190	0.118
-597.040	-147.355	0.123	0.011
-596.025	141.784	0.152	-0.203
-595.011	-200.000	-0.030	-0.367
-593.996	86.854	-0.077	-0.085
-592.982	-200.000	-0.011	-0.053
-591.967	-124.373	-0.057	-0.009
-590.952	53.258	-0.241	-0.232
-589.938	800.000	0.056	0.210
-588.923	-29.902	-0.125	0.072
-587.909	418.306	0.108	0.231
-586.894	129.046	-0.263	-0.337
-585.879	105.264	-0.164	-0.195
-584.865	-200.000	-0.013	-0.071
-583.850	-91.080	0.207	0.060
-582.836	19.206	0.168	0.135
-581.821	800.000	0.065	-0.245
-580.806	86.008	0.116	0.128
-579.792	362.323	-0.067	0.134
-578.777	-11.711	-0.269	0.178
-577.763	16.724	-0.184	0.146
-576.748	57.276	-0.185	-0.181
-575.733	152.984	0.121	-0.167
-574.719	-200.000	-0.067	-0.519
-573.704	-95.805	-0.238	-0.064
-572.690	202.056	0.200	-0.311
-571.675	-31.465	0.146	-0.083
-570.661	-52.434	0.017	0.008
-569.646	537.213	-0.058	0.139
-568.631	800.000	-0.050	0.204
-567.617	-152.577	-0.154	0.011
-566.602	-138.677	0.062	-0.007
-565.588	214.862	-0.171	0.273
-564.573	89.892	-0.146	-0.164
-563.558	-62.193	-0.055	0.023
-562.544	-91.144	0.078	0.022
-561.529	-192.109	0.080	-0.001
-560.515	800.000	0.075	-0.223
-559.500	-5.395	-0.349	0.241
-558.485	800.000	0.070	0.222
-557.471	164.157	-0.112	-0.159
-556.456	-159.345	0.231	0.013
-555.442	-158.918	-0.300	0.017
-554.427	-165.452	0.173	-0.008
-553.412	-28.788	-0.077	0.044
-552.398	111.634	0.066	-0.081
-551.383	137.099	-0.133	0.175
-550.369	-85.084	0.340	-0.107
-549.354	-151.890	-0.100	0.007
-548.339	56.334	0.126	-0.123
-547.325	-54.233	-0.183	-0.083
-546.310	-200.000	-0.000	-0.028
-545.296	-127.956	0.227	0.033
-544.281	547.021	0.137	-0.329
-543.266	220.215	-0.248	0.399
-542.252	-98.231	-0.423	-0.109
-541.237	48.883	-0.204	-0.193
-540.223	800.000	0.062	0.193
-539.208	-37.458	0.179	-0.096
-538.193	17.246	-0.172	-0.137
-537.179	-26.861	0.364	-0.214
-536.164	4.960	-0.223	-0.165
-535.150	150.380	0.115	0.157
-534.135	254.117	-0.161	0.277
-533.121	-200.000	0.030	-0.177
-532.106	594.801	0.117	-0.292
-531.091	-153.787	0.071	0.005
-530.077	-53.407	-0.361	-0.166
-529.062	800.000	0.032	-0.108
-528.048	-100.563	0.041	-0.010
-527.033	-28.448	-0.135	-0.078
-526.018	48.745	0.155	-0.146
-525.004	-200.000	0.009	0.120
-523.989	-14.965	0.111	-0.071
-522.975	-141.109	0.177	-0.018
-521.960	-103.112	-0.104	-0.025
-520.945	0.315	0.202	-0.145
-519.931	-135.725	-0.216	-0.026
-518.916	162.836	-0.112	0.158
-517.902	800.000	0.093	0.336
-516.887	138.806	-0.097	-0.128
-515.872	423.551	0.076	-0.164
-514.858	-15.992	0.185	-0.118
-513.843	-26.659	0.196	0.115
-512.829	800.000	-0.060	0.244
-511.814	-24.280	0.118	0.071
-510.799	-87.057	-0.275	-0.084
-509.785	-200.000	0.032	0.182
-508.770	-200.000	-0.012	0.169
-507.756	119.891	0.248	0.308
-506.741	-32.595	0.204	-0.114
-505.726	-41.008	0.127	0.066
-504.712	-139.323	0.232	0.025
-503.697	23.362	-0.198	0.163
-502.683	339.574	-0.179	-0.350
-501.668	159.295	-0.014	-0.019
-500.653	-128.069	0.410	-0.059
-499.639	-34.815	0.174	-0.095
-498.624	171.382	0.121	-0.175
-497.610	-99.581	0.110	-0.028
-496.595	-161.625	0.074	0.004
-495.581	296.532	0.107	0.197
-494.566	87.378	0.181	0.201
-493.551	95.835	0.229	0.262
-492.537	-200.000	-0.008	0.044
-491.522	800.000	-0.049	-0.147
-490.508	250.685	-0.090	-0.154
-489.493	-59.516	0.261	0.113
-488.478	-200.000	-0.015	-0.101
-487.464	186.733	-0.078	-0.116
-486.449	-63.629	-0.200	-0.082
-485.435	130.444	0.034	-0.044
-484.420	19.511	-0.265	0.213
-483.405	-200.000	0.089	0.000
-482.391	-148.944	-0.126	0.010
-481.376	-200.000	-0.006	-0.066
-480.362	-200.000	-0.017	0.088
-479.347	-54.792	0.259	0.117
-478.332	250.503	0.167	-0.284
-477.318	-44.530	0.208	-0.104
-476.303	29.616	0.240	-0.204
-475.289	218.056	0.044	0.071
-474.274	66.094	-0.098	0.099
-473.259	293.311	0.156	-0.285
-472.245	131.830	-0.130	-0.168
-471.230	-200.000	-0.002	-0.271
-470.216	-200.000	0.010	0.146
-469.201	-200.000	0.040	0.200
-468.186	-99.325	-0.364	0.092
-467.172	-149.516	0.184	-0.015
-466.157	-128.833	-0.055	-0.008
-465.143	405.218	-0.146	0.309
-464.128	-58.293	-0.203	0.088
-463.113	12.562	0.175	0.135
-462.099	292.866	-0.132	0.241
-461.084	-200.000	0.011	0.261
-460.070	109.131	-0.173	0.208
-459.055	-79.675	0.177	0.060
-458.040	-28.585	-0.293	-0.169
-457.026	210.471	0.091	0.143
-456.011	-121.562	0.243	-0.040
-454.997	293.107	0.071	-0.131
-453.982	-72.058	-0.372	0.139
-452.968	800.000	-0.077	0.336
-451.953	76.203	0.249	0.264
-450.938	206.607	-0.126	0.197
-449.924	-126.978	-0.117	0.017
-448.909	-200.000	0.030	-0.153
-447.895	-41.328	0.204	-0.105
-446.880	-147.908	-0.288	-0.024
-445.865	-68.015	-0.141	0.055
-444.851	800.000	-0.128	-0.362
-443.836	-200.000	-0.022	0.132
-442.822	82.944	0.173	-0.188
-441.807	-29.446	0.126	0.072
-440.792	11.773	-0.178	-0.137
-439.778	800.000	0.112	-0.481
-438.763	-89.149	-0.235	-0.069
-437.749	400.049	-0.101	-0.213
-436.734	-155.108	-0.244	0.016
-435.719	95.683	-0.181	-0.207
-434.705	-37.826	0.093	-0.050
-433.690	112.215	0.153	-0.185
-432.676	800.000	-0.076	-0.223
-431.661	-41.086	0.225	-0.116
-430.646	11.485	-0.253	0.194
-429.632	105.329	-0.199	0.236
-428.617	-61.854	-0.122	-0.051
-427.603	171.674	-0.035	-0.050
-426.588	6.028	-0.267	-0.198
-425.573	-100.643	0.152	0.038
-424.559	800.000	0.071	-0.238
-423.544	3.011	0.122	0.088
-422.530	-200.000	0.044	0.212
-421.515	-200.000	0.017	-0.168
-420.500	-91.073	-0.058	0.017
-419.486	-200.000	0.013	-0.118
-418.471	-200.000	0.056	-0.247
-417.457	316.499	0.146	0.277
-416.442	-61.274	0.334	-0.141
-415.428	-183.485	0.075	0.001
-414.413	1.890	0.175	0.126
-413.398	-44.074	0.231	0.116
-412.384	-140.527	0.050	-0.005
-411.369	-200.000	0.035	0.228
-410.355	-200.000	-0.009	0.039
-409.340	405.586	-0.035	0.075
-408.325	-133.937	0.272	-0.034
-407.311	121.482	0.098	0.122
-406.296	-178.330	-0.211	-0.005
-405.282	124.173	0.273	0.343
-404.267	800.000	-0.028	0.112
-403.252	-32.185	-0.415	0.232
-402.238	573.104	-0.038	0.094
-401.223	-102.157	0.233	-0.056
-400.209	201.882	-0.170	-0.262
-399.194	206.173	-0.161	0.251
-398.179	11.958	-0.102	0.078
-397.165	-49.843	0.053	0.025
-396.150	800.000	-0.035	0.114
-395.136	440.741	0.053	-0.116
-394.121	140.210	0.239	-0.316
-393.106	372.564	-0.095	-0.193
-392.092	-87.172	0.248	0.075
-391.077	-63.686	0.331	-0.136
-390.063	800.000	0.036	0.141
-389.048	295.219	0.183	-0.335
-388.033	-195.963	-0.424	-0.003
-387.019	-125.413	-0.055	-0.008
-386.004	800.000	-0.011	-0.035
-384.990	-8.848	-0.145	0.097
-383.975	-121.932	0.062	-0.010
-382.960	475.652	0.016	0.036
-381.946	137.498	0.165	-0.216
-380.931	-200.000	0.030	0.190
-379.917	1.788	0.140	-0.100
-378.902	40.397	-0.086	0.077
-377.888	88.087	0.078	-0.086
-376.873	-200.000	-0.026	0.423
-375.858	800.000	-0.066	-0.211
-374.844	-103.863	-0.391	-0.091
-373.829	-13.576	0.105	0.068
-372.815	297.906	0.096	-0.176
-371.800	-159.125	-0.095	-0.005
-370.785	108.561	-0.069	-0.083
-369.771	287.698	0.095	-0.171
-368.756	-56.879	0.199	0.088
-367.742	168.830	0.071	-0.102
-366.727	-120.443	0.220	-0.037
-365.712	621.558	-0.101	-0.253
-364.698	541.161	-0.148	0.353
-363.683	-41.125	-0.284	0.146
-362.669	-196.051	-0.386	-0.003
-361.654	28.791	0.063	-0.053
-360.639	-66.590	-0.337	0.133
-359.625	-100.731	0.280	0.069
-358.610	800.000	0.085	0.303
-357.596	42.175	-0.124	-0.112
-356.581	-8.636	-0.232	-0.156
-355.566	698.060	0.103	0.271
-354.552	167.395	-0.046	0.066
-353.537	-200.000	0.005	0.122
-352.523	532.815	-0.033	-0.078
-351.508	4.405	0.252	-0.184
-350.493	461.054	0.080	-0.177
-349.479	585.539	0.060	-0.146
-348.464	10.391	-0.156	0.119
-347.450	800.000	-0.074	0.282
-346.435	-86.362	-0.139	-0.043
-345.420	495.796	-0.010	0.024
-344.406	-52.220	0.172	0.079
-343.391	-105.203	-0.225	-0.051
-342.377	-126.314	0.179	0.027
-341.362	-200.000	-0.002	0.062
-340.348	-200.000	0.023	0.262
-339.333	-40.445	-0.319	0.165
-338.318	-200.000	-0.038	-0.239
-337.304	-200.000	0.007	-0.382
-336.289	-173.848	-0.177	-0.005
-335.275	-12.470	-0.156	0.101
-334.260	-200.000	0.022	0.360
-333.245	-200.000	0.050	0.234
-332.231	170.695	0.135	-0.193
-331.216	-200.000	-0.011	0.100
-330.202	-152.236	-0.100	0.007
-329.187	-200.000	-0.024	-0.402
-328.172	-200.000	-0.025	-0.379
-327.158	-47.325	-0.314	-0.153
-326.143	5.300	-0.096	0.071
-325.129	-200.000	0.039	-0.284
-324.114	-135.291	-0.123	0.015
-323.099	260.809	0.101	0.174
-322.085	-44.628	0.378	-0.188
-321.070	-122.740	0.061	-0.010
-320.056	36.067	0.095	-0.083
-319.041	-63.370	-0.099	0.041
-318.026	106.768	0.233	0.276
-317.012	-109.225	-0.313	0.066
-315.997	536.993	-0.080	-0.190
-314.983	-69.974	0.131	-0.050
-313.968	800.000	-0.162	-0.469
-312.953	-41.215	0.387	0.199
-311.939	131.434	0.230	-0.294
-310.924	617.670	-0.044	0.111
-309.910	159.044	0.058	0.080
-308.895	-200.000	0.021	0.344
-307.880	78.537	-0.277	0.295
-306.866	66.036	0.230	0.232
-305.851	-112.585	0.130	0.026
-304.837	96.142	-0.124	-0.142
-303.822	-73.349	-0.149	0.054
-302.807	-73.875	-0.290	-0.105
-301.793	-159.172	-0.232	0.013
-300.778	109.432	0.246	0.293
-299.764	211.817	0.208	0.326
-298.749	239.996	0.118	0.195
-297.735	-101.380	0.268	-0.065
-296.720	226.310	0.059	-0.096
-295.705	-200.000	-0.076	-0.463
-294.691	-19.930	0.187	-0.115
-293.676	-25.841	0.263	0.154
-292.662	-200.000	0.009	0.084
-291.647	-200.000	0.007	-0.146
-290.632	-200.000	0.061	0.509
-289.618	-200.000	0.041	0.296
-288.603	-146.905	-0.382	-0.033
-287.589	-4.289	0.134	-0.092
-286.574	643.126	0.179	0.454
-285.559	199.380	0.168	0.256
-284.545	-95.036	-0.170	-0.046
-283.530	-15.100	-0.342	-0.218
-282.516	64.787	0.130	-0.130
-281.501	800.000	0.035	-0.121
-280.486	-200.000	-0.099	-0.491
-279.472	120.964	0.173	0.214
-278.457	-149.146	0.229	0.018
-277.443	168.082	-0.066	-0.093
-276.428	-21.190	0.174	0.106
-275.413	-200.000	-0.013	0.245
-274.399	800.000	-0.094	-0.314
-273.384	-141.050	-0.185	-0.019
-272.370	-200.000	0.073	0.375
-271.355	256.609	0.105	0.179
-270.340	-70.564	-0.162	-0.061
-269.326	-112.121	-0.283	0.057
-268.311	207.630	0.120	-0.186
-267.297	-49.048	0.059	-0.028
-266.282	-200.000	-0.000	-0.097
-265.267	194.804	0.167	-0.252
-264.253	603.417	0.086	0.213
-263.238	-97.775	-0.091	0.023
-262.224	-200.000	0.034	0.179
-261.209	796.128	-0.027	-0.075
-260.195	-132.146	0.077	0.010
-259.180	-107.840	-0.214	-0.046
-258.165	125.796	-0.099	0.124
-257.151	126.277	-0.216	-0.272
-256.136	800.000	0.062	-0.172
-255.122	-122.867	-0.023	-0.004
-254.107	-200.000	-0.010	-0.140
-253.092	-200.000	0.020	-0.210
-252.078	-40.392	0.423	0.219
-251.063	88.458	-0.190	-0.209
-250.049	-27.954	-0.135	-0.078
-249.034	-12.120	-0.158	0.103
-248.019	-200.000	-0.041	-0.197
-247.005	277.085	0.137	-0.242
-245.990	-48.075	-0.096	-0.046
-244.976	-200.000	-0.013	0.065
-243.961	-200.000	-0.004	0.036
-242.946	87.900	0.060	0.066
-241.932	-96.120	0.191	0.050
-240.917	-154.305	-0.307	-0.021
-239.903	87.775	0.210	-0.231
-238.888	-117.843	0.151	-0.027
-237.873	50.278	-0.073	0.069
-236.859	-24.065	0.175	0.104
-235.844	-32.655	-0.211	-0.117
-234.830	-10.299	0.330	-0.217
-233.815	-153.171	-0.527	-0.037
-232.800	103.334	-0.087	-0.102
-231.786	800.000	-0.086	0.271
-230.771	-181.648	0.269	0.005
-229.757	101.267	-0.186	0.215
-228.742	596.395	-0.144	0.354
-227.727	171.371	0.019	0.027
-226.713	41.016	-0.137	0.123
-225.698	31.837	0.270	-0.231
-224.684	-163.156	-0.304	0.015
-223.669	-200.000	0.001	0.057
-222.655	553.326	0.094	0.224
-221.640	54.669	-0.331	0.317
-220.625	-8.641	-0.058	0.038
-219.611	311.998	0.037	0.070
-218.596	255.453	-0.121	-0.206
-217.582	-69.189	-0.478	-0.182
-216.567	575.093	0.066	0.159
-215.552	683.032	-0.028	0.073
-214.538	-93.085	0.531	0.147
-213.523	-200.000	0.002	-0.130
-212.509	-17.099	0.069	-0.043
-211.494	-200.000	-0.022	0.194
-210.479	-200.000	-0.010	0.135
-209.465	86.457	0.149	0.163
-208.450	-109.409	0.127	-0.027
-207.436	-200.000	0.011	-0.196
-206.421	0.380	0.121	0.086
-205.406	-158.998	-0.152	0.009
-204.392	-32.378	0.015	-0.008
-203.377	800.000	0.062	0.202
-202.363	-144.334	0.049	-0.004
-201.348	-166.630	0.179	0.007
-200.333	197.907	-0.117	0.177
-199.319	91.988	0.028	0.031
-198.304	-180.002	-0.265	0.006
-197.290	-181.862	-0.132	0.002
-196.275	-46.403	0.343	0.167
-195.260	173.234	-0.068	0.097
-194.246	-98.221	0.201	-0.051
-193.231	-82.906	-0.107	0.034
-192.217	13.788	-0.115	0.089
-191.202	77.973	0.205	0.217
-190.187	-200.000	0.007	0.091
-189.173	166.101	-0.226	0.318
-188.158	55.616	0.143	-0.137
-187.144	-74.094	0.392	-0.141
-186.129	438.658	0.102	-0.221
-185.114	-98.932	-0.223	0.056
-184.100	-133.683	-0.108	0.013
-183.085	-106.959	0.245	-0.054
-182.071	-172.621	0.248	-0.008
-181.056	-174.506	0.017	-0.000
-180.042	547.155	0.136	0.322
-179.027	-200.000	0.021	0.270
-178.012	72.409	-0.119	0.123
-176.998	-79.154	0.259	0.087
-175.983	63.105	-0.299	-0.297
-174.969	378.929	-0.072	-0.145
-173.954	224.269	-0.147	-0.236
-172.939	35.912	-0.104	0.091
-171.925	-9.156	0.356	-0.236
-170.910	-23.854	-0.774	0.459
-169.896	-109.816	0.365	-0.076
-168.881	264.885	0.106	-0.182
-167.866	-200.000	0.002	-0.068
-166.852	-200.000	0.045	0.205
-165.837	-53.573	-0.200	0.090
-164.823	2.550	-0.124	0.089
-163.808	800.000	-0.097	-0.359
-162.793	-184.685	-0.310	-0.005
-161.779	800.000	0.063	0.211
-160.764	-6.765	-0.164	0.111
-159.750	9.694	0.183	-0.138
-158.735	-144.236	0.210	0.019
-157.720	408.764	0.131	0.275
-156.706	68.644	0.114	0.116
-155.691	-200.000	-0.032	0.145
-154.677	-21.589	0.166	0.100
-153.662	60.248	-0.168	0.165
-152.647	97.797	-0.163	-0.185
-151.633	-73.848	-0.123	-0.044
-150.618	-200.000	0.010	-0.117
-149.604	-60.259	0.284	0.120
-148.589	66.368	0.029	0.029
-147.574	-100.001	0.210	0.052
-146.560	800.000	0.128	-0.357
-145.545	13.526	-0.177	-0.136
-144.531	122.953	0.143	-0.177
-143.516	4.278	-0.349	-0.253
-142.502	124.854	0.183	-0.229
-141.487	-91.721	0.178	0.050
-140.472	147.978	0.127	-0.169
-139.458	800.000	0.066	0.235
-138.443	528.330	0.042	-0.098
-137.429	117.758	-0.045	0.055
-136.414	-200.000	-0.015	-0.097
-135.399	-50.401	-0.327	-0.153
-134.385	-200.000	0.008	0.174
-133.370	-200.000	0.001	-0.066
-132.356	15.486	0.346	0.269
-131.341	270.189	0.188	0.327
-130.326	-153.437	-0.456	-0.031
-129.312	-200.000	-0.038	-0.239
-128.297	46.658	-0.294	-0.270
-127.283	-200.000	-0.001	0.021
-126.268	464.028	0.108	0.238
-125.253	-200.000	-0.043	0.305
-124.239	188.602	-0.176	0.260
-123.224	430.472	-0.051	0.109
-122.210	-11.127	0.260	0.169
-121.195	-97.661	0.216	0.055
-120.180	800.000	0.045	0.169
-119.166	50.723	0.219	-0.205
-118.151	100.240	0.123	0.142
-117.137	91.092	0.189	0.210
-116.122	-143.963	0.046	0.004
-115.107	-200.000	0.023	-0.248
-114.093	166.655	0.146	0.204
-113.078	800.000	0.038	-0.129
-112.064	-7.074	-0.082	0.055
-111.049	-146.544	-0.428	-0.037
-110.034	394.977	-0.115	-0.236
-109.020	-200.000	-0.006	-0.030
-108.005	800.000	-0.069	0.194
-106.991	329.947	-0.133	0.252
-105.976	-93.754	-0.248	-0.068
-104.962	-85.941	0.223	-0.068
-103.947	49.324	0.041	-0.038
-102.932	-188.329	-0.152	0.002
-101.918	-101.227	0.208	-0.050
-100.903	1.475	0.370	-0.263
-99.889	134.528	0.144	0.185
-98.874	-200.000	-0.044	0.352
-97.859	292.345	0.049	-0.088
-96.845	495.224	0.152	-0.346
-95.830	-200.000	0.032	-0.581
-94.816	-178.796	0.282	0.006
-93.801	800.000	0.050	0.197
-92.786	130.996	0.141	-0.179
-91.772	-107.863	-0.162	0.035
-90.757	365.773	-0.105	0.209
-89.743	76.410	0.122	0.128
-88.728	-99.510	0.323	0.080
-87.713	269.166	-0.200	0.346
-86.699	288.390	-0.042	-0.076
-85.684	-136.032	0.262	0.030
-84.670	-124.785	0.357	-0.054
-83.655	-123.309	-0.042	-0.007
-82.640	-129.804	0.490	-0.066
-81.626	-200.000	-0.030	0.204
-80.611	800.000	-0.070	0.216
-79.597	-15.025	-0.027	-0.017
-78.582	800.000	0.014	-0.041
-77.567	-200.000	-0.036	0.162
-76.553	269.971	-0.128	-0.221
-75.538	-200.000	0.049	-0.231
-74.524	-200.000	0.028	0.281
-73.509	800.000	-0.062	0.185
-72.494	-13.423	-0.226	0.145
-71.480	766.083	0.163	-0.437
-70.465	113.160	0.271	-0.325
-69.451	-53.232	0.272	0.123
-68.436	-145.476	0.177	0.016
-67.422	-200.000	0.018	-0.219
-66.407	6.410	0.201	-0.147
-65.392	-159.079	-0.227	-0.013
-64.378	-66.655	-0.082	0.032
-63.363	-82.121	-0.158	0.051
-62.349	800.000	-0.140	0.394
-61.334	98.833	-0.820	-0.934
-60.319	15.164	0.434	0.335
-59.305	-200.000	-0.082	-1.239
-58.290	185.092	0.623	0.912
-57.276	-200.000	0.260	1.809
-56.261	-200.000	97.785	589.938
-55.246	601.250	1437.691	3521.876
-54.232	181.711	2645.211	3839.106
-53.217	119.306	2198.683	2682.732
-52.203	44.485	1639.515	1485.130
-51.188	35.984	1371.156	1189.767
-50.173	32.666	1328.490	1132.795
-49.159	55.795	1375.909	1314.968
-48.144	57.980	1392.523	1344.107
-47.130	36.266	1349.999	1172.933
-46.115	32.702	1332.322	1136.100
-45.100	32.500	1327.558	1130.778
-44.086	32.461	1324.978	1128.306
-43.071	32.384	1322.372	1125.581
-42.057	32.379	1320.707	1124.088
-41.042	32.347	1318.879	1122.298
-40.027	32.514	1317.378	1121.970
-39.013	32.336	1316.253	1119.910
-37.998	32.361	1314.234	1118.295
-36.984	32.484	1311.740	1116.861
-35.969	32.542	1310.204	1115.850
-34.954	32.588	1308.740	1114.831
-33.940	32.518	1307.678	1113.469
-32.925	32.567	1305.981	1112.264
-31.911	32.644	1304.545	1111.455
-30.896	32.690	1302.110	1109.606
-29.881	32.599	1301.281	1108.318
-28.867	32.691	1300.008	1107.733
-27.852	32.610	1298.310	1105.769
-26.838	32.592	1297.062	1104.555
-25.823	32.733	1295.111	1103.677
-24.809	32.622	1294.207	1102.214
-23.794	32.501	1293.788	1101.104
-22.779	32.640	1291.824	1100.201
-21.765	32.659	1290.398	1099.050
-20.750	32.686	1288.600	1097.634
-19.736	32.602	1287.908	1096.513
-18.721	32.362	1287.052	1094.344
-17.706	32.452	1285.669	1093.646
-16.692	32.468	1284.175	1092.426
-15.677	32.383	1283.299	1091.142
-14.663	32.423	1282.356	1090.532
-13.648	32.361	1281.553	1089.443
-12.633	32.493	1279.970	1088.820
-11.619	32.468	1279.354	1088.112
-10.604	32.449	1278.655	1087.364
-9.590	32.428	1277.629	1086.325
-8.575	32.503	1275.997	1085.326
-7.560	32.376	1275.690	1084.293
-6.546	32.462	1274.674	1083.880
-5.531	32.474	1273.533	1082.933
-4.517	32.458	1272.731	1082.116
-3.502	32.468	1272.330	1081.790
-2.487	32.425	1271.251	1080.582
-1.473	32.467	1267.427	1077.534
-0.458	31.702	1253.725	1061.507
0.556	29.298	1236.307	1027.748
1.571	26.006	1242.199	1014.083
2.586	24.907	1257.201	1019.983
3.600	23.458	1244.470	1001.385
4.615	17.173	1169.420	907.445
5.629	8.097	1092.809	802.417
6.644	4.155	1071.963	767.549
7.659	3.772	1069.752	764.003
8.673	3.890	1068.624	763.715
9.688	3.943	1067.160	762.860
10.702	4.157	1065.858	762.915
11.717	9.468	1073.057	794.263
12.731	17.681	1084.979	843.838
13.746	20.397	1087.844	859.454
14.761	19.645	1086.165	854.334
15.775	18.761	1083.852	848.074
16.790	17.648	1081.936	841.013
17.804	16.930	1080.114	835.983
18.819	16.552	1079.503	833.574
19.834	16.435	1078.260	831.961
20.848	16.286	1077.996	830.954
21.863	16.051	1076.895	828.877
22.877	15.919	1076.097	827.539
23.892	15.811	1075.269	826.301
24.907	15.884	1074.909	826.308
25.921	15.876	1073.321	824.972
26.936	15.964	1072.164	824.442
27.950	15.981	1070.565	823.225
28.965	16.067	1069.399	822.672
29.980	16.152	1067.890	821.852
30.994	16.281	1066.573	821.394
32.009	16.263	1065.780	820.624
33.023	16.182	1064.694	819.321
34.038	15.962	1063.881	817.557
35.053	16.038	1062.677	816.925
36.067	16.082	1061.940	816.501
37.082	15.955	1061.170	815.222
38.096	16.197	1059.877	815.326
39.111	16.180	1059.313	814.741
40.126	15.883	1058.429	812.552
41.140	15.786	1057.240	811.103
42.155	15.770	1055.554	809.661
43.169	15.675	1054.840	808.581
44.184	15.681	1053.107	807.210
45.199	15.755	1052.149	806.761
46.213	15.742	1051.463	806.102
47.228	16.012	1050.289	806.425
48.242	15.981	1049.458	805.567
49.257	15.965	1048.260	804.498
50.271	16.202	1046.880	804.495
51.286	16.149	1046.675	804.015
52.301	16.153	1045.367	802.957
53.315	15.955	1044.478	801.264
54.330	15.935	1043.433	800.294
55.344	15.814	1042.555	798.977
56.359	15.973	1041.549	798.889
57.374	15.815	1041.116	797.740
58.388	15.752	1039.829	796.385
59.403	15.600	1039.476	795.325
60.417	15.816	1038.341	795.407
61.432	15.723	1037.594	794.326
62.447	15.637	1036.638	793.115
63.461	15.637	1035.900	792.480
64.476	15.567	1034.870	791.293
65.490	15.563	1033.879	790.448
66.505	15.687	1033.135	790.389
67.520	15.609	1032.707	789.628
68.534	15.648	1031.886	789.110
69.549	15.524	1031.379	788.073
70.563	15.486	1030.650	787.266
71.578	15.658	1029.091	786.811
72.593	15.516	1028.409	785.559
73.607	15.506	1027.912	785.063
74.622	15.601	1027.207	784.895
75.636	15.541	1026.635	784.112
76.651	15.654	1025.903	784.008
77.666	15.530	1025.522	783.072
78.680	15.603	1024.594	782.634
79.695	15.657	1024.035	782.388
80.709	15.736	1023.038	781.925
81.724	15.769	1022.859	781.873
82.739	15.810	1022.188	781.481
83.753	16.015	1021.312	781.693
84.768	16.083	1020.579	781.379
85.782	16.260	1019.455	781.266
86.797	16.087	1019.002	780.050
87.812	16.018	1017.771	778.719
88.826	16.139	1016.891	778.537
89.841	16.024	1015.960	777.226
90.855	16.211	1014.938	777.237
91.870	16.373	1014.189	777.338
92.884	16.200	1013.158	775.683
93.899	16.254	1012.212	775.140
94.914	16.374	1011.854	775.349
95.928	16.273	1010.881	774.068
96.943	16.133	1009.881	772.597
97.957	16.163	1008.671	771.737
98.972	16.190	1007.903	771.204
99.987	16.299	1006.991	770.939
101.001	16.223	1006.007	769.770
102.016	16.147	1005.794	769.193
103.030	16.136	1005.142	768.575
104.045	16.136	1004.193	767.781
105.060	16.098	1003.020	766.642
106.074	16.004	1002.034	765.393
107.089	15.870	1000.795	763.773
108.103	15.693	1000.010	762.305
109.118	15.615	999.684	761.632
110.133	15.833	997.691	761.034
111.147	15.856	997.563	760.972
112.162	15.796	996.997	760.201
113.176	15.789	996.476	759.705
114.191	15.973	995.533	759.749
115.206	15.900	994.635	758.669
116.220	15.767	993.891	757.436
117.235	15.944	992.896	757.407
118.249	15.831	991.857	756.037
119.264	15.696	991.190	754.859
120.279	15.878	989.976	754.681
121.293	15.792	989.264	753.686
122.308	15.786	988.538	753.039
123.322	15.762	987.327	751.944
124.337	15.745	986.433	751.123
125.352	15.734	984.973	749.895
126.366	15.657	983.929	748.691
127.381	15.721	983.381	748.493
128.395	15.755	982.311	747.762
129.410	15.823	981.495	747.378
130.424	15.834	980.834	746.855
131.439	15.949	979.982	746.651
132.454	15.918	979.394	746.001
133.468	16.009	978.084	745.338
134.483	15.922	977.611	744.527
135.497	15.975	976.695	743.999
136.512	16.075	976.019	743.857
137.527	15.955	975.008	742.492
138.541	15.884	974.458	741.699
139.556	15.929	974.050	741.518
140.570	16.199	972.996	741.838
141.585	16.231	972.590	741.602
142.600	16.265	971.455	740.820
143.614	16.301	970.840	740.444
144.629	16.313	970.111	739.877
145.643	16.212	969.031	738.547
146.658	16.194	967.719	737.399
147.673	16.134	966.773	736.352
148.687	15.984	966.457	735.392
149.702	16.049	965.116	734.592
150.716	15.751	964.741	732.942
151.731	16.003	963.906	733.339
152.746	16.066	963.132	732.961
153.760	16.182	962.476	732.899
154.775	16.136	961.868	732.170
155.789	16.191	961.117	731.772
156.804	16.231	960.336	731.289
157.819	16.250	959.779	730.881
158.833	16.391	959.064	730.883
159.848	16.405	958.567	730.498
160.862	16.242	957.675	729.050
161.877	16.066	956.677	727.466
162.892	16.142	954.979	726.441
163.906	16.111	954.141	725.602
164.921	16.073	953.587	724.953
165.935	16.183	952.682	724.674
166.950	16.245	951.549	724.014
167.964	16.063	951.133	722.855
168.979	16.063	950.242	722.114
169.994	16.238	949.075	721.913
171.008	16.179	949.038	721.569
172.023	16.403	948.195	721.821
173.037	16.474	947.125	721.242
174.052	16.266	946.684	719.959
175.067	16.163	945.782	718.770
176.081	15.949	945.731	717.754
177.096	16.037	944.928	717.455
178.110	16.168	944.301	717.472
179.125	16.221	943.457	716.992
180.140	16.143	943.104	716.332
181.154	16.246	942.847	716.509
182.169	16.401	942.031	716.483
183.183	16.360	941.748	716.032
184.198	16.280	940.922	715.001
185.213	16.505	939.716	714.972
186.227	16.602	938.643	714.501
187.242	16.606	938.365	714.243
188.256	16.658	937.936	714.076
189.271	16.536	937.324	713.031
190.286	16.340	936.254	711.328
191.300	16.047	935.261	709.280
192.315	16.138	934.534	709.048
193.329	16.186	934.209	708.937
194.344	16.353	933.581	709.102
195.359	16.340	932.905	708.471
196.373	16.354	932.652	708.274
197.388	16.553	932.383	708.842
198.402	16.739	931.955	709.231
199.417	16.720	931.109	708.447
200.432	16.800	930.349	708.138
201.446	16.794	930.129	707.882
202.461	16.894	929.508	707.765
203.475	16.868	928.622	706.919
204.490	16.896	927.909	706.431
205.504	16.511	927.632	704.553
206.519	16.695	926.816	704.639
207.534	16.614	925.990	703.614
208.548	16.737	925.322	703.554
209.563	16.753	924.136	702.655
210.577	16.744	923.652	702.187
211.592	16.959	923.311	702.758
212.607	16.844	922.403	701.529
213.621	16.847	921.466	700.765
214.636	16.888	920.720	700.305
215.650	16.910	920.282	700.002
216.665	16.920	919.821	699.631
217.680	17.035	919.121	699.511
218.694	16.974	918.424	698.666
219.709	17.003	917.652	698.136
220.723	17.015	916.976	697.610
221.738	16.911	916.235	696.558
222.753	16.915	915.583	696.016
223.767	17.103	915.158	696.402
224.782	17.110	914.712	696.031
225.796	17.142	914.177	695.693
226.811	17.118	913.511	695.027
227.826	16.884	912.599	693.314
228.840	16.986	911.811	693.069
229.855	17.074	910.460	692.343
230.869	16.879	910.098	691.211
231.884	16.901	909.243	690.591
232.899	16.897	908.735	690.128
233.913	16.811	908.159	689.277
234.928	16.979	907.145	689.130
235.942	16.836	906.758	688.194
236.957	16.870	906.114	687.780
237.972	16.903	905.672	687.522
238.986	16.844	905.105	686.789
240.001	16.911	904.368	686.438
241.015	16.961	903.539	685.953
242.030	16.968	903.181	685.650
243.045	17.078	902.559	685.559
244.059	17.097	901.908	685.082
245.074	17.108	901.560	684.801
246.088	17.079	900.706	683.973
247.103	17.276	900.038	684.200
248.117	17.257	899.837	683.910
249.132	17.575	899.145	684.602
250.147	17.707	898.810	684.817
251.161	17.618	898.003	683.785
252.176	17.555	897.627	683.185
253.190	17.779	896.631	683.265
254.205	17.728	896.145	682.626
255.220	17.610	895.630	681.703
256.234	17.588	894.672	680.825
257.249	17.758	894.251	681.126
258.263	17.690	893.484	680.207
259.278	17.653	892.769	679.455
260.293	17.695	892.149	679.094
261.307	17.719	891.968	678.988
262.322	17.820	891.180	678.731
263.336	17.931	890.204	678.368
264.351	17.902	889.773	677.867
265.366	17.920	889.047	677.325
266.380	17.846	888.417	676.491
267.395	17.784	887.693	675.636
268.409	17.725	886.624	674.529
269.424	17.866	886.164	674.677
270.439	17.797	885.239	673.639
271.453	17.692	884.534	672.628
272.468	17.681	884.341	672.378
273.482	17.619	883.678	671.572
274.497	17.849	882.804	671.753
275.512	17.782	882.242	671.002
276.526	17.747	881.906	670.549
277.541	17.922	881.511	670.879
278.555	17.959	880.972	670.553
279.570	18.033	880.542	670.457
280.585	18.029	879.289	669.429
281.599	17.981	878.479	668.563
282.614	17.954	877.732	667.832
283.628	17.962	877.173	667.379
284.643	17.963	876.742	666.994
285.657	17.957	876.056	666.391
286.672	17.938	875.506	665.840
287.687	18.014	874.959	665.658
288.701	18.010	874.183	664.997
289.716	18.043	873.467	664.522
290.730	18.090	873.181	664.428
291.745	18.188	872.610	664.313
292.760	18.156	872.112	663.751
293.774	18.269	871.499	663.663
294.789	18.213	870.803	662.859
295.803	18.007	870.088	661.457
296.818	18.036	869.176	660.819
297.833	18.132	868.444	660.573
298.847	18.012	868.543	660.127
299.862	18.114	867.826	659.919
300.876	18.181	867.426	659.813
301.891	18.270	867.006	659.779
302.906	18.388	866.047	659.447
303.920	18.470	865.476	659.269
304.935	18.472	865.122	658.947
305.949	18.415	864.562	658.243
306.964	18.384	863.473	657.238
307.979	18.387	863.154	656.947
308.993	18.494	862.647	656.914
310.008	18.342	862.494	656.155
311.022	18.474	861.689	655.991
312.037	18.458	860.358	654.859
313.052	18.084	860.083	653.163
314.066	18.141	859.614	652.967
315.081	18.212	858.998	652.712
316.095	18.270	858.204	652.274
317.110	18.195	858.070	651.828
318.125	18.271	857.436	651.577
319.139	18.397	856.474	651.265
320.154	18.279	856.451	650.744
321.168	18.263	855.946	650.241
322.183	18.360	855.253	650.025
323.197	18.257	855.227	649.558
324.212	18.352	854.792	649.531
325.227	18.419	853.770	648.951
326.241	18.394	853.188	648.355
327.256	18.267	852.471	647.273
328.270	18.334	851.824	646.978
329.285	18.420	850.985	646.609
330.300	18.506	850.664	646.630
331.314	18.372	850.540	645.974
332.329	18.401	850.298	645.841
333.343	18.565	849.363	645.692
334.358	18.650	849.114	645.767
335.373	18.560	848.877	645.190
336.387	18.593	848.637	645.074
337.402	18.554	848.278	644.599
338.416	18.802	847.836	645.136
339.431	18.753	847.391	644.555
340.446	18.814	847.094	644.502
341.460	18.883	846.686	644.393
342.475	18.973	846.290	644.374
343.489	19.002	845.764	644.024
344.504	19.071	845.405	643.953
345.519	19.144	844.912	643.794
346.533	18.995	844.328	642.736
347.548	18.844	843.488	641.473
348.562	18.926	843.052	641.391
349.577	18.827	842.256	640.361
350.592	18.731	841.501	639.372
351.606	18.605	841.161	638.588
352.621	18.687	840.745	638.520
353.635	18.874	839.586	638.277
354.650	18.876	839.222	637.952
355.665	18.911	838.643	637.585
356.679	18.927	837.889	637.017
357.694	18.979	837.225	636.646
358.708	18.931	836.724	636.031
359.723	19.041	835.959	635.802
360.738	18.977	835.347	635.042
361.752	19.144	834.764	635.161
362.767	19.016	834.741	634.615
363.781	19.180	834.075	634.655
364.796	19.377	833.561	634.932
365.810	19.293	833.549	634.559
366.825	19.353	832.996	634.301
367.840	19.371	832.234	633.732
368.854	19.225	831.838	632.839
369.869	19.308	831.118	632.541
370.883	19.181	831.020	631.942
371.898	19.377	830.564	632.261
372.913	19.476	830.336	632.391
373.927	19.374	829.873	631.609
374.942	19.303	829.290	630.851
375.956	19.505	829.096	631.385
376.971	19.511	828.203	630.672
377.986	19.620	828.051	630.898
379.000	19.483	827.920	630.242
380.015	19.668	826.694	629.928
381.029	19.672	826.208	629.517
382.044	19.526	825.626	628.486
383.059	19.571	825.037	628.146
384.073	19.610	824.569	627.877
385.088	19.496	824.330	627.225
386.102	19.371	823.692	626.229
387.117	19.540	823.015	626.271
388.132	19.520	821.942	625.330
389.146	19.477	821.765	624.981
390.161	19.621	821.405	625.175
391.175	19.478	821.000	624.295
392.190	19.467	820.265	623.639
393.205	19.722	819.640	624.030
394.219	19.541	819.300	623.061
395.234	19.419	818.920	622.278
396.248	19.361	818.403	621.622
397.263	19.425	817.868	621.389
398.278	19.379	817.374	620.795
399.292	19.255	817.684	620.530
400.307	19.264	816.726	619.781
401.321	19.502	816.013	620.038
402.336	19.532	816.052	620.122
403.350	19.438	815.734	619.488
404.365	19.683	815.148	619.867
405.380	19.846	814.494	619.900
406.394	19.976	813.879	619.842
407.409	19.926	813.820	619.563
408.423	19.877	813.398	619.009
409.438	19.925	813.652	619.322
410.453	19.957	812.708	618.659
411.467	19.893	812.461	618.190
412.482	20.083	811.860	618.356
413.496	20.232	811.381	618.469
414.511	20.048	811.247	617.656
415.526	20.066	810.316	616.956
416.540	20.081	810.029	616.735
417.555	19.958	809.952	616.184
418.569	20.130	809.115	616.105
419.584	20.083	809.017	615.809
420.599	20.009	808.784	615.315
421.613	157.708	1371.338	1791.871
422.628	137.087	1453.283	1791.978
