DTS Sentinel unit serial number:	SN413079Multiplexer serial number:	ORYXHardware model number:	OX4-SRSoftware version number:	ORYX F/W v4.00 Oryx Data Collector v3.7.2.0data status	okinstallation	princeton_trtdifferential loss correction	single-endedforward channel	channel 1reverse channel	N/Adate	2019/09/10time	17:12:11forward acquisition time	60.00reverse acquisition time	0.00gamma	496.2192k internal	0.2299k external	0.2299temperature offset calibration	0.9924default loss term (dB/km)	0.3790temperature slope calibration	1.0000multiplexer offset coefficient	1.0000multiplexer slope coefficient	1.0000fibre end	0.00T internal ref (°C)	37.62T ext. ref 1 (°C)	-0.36T ext. ref 2 (°C)	31.95length (m)	temperature (°C)	Stokes	anti-Stokes-747.200	158.482	0.111	-0.158
-746.185	97.581	-0.031	0.036
-745.171	-61.550	-0.351	-0.150
-744.156	-200.000	-0.035	-0.221
-743.142	800.000	-0.025	-0.099
-742.127	632.840	-0.048	-0.123
-741.112	75.740	0.230	-0.248
-740.098	77.449	-0.191	0.207
-739.083	-135.880	0.132	-0.016
-738.069	-101.782	0.132	0.033
-737.054	800.000	0.057	0.179
-736.039	650.344	-0.049	0.129
-735.025	38.980	-0.135	-0.123
-734.010	-200.000	0.029	-0.135
-732.996	-200.000	-0.032	-0.235
-731.981	521.201	-0.020	-0.047
-730.966	70.174	-0.250	-0.264
-729.952	10.455	0.170	0.132
-728.937	-200.000	-0.017	-0.174
-727.923	151.792	-0.172	0.239
-726.908	-200.000	-0.034	-0.532
-725.894	-9.979	0.234	0.159
-724.879	-200.000	0.015	0.172
-723.864	-200.000	0.033	0.446
-722.850	-183.652	-0.057	0.001
-721.835	34.179	-0.390	-0.346
-720.821	-200.000	-0.030	-0.222
-719.806	800.000	-0.088	-0.300
-718.791	-112.421	0.082	0.017
-717.777	273.713	-0.100	0.180
-716.762	181.126	-0.135	0.202
-715.748	-114.775	0.212	0.041
-714.733	-75.039	-0.239	-0.087
-713.718	149.273	-0.041	-0.057
-712.704	-60.048	-0.233	-0.102
-711.689	-200.000	0.010	-0.069
-710.675	83.034	-0.181	-0.201
-709.660	137.434	0.133	-0.177
-708.645	257.031	0.201	-0.352
-707.631	-68.655	-0.331	0.130
-706.616	96.269	-0.119	-0.139
-705.602	-200.000	-0.033	-0.261
-704.587	-64.812	0.126	-0.052
-703.572	4.614	0.167	0.125
-702.558	-82.220	-0.385	0.128
-701.543	-200.000	0.046	0.297
-700.529	114.561	0.094	0.116
-699.514	458.985	0.106	0.239
-698.499	-46.154	-0.195	0.098
-697.485	-23.390	-0.350	-0.214
-696.470	-28.787	-0.106	0.062
-695.456	-200.000	0.010	-0.401
-694.441	-43.164	-0.243	0.125
-693.426	800.000	-0.031	0.135
-692.412	180.460	0.185	-0.277
-691.397	-40.443	0.149	0.079
-690.383	-44.230	0.128	0.065
-689.368	-160.678	0.096	-0.005
-688.354	307.684	-0.093	0.177
-687.339	229.806	-0.148	-0.246
-686.324	-200.000	-0.009	0.243
-685.310	-200.000	-0.014	-0.460
-684.295	118.230	-0.011	0.014
-683.281	-96.516	-0.336	0.090
-682.266	0.835	-0.137	-0.100
-681.251	-200.000	-0.035	-0.193
-680.237	-200.000	0.048	-0.267
-679.222	-10.015	-0.390	-0.264
-678.208	93.380	0.218	0.251
-677.193	75.656	-0.152	-0.164
-676.178	-144.000	-0.252	-0.024
-675.164	-98.523	0.223	-0.058
-674.149	214.774	-0.124	0.199
-673.135	-32.865	0.091	0.052
-672.120	183.883	-0.146	-0.220
-671.105	88.052	-0.074	-0.083
-670.091	-69.233	-0.404	-0.158
-669.076	-58.061	0.301	0.133
-668.062	-200.000	-0.046	-0.303
-667.047	-26.423	-0.115	-0.069
-666.032	-200.000	-0.011	0.300
-665.018	135.364	0.048	-0.063
-664.003	-51.418	0.051	0.024
-662.989	573.551	0.014	0.034
-661.974	113.170	0.163	-0.201
-660.959	-200.000	-0.036	0.463
-659.945	345.375	-0.073	-0.146
-658.930	-200.000	0.021	-0.268
-657.916	-24.365	-0.098	0.059
-656.901	-163.828	-0.380	-0.018
-655.886	-54.247	-0.169	-0.078
-654.872	800.000	-0.063	0.201
-653.857	193.899	0.151	-0.232
-652.843	-200.000	-0.011	-0.408
-651.828	57.072	0.086	-0.086
-650.814	-127.003	0.426	0.064
-649.799	413.002	-0.052	0.112
-648.784	-109.937	0.316	0.067
-647.770	800.000	-0.060	0.187
-646.755	-193.269	0.364	-0.003
-645.741	37.598	0.109	-0.098
-644.726	245.759	0.041	-0.070
-643.711	593.681	-0.031	-0.077
-642.697	96.274	-0.088	0.102
-641.682	637.965	-0.039	-0.102
-640.668	-82.234	0.175	-0.058
-639.653	129.925	-0.287	-0.373
-638.638	-13.152	-0.026	-0.017
-637.624	641.046	-0.160	-0.414
-636.609	-200.000	-0.008	-0.059
-635.595	-200.000	-0.010	0.269
-634.580	-70.466	0.269	-0.103
-633.565	800.000	-0.043	-0.126
-632.551	106.881	-0.145	0.175
-631.536	800.000	-0.029	0.101
-630.522	781.681	0.055	0.154
-629.507	-200.000	0.006	0.118
-628.492	-170.008	0.328	0.012
-627.478	-35.320	-0.088	0.048
-626.463	31.623	-0.019	0.016
-625.449	800.000	0.033	-0.122
-624.434	4.571	-0.006	0.004
-623.419	-8.046	0.078	-0.053
-622.405	42.108	0.057	0.052
-621.390	245.504	-0.035	-0.060
-620.376	-56.883	0.334	0.150
-619.361	112.467	-0.150	-0.184
-618.346	800.000	-0.072	-0.220
-617.332	-182.394	0.077	0.001
-616.317	-155.587	0.254	-0.017
-615.303	325.820	0.044	0.085
-614.288	-200.000	0.032	-0.171
-613.273	-106.894	-0.177	0.040
-612.259	40.783	-0.035	0.032
-611.244	-200.000	0.013	0.071
-610.230	-200.000	0.050	-0.245
-609.215	800.000	0.058	0.200
-608.201	-149.068	0.224	0.018
-607.186	318.595	0.171	-0.329
-606.171	-15.272	0.303	-0.197
-605.157	-200.000	0.003	0.125
-604.142	11.522	0.245	0.190
-603.128	-200.000	0.128	-0.661
-602.113	88.109	0.079	0.089
-601.098	51.370	0.098	-0.094
-600.084	122.607	0.046	0.059
-599.069	800.000	-0.109	-0.412
-598.055	348.684	0.123	0.245
-597.040	-72.091	-0.203	-0.076
-596.025	-58.133	-0.278	0.123
-595.011	498.567	0.203	-0.473
-593.996	800.000	0.003	-0.014
-592.982	179.647	-0.064	0.095
-591.967	-200.000	-0.010	0.449
-590.952	246.359	-0.028	0.049
-589.938	-200.000	-0.030	0.252
-588.923	5.609	0.156	-0.117
-587.909	-85.372	0.225	0.071
-586.894	103.161	0.172	0.204
-585.879	251.080	0.100	0.172
-584.865	-84.618	0.378	0.121
-583.850	-125.430	0.092	-0.014
-582.836	-200.000	-0.033	-0.239
-581.821	541.078	0.041	0.099
-580.806	-200.000	-0.027	-0.308
-579.792	-128.537	-0.198	0.029
-578.777	-35.089	-0.261	0.144
-577.763	-85.842	0.289	0.091
-576.748	435.719	-0.089	-0.196
-575.733	800.000	0.111	-0.373
-574.719	-200.000	0.050	0.304
-573.704	-42.705	0.085	-0.044
-572.690	60.742	0.204	0.205
-571.675	-101.274	0.230	-0.057
-570.661	800.000	-0.025	-0.079
-569.646	90.522	0.016	0.018
-568.631	-19.373	-0.009	-0.005
-567.617	-132.362	0.238	0.031
-566.602	-88.640	0.139	0.042
-565.588	-79.293	-0.200	0.069
-564.573	-138.763	-0.155	0.017
-563.558	-162.598	-0.375	-0.019
-562.544	275.756	0.111	0.199
-561.529	-64.246	0.283	-0.117
-560.515	-108.630	0.233	-0.051
-559.500	-153.206	0.013	0.001
-558.485	-200.000	-0.032	0.146
-557.471	36.208	-0.258	-0.230
-556.456	227.754	-0.111	-0.182
-555.442	-101.817	0.041	-0.010
-554.427	-70.318	0.176	0.067
-553.412	-200.000	0.034	-0.172
-552.398	-152.223	0.167	-0.012
-551.383	-19.033	-0.211	-0.133
-550.369	-24.875	-0.363	0.218
-549.354	121.658	-0.406	-0.512
-548.339	800.000	-0.026	-0.103
-547.325	-140.107	0.167	0.018
-546.310	-28.798	-0.075	-0.044
-545.296	82.112	0.167	-0.184
-544.281	264.115	-0.049	-0.087
-543.266	65.570	-0.183	-0.188
-542.252	-33.512	0.238	0.133
-541.237	-29.997	0.124	-0.072
-540.223	-200.000	0.006	0.288
-539.208	460.933	0.060	0.136
-538.193	-200.000	-0.029	0.147
-537.179	-46.425	-0.079	-0.039
-536.164	156.803	-0.091	0.127
-535.150	-200.000	0.029	-0.278
-534.135	-88.124	-0.204	0.062
-533.121	-175.305	-0.181	-0.005
-532.106	-200.000	-0.017	-0.208
-531.091	-200.000	0.028	0.210
-530.077	-200.000	0.006	-0.091
-529.062	36.439	-0.233	0.208
-528.048	264.302	-0.151	0.265
-527.033	-200.000	0.018	0.228
-526.018	-200.000	-0.047	-0.331
-525.004	211.313	0.064	0.102
-523.989	90.354	-0.257	-0.291
-522.975	-149.257	0.264	-0.021
-521.960	190.000	-0.104	0.158
-520.945	-107.645	0.267	0.059
-519.931	-138.212	0.239	-0.027
-518.916	14.804	0.192	0.152
-517.902	-137.494	0.120	-0.014
-516.887	800.000	0.049	-0.199
-515.872	-84.468	-0.236	0.075
-514.858	-200.000	0.048	-0.268
-513.843	-107.129	-0.326	0.073
-512.829	172.682	0.206	0.299
-511.814	179.352	0.206	0.306
-510.799	-34.148	-0.133	-0.074
-509.785	58.343	0.045	0.044
-508.770	-136.108	-0.349	-0.041
-507.756	-84.414	0.230	0.073
-506.741	-39.736	0.270	-0.143
-505.726	-134.617	0.223	-0.027
-504.712	-200.000	-0.021	0.136
-503.697	-44.083	0.178	-0.090
-502.683	-200.000	-0.005	0.089
-501.668	146.645	0.142	0.193
-500.653	31.425	0.299	-0.259
-499.639	1.644	0.078	0.057
-498.624	-200.000	-0.018	0.296
-497.610	-200.000	0.010	-0.056
-496.595	-101.684	0.262	0.064
-495.581	-189.358	-0.109	0.001
-494.566	-67.133	-0.337	0.134
-493.551	12.061	0.082	-0.064
-492.537	252.479	-0.069	0.120
-491.522	-37.005	-0.265	-0.144
-490.508	-146.000	-0.149	-0.013
-489.493	5.695	-0.105	0.078
-488.478	35.391	0.183	0.162
-487.464	110.726	-0.085	-0.103
-486.449	87.064	-0.178	0.198
-485.435	673.553	0.093	-0.242
-484.420	-106.200	0.326	-0.074
-483.405	-89.338	-0.316	0.094
-482.391	800.000	-0.035	-0.102
-481.376	-123.321	0.095	0.015
-480.362	-85.827	0.423	-0.132
-479.347	-34.892	-0.130	0.072
-478.332	800.000	0.036	-0.133
-477.318	800.000	-0.070	-0.305
-476.303	800.000	0.070	-0.233
-475.289	195.633	0.082	-0.126
-474.274	223.524	-0.137	-0.223
-473.259	-200.000	0.014	-0.062
-472.245	-90.262	-0.067	-0.020
-471.230	55.983	-0.216	0.212
-470.216	-200.000	-0.029	-0.262
-469.201	-63.991	0.052	-0.021
-468.186	596.894	-0.006	0.014
-467.172	800.000	0.106	0.350
-466.157	-200.000	0.026	-0.414
-465.143	-40.000	0.141	-0.074
-464.128	-200.000	-0.001	0.213
-463.113	-29.606	0.215	-0.124
-462.099	-89.489	-0.225	0.067
-461.084	-20.203	-0.211	0.131
-460.070	116.160	-0.146	-0.181
-459.055	-148.055	-0.303	0.025
-458.040	-150.416	-0.354	-0.027
-457.026	-200.000	0.006	0.177
-456.011	-112.764	-0.367	-0.073
-454.997	-109.044	-0.042	0.009
-453.982	398.433	-0.113	-0.239
-452.968	-49.061	-0.397	-0.192
-451.953	60.466	-0.110	0.109
-450.938	-40.314	-0.349	0.183
-449.924	267.178	-0.118	0.209
-448.909	-106.026	-0.131	0.030
-447.895	433.886	-0.128	-0.280
-446.880	-64.908	-0.197	-0.080
-445.865	-126.283	0.103	0.015
-444.851	-163.231	0.281	0.014
-443.836	-29.503	-0.329	-0.190
-442.822	-50.563	0.310	-0.148
-441.807	789.347	0.099	-0.273
-440.792	-18.035	-0.132	-0.084
-439.778	-107.935	0.267	0.058
-438.763	437.536	0.059	0.129
-437.749	-200.000	0.045	0.305
-436.734	-104.959	-0.330	-0.076
-435.719	800.000	0.081	0.276
-434.705	800.000	0.019	0.065
-433.690	434.245	-0.027	0.058
-432.676	313.640	-0.101	0.191
-431.661	24.143	0.227	0.189
-430.646	-94.110	-0.167	0.046
-429.632	-4.998	0.101	-0.070
-428.617	294.133	0.130	-0.240
-427.603	-58.955	0.213	-0.093
-426.588	420.177	0.068	0.148
-425.573	-83.109	0.078	-0.025
-424.559	-200.000	0.084	0.388
-423.544	272.896	-0.069	-0.122
-422.530	-200.000	0.048	-0.228
-421.515	309.621	-0.068	0.128
-420.500	-200.000	0.025	-0.176
-419.486	186.525	-0.124	-0.186
-418.471	-33.579	0.352	-0.196
-417.457	800.000	-0.044	0.145
-416.442	0.682	0.217	0.157
-415.428	607.857	0.051	-0.129
-414.413	-13.839	0.112	-0.073
-413.398	-8.997	-0.317	-0.214
-412.384	649.752	-0.179	0.461
-411.369	-12.872	-0.176	0.115
-410.355	800.000	-0.151	-0.421
-409.340	-60.280	-0.242	-0.104
-408.325	-70.611	-0.196	-0.075
-407.311	-104.815	0.073	0.017
-406.296	-79.775	0.397	-0.135
-405.282	36.232	0.121	0.107
-404.267	-47.449	-0.292	0.143
-403.252	365.932	0.066	0.135
-402.238	578.366	-0.125	-0.307
-401.223	296.683	-0.070	0.129
-400.209	-200.000	-0.026	-0.216
-399.194	29.718	0.145	0.124
-398.179	-150.275	0.251	-0.019
-397.165	-113.100	-0.055	0.011
-396.150	44.811	-0.055	-0.051
-395.136	-86.615	-0.174	0.054
-394.121	43.026	0.156	-0.143
-393.106	294.790	-0.133	0.245
-392.092	45.349	-0.147	0.137
-391.077	264.190	-0.111	-0.194
-390.063	-200.000	0.018	0.132
-389.048	-109.616	0.190	-0.040
-388.033	0.923	-0.264	-0.190
-387.019	-57.943	-0.152	-0.067
-386.004	222.781	-0.085	-0.138
-384.990	-79.798	-0.490	0.166
-383.975	199.893	-0.256	-0.396
-382.960	-64.629	-0.310	-0.127
-381.946	-32.290	-0.138	0.078
-380.931	24.111	-0.136	0.113
-379.917	-73.652	0.330	-0.121
-378.902	-86.071	-0.151	-0.047
-377.888	800.000	0.119	0.475
-376.873	93.399	-0.161	0.183
-375.858	-98.096	0.171	0.044
-374.844	-92.294	-0.206	-0.058
-373.829	195.296	-0.205	-0.313
-372.815	1.943	-0.113	-0.082
-371.800	-136.876	-0.279	-0.032
-370.785	800.000	0.088	0.314
-369.771	-200.000	-0.062	0.321
-368.756	-35.620	0.248	-0.135
-367.742	25.142	0.496	0.414
-366.727	-159.498	-0.035	0.002
-365.712	79.556	-0.155	-0.168
-364.698	-200.000	-0.002	-0.025
-363.683	-29.328	0.109	0.063
-362.669	-58.321	-0.310	-0.136
-361.654	-200.000	-0.020	-0.137
-360.639	-107.044	0.376	-0.084
-359.625	-33.524	0.077	-0.043
-358.610	60.678	-0.222	0.221
-357.596	-72.516	-0.149	0.055
-356.581	189.233	0.096	0.145
-355.566	-200.000	0.057	0.272
-354.552	-200.000	-0.027	-0.248
-353.537	72.662	0.182	0.191
-352.523	50.881	0.027	0.026
-351.508	-48.416	0.064	0.031
-350.493	269.722	0.067	-0.118
-349.479	-143.617	0.072	-0.007
-348.464	-200.000	-0.019	-0.088
-347.450	-85.928	0.043	-0.013
-346.435	-200.000	0.049	-0.268
-345.420	800.000	-0.112	0.337
-344.406	-200.000	0.037	0.199
-343.391	316.278	0.036	0.068
-342.377	50.074	-0.129	-0.122
-341.362	325.977	-0.063	-0.122
-340.348	-200.000	-0.058	0.373
-339.333	-37.032	-0.181	0.097
-338.318	42.633	-0.166	0.152
-337.304	10.046	0.296	-0.225
-336.289	800.000	0.012	-0.034
-335.275	257.305	-0.128	-0.220
-334.260	186.152	0.058	-0.087
-333.245	800.000	-0.058	0.223
-332.231	800.000	-0.031	0.114
-331.216	199.766	-0.061	0.094
-330.202	27.695	0.113	0.096
-329.187	-200.000	0.022	-0.162
-328.172	-200.000	0.004	0.110
-327.158	-200.000	-0.012	0.125
-326.143	314.496	0.049	0.092
-325.129	139.547	0.211	-0.279
-324.114	-200.000	-0.035	-0.212
-323.099	-188.051	-0.279	-0.004
-322.085	-68.492	-0.219	-0.085
-321.070	-83.835	0.259	0.083
-320.056	-200.000	-0.075	-0.480
-319.041	41.557	-0.114	-0.104
-318.026	260.867	-0.119	-0.207
-317.012	127.625	0.183	-0.233
-315.997	-103.152	-0.108	0.026
-314.983	800.000	0.033	-0.106
-313.968	680.980	-0.025	-0.064
-312.953	800.000	-0.040	-0.127
-311.939	180.397	-0.104	-0.153
-310.924	51.340	-0.094	0.089
-309.910	800.000	0.114	-0.360
-308.895	-24.893	0.221	0.131
-307.880	-112.405	-0.380	-0.076
-306.866	53.436	0.041	0.039
-305.851	348.287	-0.047	-0.094
-304.837	348.529	0.101	0.200
-303.822	197.728	-0.161	0.246
-302.807	312.212	-0.121	-0.228
-301.793	-83.213	0.258	0.083
-300.778	800.000	0.112	-0.373
-299.764	-109.064	0.359	0.077
-298.749	271.089	0.156	-0.276
-297.735	-27.552	0.087	0.051
-296.720	-118.916	0.069	-0.012
-295.705	-126.891	-0.217	-0.032
-294.691	-33.589	0.072	0.040
-293.676	-66.765	-0.225	-0.089
-292.662	-200.000	0.000	-0.087
-291.647	206.086	0.046	0.072
-290.632	-200.000	0.004	0.124
-289.618	652.135	-0.094	-0.243
-288.603	135.554	0.079	-0.103
-287.589	372.604	0.097	-0.198
-286.574	-200.000	0.025	0.339
-285.559	-200.000	-0.002	0.097
-284.545	-200.000	0.036	-0.186
-283.530	-200.000	0.014	0.289
-282.516	-170.354	0.119	-0.004
-281.501	800.000	0.060	-0.202
-280.486	-1.100	-0.362	-0.257
-279.472	800.000	0.054	0.151
-278.457	-200.000	-0.040	0.343
-277.443	-129.323	-0.057	0.008
-276.428	386.545	0.137	-0.283
-275.413	-200.000	0.072	-0.327
-274.399	-29.334	0.156	0.089
-273.384	-41.010	0.172	-0.089
-272.370	-68.462	-0.308	-0.120
-271.355	-29.829	0.280	0.160
-270.340	-200.000	-0.008	-0.209
-269.326	88.584	-0.144	-0.160
-268.311	-97.647	-0.255	0.066
-267.297	-200.000	0.014	0.160
-266.282	-128.307	-0.316	0.045
-265.267	-112.577	-0.113	0.023
-264.253	800.000	0.059	-0.229
-263.238	29.206	-0.065	-0.056
-262.224	800.000	0.067	0.295
-261.209	-107.845	0.238	-0.052
-260.195	-84.348	0.093	0.029
-259.180	393.279	-0.146	0.304
-258.165	-200.000	-0.019	0.104
-257.151	-200.000	0.006	-0.199
-256.136	800.000	0.037	-0.126
-255.122	800.000	0.027	0.094
-254.107	93.232	0.320	-0.363
-253.092	-52.098	0.187	-0.087
-252.078	370.552	0.104	0.211
-251.063	-100.184	0.157	0.039
-250.049	-200.000	0.021	-0.163
-249.034	144.002	-0.239	0.319
-248.019	-114.984	0.116	-0.022
-247.005	-5.220	0.124	0.085
-245.990	210.158	0.215	0.337
-244.976	-200.000	0.026	0.211
-243.961	266.381	-0.169	0.295
-242.946	-135.049	-0.143	-0.017
-241.932	-29.264	0.155	0.089
-240.917	-1.342	0.363	0.256
-239.903	568.424	0.078	0.190
-238.888	22.900	-0.111	-0.091
-237.873	-107.585	-0.147	-0.032
-236.859	343.893	0.080	0.156
-235.844	6.843	0.280	-0.208
-234.830	-91.655	-0.312	0.089
-233.815	-132.855	-0.112	-0.014
-232.800	43.579	-0.179	-0.164
-231.786	-36.545	0.209	-0.112
-230.771	800.000	0.145	-0.411
-229.757	3.386	0.212	0.155
-228.742	525.074	-0.121	-0.286
-227.727	-39.879	0.132	0.069
-226.713	800.000	0.042	0.124
-225.698	732.459	0.026	-0.070
-224.684	-200.000	-0.061	0.368
-223.669	800.000	0.038	0.110
-222.655	24.253	0.216	-0.178
-221.640	606.228	-0.119	0.298
-220.625	-95.664	0.118	0.031
-219.611	-156.796	-0.234	-0.014
-218.596	-168.193	-0.069	0.003
-217.582	-44.805	-0.059	-0.029
-216.567	-2.284	-0.327	-0.229
-215.552	-88.578	-0.127	0.038
-214.538	367.679	-0.158	0.320
-213.523	102.511	-0.095	0.111
-212.509	-200.000	0.008	0.060
-211.494	22.669	-0.233	0.190
-210.479	740.943	0.008	-0.023
-209.465	30.322	0.086	-0.074
-208.450	-71.214	-0.073	-0.027
-207.436	-200.000	-0.013	0.179
-206.421	-200.000	-0.016	0.251
-205.406	227.882	0.159	0.259
-204.392	-65.691	-0.220	-0.088
-203.377	93.575	-0.155	0.175
-202.363	21.115	-0.010	-0.008
-201.348	86.346	0.160	0.176
-200.333	-57.179	-0.291	0.128
-199.319	-151.458	0.183	-0.014
-198.304	496.522	-0.165	-0.380
-197.290	800.000	0.082	-0.290
-196.275	-200.000	-0.029	0.420
-195.260	-14.647	-0.203	0.130
-194.246	-200.000	0.026	0.165
-193.231	222.912	-0.068	-0.109
-192.217	-135.236	0.260	0.031
-191.202	150.718	-0.223	0.303
-190.187	126.767	0.024	0.030
-189.173	-122.342	0.131	-0.021
-188.158	-85.763	0.392	0.121
-187.144	394.050	0.045	0.094
-186.129	136.747	-0.143	0.186
-185.114	-83.684	-0.117	0.037
-184.100	-102.940	0.167	-0.039
-183.085	506.390	-0.127	-0.293
-182.071	-142.673	-0.169	0.016
-181.056	-89.228	-0.428	-0.126
-180.042	-105.711	-0.106	-0.024
-179.027	448.887	0.034	0.076
-178.012	-139.289	-0.422	-0.045
-176.998	800.000	-0.073	0.207
-175.983	-73.533	0.110	0.040
-174.969	724.602	0.137	0.364
-173.954	-71.910	-0.387	-0.144
-172.939	-200.000	0.041	0.206
-171.925	685.913	-0.015	0.040
-170.910	221.729	0.140	0.225
-169.896	-69.910	0.345	0.131
-168.881	-200.000	-0.015	0.082
-167.866	340.806	0.096	0.188
-166.852	360.391	-0.188	0.375
-165.837	-138.052	-0.199	0.022
-164.823	273.995	0.217	-0.383
-163.808	-132.806	0.478	-0.061
-162.793	-133.976	0.430	-0.053
-161.779	405.006	-0.085	-0.179
-160.764	-35.608	0.060	0.032
-159.750	179.276	0.167	0.243
-158.735	492.428	0.154	-0.351
-157.720	315.590	0.184	-0.347
-156.706	-117.550	-0.138	0.025
-155.691	-126.931	-0.173	0.025
-154.677	-200.000	0.019	0.120
-153.662	283.641	-0.094	-0.168
-152.647	121.635	0.071	0.088
-151.633	-200.000	0.065	0.420
-150.618	38.508	0.168	0.149
-149.604	-86.288	0.287	-0.088
-148.589	181.289	-0.127	0.185
-147.574	-42.094	0.173	0.088
-146.560	251.582	-0.112	-0.190
-145.545	491.029	-0.099	-0.225
-144.531	-49.210	0.231	0.110
-143.516	-200.000	0.036	0.185
-142.502	800.000	0.100	-0.326
-141.487	-200.000	0.078	0.455
-140.472	216.969	-0.052	0.082
-139.458	179.067	-0.164	-0.239
-138.443	-149.651	0.225	-0.018
-137.429	-200.000	-0.020	-0.308
-136.414	-132.756	-0.261	-0.033
-135.399	-112.027	0.155	-0.031
-134.385	-57.540	-0.209	0.091
-133.370	-71.931	0.261	-0.097
-132.356	-51.364	0.006	-0.003
-131.341	800.000	-0.077	-0.313
-130.326	-81.877	-0.223	-0.073
-129.312	-20.043	0.036	-0.022
-128.297	-200.000	0.007	0.109
-127.283	200.373	0.042	0.065
-126.268	296.763	0.039	-0.071
-125.253	-54.257	-0.312	-0.141
-124.239	63.013	0.344	0.343
-123.224	126.896	-0.202	0.254
-122.210	800.000	0.093	0.274
-121.195	161.160	0.190	-0.265
-120.180	244.277	-0.052	0.088
-119.166	-52.295	0.074	0.034
-118.151	119.544	-0.284	0.350
-117.137	-44.907	0.116	-0.057
-116.122	800.000	-0.057	0.196
-115.107	-126.477	0.185	-0.027
-114.093	-0.403	-0.179	-0.126
-113.078	-96.154	0.272	-0.072
-112.064	-200.000	-0.063	0.412
-111.049	-159.395	0.053	-0.003
-110.034	-200.000	-0.007	-0.151
-109.020	-200.000	-0.032	0.348
-108.005	-104.549	-0.242	0.056
-106.991	-89.823	-0.080	-0.023
-105.976	90.524	-0.083	-0.092
-104.962	82.504	-0.044	-0.048
-103.947	-82.164	-0.277	-0.090
-102.932	-4.532	-0.347	0.238
-101.918	416.007	0.184	-0.391
-100.903	-29.614	0.164	-0.093
-99.889	156.369	-0.159	-0.219
-98.874	-45.137	-0.384	0.190
-97.859	-81.319	0.090	-0.030
-96.845	11.789	-0.214	0.163
-95.830	-58.745	-0.016	-0.007
-94.816	337.234	0.129	0.248
-93.801	-22.060	0.346	0.209
-92.786	-21.355	0.160	-0.097
-91.772	-123.419	0.323	-0.051
-90.757	-47.510	-0.172	0.083
-89.743	41.379	-0.170	0.153
-88.728	-200.000	-0.056	0.263
-87.713	371.600	-0.076	0.154
-86.699	112.499	0.343	-0.413
-85.684	-135.542	0.168	0.020
-84.670	-91.785	-0.100	0.028
-83.655	-55.135	-0.226	0.101
-82.640	-107.519	0.353	0.077
-81.626	205.929	0.065	0.101
-80.611	-200.000	-0.014	-0.089
-79.597	95.724	0.158	0.179
-78.582	800.000	0.031	-0.088
-77.567	697.266	0.154	-0.401
-76.553	-14.640	-0.266	0.170
-75.538	-73.213	0.068	0.025
-74.524	-200.000	-0.042	-0.273
-73.509	64.928	0.186	0.186
-72.494	-147.886	0.195	0.016
-71.480	42.508	0.035	0.032
-70.465	-42.747	0.275	-0.139
-69.451	-135.459	0.127	-0.015
-68.436	-123.027	-0.340	0.054
-67.422	-64.996	-0.190	-0.076
-66.407	38.492	0.177	0.156
-65.392	4.581	-0.297	-0.217
-64.378	132.815	-0.153	-0.197
-63.363	700.149	-0.073	0.192
-62.349	74.782	0.023	0.024
-61.334	73.268	-0.730	-0.759
-60.319	-9.725	-0.207	0.137
-59.305	370.149	-0.271	-0.546
-58.290	387.796	0.419	0.860
-57.276	-200.000	0.239	1.842
-56.261	-200.000	86.101	505.155
-55.246	548.757	1377.865	3278.503
-54.232	180.134	2627.992	3826.889
-53.217	118.854	2254.842	2766.940
-52.203	48.552	1701.327	1583.123
-51.188	40.915	1430.532	1282.091
-50.173	37.712	1386.075	1222.135
-49.159	56.772	1426.781	1379.503
-48.144	61.207	1446.298	1426.501
-47.130	41.288	1405.201	1261.551
-46.115	37.710	1388.202	1223.807
-45.100	37.582	1382.969	1218.342
-44.086	37.442	1380.901	1215.600
-43.071	37.457	1378.187	1213.255
-42.057	37.358	1376.259	1210.890
-41.042	37.349	1374.540	1209.274
-40.027	37.412	1372.891	1208.168
-39.013	37.450	1370.831	1206.543
-37.998	37.511	1369.203	1205.442
-36.984	37.625	1367.447	1204.551
-35.969	37.726	1365.088	1203.051
-34.954	37.713	1363.717	1201.713
-33.940	37.638	1362.444	1200.083
-32.925	37.746	1360.833	1199.283
-31.911	37.679	1359.042	1197.241
-30.896	37.707	1357.840	1196.312
-29.881	37.699	1356.415	1194.958
-28.867	37.762	1354.844	1193.909
-27.852	37.753	1353.075	1192.253
-26.838	37.666	1351.604	1190.375
-25.823	37.728	1350.183	1189.454
-24.809	37.714	1348.808	1188.109
-23.794	37.774	1347.588	1187.352
-22.779	37.684	1346.097	1185.446
-21.765	37.769	1344.569	1184.572
-20.750	37.778	1343.305	1183.465
-19.736	37.713	1341.682	1181.591
-18.721	37.502	1340.887	1179.565
-17.706	37.574	1339.799	1178.996
-16.692	37.561	1338.451	1177.690
-15.677	37.527	1337.282	1176.404
-14.663	37.507	1336.144	1175.238
-13.648	37.574	1334.866	1174.470
-12.633	37.469	1333.833	1172.883
-11.619	37.583	1333.285	1173.040
-10.604	37.627	1331.963	1172.096
-9.590	37.536	1331.497	1171.094
-8.575	37.610	1329.875	1170.064
-7.560	37.591	1329.326	1169.419
-6.546	37.526	1328.288	1168.070
-5.531	37.478	1327.696	1167.213
-4.517	37.519	1326.681	1166.520
-3.502	37.523	1325.960	1165.869
-2.487	37.570	1324.423	1164.749
-1.473	37.585	1320.962	1161.750
-0.458	36.312	1305.566	1140.645
0.556	30.190	1286.390	1098.087
1.571	26.172	1289.818	1077.005
2.586	25.027	1305.520	1083.102
3.600	24.020	1294.523	1067.844
4.615	16.968	1216.300	963.325
5.629	5.383	1131.828	834.791
6.644	0.036	1107.658	788.900
7.659	-0.409	1104.988	784.601
8.673	-0.491	1103.398	782.972
9.688	-0.565	1102.092	781.590
10.702	-0.234	1100.743	782.292
11.717	5.981	1110.246	821.570
12.731	15.163	1123.177	879.474
13.746	16.996	1124.919	890.388
14.761	15.549	1122.433	880.760
15.775	15.086	1121.655	877.644
16.790	14.775	1120.438	874.987
17.804	14.674	1119.586	873.715
18.819	14.735	1118.842	873.376
19.834	14.556	1118.020	871.719
20.848	14.548	1117.578	871.258
21.863	14.539	1116.973	870.665
22.877	14.488	1116.377	869.857
23.892	14.404	1115.541	868.687
24.907	14.508	1115.108	868.815
25.921	14.601	1113.523	867.990
26.936	14.586	1112.375	866.940
27.950	14.608	1110.407	865.440
28.965	14.536	1108.183	863.262
29.980	14.471	1106.698	861.693
30.994	14.661	1105.135	861.380
32.009	14.639	1103.802	860.148
33.023	14.388	1102.995	858.152
34.038	14.515	1102.124	858.054
35.053	14.653	1101.066	857.862
36.067	14.598	1100.417	856.998
37.082	14.683	1099.060	856.303
38.096	14.853	1098.380	856.569
39.111	14.859	1097.645	855.946
40.126	14.785	1096.006	854.215
41.140	14.530	1094.426	851.607
42.155	14.386	1093.048	849.727
43.169	14.539	1091.727	849.401
44.184	14.521	1090.109	847.977
45.199	14.436	1089.327	846.859
46.213	14.325	1088.542	845.614
47.228	14.459	1086.927	844.965
48.242	14.349	1085.934	843.560
49.257	14.475	1085.059	843.445
50.271	14.504	1083.796	842.532
51.286	14.465	1083.072	841.697
52.301	14.627	1081.698	841.371
53.315	14.483	1080.678	839.779
54.330	14.454	1079.955	839.000
55.344	14.534	1079.018	838.596
56.359	14.530	1077.923	837.653
57.374	14.531	1076.705	836.635
58.388	14.541	1076.094	836.140
59.403	14.565	1074.844	835.211
60.417	14.523	1073.677	834.024
61.432	14.495	1072.889	833.197
62.447	14.574	1072.122	832.923
63.461	14.660	1071.290	832.629
64.476	14.601	1070.610	831.736
65.490	14.538	1069.541	830.518
66.505	14.567	1068.608	829.863
67.520	14.555	1067.849	829.140
68.534	14.423	1067.422	828.080
69.549	14.366	1066.130	826.720
70.563	14.419	1065.200	826.191
71.578	14.456	1064.795	825.988
72.593	14.320	1064.013	824.633
73.607	14.503	1062.790	824.515
74.622	14.596	1062.410	824.608
75.636	14.582	1061.638	823.867
76.651	14.448	1060.718	822.418
77.666	14.351	1059.842	821.190
78.680	14.369	1059.426	820.881
79.695	14.487	1058.656	820.793
80.709	14.554	1057.368	820.055
81.724	14.447	1056.920	819.106
82.739	14.435	1056.340	818.527
83.753	14.631	1055.000	818.376
84.768	14.764	1053.940	818.131
85.782	14.697	1053.041	817.036
86.797	14.548	1052.040	815.457
87.812	14.416	1051.156	814.059
88.826	14.641	1049.954	814.152
89.841	14.623	1049.028	813.270
90.855	14.650	1047.470	812.123
91.870	14.607	1046.830	811.346
92.884	14.548	1045.614	810.046
93.899	14.638	1044.756	809.747
94.914	14.727	1043.628	809.231
95.928	14.620	1042.781	807.988
96.943	14.476	1041.850	806.496
97.957	14.315	1040.393	804.520
98.972	14.148	1039.370	802.850
99.987	14.335	1038.619	803.103
101.001	14.501	1037.981	803.339
102.016	14.619	1036.617	802.777
103.030	14.473	1035.952	801.492
104.045	14.185	1035.170	799.430
105.060	14.104	1033.962	798.037
106.074	14.277	1033.164	798.184
107.089	14.655	1032.300	799.253
108.103	14.712	1031.049	798.488
109.118	14.584	1029.973	796.969
110.133	14.536	1028.956	795.883
111.147	14.449	1027.806	794.513
112.162	14.446	1026.749	793.611
113.176	14.457	1026.246	793.203
114.191	14.530	1024.877	792.421
115.206	14.301	1023.770	790.411
116.220	14.409	1023.003	790.259
117.235	14.574	1021.618	789.898
118.249	14.509	1020.951	789.005
119.264	14.478	1020.206	788.215
120.279	14.472	1019.678	787.710
121.293	14.406	1018.897	786.726
122.308	14.569	1017.758	786.541
123.322	14.565	1015.962	785.066
124.337	14.602	1014.510	784.051
125.352	14.066	1013.091	780.366
126.366	14.054	1011.641	779.128
127.381	14.488	1011.203	780.754
128.395	14.683	1010.636	781.160
129.410	14.802	1009.379	780.672
130.424	14.793	1008.124	779.591
131.439	14.629	1007.328	778.143
132.454	14.631	1006.315	777.300
133.468	14.678	1005.283	776.655
134.483	14.714	1004.963	776.507
135.497	14.835	1003.824	776.120
136.512	14.985	1002.591	775.791
137.527	14.832	1001.827	774.424
138.541	14.868	1000.952	773.845
139.556	14.792	1000.118	772.780
140.570	14.760	999.243	771.886
141.585	14.718	997.818	770.527
142.600	14.759	996.761	769.829
143.614	14.913	995.898	769.803
144.629	14.863	995.432	769.145
145.643	14.798	994.227	767.849
146.658	14.786	992.608	766.473
147.673	14.750	992.246	765.962
148.687	14.744	991.139	765.014
149.702	14.655	990.297	763.890
150.716	14.628	989.499	763.081
151.731	14.668	988.474	762.406
152.746	14.894	987.998	763.003
153.760	15.114	987.344	763.431
154.775	14.911	986.784	762.008
155.789	14.753	985.881	760.524
156.804	14.857	984.836	760.123
157.819	14.909	983.733	759.442
158.833	14.853	983.141	758.663
159.848	14.817	981.986	757.543
160.862	14.724	980.955	756.259
161.877	14.796	980.103	755.858
162.892	14.937	978.953	755.543
163.906	14.960	977.871	754.744
164.921	14.830	976.945	753.376
165.935	14.922	976.083	753.059
166.950	14.867	974.923	751.851
167.964	14.856	974.421	751.349
168.979	14.756	973.017	749.748
169.994	14.795	971.760	748.890
171.008	14.933	971.531	749.263
172.023	14.728	970.396	747.408
173.037	14.608	969.201	745.884
174.052	14.517	968.409	744.801
175.067	14.816	967.958	745.724
176.081	14.808	967.670	745.400
177.096	14.883	966.761	744.968
178.110	14.712	965.888	743.470
179.125	14.606	965.021	742.264
180.140	14.786	964.648	742.712
181.154	14.780	963.801	741.966
182.169	14.832	963.401	741.824
183.183	14.990	962.887	742.063
184.198	15.022	961.611	741.154
185.213	15.006	961.198	740.699
186.227	15.056	960.222	740.103
187.242	14.952	959.343	738.902
188.256	15.025	958.524	738.527
189.271	15.044	958.134	738.247
190.286	14.871	957.115	736.633
191.300	14.693	956.003	734.929
192.315	14.366	954.902	732.578
193.329	14.164	954.667	731.448
194.344	14.494	954.622	732.796
195.359	14.919	953.706	733.893
196.373	14.833	952.955	732.876
197.388	14.522	952.626	731.194
198.402	14.627	951.333	730.597
199.417	14.654	950.948	730.357
200.432	14.480	949.375	728.322
201.446	14.443	948.796	727.654
202.461	14.399	948.249	726.975
203.475	13.998	947.321	724.452
204.490	13.788	945.560	722.126
205.504	14.288	945.597	724.269
206.519	14.601	945.311	725.344
207.534	14.590	945.128	725.094
208.548	14.940	944.799	726.296
209.563	14.739	943.928	724.688
210.577	14.816	942.737	724.047
211.592	15.007	941.792	724.081
212.607	14.889	941.047	722.937
213.621	14.836	940.889	722.519
214.636	14.946	940.176	722.384
215.650	14.937	939.214	721.543
216.665	15.088	938.592	721.651
217.680	15.007	937.540	720.429
218.694	14.632	936.457	717.924
219.709	14.672	935.801	717.527
220.723	14.901	935.318	718.078
221.738	14.986	934.787	717.969
222.753	14.912	934.033	717.010
223.767	14.941	933.375	716.565
224.782	15.067	932.863	716.648
225.796	15.170	932.219	716.533
226.811	14.755	930.830	713.628
227.826	14.526	929.553	711.608
228.840	14.739	929.254	712.226
229.855	14.620	927.730	710.490
230.869	14.460	926.798	709.032
231.884	14.631	926.869	709.749
232.899	15.082	926.710	711.484
233.913	15.154	925.738	710.980
234.928	15.202	925.195	710.702
235.942	15.088	924.794	709.849
236.957	14.955	923.780	708.445
237.972	14.917	922.980	707.608
238.986	15.126	922.098	707.752
240.001	15.103	921.312	706.989
241.015	15.056	921.045	706.521
242.030	15.073	920.417	706.048
243.045	15.226	919.326	705.793
244.059	15.300	918.912	705.724
245.074	15.064	917.758	703.784
246.088	14.881	916.678	702.127
247.103	14.999	916.154	702.157
248.117	15.171	915.889	702.614
249.132	15.123	915.124	701.763
250.147	15.254	914.269	701.593
251.161	15.255	914.030	701.352
252.176	15.276	912.821	700.450
253.190	15.372	912.200	700.316
254.205	15.516	911.492	700.307
255.220	15.534	911.200	700.095
256.234	15.553	910.194	699.343
257.249	15.477	909.108	698.131
258.263	15.439	908.508	697.449
259.278	15.603	907.790	697.518
260.293	15.608	907.106	696.950
261.307	15.296	906.557	695.175
262.322	15.329	905.216	694.218
263.336	14.778	903.935	690.898
264.351	14.130	902.787	687.283
265.366	14.334	901.788	687.305
266.380	15.079	901.901	690.401
267.395	15.256	901.617	690.852
268.409	15.113	900.803	689.579
269.424	15.406	899.962	690.082
270.439	15.374	899.673	689.668
271.453	15.410	899.123	689.333
272.468	15.586	898.485	689.503
273.482	15.595	897.707	688.881
274.497	15.307	896.587	686.781
275.512	15.009	895.983	685.038
276.526	15.382	895.161	685.873
277.541	15.339	894.925	685.457
278.555	15.270	893.471	684.003
279.570	15.256	892.331	683.011
280.585	15.374	891.771	683.005
281.599	15.315	891.290	682.333
282.614	14.974	890.500	680.283
283.628	15.214	889.859	680.707
284.643	15.335	889.363	680.760
285.657	15.109	888.103	678.820
286.672	14.975	887.167	677.500
287.687	15.196	886.851	678.093
288.701	15.278	886.225	677.888
289.716	14.970	885.641	676.135
290.730	14.938	885.228	675.632
291.745	14.865	883.959	674.308
292.760	15.025	883.607	674.626
293.774	15.684	883.364	677.036
294.789	15.911	882.680	677.362
295.803	15.839	882.696	677.026
296.818	15.980	881.929	676.944
297.833	15.648	880.618	674.546
298.847	15.449	880.522	673.614
299.862	15.757	879.922	674.330
300.876	15.913	878.927	674.133
301.891	15.825	878.244	673.196
302.906	15.492	877.068	670.907
303.920	15.348	877.111	670.303
304.935	15.607	876.530	670.834
305.949	15.742	875.575	670.584
306.964	15.843	874.986	670.476
307.979	15.783	874.789	670.027
308.993	16.031	874.126	670.446
310.008	15.971	873.377	669.574
311.022	15.769	872.682	668.179
312.037	15.763	872.209	667.733
313.052	15.710	871.432	666.869
314.066	15.172	870.473	663.947
315.081	15.149	869.723	663.224
316.095	15.686	869.483	665.109
317.110	15.827	869.036	665.265
318.125	15.409	867.914	662.694
319.139	15.041	866.924	660.430
320.154	14.945	866.938	660.002
321.168	15.530	866.341	661.797
322.183	15.692	866.621	662.590
323.197	15.875	865.893	662.694
324.212	15.974	865.698	662.878
325.227	15.971	864.893	662.189
326.241	16.051	864.369	662.043
327.256	15.983	863.589	661.122
328.270	15.942	863.032	660.476
329.285	15.863	862.133	659.420
330.300	15.839	861.300	658.630
331.314	15.890	861.049	658.581
332.329	15.992	860.579	658.560
333.343	15.951	860.158	658.020
334.358	15.913	859.481	657.297
335.373	16.142	858.874	657.667
336.387	16.215	858.587	657.672
337.402	16.145	858.597	657.349
338.416	15.946	858.129	656.157
339.431	16.073	857.369	656.013
340.446	16.060	857.104	655.702
341.460	15.967	857.009	655.210
342.475	15.794	855.995	653.703
343.489	15.898	855.727	653.843
344.504	16.120	855.334	654.347
345.519	16.152	855.077	654.219
346.533	16.357	854.461	654.481
347.548	16.333	854.069	654.032
348.562	16.335	853.485	653.533
349.577	16.363	852.577	652.889
350.592	16.393	852.355	652.779
351.606	16.438	851.625	652.333
352.621	16.282	850.689	650.959
353.635	16.295	849.940	650.377
354.650	16.050	848.331	648.147
355.665	15.524	847.554	645.475
356.679	15.430	847.146	644.744
357.694	15.878	846.500	645.914
358.708	15.868	846.296	645.667
359.723	16.223	845.834	646.616
360.738	16.394	845.011	646.583
361.752	16.266	844.679	645.785
362.767	16.535	843.619	645.944
363.781	16.484	843.605	645.682
364.796	16.587	842.928	645.499
365.810	16.670	842.519	645.446
366.825	16.542	842.342	644.766
367.840	16.319	841.603	643.291
368.854	16.192	840.890	642.207
369.869	16.375	840.102	642.245
370.883	16.413	839.733	642.049
371.898	15.987	839.476	640.175
372.913	16.161	839.125	640.514
373.927	16.442	838.649	641.161
374.942	16.500	838.295	641.054
375.956	16.525	837.679	640.619
376.971	16.530	837.221	640.230
377.986	16.614	836.740	640.124
379.000	16.576	836.180	639.496
380.015	16.544	835.526	638.817
381.029	16.588	834.936	638.475
382.044	16.471	834.207	637.424
383.059	16.545	833.540	637.135
384.073	16.579	833.774	637.384
385.088	16.800	832.647	637.299
386.102	16.617	832.497	636.441
387.117	16.744	831.878	636.385
388.132	16.708	830.661	635.263
389.146	16.265	829.912	632.975
390.161	16.261	829.609	632.672
391.175	16.536	829.147	633.293
392.190	16.326	828.215	631.740
393.205	15.802	827.477	629.163
394.219	15.522	826.516	627.330
395.234	15.307	826.639	626.565
396.248	16.123	826.521	629.468
397.263	16.653	826.887	631.671
398.278	16.806	826.351	631.774
399.292	16.911	825.457	631.426
400.307	16.947	825.118	631.244
401.321	16.891	824.878	630.796
402.336	16.776	824.466	629.997
403.350	16.923	824.160	630.255
404.365	16.962	823.368	629.738
405.380	17.026	823.019	629.655
406.394	16.962	822.249	628.774
407.409	17.039	821.420	628.367
408.423	16.912	821.455	627.867
409.438	16.930	821.299	627.761
410.453	17.195	820.670	628.204
411.467	17.132	820.178	627.539
412.482	17.158	819.542	627.091
413.496	17.338	819.372	627.570
414.511	17.274	819.225	627.168
415.526	17.113	818.704	626.121
416.540	17.021	817.857	625.078
417.555	16.940	816.926	624.013
418.569	16.925	816.900	623.884
419.584	17.014	816.238	623.649
420.599	16.762	815.697	622.255
421.613	150.718	1358.247	1779.512
422.628	131.225	1437.326	1779.633
