DTS Sentinel unit serial number:	SN413079Multiplexer serial number:	ORYXHardware model number:	OX4-SRSoftware version number:	ORYX F/W v4.00 Oryx Data Collector v3.7.2.0data status	okinstallation	princeton_trtdifferential loss correction	single-endedforward channel	channel 1reverse channel	N/Adate	2019/09/18time	20:10:35forward acquisition time	60.00reverse acquisition time	0.00gamma	496.2192k internal	0.2330k external	0.2330temperature offset calibration	1.0034default loss term (dB/km)	0.3790temperature slope calibration	1.0000multiplexer offset coefficient	1.0000multiplexer slope coefficient	1.0000fibre end	0.00T internal ref (°C)	29.61T ext. ref 1 (°C)	0.99T ext. ref 2 (°C)	20.24length (m)	temperature (°C)	Stokes	anti-Stokes-747.200	288.030	0.112	-0.204
-746.185	186.539	-0.050	0.076
-745.171	-18.330	0.307	0.193
-744.156	-11.431	-0.154	-0.102
-743.142	-200.000	0.225	-0.000
-742.127	800.000	0.089	-0.350
-741.112	-54.671	0.312	0.142
-740.098	-72.098	-0.159	0.059
-739.083	800.000	-0.009	0.036
-738.069	133.539	-0.085	-0.110
-737.054	-116.722	0.177	-0.033
-736.039	-119.196	-0.323	-0.057
-735.025	176.157	0.128	-0.188
-734.010	-121.543	0.183	-0.030
-732.996	-200.000	0.073	0.485
-731.981	25.944	-0.239	0.201
-730.966	-0.984	-0.126	-0.089
-729.952	-37.711	-0.280	0.150
-728.937	171.218	-0.369	0.533
-727.923	-155.674	-0.433	0.028
-726.908	71.706	0.255	-0.266
-725.894	-200.000	-0.024	-0.146
-724.879	9.023	-0.162	0.123
-723.864	-105.854	0.371	-0.084
-722.850	-97.533	-0.458	0.120
-721.835	714.652	-0.038	0.101
-720.821	-200.000	-0.004	-0.217
-719.806	25.690	0.231	-0.193
-718.791	-13.352	-0.265	-0.173
-717.777	-195.997	-0.387	-0.003
-716.762	-58.940	-0.070	0.031
-715.748	201.790	-0.094	-0.146
-714.733	130.114	-0.293	-0.377
-713.718	61.682	-0.262	0.262
-712.704	158.523	-0.182	0.254
-711.689	553.435	0.056	0.135
-710.675	219.687	0.276	-0.444
-709.660	-27.877	-0.204	-0.119
-708.645	432.257	0.062	-0.135
-707.631	-1.881	0.070	0.050
-706.616	800.000	-0.037	-0.143
-705.602	-93.821	0.260	-0.072
-704.587	189.110	-0.110	0.165
-703.572	-116.113	0.250	0.047
-702.558	-3.231	0.185	0.130
-701.543	-17.797	-0.137	0.086
-700.529	146.559	0.154	0.208
-699.514	800.000	-0.059	-0.177
-698.499	-108.076	0.269	-0.059
-697.485	-200.000	-0.233	-0.001
-696.470	-71.402	0.079	0.030
-695.456	123.926	-0.295	0.372
-694.441	800.000	0.043	-0.170
-693.426	228.982	0.132	-0.216
-692.412	-23.747	-0.294	-0.177
-691.397	-1.960	0.272	-0.192
-690.383	37.013	0.278	0.247
-689.368	68.799	-0.150	-0.155
-688.354	-124.711	-0.416	-0.065
-687.339	-14.482	-0.110	-0.071
-686.324	197.051	-0.070	-0.108
-685.310	-200.000	-0.051	0.268
-684.295	800.000	-0.168	0.519
-683.281	-124.291	0.122	0.019
-682.266	427.991	-0.183	-0.396
-681.251	-190.292	-0.222	0.002
-680.237	-30.552	-0.294	-0.167
-679.222	0.572	0.415	-0.298
-678.208	-161.469	0.244	-0.013
-677.193	339.816	-0.192	-0.376
-676.178	-91.480	-0.182	0.052
-675.164	-164.755	0.192	0.009
-674.149	-136.934	0.247	0.028
-673.135	284.595	0.094	-0.170
-672.120	-5.424	0.084	-0.058
-671.105	158.802	0.068	-0.095
-670.091	-8.032	0.196	0.133
-669.076	-133.772	-0.030	0.004
-668.062	99.091	0.110	0.127
-667.047	27.464	0.227	-0.192
-666.032	174.545	0.072	0.105
-665.018	75.133	0.129	0.137
-664.003	-200.000	0.005	0.107
-662.989	-34.237	0.172	0.095
-661.974	-73.618	-0.324	0.119
-660.959	283.871	0.157	-0.284
-659.945	24.711	0.051	-0.042
-658.930	-200.000	-0.045	-0.228
-657.916	-49.951	0.135	-0.064
-656.901	337.718	0.165	-0.323
-655.886	110.264	-0.078	0.094
-654.872	107.469	-0.119	-0.141
-653.857	681.656	-0.065	0.169
-652.843	-74.049	-0.238	0.087
-651.828	-87.452	-0.039	0.012
-650.814	-200.000	-0.046	-0.263
-649.799	-50.236	-0.154	0.073
-648.784	-125.011	-0.260	-0.040
-647.770	-54.725	-0.198	-0.090
-646.755	-200.000	0.001	0.522
-645.741	-150.190	-0.350	-0.027
-644.726	-39.043	-0.143	-0.075
-643.711	-110.245	0.139	0.029
-642.697	310.218	0.111	0.209
-641.682	-2.171	-0.316	0.223
-640.668	-13.829	-0.210	0.136
-639.653	800.000	-0.047	-0.202
-638.638	169.957	0.173	-0.248
-637.624	-27.925	0.280	0.162
-636.609	319.814	-0.116	-0.220
-635.595	414.388	-0.054	-0.116
-634.580	129.462	0.144	-0.185
-633.565	143.893	-0.172	-0.230
-632.551	753.818	0.093	0.251
-631.536	66.693	-0.196	0.199
-630.522	-120.331	0.344	0.059
-629.507	215.605	-0.087	-0.138
-628.492	-160.162	-0.425	-0.023
-627.478	-200.000	0.031	-0.213
-626.463	10.720	0.087	-0.066
-625.449	26.070	0.154	0.129
-624.434	-172.834	-0.197	-0.006
-623.419	-200.000	0.049	0.385
-622.405	800.000	0.065	0.206
-621.390	381.034	-0.085	-0.175
-620.376	533.925	-0.100	-0.236
-619.361	-200.000	0.018	-0.199
-618.346	137.520	0.099	0.130
-617.332	-200.000	0.030	-0.251
-616.317	-29.187	-0.077	0.044
-615.303	-58.375	-0.208	-0.091
-614.288	-200.000	0.038	-0.235
-613.273	-149.592	0.372	-0.029
-612.259	-120.284	-0.090	0.015
-611.244	116.792	-0.128	0.158
-610.230	800.000	0.066	-0.218
-609.215	-96.928	0.329	0.086
-608.201	-35.759	-0.161	-0.087
-607.186	-117.132	0.289	-0.053
-606.171	650.960	-0.115	0.294
-605.157	364.704	-0.098	0.198
-604.142	449.168	0.097	-0.214
-603.128	4.252	-0.182	0.133
-602.113	-148.630	0.208	0.017
-601.098	800.000	-0.109	0.389
-600.084	4.636	-0.306	0.225
-599.069	387.308	0.054	-0.111
-598.055	-84.382	0.225	-0.071
-597.040	800.000	0.047	0.161
-596.025	-100.063	-0.125	0.031
-595.011	-11.832	-0.276	0.181
-593.996	33.191	-0.104	0.090
-592.982	255.791	0.144	-0.248
-591.967	-129.320	0.188	0.026
-590.952	108.908	-0.167	-0.200
-589.938	212.381	-0.097	0.154
-588.923	372.812	0.026	-0.054
-587.909	-200.000	0.006	-0.166
-586.894	800.000	-0.032	-0.093
-585.879	-86.112	-0.178	0.055
-584.865	-43.168	0.087	0.044
-583.850	298.714	0.127	-0.234
-582.836	435.208	-0.095	-0.206
-581.821	185.620	-0.306	0.455
-580.806	-200.000	-0.351	0.001
-579.792	474.578	-0.041	-0.092
-578.777	-187.721	0.192	-0.003
-577.763	65.419	0.154	-0.156
-576.748	-18.928	0.256	-0.159
-575.733	-63.828	-0.132	-0.054
-574.719	-200.000	-0.009	0.425
-573.704	-167.019	-0.216	-0.009
-572.690	800.000	-0.052	-0.213
-571.675	14.956	0.104	-0.082
-570.661	245.465	0.106	0.179
-569.646	-139.465	0.107	0.012
-568.631	-114.666	-0.219	0.042
-567.617	318.099	0.038	-0.072
-566.602	-200.000	0.088	0.506
-565.588	187.139	-0.029	0.044
-564.573	10.342	-0.268	-0.204
-563.558	166.404	0.292	0.414
-562.544	-30.827	0.286	-0.162
-561.529	162.021	-0.124	0.174
-560.515	21.612	-0.253	0.206
-559.500	516.780	0.124	-0.290
-558.485	800.000	-0.007	-0.027
-557.471	245.466	-0.029	-0.048
-556.456	262.137	-0.084	0.145
-555.442	243.406	0.103	0.172
-554.427	-136.830	-0.102	0.012
-553.412	-56.803	-0.484	-0.214
-552.398	-200.000	-0.027	-0.228
-551.383	-128.176	0.230	0.033
-550.369	0.056	-0.208	0.148
-549.354	0.513	-0.196	-0.140
-548.339	-121.428	-0.104	-0.017
-547.325	-61.832	0.152	-0.064
-546.310	-200.000	-0.012	-0.103
-545.296	269.318	-0.082	0.144
-544.281	-80.585	0.160	0.053
-543.266	-20.198	-0.104	0.064
-542.252	-12.539	0.148	0.096
-541.237	633.778	0.115	-0.292
-540.223	398.599	0.041	0.085
-539.208	800.000	0.079	-0.220
-538.193	-88.367	0.106	-0.032
-537.179	-48.338	0.068	0.033
-536.164	362.836	0.087	-0.174
-535.150	128.151	-0.062	-0.079
-534.135	800.000	0.052	0.158
-533.121	-63.737	0.112	-0.046
-532.106	-68.571	0.244	0.094
-531.091	282.136	-0.043	0.078
-530.077	32.008	0.168	0.145
-529.062	-65.193	0.081	-0.033
-528.048	800.000	0.097	-0.327
-527.033	-69.695	-0.110	-0.042
-526.018	250.299	-0.057	-0.096
-525.004	354.879	0.102	0.202
-523.989	-187.040	-0.162	-0.002
-522.975	22.740	0.089	0.073
-521.960	81.796	-0.124	-0.134
-520.945	-200.000	0.089	-0.397
-519.931	-200.000	0.086	0.425
-518.916	-200.000	-0.008	0.287
-517.902	27.519	0.217	0.182
-516.887	800.000	-0.050	0.182
-515.872	-140.703	-0.349	0.036
-514.858	179.182	-0.062	-0.090
-513.843	-200.000	-0.003	-0.146
-512.829	800.000	-0.062	0.194
-511.814	800.000	0.057	0.162
-510.799	64.608	-0.066	-0.066
-509.785	-200.000	-0.054	0.286
-508.770	63.918	0.188	-0.189
-507.756	655.553	-0.182	-0.466
-506.741	-19.563	0.403	-0.249
-505.726	-200.000	-0.053	-0.258
-504.712	-200.000	-0.017	-0.085
-503.697	-87.193	0.036	-0.011
-502.683	70.810	-0.149	0.154
-501.668	97.367	-0.099	-0.114
-500.653	211.914	-0.208	0.327
-499.639	-54.312	0.272	-0.123
-498.624	-200.000	0.013	-0.282
-497.610	-126.529	0.362	-0.054
-496.595	66.055	-0.136	-0.137
-495.581	-40.391	-0.258	0.134
-494.566	-200.000	0.012	-0.053
-493.551	-200.000	0.019	-0.321
-492.537	-0.724	0.254	0.180
-491.522	80.301	-0.185	0.199
-490.508	-200.000	-0.013	0.128
-489.493	-74.192	0.292	0.105
-488.478	244.963	0.049	0.083
-487.464	-74.550	0.114	-0.041
-486.449	111.965	0.320	0.385
-485.435	-85.455	-0.370	0.115
-484.420	7.504	0.231	-0.172
-483.405	-65.615	-0.147	-0.059
-482.391	352.248	0.209	-0.412
-481.376	-127.302	0.485	-0.070
-480.362	85.599	-0.092	-0.100
-479.347	-152.279	-0.227	0.016
-478.332	63.488	0.227	-0.227
-477.318	-38.117	0.224	-0.118
-476.303	-78.917	-0.081	0.027
-475.289	800.000	0.096	0.265
-474.274	-163.732	-0.223	0.010
-473.259	90.480	-0.221	0.246
-472.245	-200.000	-0.051	0.274
-471.230	-146.366	0.112	0.010
-470.216	37.492	0.128	0.113
-469.201	-29.014	-0.047	-0.027
-468.186	652.998	0.116	0.296
-467.172	84.836	-0.130	0.142
-466.157	-200.000	-0.018	-0.205
-465.143	334.869	-0.012	-0.024
-464.128	-61.325	0.062	-0.026
-463.113	-200.000	0.034	-0.281
-462.099	-154.097	-0.131	0.009
-461.084	-160.627	0.375	0.020
-460.070	-200.000	-0.014	-0.445
-459.055	-81.723	-0.013	-0.004
-458.040	113.890	0.026	0.032
-457.026	224.052	-0.241	-0.387
-456.011	-200.000	0.032	-0.270
-454.997	-182.144	0.119	0.002
-453.982	-61.125	-0.202	0.085
-452.968	145.030	0.190	0.252
-451.953	266.427	-0.111	-0.193
-450.938	-18.054	0.099	-0.062
-449.924	-39.601	0.227	-0.118
-448.909	70.895	-0.092	0.095
-447.895	800.000	0.072	0.245
-446.880	-132.838	-0.215	-0.027
-445.865	5.463	0.086	-0.063
-444.851	297.661	-0.281	-0.513
-443.836	-106.976	-0.033	-0.007
-442.822	800.000	0.012	0.042
-441.807	-30.447	0.229	0.129
-440.792	-134.459	-0.094	0.011
-439.778	-56.642	0.328	-0.145
-438.763	-99.908	0.072	-0.018
-437.749	-200.000	-0.075	0.367
-436.734	588.600	-0.063	0.153
-435.719	-68.256	-0.192	-0.074
-434.705	-200.000	0.039	0.219
-433.690	194.655	0.007	0.010
-432.676	-126.498	0.181	-0.027
-431.661	-34.135	-0.249	-0.136
-430.646	-115.187	-0.200	-0.038
-429.632	-159.167	-0.290	0.016
-428.617	172.058	-0.272	-0.389
-427.603	-171.657	-0.229	0.007
-426.588	-108.435	-0.122	-0.026
-425.573	59.918	-0.332	0.326
-424.559	46.084	0.327	-0.301
-423.544	-200.000	0.036	0.428
-422.530	210.482	-0.172	0.269
-421.515	800.000	0.125	0.465
-420.500	800.000	0.040	0.131
-419.486	109.847	0.037	0.045
-418.471	800.000	0.025	0.083
-417.457	-47.844	-0.302	0.146
-416.442	124.232	0.095	-0.118
-415.428	-43.112	-0.226	0.114
-414.413	-200.000	-0.005	0.071
-413.398	8.826	0.112	-0.084
-412.384	106.640	-0.271	-0.320
-411.369	-200.000	0.026	0.240
-410.355	444.233	-0.114	0.248
-409.340	-200.000	-0.051	0.334
-408.325	194.515	0.211	0.317
-407.311	429.760	-0.157	-0.338
-406.296	800.000	0.091	-0.348
-405.282	148.005	-0.202	-0.271
-404.267	67.037	0.194	0.196
-403.252	-103.521	-0.137	-0.032
-402.238	758.484	-0.145	-0.389
-401.223	-93.244	-0.129	0.036
-400.209	-137.456	-0.184	0.021
-399.194	-123.483	-0.200	-0.032
-398.179	-44.456	0.339	-0.169
-397.165	-200.000	0.016	-0.261
-396.150	13.849	-0.128	-0.099
-395.136	-99.453	0.110	-0.027
-394.121	-124.825	0.144	-0.022
-393.106	-200.000	-0.021	0.107
-392.092	603.069	-0.121	0.299
-391.077	244.132	-0.171	0.285
-390.063	43.563	-0.252	0.228
-389.048	-25.885	0.077	0.045
-388.033	-72.149	0.370	-0.136
-387.019	800.000	0.021	-0.060
-386.004	-200.000	0.032	0.255
-384.990	-133.535	0.347	0.043
-383.975	22.190	-0.291	-0.236
-382.960	-176.475	-0.350	0.009
-381.946	23.447	-0.135	-0.110
-380.931	800.000	-0.106	0.346
-379.917	700.451	-0.074	0.194
-378.902	104.842	0.137	-0.161
-377.888	800.000	0.066	-0.188
-376.873	-155.111	0.435	0.028
-375.858	209.370	0.073	0.114
-374.844	223.256	0.122	-0.194
-373.829	800.000	0.063	-0.206
-372.815	-200.000	0.035	0.231
-371.800	180.916	0.056	0.082
-370.785	565.029	-0.134	-0.322
-369.771	-165.538	0.282	-0.012
-368.756	-200.000	-0.027	0.224
-367.742	604.686	0.047	0.116
-366.727	-18.519	-0.163	-0.101
-365.712	-157.666	0.346	0.020
-364.698	-158.521	0.100	-0.006
-363.683	-200.000	0.046	0.339
-362.669	-200.000	0.003	-0.019
-361.654	7.575	0.368	0.273
-360.639	-143.652	0.180	-0.017
-359.625	-37.788	0.295	0.156
-358.610	249.235	-0.257	-0.433
-357.596	-42.470	-0.268	0.135
-356.581	-200.000	0.034	0.241
-355.566	-200.000	-0.019	0.222
-354.552	-91.216	-0.207	0.059
-353.537	-200.000	0.056	0.283
-352.523	65.074	0.223	-0.224
-351.508	130.128	0.062	0.078
-350.493	-191.308	-0.360	-0.004
-349.479	-200.000	0.027	0.476
-348.464	88.590	-0.122	-0.134
-347.450	-74.716	0.136	-0.049
-346.435	166.068	0.038	0.053
-345.420	129.388	-0.092	-0.117
-344.406	-200.000	0.088	-0.509
-343.391	-41.208	0.286	-0.146
-342.377	-129.457	-0.273	0.037
-341.362	800.000	-0.069	-0.252
-340.348	-68.825	0.365	0.140
-339.333	54.694	0.221	-0.211
-338.318	700.389	-0.036	-0.094
-337.304	22.898	0.601	-0.488
-336.289	-125.310	0.297	0.045
-335.275	35.517	-0.199	-0.173
-334.260	-49.281	-0.124	0.059
-333.245	-28.577	0.079	-0.045
-332.231	800.000	0.125	0.402
-331.216	-200.000	0.001	-0.322
-330.202	-200.000	0.014	0.097
-329.187	140.776	-0.022	0.029
-328.172	73.848	-0.299	-0.311
-327.158	-15.820	0.123	-0.078
-326.143	-97.272	-0.108	-0.028
-325.129	800.000	0.055	0.166
-324.114	-82.657	-0.260	0.083
-323.099	800.000	-0.068	0.229
-322.085	89.436	0.110	-0.122
-321.070	123.912	-0.220	-0.274
-320.056	-200.000	-0.016	-0.160
-319.041	-98.178	0.081	0.021
-318.026	488.669	-0.031	0.070
-317.012	-34.227	0.201	-0.109
-315.997	595.222	-0.082	-0.200
-314.983	-200.000	0.016	-0.251
-313.968	-200.000	0.008	-0.085
-312.953	-109.486	-0.145	0.030
-311.939	-172.709	-0.098	-0.003
-310.924	-134.096	-0.154	-0.019
-309.910	13.714	0.250	-0.192
-308.895	353.023	-0.048	-0.094
-307.880	-45.609	0.240	-0.118
-306.866	63.714	-0.169	-0.168
-305.851	800.000	0.012	-0.050
-304.837	-67.262	-0.235	0.091
-303.822	-200.000	0.063	-0.333
-302.807	800.000	0.053	0.179
-301.793	-200.000	-0.005	-0.075
-300.778	800.000	-0.026	-0.079
-299.764	364.709	0.028	-0.055
-298.749	-133.173	0.219	0.027
-297.735	800.000	0.118	0.335
-296.720	157.706	-0.038	0.052
-295.705	28.574	-0.171	-0.143
-294.691	277.552	-0.040	0.071
-293.676	800.000	-0.041	0.166
-292.662	29.983	-0.113	0.095
-291.647	-124.384	-0.305	0.047
-290.632	-72.763	0.397	-0.145
-289.618	-200.000	0.003	-0.168
-288.603	-116.171	-0.346	-0.064
-287.589	125.995	-0.135	-0.169
-286.574	-26.775	0.494	0.285
-285.559	-112.856	-0.316	-0.062
-284.545	-61.223	-0.197	0.082
-283.530	-137.721	0.299	0.033
-282.516	-32.839	-0.186	0.102
-281.501	-4.033	0.221	-0.152
-280.486	-83.043	0.172	-0.055
-279.472	-200.000	0.010	-0.058
-278.457	-152.525	-0.230	0.016
-277.443	52.700	0.202	0.191
-276.428	653.888	0.155	0.393
-275.413	45.549	0.088	-0.080
-274.399	301.719	-0.100	0.183
-273.384	8.533	0.115	0.086
-272.370	-7.709	0.182	-0.122
-271.355	37.717	-0.233	-0.205
-270.340	132.446	0.126	-0.160
-269.326	800.000	-0.041	0.129
-268.311	-141.526	0.269	0.027
-267.297	562.157	-0.026	-0.062
-266.282	407.408	-0.131	0.275
-265.267	-149.353	-0.244	-0.019
-264.253	-52.530	0.106	0.049
-263.238	-111.372	-0.031	-0.006
-262.224	42.113	0.144	0.129
-261.209	-43.097	0.213	0.107
-260.195	-84.353	-0.468	0.146
-259.180	172.919	0.142	0.201
-258.165	-42.563	-0.427	0.215
-257.151	-200.000	0.386	0.001
-256.136	260.612	0.026	0.044
-255.122	800.000	0.082	-0.269
-254.107	800.000	-0.035	0.118
-253.092	-97.410	0.191	0.049
-252.078	328.477	-0.110	-0.209
-251.063	-121.164	-0.266	-0.044
-250.049	173.817	-0.105	0.149
-249.034	401.454	0.064	-0.132
-248.019	-77.805	-0.300	-0.102
-247.005	598.273	0.025	-0.060
-245.990	293.839	-0.129	-0.232
-244.976	94.567	0.150	-0.169
-243.961	-63.349	0.126	0.051
-242.946	400.295	0.058	0.120
-241.932	800.000	-0.075	-0.302
-240.917	-0.823	0.184	0.129
-239.903	-48.422	0.117	-0.056
-238.888	-108.553	0.289	-0.061
-237.873	-2.372	-0.151	0.104
-236.859	-22.240	-0.118	-0.071
-235.844	51.653	-0.161	0.152
-234.830	-5.429	0.134	0.091
-233.815	14.378	0.046	0.036
-232.800	800.000	0.059	0.171
-231.786	-200.000	0.050	-0.223
-230.771	-108.503	0.376	-0.080
-229.757	800.000	0.004	0.010
-228.742	-31.336	-0.090	-0.050
-227.727	-200.000	0.024	-0.112
-226.713	308.636	-0.028	-0.051
-225.698	-200.000	0.012	-0.435
-224.684	68.051	-0.087	-0.088
-223.669	58.957	0.193	0.188
-222.655	-29.441	-0.105	-0.059
-221.640	-103.653	0.220	-0.051
-220.625	-2.355	0.232	-0.160
-219.611	625.152	0.122	-0.303
-218.596	-101.670	0.221	0.053
-217.582	101.195	-0.164	-0.188
-216.567	275.329	0.035	0.060
-215.552	-65.007	-0.353	-0.141
-214.538	800.000	-0.115	-0.357
-213.523	-19.733	-0.062	-0.038
-212.509	48.094	-0.105	0.097
-211.494	-25.439	0.188	0.110
-210.479	236.838	0.161	0.263
-209.465	25.815	-0.114	-0.093
-208.450	126.048	-0.064	-0.080
-207.436	28.171	-0.240	-0.200
-206.421	-6.018	0.178	0.120
-205.406	-79.371	0.194	-0.065
-204.392	-102.079	0.133	0.032
-203.377	-16.934	0.254	0.158
-202.363	800.000	-0.124	0.352
-201.348	399.620	0.107	-0.221
-200.333	-200.000	-0.055	0.274
-199.319	119.876	0.134	0.164
-198.304	-95.993	-0.208	-0.055
-197.290	185.655	0.191	-0.280
-196.275	-108.130	0.279	0.060
-195.260	-58.830	-0.240	0.102
-194.246	-200.000	-0.001	0.192
-193.231	-72.354	-0.281	0.102
-192.217	113.427	0.142	0.170
-191.202	28.410	-0.139	-0.116
-190.187	183.434	-0.277	0.403
-189.173	-143.044	-0.299	0.028
-188.158	-167.706	0.010	0.000
-187.144	37.139	0.203	0.177
-186.129	-56.309	-0.226	-0.099
-185.114	800.000	-0.068	0.260
-184.100	-200.000	-0.038	0.207
-183.085	-200.000	-0.001	-0.072
-182.071	800.000	0.080	0.270
-181.056	-28.440	0.136	0.077
-180.042	800.000	0.064	0.181
-179.027	-118.831	-0.186	0.032
-178.012	-97.744	-0.100	0.025
-176.998	-200.000	-0.001	-0.041
-175.983	-35.352	-0.214	-0.115
-174.969	148.743	0.180	-0.240
-173.954	258.700	-0.129	-0.220
-172.939	-45.903	0.137	0.066
-171.925	-200.000	-0.008	0.241
-170.910	102.422	0.113	-0.130
-169.896	-50.578	0.237	-0.110
-168.881	532.530	-0.086	-0.199
-167.866	-60.372	-0.093	0.039
-166.852	273.018	-0.048	0.083
-165.837	103.863	0.025	0.029
-164.823	17.267	-0.055	-0.043
-163.808	132.136	0.340	-0.431
-162.793	-200.000	-0.024	0.238
-161.779	157.410	0.155	0.211
-160.764	-200.000	-0.012	-0.056
-159.750	-37.626	-0.089	-0.047
-158.735	-200.000	-0.044	0.361
-157.720	-200.000	0.029	0.126
-156.706	363.470	-0.058	0.115
-155.691	181.064	-0.128	-0.185
-154.677	39.830	0.222	0.196
-153.662	-104.240	-0.471	-0.108
-152.647	-200.000	0.025	-0.155
-151.633	72.173	0.217	-0.223
-150.618	-84.482	-0.200	-0.062
-149.604	-152.159	0.215	-0.015
-148.589	-113.258	0.190	-0.037
-147.574	54.337	-0.116	-0.110
-146.560	219.491	0.144	0.226
-145.545	-92.365	0.150	-0.042
-144.531	10.340	0.218	0.163
-143.516	-62.652	-0.296	-0.121
-142.502	21.082	-0.100	-0.080
-141.487	-200.000	-0.012	-0.235
-140.472	-200.000	-0.003	-0.116
-139.458	800.000	0.028	0.099
-138.443	770.896	-0.041	-0.110
-137.429	-87.342	-0.329	0.098
-136.414	75.470	0.024	-0.025
-135.399	206.473	0.058	-0.088
-134.385	254.593	0.044	0.075
-133.370	-165.293	0.194	-0.008
-132.356	725.784	0.063	0.164
-131.341	26.091	-0.179	-0.147
-130.326	42.863	0.132	0.119
-129.312	-58.076	0.133	-0.057
-128.297	-57.780	-0.134	0.057
-127.283	-72.949	-0.117	-0.042
-126.268	126.746	0.096	0.120
-125.253	-27.621	0.186	0.106
-124.239	-169.460	-0.285	-0.010
-123.224	800.000	0.069	0.255
-122.210	800.000	-0.032	-0.111
-121.195	58.062	0.085	-0.082
-120.180	87.958	0.244	0.266
-119.166	84.201	-0.221	-0.237
-118.151	-200.000	0.016	-0.079
-117.137	-200.000	0.018	-0.107
-116.122	164.114	0.152	-0.210
-115.107	359.670	0.120	-0.236
-114.093	484.350	-0.104	-0.233
-113.078	199.117	0.028	-0.042
-112.064	-200.000	-0.067	0.383
-111.049	428.378	0.083	0.175
-110.034	116.733	0.253	-0.305
-109.020	800.000	-0.047	0.139
-108.005	-120.256	-0.184	0.031
-106.991	474.174	-0.049	0.108
-105.976	-49.200	0.174	0.082
-104.962	800.000	0.059	-0.179
-103.947	-158.999	-0.184	-0.010
-102.932	85.517	0.020	0.021
-101.918	-108.728	0.259	-0.054
-100.903	-180.815	0.234	-0.005
-99.889	283.221	0.033	0.059
-98.874	51.090	-0.027	-0.025
-97.859	27.226	-0.334	0.276
-96.845	800.000	0.049	-0.174
-95.830	-1.801	0.129	0.089
-94.816	27.036	-0.168	0.138
-93.801	13.207	-0.230	0.175
-92.786	-200.000	0.001	-0.278
-91.772	-96.754	-0.254	-0.066
-90.757	800.000	-0.050	-0.151
-89.743	-200.000	-0.005	0.089
-88.728	322.505	0.152	0.285
-87.713	-200.000	-0.013	0.220
-86.699	755.272	-0.052	-0.138
-85.684	53.909	-0.192	-0.181
-84.670	800.000	-0.041	0.169
-83.655	800.000	-0.106	0.410
-82.640	145.310	-0.074	0.097
-81.626	-200.000	-0.033	0.154
-80.611	271.721	0.259	-0.448
-79.597	-200.000	-0.009	0.205
-78.582	-46.646	0.272	0.131
-77.567	-134.291	0.316	-0.038
-76.553	800.000	0.028	-0.084
-75.538	73.781	0.228	0.234
-74.524	229.175	-0.063	0.101
-73.509	-200.000	0.023	-0.234
-72.494	34.771	0.064	0.055
-71.480	108.726	0.073	0.086
-70.465	237.066	0.120	0.196
-69.451	435.844	-0.122	0.261
-68.436	-183.877	-0.067	0.001
-67.422	-161.000	-0.199	0.010
-66.407	-200.000	-0.015	-0.208
-65.392	-10.734	0.100	0.065
-64.378	578.005	0.079	-0.188
-63.363	-200.000	-0.000	0.210
-62.349	800.000	-0.057	-0.158
-61.334	68.471	-1.081	-1.086
-60.319	3.430	0.767	0.548
-59.305	575.928	-0.417	-0.999
-58.290	481.100	0.443	0.985
-57.276	492.119	0.674	1.514
-56.261	-200.000	110.421	686.321
-55.246	515.420	1483.680	3395.226
-54.232	150.098	2650.402	3523.216
-53.217	110.973	2145.590	2531.017
-52.203	41.476	1605.535	1423.721
-51.188	33.063	1352.156	1148.145
-50.173	30.136	1312.793	1097.379
-49.159	59.030	1367.080	1317.482
-48.144	59.653	1382.376	1335.902
-47.130	33.369	1337.918	1137.716
-46.115	29.666	1320.987	1101.253
-45.100	29.552	1315.955	1096.337
-44.086	29.562	1313.277	1094.120
-43.071	29.434	1311.453	1091.805
-42.057	29.344	1309.471	1089.578
-41.042	29.475	1307.405	1088.587
-40.027	29.639	1305.164	1087.646
-39.013	29.504	1304.269	1086.059
-37.998	29.575	1301.911	1084.469
-36.984	29.505	1300.313	1082.688
-35.969	29.651	1298.574	1082.051
-34.954	29.670	1296.550	1080.430
-33.940	29.599	1295.837	1079.379
-32.925	29.736	1294.138	1078.722
-31.911	29.624	1292.786	1076.900
-30.896	29.673	1291.354	1075.951
-29.881	29.752	1290.082	1075.305
-28.867	29.742	1288.766	1074.110
-27.852	29.751	1287.064	1072.697
-26.838	29.743	1286.221	1071.907
-25.823	29.829	1284.530	1070.953
-24.809	29.664	1283.562	1069.148
-23.794	29.601	1282.401	1067.779
-22.779	29.776	1280.382	1067.063
-21.765	29.753	1279.264	1065.958
-20.750	29.712	1277.767	1064.433
-19.736	29.663	1276.419	1062.982
-18.721	29.640	1275.417	1061.975
-17.706	29.589	1274.595	1060.957
-16.692	29.542	1273.686	1059.885
-15.677	29.560	1272.076	1058.610
-14.663	29.532	1271.548	1057.964
-13.648	29.485	1270.246	1056.570
-12.633	29.537	1269.350	1056.079
-11.619	29.463	1268.527	1054.934
-10.604	29.484	1267.710	1054.332
-9.590	29.509	1266.753	1053.634
-8.575	29.513	1266.090	1053.066
-7.560	29.574	1264.778	1052.282
-6.546	29.491	1264.249	1051.323
-5.531	29.506	1263.282	1050.562
-4.517	29.574	1262.024	1049.864
-3.502	29.586	1261.079	1049.102
-2.487	29.582	1260.521	1048.573
-1.473	29.404	1255.903	1043.685
-0.458	27.054	1239.585	1016.946
0.556	21.621	1220.285	969.184
1.571	16.779	1224.180	945.241
2.586	15.348	1238.855	948.405
3.600	15.023	1226.783	937.257
4.615	11.442	1155.904	864.104
5.629	4.674	1083.408	776.155
6.644	1.344	1064.190	745.980
7.659	0.862	1062.604	742.439
8.673	0.880	1061.447	741.655
9.688	0.885	1060.676	741.075
10.702	1.159	1058.323	740.703
11.717	5.160	1063.084	763.568
12.731	12.430	1072.966	806.382
13.746	16.824	1077.922	831.647
14.761	17.663	1078.848	836.405
15.775	16.968	1076.720	831.276
16.790	15.864	1075.029	824.495
17.804	15.108	1073.427	819.494
18.819	14.924	1071.940	817.388
19.834	14.505	1071.450	814.893
20.848	14.307	1070.623	813.228
21.863	14.067	1069.586	811.194
22.877	14.005	1068.509	810.006
23.892	13.959	1067.913	809.257
24.907	13.966	1067.099	808.602
25.921	14.003	1066.435	808.207
26.936	14.001	1065.836	807.675
27.950	14.108	1064.251	806.920
28.965	14.032	1063.473	805.888
29.980	14.081	1062.193	805.084
30.994	13.973	1061.397	803.891
32.009	14.207	1060.101	803.967
33.023	14.078	1058.994	802.433
34.038	14.137	1057.971	801.871
35.053	14.100	1057.334	801.139
36.067	14.045	1056.707	800.328
37.082	14.016	1055.701	799.356
38.096	14.136	1054.729	799.126
39.111	14.027	1054.213	798.140
40.126	13.950	1053.008	796.788
41.140	13.955	1051.749	795.793
42.155	14.019	1050.360	794.974
43.169	13.986	1049.316	793.959
44.184	14.003	1048.458	793.320
45.199	13.767	1048.090	791.844
46.213	13.943	1046.572	791.467
47.228	13.982	1045.528	790.793
48.242	13.890	1044.817	789.748
49.257	13.953	1043.440	788.933
50.271	13.977	1042.583	788.329
51.286	14.073	1041.699	788.047
52.301	14.118	1040.461	787.253
53.315	14.027	1039.818	786.268
54.330	13.893	1039.061	784.995
55.344	13.938	1037.972	784.315
56.359	14.001	1037.113	783.892
57.374	13.940	1036.040	782.723
58.388	13.949	1035.597	782.364
59.403	13.961	1034.207	781.301
60.417	13.884	1033.834	780.585
61.432	13.880	1032.916	779.805
62.447	13.799	1032.091	778.732
63.461	13.977	1030.818	778.540
64.476	13.903	1030.262	777.705
65.490	13.845	1029.740	776.971
66.505	13.751	1029.001	775.905
67.520	13.915	1027.731	775.643
68.534	13.868	1027.580	775.242
69.549	13.899	1026.516	774.512
70.563	13.813	1025.900	773.580
71.578	13.772	1025.212	772.801
72.593	13.785	1024.439	772.210
73.607	13.890	1023.386	771.840
74.622	13.955	1022.639	771.510
75.636	13.934	1021.728	770.654
76.651	13.772	1021.686	769.804
77.666	13.803	1020.918	769.301
78.680	13.954	1019.968	769.215
79.695	13.852	1019.896	768.620
80.709	13.911	1018.947	768.110
81.724	13.793	1018.682	767.296
82.739	14.000	1017.472	767.274
83.753	14.022	1016.559	766.619
84.768	14.133	1016.103	766.718
85.782	14.186	1014.599	765.759
86.797	14.226	1013.825	765.292
87.812	14.055	1013.140	763.920
88.826	13.978	1012.448	762.976
89.841	14.040	1011.384	762.392
90.855	14.126	1010.278	761.888
91.870	14.081	1009.702	761.177
92.884	13.999	1009.090	760.277
93.899	14.145	1007.903	759.981
94.914	14.174	1007.327	759.613
95.928	14.149	1006.211	758.587
96.943	14.121	1005.221	757.648
97.957	14.057	1004.615	756.833
98.972	14.130	1003.632	756.358
99.987	14.102	1002.693	755.456
101.001	14.073	1001.753	754.549
102.016	13.976	1001.030	753.499
103.030	14.195	1000.143	753.753
104.045	14.152	999.321	752.874
105.060	14.129	998.492	752.080
106.074	13.920	998.000	750.695
107.089	13.856	996.658	749.335
108.103	14.112	995.772	749.756
109.118	13.996	994.654	748.323
110.133	13.953	993.825	747.440
111.147	14.088	993.060	747.407
112.162	14.104	991.926	746.558
113.176	14.019	991.287	745.632
114.191	14.070	990.779	745.411
115.206	14.246	989.499	745.169
116.220	14.238	988.593	744.387
117.235	14.033	987.980	742.943
118.249	14.083	987.217	742.528
119.264	14.027	986.657	741.789
120.279	13.978	985.845	740.892
121.293	14.159	984.760	740.818
122.308	14.046	984.098	739.751
123.322	13.989	982.986	738.598
124.337	14.095	981.815	738.122
125.352	14.016	980.851	736.984
126.366	13.985	979.873	736.043
127.381	14.038	978.675	735.316
128.395	13.975	977.978	734.447
129.410	14.108	976.847	734.122
130.424	14.024	976.251	733.239
131.439	14.154	975.283	733.017
132.454	14.219	974.353	732.543
133.468	14.078	973.781	731.425
134.483	14.107	972.961	730.874
135.497	14.078	972.155	730.073
136.512	14.046	971.250	729.192
137.527	14.070	970.509	728.674
138.541	14.185	969.232	728.157
139.556	14.074	969.202	727.582
140.570	14.149	968.335	727.194
141.585	14.348	967.448	727.335
142.600	14.306	966.519	726.389
143.614	14.333	965.776	725.882
144.629	14.248	965.202	725.018
145.643	14.227	964.177	724.090
146.658	14.164	963.152	722.982
147.673	14.280	962.121	722.648
148.687	14.210	960.968	721.414
149.702	14.220	960.339	720.925
150.716	14.151	960.190	720.450
151.731	14.083	959.364	719.471
152.746	14.172	958.526	719.164
153.760	14.280	957.852	719.059
154.775	14.166	957.235	718.044
155.789	14.249	956.041	717.439
156.804	14.346	955.840	717.645
157.819	14.276	955.316	716.886
158.833	14.392	954.450	716.673
159.848	14.241	953.625	715.340
160.862	14.436	952.305	715.122
161.877	14.389	951.476	714.237
162.892	14.229	950.651	712.866
163.906	14.304	949.963	712.609
164.921	14.249	949.046	711.625
165.935	14.405	948.233	711.617
166.950	14.410	947.402	710.951
167.964	14.349	946.882	710.237
168.979	14.433	945.658	709.618
169.994	14.471	944.714	709.004
171.008	14.413	944.205	708.316
172.023	14.459	943.577	707.976
173.037	14.555	942.445	707.471
174.052	14.646	941.657	707.202
175.067	14.540	941.379	706.482
176.081	14.382	941.115	705.554
177.096	14.498	939.850	705.031
178.110	14.590	939.389	705.012
179.125	14.476	938.992	704.170
180.140	14.430	938.667	703.672
181.154	14.586	938.050	703.806
182.169	14.541	937.793	703.360
183.183	14.681	937.204	703.446
184.198	14.681	935.918	702.418
185.213	14.674	934.984	701.624
186.227	14.604	934.681	701.041
187.242	14.750	933.818	700.947
188.256	14.718	933.463	700.483
189.271	14.604	932.760	699.416
190.286	14.533	931.975	698.469
191.300	14.621	931.244	698.227
192.315	14.554	930.242	697.134
193.329	14.627	930.161	697.317
194.344	14.623	929.504	696.747
195.359	14.508	928.989	695.818
196.373	14.536	928.485	695.495
197.388	14.801	928.064	696.224
198.402	14.807	927.335	695.640
199.417	14.684	926.520	694.454
200.432	14.810	926.282	694.737
201.446	14.796	925.776	694.238
202.461	14.872	924.916	693.850
203.475	15.072	924.109	694.010
204.490	14.989	923.483	693.137
205.504	14.987	922.850	692.591
206.519	14.954	922.087	691.822
207.534	14.780	921.418	690.538
208.548	14.973	920.800	690.811
209.563	14.830	920.577	689.992
210.577	14.864	919.872	689.543
211.592	15.081	919.403	690.024
212.607	15.002	918.044	688.619
213.621	14.926	917.700	687.988
214.636	14.932	916.942	687.384
215.650	14.987	916.118	686.931
216.665	15.083	915.035	686.452
217.680	15.172	914.406	686.284
218.694	15.102	913.425	685.198
219.709	15.255	912.997	685.442
220.723	15.048	912.883	684.453
221.738	14.984	912.171	683.596
222.753	15.160	911.473	683.731
223.767	15.158	910.835	683.181
224.782	15.154	910.227	682.649
225.796	15.181	910.076	682.586
226.811	15.338	908.564	682.032
227.826	15.151	907.953	680.753
228.840	15.192	907.417	680.456
229.855	15.177	906.596	679.719
230.869	15.200	906.123	679.397
231.884	15.182	905.205	678.575
232.899	15.331	904.187	678.356
233.913	15.155	903.427	677.014
234.928	15.134	903.132	676.651
235.942	15.332	902.314	676.776
236.957	15.292	901.597	676.015
237.972	15.278	901.114	675.536
238.986	15.311	900.743	675.334
240.001	15.245	900.185	674.588
241.015	15.426	898.967	674.345
242.030	15.382	898.416	673.693
243.045	15.260	898.163	672.957
244.059	15.318	897.631	672.730
245.074	15.510	896.995	672.962
246.088	15.588	896.187	672.609
247.103	15.472	895.378	671.478
248.117	15.753	894.665	672.006
249.132	15.394	894.803	670.618
250.147	15.601	893.776	670.612
251.161	15.485	893.546	669.918
252.176	15.530	892.778	669.463
253.190	15.635	891.674	668.996
254.205	15.756	891.020	668.928
255.220	15.750	890.503	668.454
256.234	15.748	889.915	667.949
257.249	15.582	889.276	666.749
258.263	15.799	888.232	666.769
259.278	15.803	887.884	666.465
260.293	15.744	887.471	665.861
261.307	15.865	886.566	665.600
262.322	15.892	885.816	665.086
263.336	15.877	885.493	664.726
264.351	15.873	884.412	663.838
265.366	16.028	883.778	663.914
266.380	15.771	883.451	662.599
267.395	15.945	882.696	662.659
268.409	15.975	881.838	662.074
269.424	16.007	880.830	661.383
270.439	15.974	880.623	661.039
271.453	16.034	879.791	660.590
272.468	15.959	879.231	659.820
273.482	15.889	879.385	659.601
274.497	16.022	878.318	659.265
275.512	15.965	877.662	658.491
276.526	15.983	877.618	658.471
277.541	15.975	876.981	657.904
278.555	16.044	875.804	657.229
279.570	16.178	874.771	656.918
280.585	16.137	874.347	656.385
281.599	16.196	873.736	656.097
282.614	16.232	872.863	655.523
283.628	16.146	872.283	654.693
284.643	16.237	872.058	654.822
285.657	16.120	871.485	653.878
286.672	16.155	870.607	653.300
287.687	16.237	869.928	653.048
288.701	16.299	869.382	652.820
289.716	16.375	868.935	652.718
290.730	16.247	868.348	651.728
291.745	16.324	867.548	651.365
292.760	16.316	867.033	650.891
293.774	16.328	866.456	650.447
294.789	16.300	865.721	649.728
295.803	16.366	865.252	649.572
296.818	16.319	864.394	648.693
297.833	16.238	863.774	647.858
298.847	16.324	863.196	647.699
299.862	16.332	862.660	647.268
300.876	16.480	861.887	647.198
301.891	16.436	861.482	646.667
302.906	16.332	861.279	646.059
303.920	16.688	860.157	646.521
304.935	16.539	859.824	645.644
305.949	16.598	858.975	645.177
306.964	16.540	858.744	644.724
307.979	16.630	857.898	644.376
308.993	16.544	857.472	643.668
310.008	16.714	857.015	643.915
311.022	16.661	856.413	643.206
312.037	16.639	855.538	642.408
313.052	16.637	854.665	641.689
314.066	16.657	854.502	641.585
315.081	16.614	854.150	641.099
316.095	16.699	853.112	640.586
317.110	16.427	853.221	639.584
318.125	16.569	852.433	639.474
319.139	16.732	851.632	639.430
320.154	16.723	851.096	638.936
321.168	16.711	850.667	638.515
322.183	16.717	849.819	637.843
323.197	16.705	849.703	637.656
324.212	16.647	849.135	636.954
325.227	16.683	848.343	636.438
326.241	16.744	847.858	636.248
327.256	16.605	847.694	635.544
328.270	16.830	846.763	635.636
329.285	16.662	846.392	634.669
330.300	16.723	845.757	634.367
331.314	16.739	845.159	633.923
332.329	16.782	844.951	633.873
333.343	16.871	844.417	633.748
334.358	16.812	844.156	633.274
335.373	16.876	843.471	632.946
336.387	16.906	843.191	632.790
337.402	17.077	843.058	633.271
338.416	17.145	842.476	633.034
339.431	17.021	842.059	632.202
340.446	17.000	841.775	631.853
341.460	17.014	841.627	631.737
342.475	17.234	840.476	631.635
343.489	17.175	840.081	631.066
344.504	17.099	840.002	630.667
345.519	17.155	839.656	630.559
346.533	17.265	838.683	630.180
347.548	17.249	838.176	629.685
348.562	17.135	837.761	628.896
349.577	17.124	837.187	628.367
350.592	17.197	836.326	627.936
351.606	17.186	835.756	627.411
352.621	16.975	835.526	626.405
353.635	17.044	835.101	626.285
354.650	17.146	834.214	625.940
355.665	17.299	833.100	625.611
356.679	17.190	832.899	625.003
357.694	17.202	832.307	624.549
358.708	17.415	831.624	624.765
359.723	17.242	831.265	623.803
360.738	17.314	830.356	623.332
361.752	17.290	829.824	622.787
362.767	17.424	828.916	622.543
363.781	17.477	828.784	622.581
364.796	17.532	828.412	622.448
365.810	17.503	827.925	621.921
366.825	17.534	827.418	621.600
367.840	17.390	827.293	620.925
368.854	17.432	826.691	620.571
369.869	17.472	826.560	620.561
370.883	17.602	825.641	620.292
371.898	17.614	825.122	619.892
372.913	17.491	825.000	619.298
373.927	17.722	824.149	619.443
374.942	17.521	824.057	618.588
375.956	17.600	823.686	618.543
376.971	17.736	822.851	618.353
377.986	17.839	822.431	618.355
379.000	17.851	821.733	617.818
380.015	17.830	821.555	617.555
381.029	17.932	820.972	617.432
382.044	17.630	820.381	615.840
383.059	17.869	819.664	616.111
384.073	17.799	819.184	615.444
385.088	17.655	818.943	614.687
386.102	17.783	818.354	614.654
387.117	17.846	817.419	614.123
388.132	17.825	816.909	613.610
389.146	17.791	816.574	613.183
390.161	17.850	815.838	612.786
391.175	18.041	815.705	613.319
392.190	17.952	815.013	612.426
393.205	17.770	814.670	611.462
394.219	17.819	814.268	611.282
395.234	17.960	813.865	611.429
396.248	17.762	813.374	610.297
397.263	17.928	812.756	610.373
398.278	17.875	812.978	610.296
399.292	17.851	812.569	609.849
400.307	17.947	811.599	609.412
401.321	17.912	811.135	608.883
402.336	17.941	810.685	608.594
403.350	17.982	810.389	608.465
404.365	17.936	809.999	607.953
405.380	18.027	809.104	607.551
406.394	18.079	808.717	607.392
407.409	18.051	808.702	607.228
408.423	18.095	808.352	607.068
409.438	18.131	808.020	606.891
410.453	18.168	807.456	606.545
411.467	18.335	806.983	606.728
412.482	18.151	806.195	605.433
413.496	18.236	806.097	605.607
414.511	18.377	805.594	605.674
415.526	18.215	805.347	604.861
416.540	18.322	804.676	604.682
417.555	18.361	804.211	604.415
418.569	18.396	803.939	604.279
419.584	18.446	803.321	603.937
420.599	18.409	802.742	603.320
421.613	112.890	1294.337	1475.311
422.628	97.407	1365.939	1475.378
