DTS Sentinel unit serial number:	SN413079Multiplexer serial number:	ORYXHardware model number:	OX4-SRSoftware version number:	ORYX F/W v4.00 Oryx Data Collector v3.7.2.0data status	okinstallation	princeton_trtdifferential loss correction	single-endedforward channel	channel 1reverse channel	N/Adate	2019/09/14time	05:26:35forward acquisition time	60.00reverse acquisition time	0.00gamma	496.2192k internal	0.2334k external	0.2334temperature offset calibration	1.0083default loss term (dB/km)	0.3790temperature slope calibration	1.0000multiplexer offset coefficient	1.0000multiplexer slope coefficient	1.0000fibre end	0.00T internal ref (°C)	26.94T ext. ref 1 (°C)	3.39T ext. ref 2 (°C)	21.89length (m)	temperature (°C)	Stokes	anti-Stokes-747.200	-200.000	0.064	0.488
-746.185	-45.037	-0.147	0.074
-745.171	11.568	-0.037	0.028
-744.156	-200.000	0.011	-0.080
-743.142	800.000	-0.044	0.125
-742.127	-200.000	-0.051	0.258
-741.112	136.587	-0.061	-0.081
-740.098	-158.918	-0.319	-0.018
-739.083	163.052	0.108	0.153
-738.069	556.042	0.072	0.175
-737.054	-87.409	0.227	-0.069
-736.039	685.131	-0.083	-0.217
-735.025	55.209	0.206	-0.201
-734.010	235.027	-0.159	-0.264
-732.996	-109.293	-0.582	0.124
-731.981	-48.015	-0.110	-0.053
-730.966	-32.232	-0.186	0.104
-729.952	215.093	-0.075	-0.120
-728.937	524.127	0.130	0.307
-727.923	-51.754	0.102	0.048
-726.908	472.013	-0.100	-0.227
-725.894	-16.929	-0.343	0.218
-724.879	-51.648	-0.401	0.188
-723.864	800.000	0.078	-0.223
-722.850	-172.466	-0.023	0.001
-721.835	46.254	-0.033	0.031
-720.821	-38.473	-0.279	-0.148
-719.806	513.530	0.061	-0.143
-718.791	119.350	-0.088	0.109
-717.777	-68.398	-0.061	0.024
-716.762	-94.496	-0.266	-0.073
-715.748	-200.000	0.019	-0.180
-714.733	-139.700	-0.106	0.011
-713.718	105.322	0.078	-0.093
-712.704	56.319	0.448	-0.437
-711.689	405.156	0.096	0.204
-710.675	292.671	0.084	0.155
-709.660	153.734	0.019	0.026
-708.645	800.000	0.136	-0.486
-707.631	40.637	0.054	-0.049
-706.616	28.725	-0.040	-0.034
-705.602	-46.763	0.064	-0.032
-704.587	71.117	0.099	0.103
-703.572	-200.000	0.003	0.091
-702.558	395.316	0.060	0.125
-701.543	8.712	0.221	0.167
-700.529	800.000	-0.080	0.305
-699.514	800.000	-0.067	-0.228
-698.499	513.837	-0.102	-0.239
-697.485	-200.000	0.036	0.297
-696.470	40.431	0.123	0.111
-695.456	-18.962	0.033	-0.020
-694.441	800.000	-0.148	-0.547
-693.426	-56.303	-0.106	0.047
-692.412	-200.000	-0.016	-0.143
-691.397	137.088	0.134	-0.176
-690.383	97.403	-0.105	0.121
-689.368	800.000	-0.091	-0.264
-688.354	611.246	-0.058	-0.144
-687.339	-84.258	-0.248	-0.079
-686.324	13.447	-0.204	0.158
-685.310	-200.000	-0.025	-0.245
-684.295	303.582	0.055	0.103
-683.281	-45.799	-0.153	0.076
-682.266	800.000	0.071	-0.242
-681.251	65.039	-0.071	-0.072
-680.237	-90.627	0.401	0.116
-679.222	-82.692	-0.153	-0.050
-678.208	800.000	-0.102	-0.343
-677.193	-156.671	-0.132	0.008
-676.178	-200.000	0.018	-0.112
-675.164	-17.905	0.174	0.109
-674.149	67.467	-0.260	-0.266
-673.135	-102.855	-0.355	-0.085
-672.120	-130.965	0.174	0.023
-671.105	64.718	-0.139	0.140
-670.091	744.715	0.064	-0.172
-669.076	-153.724	0.271	-0.019
-668.062	26.383	-0.087	0.073
-667.047	-200.000	-0.019	0.217
-666.032	62.538	-0.203	-0.203
-665.018	55.434	0.056	-0.055
-664.003	83.773	0.169	-0.185
-662.989	-104.174	-0.259	-0.060
-661.974	13.726	0.298	0.232
-660.959	253.138	0.090	0.154
-659.945	-93.609	0.232	0.064
-658.930	800.000	-0.026	0.075
-657.916	31.721	0.091	0.079
-656.901	-94.823	0.366	-0.100
-655.886	80.989	-0.256	-0.277
-654.872	-200.000	-0.015	0.071
-653.857	515.909	-0.069	-0.162
-652.843	-92.438	0.169	0.048
-651.828	800.000	-0.076	-0.325
-650.814	-76.158	-0.250	0.088
-649.799	183.316	-0.141	-0.209
-648.784	-43.571	0.145	-0.073
-647.770	-105.597	0.123	-0.028
-646.755	-180.762	0.188	-0.004
-645.741	52.732	0.242	0.231
-644.726	146.359	-0.133	0.179
-643.711	-155.739	0.438	-0.028
-642.697	-82.852	0.219	0.071
-641.682	-20.139	0.154	0.095
-640.668	-200.000	-0.018	-0.119
-639.653	-134.804	0.244	-0.030
-638.638	-106.254	0.287	0.064
-637.624	147.352	0.119	-0.160
-636.609	-100.418	0.294	-0.073
-635.595	97.743	0.345	-0.397
-634.580	700.203	-0.027	-0.072
-633.565	-82.448	0.139	-0.045
-632.551	1.163	0.079	-0.057
-631.536	90.680	-0.177	0.199
-630.522	-200.000	-0.048	0.275
-629.507	69.037	-0.045	0.046
-628.492	31.655	-0.132	-0.114
-627.478	800.000	0.088	-0.286
-626.463	-68.606	0.315	-0.122
-625.449	560.379	0.088	-0.214
-624.434	33.650	-0.158	0.138
-623.419	199.831	-0.087	-0.134
-622.405	141.963	-0.032	0.042
-621.390	800.000	-0.042	-0.157
-620.376	194.800	0.212	0.321
-619.361	487.280	0.018	-0.042
-618.346	-200.000	-0.025	-0.177
-617.332	329.072	-0.041	-0.079
-616.317	48.813	-0.313	-0.294
-615.303	-32.069	0.203	-0.114
-614.288	6.599	-0.120	-0.089
-613.273	-34.137	-0.088	0.048
-612.259	-57.130	-0.051	-0.023
-611.244	57.825	-0.180	-0.176
-610.230	-73.480	0.382	-0.139
-609.215	-200.000	0.009	-0.303
-608.201	-12.503	-0.086	0.056
-607.186	46.366	-0.172	0.159
-606.171	-90.841	0.086	-0.025
-605.157	204.345	-0.115	-0.178
-604.142	-200.000	0.004	0.128
-603.128	-37.455	-0.146	-0.078
-602.113	316.492	-0.207	0.391
-601.098	800.000	0.078	-0.282
-600.084	-122.382	-0.093	0.015
-599.069	-200.000	-0.016	-0.134
-598.055	-200.000	0.005	0.029
-597.040	364.087	-0.166	0.334
-596.025	-72.763	-0.333	-0.123
-595.011	-22.888	-0.239	0.144
-593.996	-200.000	-0.036	0.215
-592.982	-200.000	-0.044	0.280
-591.967	44.068	-0.144	0.132
-590.952	87.535	-0.120	0.132
-589.938	-112.353	0.125	-0.025
-588.923	-83.619	0.269	0.086
-587.909	548.457	-0.166	0.398
-586.894	195.069	-0.100	0.152
-585.879	706.206	-0.127	-0.334
-584.865	800.000	0.074	0.221
-583.850	-34.786	0.156	-0.085
-582.836	46.206	0.149	-0.138
-581.821	-88.129	-0.127	-0.038
-580.806	-136.841	0.375	0.043
-579.792	-200.000	-0.007	0.260
-578.777	-31.226	-0.083	-0.047
-577.763	33.823	0.104	-0.090
-576.748	92.906	0.187	0.211
-575.733	224.332	-0.080	0.129
-574.719	-200.000	-0.034	0.198
-573.704	311.475	-0.187	0.349
-572.690	800.000	0.043	-0.145
-571.675	-200.000	0.013	0.086
-570.661	376.951	0.130	0.265
-569.646	-34.816	0.177	0.096
-568.631	-200.000	0.017	0.168
-567.617	-26.648	0.240	-0.140
-566.602	324.698	-0.044	-0.084
-565.588	383.392	0.034	-0.069
-564.573	91.736	-0.104	-0.117
-563.558	-200.000	0.010	-0.089
-562.544	118.895	-0.109	-0.135
-561.529	-200.000	-0.003	-0.096
-560.515	800.000	-0.054	0.166
-559.500	43.808	0.190	-0.174
-558.485	-87.199	-0.258	0.078
-557.471	336.988	-0.105	0.204
-556.456	-18.049	-0.115	0.072
-555.442	800.000	0.096	-0.280
-554.427	-54.509	-0.188	0.085
-553.412	-94.061	0.063	-0.017
-552.398	-200.000	0.014	-0.072
-551.383	-196.850	0.071	0.000
-550.369	-89.431	-0.179	-0.052
-549.354	-60.790	-0.226	0.096
-548.339	111.229	0.113	0.135
-547.325	800.000	-0.066	0.250
-546.310	71.610	0.227	-0.235
-545.296	-200.000	0.002	0.282
-544.281	75.925	0.185	0.195
-543.266	-148.918	-0.211	0.017
-542.252	-69.643	-0.386	-0.147
-541.237	-153.264	-0.101	0.007
-540.223	-102.793	0.394	-0.094
-539.208	205.071	-0.253	-0.392
-538.193	430.621	-0.054	0.116
-537.179	-44.594	0.244	-0.121
-536.164	800.000	0.048	0.185
-535.150	240.038	0.108	-0.180
-534.135	-83.741	0.160	-0.051
-533.121	800.000	-0.063	0.177
-532.106	114.787	-0.085	0.104
-531.091	27.931	0.188	0.158
-530.077	-200.000	-0.031	0.184
-529.062	-104.138	-0.211	0.049
-528.048	-13.045	-0.273	0.177
-527.033	-4.373	-0.262	0.181
-526.018	338.868	-0.118	0.229
-525.004	6.536	-0.263	0.195
-523.989	-122.798	0.221	0.036
-522.975	-36.671	0.194	0.104
-521.960	-146.112	0.195	-0.017
-520.945	17.187	-0.299	-0.236
-519.931	191.317	0.060	-0.090
-518.916	205.126	-0.189	-0.292
-517.902	-100.707	0.200	0.049
-516.887	32.885	-0.145	-0.125
-515.872	-28.671	-0.376	0.216
-514.858	-86.061	0.177	-0.054
-513.843	-115.339	0.036	0.007
-512.829	-200.000	0.001	-0.126
-511.814	-28.099	-0.117	-0.067
-510.799	-200.000	-0.016	-0.159
-509.785	-82.894	-0.137	0.044
-508.770	128.133	0.168	-0.212
-507.756	-189.152	0.140	-0.002
-506.741	213.934	-0.213	-0.336
-505.726	113.172	-0.239	-0.288
-504.712	-200.000	-0.002	0.429
-503.697	-200.000	-0.015	-0.127
-502.683	-93.135	0.251	0.070
-501.668	-200.000	-0.023	-0.128
-500.653	-142.737	0.098	0.010
-499.639	800.000	-0.119	-0.488
-498.624	49.646	-0.078	0.073
-497.610	556.635	0.031	-0.075
-496.595	152.702	-0.135	0.184
-495.581	-200.000	0.053	-0.263
-494.566	-58.050	-0.249	-0.108
-493.551	-71.430	-0.143	0.053
-492.537	136.013	0.211	0.274
-491.522	-42.787	-0.118	0.060
-490.508	54.661	0.078	0.075
-489.493	13.953	0.302	-0.234
-488.478	275.246	-0.077	-0.135
-487.464	-200.000	-0.024	-0.391
-486.449	-80.964	0.041	0.013
-485.435	65.515	0.292	-0.294
-484.420	251.626	-0.234	0.397
-483.405	-14.674	0.179	-0.115
-482.391	58.580	-0.133	-0.130
-481.376	-200.000	-0.019	-0.144
-480.362	-54.607	0.296	0.133
-479.347	-169.226	-0.185	0.007
-478.332	800.000	0.051	0.143
-477.318	-49.231	0.064	-0.031
-476.303	-58.660	-0.099	-0.043
-475.289	-26.361	-0.263	0.154
-474.274	38.584	-0.052	0.046
-473.259	800.000	0.062	-0.265
-472.245	-135.093	0.051	-0.006
-471.230	128.924	-0.119	0.151
-470.216	-187.534	0.136	0.002
-469.201	-200.000	-0.002	-0.219
-468.186	-200.000	0.036	-0.361
-467.172	-125.092	0.515	-0.079
-466.157	-111.138	-0.120	0.024
-465.143	390.287	-0.029	0.061
-464.128	-64.677	0.132	-0.053
-463.113	-200.000	0.046	0.234
-462.099	800.000	0.003	0.010
-461.084	335.594	-0.141	0.273
-460.070	-200.000	-0.035	-0.352
-459.055	-200.000	0.019	-0.109
-458.040	-114.791	-0.412	-0.078
-457.026	524.616	-0.128	0.299
-456.011	-166.573	-0.222	-0.009
-454.997	-183.138	-0.202	0.004
-453.982	800.000	-0.043	-0.166
-452.968	70.729	-0.070	0.072
-451.953	-200.000	-0.033	0.251
-450.938	-95.392	0.300	-0.080
-449.924	-93.131	-0.161	-0.044
-448.909	397.520	-0.084	-0.174
-447.895	-158.584	0.179	0.010
-446.880	-6.783	0.071	0.048
-445.865	-176.172	0.164	-0.004
-444.851	640.559	-0.069	-0.174
-443.836	-200.000	-0.002	-0.260
-442.822	800.000	-0.022	-0.061
-441.807	-200.000	-0.005	0.092
-440.792	355.326	-0.065	-0.128
-439.778	-138.336	0.201	0.022
-438.763	202.853	-0.036	-0.055
-437.749	141.518	-0.067	0.088
-436.734	800.000	0.087	0.267
-435.719	-200.000	0.059	0.297
-434.705	18.128	-0.048	0.038
-433.690	-140.618	-0.114	0.012
-432.676	-119.924	-0.178	0.030
-431.661	-127.245	0.382	-0.055
-430.646	190.625	-0.188	0.281
-429.632	432.723	0.146	0.315
-428.617	-35.440	0.113	0.061
-427.603	131.726	-0.242	-0.309
-426.588	-129.044	0.125	-0.017
-425.573	800.000	0.077	-0.222
-424.559	-3.572	0.213	-0.147
-423.544	800.000	-0.074	-0.226
-422.530	-200.000	0.022	-0.101
-421.515	297.286	0.111	-0.202
-420.500	-60.548	-0.074	-0.031
-419.486	800.000	-0.015	0.058
-418.471	-91.283	-0.121	-0.034
-417.457	-200.000	0.050	-0.234
-416.442	-107.286	0.205	0.045
-415.428	-72.665	0.248	0.091
-414.413	592.334	-0.145	-0.355
-413.398	222.512	-0.038	0.061
-412.384	77.020	0.491	-0.517
-411.369	800.000	0.067	0.209
-410.355	-200.000	-0.015	0.106
-409.340	12.990	0.235	-0.180
-408.325	-200.000	0.266	-0.001
-407.311	-200.000	-0.012	0.292
-406.296	-117.009	-0.255	0.046
-405.282	-179.500	0.026	-0.001
-404.267	-62.927	0.229	0.094
-403.252	389.724	0.094	-0.193
-402.238	-200.000	0.007	0.092
-401.223	-200.000	-0.019	-0.315
-400.209	-172.492	0.099	0.003
-399.194	3.394	-0.190	-0.138
-398.179	-53.090	-0.228	-0.104
-397.165	-200.000	-0.014	-0.347
-396.150	-200.000	0.026	-0.139
-395.136	-200.000	-0.018	-0.341
-394.121	3.121	-0.072	0.052
-393.106	-44.710	-0.132	-0.065
-392.092	45.108	0.154	-0.141
-391.077	-65.345	-0.349	-0.139
-390.063	-11.181	-0.094	-0.062
-389.048	-200.000	-0.013	-0.068
-388.033	150.077	-0.145	0.194
-387.019	-188.591	0.147	0.002
-386.004	-51.195	0.230	-0.107
-384.990	-51.002	0.142	-0.066
-383.975	-96.598	0.163	0.043
-382.960	-51.196	0.178	-0.083
-381.946	1.160	-0.128	0.091
-380.931	214.140	-0.061	-0.096
-379.917	503.866	-0.152	0.348
-378.902	-131.545	0.149	0.019
-377.888	15.574	0.205	0.159
-376.873	269.614	0.060	0.104
-375.858	-200.000	-0.026	0.410
-374.844	-18.211	-0.071	-0.044
-373.829	-136.413	-0.213	-0.025
-372.815	189.322	-0.110	0.164
-371.800	-153.303	0.462	0.032
-370.785	58.000	0.240	-0.233
-369.771	-200.000	-0.160	0.000
-368.756	102.306	0.343	-0.397
-367.742	34.346	-0.410	-0.354
-366.727	-106.480	-0.214	0.047
-365.712	800.000	-0.039	-0.159
-364.698	164.490	0.125	-0.175
-363.683	14.000	-0.169	-0.130
-362.669	525.130	-0.080	0.187
-361.654	105.046	-0.045	-0.052
-360.639	-200.000	-0.024	0.261
-359.625	-121.722	0.075	-0.012
-358.610	-40.002	0.194	0.100
-357.596	-133.142	0.057	0.007
-356.581	-200.000	-0.016	-0.134
-355.566	8.486	-0.331	-0.246
-354.552	-97.522	0.187	0.048
-353.537	800.000	0.079	0.306
-352.523	-176.101	-0.210	-0.005
-351.508	-27.116	0.169	0.098
-350.493	-200.000	-0.016	0.339
-349.479	-200.000	0.000	0.177
-348.464	-123.301	0.208	0.033
-347.450	-19.938	0.132	0.080
-346.435	-27.494	-0.128	-0.074
-345.420	449.545	-0.050	0.109
-344.406	800.000	0.064	0.261
-343.391	800.000	-0.093	-0.258
-342.377	211.765	0.015	-0.023
-341.362	-200.000	0.010	0.336
-340.348	800.000	-0.070	0.290
-339.333	85.541	-0.051	0.055
-338.318	-6.814	-0.235	0.158
-337.304	10.856	-0.210	0.158
-336.289	114.243	-0.182	0.219
-335.275	-4.114	0.117	0.080
-334.260	-33.195	-0.116	-0.064
-333.245	111.156	0.101	0.120
-332.231	-16.984	-0.236	0.147
-331.216	-13.564	-0.216	0.138
-330.202	-200.000	0.070	0.314
-329.187	-25.437	0.230	0.134
-328.172	76.147	0.119	-0.125
-327.158	276.296	-0.117	-0.205
-326.143	-200.000	-0.037	0.235
-325.129	-63.941	0.075	0.030
-324.114	720.664	-0.041	0.107
-323.099	135.950	-0.221	0.285
-322.085	-200.000	0.027	0.135
-321.070	219.379	-0.124	0.197
-320.056	-173.874	0.250	0.007
-319.041	61.990	-0.165	-0.163
-318.026	656.494	-0.025	-0.063
-317.012	46.612	-0.072	-0.066
-315.997	-200.000	0.008	0.058
-314.983	-59.944	0.361	0.153
-313.968	800.000	0.083	-0.342
-312.953	-98.108	0.213	-0.054
-311.939	-120.551	-0.118	-0.020
-310.924	48.612	0.206	0.190
-309.910	485.790	0.031	-0.071
-308.895	-59.793	-0.313	0.133
-307.880	635.793	0.108	-0.270
-306.866	-109.075	0.177	-0.037
-305.851	33.750	-0.195	-0.168
-304.837	-47.016	-0.084	-0.041
-303.822	-200.000	-0.071	0.349
-302.807	-132.322	-0.184	0.023
-301.793	-80.553	0.095	0.031
-300.778	-103.481	0.167	-0.039
-299.764	162.691	-0.163	-0.226
-298.749	-95.728	0.213	0.056
-297.735	702.801	0.040	-0.105
-296.720	800.000	-0.096	0.274
-295.705	-26.904	0.050	-0.029
-294.691	98.904	0.076	0.087
-293.676	276.020	-0.031	0.054
-292.662	-47.991	0.229	0.110
-291.647	-200.000	0.015	-0.106
-290.632	-200.000	0.030	0.164
-289.618	-200.000	0.014	-0.260
-288.603	92.512	-0.056	0.062
-287.589	444.947	-0.064	-0.139
-286.574	-43.301	0.306	0.153
-285.559	-94.089	-0.264	-0.072
-284.545	340.017	-0.132	0.254
-283.530	-127.590	0.278	-0.040
-282.516	117.075	0.357	-0.433
-281.501	-200.000	-0.012	-0.087
-280.486	-200.000	-0.019	-0.126
-279.472	-200.000	0.030	0.177
-278.457	17.392	-0.039	-0.031
-277.443	347.701	-0.081	0.158
-276.428	-87.477	-0.144	-0.043
-275.413	-51.775	0.278	0.128
-274.399	109.446	0.223	0.263
-273.384	86.812	-0.094	0.102
-272.370	800.000	-0.025	0.070
-271.355	-200.000	-0.054	-0.268
-270.340	-110.959	0.105	-0.021
-269.326	727.619	0.091	0.239
-268.311	-92.631	0.272	0.075
-267.297	-24.416	-0.200	0.117
-266.282	-200.000	0.033	0.167
-265.267	-14.354	0.165	0.105
-264.253	-38.217	-0.316	0.165
-263.238	-200.000	-0.011	0.336
-262.224	631.485	-0.058	-0.144
-261.209	305.490	0.080	0.146
-260.195	-200.000	-0.104	0.481
-259.180	-16.213	-0.155	0.097
-258.165	800.000	-0.048	-0.196
-257.151	800.000	-0.026	-0.074
-256.136	-2.863	0.207	-0.143
-255.122	-7.160	-0.416	-0.279
-254.107	129.128	-0.353	0.444
-253.092	-1.534	-0.199	0.138
-252.078	239.331	-0.177	-0.291
-251.063	93.406	0.117	-0.131
-250.049	36.193	0.126	-0.110
-249.034	6.651	0.206	0.151
-248.019	-117.393	-0.188	-0.034
-247.005	-107.440	0.503	-0.109
-245.990	-200.000	0.003	0.115
-244.976	400.777	0.166	0.343
-243.961	-62.837	0.150	0.061
-242.946	740.328	-0.119	0.314
-241.932	-26.792	0.017	0.010
-240.917	-55.680	-0.178	0.078
-239.903	-80.056	0.311	-0.103
-238.888	-58.607	-0.149	0.064
-237.873	518.631	-0.027	0.063
-236.859	79.651	-0.139	-0.147
-235.844	-70.155	0.300	0.113
-234.830	69.931	0.122	-0.124
-233.815	221.921	0.128	-0.203
-232.800	-38.112	0.194	-0.101
-231.786	800.000	-0.018	0.064
-230.771	611.789	-0.034	0.083
-229.757	-137.098	-0.182	0.020
-228.742	-4.624	0.245	0.167
-227.727	-200.000	-0.032	-0.250
-226.713	7.073	-0.117	0.086
-225.698	24.365	-0.081	-0.066
-224.684	-45.895	-0.185	0.090
-223.669	800.000	0.081	0.228
-222.655	800.000	0.115	-0.374
-221.640	800.000	0.105	-0.310
-220.625	-163.568	-0.162	-0.008
-219.611	160.308	0.145	-0.199
-218.596	169.692	-0.135	-0.191
-217.582	17.112	-0.198	-0.155
-216.567	-36.704	-0.152	0.081
-215.552	385.792	-0.100	0.203
-214.538	-200.000	-0.008	-0.087
-213.523	196.800	0.100	-0.150
-212.509	-53.529	-0.380	0.171
-211.494	800.000	0.122	0.343
-210.479	-200.000	0.000	-0.221
-209.465	104.853	-0.066	-0.076
-208.450	-170.862	0.322	0.011
-207.436	-3.643	0.255	0.174
-206.421	-200.000	-0.005	-0.104
-205.406	34.602	-0.287	-0.246
-204.392	-11.401	0.170	-0.110
-203.377	555.120	-0.150	0.356
-202.363	281.947	-0.149	-0.262
-201.348	-94.164	-0.304	0.082
-200.333	472.127	0.081	-0.180
-199.319	75.932	-0.042	0.044
-198.304	800.000	0.077	0.313
-197.290	323.163	-0.066	-0.124
-196.275	100.519	0.156	-0.178
-195.260	93.006	-0.118	-0.131
-194.246	-200.000	0.022	0.201
-193.231	-136.193	0.232	0.027
-192.217	-155.510	-0.335	0.021
-191.202	800.000	0.065	-0.240
-190.187	122.875	-0.091	-0.112
-189.173	-116.651	-0.149	0.027
-188.158	94.511	0.237	0.265
-187.144	350.116	-0.026	0.050
-186.129	146.576	0.084	-0.112
-185.114	16.624	-0.194	0.151
-184.100	-102.479	-0.069	0.016
-183.085	-120.064	-0.277	-0.047
-182.071	94.187	-0.138	0.153
-181.056	-200.000	-0.013	0.103
-180.042	-172.132	0.216	0.007
-179.027	-14.331	-0.091	-0.058
-178.012	355.168	0.053	-0.103
-176.998	67.785	-0.145	-0.146
-175.983	5.210	-0.128	-0.093
-174.969	-139.118	-0.340	-0.036
-173.954	-73.353	0.220	0.079
-172.939	6.053	-0.182	-0.133
-171.925	-200.000	0.037	-0.195
-170.910	34.151	-0.100	0.086
-169.896	-200.000	-0.006	0.307
-168.881	221.988	0.076	-0.121
-167.866	-176.022	0.206	0.005
-166.852	-80.635	-0.253	-0.083
-165.837	-200.000	0.034	-0.145
-164.823	221.725	-0.128	-0.202
-163.808	70.731	-0.088	-0.090
-162.793	-200.000	-0.003	0.130
-161.779	34.097	-0.144	-0.124
-160.764	-56.374	-0.166	0.073
-159.750	556.323	-0.082	0.194
-158.735	147.583	-0.180	-0.239
-157.720	800.000	0.044	0.128
-156.706	145.475	0.130	-0.171
-155.691	48.649	-0.169	-0.155
-154.677	-151.796	0.190	-0.014
-153.662	-127.927	0.237	-0.033
-152.647	-73.221	0.270	0.097
-151.633	-8.540	0.103	0.068
-150.618	-100.978	0.275	-0.066
-149.604	800.000	0.028	0.105
-148.589	283.719	-0.246	0.434
-147.574	220.645	0.059	0.092
-146.560	-191.278	0.224	-0.002
-145.545	-200.000	0.019	0.130
-144.531	737.187	-0.109	-0.287
-143.516	-200.000	-0.017	0.180
-142.502	428.158	-0.120	0.255
-141.487	-20.335	-0.203	-0.123
-140.472	-90.988	0.186	0.053
-139.458	-200.000	0.065	0.495
-138.443	-47.389	-0.247	0.118
-137.429	-200.000	0.063	0.321
-136.414	111.430	-0.015	0.018
-135.399	-200.000	0.043	0.215
-134.385	-200.000	-0.010	0.066
-133.370	197.867	0.041	-0.061
-132.356	-121.568	0.278	-0.045
-131.341	-84.563	-0.217	-0.067
-130.326	175.293	0.164	-0.233
-129.312	-200.000	0.196	-0.000
-128.297	387.575	-0.068	0.139
-127.283	-166.134	0.150	0.006
-126.268	709.223	-0.120	-0.310
-125.253	-2.346	0.450	0.309
-124.239	-200.000	0.013	0.215
-123.224	-51.159	-0.453	-0.208
-122.210	-200.000	-0.026	-0.153
-121.195	160.884	0.264	0.362
-120.180	-36.765	-0.043	0.023
-119.166	-14.485	-0.092	0.058
-118.151	-200.000	0.011	-0.218
-117.137	-200.000	0.030	0.388
-116.122	800.000	0.025	0.068
-115.107	-126.164	-0.170	-0.025
-114.093	-63.886	-0.238	0.095
-113.078	86.209	0.065	0.070
-112.064	245.479	0.133	0.219
-111.049	-200.000	-0.032	0.256
-110.034	1.841	0.243	0.172
-109.020	-7.379	0.121	0.081
-108.005	-200.000	-0.016	-0.162
-106.991	19.090	0.216	0.170
-105.976	-200.000	-0.026	0.260
-104.962	12.377	0.130	0.098
-103.947	134.547	0.202	0.257
-102.932	27.741	-0.388	0.320
-101.918	-41.298	-0.454	-0.229
-100.903	258.570	-0.123	0.208
-99.889	-103.981	-0.161	0.037
-98.874	-0.492	-0.217	0.151
-97.859	-200.000	0.019	-0.231
-96.845	272.085	-0.075	-0.129
-95.830	-7.799	-0.092	0.061
-94.816	266.182	0.127	-0.217
-93.801	800.000	-0.024	0.088
-92.786	-87.669	-0.172	0.051
-91.772	1.480	0.358	-0.252
-90.757	302.925	-0.036	-0.065
-89.743	-76.299	0.171	0.059
-88.728	-200.000	-0.006	-0.077
-87.713	-200.000	0.039	0.176
-86.699	-200.000	-0.019	0.097
-85.684	755.492	0.128	-0.338
-84.670	-56.591	-0.192	0.083
-83.655	261.767	-0.041	0.069
-82.640	152.366	-0.150	-0.201
-81.626	105.299	0.117	-0.135
-80.611	573.741	-0.195	-0.465
-79.597	21.170	-0.185	0.147
-78.582	277.951	-0.114	0.199
-77.567	-126.442	0.083	-0.012
-76.553	-200.000	-0.058	-0.335
-75.538	-200.000	0.064	-0.275
-74.524	-57.975	-0.130	0.055
-73.509	93.436	0.161	0.178
-72.494	-200.000	-0.031	-0.247
-71.480	614.495	-0.166	-0.407
-70.465	-3.519	-0.134	0.091
-69.451	-120.158	-0.157	0.026
-68.436	800.000	-0.056	0.164
-67.422	-65.277	0.381	-0.150
-66.407	138.974	-0.079	0.102
-65.392	-192.177	0.288	-0.003
-64.378	-43.632	0.188	0.093
-63.363	35.019	0.229	0.196
-62.349	-200.000	0.005	0.037
-61.334	72.788	-1.085	-1.109
-60.319	13.769	0.560	0.426
-59.305	800.000	-0.482	-1.332
-58.290	437.972	0.476	1.016
-57.276	800.000	0.508	1.691
-56.261	-200.000	116.519	663.916
-55.246	529.869	1534.269	3545.955
-54.232	175.962	2706.810	3844.087
-53.217	109.125	2161.730	2530.603
-52.203	38.984	1598.478	1397.752
-51.188	30.276	1342.668	1121.655
-50.173	27.371	1304.843	1072.919
-49.159	55.598	1363.040	1291.436
-48.144	53.181	1376.912	1290.023
-47.130	30.553	1330.908	1113.319
-46.115	27.161	1312.653	1077.925
-45.100	26.885	1308.191	1072.588
-44.086	26.827	1305.365	1069.887
-43.071	26.741	1303.580	1067.872
-42.057	26.779	1300.831	1065.800
-41.042	26.756	1299.727	1064.720
-40.027	26.742	1298.032	1063.206
-39.013	26.884	1295.337	1061.789
-37.998	26.796	1294.399	1060.465
-36.984	26.881	1292.515	1059.375
-35.969	26.941	1290.449	1057.986
-34.954	26.995	1288.398	1056.580
-33.940	26.966	1287.806	1055.882
-32.925	27.039	1286.403	1055.112
-31.911	26.987	1284.797	1053.451
-30.896	27.121	1283.149	1052.835
-29.881	27.010	1282.242	1051.410
-28.867	27.023	1280.706	1050.182
-27.852	27.058	1279.198	1049.105
-26.838	27.057	1277.983	1048.064
-25.823	26.990	1276.847	1046.703
-24.809	26.964	1275.174	1045.140
-23.794	26.968	1273.540	1043.781
-22.779	27.005	1272.222	1042.873
-21.765	26.990	1271.325	1042.012
-20.750	26.949	1270.318	1040.909
-19.736	26.789	1268.948	1038.829
-18.721	26.940	1267.846	1038.747
-17.706	26.892	1266.657	1037.462
-16.692	27.018	1264.935	1036.729
-15.677	26.835	1264.387	1035.192
-14.663	26.943	1263.091	1034.707
-13.648	26.859	1262.070	1033.352
-12.633	26.887	1260.897	1032.510
-11.619	26.865	1260.503	1032.017
-10.604	26.936	1259.447	1031.518
-9.590	26.756	1258.530	1029.703
-8.575	27.018	1257.228	1030.083
-7.560	26.965	1256.033	1028.762
-6.546	26.891	1255.532	1027.892
-5.531	26.873	1255.047	1027.352
-4.517	26.914	1253.472	1026.253
-3.502	26.937	1252.706	1025.715
-2.487	26.955	1251.717	1024.968
-1.473	26.889	1247.962	1021.482
-0.458	25.419	1233.223	1001.189
0.556	22.343	1216.240	963.909
1.571	18.621	1222.460	948.223
2.586	17.824	1237.088	955.027
3.600	17.479	1224.716	943.476
4.615	13.129	1152.889	865.321
5.629	6.433	1081.188	778.438
6.644	3.532	1063.714	751.669
7.659	3.207	1061.648	748.566
8.673	3.369	1060.340	748.364
9.688	3.452	1058.916	747.693
10.702	3.559	1056.769	746.627
11.717	7.406	1061.204	768.359
12.731	14.563	1071.812	810.876
13.746	18.953	1077.474	836.488
14.761	19.549	1077.696	839.485
15.775	18.808	1075.977	834.477
16.790	17.824	1073.768	827.918
17.804	17.019	1072.366	822.860
18.819	16.816	1071.183	820.893
19.834	16.617	1070.865	819.617
20.848	16.360	1070.103	817.715
21.863	16.326	1068.763	816.456
22.877	16.240	1068.131	815.487
23.892	16.067	1067.587	814.159
24.907	16.069	1066.991	813.646
25.921	16.073	1065.890	812.752
26.936	16.194	1064.531	812.227
27.950	16.158	1063.576	811.255
28.965	16.236	1061.550	810.011
29.980	16.411	1059.904	809.522
30.994	16.439	1058.951	808.857
32.009	16.318	1058.354	807.751
33.023	16.301	1057.577	807.005
34.038	16.292	1056.252	805.877
35.053	16.038	1055.424	803.963
36.067	16.201	1054.334	803.840
37.082	16.241	1053.519	803.335
38.096	16.302	1052.846	803.044
39.111	16.402	1051.563	802.468
40.126	16.184	1050.214	800.332
41.140	15.969	1049.238	798.498
42.155	15.881	1048.166	797.197
43.169	15.911	1046.732	796.178
44.184	15.921	1045.781	795.430
45.199	15.914	1044.818	794.594
46.213	16.074	1043.912	794.588
47.228	16.190	1042.859	794.266
48.242	16.276	1041.867	793.843
49.257	16.166	1040.968	792.571
50.271	16.232	1040.053	792.113
51.286	16.211	1039.451	791.488
52.301	16.309	1038.164	790.895
53.315	16.085	1037.170	789.019
54.330	16.147	1035.980	788.335
55.344	16.136	1035.403	787.773
56.359	16.094	1034.330	786.692
57.374	16.023	1033.585	785.727
58.388	15.895	1032.573	784.293
59.403	15.844	1031.546	783.204
60.417	15.943	1030.784	783.018
61.432	15.806	1030.605	782.173
62.447	15.753	1029.624	781.114
63.461	15.920	1028.541	780.997
64.476	15.811	1027.471	779.611
65.490	15.895	1026.873	779.480
66.505	15.816	1026.161	778.502
67.520	15.910	1025.407	778.297
68.534	15.877	1024.630	777.488
69.549	15.808	1023.817	776.483
70.563	15.716	1023.134	775.471
71.578	15.644	1022.275	774.417
72.593	15.721	1021.036	773.768
73.607	15.612	1020.778	773.001
74.622	15.698	1020.019	772.753
75.636	15.723	1019.289	772.245
76.651	15.694	1019.062	771.873
77.666	15.684	1018.360	771.227
78.680	15.759	1017.268	770.675
79.695	15.759	1016.923	770.348
80.709	15.861	1016.111	770.129
81.724	15.945	1015.771	770.190
82.739	16.055	1014.443	769.614
83.753	16.173	1014.113	769.833
84.768	16.318	1013.271	769.789
85.782	16.405	1012.323	769.396
86.797	16.273	1011.740	768.286
87.812	16.166	1010.314	766.648
88.826	16.237	1009.550	766.324
89.841	16.331	1008.847	766.149
90.855	16.351	1008.069	765.581
91.870	16.409	1006.853	764.852
92.884	16.411	1006.088	764.212
93.899	16.437	1004.716	763.220
94.914	16.518	1004.114	763.060
95.928	16.282	1003.713	761.622
96.943	16.456	1002.244	761.223
97.957	16.371	1002.176	760.723
98.972	16.435	1000.363	759.568
99.987	16.459	999.776	759.164
101.001	16.397	998.902	758.154
102.016	16.318	998.742	757.611
103.030	16.225	997.723	756.355
104.045	16.359	996.605	756.037
105.060	16.202	995.953	754.773
106.074	15.926	995.109	752.833
107.089	15.978	993.834	752.034
108.103	15.890	992.946	750.904
109.118	15.888	991.948	750.077
110.133	15.872	990.924	749.165
111.147	15.957	989.850	748.661
112.162	15.831	989.662	747.895
113.176	15.954	988.588	747.563
114.191	16.181	987.941	748.014
115.206	16.092	986.936	746.794
116.220	15.991	986.273	745.776
117.235	16.034	985.319	745.179
118.249	15.888	984.631	743.947
119.264	15.916	984.050	743.570
120.279	15.924	983.028	742.765
121.293	15.978	981.872	742.062
122.308	15.801	980.832	740.432
123.322	15.812	980.047	739.823
124.337	15.843	978.898	739.025
125.352	15.851	978.031	738.341
126.366	15.917	976.521	737.425
127.381	15.848	975.702	736.439
128.395	15.901	974.856	735.969
129.410	15.986	974.047	735.665
130.424	15.933	973.368	734.857
131.439	16.075	972.782	734.968
132.454	16.024	972.035	734.115
133.468	15.976	970.848	732.942
134.483	16.034	970.090	732.561
135.497	16.014	969.440	731.917
136.512	15.993	968.469	731.028
137.527	15.954	967.826	730.310
138.541	16.035	967.245	730.158
139.556	15.894	966.813	729.153
140.570	16.248	965.550	729.667
141.585	16.219	965.079	729.121
142.600	16.434	963.913	729.105
143.614	16.473	963.464	728.871
144.629	16.504	962.415	728.145
145.643	16.430	961.654	727.189
146.658	16.414	960.089	725.870
147.673	16.278	959.481	724.762
148.687	16.099	958.747	723.376
149.702	16.048	957.850	722.414
150.716	16.093	957.108	721.985
151.731	16.201	956.312	721.784
152.746	16.186	955.621	721.132
153.760	16.256	955.051	720.937
154.775	16.347	954.275	720.677
155.789	16.259	953.736	719.830
156.804	16.514	953.156	720.418
157.819	16.502	952.356	719.696
158.833	16.335	952.153	718.768
159.848	16.527	951.067	718.702
160.862	16.533	950.019	717.874
161.877	16.277	948.959	715.923
162.892	16.205	947.822	714.695
163.906	16.192	946.752	713.773
164.921	15.977	946.662	712.731
165.935	16.215	945.268	712.623
166.950	16.308	944.486	712.364
167.964	16.242	943.607	711.358
168.979	16.242	942.866	710.736
169.994	16.284	941.586	709.887
171.008	16.404	941.181	710.022
172.023	16.458	940.460	709.641
173.037	16.395	940.325	709.211
174.052	16.451	939.050	708.422
175.067	16.305	938.553	707.375
176.081	16.164	937.895	706.224
177.096	16.141	937.273	705.598
178.110	16.276	936.719	705.681
179.125	16.267	936.416	705.354
180.140	16.351	935.637	705.056
181.154	16.518	935.179	705.345
182.169	16.679	934.659	705.563
183.183	16.567	934.385	704.824
184.198	16.590	933.427	704.137
185.213	16.596	932.552	703.441
186.227	16.785	931.959	703.713
187.242	16.705	931.544	703.008
188.256	16.687	931.362	702.735
189.271	16.594	930.328	701.504
190.286	16.525	929.266	700.358
191.300	16.285	928.026	698.367
192.315	16.096	927.605	697.206
193.329	16.193	927.311	697.328
194.344	16.398	926.480	697.486
195.359	16.496	925.615	697.174
196.373	16.623	925.196	697.321
197.388	16.723	925.309	697.759
198.402	16.732	924.608	697.205
199.417	16.836	924.277	697.321
200.432	16.890	923.542	696.925
201.446	16.950	923.041	696.732
202.461	16.964	922.605	696.402
203.475	16.884	921.988	695.546
204.490	16.830	921.052	694.557
205.504	16.751	920.222	693.545
206.519	16.762	919.316	692.847
207.534	16.784	918.857	692.531
208.548	16.860	918.020	692.149
209.563	16.832	917.069	691.253
210.577	16.894	916.682	691.154
211.592	16.919	916.526	691.077
212.607	17.053	915.485	690.777
213.621	17.061	914.481	689.992
214.636	16.985	914.002	689.258
215.650	17.094	913.034	688.911
216.665	17.002	912.789	688.292
217.680	17.060	912.771	688.453
218.694	17.176	911.561	687.950
219.709	17.163	910.906	687.339
220.723	17.166	910.470	686.963
221.738	17.043	909.817	685.913
222.753	17.177	908.803	685.630
223.767	17.171	908.622	685.407
224.782	17.304	907.887	685.330
225.796	17.219	907.616	684.721
226.811	17.239	906.421	683.841
227.826	17.087	905.620	682.563
228.840	17.193	904.656	682.203
229.855	17.182	903.768	681.429
230.869	17.097	903.403	680.753
231.884	17.020	902.792	679.924
232.899	17.066	901.532	679.097
233.913	16.972	901.518	678.649
234.928	16.966	900.527	677.821
235.942	16.919	900.015	677.189
236.957	16.935	899.319	676.670
237.972	16.940	898.963	676.359
238.986	16.931	898.331	675.787
240.001	17.094	897.720	675.920
241.015	17.017	897.203	675.164
242.030	17.130	896.617	675.110
243.045	17.258	895.732	674.894
244.059	17.243	895.092	674.292
245.074	17.225	894.664	673.839
246.088	17.379	894.236	674.066
247.103	17.497	893.664	674.043
248.117	17.424	893.295	673.417
249.132	17.537	892.797	673.431
250.147	17.812	892.214	674.013
251.161	17.764	891.690	673.371
252.176	17.854	890.871	673.047
253.190	17.879	890.095	672.500
254.205	17.867	889.821	672.185
255.220	17.940	888.820	671.657
256.234	17.805	888.460	670.794
257.249	17.909	887.731	670.593
258.263	17.849	886.814	669.609
259.278	17.875	885.961	669.004
260.293	17.885	885.540	668.668
261.307	18.030	885.406	669.075
262.322	17.844	884.910	667.915
263.336	18.067	883.838	667.916
264.351	17.965	883.273	667.032
265.366	17.967	882.468	666.374
266.380	18.032	882.004	666.217
267.395	17.891	881.394	665.147
268.409	17.741	880.696	663.979
269.424	17.946	879.836	664.068
270.439	17.917	878.677	663.021
271.453	17.788	878.375	662.234
272.468	17.854	877.766	661.972
273.482	17.835	877.112	661.350
274.497	17.890	876.694	661.187
275.512	17.839	875.958	660.376
276.526	17.842	875.938	660.316
277.541	17.981	875.368	660.363
278.555	18.019	875.072	660.228
279.570	18.100	874.408	659.982
280.585	18.232	873.130	659.468
281.599	18.103	872.225	658.232
282.614	18.051	871.606	657.503
283.628	17.929	871.250	656.708
284.643	17.990	870.874	656.600
285.657	18.038	870.020	656.085
286.672	18.153	869.348	655.958
287.687	18.263	868.662	655.805
288.701	18.069	868.127	654.602
289.716	18.169	867.292	654.298
290.730	18.179	866.995	654.054
291.745	18.231	866.479	653.804
292.760	18.240	865.851	653.308
293.774	18.296	865.207	652.976
294.789	18.414	864.546	652.868
295.803	18.274	864.028	651.889
296.818	18.129	863.087	650.570
297.833	18.226	862.123	650.151
298.847	18.224	861.572	649.671
299.862	18.187	861.714	649.582
300.876	18.329	860.999	649.522
301.891	18.314	860.625	649.127
302.906	18.343	860.065	648.757
303.920	18.691	859.239	649.392
304.935	18.809	858.712	649.382
305.949	18.556	858.285	648.049
306.964	18.504	857.026	646.844
307.979	18.503	856.918	646.701
308.993	18.684	856.348	646.895
310.008	18.611	855.810	646.155
311.022	18.509	855.282	645.316
312.037	18.517	854.540	644.729
313.052	18.463	853.725	643.855
314.066	18.275	853.322	642.790
315.081	18.367	852.623	642.549
316.095	18.156	852.182	641.370
317.110	18.398	851.712	641.868
318.125	18.334	851.423	641.352
319.139	18.284	850.616	640.500
320.154	18.421	850.233	640.669
321.168	18.518	849.406	640.349
322.183	18.476	848.859	639.726
323.197	18.438	848.722	639.424
324.212	18.539	848.127	639.295
325.227	18.467	847.653	638.613
326.241	18.470	846.698	637.848
327.256	18.492	846.322	637.589
328.270	18.457	845.499	636.784
329.285	18.545	844.840	636.555
330.300	18.500	844.344	635.960
331.314	18.438	843.970	635.393
332.329	18.606	843.543	635.636
333.343	18.652	842.995	635.338
334.358	18.657	842.667	635.053
335.373	18.708	842.481	635.047
336.387	18.721	842.132	634.775
337.402	18.771	842.026	634.824
338.416	18.885	841.662	634.914
339.431	18.986	841.354	634.998
340.446	18.863	841.124	634.315
341.460	19.001	840.522	634.312
342.475	19.120	839.951	634.266
343.489	19.114	839.689	633.990
344.504	19.225	838.997	633.816
345.519	19.271	838.536	633.583
346.533	19.079	837.903	632.342
347.548	19.051	837.399	631.803
348.562	18.798	836.777	630.351
349.577	18.748	836.488	629.895
350.592	18.745	835.728	629.256
351.606	18.815	834.821	628.774
352.621	18.963	834.072	628.695
353.635	18.912	833.788	628.239
354.650	18.913	833.137	627.697
355.665	18.860	832.810	627.200
356.679	19.197	831.852	627.650
357.694	18.944	831.269	626.235
358.708	19.056	830.686	626.146
359.723	18.995	830.332	625.602
360.738	19.047	829.700	625.261
361.752	19.216	828.752	625.104
362.767	19.257	828.719	625.172
363.781	19.241	828.087	624.584
364.796	19.367	827.674	624.673
365.810	19.439	827.198	624.519
366.825	19.520	826.954	624.572
367.840	19.472	826.292	623.844
368.854	19.425	825.854	623.287
369.869	19.402	825.407	622.814
370.883	19.417	824.928	622.452
371.898	19.390	824.817	622.213
372.913	19.432	824.125	621.788
373.927	19.540	823.483	621.639
374.942	19.487	823.287	621.245
375.956	19.443	823.037	620.843
376.971	19.498	822.765	620.779
377.986	19.730	821.958	620.949
379.000	19.718	821.335	620.382
380.015	19.672	820.754	619.723
381.029	19.605	820.445	619.193
382.044	19.515	819.983	618.469
383.059	19.658	819.256	618.376
384.073	19.708	818.322	617.796
385.088	19.525	817.737	616.644
386.102	19.430	817.158	615.816
387.117	19.492	816.356	615.376
388.132	19.584	815.765	615.206
389.146	19.554	815.676	614.975
390.161	19.559	815.244	614.613
391.175	19.686	814.812	614.685
392.190	19.656	813.987	613.903
393.205	19.637	813.724	613.582
394.219	19.550	813.369	612.953
395.234	19.538	812.955	612.544
396.248	19.465	812.334	611.762
397.263	19.482	812.041	611.549
398.278	19.524	811.430	611.181
399.292	19.505	811.126	610.831
400.307	19.479	810.449	610.175
401.321	19.588	810.100	610.243
402.336	19.674	809.197	609.814
403.350	19.645	809.241	609.691
404.365	19.692	809.368	609.899
405.380	19.660	808.648	609.189
406.394	19.879	808.221	609.586
407.409	19.942	807.504	609.211
408.423	19.960	807.430	609.165
409.438	20.044	806.809	608.939
410.453	20.084	806.594	608.861
411.467	20.073	806.155	608.440
412.482	20.216	805.650	608.505
413.496	20.098	805.561	607.969
414.511	20.068	805.074	607.443
415.526	20.398	804.341	607.992
416.540	20.040	804.201	606.581
417.555	20.129	803.420	606.247
418.569	20.239	803.403	606.567
419.584	20.172	802.853	605.863
420.599	20.043	802.701	605.245
421.613	162.023	1372.894	1797.986
422.628	140.752	1455.946	1798.067
