DTS Sentinel unit serial number:	SN413079Multiplexer serial number:	ORYXHardware model number:	OX4-SRSoftware version number:	ORYX F/W v4.00 Oryx Data Collector v3.7.2.0data status	okinstallation	princeton_trtdifferential loss correction	single-endedforward channel	channel 1reverse channel	N/Adate	2019/09/10time	21:20:11forward acquisition time	60.00reverse acquisition time	0.00gamma	496.2192k internal	0.2329k external	0.2329temperature offset calibration	0.9935default loss term (dB/km)	0.3790temperature slope calibration	1.0000multiplexer offset coefficient	1.0000multiplexer slope coefficient	1.0000fibre end	0.00T internal ref (°C)	31.30T ext. ref 1 (°C)	-0.31T ext. ref 2 (°C)	24.40length (m)	temperature (°C)	Stokes	anti-Stokes-747.200	-26.482	-0.202	0.119
-746.185	423.218	0.130	0.281
-745.171	800.000	0.022	0.080
-744.156	468.245	-0.051	0.116
-743.142	-19.461	0.032	0.020
-742.127	-72.562	-0.242	0.090
-741.112	384.909	0.070	-0.146
-740.098	-71.048	-0.047	0.018
-739.083	276.200	-0.194	0.346
-738.069	-101.138	-0.187	0.046
-737.054	-57.072	-0.198	-0.088
-736.039	-119.518	-0.311	0.054
-735.025	-119.366	0.223	-0.039
-734.010	339.720	-0.077	0.151
-732.996	399.665	0.103	-0.216
-731.981	-9.390	0.103	-0.069
-730.966	-175.343	-0.115	0.003
-729.952	-108.968	0.193	0.042
-728.937	800.000	-0.083	-0.285
-727.923	-136.957	0.059	0.007
-726.908	-175.575	0.161	-0.004
-725.894	-200.000	0.049	-0.360
-724.879	24.070	-0.463	-0.384
-723.864	-200.000	0.008	-0.251
-722.850	635.427	0.010	0.026
-721.835	-200.000	-0.016	-0.244
-720.821	155.856	-0.258	-0.357
-719.806	-6.147	0.116	-0.080
-718.791	-94.560	-0.100	-0.027
-717.777	43.442	-0.295	-0.271
-716.762	-76.444	-0.227	-0.080
-715.748	800.000	-0.051	-0.146
-714.733	-200.000	-0.005	0.239
-713.718	-80.121	0.070	0.024
-712.704	79.284	-0.090	-0.097
-711.689	-200.000	-0.028	-0.226
-710.675	-87.924	-0.138	0.042
-709.660	436.977	0.089	-0.196
-708.645	-185.429	-0.292	0.005
-707.631	694.349	-0.060	-0.159
-706.616	-9.588	-0.136	-0.091
-705.602	-122.619	-0.223	0.036
-704.587	188.198	-0.223	-0.335
-703.572	-113.973	-0.168	0.033
-702.558	-169.875	-0.344	-0.012
-701.543	-88.949	-0.269	-0.080
-700.529	-200.000	0.038	-0.186
-699.514	496.054	0.215	-0.497
-698.499	117.247	-0.042	-0.052
-697.485	-160.148	-0.119	0.006
-696.470	-39.597	-0.320	-0.168
-695.456	-200.000	0.033	-0.170
-694.441	-200.000	-0.035	-0.207
-693.426	366.501	0.047	0.095
-692.412	-200.000	-0.020	-0.167
-691.397	800.000	-0.021	-0.057
-690.383	716.440	0.260	-0.694
-689.368	-200.000	0.034	-0.221
-688.354	-200.000	0.035	0.259
-687.339	-200.000	0.024	0.258
-686.324	-200.000	0.004	-0.203
-685.310	-170.819	-0.184	0.006
-684.295	-200.000	-0.014	-0.237
-683.281	-200.000	0.026	0.200
-682.266	86.140	-0.232	-0.257
-681.251	-200.000	-0.012	-0.172
-680.237	205.615	0.085	-0.133
-679.222	8.121	0.229	-0.173
-678.208	-44.266	-0.210	-0.106
-677.193	-107.025	0.283	0.063
-676.178	-200.000	-0.005	-0.268
-675.164	-96.108	-0.323	-0.086
-674.149	-43.276	0.007	0.004
-673.135	54.951	0.041	0.039
-672.120	191.747	-0.052	0.078
-671.105	-79.195	0.091	-0.031
-670.091	-154.655	0.314	0.021
-669.076	-188.168	0.025	-0.000
-668.062	800.000	-0.042	0.175
-667.047	308.306	-0.021	0.040
-666.032	-51.613	-0.053	0.025
-665.018	800.000	-0.126	0.532
-664.003	-86.831	-0.316	-0.097
-662.989	-200.000	0.038	-0.423
-661.974	-104.936	-0.287	-0.066
-660.959	800.000	-0.069	-0.255
-659.945	35.438	0.158	0.139
-658.930	-74.054	-0.251	-0.091
-657.916	181.528	-0.176	-0.259
-656.901	47.288	0.095	-0.089
-655.886	354.676	0.013	0.025
-654.872	321.433	-0.088	0.168
-653.857	-200.000	0.006	0.142
-652.843	76.760	0.075	0.080
-651.828	51.559	0.217	0.207
-650.814	800.000	0.026	0.110
-649.799	-11.884	-0.163	-0.108
-648.784	45.542	0.077	0.072
-647.770	200.147	-0.149	0.230
-646.755	-159.882	0.342	0.019
-645.741	224.068	-0.045	0.072
-644.726	800.000	0.010	-0.031
-643.711	22.763	0.173	-0.142
-642.697	-106.349	-0.207	0.046
-641.682	360.587	-0.153	0.306
-640.668	-85.201	-0.204	0.064
-639.653	-42.156	-0.067	0.034
-638.638	267.126	0.058	-0.102
-637.624	-55.005	-0.121	0.055
-636.609	134.689	0.128	0.166
-635.595	-200.000	-0.001	0.136
-634.580	373.186	-0.141	-0.288
-633.565	-84.276	-0.393	-0.125
-632.551	-102.784	0.021	-0.005
-631.536	-58.681	-0.075	0.033
-630.522	-27.813	-0.248	-0.144
-629.507	-114.448	0.261	0.050
-628.492	154.107	0.078	-0.108
-627.478	-121.327	-0.351	0.059
-626.463	-88.369	0.204	-0.061
-625.449	-200.000	0.033	0.150
-624.434	338.413	-0.168	0.328
-623.419	-47.192	0.131	0.064
-622.405	-60.451	0.354	-0.151
-621.390	-134.026	0.279	0.035
-620.376	4.321	-0.226	0.166
-619.361	-68.645	0.199	-0.077
-618.346	-44.837	0.159	-0.080
-617.332	800.000	0.015	-0.057
-616.317	333.096	0.044	-0.086
-615.303	-154.430	0.158	0.011
-614.288	-101.016	0.276	-0.068
-613.273	-155.409	-0.370	-0.024
-612.259	-159.605	0.162	0.009
-611.244	-7.557	-0.244	0.166
-610.230	-200.000	0.032	-0.334
-609.215	-158.616	0.209	0.012
-608.201	248.370	-0.158	-0.267
-607.186	800.000	0.045	0.170
-606.171	-21.740	-0.079	-0.048
-605.157	77.863	-0.244	0.260
-604.142	-125.176	-0.043	-0.007
-603.128	-200.000	0.020	-0.252
-602.113	124.158	0.128	0.162
-601.098	-159.219	-0.372	0.021
-600.084	-90.307	0.126	0.037
-599.069	-139.141	-0.140	0.015
-598.055	-97.384	-0.273	-0.071
-597.040	-195.672	0.197	-0.001
-596.025	21.811	0.273	0.223
-595.011	-54.253	0.244	0.111
-593.996	-200.000	-0.017	0.198
-592.982	-184.652	0.132	0.002
-591.967	800.000	0.068	-0.251
-590.952	34.754	0.085	-0.074
-589.938	800.000	0.042	-0.181
-588.923	-200.000	-0.003	0.138
-587.909	-49.336	-0.078	0.037
-586.894	-147.857	0.152	-0.013
-585.879	214.884	-0.121	0.193
-584.865	-87.952	-0.239	-0.072
-583.850	-61.975	0.220	0.092
-582.836	-44.813	-0.069	-0.034
-581.821	518.205	-0.118	0.277
-580.806	-164.935	0.286	0.013
-579.792	-119.419	-0.339	-0.059
-578.777	-200.000	-0.000	0.058
-577.763	210.855	-0.091	-0.143
-576.748	-177.594	0.167	0.004
-575.733	-200.000	-0.017	0.206
-574.719	51.840	0.179	0.170
-573.704	-26.758	-0.254	-0.149
-572.690	-61.718	-0.121	-0.051
-571.675	-200.000	0.040	-0.265
-570.661	-200.000	0.031	-0.420
-569.646	649.018	-0.045	-0.114
-568.631	214.251	-0.044	-0.070
-567.617	-104.314	0.113	-0.026
-566.602	521.862	-0.072	-0.170
-565.588	800.000	0.048	0.201
-564.573	800.000	0.037	0.144
-563.558	-44.403	0.171	0.086
-562.544	130.166	-0.208	0.266
-561.529	-92.733	0.272	0.076
-560.515	31.978	-0.345	-0.297
-559.500	10.303	-0.197	-0.150
-558.485	401.327	-0.129	0.270
-557.471	64.849	-0.036	-0.036
-556.456	-161.008	0.103	0.005
-555.442	69.763	0.098	-0.101
-554.427	-101.663	0.261	-0.063
-553.412	128.795	-0.298	-0.380
-552.398	-200.000	-0.002	-0.302
-551.383	-117.900	0.552	-0.099
-550.369	54.265	0.236	-0.227
-549.354	-5.109	0.383	0.263
-548.339	12.768	-0.187	-0.144
-547.325	666.873	0.048	-0.125
-546.310	-120.833	0.219	-0.037
-545.296	-59.837	-0.074	0.032
-544.281	-57.444	-0.118	0.052
-543.266	-78.122	0.096	0.033
-542.252	-200.000	0.001	-0.067
-541.237	-121.813	-0.058	0.010
-540.223	134.311	0.343	0.444
-539.208	-200.000	0.051	-0.311
-538.193	43.841	0.100	-0.091
-537.179	369.597	0.129	0.260
-536.164	14.852	0.215	-0.168
-535.150	248.875	-0.045	-0.076
-534.135	79.837	-0.254	0.273
-533.121	800.000	0.013	0.054
-532.106	-81.949	-0.075	-0.024
-531.091	137.014	0.063	-0.082
-530.077	368.671	-0.107	-0.217
-529.062	136.113	0.186	0.242
-528.048	-42.212	-0.266	-0.136
-527.033	-49.547	-0.260	0.124
-526.018	43.351	0.170	-0.155
-525.004	-77.261	-0.374	-0.130
-523.989	-62.800	-0.100	0.041
-522.975	-134.660	0.062	-0.008
-521.960	-120.086	-0.243	-0.042
-520.945	120.902	0.156	-0.194
-519.931	-88.357	-0.143	-0.043
-518.916	-116.185	-0.300	-0.056
-517.902	70.869	-0.090	-0.093
-516.887	243.086	0.043	0.071
-515.872	58.899	-0.126	0.123
-514.858	-157.854	-0.128	-0.008
-513.843	800.000	-0.062	-0.173
-512.829	-35.320	0.375	0.204
-511.814	800.000	-0.091	0.345
-510.799	-64.207	0.091	-0.037
-509.785	800.000	-0.032	0.111
-508.770	-12.333	-0.153	-0.100
-507.756	800.000	0.070	0.217
-506.741	297.361	-0.145	0.266
-505.726	-200.000	-0.052	-0.449
-504.712	416.011	0.062	-0.131
-503.697	131.722	0.051	0.065
-502.683	-24.381	-0.329	-0.196
-501.668	372.738	0.041	0.083
-500.653	-41.883	0.121	0.062
-499.639	68.705	0.053	0.054
-498.624	-105.321	0.089	0.020
-497.610	483.718	0.185	0.420
-496.595	-62.578	-0.309	0.128
-495.581	-200.000	0.017	0.222
-494.566	800.000	0.057	0.222
-493.551	-141.471	0.341	-0.034
-492.537	-102.912	-0.241	-0.057
-491.522	8.793	-0.208	0.157
-490.508	-49.372	-0.385	-0.183
-489.493	193.550	-0.066	-0.100
-488.478	282.329	0.150	0.269
-487.464	309.841	0.006	-0.010
-486.449	-200.000	0.007	0.118
-485.435	-39.447	-0.236	-0.124
-484.420	31.183	-0.230	0.197
-483.405	-112.455	-0.211	-0.042
-482.391	-128.124	0.299	-0.043
-481.376	53.296	0.191	0.182
-480.362	-61.700	-0.426	0.178
-479.347	-54.553	-0.334	-0.151
-478.332	-167.627	0.314	0.012
-477.318	401.323	0.062	-0.130
-476.303	154.956	0.023	0.032
-475.289	-108.395	-0.385	0.083
-474.274	-200.000	-0.016	0.229
-473.259	-80.632	0.055	0.018
-472.245	-171.050	0.346	0.012
-471.230	-200.000	-0.024	0.141
-470.216	42.742	0.172	0.156
-469.201	-200.000	0.009	-0.228
-468.186	327.565	0.053	-0.102
-467.172	-136.347	-0.213	0.025
-466.157	-25.343	0.156	-0.092
-465.143	564.156	-0.044	-0.106
-464.128	568.017	-0.114	-0.276
-463.113	-200.000	-0.020	0.110
-462.099	-77.950	-0.425	0.146
-461.084	545.599	0.053	-0.126
-460.070	-20.522	0.183	0.112
-459.055	-200.000	-0.015	0.147
-458.040	-123.113	0.191	0.031
-457.026	-183.776	-0.170	0.003
-456.011	-50.672	0.058	0.027
-454.997	-200.000	-0.028	0.209
-453.982	-77.280	0.404	-0.140
-452.968	-124.913	0.577	-0.089
-451.953	-200.000	0.047	-0.265
-450.938	-129.567	0.206	0.028
-449.924	259.166	-0.183	-0.314
-448.909	36.993	0.045	-0.040
-447.895	-80.882	-0.199	-0.066
-446.880	-166.139	-0.111	-0.005
-445.865	142.165	-0.033	0.043
-444.851	69.889	-0.086	-0.089
-443.836	800.000	-0.059	-0.218
-442.822	-200.000	0.002	0.031
-441.807	800.000	0.061	-0.174
-440.792	236.566	-0.153	-0.252
-439.778	-82.431	-0.175	0.057
-438.763	79.577	-0.071	-0.076
-437.749	-34.514	-0.317	-0.173
-436.734	-142.382	0.195	-0.019
-435.719	-128.142	-0.315	-0.045
-434.705	139.368	-0.110	0.145
-433.690	281.293	-0.189	-0.336
-432.676	-28.246	0.115	-0.066
-431.661	-72.463	-0.263	0.097
-430.646	-68.122	-0.324	-0.125
-429.632	-17.340	-0.200	-0.125
-428.617	284.546	-0.074	-0.133
-427.603	-200.000	0.051	-0.294
-426.588	15.017	-0.186	-0.145
-425.573	-200.000	0.014	0.079
-424.559	527.584	-0.168	0.393
-423.544	632.761	0.071	-0.179
-422.530	-150.203	0.096	-0.007
-421.515	-200.000	0.006	0.144
-420.500	-5.649	-0.186	0.127
-419.486	234.449	-0.185	-0.303
-418.471	-120.630	0.178	0.030
-417.457	26.122	-0.110	-0.091
-416.442	-70.712	-0.067	-0.025
-415.428	800.000	0.110	0.315
-414.413	-76.197	0.083	-0.029
-413.398	-1.444	-0.394	-0.276
-412.384	151.626	0.320	0.433
-411.369	-99.896	-0.219	-0.054
-410.355	-84.879	0.147	-0.046
-409.340	-159.418	0.073	-0.004
-408.325	-200.000	0.004	0.072
-407.311	800.000	-0.088	0.279
-406.296	-100.379	0.065	-0.016
-405.282	-101.196	0.116	0.028
-404.267	47.927	0.059	0.055
-403.252	390.804	0.023	0.048
-402.238	72.283	-0.236	0.245
-401.223	-22.623	0.265	-0.159
-400.209	298.184	0.094	-0.172
-399.194	800.000	0.076	-0.285
-398.179	-200.000	-0.002	0.174
-397.165	800.000	-0.107	0.458
-396.150	-19.752	0.171	0.105
-395.136	-31.738	-0.115	0.064
-394.121	800.000	-0.038	0.148
-393.106	-10.650	0.317	0.208
-392.092	-25.479	-0.149	-0.087
-391.077	-25.100	0.251	0.148
-390.063	150.063	-0.187	-0.252
-389.048	-200.000	-0.023	-0.104
-388.033	-200.000	-0.014	-0.292
-387.019	257.186	0.061	-0.105
-386.004	6.318	0.207	-0.153
-384.990	45.334	-0.124	0.114
-383.975	-6.065	0.070	0.048
-382.960	-95.357	0.214	0.057
-381.946	-135.796	0.292	0.034
-380.931	12.674	0.308	0.236
-379.917	-53.670	0.248	0.113
-378.902	-167.550	0.124	-0.005
-377.888	182.492	0.045	0.066
-376.873	-125.313	0.163	-0.025
-375.858	204.121	0.119	-0.182
-374.844	800.000	-0.125	-0.379
-373.829	-200.000	0.000	0.016
-372.815	-200.000	0.007	0.075
-371.800	-152.415	-0.166	-0.012
-370.785	216.329	0.103	0.163
-369.771	-112.031	0.196	-0.039
-368.756	-134.953	0.273	0.033
-367.742	-71.149	-0.081	0.030
-366.727	134.615	0.084	-0.108
-365.712	28.965	0.318	-0.268
-364.698	-95.313	0.188	0.050
-363.683	111.554	-0.104	-0.124
-362.669	-200.000	-0.013	-0.070
-361.654	107.839	0.047	0.055
-360.639	77.581	0.089	0.094
-359.625	37.559	0.130	-0.115
-358.610	-100.690	-0.179	0.044
-357.596	-140.868	0.357	-0.036
-356.581	-200.000	-0.027	-0.158
-355.566	28.242	0.121	-0.101
-354.552	351.014	-0.039	-0.076
-353.537	-200.000	0.066	0.388
-352.523	-7.920	-0.126	0.084
-351.508	-161.834	0.393	0.020
-350.493	781.881	-0.060	0.163
-349.479	56.975	0.108	-0.104
-348.464	-48.736	0.347	-0.165
-347.450	-166.795	0.293	-0.012
-346.435	-200.000	0.004	0.055
-345.420	487.175	0.065	0.148
-344.406	-139.481	0.294	-0.031
-343.391	652.705	0.080	0.204
-342.377	-200.000	0.014	0.077
-341.362	538.985	0.124	0.293
-340.348	-118.798	0.299	-0.052
-339.333	-19.910	-0.186	0.114
-338.318	227.705	-0.073	0.117
-337.304	800.000	-0.074	-0.283
-336.289	202.840	-0.084	-0.129
-335.275	-125.557	-0.255	-0.038
-334.260	-70.217	0.076	0.029
-333.245	757.325	0.063	-0.170
-332.231	-7.287	-0.222	0.149
-331.216	-51.132	-0.221	0.103
-330.202	800.000	-0.050	0.153
-329.187	-110.400	0.263	0.054
-328.172	87.203	-0.018	0.020
-327.158	402.968	0.095	-0.198
-326.143	-200.000	0.006	-0.330
-325.129	-126.473	-0.242	-0.036
-324.114	800.000	0.095	0.350
-323.099	-183.244	-0.074	-0.001
-322.085	-134.432	-0.220	-0.027
-321.070	-17.468	-0.145	-0.090
-320.056	-63.798	0.073	0.030
-319.041	-52.314	-0.149	0.068
-318.026	41.080	0.068	0.061
-317.012	-165.282	0.246	0.011
-315.997	355.307	-0.119	-0.234
-314.983	800.000	-0.011	0.031
-313.968	46.878	0.089	-0.082
-312.953	55.040	0.189	-0.181
-311.939	-200.000	-0.065	0.475
-310.924	-109.511	-0.147	-0.031
-309.910	-94.882	-0.167	-0.045
-308.895	196.606	0.172	0.260
-307.880	216.569	0.066	-0.103
-306.866	24.465	0.228	-0.187
-305.851	53.513	0.127	0.121
-304.837	-17.650	-0.227	-0.141
-303.822	800.000	-0.027	0.096
-302.807	-200.000	0.078	0.393
-301.793	-200.000	0.007	0.059
-300.778	-125.580	0.237	-0.036
-299.764	286.287	0.188	-0.336
-298.749	266.258	-0.169	0.293
-297.735	-123.202	0.142	-0.022
-296.720	-200.000	-0.032	-0.245
-295.705	800.000	0.103	0.300
-294.691	800.000	0.047	0.197
-293.676	140.956	0.086	0.113
-292.662	-50.534	0.178	0.083
-291.647	305.541	-0.246	0.452
-290.632	-118.353	0.327	-0.058
-289.618	800.000	0.042	0.143
-288.603	800.000	0.034	-0.139
-287.589	-106.878	-0.031	0.007
-286.574	283.685	0.159	-0.283
-285.559	800.000	0.111	-0.416
-284.545	800.000	0.053	-0.202
-283.530	-71.719	0.268	-0.099
-282.516	-63.868	-0.135	0.055
-281.501	-142.346	-0.360	0.035
-280.486	359.169	-0.116	0.230
-279.472	-75.028	0.352	-0.125
-278.457	-119.512	-0.243	0.042
-277.443	145.144	-0.162	0.215
-276.428	-200.000	0.013	0.213
-275.413	-53.733	-0.182	0.082
-274.399	91.869	0.131	0.146
-273.384	55.684	0.153	0.146
-272.370	-43.127	-0.191	0.095
-271.355	79.502	-0.234	0.248
-270.340	717.236	-0.031	-0.081
-269.326	280.767	-0.111	0.196
-268.311	-142.061	0.163	0.016
-267.297	59.354	-0.181	-0.176
-266.282	800.000	-0.036	0.115
-265.267	-187.340	0.165	0.002
-264.253	87.116	-0.198	-0.217
-263.238	50.202	-0.178	-0.166
-262.224	-110.913	0.239	0.049
-261.209	-85.238	0.146	0.045
-260.195	55.823	-0.108	-0.104
-259.180	103.281	0.095	-0.110
-258.165	32.476	0.125	-0.107
-257.151	-86.246	0.297	0.090
-256.136	-200.000	-0.015	-0.268
-255.122	800.000	-0.162	-0.550
-254.107	-156.523	-0.138	0.009
-253.092	-200.000	-0.022	0.142
-252.078	734.676	-0.083	-0.219
-251.063	-85.417	-0.240	-0.074
-250.049	304.495	0.050	-0.092
-249.034	-200.000	0.000	-0.119
-248.019	-138.458	0.192	0.021
-247.005	433.392	0.137	0.293
-245.990	-121.470	-0.174	0.029
-244.976	800.000	0.103	-0.323
-243.961	-200.000	0.034	-0.372
-242.946	-83.607	0.189	-0.060
-241.932	800.000	0.042	-0.181
-240.917	-102.886	-0.264	-0.062
-239.903	563.416	-0.029	0.068
-238.888	474.822	0.067	-0.149
-237.873	-129.596	0.100	0.014
-236.859	211.482	-0.096	0.149
-235.844	-88.325	0.062	-0.018
-234.830	-117.601	-0.145	0.026
-233.815	-200.000	0.011	-0.119
-232.800	-129.374	0.050	0.007
-231.786	-200.000	-0.035	-0.167
-230.771	-200.000	0.022	0.516
-229.757	150.667	0.053	0.071
-228.742	162.044	0.054	-0.075
-227.727	104.613	-0.120	-0.139
-226.713	-162.647	0.080	-0.004
-225.698	196.063	-0.169	0.254
-224.684	-108.669	-0.427	0.090
-223.669	-200.000	0.006	-0.061
-222.655	-27.418	0.364	0.209
-221.640	-200.000	0.013	0.233
-220.625	-102.984	0.193	0.045
-219.611	-53.241	-0.340	-0.154
-218.596	1.916	0.151	-0.107
-217.582	-200.000	-0.030	-0.149
-216.567	-131.870	-0.529	0.068
-215.552	-53.375	-0.220	0.100
-214.538	-107.511	0.215	0.047
-213.523	800.000	-0.109	-0.324
-212.509	88.775	0.060	-0.066
-211.494	368.706	0.012	0.024
-210.479	-164.405	-0.350	-0.016
-209.465	-200.000	-0.004	-0.186
-208.450	11.749	0.171	0.129
-207.436	528.157	0.158	-0.367
-206.421	-62.475	-0.369	0.151
-205.406	210.103	-0.174	0.269
-204.392	-200.000	0.026	0.199
-203.377	268.843	-0.021	0.036
-202.363	24.178	0.079	0.065
-201.348	-28.195	0.146	0.083
-200.333	800.000	-0.051	-0.183
-199.319	117.787	-0.091	0.110
-198.304	-200.000	0.022	-0.393
-197.290	17.097	-0.399	0.311
-196.275	106.527	0.041	-0.047
-195.260	-200.000	0.033	0.356
-194.246	-200.000	0.032	0.147
-193.231	-181.252	-0.132	0.003
-192.217	85.475	-0.059	0.064
-191.202	-4.314	-0.038	-0.026
-190.187	-170.253	0.161	0.006
-189.173	-76.939	0.100	0.034
-188.158	-200.000	0.035	-0.189
-187.144	800.000	0.019	-0.059
-186.129	-14.984	-0.057	0.036
-185.114	-44.516	0.346	-0.170
-184.100	10.978	-0.119	0.090
-183.085	-126.985	-0.102	-0.015
-182.071	-200.000	-0.100	-0.449
-181.056	77.850	0.182	0.191
-180.042	315.368	0.046	0.086
-179.027	-176.923	0.189	-0.005
-178.012	-62.889	-0.201	0.082
-176.998	222.918	0.117	-0.186
-175.983	-200.000	-0.012	-0.074
-174.969	25.252	0.081	-0.066
-173.954	420.672	-0.106	0.223
-172.939	-162.779	-0.208	0.010
-171.925	-23.907	-0.106	-0.062
-170.910	-54.430	-0.268	-0.120
-169.896	92.686	0.213	0.236
-168.881	-106.847	0.197	0.043
-167.866	-27.393	0.424	0.243
-166.852	800.000	0.124	-0.351
-165.837	-60.654	-0.380	-0.158
-164.823	230.601	-0.018	0.029
-163.808	169.511	-0.136	-0.191
-162.793	-100.729	-0.109	-0.026
-161.779	-60.176	-0.178	0.075
-160.764	196.574	-0.264	0.396
-159.750	7.663	0.201	-0.148
-158.735	592.012	0.147	-0.358
-157.720	-128.745	-0.302	-0.042
-156.706	800.000	0.025	0.077
-155.691	-200.000	-0.002	0.088
-154.677	800.000	-0.071	0.225
-153.662	-200.000	-0.008	0.086
-152.647	95.258	-0.047	0.052
-151.633	-45.923	-0.033	0.016
-150.618	273.171	-0.224	-0.390
-149.604	-107.942	0.199	-0.042
-148.589	-200.000	0.007	0.408
-147.574	2.934	-0.129	-0.092
-146.560	200.071	-0.103	-0.156
-145.545	47.290	0.140	-0.128
-144.531	189.475	0.180	-0.266
-143.516	44.606	0.044	0.040
-142.502	-200.000	-0.042	0.274
-141.487	50.767	-0.111	0.103
-140.472	130.578	-0.129	-0.162
-139.458	-200.000	-0.011	0.143
-138.443	-113.011	-0.387	-0.075
-137.429	263.391	0.225	0.385
-136.414	42.469	-0.335	0.299
-135.399	46.737	-0.161	-0.147
-134.385	-200.000	-0.053	-0.283
-133.370	-164.333	-0.155	-0.007
-132.356	151.643	-0.058	0.078
-131.341	800.000	-0.042	0.133
-130.326	800.000	0.075	-0.301
-129.312	-1.837	0.158	-0.110
-128.297	51.228	-0.294	-0.274
-127.283	26.002	0.138	-0.114
-126.268	469.238	0.021	-0.047
-125.253	7.849	0.238	-0.176
-124.239	565.884	-0.080	-0.190
-123.224	-54.548	0.423	0.188
-122.210	-60.596	-0.119	0.049
-121.195	670.183	-0.079	0.200
-120.180	-95.110	0.479	0.127
-119.166	93.205	0.313	0.347
-118.151	-40.423	0.201	0.103
-117.137	-200.000	-0.027	0.125
-116.122	-44.434	0.174	0.086
-115.107	34.916	0.296	-0.254
-114.093	-200.000	-0.035	-0.372
-113.078	800.000	0.084	-0.295
-112.064	215.842	-0.051	0.079
-111.049	-200.000	0.033	0.321
-110.034	-20.090	0.089	-0.054
-109.020	88.143	0.155	-0.169
-108.005	-82.558	-0.178	-0.057
-106.991	126.998	-0.063	0.078
-105.976	-93.465	0.105	0.029
-104.962	800.000	0.032	-0.116
-103.947	-200.000	-0.028	0.167
-102.932	144.255	0.127	0.166
-101.918	274.109	-0.087	-0.151
-100.903	216.115	0.048	-0.075
-99.889	254.257	-0.040	0.068
-98.874	-0.114	-0.192	-0.134
-97.859	-200.000	0.011	-0.257
-96.845	141.059	-0.210	0.272
-95.830	198.918	0.078	0.117
-94.816	-173.388	-0.161	-0.005
-93.801	-39.785	0.149	-0.077
-92.786	-17.488	-0.291	-0.180
-91.772	77.832	-0.276	0.289
-90.757	184.193	0.170	0.247
-89.743	6.243	0.288	-0.210
-88.728	-170.256	-0.352	-0.012
-87.713	-105.621	0.256	0.057
-86.699	-62.503	-0.374	-0.153
-85.684	-140.108	0.248	0.026
-84.670	765.493	0.116	0.311
-83.655	220.342	0.065	-0.103
-82.640	-200.000	0.010	-0.091
-81.626	-68.985	-0.073	0.028
-80.611	-64.260	-0.242	-0.097
-79.597	25.008	-0.178	0.145
-78.582	-77.834	-0.112	-0.038
-77.567	202.561	-0.079	-0.120
-76.553	210.601	-0.154	0.237
-75.538	-200.000	0.028	0.132
-74.524	659.036	0.010	0.026
-73.509	-151.835	0.173	-0.012
-72.494	95.134	-0.051	-0.057
-71.480	-52.583	0.152	0.069
-70.465	41.364	0.124	-0.110
-69.451	800.000	-0.033	0.104
-68.436	24.633	0.215	-0.174
-67.422	-24.991	0.211	0.123
-66.407	-24.169	0.112	0.066
-65.392	-171.114	0.502	0.017
-64.378	9.629	-0.281	0.209
-63.363	-39.240	0.258	-0.133
-62.349	800.000	0.151	0.442
-61.334	-36.136	-1.161	-0.615
-60.319	150.731	0.685	0.913
-59.305	800.000	-0.319	-1.080
-58.290	67.521	1.011	1.012
-57.276	503.005	0.759	1.720
-56.261	-200.000	98.694	611.748
-55.246	591.172	1409.746	3410.677
-54.232	191.482	2603.344	3843.525
-53.217	117.738	2142.563	2585.894
-52.203	43.432	1595.473	1429.379
-51.188	34.896	1332.764	1143.223
-50.173	31.716	1291.681	1089.476
-49.159	54.603	1341.016	1267.188
-48.144	56.397	1357.077	1292.929
-47.130	35.022	1315.086	1128.624
-46.115	31.496	1297.849	1093.218
-45.100	31.270	1292.772	1087.583
-44.086	31.121	1290.401	1084.682
-43.071	31.177	1287.729	1082.718
-42.057	31.037	1286.157	1080.538
-41.042	31.052	1284.529	1079.215
-40.027	31.205	1282.874	1078.669
-39.013	31.170	1281.078	1076.915
-37.998	31.211	1279.070	1075.415
-36.984	31.253	1277.523	1074.316
-35.969	31.436	1274.882	1073.100
-34.954	31.323	1273.647	1071.375
-33.940	31.325	1272.181	1070.109
-32.925	31.279	1271.455	1069.194
-31.911	31.442	1269.903	1068.776
-30.896	31.476	1268.725	1067.937
-29.881	31.369	1267.700	1066.420
-28.867	31.407	1265.942	1065.119
-27.852	31.408	1264.004	1063.448
-26.838	31.515	1263.008	1063.178
-25.823	31.469	1261.763	1061.824
-24.809	31.386	1259.718	1059.595
-23.794	31.470	1258.814	1059.268
-22.779	31.392	1257.173	1057.404
-21.765	31.458	1256.049	1056.787
-20.750	31.351	1254.655	1054.967
-19.736	31.192	1253.958	1053.443
-18.721	31.274	1252.421	1052.575
-17.706	31.214	1251.685	1051.573
-16.692	31.255	1249.741	1050.129
-15.677	31.318	1248.613	1049.493
-14.663	31.216	1248.082	1048.436
-13.648	31.245	1246.483	1047.212
-12.633	31.204	1245.888	1046.438
-11.619	31.256	1244.921	1045.875
-10.604	31.216	1244.197	1045.002
-9.590	31.140	1243.185	1043.688
-8.575	31.153	1242.207	1042.895
-7.560	31.188	1241.260	1042.254
-6.546	31.186	1240.337	1041.428
-5.531	31.119	1239.608	1040.401
-4.517	31.248	1238.751	1040.363
-3.502	31.212	1238.354	1039.786
-2.487	31.099	1237.355	1038.277
-1.473	31.109	1233.020	1034.652
-0.458	29.594	1217.851	1013.579
0.556	23.714	1200.438	974.949
1.571	19.962	1205.043	957.887
2.586	19.166	1219.648	964.951
3.600	18.822	1209.543	954.958
4.615	13.732	1138.244	871.899
5.629	4.414	1062.643	767.997
6.644	-0.038	1042.721	731.892
7.659	-0.400	1040.272	728.350
8.673	-0.312	1038.733	727.632
9.688	-0.469	1037.908	726.229
10.702	-0.120	1036.177	726.645
11.717	5.809	1044.241	761.074
12.731	14.907	1056.823	814.685
13.746	18.753	1061.460	836.970
14.761	19.090	1061.957	838.927
15.775	19.064	1060.933	837.918
16.790	18.738	1060.196	835.677
17.804	18.676	1059.659	834.877
18.819	18.709	1059.229	834.623
19.834	18.764	1058.685	834.391
20.848	18.711	1058.617	834.004
21.863	18.732	1057.865	833.439
22.877	18.777	1056.925	832.843
23.892	18.541	1056.541	831.325
24.907	18.760	1055.926	831.828
25.921	18.797	1054.234	830.601
26.936	18.671	1053.297	829.180
27.950	18.662	1051.591	827.718
28.965	18.526	1049.775	825.563
29.980	18.686	1047.628	824.572
30.994	18.808	1046.746	824.386
32.009	18.837	1045.458	823.441
33.023	18.766	1043.980	821.861
34.038	18.755	1043.453	821.323
35.053	18.751	1043.300	821.111
36.067	18.840	1041.908	820.368
37.082	18.886	1041.262	820.008
38.096	19.014	1040.764	820.153
39.111	19.045	1039.844	819.500
40.126	18.963	1038.047	817.622
41.140	18.632	1036.425	814.703
42.155	18.517	1035.235	813.150
43.169	18.661	1034.072	812.843
44.184	18.661	1032.643	811.649
45.199	18.456	1032.367	810.390
46.213	18.576	1030.857	809.702
47.228	18.613	1029.948	809.090
48.242	18.527	1029.416	808.195
49.257	18.660	1028.558	808.078
50.271	18.721	1027.608	807.547
51.286	18.821	1026.621	807.169
52.301	18.676	1026.133	806.033
53.315	18.812	1024.446	805.274
54.330	18.906	1023.453	804.865
55.344	18.882	1022.985	804.312
56.359	18.753	1021.631	802.572
57.374	18.541	1020.869	800.914
58.388	18.684	1020.165	800.958
59.403	18.631	1019.360	800.006
60.417	18.497	1017.838	798.118
61.432	18.598	1017.715	798.422
62.447	18.758	1016.605	798.221
63.461	18.708	1015.953	797.409
64.476	18.728	1015.053	796.722
65.490	18.684	1013.721	795.404
66.505	18.717	1013.351	795.194
67.520	18.581	1013.036	794.249
68.534	18.377	1011.770	792.243
69.549	18.323	1010.055	790.578
70.563	18.277	1009.933	790.201
71.578	18.280	1008.888	789.328
72.593	18.243	1008.032	788.418
73.607	18.455	1007.218	788.689
74.622	18.590	1007.161	789.193
75.636	18.525	1006.842	788.576
76.651	18.411	1005.121	786.636
77.666	18.316	1004.821	785.896
78.680	18.475	1004.219	786.085
79.695	18.556	1003.464	785.794
80.709	18.535	1002.743	785.063
81.724	18.465	1002.203	784.253
82.739	18.578	1000.825	783.622
83.753	18.760	1000.896	784.439
84.768	18.975	999.737	784.439
85.782	19.117	998.661	784.176
86.797	18.973	997.472	782.514
87.812	18.751	996.913	780.998
88.826	18.892	995.982	780.840
89.841	19.018	994.997	780.573
90.855	19.014	993.949	779.662
91.870	18.871	992.796	778.042
92.884	18.918	991.680	777.310
93.899	18.764	990.976	775.992
94.914	19.045	990.179	776.571
95.928	18.895	988.862	774.792
96.943	18.710	987.721	772.995
97.957	18.471	986.605	770.977
98.972	18.292	985.168	768.985
99.987	18.531	984.850	769.742
101.001	18.782	984.278	770.353
102.016	18.830	983.171	769.633
103.030	18.580	982.238	767.713
104.045	18.448	981.602	766.559
105.060	18.312	980.206	764.794
106.074	18.545	979.771	765.426
107.089	18.967	978.941	766.594
108.103	18.740	978.262	764.984
109.118	18.645	976.877	763.410
110.133	18.644	976.216	762.821
111.147	18.538	974.712	761.108
112.162	18.396	973.200	759.232
113.176	18.649	972.560	759.782
114.191	18.596	971.820	758.904
115.206	18.305	970.640	756.628
116.220	18.292	970.427	756.338
117.235	18.343	969.173	755.519
118.249	18.452	967.990	755.010
119.264	18.350	967.539	754.141
120.279	18.398	966.804	753.714
121.293	18.549	965.885	753.595
122.308	18.511	965.253	752.869
123.322	18.547	963.324	751.455
124.337	18.394	962.170	749.819
125.352	17.983	960.594	746.728
126.366	17.850	960.034	745.646
127.381	18.497	959.580	748.053
128.395	18.749	958.951	748.593
129.410	18.925	957.886	748.461
130.424	18.856	956.943	747.359
131.439	18.819	956.066	746.447
132.454	18.836	954.927	745.567
133.468	18.916	953.587	744.800
134.483	18.993	953.123	744.704
135.497	19.080	952.282	744.359
136.512	19.017	951.930	743.747
137.527	19.046	950.929	743.023
138.541	19.044	950.148	742.340
139.556	19.183	948.860	741.866
140.570	19.015	948.338	740.666
141.585	18.971	947.185	739.513
142.600	19.056	946.323	739.139
143.614	19.291	945.466	739.413
144.629	19.287	944.538	738.603
145.643	19.149	943.449	737.096
146.658	18.990	942.187	735.365
147.673	19.056	940.883	734.566
148.687	18.847	940.325	733.173
149.702	18.793	939.694	732.388
150.716	18.843	938.654	731.726
151.731	19.123	937.809	732.190
152.746	19.098	937.483	731.767
153.760	19.256	936.620	731.697
154.775	19.237	936.242	731.256
155.789	19.218	935.158	730.264
156.804	19.136	934.419	729.277
157.819	19.148	933.794	728.776
158.833	19.395	932.454	728.710
159.848	19.436	930.979	727.662
160.862	19.122	930.648	726.016
161.877	19.263	929.605	725.732
162.892	19.398	928.831	725.633
163.906	19.180	927.936	723.952
164.921	19.288	926.511	723.233
165.935	19.334	925.970	722.936
166.950	19.220	925.314	721.882
167.964	19.263	924.236	721.157
168.979	19.038	923.409	719.509
169.994	19.112	922.526	719.067
171.008	19.166	922.157	718.938
172.023	19.254	920.617	718.045
173.037	19.093	919.518	716.451
174.052	18.830	919.031	714.914
175.067	19.040	918.163	715.047
176.081	19.105	918.221	715.303
177.096	19.004	917.360	714.149
178.110	18.735	916.561	712.346
179.125	18.783	915.194	711.421
180.140	18.779	914.561	710.850
181.154	18.856	914.676	711.193
182.169	19.212	914.164	712.204
183.183	19.351	913.780	712.418
184.198	19.167	913.003	710.990
185.213	19.175	912.403	710.493
186.227	19.375	911.230	710.339
187.242	19.235	910.561	709.176
188.256	19.181	909.754	708.265
189.271	19.190	909.374	707.944
190.286	18.966	908.256	706.090
191.300	18.543	906.853	703.205
192.315	17.865	905.336	699.190
193.329	17.901	904.828	698.881
194.344	18.709	905.201	702.416
195.359	19.153	905.378	704.307
196.373	19.334	904.613	704.390
197.388	19.106	903.653	702.649
198.402	18.971	903.049	701.564
199.417	18.949	902.378	700.894
200.432	18.632	901.269	698.680
201.446	18.496	900.726	697.645
202.461	18.605	899.587	697.143
203.475	17.886	897.958	692.899
204.490	17.324	896.903	689.746
205.504	18.163	897.387	693.460
206.519	18.708	897.210	695.471
207.534	18.774	896.802	695.360
208.548	19.259	896.431	696.973
209.563	18.941	895.438	694.857
210.577	19.035	894.574	694.503
211.592	19.213	894.720	695.272
212.607	19.235	893.143	694.074
213.621	19.355	892.795	694.228
214.636	19.232	892.467	693.413
215.650	19.237	891.608	692.706
216.665	19.352	890.599	692.322
217.680	19.334	889.789	691.562
218.694	18.854	888.573	688.629
219.709	18.846	887.942	688.046
220.723	19.068	887.839	688.798
221.738	19.139	887.349	688.640
222.753	19.016	886.863	687.708
223.767	19.127	886.152	687.539
224.782	19.457	885.457	688.256
225.796	19.323	885.047	687.344
226.811	18.842	883.363	684.060
227.826	18.169	882.886	680.953
228.840	18.353	881.805	680.787
229.855	18.513	881.282	680.960
230.869	18.134	880.026	678.426
231.884	18.547	880.204	680.144
232.899	19.312	879.312	682.424
233.913	19.287	878.862	681.913
234.928	19.267	878.485	681.481
235.942	19.224	877.754	680.684
236.957	18.760	877.119	678.298
237.972	18.932	876.008	678.059
238.986	19.092	875.646	678.348
240.001	18.960	874.890	677.182
241.015	19.176	873.840	677.161
242.030	19.100	873.958	676.892
243.045	19.124	873.488	676.564
244.059	19.237	873.224	676.744
245.074	19.111	871.838	675.116
246.088	18.764	870.524	672.681
247.103	19.074	870.338	673.688
248.117	19.557	870.582	675.711
249.132	19.652	869.938	675.522
250.147	19.840	868.751	675.274
251.161	19.828	868.815	675.217
252.176	19.742	868.237	674.371
253.190	19.858	867.613	674.280
254.205	20.141	867.197	674.999
255.220	20.069	866.398	674.038
256.234	19.953	865.351	672.711
257.249	19.810	864.753	671.634
258.263	19.798	864.106	671.024
259.278	20.020	863.313	671.211
260.293	19.976	862.569	670.403
261.307	19.871	861.685	669.251
262.322	19.564	861.018	667.484
263.336	18.892	858.983	663.257
264.351	17.853	857.046	657.701
265.366	18.171	856.917	658.769
266.380	19.080	857.901	662.968
267.395	19.477	857.657	664.252
268.409	19.483	856.792	663.545
269.424	19.787	855.831	663.911
270.439	19.903	855.357	663.926
271.453	19.807	855.337	663.484
272.468	19.996	854.833	663.761
273.482	20.068	854.204	663.489
274.497	19.633	852.786	660.667
275.512	19.273	852.134	658.727
276.526	19.775	851.671	660.226
277.541	19.774	851.484	660.019
278.555	19.507	850.467	658.157
279.570	19.490	849.269	657.105
280.585	19.618	849.365	657.608
281.599	19.718	847.900	656.795
282.614	19.048	847.067	653.548
283.628	19.267	846.327	653.752
284.643	19.389	846.046	653.940
285.657	19.017	845.096	651.737
286.672	18.774	844.439	650.251
287.687	19.449	844.362	652.691
288.701	19.423	843.611	651.955
289.716	19.155	842.537	650.055
290.730	18.972	842.334	649.148
291.745	18.806	841.067	647.489
292.760	19.066	841.361	648.639
293.774	20.005	841.163	651.967
294.789	20.309	840.728	652.715
295.803	20.373	840.551	652.762
296.818	20.357	839.466	651.800
297.833	19.905	838.565	649.346
298.847	19.823	837.621	648.252
299.862	20.216	837.625	649.670
300.876	20.348	837.235	649.804
301.891	20.286	836.022	648.575
302.906	19.699	835.298	645.763
303.920	19.775	835.093	645.828
304.935	20.113	834.741	646.761
305.949	20.230	834.044	646.601
306.964	19.989	833.520	645.238
307.979	20.051	833.262	645.214
308.993	20.405	833.127	646.369
310.008	20.381	832.167	645.480
311.022	20.218	831.561	644.347
312.037	20.123	830.650	643.230
313.052	19.923	830.218	642.097
314.066	19.126	828.420	637.697
315.081	18.970	827.748	636.549
316.095	19.673	828.041	639.320
317.110	20.158	827.765	640.841
318.125	19.341	826.594	636.860
319.139	18.455	825.054	632.353
320.154	18.561	824.819	632.505
321.168	19.265	825.334	635.441
322.183	19.828	825.178	637.341
323.197	19.924	824.689	637.261
324.212	20.228	824.362	638.070
325.227	20.141	823.971	637.392
326.241	20.046	823.012	636.245
327.256	19.906	822.704	635.437
328.270	19.879	821.867	634.633
329.285	19.829	820.866	633.621
330.300	19.684	820.002	632.368
331.314	19.837	819.780	632.701
332.329	20.134	819.764	633.717
333.343	20.136	819.189	633.226
334.358	20.242	818.740	633.208
335.373	20.362	818.486	633.395
336.387	20.580	818.446	634.101
337.402	20.630	818.021	633.897
338.416	20.568	817.442	633.168
339.431	20.652	816.959	633.043
340.446	20.751	816.559	633.037
341.460	20.483	816.046	631.610
342.475	20.542	815.616	631.435
343.489	20.496	815.228	630.913
344.504	20.753	815.258	631.814
345.519	20.837	814.680	631.612
346.533	20.827	814.251	631.188
347.548	21.063	813.837	631.667
348.562	20.987	813.352	630.958
349.577	20.902	812.776	630.150
350.592	21.072	811.704	629.877
351.606	21.074	811.342	629.548
352.621	20.868	810.487	628.085
353.635	20.892	809.443	627.307
354.650	20.192	807.906	623.546
355.665	19.312	806.674	619.376
356.679	19.478	806.697	619.937
357.694	19.918	806.424	621.251
358.708	20.078	805.718	621.226
359.723	20.331	805.533	621.934
360.738	20.554	805.230	622.445
361.752	20.817	804.736	622.948
362.767	21.062	804.283	623.420
363.781	21.156	804.304	623.715
364.796	21.310	803.198	623.352
365.810	21.427	802.906	623.487
366.825	21.277	802.650	622.701
367.840	20.959	801.871	620.908
368.854	20.620	801.221	619.142
369.869	20.723	800.713	619.062
370.883	20.726	800.322	618.714
371.898	20.599	799.976	617.942
372.913	20.621	799.288	617.434
373.927	20.843	799.337	618.203
374.942	20.919	799.189	618.304
375.956	21.142	798.577	618.567
376.971	21.174	798.190	618.327
377.986	21.237	797.976	618.328
379.000	21.096	797.099	617.097
380.015	21.102	796.338	616.474
381.029	21.258	795.720	616.490
382.044	21.275	795.338	616.201
383.059	21.341	794.631	615.830
384.073	21.276	794.582	615.509
385.088	21.265	793.993	614.961
386.102	21.240	793.108	614.133
387.117	21.131	792.569	613.278
388.132	20.782	791.462	611.140
389.146	20.451	790.523	609.203
390.161	20.512	790.579	609.405
391.175	20.783	790.510	610.249
392.190	20.640	789.542	608.947
393.205	19.399	787.673	603.115
394.219	18.171	786.044	597.525
395.234	18.383	786.140	598.288
396.248	19.742	787.150	603.753
397.263	21.008	787.904	608.699
398.278	20.956	787.549	608.190
399.292	20.888	786.437	607.041
400.307	20.721	786.503	606.457
401.321	20.948	785.889	606.719
402.336	21.261	785.636	607.559
403.350	21.607	785.416	608.537
404.365	21.632	785.365	608.531
405.380	21.929	784.842	609.102
406.394	21.835	784.213	608.236
407.409	21.855	783.669	607.828
408.423	21.744	783.580	607.322
409.438	21.898	782.873	607.252
410.453	21.836	782.733	606.875
411.467	21.891	781.816	606.299
412.482	21.804	781.626	605.801
413.496	21.932	781.361	605.982
414.511	22.040	780.907	605.950
415.526	21.944	780.480	605.235
416.540	21.763	779.794	604.024
417.555	21.525	778.824	602.400
418.569	21.553	778.796	602.422
419.584	21.597	778.269	602.112
420.599	21.456	777.674	601.113
421.613	158.584	1361.438	1796.634
422.628	137.006	1446.509	1796.736
