DTS Sentinel unit serial number:	SN413079Multiplexer serial number:	ORYXHardware model number:	OX4-SRSoftware version number:	ORYX F/W v4.00 Oryx Data Collector v3.7.2.0data status	okinstallation	princeton_trtdifferential loss correction	single-endedforward channel	channel 1reverse channel	N/Adate	2019/09/11time	12:12:11forward acquisition time	60.00reverse acquisition time	0.00gamma	496.2192k internal	0.2292k external	0.2292temperature offset calibration	0.9937default loss term (dB/km)	0.3790temperature slope calibration	1.0000multiplexer offset coefficient	1.0000multiplexer slope coefficient	1.0000fibre end	0.00T internal ref (°C)	39.78T ext. ref 1 (°C)	0.21T ext. ref 2 (°C)	38.00length (m)	temperature (°C)	Stokes	anti-Stokes-747.200	32.986	0.166	-0.147
-746.185	93.165	0.263	0.304
-745.171	-165.284	0.101	0.005
-744.156	77.112	0.104	0.113
-743.142	-36.899	0.118	0.065
-742.127	-200.000	-0.005	0.581
-741.112	-111.599	0.399	-0.083
-740.098	17.227	-0.205	0.167
-739.083	2.510	-0.346	0.257
-738.069	206.673	-0.136	-0.217
-737.054	32.420	-0.243	0.215
-736.039	102.385	-0.172	-0.205
-735.025	-95.381	0.084	0.023
-734.010	24.580	-0.286	-0.242
-732.996	-65.742	-0.171	0.070
-731.981	-49.405	-0.111	0.054
-730.966	-200.000	0.004	0.259
-729.952	706.553	-0.035	-0.095
-728.937	-200.000	0.021	0.110
-727.923	44.773	0.099	-0.093
-726.908	-27.962	-0.196	-0.116
-725.894	-64.086	-0.501	0.209
-724.879	800.000	-0.089	-0.330
-723.864	-26.214	-0.042	-0.025
-722.850	-200.000	0.030	-0.248
-721.835	-52.803	0.137	0.064
-720.821	135.977	0.086	-0.115
-719.806	94.083	0.051	0.060
-718.791	50.960	0.259	0.251
-717.777	-200.000	-0.061	-0.488
-716.762	-200.000	-0.008	-0.398
-715.748	47.523	0.102	-0.097
-714.733	11.732	0.257	0.202
-713.718	-148.889	-0.205	-0.017
-712.704	12.294	-0.198	-0.156
-711.689	-152.271	0.111	-0.008
-710.675	-104.171	0.131	0.031
-709.660	-3.993	-0.125	0.089
-708.645	596.594	-0.118	-0.299
-707.631	-103.353	0.130	-0.031
-706.616	133.575	-0.111	0.146
-705.602	-45.531	0.243	0.123
-704.587	-200.000	0.194	-0.000
-703.572	34.904	0.193	0.173
-702.558	98.835	-0.143	-0.169
-701.543	-152.252	-0.274	-0.020
-700.529	800.000	-0.026	-0.099
-699.514	-200.000	0.024	-0.237
-698.499	81.700	0.118	0.131
-697.485	80.724	0.217	0.239
-696.470	-200.000	-0.023	0.135
-695.456	-154.412	0.210	0.014
-694.441	-200.000	-0.098	-0.561
-693.426	-38.048	0.188	-0.102
-692.412	-102.029	-0.362	0.089
-691.397	159.637	0.133	-0.189
-690.383	-119.341	-0.396	-0.070
-689.368	-52.767	-0.057	-0.027
-688.354	-166.432	-0.150	-0.006
-687.339	713.973	0.010	-0.026
-686.324	-200.000	-0.019	0.109
-685.310	-200.000	0.073	-0.361
-684.295	-60.507	-0.076	-0.033
-683.281	-98.928	-0.122	0.032
-682.266	-9.627	-0.028	-0.019
-681.251	275.813	-0.064	0.115
-680.237	-130.014	-0.152	0.021
-679.222	800.000	0.127	-0.434
-678.208	18.488	0.124	-0.102
-677.193	800.000	-0.015	-0.060
-676.178	-7.980	-0.166	-0.114
-675.164	508.658	0.120	-0.284
-674.149	75.661	0.222	-0.239
-673.135	-51.648	0.216	0.103
-672.120	-97.471	0.314	-0.083
-671.105	-57.636	-0.272	-0.122
-670.091	-110.046	0.322	-0.069
-669.076	-157.197	-0.225	0.014
-668.062	-47.744	0.171	0.085
-667.047	-200.000	-0.055	-0.256
-666.032	-200.000	-0.063	0.309
-665.018	-200.000	-0.035	0.360
-664.003	-146.613	-0.074	-0.007
-662.989	96.175	-0.069	0.080
-661.974	800.000	0.060	-0.211
-660.959	800.000	-0.040	0.154
-659.945	110.747	-0.383	0.470
-658.930	35.613	0.245	0.220
-657.916	300.499	0.118	-0.222
-656.901	20.639	-0.177	-0.146
-655.886	-200.000	-0.028	-0.253
-654.872	-200.000	-0.019	-0.091
-653.857	62.779	-0.030	0.031
-652.843	-200.000	0.003	-0.098
-651.828	342.468	-0.309	-0.616
-650.814	619.396	0.022	-0.056
-649.799	5.924	0.112	-0.085
-648.784	-157.673	-0.332	0.020
-647.770	800.000	0.030	-0.133
-646.755	56.385	-0.198	0.196
-645.741	-88.240	0.172	0.052
-644.726	0.621	-0.401	-0.293
-643.711	34.803	-0.223	0.199
-642.697	145.164	-0.072	-0.099
-641.682	4.975	0.231	-0.174
-640.668	-146.246	0.241	-0.022
-639.653	-200.000	-0.013	-0.057
-638.638	13.897	-0.127	0.101
-637.624	-140.952	-0.185	0.019
-636.609	-87.470	0.179	0.055
-635.595	-200.000	-0.039	-0.189
-634.580	2.915	-0.219	0.162
-633.565	778.193	0.119	-0.332
-632.551	5.286	0.153	-0.115
-631.536	72.823	0.336	-0.358
-630.522	363.244	-0.146	0.299
-629.507	77.139	-0.163	0.177
-628.492	800.000	0.017	0.052
-627.478	800.000	-0.085	-0.278
-626.463	567.401	-0.127	-0.314
-625.449	-105.860	-0.297	0.068
-624.434	668.669	-0.110	-0.289
-623.419	41.192	-0.193	-0.178
-622.405	-101.038	0.191	0.048
-621.390	502.204	-0.072	-0.168
-620.376	-101.137	0.064	0.016
-619.361	800.000	-0.064	0.238
-618.346	-183.972	-0.146	0.002
-617.332	68.784	0.098	-0.102
-616.317	-200.000	-0.054	0.260
-615.303	-58.083	0.311	-0.138
-614.288	-184.507	-0.286	0.005
-613.273	161.788	-0.155	0.221
-612.259	114.806	0.130	-0.161
-611.244	111.387	0.074	0.091
-610.230	179.672	0.099	-0.148
-609.215	-86.191	-0.213	-0.067
-608.201	-200.000	0.058	-0.511
-607.186	-200.000	-0.027	-0.423
-606.171	800.000	0.107	0.307
-605.157	-147.431	0.210	0.018
-604.142	242.782	0.203	-0.345
-603.128	-1.446	-0.161	0.115
-602.113	-200.000	0.002	0.031
-601.098	-101.055	0.231	-0.058
-600.084	521.260	-0.130	0.310
-599.069	-63.354	-0.278	-0.117
-598.055	800.000	0.096	-0.270
-597.040	-18.942	-0.086	0.054
-596.025	164.786	0.207	-0.297
-595.011	-172.231	-0.097	-0.003
-593.996	93.170	-0.032	0.037
-592.982	-200.000	-0.005	-0.085
-591.967	51.672	0.062	0.060
-590.952	-200.000	0.052	0.287
-589.938	291.030	0.184	0.340
-588.923	-66.229	-0.266	0.108
-587.909	-56.825	-0.252	0.113
-586.894	-54.848	-0.116	-0.053
-585.879	-103.369	-0.068	-0.016
-584.865	-22.149	-0.149	0.092
-583.850	-88.091	-0.408	-0.124
-582.836	764.872	-0.073	0.201
-581.821	-200.000	-0.002	0.319
-580.806	-143.560	-0.249	-0.024
-579.792	595.261	0.135	0.339
-578.777	800.000	0.045	0.181
-577.763	-54.779	0.276	0.127
-576.748	-70.488	0.089	0.034
-575.733	27.246	-0.127	-0.108
-574.719	-16.608	-0.229	-0.147
-573.704	-103.934	-0.367	0.087
-572.690	310.889	-0.094	0.180
-571.675	30.264	0.024	-0.021
-570.661	-160.944	-0.284	-0.015
-569.646	-91.481	-0.400	0.116
-568.631	250.472	-0.058	-0.100
-567.617	-132.404	-0.133	0.017
-566.602	51.421	-0.120	0.116
-565.588	-52.996	-0.319	-0.149
-564.573	-47.437	0.245	0.121
-563.558	-36.468	-0.048	-0.026
-562.544	-11.327	0.333	-0.223
-561.529	-154.737	0.410	-0.028
-560.515	-200.000	0.030	-0.221
-559.500	-200.000	0.027	0.132
-558.485	-200.000	0.015	0.095
-557.471	233.073	0.074	-0.124
-556.456	0.135	0.076	0.055
-555.442	-118.977	0.358	0.064
-554.427	-161.816	-0.110	-0.006
-553.412	-177.552	-0.269	0.007
-552.398	-200.000	0.033	0.195
-551.383	-45.132	0.253	0.128
-550.369	497.118	0.091	0.213
-549.354	3.549	-0.220	0.163
-548.339	6.535	0.131	0.099
-547.325	800.000	0.070	0.203
-546.310	-200.000	-0.018	0.173
-545.296	-200.000	-0.034	0.223
-544.281	800.000	0.039	0.128
-543.266	-200.000	-0.022	0.117
-542.252	-137.616	0.110	-0.013
-541.237	800.000	0.048	0.213
-540.223	-148.347	0.422	-0.035
-539.208	176.845	0.127	0.187
-538.193	-143.406	-0.401	-0.039
-537.179	-200.000	-0.028	-0.268
-536.164	-99.725	-0.317	-0.081
-535.150	47.122	-0.185	0.175
-534.135	143.944	0.066	0.090
-533.121	-44.229	-0.301	-0.153
-532.106	-145.072	0.224	-0.021
-531.091	-200.000	0.039	-0.264
-530.077	234.707	0.173	0.290
-529.062	47.809	0.037	-0.035
-528.048	6.094	-0.113	-0.085
-527.033	-137.594	-0.072	-0.008
-526.018	-137.196	-0.142	-0.016
-525.004	-128.264	-0.191	0.028
-523.989	-33.971	-0.275	0.154
-522.975	-25.181	-0.173	-0.104
-521.960	27.113	0.078	-0.067
-520.945	-60.924	0.241	-0.103
-519.931	143.928	0.174	0.235
-518.916	-97.192	0.153	-0.040
-517.902	800.000	0.056	0.222
-516.887	-25.404	-0.156	-0.094
-515.872	-83.028	0.240	0.079
-514.858	25.292	-0.127	0.107
-513.843	800.000	0.039	0.148
-512.829	-36.455	0.056	-0.031
-511.814	621.371	-0.087	0.221
-510.799	-58.408	-0.387	-0.170
-509.785	-50.144	-0.164	-0.079
-508.770	-60.647	0.075	0.032
-507.756	6.901	0.191	-0.144
-506.741	143.562	-0.049	-0.066
-505.726	95.871	0.143	-0.165
-504.712	800.000	0.021	0.078
-503.697	-77.177	-0.188	0.066
-502.683	-200.000	-0.044	-0.278
-501.668	-47.846	0.034	0.017
-500.653	-114.718	-0.204	0.040
-499.639	429.495	0.108	-0.236
-498.624	670.001	-0.058	-0.153
-497.610	40.013	0.157	-0.143
-496.595	-41.321	-0.235	-0.123
-495.581	-65.545	0.124	-0.051
-494.566	224.304	-0.075	-0.123
-493.551	-59.265	0.125	0.055
-492.537	36.627	-0.029	-0.026
-491.522	-20.741	0.052	0.032
-490.508	66.152	0.294	-0.303
-489.493	713.295	0.104	0.278
-488.478	278.042	-0.201	0.363
-487.464	-113.455	-0.253	0.050
-486.449	-200.000	-0.003	0.078
-485.435	350.400	0.172	0.345
-484.420	-172.804	-0.114	-0.004
-483.405	311.986	-0.094	0.178
-482.391	-4.577	0.109	-0.077
-481.376	-103.971	0.189	0.045
-480.362	-26.081	-0.392	-0.233
-479.347	-130.010	-0.155	-0.021
-478.332	264.818	0.075	-0.132
-477.318	800.000	-0.057	0.237
-476.303	118.848	-0.198	0.248
-475.289	770.174	0.034	-0.093
-474.274	-147.672	0.187	-0.016
-473.259	47.445	-0.273	-0.258
-472.245	-175.709	-0.195	0.005
-471.230	-15.634	-0.365	-0.236
-470.216	-14.099	0.080	0.052
-469.201	254.709	0.155	-0.269
-468.186	12.259	-0.133	-0.104
-467.172	-43.540	-0.153	0.078
-466.157	-55.573	0.207	-0.094
-465.143	131.225	0.034	0.045
-464.128	-200.000	-0.063	0.427
-463.113	800.000	0.057	-0.158
-462.099	-103.141	-0.173	-0.041
-461.084	-146.701	0.264	0.023
-460.070	800.000	0.017	-0.055
-459.055	92.708	0.135	-0.155
-458.040	-88.053	0.261	0.079
-457.026	126.239	-0.120	0.154
-456.011	392.365	-0.024	-0.051
-454.997	-62.374	0.164	0.069
-453.982	-34.913	0.254	-0.140
-452.968	-200.000	0.008	-0.154
-451.953	304.759	0.095	-0.178
-450.938	-200.000	-0.013	-0.113
-449.924	147.478	0.108	0.147
-448.909	56.833	0.233	0.230
-447.895	-67.037	0.199	0.080
-446.880	-200.000	-0.017	-0.371
-445.865	-200.000	0.006	0.126
-444.851	-200.000	0.021	0.203
-443.836	800.000	0.096	0.350
-442.822	23.580	0.118	-0.098
-441.807	60.308	-0.225	0.225
-440.792	800.000	-0.076	0.270
-439.778	-14.078	-0.298	0.195
-438.763	-195.263	0.163	-0.001
-437.749	800.000	0.118	0.378
-436.734	-200.000	0.025	0.117
-435.719	-200.000	0.045	0.236
-434.705	244.148	-0.228	0.387
-433.690	-128.548	-0.260	0.037
-432.676	186.478	-0.053	0.080
-431.661	-130.249	-0.227	0.031
-430.646	-83.333	-0.363	0.118
-429.632	-9.432	-0.146	0.098
-428.617	-81.821	0.305	0.101
-427.603	800.000	0.055	-0.186
-426.588	-111.989	-0.038	0.008
-425.573	-200.000	-0.044	0.290
-424.559	263.059	-0.070	-0.123
-423.544	-78.858	0.241	0.083
-422.530	-98.491	-0.104	-0.027
-421.515	-11.078	-0.101	0.067
-420.500	134.668	-0.087	-0.114
-419.486	46.794	-0.103	-0.097
-418.471	-94.750	-0.118	0.032
-417.457	-87.294	0.399	0.122
-416.442	-38.341	0.188	0.101
-415.428	190.106	0.199	-0.302
-414.413	-200.000	0.024	-0.312
-413.398	-50.506	0.375	-0.179
-412.384	-95.499	0.236	-0.064
-411.369	-200.000	0.074	0.368
-410.355	372.577	-0.097	0.200
-409.340	-75.730	0.229	0.082
-408.325	800.000	-0.100	-0.307
-407.311	-200.000	-0.018	-0.415
-406.296	-100.353	-0.150	0.038
-405.282	-103.679	0.622	-0.147
-404.267	42.078	-0.106	-0.097
-403.252	800.000	0.070	0.247
-402.238	-200.000	-0.022	0.134
-401.223	-12.021	-0.107	0.071
-400.209	367.997	-0.013	0.027
-399.194	-200.000	-0.056	0.308
-398.179	-200.000	-0.054	0.455
-397.165	-36.642	-0.102	0.056
-396.150	247.650	-0.177	-0.302
-395.136	-200.000	-0.005	-0.358
-394.121	800.000	-0.094	-0.393
-393.106	-57.775	-0.146	-0.064
-392.092	-200.000	0.001	0.208
-391.077	670.707	-0.040	-0.104
-390.063	-115.434	-0.037	0.007
-389.048	800.000	-0.054	-0.150
-388.033	32.155	0.164	0.143
-387.019	-100.746	-0.510	-0.127
-386.004	-72.887	0.174	0.064
-384.990	439.164	-0.043	0.094
-383.975	340.835	-0.070	-0.138
-382.960	252.620	0.076	-0.130
-381.946	800.000	-0.077	-0.217
-380.931	298.843	-0.103	0.192
-379.917	135.524	0.007	0.009
-378.902	158.639	0.195	0.274
-377.888	88.754	0.287	-0.322
-376.873	89.501	0.091	0.102
-375.858	22.266	0.076	0.062
-374.844	-200.000	-0.176	0.000
-373.829	-106.010	-0.058	0.013
-372.815	316.076	0.160	-0.305
-371.800	212.038	0.074	0.117
-370.785	242.024	-0.138	-0.233
-369.771	-149.336	-0.507	-0.041
-368.756	206.867	0.024	-0.038
-367.742	78.292	-0.046	-0.050
-366.727	90.508	-0.139	0.157
-365.712	203.392	0.087	-0.136
-364.698	-79.516	0.203	0.069
-363.683	800.000	-0.059	0.171
-362.669	-80.790	0.408	0.137
-361.654	-32.297	0.231	0.130
-360.639	-63.811	0.163	-0.067
-359.625	-200.000	-0.034	-0.366
-358.610	-12.555	0.201	0.132
-357.596	-9.137	0.328	-0.221
-356.581	-37.025	-0.207	0.112
-355.566	74.018	-0.215	-0.228
-354.552	84.336	-0.104	-0.115
-353.537	-200.000	-0.030	-0.164
-352.523	91.076	0.128	0.144
-351.508	127.238	0.185	-0.237
-350.493	-111.610	0.312	-0.064
-349.479	800.000	-0.036	-0.143
-348.464	99.766	0.121	0.142
-347.450	85.365	-0.186	0.206
-346.435	8.403	-0.044	0.033
-345.420	455.421	-0.039	0.087
-344.406	473.981	-0.019	0.043
-343.391	50.039	0.103	-0.098
-342.377	-145.096	-0.256	-0.023
-341.362	-119.834	0.154	-0.027
-340.348	112.437	-0.027	-0.033
-339.333	311.001	0.152	0.288
-338.318	25.687	-0.035	-0.030
-337.304	-200.000	-0.030	0.146
-336.289	-90.488	0.396	-0.116
-335.275	-82.841	0.152	0.050
-334.260	96.164	-0.163	-0.188
-333.245	800.000	-0.065	-0.244
-332.231	306.177	0.098	-0.184
-331.216	-200.000	-0.045	-0.214
-330.202	-200.000	-0.027	-0.138
-329.187	72.110	0.127	0.133
-328.172	61.712	-0.183	0.184
-327.158	26.067	-0.036	-0.031
-326.143	14.720	-0.098	-0.077
-325.129	12.649	-0.128	0.099
-324.114	174.739	0.143	-0.208
-323.099	12.030	0.185	0.144
-322.085	202.101	0.088	0.137
-321.070	-137.215	-0.068	0.008
-320.056	12.087	-0.148	-0.115
-319.041	800.000	-0.034	-0.112
-318.026	-3.755	-0.092	-0.064
-317.012	800.000	0.094	0.363
-315.997	-200.000	-0.010	0.114
-314.983	-200.000	-0.054	0.450
-313.968	800.000	0.082	0.326
-312.953	-180.876	-0.163	-0.003
-311.939	-132.360	0.275	0.036
-310.924	800.000	-0.049	0.173
-309.910	205.226	-0.050	-0.079
-308.895	-154.577	-0.316	0.021
-307.880	800.000	-0.090	-0.291
-306.866	600.439	-0.017	0.044
-305.851	296.519	-0.049	-0.090
-304.837	202.780	0.080	-0.125
-303.822	-97.279	-0.215	0.056
-302.807	800.000	-0.040	-0.135
-301.793	42.804	0.293	0.268
-300.778	-71.791	0.286	0.107
-299.764	800.000	0.052	0.146
-298.749	-200.000	0.041	-0.208
-297.735	-106.847	0.279	-0.062
-296.720	-168.256	-0.238	-0.009
-295.705	524.581	-0.127	0.299
-294.691	-43.495	0.230	-0.117
-293.676	610.860	0.096	-0.241
-292.662	-24.337	0.300	0.180
-291.647	-51.009	-0.101	-0.048
-290.632	-112.397	-0.074	0.015
-289.618	-52.601	-0.154	0.072
-288.603	98.304	-0.163	-0.189
-287.589	276.517	-0.135	-0.241
-286.574	351.770	0.139	0.276
-285.559	7.230	0.172	0.129
-284.545	233.324	0.152	-0.252
-283.530	800.000	-0.014	-0.041
-282.516	-129.645	0.343	0.048
-281.501	-41.311	-0.078	0.041
-280.486	-67.688	-0.389	0.153
-279.472	-63.914	0.130	0.053
-278.457	319.897	0.022	-0.041
-277.443	532.265	0.034	-0.082
-276.428	-28.726	0.102	0.059
-275.413	72.767	-0.161	0.169
-274.399	-200.000	0.045	-0.208
-273.384	-36.412	0.380	-0.205
-272.370	800.000	0.047	-0.159
-271.355	32.730	0.084	-0.073
-270.340	800.000	0.068	-0.264
-269.326	43.420	0.144	-0.132
-268.311	18.842	0.240	0.193
-267.297	-38.953	-0.128	0.068
-266.282	-43.440	0.377	-0.191
-265.267	154.864	0.070	0.097
-264.253	-46.925	-0.203	-0.099
-263.238	104.230	-0.073	0.086
-262.224	-160.367	-0.347	-0.019
-261.209	-48.135	-0.315	-0.153
-260.195	8.967	-0.078	-0.059
-259.180	-144.503	-0.266	-0.025
-258.165	232.560	-0.080	0.132
-257.151	-137.683	0.325	0.037
-256.136	-200.000	-0.008	0.258
-255.122	261.633	0.070	-0.123
-254.107	-200.000	-0.004	-0.096
-253.092	87.120	0.196	0.217
-252.078	-200.000	-0.011	0.092
-251.063	159.408	-0.118	-0.166
-250.049	72.221	0.244	-0.255
-249.034	119.877	0.075	-0.093
-248.019	60.197	0.199	0.198
-247.005	174.299	-0.084	-0.122
-245.990	-63.490	0.240	-0.099
-244.976	26.907	0.179	0.151
-243.961	196.739	0.162	0.248
-242.946	-95.176	-0.217	0.059
-241.932	-200.000	-0.011	-0.126
-240.917	314.458	0.069	0.130
-239.903	317.443	0.127	0.241
-238.888	-14.570	-0.143	0.092
-237.873	-49.153	0.298	0.143
-236.859	-79.700	-0.368	0.124
-235.844	-200.000	-0.028	-0.188
-234.830	531.593	0.111	-0.264
-233.815	242.592	-0.241	-0.406
-232.800	800.000	-0.032	-0.094
-231.786	426.067	-0.088	-0.191
-230.771	-44.746	-0.244	0.122
-229.757	800.000	-0.093	-0.262
-228.742	19.835	-0.090	-0.073
-227.727	800.000	0.099	0.344
-226.713	-105.131	0.155	-0.036
-225.698	-48.434	-0.088	0.043
-224.684	150.511	0.136	0.185
-223.669	265.373	0.215	0.377
-222.655	800.000	-0.053	0.186
-221.640	-37.387	-0.295	-0.158
-220.625	-200.000	-0.092	-0.566
-219.611	60.697	0.099	-0.098
-218.596	-200.000	-0.014	-0.085
-217.582	7.315	-0.197	0.147
-216.567	-23.303	0.144	-0.087
-215.552	214.926	0.112	0.178
-214.538	513.147	-0.121	-0.283
-213.523	33.966	-0.123	-0.107
-212.509	231.545	0.162	0.265
-211.494	728.226	0.061	0.163
-210.479	331.341	0.242	-0.467
-209.465	-108.982	0.218	-0.047
-208.450	800.000	0.032	0.107
-207.436	-145.626	-0.329	-0.029
-206.421	-63.354	0.222	-0.092
-205.406	-119.372	0.410	0.071
-204.392	-39.634	-0.143	0.075
-203.377	-115.777	-0.268	0.050
-202.363	49.845	0.190	0.179
-201.348	662.115	-0.077	-0.199
-200.333	459.536	-0.060	0.133
-199.319	41.885	0.295	-0.268
-198.304	209.301	0.165	-0.259
-197.290	129.042	0.113	-0.145
-196.275	-159.254	0.174	0.010
-195.260	-127.800	-0.293	0.042
-194.246	-200.000	-0.027	-0.127
-193.231	195.181	-0.048	0.072
-192.217	30.030	-0.080	0.069
-191.202	-200.000	-0.064	0.426
-190.187	-79.002	0.217	0.074
-189.173	-16.100	-0.154	-0.098
-188.158	-200.000	0.039	-0.337
-187.144	-200.000	0.022	0.125
-186.129	162.474	-0.132	-0.185
-185.114	-184.847	-0.087	-0.001
-184.100	512.642	0.111	0.259
-183.085	-83.220	0.118	0.038
-182.071	109.076	0.068	0.081
-181.056	59.202	0.050	0.049
-180.042	-200.000	0.033	0.296
-179.027	-200.000	-0.007	-0.162
-178.012	106.635	-0.132	-0.157
-176.998	21.161	0.098	0.080
-175.983	6.153	-0.184	0.136
-174.969	118.377	0.075	0.093
-173.954	-137.946	-0.112	-0.013
-172.939	-11.302	-0.220	0.145
-171.925	25.623	0.200	-0.166
-170.910	-200.000	0.014	-0.190
-169.896	800.000	0.011	0.033
-168.881	15.828	0.189	-0.149
-167.866	-200.000	-0.004	-0.128
-166.852	100.981	-0.133	-0.155
-165.837	796.087	-0.066	-0.183
-164.823	-143.208	0.230	-0.022
-163.808	424.781	0.151	-0.324
-162.793	-129.727	-0.163	0.023
-161.779	-34.037	0.387	-0.213
-160.764	51.357	-0.226	-0.215
-159.750	-158.550	0.195	0.011
-158.735	-200.000	-0.062	-0.361
-157.720	-168.675	0.113	0.004
-156.706	19.704	-0.277	0.223
-155.691	31.032	-0.190	0.163
-154.677	23.963	-0.114	0.094
-153.662	527.220	0.049	0.116
-152.647	-200.000	-0.008	0.263
-151.633	-200.000	0.028	0.201
-150.618	66.768	0.202	0.206
-149.604	93.947	0.115	-0.131
-148.589	35.845	0.315	-0.277
-147.574	800.000	0.031	-0.089
-146.560	-21.056	-0.251	-0.153
-145.545	559.372	0.171	-0.413
-144.531	207.719	0.094	0.146
-143.516	800.000	-0.034	0.124
-142.502	19.153	-0.117	-0.094
-141.487	-160.270	0.063	0.003
-140.472	-54.769	0.078	-0.035
-139.458	127.572	-0.204	-0.259
-138.443	-18.991	0.209	0.130
-137.429	167.569	0.076	0.108
-136.414	-158.774	0.171	0.010
-135.399	254.726	-0.083	-0.141
-134.385	-40.310	-0.421	-0.219
-133.370	800.000	-0.128	0.366
-132.356	-2.328	-0.088	0.062
-131.341	132.756	-0.164	0.211
-130.326	172.766	0.284	-0.409
-129.312	23.662	-0.191	-0.157
-128.297	2.972	0.075	0.054
-127.283	-24.584	-0.139	-0.082
-126.268	134.190	0.034	0.045
-125.253	327.922	-0.088	-0.169
-124.239	-40.702	-0.204	0.106
-123.224	-33.563	0.193	-0.106
-122.210	104.060	0.164	0.192
-121.195	-56.634	-0.153	-0.067
-120.180	105.510	0.213	-0.252
-119.166	800.000	-0.021	-0.089
-118.151	409.061	0.172	0.364
-117.137	76.478	0.108	0.114
-116.122	-32.488	-0.077	-0.043
-115.107	-129.607	-0.274	-0.038
-114.093	-200.000	-0.045	-0.300
-113.078	-7.642	-0.160	0.108
-112.064	606.923	0.042	0.105
-111.049	463.716	-0.058	0.130
-110.034	-46.995	-0.402	0.196
-109.020	-80.570	0.328	0.109
-108.005	656.779	0.162	-0.417
-106.991	120.739	-0.062	0.077
-105.976	-200.000	-0.041	0.414
-104.962	-24.812	0.261	-0.155
-103.947	800.000	0.071	-0.239
-102.932	-112.006	0.303	-0.061
-101.918	145.648	0.015	-0.020
-100.903	-200.000	-0.051	-0.343
-99.889	-200.000	0.036	-0.211
-98.874	-96.050	0.028	-0.007
-97.859	800.000	0.088	-0.265
-96.845	-193.441	-0.209	-0.002
-95.830	800.000	0.026	-0.080
-94.816	-99.695	0.357	0.089
-93.801	-60.070	0.140	0.060
-92.786	331.122	-0.152	0.292
-91.772	-61.731	0.073	-0.031
-90.757	202.175	-0.108	0.166
-89.743	-200.000	-0.023	0.236
-88.728	-2.020	0.034	-0.024
-87.713	-137.014	-0.175	-0.020
-86.699	-86.964	0.032	0.010
-85.684	21.015	-0.318	-0.257
-84.670	-5.745	0.208	-0.142
-83.655	-109.679	0.208	0.044
-82.640	-200.000	0.061	0.295
-81.626	-20.877	0.112	-0.068
-80.611	788.466	-0.044	0.120
-79.597	-22.825	-0.277	-0.167
-78.582	101.157	0.244	0.283
-77.567	0.520	-0.146	-0.104
-76.553	153.356	-0.084	0.115
-75.538	68.426	0.062	0.064
-74.524	341.438	0.097	-0.189
-73.509	-47.790	-0.142	0.069
-72.494	-10.909	0.165	0.109
-71.480	47.588	0.074	-0.069
-70.465	-200.000	0.067	-0.298
-69.451	292.206	0.057	0.103
-68.436	800.000	0.110	0.412
-67.422	74.151	-0.124	-0.130
-66.407	-44.357	-0.218	-0.109
-65.392	-178.083	0.216	-0.005
-64.378	634.904	0.119	0.302
-63.363	-116.744	0.126	0.023
-62.349	800.000	0.072	0.211
-61.334	91.484	-0.768	-0.860
-60.319	203.466	0.237	0.365
-59.305	-200.000	0.031	-0.765
-58.290	61.467	0.501	0.497
-57.276	691.299	0.619	1.615
-56.261	-200.000	76.527	489.775
-55.246	498.380	1352.188	3102.765
-54.232	142.051	2602.982	3439.137
-53.217	113.970	2254.105	2730.768
-52.203	51.380	1695.018	1603.623
-51.188	43.425	1417.624	1290.582
-50.173	40.054	1370.808	1227.038
-49.159	58.049	1406.150	1371.766
-48.144	64.508	1424.988	1430.500
-47.130	43.944	1388.289	1266.920
-46.115	39.890	1372.450	1227.291
-45.100	39.640	1367.478	1221.249
-44.086	39.608	1364.723	1218.543
-43.071	39.634	1362.075	1216.289
-42.057	39.408	1360.565	1213.499
-41.042	39.543	1358.197	1212.168
-40.027	39.636	1356.526	1211.203
-39.013	39.651	1354.657	1209.576
-37.998	39.657	1352.401	1207.552
-36.984	39.571	1351.601	1206.265
-35.969	39.802	1349.209	1205.495
-34.954	39.867	1347.022	1203.889
-33.940	39.855	1346.046	1202.892
-32.925	39.805	1344.420	1201.087
-31.911	39.877	1343.096	1200.298
-30.896	39.905	1341.415	1198.914
-29.881	39.893	1340.225	1197.733
-28.867	39.827	1338.653	1195.877
-27.852	39.826	1337.442	1194.742
-26.838	40.017	1335.119	1193.773
-25.823	39.861	1333.956	1191.746
-24.809	39.814	1332.755	1190.342
-23.794	39.911	1331.572	1189.824
-22.779	39.919	1330.173	1188.577
-21.765	39.885	1328.861	1187.149
-20.750	39.826	1327.569	1185.592
-19.736	39.857	1325.908	1184.248
-18.721	39.879	1324.187	1182.800
-17.706	39.684	1323.546	1181.008
-16.692	39.799	1322.177	1180.431
-15.677	39.766	1321.320	1179.422
-14.663	39.786	1320.244	1178.534
-13.648	39.717	1318.960	1176.928
-12.633	39.687	1317.705	1175.584
-11.619	39.718	1316.828	1174.940
-10.604	39.703	1316.161	1174.205
-9.590	39.842	1314.510	1173.513
-8.575	39.603	1314.095	1171.679
-7.560	39.663	1312.982	1170.997
-6.546	39.721	1311.893	1170.319
-5.531	39.616	1311.262	1169.088
-4.517	39.577	1310.570	1168.193
-3.502	39.706	1309.073	1167.576
-2.487	39.696	1308.202	1166.697
-1.473	39.887	1304.694	1164.649
-0.458	39.016	1290.006	1146.407
0.556	33.935	1271.413	1109.197
1.571	30.376	1276.087	1092.281
2.586	29.375	1291.957	1099.802
3.600	27.699	1280.406	1079.958
4.615	19.205	1199.425	964.234
5.629	6.250	1113.263	827.158
6.644	0.637	1088.450	779.738
7.659	0.154	1085.573	775.120
8.673	0.128	1083.853	773.691
9.688	-0.076	1082.866	771.869
10.702	0.406	1081.613	773.382
11.717	8.403	1094.236	823.703
12.731	19.364	1110.403	892.857
13.746	22.720	1113.703	912.830
14.761	22.202	1112.891	909.405
15.775	22.050	1111.893	907.724
16.790	21.836	1111.108	905.895
17.804	21.768	1110.870	905.273
18.819	21.939	1110.266	905.583
19.834	21.949	1109.904	905.257
20.848	21.934	1109.478	904.753
21.863	22.071	1108.175	904.313
22.877	21.939	1107.795	903.247
23.892	21.888	1107.118	902.354
24.907	22.007	1106.301	902.217
25.921	21.942	1105.303	900.990
26.936	21.883	1104.087	899.614
27.950	21.987	1102.215	898.545
28.965	21.911	1099.891	896.181
29.980	21.838	1098.876	894.902
30.994	22.078	1097.799	895.172
32.009	22.060	1096.736	894.134
33.023	21.860	1095.345	891.904
34.038	21.787	1094.904	891.092
35.053	21.999	1093.873	891.254
36.067	21.975	1093.325	890.607
37.082	22.087	1092.212	890.186
38.096	22.221	1091.591	890.282
39.111	22.194	1091.156	889.710
40.126	22.125	1089.044	887.560
41.140	21.889	1087.336	884.900
42.155	21.595	1086.130	882.360
43.169	21.718	1084.698	881.735
44.184	21.778	1084.072	881.451
45.199	21.579	1082.812	879.351
46.213	21.654	1082.213	879.164
47.228	21.772	1081.348	878.974
48.242	21.840	1080.477	878.526
49.257	21.812	1079.793	877.754
50.271	22.054	1078.721	878.013
51.286	22.046	1078.425	877.659
52.301	22.006	1077.372	876.523
53.315	21.986	1076.240	875.423
54.330	21.947	1075.317	874.403
55.344	21.924	1074.637	873.655
56.359	21.874	1073.558	872.453
57.374	21.809	1072.643	871.312
58.388	21.765	1071.688	870.239
59.403	21.579	1070.870	868.575
60.417	21.531	1070.261	867.764
61.432	21.686	1069.167	867.568
62.447	21.797	1068.885	867.814
63.461	21.830	1067.924	867.121
64.476	21.812	1066.879	866.107
65.490	21.732	1065.963	864.890
66.505	21.710	1065.335	864.194
67.520	21.820	1064.587	864.052
68.534	21.605	1063.372	861.936
69.549	21.297	1062.015	859.245
70.563	21.155	1061.483	858.038
71.578	21.255	1060.352	857.541
72.593	21.120	1059.496	856.108
73.607	21.254	1058.680	856.030
74.622	21.591	1058.567	857.514
75.636	21.631	1057.276	856.587
76.651	21.407	1056.833	855.059
77.666	21.278	1056.112	853.771
78.680	21.383	1055.320	853.567
79.695	21.534	1054.187	853.308
80.709	21.663	1054.033	853.741
81.724	21.567	1053.345	852.640
82.739	21.609	1052.622	852.182
83.753	21.978	1052.375	853.702
84.768	22.327	1050.737	853.994
85.782	22.318	1049.972	853.250
86.797	22.178	1048.972	851.686
87.812	22.155	1048.087	850.782
88.826	22.095	1047.282	849.760
89.841	22.278	1046.219	849.707
90.855	22.266	1045.039	848.614
91.870	22.138	1044.558	847.532
92.884	22.138	1043.107	846.281
93.899	22.083	1041.861	844.930
94.914	22.200	1041.460	845.094
95.928	22.071	1040.339	843.487
96.943	21.919	1038.621	841.293
97.957	21.627	1037.789	839.145
98.972	21.513	1036.269	837.294
99.987	21.745	1035.887	838.024
101.001	22.029	1035.042	838.623
102.016	22.058	1034.237	838.034
103.030	21.954	1033.415	836.798
104.045	21.792	1032.336	835.079
105.060	21.603	1031.459	833.394
106.074	21.654	1030.936	833.143
107.089	21.992	1030.122	834.014
108.103	21.940	1029.025	832.809
109.118	21.824	1027.385	830.856
110.133	21.783	1026.605	829.961
111.147	21.531	1024.897	827.315
112.162	21.432	1024.520	826.468
113.176	21.680	1023.598	826.822
114.191	21.653	1022.356	825.619
115.206	21.357	1021.710	823.629
116.220	21.289	1020.944	822.618
117.235	21.493	1020.357	823.035
118.249	21.468	1018.999	821.745
119.264	21.382	1018.264	820.675
120.279	21.351	1017.872	820.143
121.293	21.518	1016.862	820.040
122.308	21.418	1016.348	819.083
123.322	21.410	1014.852	817.771
124.337	21.250	1013.016	815.470
125.352	20.881	1011.341	812.330
126.366	20.839	1010.495	811.385
127.381	21.380	1010.850	814.115
128.395	21.703	1010.605	815.350
129.410	22.067	1009.336	815.944
130.424	21.944	1008.474	814.604
131.439	22.003	1007.182	813.762
132.454	22.025	1005.875	812.737
133.468	21.938	1005.501	811.960
134.483	21.976	1005.188	811.814
135.497	22.176	1004.016	811.717
136.512	22.083	1003.291	810.631
137.527	22.214	1002.386	810.431
138.541	22.223	1001.772	809.905
139.556	22.161	1001.137	809.036
140.570	22.225	1000.626	808.844
141.585	22.326	999.112	808.015
142.600	22.389	998.243	807.526
143.614	22.359	997.716	806.894
144.629	22.650	996.765	807.383
145.643	22.448	995.364	805.255
146.658	22.348	994.004	803.625
147.673	22.225	992.920	802.117
148.687	22.168	991.664	800.772
149.702	21.958	991.111	799.300
150.716	21.936	990.080	798.297
151.731	22.013	990.035	798.540
152.746	22.269	988.887	798.708
153.760	22.495	988.106	799.029
154.775	22.426	987.825	798.420
155.789	22.364	986.797	797.236
156.804	22.271	985.480	795.680
157.819	22.430	984.406	795.462
158.833	22.463	984.222	795.392
159.848	22.422	983.431	794.499
160.862	22.303	982.121	792.833
161.877	22.385	980.692	791.978
162.892	22.477	980.118	791.858
163.906	22.408	979.048	790.613
164.921	22.381	978.009	789.586
165.935	22.424	976.859	788.777
166.950	22.371	976.378	788.082
167.964	22.342	975.097	786.848
168.979	22.213	974.096	785.396
169.994	22.169	973.445	784.606
171.008	22.492	972.373	785.112
172.023	22.472	971.632	784.353
173.037	22.179	970.900	782.388
174.052	22.046	969.432	780.545
175.067	22.068	969.261	780.438
176.081	22.080	968.801	780.050
177.096	22.013	968.048	779.081
178.110	21.829	966.872	777.249
179.125	21.708	965.933	775.889
180.140	21.815	965.669	776.081
181.154	21.894	965.403	776.148
182.169	22.204	965.162	777.260
183.183	22.482	964.717	778.059
184.198	22.302	963.535	776.241
185.213	22.290	962.932	775.637
186.227	22.393	962.179	775.413
187.242	22.446	961.131	774.734
188.256	22.446	960.618	774.252
189.271	22.523	960.174	774.161
190.286	22.148	958.936	771.451
191.300	21.616	957.174	767.635
192.315	20.752	956.031	762.862
193.329	20.832	955.352	762.607
194.344	21.684	955.570	766.440
195.359	22.186	955.542	768.547
196.373	22.293	955.200	768.671
197.388	22.307	954.099	767.777
198.402	22.133	954.118	766.966
199.417	22.172	953.584	766.639
200.432	21.963	952.195	764.546
201.446	21.724	951.711	763.045
202.461	21.872	950.969	763.027
203.475	21.118	948.698	757.865
204.490	20.198	947.514	752.859
205.504	21.211	948.174	757.715
206.519	21.877	947.741	760.193
207.534	22.051	947.316	760.535
208.548	22.266	947.388	761.459
209.563	22.056	946.239	759.560
210.577	22.129	945.126	758.912
211.592	22.395	945.316	760.147
212.607	22.368	944.086	758.976
213.621	22.464	943.664	758.983
214.636	22.477	942.896	758.355
215.650	22.312	942.066	756.908
216.665	22.527	941.293	757.146
217.680	22.493	940.334	756.159
218.694	21.971	939.384	753.089
219.709	21.863	938.696	752.008
220.723	22.173	938.656	753.240
221.738	22.149	937.814	752.395
222.753	22.171	937.504	752.173
223.767	22.350	936.521	752.085
224.782	22.437	936.786	752.602
225.796	22.539	935.700	752.097
226.811	21.849	934.352	748.006
227.826	21.261	932.885	744.259
228.840	21.286	932.865	744.286
229.855	21.527	931.759	744.363
230.869	21.240	930.475	742.053
231.884	21.560	930.651	743.488
232.899	22.332	930.649	746.698
233.913	22.274	930.136	745.974
234.928	22.223	929.398	745.099
235.942	22.244	928.857	744.688
236.957	21.934	927.619	742.319
237.972	21.865	927.322	741.724
238.986	21.969	926.691	741.592
240.001	21.901	926.284	740.913
241.015	22.103	925.418	741.010
242.030	22.122	925.023	740.706
243.045	22.339	924.365	741.028
244.059	22.486	924.112	741.377
245.074	22.230	922.938	739.293
246.088	21.989	921.811	737.315
247.103	22.204	921.464	737.873
248.117	22.629	922.354	740.305
249.132	22.870	921.175	740.303
250.147	23.021	920.709	740.498
251.161	23.099	920.347	740.466
252.176	23.075	919.615	739.711
253.190	23.075	919.166	739.287
254.205	23.207	918.704	739.399
255.220	23.289	917.881	739.014
256.234	22.993	917.335	737.277
257.249	23.028	916.116	736.374
258.263	23.002	915.697	735.865
259.278	23.096	915.224	735.810
260.293	23.111	914.712	735.398
261.307	22.963	913.894	734.060
262.322	22.934	912.570	732.812
263.336	22.223	911.023	728.558
264.351	21.154	908.829	722.318
265.366	21.244	908.510	722.372
266.380	22.316	909.362	727.423
267.395	22.826	908.591	728.847
268.409	22.699	908.124	727.886
269.424	22.913	907.824	728.463
270.439	23.008	906.995	728.123
271.453	22.937	906.768	727.583
272.468	23.225	905.961	728.059
273.482	23.177	905.632	727.532
274.497	22.907	903.997	725.045
275.512	22.509	903.396	722.868
276.526	22.875	903.402	724.309
277.541	23.018	903.201	724.671
278.555	22.697	902.412	722.655
279.570	22.705	901.083	721.561
280.585	22.749	900.696	721.368
281.599	22.874	899.919	721.192
282.614	22.161	898.508	717.091
283.628	22.234	898.191	717.071
284.643	22.597	898.032	718.362
285.657	22.272	896.363	715.641
286.672	21.889	895.878	713.633
287.687	22.507	896.158	716.304
288.701	22.594	895.178	715.812
289.716	22.276	894.423	713.853
290.730	22.316	893.566	713.270
291.745	22.023	892.694	711.323
292.760	22.228	892.374	711.835
293.774	23.179	892.838	715.993
294.789	23.524	892.683	717.198
295.803	23.442	892.194	716.413
296.818	23.602	891.450	716.399
297.833	22.997	890.586	713.198
298.847	23.000	889.543	712.311
299.862	23.221	889.465	713.076
300.876	23.483	889.281	713.922
301.891	23.459	888.191	712.888
302.906	23.032	887.010	710.161
303.920	23.132	886.406	710.017
304.935	23.324	886.723	710.978
305.949	23.395	885.875	710.519
306.964	23.114	885.232	708.815
307.979	23.442	884.280	709.302
308.993	23.669	884.210	710.091
310.008	23.620	883.512	709.273
311.022	23.374	883.035	707.847
312.037	23.311	882.092	706.775
313.052	23.062	881.535	705.272
314.066	22.186	880.000	700.495
315.081	21.823	878.964	698.162
316.095	22.715	879.258	701.883
317.110	23.304	878.672	703.695
318.125	22.270	877.912	698.918
319.139	21.242	876.109	693.341
320.154	21.337	875.727	693.355
321.168	22.169	876.115	696.903
322.183	22.926	876.396	700.065
323.197	23.084	876.216	700.485
324.212	23.210	875.478	700.330
325.227	23.168	875.109	699.806
326.241	23.129	874.644	699.221
327.256	22.981	873.696	697.814
328.270	22.945	873.060	697.103
329.285	22.672	872.405	695.441
330.300	22.770	871.619	695.140
331.314	22.781	871.337	694.897
332.329	23.207	871.162	696.375
333.343	23.314	870.651	696.323
334.358	23.332	870.043	695.845
335.373	23.348	870.091	695.886
336.387	23.804	869.533	697.166
337.402	23.778	869.575	697.038
338.416	23.591	869.660	696.311
339.431	23.880	868.645	696.568
340.446	23.965	868.312	696.572
341.460	23.851	868.076	695.876
342.475	23.552	867.186	693.931
343.489	23.854	866.587	694.572
344.504	24.062	866.471	695.231
345.519	24.140	866.046	695.129
346.533	24.152	865.770	694.892
347.548	24.311	865.268	695.050
348.562	24.171	864.625	693.925
349.577	24.139	863.890	693.152
350.592	24.067	863.246	692.292
351.606	24.081	862.359	691.574
352.621	23.949	861.711	690.480
353.635	24.073	860.530	689.955
354.650	23.222	859.167	685.505
355.665	22.478	857.507	681.243
356.679	22.688	857.436	681.942
357.694	23.204	856.969	683.501
358.708	23.049	856.525	682.489
359.723	23.403	856.701	683.934
360.738	23.738	856.328	684.868
361.752	23.948	855.784	685.183
362.767	24.188	854.847	685.292
363.781	24.266	855.417	685.990
364.796	24.430	854.945	686.181
365.810	24.652	854.235	686.406
366.825	24.371	853.886	684.983
367.840	24.262	852.744	683.590
368.854	23.701	851.986	680.771
369.869	23.747	851.513	680.508
370.883	23.903	851.030	680.660
371.898	23.784	850.714	679.892
372.913	23.926	850.278	680.025
373.927	23.950	849.782	679.662
374.942	24.153	849.469	680.127
375.956	24.181	849.168	679.933
376.971	24.389	848.563	680.182
377.986	24.467	848.567	680.420
379.000	24.384	847.802	679.432
380.015	24.271	846.913	678.230
381.029	24.373	846.573	678.282
382.044	24.451	845.877	677.962
383.059	24.457	845.564	677.675
384.073	24.625	844.598	677.477
385.088	24.479	844.174	676.526
386.102	24.258	843.493	675.080
387.117	24.253	842.462	674.177
388.132	23.925	841.656	672.234
389.146	23.438	840.738	669.600
390.161	23.729	840.546	670.488
391.175	24.200	840.435	672.119
392.190	23.920	839.280	670.078
393.205	22.659	836.922	663.396
394.219	21.212	834.975	656.359
395.234	21.032	835.104	655.726
396.248	22.631	836.712	662.949
397.263	24.026	837.674	668.898
398.278	24.001	837.251	668.409
399.292	23.846	836.367	667.063
400.307	23.742	836.007	666.327
401.321	23.922	835.459	666.505
402.336	24.347	835.293	667.904
403.350	24.696	835.274	669.139
404.365	24.902	835.217	669.803
405.380	25.161	834.485	670.125
406.394	25.251	834.220	670.188
407.409	24.958	833.917	668.792
408.423	24.953	833.305	668.225
409.438	25.163	832.807	668.550
410.453	25.126	832.686	668.253
411.467	25.170	831.852	667.690
412.482	25.171	831.524	667.373
413.496	25.227	831.104	667.184
414.511	25.110	830.839	666.476
415.526	25.093	830.313	665.933
416.540	25.069	829.576	665.191
417.555	24.780	828.899	663.521
418.569	24.822	828.544	663.333
419.584	24.872	827.820	662.881
420.599	24.645	827.325	661.583
421.613	94.471	1267.723	1391.069
422.628	81.541	1331.900	1391.191
