DTS Sentinel unit serial number:	SN413079Multiplexer serial number:	ORYXHardware model number:	OX4-SRSoftware version number:	ORYX F/W v4.00 Oryx Data Collector v3.7.2.0data status	okinstallation	princeton_trtdifferential loss correction	single-endedforward channel	channel 1reverse channel	N/Adate	2019/09/17time	13:30:35forward acquisition time	60.00reverse acquisition time	0.00gamma	496.2192k internal	0.2307k external	0.2307temperature offset calibration	0.9968default loss term (dB/km)	0.3790temperature slope calibration	1.0000multiplexer offset coefficient	1.0000multiplexer slope coefficient	1.0000fibre end	0.00T internal ref (°C)	34.55T ext. ref 1 (°C)	0.41T ext. ref 2 (°C)	31.56length (m)	temperature (°C)	Stokes	anti-Stokes-747.200	-107.206	0.260	0.058
-746.185	-39.597	-0.106	0.057
-745.171	-143.406	-0.204	0.020
-744.156	13.115	0.345	0.271
-743.142	-11.246	0.426	0.285
-742.127	-200.000	-0.046	0.256
-741.112	371.219	-0.056	-0.116
-740.098	-200.000	-0.033	0.371
-739.083	202.355	-0.068	0.107
-738.069	301.238	0.041	0.077
-737.054	-200.000	0.033	-0.327
-736.039	-0.579	-0.176	-0.127
-735.025	477.963	0.016	0.038
-734.010	-200.000	0.033	0.322
-732.996	78.215	0.209	-0.227
-731.981	-46.321	-0.312	0.156
-730.966	373.077	-0.157	0.323
-729.952	-51.032	-0.282	0.134
-728.937	207.267	0.084	-0.133
-727.923	-149.134	-0.391	0.032
-726.908	800.000	-0.011	-0.034
-725.894	301.435	-0.170	-0.319
-724.879	181.872	-0.128	0.192
-723.864	1.845	-0.202	-0.148
-722.850	-67.236	-0.128	0.051
-721.835	800.000	0.104	0.397
-720.821	26.401	-0.217	0.184
-719.806	-49.738	-0.168	0.081
-718.791	-104.133	0.233	0.055
-717.777	-2.715	0.221	-0.157
-716.762	-200.000	0.020	0.187
-715.748	130.070	0.047	-0.061
-714.733	-79.792	0.042	-0.014
-713.718	-127.328	-0.253	-0.038
-712.704	-93.856	-0.251	-0.070
-711.689	-127.493	-0.203	-0.030
-710.675	-9.612	-0.092	-0.063
-709.660	-29.916	0.258	0.149
-708.645	-23.560	-0.202	-0.123
-707.631	38.945	0.047	0.042
-706.616	-200.000	-0.000	0.058
-705.602	13.724	-0.239	-0.189
-704.587	-146.490	0.133	-0.012
-703.572	116.557	0.128	-0.160
-702.558	-200.000	0.054	0.407
-701.543	-33.233	-0.037	-0.021
-700.529	-63.350	-0.154	0.065
-699.514	64.304	-0.121	-0.124
-698.499	139.315	-0.192	-0.257
-697.485	800.000	0.122	-0.380
-696.470	-103.137	0.148	0.035
-695.456	-2.445	0.124	-0.088
-694.441	-126.695	-0.073	-0.011
-693.426	-83.472	0.210	0.068
-692.412	113.780	-0.130	-0.160
-691.397	-66.097	0.181	0.073
-690.383	130.046	0.063	0.081
-689.368	68.232	-0.110	0.114
-688.354	61.803	0.177	-0.179
-687.339	-147.914	0.127	0.011
-686.324	-108.766	-0.450	-0.098
-685.310	-78.527	-0.193	-0.067
-684.295	800.000	-0.091	-0.384
-683.281	-200.000	0.004	-0.185
-682.266	-14.471	-0.291	-0.190
-681.251	-200.000	0.008	-0.154
-680.237	-135.441	-0.108	0.013
-679.222	-8.305	0.086	-0.059
-678.208	428.379	0.133	-0.291
-677.193	-49.832	-0.119	-0.057
-676.178	-35.355	-0.143	0.079
-675.164	-79.404	-0.249	-0.085
-674.149	519.385	0.091	0.216
-673.135	82.450	-0.227	0.250
-672.120	800.000	-0.070	0.218
-671.105	-2.731	0.261	0.185
-670.091	-80.268	-0.202	-0.069
-669.076	488.772	0.060	0.139
-668.062	217.747	0.104	0.169
-667.047	-39.436	-0.105	0.056
-666.032	-15.749	-0.231	-0.149
-665.018	800.000	-0.035	-0.121
-664.003	-111.953	0.104	0.021
-662.989	800.000	0.046	-0.176
-661.974	84.476	-0.165	-0.183
-660.959	253.333	-0.174	0.302
-659.945	-200.000	0.005	0.068
-658.930	151.030	0.214	0.296
-657.916	-150.640	-0.341	0.026
-656.901	-48.572	-0.495	-0.241
-655.886	800.000	0.093	0.276
-654.872	559.065	-0.121	-0.296
-653.857	9.834	-0.178	-0.137
-652.843	-4.839	0.083	-0.058
-651.828	262.610	-0.071	-0.126
-650.814	40.298	-0.286	0.260
-649.799	-200.000	0.010	0.123
-648.784	-200.000	-0.010	-0.106
-647.770	-58.714	0.149	-0.066
-646.755	-200.000	0.009	-0.385
-645.741	534.488	-0.228	-0.548
-644.726	800.000	-0.063	-0.254
-643.711	-65.811	-0.159	0.065
-642.697	-63.668	-0.367	0.153
-641.682	800.000	0.031	0.136
-640.668	-92.183	-0.260	-0.074
-639.653	200.608	0.124	0.193
-638.638	-151.976	0.208	0.015
-637.624	800.000	0.034	-0.124
-636.609	158.001	-0.355	-0.498
-635.595	-200.000	0.044	-0.232
-634.580	-152.566	0.112	0.008
-633.565	-8.504	-0.193	0.131
-632.551	800.000	0.097	-0.280
-631.536	800.000	-0.089	0.277
-630.522	-150.613	0.316	0.024
-629.507	25.789	0.250	-0.211
-628.492	-31.043	0.029	0.017
-627.478	-15.834	0.456	0.294
-626.463	800.000	0.032	-0.126
-625.449	-200.000	-0.083	-0.472
-624.434	-131.594	0.335	0.045
-623.419	55.234	-0.083	-0.081
-622.405	-7.926	0.206	0.140
-621.390	269.185	-0.070	-0.124
-620.376	-3.815	-0.129	0.090
-619.361	39.647	-0.388	0.352
-618.346	373.025	-0.124	-0.255
-617.332	184.300	-0.065	-0.097
-616.317	10.241	0.104	0.080
-615.303	800.000	0.185	-0.571
-614.288	-200.000	0.013	-0.128
-613.273	-43.728	-0.312	0.159
-612.259	-136.419	-0.262	-0.031
-611.244	-200.000	-0.007	0.168
-610.230	-200.000	0.028	0.339
-609.215	-150.291	-0.152	0.012
-608.201	-83.309	-0.250	-0.081
-607.186	50.895	0.158	-0.152
-606.171	-102.883	-0.197	-0.047
-605.157	113.435	-0.259	-0.318
-604.142	800.000	0.034	-0.121
-603.128	-125.814	0.161	-0.025
-602.113	246.193	0.102	0.173
-601.098	-200.000	0.045	-0.211
-600.084	800.000	0.049	-0.186
-599.069	362.799	-0.073	0.149
-598.055	-99.179	-0.247	-0.063
-597.040	582.800	0.074	-0.184
-596.025	-200.000	-0.041	-0.199
-595.011	-22.018	-0.144	0.088
-593.996	-6.782	0.081	0.056
-592.982	-83.488	-0.468	-0.151
-591.967	-200.000	0.036	-0.242
-590.952	304.095	-0.122	0.229
-589.938	-200.000	0.008	0.060
-588.923	800.000	0.055	0.168
-587.909	45.715	-0.112	-0.105
-586.894	72.999	-0.107	0.113
-585.879	-200.000	-0.074	-0.330
-584.865	359.921	0.067	-0.135
-583.850	-200.000	0.026	-0.197
-582.836	-55.914	-0.083	-0.037
-581.821	-82.425	0.204	-0.067
-580.806	598.208	0.046	-0.116
-579.792	-45.008	-0.143	-0.072
-578.777	-71.469	0.173	-0.065
-577.763	21.371	0.425	-0.349
-576.748	-200.000	0.035	-0.223
-575.733	127.508	-0.104	0.134
-574.719	67.573	-0.278	0.287
-573.704	-68.158	-0.378	-0.149
-572.690	-53.792	-0.231	-0.106
-571.675	-60.166	0.255	0.110
-570.661	-200.000	-0.022	-0.124
-569.646	-182.829	-0.372	-0.007
-568.631	-200.000	0.034	-0.249
-567.617	-109.916	0.232	-0.049
-566.602	800.000	0.121	-0.351
-565.588	800.000	-0.072	-0.269
-564.573	165.202	0.075	-0.107
-563.558	44.055	-0.206	0.191
-562.544	5.340	0.217	-0.162
-561.529	800.000	-0.070	0.208
-560.515	-163.269	0.296	-0.014
-559.500	-42.340	-0.168	-0.087
-558.485	-74.564	-0.324	0.118
-557.471	-129.211	0.149	-0.021
-556.456	-83.959	-0.107	-0.034
-555.442	-200.000	-0.004	0.063
-554.427	7.160	0.190	-0.143
-553.412	271.816	0.046	-0.082
-552.398	259.627	0.120	0.209
-551.383	188.999	-0.096	0.145
-550.369	83.201	-0.069	-0.076
-549.354	605.047	0.203	0.511
-548.339	200.313	0.129	-0.200
-547.325	800.000	-0.088	-0.294
-546.310	-50.093	-0.121	0.058
-545.296	-200.000	0.096	-0.000
-544.281	-114.346	-0.092	-0.018
-543.266	268.838	0.089	-0.158
-542.252	12.162	-0.149	-0.116
-541.237	-120.099	0.208	0.036
-540.223	389.778	0.107	-0.225
-539.208	-141.073	-0.110	0.011
-538.193	-200.000	-0.056	0.307
-537.179	-116.870	-0.117	0.022
-536.164	173.623	-0.154	-0.224
-535.150	-38.020	-0.214	-0.115
-534.135	-200.000	-0.035	0.458
-533.121	16.003	0.277	0.220
-532.106	-200.000	0.012	0.109
-531.091	-200.000	0.028	-0.139
-530.077	13.958	0.020	-0.015
-529.062	-175.217	0.371	-0.010
-528.048	340.357	0.082	0.161
-527.033	623.308	-0.174	0.441
-526.018	-83.893	-0.110	-0.035
-525.004	-44.576	-0.107	-0.054
-523.989	-114.367	0.262	0.051
-522.975	90.437	0.108	-0.121
-521.960	225.617	0.128	-0.210
-520.945	-95.559	-0.502	-0.136
-519.931	-165.899	0.112	0.005
-518.916	-154.437	0.076	0.005
-517.902	-195.405	0.285	-0.002
-516.887	-119.596	-0.067	-0.012
-515.872	800.000	0.084	-0.267
-514.858	-200.000	-0.031	-0.535
-513.843	-169.939	0.324	0.012
-512.829	-89.043	0.221	0.066
-511.814	-14.762	-0.229	0.148
-510.799	-110.185	-0.207	0.043
-509.785	76.813	0.136	-0.146
-508.770	25.050	0.223	-0.186
-507.756	800.000	-0.042	-0.156
-506.741	550.006	-0.080	0.193
-505.726	-173.300	0.205	-0.006
-504.712	-107.753	0.246	-0.054
-503.697	119.342	-0.343	-0.428
-502.683	800.000	0.057	-0.187
-501.668	171.440	0.184	-0.266
-500.653	565.423	-0.160	0.391
-499.639	60.140	0.319	0.318
-498.624	-118.384	-0.313	-0.056
-497.610	281.166	0.119	-0.215
-496.595	144.773	-0.127	0.170
-495.581	96.262	-0.175	-0.202
-494.566	20.310	-0.100	0.082
-493.551	-32.994	-0.375	-0.210
-492.537	305.946	-0.053	-0.099
-491.522	-200.000	0.036	0.384
-490.508	-96.088	-0.082	-0.022
-489.493	797.255	0.086	0.239
-488.478	101.396	-0.115	-0.135
-487.464	272.013	0.236	-0.419
-486.449	58.134	0.078	0.077
-485.435	800.000	0.079	0.232
-484.420	-94.628	-0.111	0.031
-483.405	10.266	0.243	0.186
-482.391	143.308	-0.136	0.183
-481.376	-60.241	0.053	0.023
-480.362	800.000	0.036	0.112
-479.347	278.529	-0.117	-0.210
-478.332	-200.000	0.050	0.536
-477.318	215.093	0.117	0.187
-476.303	26.608	-0.092	-0.078
-475.289	-109.233	-0.084	-0.018
-474.274	97.445	0.070	0.081
-473.259	172.134	-0.213	-0.308
-472.245	-39.202	-0.183	0.097
-471.230	-200.000	-0.031	0.156
-470.216	28.738	0.140	-0.120
-469.201	-200.000	-0.050	0.251
-468.186	478.999	-0.226	0.515
-467.172	14.572	0.032	0.025
-466.157	34.932	0.081	-0.071
-465.143	230.511	-0.151	0.249
-464.128	-192.301	-0.274	-0.003
-463.113	800.000	-0.051	-0.145
-462.099	800.000	0.073	0.220
-461.084	-166.163	0.269	-0.011
-460.070	96.444	0.156	-0.179
-459.055	-22.550	0.072	0.044
-458.040	26.238	-0.043	0.036
-457.026	322.007	0.028	-0.053
-456.011	800.000	0.040	-0.127
-454.997	160.012	-0.104	0.146
-453.982	-103.901	-0.219	0.051
-452.968	-200.000	-0.006	0.118
-451.953	196.449	0.141	0.215
-450.938	63.087	0.056	-0.057
-449.924	442.165	0.152	0.334
-448.909	714.705	0.096	0.255
-447.895	800.000	0.017	0.058
-446.880	800.000	0.063	-0.210
-445.865	-179.798	0.161	0.003
-444.851	70.669	0.103	-0.107
-443.836	-115.059	0.093	-0.018
-442.822	-71.499	0.253	-0.095
-441.807	684.431	-0.061	0.160
-440.792	-129.058	-0.064	0.009
-439.778	563.540	0.170	0.414
-438.763	-200.000	-0.001	0.131
-437.749	-146.269	0.383	-0.034
-436.734	800.000	0.046	-0.164
-435.719	-200.000	-0.043	0.265
-434.705	-200.000	-0.056	0.256
-433.690	77.490	-0.176	0.188
-432.676	-16.271	-0.085	0.054
-431.661	776.033	-0.058	0.160
-430.646	-200.000	0.029	0.194
-429.632	206.857	0.148	0.231
-428.617	-92.066	0.106	-0.030
-427.603	67.255	-0.098	-0.101
-426.588	-200.000	-0.023	-0.236
-425.573	234.430	0.078	0.129
-424.559	656.043	0.165	0.425
-423.544	114.090	0.127	-0.155
-422.530	800.000	0.087	0.322
-421.515	767.943	-0.060	-0.164
-420.500	142.770	0.150	-0.200
-419.486	-85.555	0.111	0.035
-418.471	83.350	-0.273	-0.298
-417.457	-81.919	0.251	-0.082
-416.442	53.225	-0.131	0.126
-415.428	-200.000	-0.021	-0.123
-414.413	347.692	-0.141	0.279
-413.398	-200.000	-0.049	0.463
-412.384	18.731	-0.346	0.278
-411.369	-144.942	0.114	-0.010
-410.355	-55.814	-0.024	-0.011
-409.340	-3.055	0.174	-0.122
-408.325	-193.820	0.147	-0.001
-407.311	-68.707	-0.073	-0.028
-406.296	-61.997	-0.191	0.080
-405.282	-42.695	-0.286	-0.146
-404.267	149.735	-0.061	0.083
-403.252	57.187	0.142	0.139
-402.238	21.252	-0.013	-0.010
-401.223	11.642	0.035	-0.027
-400.209	349.594	-0.121	0.240
-399.194	-200.000	0.024	0.280
-398.179	88.245	0.060	0.067
-397.165	800.000	-0.048	-0.145
-396.150	-200.000	-0.025	-0.274
-395.136	-33.770	-0.221	-0.122
-394.121	800.000	-0.099	0.283
-393.106	489.523	-0.111	0.255
-392.092	25.115	-0.113	0.094
-391.077	-14.837	-0.215	-0.139
-390.063	-45.524	0.277	-0.137
-389.048	67.584	0.195	0.200
-388.033	38.068	0.089	0.080
-387.019	-200.000	0.024	-0.119
-386.004	800.000	0.028	0.105
-384.990	27.005	-0.068	0.057
-383.975	-96.981	-0.109	0.029
-382.960	101.573	0.108	0.126
-381.946	800.000	0.045	0.183
-380.931	80.440	0.015	-0.016
-379.917	285.289	-0.094	0.170
-378.902	-27.692	0.116	0.068
-377.888	59.351	-0.083	-0.082
-376.873	333.669	-0.188	-0.364
-375.858	800.000	0.062	-0.246
-374.844	-200.000	0.018	0.170
-373.829	26.584	0.198	0.166
-372.815	-66.728	-0.251	0.100
-371.800	-200.000	0.003	0.348
-370.785	-165.110	-0.195	0.009
-369.771	-113.454	-0.057	0.011
-368.756	-200.000	-0.040	-0.239
-367.742	-38.734	-0.159	-0.084
-366.727	-200.000	0.006	-0.234
-365.712	4.755	-0.229	-0.168
-364.698	449.128	-0.146	-0.322
-363.683	25.017	-0.121	0.101
-362.669	71.621	0.218	0.227
-361.654	-57.266	-0.273	-0.120
-360.639	50.018	0.022	0.021
-359.625	89.563	0.026	-0.029
-358.610	-54.756	0.115	-0.052
-357.596	-200.000	-0.024	-0.405
-356.581	81.603	0.128	-0.139
-355.566	104.113	0.346	0.407
-354.552	560.838	0.022	0.054
-353.537	-5.751	0.160	0.110
-352.523	17.520	-0.273	0.217
-351.508	-34.853	0.231	-0.126
-350.493	-1.112	-0.157	-0.111
-349.479	23.889	-0.166	0.137
-348.464	-162.630	0.203	0.010
-347.450	11.765	0.216	-0.166
-346.435	-76.997	-0.343	-0.120
-345.420	800.000	0.033	0.125
-344.406	88.165	-0.138	0.153
-343.391	73.485	-0.102	-0.107
-342.377	800.000	-0.054	-0.190
-341.362	-148.852	0.119	0.010
-340.348	-130.427	-0.123	-0.017
-339.333	44.673	0.187	0.172
-338.318	-87.449	0.301	-0.091
-337.304	-90.615	-0.135	0.039
-336.289	249.764	0.078	-0.132
-335.275	47.283	0.296	-0.276
-334.260	-26.228	-0.212	-0.125
-333.245	-142.010	-0.422	-0.042
-332.231	-200.000	0.030	0.187
-331.216	-200.000	-0.024	0.116
-330.202	-200.000	0.015	-0.067
-329.187	-200.000	-0.080	0.381
-328.172	-52.561	0.263	-0.121
-327.158	-200.000	0.042	-0.312
-326.143	-4.874	0.176	0.121
-325.129	-118.498	0.086	-0.015
-324.114	-200.000	-0.042	0.424
-323.099	-200.000	0.002	-0.017
-322.085	-200.000	-0.010	0.410
-321.070	800.000	-0.056	-0.209
-320.056	-53.466	-0.234	0.107
-319.041	-160.828	0.390	0.021
-318.026	288.151	0.118	-0.213
-317.012	-99.432	-0.290	0.073
-315.997	800.000	-0.099	0.309
-314.983	-77.931	0.266	-0.092
-313.968	-25.849	-0.455	0.268
-312.953	57.907	0.128	-0.125
-311.939	-162.979	-0.311	-0.015
-310.924	-127.100	-0.392	0.057
-309.910	-200.000	0.000	-0.069
-308.895	-200.000	-0.014	0.133
-307.880	123.019	0.194	-0.243
-306.866	426.985	0.035	0.076
-305.851	147.176	0.157	-0.211
-304.837	754.381	-0.137	-0.370
-303.822	-200.000	-0.030	0.229
-302.807	-11.021	-0.229	-0.151
-301.793	-200.000	0.004	0.056
-300.778	800.000	0.038	0.107
-299.764	130.498	-0.095	0.121
-298.749	-86.082	0.191	-0.059
-297.735	70.690	0.274	-0.283
-296.720	-200.000	-0.007	-0.217
-295.705	314.340	0.061	0.115
-294.691	-29.605	-0.176	-0.100
-293.676	-21.381	0.097	0.059
-292.662	467.029	0.102	0.228
-291.647	-108.717	-0.323	0.069
-290.632	451.399	0.029	0.064
-289.618	-200.000	-0.030	-0.390
-288.603	800.000	-0.068	-0.219
-287.589	-13.446	-0.196	-0.127
-286.574	-70.801	0.360	0.136
-285.559	58.453	-0.140	-0.138
-284.545	-91.049	-0.204	0.058
-283.530	2.122	0.225	0.162
-282.516	-185.832	0.392	-0.006
-281.501	-117.481	-0.439	0.079
-280.486	69.189	0.138	0.141
-279.472	87.411	0.330	-0.364
-278.457	800.000	-0.021	0.086
-277.443	50.783	0.082	-0.077
-276.428	-200.000	0.020	-0.269
-275.413	7.810	-0.286	-0.214
-274.399	-200.000	-0.002	0.211
-273.384	-130.201	0.115	-0.016
-272.370	500.255	0.108	0.250
-271.355	87.299	-0.104	-0.115
-270.340	129.582	0.089	-0.114
-269.326	3.912	0.248	0.181
-268.311	192.405	-0.156	0.234
-267.297	800.000	-0.013	-0.051
-266.282	51.134	0.266	-0.252
-265.267	-159.996	-0.255	-0.014
-264.253	433.009	0.074	0.160
-263.238	25.760	0.267	-0.222
-262.224	-43.665	0.047	-0.024
-261.209	-150.061	-0.183	-0.014
-260.195	-88.809	0.149	-0.044
-259.180	10.148	-0.226	-0.171
-258.165	-8.694	-0.232	0.155
-257.151	-98.488	-0.265	-0.068
-256.136	-200.000	0.022	0.102
-255.122	-141.357	0.150	0.015
-254.107	-200.000	-0.025	0.212
-253.092	648.105	-0.068	0.174
-252.078	271.135	0.084	-0.148
-251.063	-169.355	0.058	0.002
-250.049	-10.240	0.078	0.051
-249.034	-101.870	-0.226	0.054
-248.019	800.000	0.105	0.361
-247.005	-103.521	0.376	0.088
-245.990	31.807	0.066	0.057
-244.976	58.286	0.228	0.223
-243.961	-200.000	0.034	-0.200
-242.946	-51.981	-0.172	0.080
-241.932	-6.162	-0.406	-0.276
-240.917	800.000	-0.068	0.271
-239.903	-149.631	-0.193	-0.015
-238.888	164.886	-0.234	-0.329
-237.873	-147.519	0.176	0.015
-236.859	-200.000	0.017	0.168
-235.844	800.000	-0.033	-0.119
-234.830	-129.838	0.127	0.017
-233.815	-20.419	0.121	0.074
-232.800	229.439	0.195	-0.317
-231.786	800.000	0.033	0.116
-230.771	-200.000	0.030	0.147
-229.757	-115.222	-0.135	-0.025
-228.742	153.945	-0.219	0.300
-227.727	195.870	0.141	0.214
-226.713	-2.748	0.319	-0.222
-225.698	-200.000	-0.038	0.393
-224.684	-152.629	-0.082	0.006
-223.669	-141.482	-0.096	-0.010
-222.655	-89.245	-0.114	-0.033
-221.640	-167.467	-0.217	-0.009
-220.625	-91.569	0.321	0.091
-219.611	-200.000	-0.015	-0.094
-218.596	71.687	0.117	0.122
-217.582	-59.601	-0.243	-0.104
-216.567	-200.000	-0.017	0.248
-215.552	95.269	-0.141	-0.160
-214.538	28.379	0.075	0.063
-213.523	27.419	-0.131	-0.110
-212.509	30.289	0.084	-0.072
-211.494	-21.162	0.211	0.128
-210.479	-200.000	-0.018	0.153
-209.465	-77.276	0.092	-0.032
-208.450	-68.899	-0.076	-0.029
-207.436	59.932	0.199	0.196
-206.421	90.741	-0.081	-0.090
-205.406	-16.419	0.114	0.072
-204.392	64.160	0.365	0.366
-203.377	-130.190	-0.154	0.021
-202.363	-200.000	0.595	-0.001
-201.348	54.983	0.240	-0.231
-200.333	48.327	0.235	-0.219
-199.319	-19.802	-0.378	-0.232
-198.304	174.765	0.034	-0.050
-197.290	234.211	-0.100	0.164
-196.275	-100.354	0.275	-0.068
-195.260	-136.282	0.334	0.039
-194.246	800.000	-0.161	-0.549
-193.231	800.000	0.003	-0.010
-192.217	82.908	0.128	0.139
-191.202	-123.247	0.105	-0.017
-190.187	800.000	0.016	0.050
-189.173	-79.559	0.062	0.021
-188.158	342.338	0.203	0.396
-187.144	615.388	0.090	0.225
-186.129	66.967	-0.221	-0.224
-185.114	-67.971	0.227	-0.088
-184.100	-28.409	0.142	0.081
-183.085	-133.667	-0.346	-0.043
-182.071	-5.251	0.084	0.058
-181.056	-200.000	-0.048	-0.327
-180.042	-91.850	0.069	-0.019
-179.027	-200.000	-0.007	0.110
-178.012	800.000	-0.105	-0.447
-176.998	-78.306	-0.318	-0.108
-175.983	554.834	-0.071	0.170
-174.969	-12.326	-0.199	-0.130
-173.954	800.000	0.108	0.359
-172.939	-59.819	-0.119	-0.051
-171.925	800.000	0.018	-0.054
-170.910	-200.000	-0.004	0.189
-169.896	235.788	0.068	-0.112
-168.881	-174.848	0.290	0.008
-167.866	188.816	-0.115	0.172
-166.852	800.000	-0.126	0.439
-165.837	59.727	-0.179	-0.176
-164.823	533.862	-0.043	-0.100
-163.808	238.646	-0.089	-0.147
-162.793	-60.424	-0.202	0.085
-161.779	-189.784	0.111	0.001
-160.764	784.410	0.009	-0.025
-159.750	-149.895	0.198	-0.015
-158.735	-188.051	-0.259	-0.003
-157.720	42.849	0.194	0.176
-156.706	294.147	0.087	0.158
-155.691	141.406	0.126	-0.166
-154.677	7.092	0.161	0.119
-153.662	-99.875	0.077	-0.019
-152.647	-200.000	-0.016	-0.202
-151.633	-116.449	0.050	-0.009
-150.618	788.101	-0.152	0.414
-149.604	-40.446	0.094	0.048
-148.589	52.672	-0.383	-0.364
-147.574	-26.767	0.270	0.157
-146.560	800.000	-0.047	0.156
-145.545	-73.138	-0.116	-0.042
-144.531	-200.000	-0.051	-0.288
-143.516	-69.851	-0.190	-0.072
-142.502	58.863	0.153	-0.149
-141.487	-200.000	0.054	0.323
-140.472	439.543	-0.131	-0.283
-139.458	603.960	0.134	-0.332
-138.443	105.758	0.148	-0.173
-137.429	-75.524	0.444	-0.157
-136.414	311.950	-0.037	0.069
-135.399	-19.182	-0.266	0.164
-134.385	-200.000	-0.024	0.134
-133.370	-179.972	-0.094	0.002
-132.356	-42.722	0.262	0.132
-131.341	194.885	0.135	-0.204
-130.326	-25.273	0.162	0.095
-129.312	-200.000	0.021	-0.204
-128.297	78.061	0.261	-0.277
-127.283	-161.754	0.063	-0.003
-126.268	-163.598	0.276	-0.013
-125.253	77.343	0.165	0.174
-124.239	641.850	-0.078	0.196
-123.224	72.958	0.230	-0.238
-122.210	-57.938	-0.058	-0.025
-121.195	87.179	-0.089	-0.097
-120.180	-82.541	0.219	-0.071
-119.166	38.593	-0.197	0.174
-118.151	616.363	0.041	0.102
-117.137	7.894	-0.240	-0.179
-116.122	800.000	-0.116	0.394
-115.107	-200.000	-0.029	0.133
-114.093	-31.351	0.113	0.063
-113.078	-182.255	-0.326	-0.006
-112.064	-24.294	-0.239	0.141
-111.049	800.000	-0.079	0.269
-110.034	-200.000	0.007	-0.183
-109.020	29.741	0.208	-0.176
-108.005	5.511	-0.069	-0.050
-106.991	-70.182	0.268	0.101
-105.976	719.169	0.129	0.340
-104.962	29.359	-0.361	0.304
-103.947	401.061	0.097	0.202
-102.932	-95.334	-0.112	0.030
-101.918	450.707	0.136	0.298
-100.903	-200.000	0.021	0.254
-99.889	319.254	0.043	0.081
-98.874	800.000	-0.061	0.212
-97.859	-152.195	0.216	-0.015
-96.845	-0.535	0.257	-0.181
-95.830	705.011	0.074	0.194
-94.816	-89.217	0.037	0.011
-93.801	142.492	-0.103	0.136
-92.786	46.437	0.133	0.122
-91.772	-126.576	0.462	0.068
-90.757	-200.000	0.024	0.244
-89.743	-40.754	0.188	-0.096
-88.728	-98.274	0.185	-0.047
-87.713	800.000	0.035	0.107
-86.699	126.347	0.050	-0.063
-85.684	-79.443	-0.434	-0.145
-84.670	-35.327	-0.144	-0.078
-83.655	800.000	0.046	0.174
-82.640	-150.285	-0.110	-0.008
-81.626	-39.073	0.048	0.025
-80.611	161.340	-0.174	0.241
-79.597	-70.917	0.412	0.154
-78.582	-99.876	0.100	-0.025
-77.567	-96.534	-0.322	0.084
-76.553	-200.000	-0.013	0.088
-75.538	-110.516	-0.303	-0.062
-74.524	-85.870	0.162	-0.050
-73.509	800.000	-0.027	0.078
-72.494	800.000	0.074	0.225
-71.480	75.282	0.032	-0.033
-70.465	297.903	0.046	0.084
-69.451	-157.013	0.164	0.010
-68.436	-84.571	-0.273	-0.085
-67.422	217.631	-0.157	0.248
-66.407	-143.787	-0.098	-0.009
-65.392	527.204	0.010	0.023
-64.378	-54.704	0.243	0.109
-63.363	49.266	0.045	0.042
-62.349	-75.334	0.297	0.105
-61.334	84.428	-0.778	-0.843
-60.319	-14.444	0.484	0.308
-59.305	800.000	-0.237	-0.692
-58.290	179.467	0.588	0.852
-57.276	800.000	0.646	1.783
-56.261	-200.000	94.965	548.374
-55.246	513.554	1403.183	3238.904
-54.232	147.345	2618.236	3489.040
-53.217	111.495	2215.765	2645.062
-52.203	46.087	1659.563	1520.881
-51.188	37.950	1391.256	1224.150
-50.173	34.589	1348.081	1165.634
-49.159	54.282	1396.036	1329.973
-48.144	57.706	1413.865	1368.193
-47.130	38.285	1368.539	1206.040
-46.115	34.684	1351.237	1168.760
-45.100	34.582	1345.858	1163.437
-44.086	34.470	1343.455	1160.633
-43.071	34.440	1341.217	1158.472
-42.057	34.348	1339.419	1156.315
-41.042	34.432	1337.885	1155.454
-40.027	34.549	1335.899	1154.398
-39.013	34.526	1333.563	1152.197
-37.998	34.462	1332.088	1150.492
-36.984	34.548	1330.519	1149.607
-35.969	34.584	1328.335	1147.889
-34.954	34.591	1326.977	1146.716
-33.940	34.611	1325.310	1145.347
-32.925	34.544	1324.599	1144.283
-31.911	34.580	1322.693	1142.809
-30.896	34.655	1321.136	1141.867
-29.881	34.674	1319.792	1140.776
-28.867	34.622	1318.734	1139.501
-27.852	34.802	1316.314	1138.441
-26.838	34.654	1315.083	1136.451
-25.823	34.642	1314.102	1135.484
-24.809	34.591	1312.156	1133.458
-23.794	34.628	1311.216	1132.821
-22.779	34.551	1309.814	1131.104
-21.765	34.608	1308.893	1130.605
-20.750	34.539	1307.836	1129.239
-19.736	34.495	1306.616	1127.879
-18.721	34.525	1305.168	1126.759
-17.706	34.524	1303.705	1125.449
-16.692	34.485	1302.351	1124.002
-15.677	34.513	1301.443	1123.338
-14.663	34.527	1300.153	1122.268
-13.648	34.442	1298.573	1120.359
-12.633	34.477	1298.173	1120.172
-11.619	34.520	1297.081	1119.439
-10.604	34.439	1296.147	1118.112
-9.590	34.553	1295.195	1117.918
-8.575	34.472	1294.232	1116.566
-7.560	34.408	1293.768	1115.746
-6.546	34.494	1292.324	1114.958
-5.531	34.536	1291.399	1114.361
-4.517	34.374	1291.059	1113.079
-3.502	34.477	1289.884	1112.625
-2.487	34.431	1289.364	1111.859
-1.473	34.482	1285.208	1108.529
-0.458	33.719	1269.815	1090.824
0.556	28.882	1251.960	1052.888
1.571	24.856	1256.738	1033.615
2.586	23.414	1271.580	1037.296
3.600	22.464	1260.428	1022.593
4.615	16.571	1182.866	927.374
5.629	5.898	1101.592	808.818
6.644	0.807	1078.733	766.224
7.659	0.307	1076.436	761.993
8.673	0.234	1075.251	760.720
9.688	0.293	1073.790	759.917
10.702	0.402	1072.662	759.599
11.717	6.379	1080.560	795.383
12.731	15.585	1092.938	851.267
13.746	18.420	1095.246	867.363
14.761	17.235	1093.200	859.678
15.775	16.224	1090.862	852.655
16.790	15.032	1089.354	845.384
17.804	14.396	1087.761	840.865
18.819	14.095	1086.219	838.080
19.834	13.764	1085.409	835.714
20.848	13.370	1084.519	832.974
21.863	13.390	1083.138	831.941
22.877	13.239	1082.726	830.792
23.892	13.118	1082.005	829.554
24.907	13.102	1081.390	828.931
25.921	13.249	1080.414	828.847
26.936	13.370	1079.263	828.496
27.950	13.260	1078.827	827.536
28.965	13.388	1077.400	827.007
29.980	13.295	1076.362	825.673
30.994	13.437	1075.548	825.688
32.009	13.447	1074.019	824.489
33.023	13.413	1073.230	823.641
34.038	13.420	1072.050	822.698
35.053	13.285	1071.310	821.388
36.067	13.332	1070.606	821.006
37.082	13.286	1069.530	819.880
38.096	13.321	1068.763	819.393
39.111	13.411	1067.976	819.162
40.126	13.271	1066.786	817.485
41.140	13.339	1065.325	816.631
42.155	13.230	1064.456	815.354
43.169	13.010	1063.987	813.840
44.184	13.092	1062.988	813.403
45.199	13.107	1061.726	812.440
46.213	13.167	1060.148	811.458
47.228	13.201	1059.372	810.960
48.242	13.301	1058.636	810.815
49.257	13.429	1057.066	810.166
50.271	13.278	1056.386	808.834
51.286	13.261	1055.984	808.374
52.301	13.282	1054.593	807.337
53.315	13.202	1053.871	806.325
54.330	13.184	1052.981	805.486
55.344	13.403	1051.537	805.371
56.359	13.207	1051.139	804.044
57.374	13.111	1050.189	802.779
58.388	13.182	1049.209	802.306
59.403	13.195	1048.143	801.483
60.417	13.187	1047.736	801.058
61.432	13.167	1046.936	800.281
62.447	13.148	1045.925	799.343
63.461	13.138	1045.021	798.535
64.476	13.110	1043.696	797.315
65.490	13.072	1043.454	796.877
66.505	13.132	1042.703	796.524
67.520	13.206	1041.953	796.238
68.534	13.301	1041.403	796.205
69.549	13.112	1040.715	794.698
70.563	13.138	1039.368	793.724
71.578	13.057	1039.025	793.004
72.593	12.947	1038.040	791.652
73.607	13.017	1037.329	791.377
74.622	13.070	1036.681	791.067
75.636	12.971	1036.102	790.078
76.651	13.053	1035.211	789.721
77.666	13.090	1034.705	789.445
78.680	13.116	1033.565	788.628
79.695	13.175	1032.783	788.245
80.709	13.114	1032.695	787.816
81.724	13.169	1031.764	787.299
82.739	13.204	1031.008	786.816
83.753	13.279	1029.752	786.146
84.768	13.400	1028.823	785.941
85.782	13.385	1027.971	785.149
86.797	13.305	1027.706	784.498
87.812	13.262	1026.840	783.564
88.826	13.339	1025.311	782.694
89.841	13.351	1024.676	782.197
90.855	13.316	1023.650	781.179
91.870	13.255	1022.768	780.146
92.884	13.355	1021.698	779.735
93.899	13.479	1020.829	779.584
94.914	13.448	1020.194	778.887
95.928	13.465	1019.762	778.569
96.943	13.388	1018.806	777.405
97.957	13.413	1017.809	776.695
98.972	13.329	1016.900	775.540
99.987	13.330	1016.155	774.909
101.001	13.478	1014.747	774.456
102.016	13.325	1014.223	773.274
103.030	13.372	1013.639	772.978
104.045	13.374	1012.425	771.996
105.060	13.350	1011.775	771.318
106.074	13.304	1010.676	770.199
107.089	13.167	1009.662	768.720
108.103	13.169	1008.801	768.006
109.118	13.165	1008.165	767.433
110.133	13.265	1007.070	766.999
111.147	13.231	1005.802	765.806
112.162	13.225	1005.762	765.681
113.176	13.370	1004.422	765.261
114.191	13.386	1003.646	764.676
115.206	13.292	1003.066	763.734
116.220	13.333	1002.100	763.122
117.235	13.416	1001.051	762.635
118.249	13.358	1000.379	761.791
119.264	13.330	999.377	760.830
120.279	13.340	998.581	760.204
121.293	13.251	997.804	759.133
122.308	13.326	997.135	758.903
123.322	13.265	996.197	757.842
124.337	13.220	995.310	756.893
125.352	13.304	994.128	756.315
126.366	13.212	993.289	755.188
127.381	13.289	992.102	754.570
128.395	13.354	990.719	753.749
129.410	13.246	990.399	752.944
130.424	13.383	989.236	752.620
131.439	13.399	988.612	752.152
132.454	13.458	987.570	751.557
133.468	13.392	986.799	750.606
134.483	13.458	985.934	750.181
135.497	13.380	985.242	749.232
136.512	13.468	984.061	748.670
137.527	13.351	983.414	747.583
138.541	13.355	982.855	747.109
139.556	13.371	982.648	746.955
140.570	13.453	981.548	746.424
141.585	13.548	980.453	745.954
142.600	13.666	979.323	745.556
143.614	13.621	978.487	744.653
144.629	13.610	978.035	744.192
145.643	13.614	977.086	743.424
146.658	13.477	976.238	742.098
147.673	13.474	975.235	741.259
148.687	13.480	974.225	740.451
149.702	13.538	973.090	739.782
150.716	13.369	972.645	738.625
151.731	13.434	972.400	738.665
152.746	13.499	971.270	738.031
153.760	13.550	970.249	737.416
154.775	13.518	970.128	737.114
155.789	13.538	969.434	736.613
156.804	13.661	968.215	736.166
157.819	13.610	967.853	735.597
158.833	13.772	967.026	735.622
159.848	13.691	966.400	734.725
160.862	13.664	965.016	733.488
161.877	13.604	964.280	732.596
162.892	13.655	963.150	731.899
163.906	13.601	962.140	730.831
164.921	13.662	961.100	730.245
165.935	13.603	960.453	729.428
166.950	13.738	959.307	729.085
167.964	13.563	958.795	727.864
168.979	13.613	957.751	727.228
169.994	13.689	956.747	726.734
171.008	13.700	956.200	726.302
172.023	13.731	955.667	725.969
173.037	13.783	955.266	725.824
174.052	13.705	954.320	724.701
175.067	13.639	954.052	724.148
176.081	13.642	953.062	723.346
177.096	13.715	952.573	723.228
178.110	13.695	951.749	722.450
179.125	13.753	951.116	722.157
180.140	13.636	950.782	721.331
181.154	13.737	950.552	721.535
182.169	13.886	949.301	721.168
183.183	13.735	948.991	720.210
184.198	13.829	948.137	719.909
185.213	13.956	947.318	719.774
186.227	13.852	946.976	718.996
187.242	13.872	946.240	718.461
188.256	14.088	945.235	718.567
189.271	13.928	944.398	717.178
190.286	13.676	943.844	715.609
191.300	13.849	943.057	715.695
192.315	13.636	942.937	714.619
193.329	13.718	942.315	714.440
194.344	13.781	941.657	714.150
195.359	13.853	940.523	713.535
196.373	13.972	940.457	713.931
197.388	14.012	939.720	713.480
198.402	14.126	939.056	713.405
199.417	14.052	938.225	712.391
200.432	14.085	937.909	712.231
201.446	14.210	937.515	712.403
202.461	14.232	937.083	712.108
203.475	14.163	936.313	711.161
204.490	14.149	935.504	710.425
205.504	14.032	934.991	709.475
206.519	14.000	933.846	708.405
207.534	14.031	933.331	708.086
208.548	14.106	932.755	707.903
209.563	14.153	932.013	707.477
210.577	14.172	931.096	706.802
211.592	14.246	930.422	706.542
212.607	14.236	929.815	705.975
213.621	14.281	928.888	705.397
214.636	14.136	928.273	704.257
215.650	14.349	927.517	704.522
216.665	14.369	926.815	704.008
217.680	14.428	926.017	703.588
218.694	14.272	925.565	702.527
219.709	14.401	924.904	702.504
220.723	14.397	924.014	701.751
221.738	14.430	923.187	701.199
222.753	14.381	922.767	700.614
223.767	14.550	922.103	700.759
224.782	14.418	921.539	699.714
225.796	14.518	921.141	699.766
226.811	14.499	920.310	698.993
227.826	14.345	919.598	697.746
228.840	14.480	918.658	697.536
229.855	14.439	917.984	696.793
230.869	14.453	917.483	696.409
231.884	14.414	916.628	695.533
232.899	14.502	915.761	695.184
233.913	14.563	915.007	694.801
234.928	14.396	914.633	693.763
235.942	14.316	914.084	692.950
236.957	14.507	913.078	692.922
237.972	14.472	912.982	692.641
238.986	14.554	912.089	692.246
240.001	14.464	911.807	691.595
241.015	14.592	911.078	691.510
242.030	14.595	909.918	690.583
243.045	14.604	909.917	690.558
244.059	14.491	909.689	689.854
245.074	14.581	908.652	689.381
246.088	14.635	907.375	688.574
247.103	14.593	907.315	688.293
248.117	14.527	906.477	687.324
249.132	14.709	905.978	687.634
250.147	14.915	905.129	687.778
251.161	14.889	904.400	687.057
252.176	14.862	903.960	686.549
253.190	14.967	903.122	686.282
254.205	15.049	902.318	685.948
255.220	14.924	902.071	685.187
256.234	15.069	901.113	684.992
257.249	14.996	900.340	684.044
258.263	15.114	899.304	683.678
259.278	15.069	898.829	683.075
260.293	15.079	898.632	682.904
261.307	15.080	897.935	682.321
262.322	15.084	897.421	681.885
263.336	15.151	896.058	681.060
264.351	15.173	895.593	680.735
265.366	15.128	895.114	680.128
266.380	15.062	894.831	679.588
267.395	15.178	893.450	678.946
268.409	15.195	893.206	678.771
269.424	15.183	892.085	677.809
270.439	15.130	891.586	677.155
271.453	15.160	890.796	676.616
272.468	15.059	890.352	675.811
273.482	15.245	889.858	676.127
274.497	15.200	889.449	675.579
275.512	15.251	888.499	675.001
276.526	15.135	888.455	674.440
277.541	15.381	887.534	674.672
278.555	15.360	886.798	673.967
279.570	15.395	885.842	673.322
280.585	15.402	885.410	672.964
281.599	15.236	884.850	671.811
282.614	15.284	884.027	671.320
283.628	15.339	883.662	671.202
284.643	15.425	882.790	670.823
285.657	15.363	882.382	670.210
286.672	15.352	881.698	669.587
287.687	15.506	881.082	669.674
288.701	15.327	880.490	668.449
289.716	15.412	879.523	667.995
290.730	15.434	879.229	667.799
291.745	15.378	878.981	667.330
292.760	15.514	877.879	666.975
293.774	15.580	877.600	666.964
294.789	15.556	876.919	666.295
295.803	15.505	876.218	665.499
296.818	15.476	875.489	664.774
297.833	15.532	874.413	664.118
298.847	15.714	873.802	664.314
299.862	15.664	873.486	663.819
300.876	15.483	873.083	662.740
301.891	15.627	872.185	662.565
302.906	15.708	872.097	662.758
303.920	15.754	871.300	662.277
304.935	15.721	871.047	661.896
305.949	15.696	870.300	661.172
306.964	15.660	869.940	660.698
307.979	15.658	869.308	660.150
308.993	15.888	868.379	660.291
310.008	15.907	867.802	659.866
311.022	15.854	867.324	659.237
312.037	15.845	866.403	658.444
313.052	15.778	866.142	657.927
314.066	15.769	865.664	657.469
315.081	15.767	865.247	657.086
316.095	15.812	864.191	656.401
317.110	15.821	863.740	656.036
318.125	15.946	863.022	655.920
319.139	15.876	862.658	655.311
320.154	15.741	862.424	654.550
321.168	15.905	861.430	654.376
322.183	15.943	860.902	654.065
323.197	16.050	860.279	653.949
324.212	15.968	859.950	653.321
325.227	16.055	859.296	653.107
326.241	15.861	858.971	652.050
327.256	15.979	858.503	652.092
328.270	15.938	857.812	651.351
329.285	16.088	857.195	651.403
330.300	15.988	856.484	650.421
331.314	16.047	855.727	650.016
332.329	16.018	855.288	649.515
333.343	16.068	855.014	649.440
334.358	16.082	855.059	649.473
335.373	16.081	854.194	648.752
336.387	16.186	854.101	649.031
337.402	16.095	853.829	648.416
338.416	16.033	853.628	647.966
339.431	16.223	853.043	648.195
340.446	16.148	852.402	647.362
341.460	16.283	851.913	647.453
342.475	16.145	852.071	646.985
343.489	16.351	851.054	646.944
344.504	16.451	850.783	647.063
345.519	16.443	849.832	646.252
346.533	16.305	849.564	645.464
347.548	16.468	848.815	645.461
348.562	16.255	849.107	644.812
349.577	16.231	848.026	643.844
350.592	16.347	847.305	643.683
351.606	16.219	846.699	642.678
352.621	16.301	846.248	642.587
353.635	16.455	845.282	642.384
354.650	16.358	844.713	641.526
355.665	16.386	844.281	641.247
356.679	16.370	843.238	640.338
357.694	16.414	842.934	640.217
358.708	16.406	842.142	639.529
359.723	16.419	841.506	639.040
360.738	16.444	841.124	638.788
361.752	16.365	840.603	638.037
362.767	16.544	839.733	637.995
363.781	16.534	839.601	637.800
364.796	16.613	839.115	637.672
365.810	16.628	838.630	637.305
366.825	16.763	838.224	637.448
367.840	16.759	837.640	636.930
368.854	16.767	837.049	636.456
369.869	16.638	837.172	636.007
370.883	16.682	836.166	635.353
371.898	16.824	835.678	635.460
372.913	16.886	834.978	635.104
373.927	16.810	835.063	634.825
374.942	17.006	834.180	634.829
375.956	16.982	833.851	634.436
376.971	16.853	833.678	633.763
377.986	16.945	833.199	633.688
379.000	16.907	832.730	633.135
380.015	16.830	832.137	632.339
381.029	17.028	831.143	632.265
382.044	16.997	830.794	631.830
383.059	17.002	830.253	631.379
384.073	17.106	829.709	631.297
385.088	16.927	829.086	630.103
386.102	16.927	828.555	629.642
387.117	16.964	828.051	629.341
388.132	16.942	827.632	628.887
389.146	17.057	827.219	628.944
390.161	17.247	826.564	629.093
391.175	17.031	826.299	628.036
392.190	17.096	825.467	627.590
393.205	16.919	825.152	626.638
394.219	16.963	824.993	626.624
395.234	16.939	824.407	626.039
396.248	16.908	824.325	625.804
397.263	16.986	823.341	625.291
398.278	17.090	823.192	625.506
399.292	17.112	822.555	625.047
400.307	17.158	822.011	624.745
401.321	17.011	821.877	624.049
402.336	17.123	821.143	623.849
403.350	17.065	820.766	623.294
404.365	17.128	820.245	623.075
405.380	17.284	819.764	623.224
406.394	17.252	819.599	622.928
407.409	17.387	818.820	622.774
408.423	17.300	818.504	622.162
409.438	17.413	818.203	622.290
410.453	17.429	817.664	621.884
411.467	17.386	817.032	621.191
412.482	17.596	816.036	621.143
413.496	17.562	815.957	620.904
414.511	17.392	816.074	620.320
415.526	17.458	815.369	619.971
416.540	17.498	814.720	619.568
417.555	17.450	814.884	619.463
418.569	17.632	813.846	619.278
419.584	17.540	813.320	618.490
420.599	17.570	813.407	618.609
421.613	103.280	1284.699	1440.971
422.628	89.025	1353.346	1441.091
