DTS Sentinel unit serial number:	SN413079Multiplexer serial number:	ORYXHardware model number:	OX4-SRSoftware version number:	ORYX F/W v4.00 Oryx Data Collector v3.7.2.0data status	okinstallation	princeton_trtdifferential loss correction	single-endedforward channel	channel 1reverse channel	N/Adate	2019/09/12time	11:16:11forward acquisition time	60.00reverse acquisition time	0.00gamma	496.2192k internal	0.2296k external	0.2296temperature offset calibration	1.0043default loss term (dB/km)	0.3790temperature slope calibration	1.0000multiplexer offset coefficient	1.0000multiplexer slope coefficient	1.0000fibre end	0.00T internal ref (°C)	38.94T ext. ref 1 (°C)	1.95T ext. ref 2 (°C)	36.31length (m)	temperature (°C)	Stokes	anti-Stokes-747.200	-18.169	0.489	-0.313
-746.185	196.927	-0.086	-0.135
-745.171	-58.763	0.218	0.096
-744.156	-113.713	-0.333	0.066
-743.142	-200.000	-0.028	-0.224
-742.127	-200.000	-0.041	0.314
-741.112	-200.000	0.041	-0.260
-740.098	252.759	0.029	0.050
-739.083	436.345	-0.048	-0.108
-738.069	471.204	0.012	0.029
-737.054	-200.000	-0.019	0.135
-736.039	179.181	0.061	0.091
-735.025	520.615	0.187	0.449
-734.010	-77.860	-0.099	-0.035
-732.996	-59.083	-0.137	-0.060
-731.981	367.159	-0.043	-0.090
-730.966	-176.486	0.097	-0.003
-729.952	-60.528	0.434	-0.188
-728.937	269.906	-0.221	-0.396
-727.923	62.992	-0.295	0.301
-726.908	-200.000	0.037	0.218
-725.894	263.311	0.084	-0.148
-724.879	13.194	-0.253	0.200
-723.864	800.000	-0.081	-0.264
-722.850	108.652	-0.120	0.146
-721.835	281.245	-0.125	-0.228
-720.821	-33.581	0.175	0.099
-719.806	-200.000	-0.018	0.123
-718.791	385.829	-0.082	0.173
-717.777	4.406	-0.170	-0.127
-716.762	-82.308	-0.210	0.070
-715.748	-200.000	0.067	0.310
-714.733	-97.939	0.117	-0.031
-713.718	800.000	-0.062	-0.259
-712.704	-22.930	-0.265	-0.163
-711.689	27.774	-0.289	-0.249
-710.675	-54.895	0.286	0.132
-709.660	800.000	0.068	0.290
-708.645	200.623	0.129	-0.203
-707.631	-200.000	0.003	-0.345
-706.616	294.933	0.160	0.300
-705.602	-113.292	-0.295	-0.059
-704.587	-66.928	-0.147	-0.059
-703.572	-115.019	0.357	0.069
-702.558	-112.321	-0.127	0.026
-701.543	302.899	-0.072	0.136
-700.529	225.940	0.077	-0.128
-699.514	-200.000	0.019	0.123
-698.499	53.808	0.027	0.027
-697.485	308.672	-0.073	-0.139
-696.470	-148.062	0.076	-0.006
-695.456	800.000	-0.075	0.297
-694.441	-104.283	-0.157	-0.037
-693.426	102.415	-0.118	0.140
-692.412	35.470	-0.173	-0.155
-691.397	-142.630	-0.371	0.037
-690.383	-94.272	-0.134	0.037
-689.368	65.609	-0.066	-0.068
-688.354	576.970	-0.083	0.207
-687.339	-143.858	-0.099	-0.010
-686.324	11.270	0.041	0.032
-685.310	324.061	-0.107	0.209
-684.295	31.360	-0.100	0.087
-683.281	-200.000	0.003	0.236
-682.266	30.088	0.256	0.222
-681.251	-28.332	-0.361	0.212
-680.237	-90.378	-0.174	0.051
-679.222	800.000	0.045	-0.143
-678.208	169.307	0.092	0.134
-677.193	14.605	0.101	0.080
-676.178	265.487	-0.055	0.099
-675.164	-59.671	-0.131	0.057
-674.149	-81.317	-0.324	0.109
-673.135	-144.089	-0.197	0.019
-672.120	800.000	-0.009	-0.027
-671.105	145.161	-0.155	0.211
-670.091	800.000	-0.054	0.186
-669.076	-200.000	0.043	-0.262
-668.062	419.171	0.025	-0.054
-667.047	693.447	-0.052	0.139
-666.032	-200.000	0.006	-0.191
-665.018	218.708	0.017	-0.028
-664.003	47.294	-0.305	-0.289
-662.989	-200.000	-0.067	-0.305
-661.974	-21.217	-0.077	-0.048
-660.959	196.196	-0.139	-0.216
-659.945	-200.000	0.019	0.112
-658.930	-54.381	0.093	0.043
-657.916	-75.983	-0.256	0.092
-656.901	-196.538	0.432	0.003
-655.886	-112.613	0.132	0.027
-654.872	-45.686	-0.136	-0.068
-653.857	-200.000	0.089	0.401
-652.843	66.291	-0.080	0.083
-651.828	-200.000	0.062	0.318
-650.814	487.427	0.042	-0.098
-649.799	800.000	0.033	-0.124
-648.784	-59.603	-0.232	0.101
-647.770	-200.000	0.086	-0.424
-646.755	7.702	0.203	-0.155
-645.741	-49.124	-0.142	-0.069
-644.726	800.000	-0.083	0.278
-643.711	-67.370	-0.182	-0.073
-642.697	-32.751	-0.351	0.199
-641.682	-97.341	0.176	0.047
-640.668	-188.325	0.358	0.005
-639.653	220.244	0.067	-0.109
-638.638	-94.150	0.475	-0.132
-637.624	-61.933	-0.375	-0.160
-636.609	-26.868	-0.225	0.134
-635.595	-11.747	-0.061	-0.041
-634.580	-200.000	-0.033	-0.195
-633.565	-165.835	-0.164	-0.007
-632.551	-31.814	-0.135	-0.077
-631.536	218.726	-0.125	0.203
-630.522	378.397	-0.106	-0.221
-629.507	436.266	0.147	-0.325
-628.492	197.621	0.163	-0.254
-627.478	800.000	0.012	0.034
-626.463	318.110	-0.165	0.318
-625.449	-54.401	-0.069	-0.032
-624.434	-7.648	0.138	-0.095
-623.419	56.753	-0.147	0.146
-622.405	800.000	0.050	-0.213
-621.390	257.848	-0.158	0.276
-620.376	-167.340	0.290	-0.012
-619.361	79.375	-0.123	-0.134
-618.346	-37.915	0.302	-0.163
-617.332	-200.000	-0.018	-0.113
-616.317	218.908	-0.102	0.165
-615.303	-200.000	0.019	0.096
-614.288	222.714	0.088	0.144
-613.273	205.053	0.060	0.095
-612.259	207.333	-0.067	0.106
-611.244	-78.029	-0.114	0.040
-610.230	-119.218	-0.301	0.053
-609.215	-102.736	0.300	0.073
-608.201	800.000	0.023	0.098
-607.186	117.634	0.148	0.185
-606.171	24.458	0.218	-0.184
-605.157	-61.807	0.051	-0.022
-604.142	-106.005	-0.118	-0.027
-603.128	-70.281	-0.207	-0.080
-602.113	-162.107	0.157	0.008
-601.098	233.874	0.074	0.124
-600.084	-94.601	0.321	0.089
-599.069	-200.000	-0.006	0.212
-598.055	605.249	0.096	-0.243
-597.040	65.589	0.167	0.171
-596.025	192.354	-0.080	0.122
-595.011	-87.509	-0.208	0.064
-593.996	61.524	-0.106	0.107
-592.982	107.061	0.169	0.204
-591.967	6.072	-0.239	0.180
-590.952	-95.479	-0.112	-0.031
-589.938	-200.000	0.000	-0.216
-588.923	-200.000	0.002	-0.048
-587.909	-81.266	-0.227	0.076
-586.894	-200.000	-0.029	-0.254
-585.879	-111.579	-0.281	-0.058
-584.865	-2.997	0.144	-0.102
-583.850	524.128	0.154	-0.368
-582.836	669.238	-0.035	0.092
-581.821	16.371	0.255	-0.204
-580.806	89.354	-0.228	0.258
-579.792	-81.488	-0.098	0.033
-578.777	-200.000	-0.067	-0.343
-577.763	-105.903	0.061	0.014
-576.748	26.270	-0.120	0.102
-575.733	62.061	-0.140	0.142
-574.719	-46.126	0.104	-0.052
-573.704	-69.015	0.119	0.047
-572.690	12.080	-0.091	0.071
-571.675	-98.446	0.085	0.022
-570.661	800.000	-0.082	0.320
-569.646	249.691	-0.060	0.104
-568.631	-200.000	-0.014	0.144
-567.617	-200.000	-0.019	-0.257
-566.602	154.241	0.057	0.080
-565.588	217.862	0.051	0.083
-564.573	800.000	-0.060	-0.247
-563.558	301.322	-0.054	0.102
-562.544	-124.964	0.276	0.043
-561.529	-200.000	-0.075	-0.510
-560.515	-5.055	0.058	0.041
-559.500	-200.000	0.007	0.184
-558.485	264.696	-0.087	-0.154
-557.471	-150.427	-0.288	-0.022
-556.456	24.029	-0.117	-0.098
-555.442	287.133	-0.035	0.064
-554.427	512.206	0.049	0.115
-553.412	-200.000	-0.017	-0.087
-552.398	-200.000	0.019	-0.323
-551.383	800.000	0.067	0.283
-550.369	800.000	0.081	-0.318
-549.354	-51.110	0.232	0.110
-548.339	-13.426	0.216	0.142
-547.325	-200.000	0.029	0.136
-546.310	-131.849	0.132	0.017
-545.296	-6.917	-0.163	-0.112
-544.281	800.000	-0.047	0.166
-543.266	-200.000	-0.089	-0.412
-542.252	114.556	-0.235	-0.291
-541.237	-13.743	0.134	0.088
-540.223	-133.148	-0.185	-0.024
-539.208	-84.322	-0.105	0.034
-538.193	-146.444	0.344	0.030
-537.179	-115.927	0.303	0.057
-536.164	54.633	-0.113	-0.111
-535.150	16.775	0.136	-0.109
-534.135	520.647	-0.082	-0.196
-533.121	-138.830	0.113	0.012
-532.106	-200.000	-0.051	-0.225
-531.091	489.284	0.096	-0.223
-530.077	544.138	-0.253	-0.613
-529.062	-154.477	-0.035	0.002
-528.048	374.105	-0.086	-0.178
-527.033	-72.502	0.097	-0.036
-526.018	800.000	-0.073	-0.239
-525.004	-200.000	0.015	-0.110
-523.989	14.063	-0.209	0.165
-522.975	622.212	-0.124	0.315
-521.960	18.996	0.059	0.048
-520.945	-22.286	-0.143	0.088
-519.931	-200.000	-0.019	0.101
-518.916	352.872	-0.186	-0.373
-517.902	30.755	-0.117	0.101
-516.887	22.516	-0.171	0.142
-515.872	800.000	-0.053	-0.176
-514.858	-62.547	-0.336	0.141
-513.843	337.486	0.239	0.470
-512.829	494.975	-0.033	-0.078
-511.814	130.390	-0.127	0.165
-510.799	48.400	-0.313	0.297
-509.785	-115.007	-0.104	-0.020
-508.770	-71.504	0.435	-0.165
-507.756	290.390	0.104	0.192
-506.741	46.548	-0.094	-0.089
-505.726	-0.998	0.111	-0.080
-504.712	236.870	0.057	-0.096
-503.697	168.154	0.091	-0.130
-502.683	95.167	0.106	0.123
-501.668	-200.000	0.023	-0.114
-500.653	-111.895	0.011	-0.002
-499.639	35.904	0.209	-0.186
-498.624	-73.911	0.156	-0.057
-497.610	-20.572	-0.165	-0.102
-496.595	346.284	0.062	0.124
-495.581	-33.853	-0.206	0.115
-494.566	-73.778	0.178	0.065
-493.551	681.529	-0.091	0.240
-492.537	-45.999	-0.096	-0.048
-491.522	-200.000	-0.001	-0.079
-490.508	-200.000	0.021	-0.154
-489.493	-127.385	-0.153	0.023
-488.478	-51.554	-0.215	-0.102
-487.464	538.543	-0.069	-0.166
-486.449	27.924	-0.162	0.138
-485.435	-174.397	0.032	-0.001
-484.420	-139.169	0.293	-0.032
-483.405	33.410	-0.236	-0.207
-482.391	-13.964	-0.100	0.065
-481.376	-91.941	-0.316	-0.090
-480.362	-200.000	-0.008	0.131
-479.347	114.242	-0.232	0.285
-478.332	-133.304	0.255	0.033
-477.318	196.469	0.096	-0.147
-476.303	800.000	0.082	0.253
-475.289	800.000	-0.073	-0.228
-474.274	-94.828	0.261	-0.072
-473.259	682.445	-0.085	0.225
-472.245	-41.984	0.219	0.113
-471.230	155.745	0.133	-0.185
-470.216	42.850	0.133	-0.123
-469.201	278.192	-0.127	-0.229
-468.186	19.654	0.134	0.109
-467.172	-186.679	-0.325	-0.005
-466.157	-163.076	-0.125	0.006
-465.143	-184.080	0.116	-0.002
-464.128	217.681	-0.082	-0.132
-463.113	127.906	-0.118	-0.152
-462.099	-200.000	-0.038	-0.295
-461.084	800.000	-0.099	0.327
-460.070	-3.969	-0.092	-0.064
-459.055	-149.927	0.113	-0.009
-458.040	-22.271	-0.351	-0.215
-457.026	-65.255	0.227	0.092
-456.011	-96.308	0.088	-0.023
-454.997	102.321	0.048	0.057
-453.982	164.650	-0.009	-0.013
-452.968	-133.609	0.268	0.034
-451.953	-20.969	-0.037	0.023
-450.938	-73.019	0.121	-0.045
-449.924	66.035	0.021	0.021
-448.909	-200.000	0.001	-0.204
-447.895	-31.553	0.219	0.124
-446.880	-18.882	0.187	-0.118
-445.865	-84.841	-0.441	-0.140
-444.851	-114.550	0.177	-0.034
-443.836	50.942	0.168	0.161
-442.822	-76.362	0.065	0.023
-441.807	-200.000	-0.012	0.255
-440.792	-42.435	0.085	0.044
-439.778	-112.282	0.326	0.066
-438.763	-28.350	0.141	-0.082
-437.749	159.394	-0.085	0.120
-436.734	800.000	0.088	0.294
-435.719	-200.000	-0.033	-0.348
-434.705	18.239	-0.073	-0.059
-433.690	-77.725	-0.118	-0.041
-432.676	165.225	-0.118	0.169
-431.661	170.475	0.105	0.152
-430.646	638.551	-0.169	-0.434
-429.632	578.211	0.059	-0.146
-428.617	-18.517	-0.127	-0.080
-427.603	-70.588	0.075	0.029
-426.588	-200.000	0.019	-0.226
-425.573	734.750	-0.014	-0.038
-424.559	94.005	-0.186	0.213
-423.544	104.184	0.156	0.185
-422.530	114.169	-0.214	-0.263
-421.515	71.570	-0.020	-0.021
-420.500	-61.528	-0.192	-0.081
-419.486	800.000	0.050	0.211
-418.471	800.000	0.105	0.346
-417.457	-200.000	0.010	-0.083
-416.442	-17.839	-0.119	-0.076
-415.428	-200.000	-0.058	-0.301
-414.413	800.000	0.061	-0.196
-413.398	224.991	0.143	0.234
-412.384	-119.763	0.067	-0.012
-411.369	-125.575	0.246	0.038
-410.355	-122.334	-0.219	-0.036
-409.340	-200.000	-0.024	0.123
-408.325	-200.000	0.022	0.116
-407.311	-100.142	0.051	0.013
-406.296	-200.000	-0.012	-0.069
-405.282	36.286	0.142	0.127
-404.267	-87.194	0.169	-0.052
-403.252	-94.945	0.194	-0.053
-402.238	-123.818	-0.132	0.021
-401.223	272.991	0.038	-0.068
-400.209	-200.000	0.062	-0.362
-399.194	67.328	-0.232	0.238
-398.179	1.782	0.126	0.091
-397.165	-146.242	0.196	0.017
-396.150	-17.413	0.170	-0.108
-395.136	-200.000	0.043	0.312
-394.121	-91.755	-0.256	0.073
-393.106	766.453	-0.075	-0.206
-392.092	800.000	0.083	-0.260
-391.077	-18.956	-0.071	0.045
-390.063	-138.136	0.099	0.011
-389.048	124.629	-0.211	-0.267
-388.033	800.000	0.051	-0.194
-387.019	-108.162	0.194	-0.042
-386.004	599.715	-0.028	0.069
-384.990	-46.669	-0.320	0.158
-383.975	-108.441	0.243	0.053
-382.960	800.000	0.107	-0.379
-381.946	23.149	0.291	-0.240
-380.931	-86.997	-0.112	-0.034
-379.917	454.391	0.190	-0.424
-378.902	-112.046	-0.217	-0.044
-377.888	102.410	0.138	-0.162
-376.873	183.691	-0.152	0.227
-375.858	-98.970	0.248	-0.063
-374.844	-69.981	0.181	0.070
-373.829	-94.507	0.174	-0.048
-372.815	705.008	-0.101	-0.269
-371.800	-111.747	0.184	-0.038
-370.785	-168.651	0.020	-0.001
-369.771	-129.377	0.262	0.037
-368.756	-23.897	0.165	-0.100
-367.742	19.147	0.248	-0.201
-366.727	50.552	-0.273	0.260
-365.712	-154.462	-0.125	0.008
-364.698	211.827	0.220	0.350
-363.683	549.193	-0.153	-0.369
-362.669	800.000	-0.105	-0.295
-361.654	291.780	-0.065	-0.120
-360.639	118.097	0.248	0.308
-359.625	800.000	-0.074	-0.214
-358.610	-166.181	-0.063	0.003
-357.596	-200.000	-0.050	0.346
-356.581	-200.000	0.001	-0.352
-355.566	-71.223	-0.177	0.067
-354.552	-200.000	-0.040	0.180
-353.537	549.638	0.078	0.188
-352.523	-153.503	0.111	-0.008
-351.508	800.000	-0.052	0.224
-350.493	-75.208	-0.225	0.081
-349.479	-200.000	0.051	-0.270
-348.464	-57.980	0.207	-0.091
-347.450	254.406	-0.138	0.238
-346.435	800.000	0.115	0.414
-345.420	50.067	-0.328	0.312
-344.406	57.547	-0.048	-0.047
-343.391	800.000	-0.034	0.108
-342.377	-200.000	0.003	-0.118
-341.362	-86.448	0.112	-0.034
-340.348	733.841	-0.196	-0.528
-339.333	-159.012	0.185	-0.011
-338.318	-200.000	-0.035	0.190
-337.304	279.050	0.154	-0.277
-336.289	128.584	-0.198	-0.253
-335.275	137.679	0.052	-0.069
-334.260	-200.000	-0.015	0.340
-333.245	-22.941	0.091	0.055
-332.231	-82.035	-0.096	0.031
-331.216	350.550	-0.111	-0.221
-330.202	-200.000	-0.007	-0.037
-329.187	99.835	0.309	-0.360
-328.172	-73.627	-0.322	0.118
-327.158	479.846	0.028	-0.064
-326.143	129.982	-0.107	-0.138
-325.129	-117.330	0.312	0.057
-324.114	-200.000	-0.011	0.099
-323.099	-15.671	0.148	0.095
-322.085	772.108	-0.096	-0.263
-321.070	-15.989	-0.194	0.124
-320.056	-94.499	-0.094	-0.026
-319.041	18.999	-0.290	0.234
-318.026	-43.848	0.200	-0.101
-317.012	127.723	-0.244	0.311
-315.997	-43.845	-0.239	0.121
-314.983	-51.309	0.113	-0.053
-313.968	-108.405	0.191	0.041
-312.953	-123.328	-0.081	-0.013
-311.939	448.457	-0.010	0.023
-310.924	-35.205	-0.286	-0.156
-309.910	-76.587	0.243	-0.086
-308.895	120.157	0.158	-0.197
-307.880	724.406	-0.057	-0.152
-306.866	-200.000	0.024	0.222
-305.851	800.000	0.020	-0.061
-304.837	-99.128	-0.104	0.026
-303.822	-10.717	0.149	0.099
-302.807	220.564	0.144	0.231
-301.793	-92.853	-0.216	0.061
-300.778	197.476	-0.195	-0.299
-299.764	-112.266	-0.140	0.028
-298.749	-200.000	-0.005	-0.334
-297.735	-48.523	-0.296	-0.143
-296.720	355.078	-0.088	-0.176
-295.705	-200.000	-0.038	-0.396
-294.691	187.291	-0.196	0.294
-293.676	418.864	0.087	-0.186
-292.662	800.000	0.111	0.376
-291.647	-86.318	0.141	-0.044
-290.632	-67.578	0.120	-0.047
-289.618	-21.472	0.121	-0.074
-288.603	-200.000	0.006	-0.046
-287.589	800.000	-0.057	0.207
-286.574	-64.874	-0.415	0.169
-285.559	45.393	0.196	0.182
-284.545	81.685	0.125	0.135
-283.530	271.611	0.027	-0.048
-282.516	-116.145	-0.236	0.044
-281.501	-200.000	0.006	0.120
-280.486	259.974	0.214	0.371
-279.472	22.595	0.029	-0.024
-278.457	800.000	-0.079	0.241
-277.443	178.237	0.110	0.161
-276.428	-123.590	-0.296	-0.047
-275.413	80.871	0.059	0.063
-274.399	-6.462	0.416	0.285
-273.384	31.633	-0.294	-0.254
-272.370	232.924	-0.152	0.251
-271.355	485.247	-0.057	0.131
-270.340	55.313	0.066	-0.064
-269.326	-69.984	-0.243	0.093
-268.311	-8.243	0.328	-0.222
-267.297	-200.000	-0.012	0.167
-266.282	-18.286	-0.321	-0.201
-265.267	-200.000	-0.063	-0.316
-264.253	-91.741	0.235	0.067
-263.238	131.702	-0.310	0.400
-262.224	-200.000	0.032	-0.388
-261.209	-134.771	-0.110	-0.013
-260.195	399.876	0.067	0.140
-259.180	-172.208	-0.189	0.006
-258.165	64.193	0.086	0.087
-257.151	-142.257	-0.225	0.022
-256.136	153.267	0.240	0.329
-255.122	-11.138	-0.114	0.075
-254.107	172.449	-0.137	-0.197
-253.092	503.553	-0.062	0.143
-252.078	-37.466	0.270	0.145
-251.063	-55.179	0.191	-0.086
-250.049	-82.503	-0.104	-0.034
-249.034	-186.298	0.194	0.003
-248.019	-191.808	0.350	-0.003
-247.005	-114.875	-0.134	0.026
-245.990	241.749	0.159	0.267
-244.976	416.496	0.060	0.128
-243.961	259.288	-0.207	-0.358
-242.946	366.251	0.058	-0.117
-241.932	800.000	0.110	-0.347
-240.917	-57.905	-0.264	-0.116
-239.903	-146.323	0.379	0.033
-238.888	-159.935	-0.190	-0.010
-237.873	625.240	0.036	0.092
-236.859	-94.218	0.242	-0.066
-235.844	-200.000	-0.007	0.129
-234.830	-200.000	0.012	0.147
-233.815	15.786	-0.064	-0.050
-232.800	-71.371	0.404	0.152
-231.786	-77.198	-0.109	0.038
-230.771	-31.195	0.233	-0.132
-229.757	66.858	-0.169	0.172
-228.742	158.740	0.152	0.212
-227.727	519.027	-0.009	0.020
-226.713	-171.601	0.175	-0.006
-225.698	224.925	0.016	-0.026
-224.684	216.616	0.084	-0.133
-223.669	-150.881	-0.324	-0.025
-222.655	131.513	0.287	-0.369
-221.640	183.519	0.070	0.104
-220.625	-200.000	-0.023	0.136
-219.611	800.000	0.103	0.305
-218.596	-118.381	-0.094	-0.017
-217.582	-200.000	0.027	0.186
-216.567	-200.000	0.012	0.086
-215.552	-200.000	0.042	0.263
-214.538	85.041	-0.155	-0.170
-213.523	-200.000	0.016	0.164
-212.509	-65.451	0.166	-0.067
-211.494	-200.000	-0.057	-0.353
-210.479	800.000	-0.096	-0.331
-209.465	56.426	-0.047	0.046
-208.450	-200.000	0.026	0.153
-207.436	-14.282	0.241	0.155
-206.421	24.316	0.181	-0.149
-205.406	-11.495	-0.157	-0.103
-204.392	-91.249	-0.188	0.054
-203.377	-200.000	-0.002	0.266
-202.363	-200.000	-0.036	-0.171
-201.348	415.060	0.054	-0.116
-200.333	-129.221	-0.396	-0.055
-199.319	22.991	0.186	0.152
-198.304	-68.129	-0.085	-0.033
-197.290	189.877	-0.223	0.334
-196.275	183.755	0.264	0.390
-195.260	-23.828	-0.143	-0.086
-194.246	47.652	0.034	-0.032
-193.231	139.922	0.174	0.230
-192.217	-95.581	0.200	-0.054
-191.202	627.239	0.041	-0.103
-190.187	800.000	-0.046	0.167
-189.173	18.276	0.214	0.171
-188.158	141.325	0.196	0.260
-187.144	304.987	0.327	0.608
-186.129	-200.000	-0.001	0.254
-185.114	331.818	0.025	-0.048
-184.100	27.580	-0.319	0.269
-183.085	-200.000	-0.039	-0.223
-182.071	24.675	-0.174	0.144
-181.056	800.000	-0.033	-0.127
-180.042	-200.000	-0.005	-0.265
-179.027	-161.106	0.259	-0.014
-178.012	128.625	0.015	-0.019
-176.998	-87.961	-0.140	0.042
-175.983	-25.861	0.135	-0.080
-174.969	-33.005	0.238	0.132
-173.954	65.563	0.182	0.184
-172.939	800.000	0.013	-0.055
-171.925	187.999	-0.025	0.038
-170.910	476.661	0.117	0.264
-169.896	273.669	0.096	0.170
-168.881	800.000	-0.067	0.190
-167.866	42.104	-0.162	-0.147
-166.852	-66.004	-0.159	0.063
-165.837	17.011	-0.136	-0.108
-164.823	-140.569	0.192	0.020
-163.808	-95.729	-0.261	0.070
-162.793	310.953	0.060	-0.112
-161.779	-10.094	0.178	0.118
-160.764	262.920	-0.111	0.192
-159.750	290.909	-0.218	-0.396
-158.735	10.254	-0.236	0.179
-157.720	34.223	-0.167	0.146
-156.706	-66.194	-0.139	-0.055
-155.691	-49.473	0.106	-0.051
-154.677	616.896	-0.127	0.318
-153.662	-155.229	0.288	-0.019
-152.647	-145.787	-0.125	0.011
-151.633	366.396	-0.022	0.044
-150.618	-44.081	0.266	-0.133
-149.604	-12.343	-0.385	-0.251
-148.589	800.000	0.071	-0.268
-147.574	744.835	0.067	-0.180
-146.560	193.208	0.215	-0.325
-145.545	650.629	0.130	0.333
-144.531	42.951	-0.404	0.368
-143.516	132.151	-0.069	0.089
-142.502	495.437	-0.075	-0.171
-141.487	751.063	0.129	0.347
-140.472	-69.546	-0.152	0.058
-139.458	216.896	0.156	0.247
-138.443	70.512	-0.365	0.376
-137.429	167.560	-0.011	-0.016
-136.414	-145.871	0.216	0.019
-135.399	800.000	-0.077	0.215
-134.385	-146.277	-0.307	-0.027
-133.370	-78.472	-0.062	0.021
-132.356	49.400	0.091	0.086
-131.341	-103.583	0.527	-0.123
-130.326	-107.925	0.201	0.044
-129.312	-33.265	0.053	-0.029
-128.297	-26.932	0.162	0.094
-127.283	-139.925	-0.124	0.013
-126.268	239.467	-0.193	-0.320
-125.253	5.056	-0.013	-0.009
-124.239	16.474	0.204	0.161
-123.224	-192.653	-0.146	-0.001
-122.210	-108.783	-0.127	-0.027
-121.195	-150.626	0.261	-0.020
-120.180	-55.097	0.096	-0.043
-119.166	-166.075	0.119	0.005
-118.151	-58.083	-0.345	0.150
-117.137	338.847	-0.023	0.045
-116.122	-44.152	0.185	-0.092
-115.107	-141.444	0.334	0.034
-114.093	157.490	0.129	-0.178
-113.078	-26.286	-0.198	0.116
-112.064	12.354	0.190	-0.146
-111.049	55.721	0.208	0.201
-110.034	581.915	0.078	0.190
-109.020	-200.000	0.008	-0.080
-108.005	-98.142	-0.116	0.030
-106.991	-125.510	-0.487	0.074
-105.976	-200.000	0.004	-0.056
-104.962	-52.751	0.365	0.168
-103.947	273.642	0.196	0.346
-102.932	-4.549	0.141	0.097
-101.918	338.244	0.075	-0.146
-100.903	-200.000	-0.017	0.119
-99.889	-200.000	-0.009	0.237
-98.874	800.000	0.062	0.239
-97.859	800.000	-0.115	0.339
-96.845	-189.490	0.179	0.002
-95.830	800.000	0.045	0.126
-94.816	402.153	-0.132	0.276
-93.801	-70.319	0.261	-0.098
-92.786	-112.083	-0.046	-0.009
-91.772	496.242	0.168	-0.385
-90.757	199.348	0.230	-0.351
-89.743	-200.000	-0.025	0.109
-88.728	313.547	0.169	0.316
-87.713	263.285	0.071	0.122
-86.699	-36.668	0.420	-0.225
-85.684	800.000	0.111	0.319
-84.670	37.711	-0.096	0.085
-83.655	518.390	0.127	-0.296
-82.640	-115.083	-0.189	-0.036
-81.626	-26.932	0.071	0.041
-80.611	-0.767	-0.412	0.291
-79.597	-200.000	-0.037	0.233
-78.582	6.950	0.136	0.101
-77.567	-59.845	0.083	-0.036
-76.553	-196.396	0.327	0.002
-75.538	800.000	0.114	-0.366
-74.524	-133.662	-0.251	0.031
-73.509	210.259	-0.131	-0.204
-72.494	-200.000	-0.028	-0.340
-71.480	800.000	-0.092	0.261
-70.465	-90.565	-0.124	0.036
-69.451	100.010	-0.228	0.263
-68.436	-48.983	0.196	0.093
-67.422	-67.018	-0.061	-0.024
-66.407	-138.826	0.290	-0.031
-65.392	199.512	-0.172	0.263
-64.378	308.496	-0.116	0.215
-63.363	-158.848	-0.151	0.009
-62.349	-108.425	0.127	0.027
-61.334	6.224	-0.807	-0.595
-60.319	-143.220	0.071	0.007
-59.305	800.000	-0.268	-0.985
-58.290	59.412	0.705	0.691
-57.276	800.000	0.425	1.491
-56.261	-200.000	80.015	497.936
-55.246	473.600	1372.884	3078.625
-54.232	143.474	2602.460	3446.797
-53.217	111.435	2244.260	2691.503
-52.203	49.712	1694.903	1588.261
-51.188	42.386	1425.449	1288.888
-50.173	39.027	1381.278	1227.945
-49.159	56.936	1419.821	1375.838
-48.144	62.472	1438.072	1428.456
-47.130	42.789	1399.737	1267.981
-46.115	39.149	1382.424	1229.534
-45.100	38.782	1378.258	1223.486
-44.086	38.810	1375.375	1221.055
-43.071	38.683	1373.485	1218.539
-42.057	38.709	1370.908	1216.361
-41.042	38.813	1369.055	1215.315
-40.027	38.796	1367.882	1214.122
-39.013	38.869	1365.812	1212.691
-37.998	38.797	1363.901	1210.502
-36.984	38.809	1362.718	1209.474
-35.969	38.993	1360.348	1208.454
-34.954	38.895	1358.840	1206.463
-33.940	38.966	1357.621	1205.774
-32.925	38.992	1356.371	1204.772
-31.911	39.017	1354.828	1203.508
-30.896	39.061	1352.857	1201.982
-29.881	39.128	1351.254	1200.914
-28.867	38.971	1350.374	1199.129
-27.852	38.968	1348.670	1197.550
-26.838	39.176	1346.544	1196.877
-25.823	39.021	1345.693	1195.133
-24.809	39.132	1344.161	1194.397
-23.794	39.068	1342.765	1192.722
-22.779	39.014	1341.429	1191.162
-21.765	39.006	1340.379	1190.131
-20.750	39.057	1338.304	1188.552
-19.736	38.970	1337.222	1187.019
-18.721	38.851	1336.284	1185.421
-17.706	38.956	1334.527	1184.446
-16.692	38.913	1333.758	1183.459
-15.677	38.838	1332.952	1182.243
-14.663	38.939	1331.583	1181.592
-13.648	38.851	1330.468	1180.028
-12.633	38.804	1329.864	1179.163
-11.619	38.910	1328.533	1178.573
-10.604	38.855	1327.807	1177.550
-9.590	38.791	1326.937	1176.348
-8.575	38.863	1325.635	1175.581
-7.560	38.915	1324.729	1175.038
-6.546	38.901	1323.976	1174.243
-5.531	38.813	1322.916	1172.726
-4.517	38.779	1322.402	1172.024
-3.502	38.888	1320.932	1171.324
-2.487	38.841	1320.328	1170.461
-1.473	38.962	1316.175	1167.451
-0.458	37.912	1301.133	1147.885
0.556	34.421	1281.396	1107.048
1.571	30.560	1285.247	1087.739
2.586	29.390	1300.512	1093.626
3.600	27.773	1288.605	1074.009
4.615	19.936	1208.987	964.101
5.629	7.695	1124.524	832.879
6.644	2.404	1100.525	787.846
7.659	1.988	1097.552	783.510
8.673	1.802	1096.055	781.420
9.688	1.589	1094.755	779.331
10.702	1.943	1093.381	780.096
11.717	8.783	1103.823	822.706
12.731	19.930	1120.553	892.918
13.746	24.874	1126.586	923.216
14.761	25.219	1126.821	925.107
15.775	25.179	1126.200	924.306
16.790	25.063	1125.125	922.745
17.804	25.005	1124.565	921.908
18.819	25.096	1124.079	921.892
19.834	25.265	1123.545	922.241
20.848	25.114	1123.504	921.354
21.863	25.199	1122.459	920.848
22.877	25.096	1122.109	919.954
23.892	25.063	1120.860	918.678
24.907	25.147	1120.558	918.780
25.921	25.148	1119.347	917.712
26.936	25.151	1117.754	916.338
27.950	25.123	1116.315	914.937
28.965	24.811	1115.211	912.359
29.980	24.977	1112.940	911.267
30.994	25.189	1112.583	911.969
32.009	25.151	1111.344	910.681
33.023	24.944	1110.016	908.463
34.038	25.049	1109.347	908.368
35.053	25.277	1108.351	908.626
36.067	25.152	1107.794	907.453
37.082	25.130	1107.269	906.831
38.096	25.291	1106.212	906.699
39.111	25.362	1105.449	906.356
40.126	25.292	1104.048	904.775
41.140	24.953	1102.524	901.738
42.155	24.586	1101.689	899.128
43.169	24.718	1100.098	898.413
44.184	24.689	1099.277	897.515
45.199	24.699	1098.072	896.505
46.213	24.723	1097.359	895.962
47.228	24.891	1096.869	896.325
48.242	25.117	1095.471	896.234
49.257	25.039	1095.011	895.389
50.271	25.107	1094.129	894.926
51.286	25.111	1093.527	894.374
52.301	25.231	1092.925	894.400
53.315	25.148	1091.471	892.722
54.330	25.007	1090.889	891.464
55.344	25.172	1089.646	891.189
56.359	25.088	1089.019	890.181
57.374	24.776	1087.843	887.592
58.388	24.927	1086.904	887.494
59.403	24.756	1086.260	886.043
60.417	24.571	1085.259	884.233
61.432	24.905	1084.381	885.093
62.447	24.825	1084.403	884.636
63.461	24.915	1083.330	884.126
64.476	24.762	1081.872	882.106
65.490	24.766	1080.932	881.280
66.505	24.835	1080.568	881.242
67.520	24.820	1080.205	880.794
68.534	24.617	1079.275	878.963
69.549	24.224	1078.071	875.974
70.563	24.420	1076.754	875.784
71.578	24.383	1076.221	875.095
72.593	24.125	1075.171	872.897
73.607	24.456	1074.570	873.952
74.622	24.697	1074.515	875.011
75.636	24.673	1073.937	874.346
76.651	24.507	1072.788	872.522
77.666	24.453	1071.850	871.419
78.680	24.488	1071.110	870.913
79.695	24.578	1070.785	871.006
80.709	24.694	1070.315	871.114
81.724	24.788	1069.277	870.651
82.739	24.755	1068.679	869.925
83.753	25.150	1067.911	871.141
84.768	25.530	1066.807	872.006
85.782	25.442	1066.363	871.142
86.797	25.276	1065.549	869.594
87.812	25.097	1064.723	867.978
88.826	25.352	1063.194	867.886
89.841	25.437	1062.433	867.597
90.855	25.519	1061.066	866.802
91.870	25.385	1060.622	865.715
92.884	25.153	1059.616	863.702
93.899	25.140	1058.626	862.755
94.914	25.372	1057.658	863.007
95.928	25.218	1056.482	861.231
96.943	25.041	1054.850	858.974
97.957	24.612	1054.604	856.641
98.972	24.574	1052.765	854.892
99.987	24.915	1052.051	855.866
101.001	25.030	1051.677	856.036
102.016	25.112	1050.440	855.342
103.030	25.072	1049.328	854.173
104.045	24.844	1048.929	852.686
105.060	24.671	1048.117	851.125
106.074	24.804	1047.168	850.912
107.089	25.025	1046.732	851.535
108.103	24.997	1045.467	850.296
109.118	24.697	1044.627	848.115
110.133	24.898	1043.009	847.681
111.147	24.620	1041.951	845.430
112.162	24.527	1040.815	843.992
113.176	24.649	1040.848	844.521
114.191	24.687	1039.245	843.327
115.206	24.404	1038.240	841.102
116.220	24.358	1037.355	840.094
117.235	24.483	1036.792	840.152
118.249	24.466	1035.831	839.219
119.264	24.386	1034.784	837.922
120.279	24.453	1034.049	837.565
121.293	24.499	1033.456	837.229
122.308	24.496	1032.624	836.463
123.322	24.530	1031.391	835.551
124.337	24.306	1030.251	833.507
125.352	23.875	1028.117	829.694
126.366	23.895	1027.255	829.018
127.381	24.543	1027.290	831.996
128.395	25.039	1026.989	833.987
129.410	24.980	1026.155	832.963
130.424	25.086	1025.063	832.491
131.439	25.125	1023.984	831.724
132.454	25.049	1023.417	830.837
133.468	24.911	1022.785	829.612
134.483	25.140	1021.852	829.840
135.497	25.251	1020.890	829.498
136.512	25.147	1020.757	828.839
137.527	25.367	1019.151	828.476
138.541	25.187	1018.815	827.301
139.556	25.388	1017.570	827.139
140.570	25.288	1017.513	826.563
141.585	25.444	1015.812	825.823
142.600	25.317	1015.125	824.606
143.614	25.525	1014.342	824.854
144.629	25.657	1013.689	824.854
145.643	25.425	1012.331	822.613
146.658	25.356	1010.836	821.012
147.673	25.226	1009.574	819.321
148.687	25.155	1008.702	818.217
149.702	25.056	1007.911	817.049
150.716	25.042	1006.845	816.048
151.731	25.144	1006.286	815.991
152.746	25.261	1006.303	816.466
153.760	25.491	1005.329	816.647
154.775	25.433	1004.631	815.744
155.789	25.560	1003.460	815.297
156.804	25.375	1003.018	814.028
157.819	25.401	1002.410	813.578
158.833	25.634	1001.406	813.745
159.848	25.622	1000.338	812.750
160.862	25.455	999.081	810.906
161.877	25.506	997.919	810.119
162.892	25.472	997.433	809.502
163.906	25.478	995.606	807.975
164.921	25.299	995.612	807.102
165.935	25.357	994.706	806.555
166.950	25.557	993.205	806.167
167.964	25.473	992.468	805.118
168.979	25.249	991.675	803.401
169.994	25.231	990.585	802.367
171.008	25.546	989.987	803.218
172.023	25.704	989.292	803.291
173.037	25.343	987.962	800.531
174.052	25.099	987.188	798.743
175.067	25.179	986.884	798.782
176.081	25.210	986.439	798.491
177.096	25.130	985.302	797.146
178.110	24.903	984.277	795.237
179.125	24.828	983.328	794.067
180.140	24.785	983.139	793.652
181.154	24.907	982.749	793.811
182.169	25.208	982.751	795.075
183.183	25.453	982.242	795.677
184.198	25.492	980.905	794.695
185.213	25.292	980.630	793.519
186.227	25.316	980.122	793.144
187.242	25.314	979.469	792.536
188.256	25.414	978.585	792.193
189.271	25.518	978.087	792.176
190.286	25.106	976.743	789.207
191.300	24.631	974.778	785.461
192.315	23.705	973.484	780.284
193.329	23.751	972.743	779.823
194.344	24.606	973.460	784.082
195.359	25.123	973.605	786.397
196.373	25.388	972.947	786.955
197.388	25.373	972.122	786.155
198.402	25.372	971.737	785.767
199.417	25.314	970.869	784.742
200.432	25.156	969.802	783.123
201.446	24.980	969.385	781.947
202.461	24.921	968.665	781.040
203.475	24.197	966.632	776.181
204.490	23.379	964.999	771.241
205.504	24.205	965.997	775.566
206.519	24.830	965.928	778.163
207.534	24.926	965.321	778.024
208.548	25.373	965.079	779.698
209.563	25.212	963.975	778.039
210.577	25.120	963.250	776.985
211.592	25.529	962.995	778.484
212.607	25.536	961.798	777.478
213.621	25.490	961.489	776.959
214.636	25.476	960.507	776.038
215.650	25.478	959.896	775.485
216.665	25.555	959.477	775.410
217.680	25.585	958.625	774.780
218.694	25.219	956.954	771.787
219.709	24.957	956.598	770.304
220.723	25.270	956.034	771.127
221.738	25.162	955.991	770.562
222.753	25.297	955.227	770.456
223.767	25.381	954.789	770.396
224.782	25.635	954.226	770.964
225.796	25.641	953.568	770.386
226.811	24.896	952.238	766.058
227.826	24.229	951.122	762.242
228.840	24.490	950.179	762.531
229.855	24.517	949.819	762.291
230.869	24.195	948.561	759.842
231.884	24.634	948.722	761.776
232.899	25.352	948.400	764.509
233.913	25.197	948.198	763.615
234.928	25.053	947.796	762.615
235.942	25.101	946.437	761.656
236.957	24.830	945.478	759.668
237.972	24.906	945.145	759.653
238.986	25.136	944.457	760.011
240.001	24.961	943.823	758.690
241.015	25.135	943.222	758.877
242.030	25.249	943.332	759.380
243.045	25.412	942.473	759.312
244.059	25.418	942.660	759.422
245.074	25.180	941.345	757.287
246.088	25.111	939.920	755.782
247.103	25.237	939.591	755.984
248.117	25.670	939.904	757.993
249.132	25.987	939.625	759.034
250.147	26.084	939.282	759.100
251.161	26.235	938.580	759.099
252.176	26.329	937.647	758.671
253.190	26.326	937.260	758.280
254.205	26.491	937.134	758.803
255.220	26.200	936.739	757.195
256.234	26.184	935.207	755.824
257.249	26.058	934.680	754.804
258.263	26.068	933.889	754.141
259.278	26.068	933.586	753.830
260.293	26.270	932.433	753.672
261.307	26.198	931.863	752.845
262.322	26.025	931.271	751.582
263.336	25.264	929.060	746.565
264.351	24.251	927.397	740.953
265.366	24.350	926.818	740.839
266.380	25.445	927.834	746.135
267.395	25.955	927.310	747.762
268.409	25.804	926.259	746.224
269.424	26.047	925.945	746.911
270.439	26.063	925.849	746.832
271.453	26.069	924.912	746.036
272.468	26.249	924.743	746.578
273.482	26.274	924.326	746.278
274.497	25.897	922.726	743.366
275.512	25.446	922.170	740.990
276.526	25.812	922.376	742.603
277.541	26.048	922.081	743.270
278.555	25.922	920.818	741.670
279.570	25.609	920.279	739.881
280.585	25.862	919.404	740.151
281.599	25.836	918.242	739.045
282.614	25.287	916.934	735.677
283.628	25.240	916.411	735.001
284.643	25.603	916.231	736.277
285.657	25.190	915.029	733.556
286.672	24.896	914.127	731.569
287.687	25.564	914.465	734.504
288.701	25.656	913.511	734.047
289.716	25.335	912.477	731.844
290.730	25.211	912.393	731.206
291.745	24.870	910.914	728.566
292.760	25.234	910.979	730.034
293.774	26.320	911.545	734.844
294.789	26.519	911.753	735.755
295.803	26.730	910.536	735.565
296.818	26.653	909.986	734.744
297.833	26.224	908.744	731.936
298.847	26.074	908.012	730.677
299.862	26.390	907.631	731.582
300.876	26.593	907.406	732.158
301.891	26.413	906.884	730.944
302.906	25.984	905.732	728.221
303.920	26.291	905.547	729.245
304.935	26.619	904.887	729.973
305.949	26.523	904.128	728.909
306.964	26.209	903.710	727.242
307.979	26.297	903.294	727.196
308.993	26.698	903.026	728.530
310.008	26.641	902.181	727.556
311.022	26.548	901.385	726.476
312.037	26.197	901.230	724.878
313.052	26.048	900.056	723.272
314.066	25.066	898.322	717.884
315.081	24.837	897.424	716.185
316.095	25.623	897.749	719.527
317.110	26.137	897.772	721.539
318.125	25.362	896.226	717.138
319.139	24.194	894.693	711.189
320.154	24.196	894.298	710.819
321.168	25.195	894.739	715.093
322.183	25.964	894.721	718.077
323.197	25.865	894.931	717.787
324.212	26.318	893.948	718.736
325.227	26.391	893.358	718.490
326.241	26.210	892.695	717.174
327.256	26.213	891.920	716.499
328.270	26.065	890.890	715.024
329.285	25.829	890.224	713.492
330.300	25.628	889.435	712.001
331.314	25.791	889.083	712.299
332.329	26.269	889.109	714.145
333.343	26.463	888.906	714.688
334.358	26.431	888.102	713.852
335.373	26.473	888.078	713.936
336.387	26.660	887.756	714.352
337.402	26.749	887.785	714.663
338.416	26.823	887.117	714.351
339.431	26.835	886.880	714.145
340.446	27.081	886.673	714.882
341.460	26.934	886.174	713.841
342.475	26.717	885.676	712.521
343.489	26.847	885.006	712.431
344.504	27.022	885.075	713.113
345.519	27.269	884.409	713.479
346.533	27.434	883.877	713.635
347.548	27.287	883.042	712.321
348.562	27.177	882.891	711.706
349.577	27.063	882.343	710.754
350.592	27.038	881.793	710.153
351.606	27.231	880.568	709.855
352.621	26.957	879.494	707.859
353.635	26.992	878.840	707.405
354.650	26.285	877.485	703.501
355.665	25.475	875.871	698.997
356.679	25.773	875.502	699.798
357.694	26.352	875.113	701.674
358.708	26.117	874.599	700.286
359.723	26.487	874.810	701.829
360.738	26.852	874.420	702.870
361.752	26.978	873.897	702.876
362.767	27.327	873.382	703.748
363.781	27.499	873.267	704.257
364.796	27.587	872.521	703.934
365.810	27.502	872.591	703.602
366.825	27.494	872.043	703.065
367.840	27.235	871.284	701.393
368.854	26.951	869.909	699.129
369.869	26.738	870.168	698.454
370.883	26.951	869.492	698.671
371.898	26.870	869.013	697.913
372.913	26.969	868.720	697.996
373.927	27.134	867.968	697.963
374.942	27.279	867.493	698.078
375.956	27.295	867.111	697.769
376.971	27.290	867.057	697.646
377.986	27.625	866.292	698.249
379.000	27.372	866.150	697.105
380.015	27.342	865.172	696.144
381.029	27.223	864.975	695.466
382.044	27.563	863.962	695.891
383.059	27.526	864.152	695.839
384.073	27.530	863.201	695.027
385.088	27.529	862.242	694.189
386.102	27.252	861.601	692.557
387.117	27.401	860.745	692.375
388.132	26.884	859.387	689.258
389.146	26.445	858.624	686.918
390.161	26.930	858.290	688.430
391.175	27.276	858.633	689.959
392.190	26.794	857.152	686.882
393.205	25.569	855.283	680.690
394.219	24.159	853.386	673.790
395.234	23.902	853.069	672.507
396.248	25.492	854.813	679.841
397.263	26.909	855.558	685.736
398.278	27.001	854.999	685.572
399.292	26.856	854.424	684.506
400.307	26.759	853.910	683.666
401.321	26.915	853.683	684.013
402.336	27.182	853.536	684.840
403.350	27.709	853.214	686.504
404.365	27.910	853.348	687.310
405.380	28.263	852.632	687.999
406.394	28.235	852.219	687.498
407.409	28.213	851.653	686.897
408.423	27.984	851.683	686.004
409.438	28.184	851.580	686.609
410.453	28.197	850.767	685.940
411.467	28.154	849.992	685.097
412.482	28.275	849.642	685.206
413.496	28.267	849.310	684.847
414.511	28.144	849.250	684.277
415.526	28.132	848.339	683.440
416.540	28.043	847.684	682.518
417.555	27.697	846.963	680.586
418.569	27.975	846.158	680.914
419.584	27.878	845.855	680.250
420.599	27.838	845.312	679.605
421.613	97.907	1274.496	1398.767
422.628	85.122	1337.037	1398.895
