DTS Sentinel unit serial number:	SN413079Multiplexer serial number:	ORYXHardware model number:	OX4-SRSoftware version number:	ORYX F/W v4.00 Oryx Data Collector v3.7.2.0data status	okinstallation	princeton_trtdifferential loss correction	single-endedforward channel	channel 1reverse channel	N/Adate	2019/09/13time	13:58:35forward acquisition time	60.00reverse acquisition time	0.00gamma	496.2192k internal	0.2302k external	0.2302temperature offset calibration	1.0161default loss term (dB/km)	0.3790temperature slope calibration	1.0000multiplexer offset coefficient	1.0000multiplexer slope coefficient	1.0000fibre end	0.00T internal ref (°C)	35.19T ext. ref 1 (°C)	4.59T ext. ref 2 (°C)	31.77length (m)	temperature (°C)	Stokes	anti-Stokes-747.200	-30.570	-0.111	-0.064
-746.185	-124.539	-0.235	-0.037
-745.171	-48.673	0.233	0.114
-744.156	230.374	-0.154	0.257
-743.142	-87.265	0.252	0.078
-742.127	-105.506	0.137	0.032
-741.112	-170.960	0.591	0.021
-740.098	-108.458	-0.256	0.056
-739.083	800.000	0.053	-0.172
-738.069	-113.903	0.133	-0.026
-737.054	800.000	0.086	-0.380
-736.039	78.397	0.067	-0.073
-735.025	543.476	0.130	0.317
-734.010	-84.527	-0.151	-0.049
-732.996	250.796	-0.089	-0.154
-731.981	-23.636	-0.150	-0.091
-730.966	66.772	0.147	-0.152
-729.952	800.000	-0.019	0.063
-728.937	15.880	0.333	-0.267
-727.923	800.000	-0.106	-0.325
-726.908	-200.000	-0.015	0.175
-725.894	-64.776	-0.186	0.077
-724.879	-41.947	-0.311	-0.162
-723.864	189.465	0.174	-0.265
-722.850	800.000	-0.022	-0.094
-721.835	-165.963	-0.146	0.006
-720.821	-86.697	-0.170	-0.053
-719.806	800.000	0.002	0.008
-718.791	800.000	-0.020	-0.066
-717.777	-200.000	0.031	0.154
-716.762	255.132	-0.139	-0.243
-715.748	-200.000	-0.011	-0.357
-714.733	795.083	0.071	-0.199
-713.718	127.833	-0.139	0.180
-712.704	-21.041	-0.333	0.207
-711.689	-96.816	-0.188	-0.050
-710.675	61.076	-0.174	-0.175
-709.660	-200.000	-0.007	-0.057
-708.645	800.000	0.036	-0.119
-707.631	-41.066	0.108	-0.057
-706.616	143.912	0.175	-0.237
-705.602	-137.125	0.163	-0.019
-704.587	-28.972	-0.194	-0.114
-703.572	-30.719	0.304	-0.175
-702.558	-200.000	-0.017	-0.333
-701.543	50.853	0.205	-0.198
-700.529	-200.000	-0.078	0.462
-699.514	-200.000	0.030	0.334
-698.499	-62.000	-0.074	0.032
-697.485	48.510	-0.427	-0.407
-696.470	-200.000	0.033	-0.207
-695.456	506.146	0.018	0.042
-694.441	111.935	-0.116	0.143
-693.426	653.729	-0.112	0.291
-692.412	800.000	0.041	0.178
-691.397	59.872	-0.086	-0.086
-690.383	-98.743	0.285	0.074
-689.368	-43.759	0.198	0.101
-688.354	-61.226	-0.170	0.073
-687.339	-122.868	-0.128	-0.021
-686.324	107.086	0.112	0.135
-685.310	800.000	-0.045	0.153
-684.295	21.461	-0.151	0.125
-683.281	-147.274	-0.156	0.013
-682.266	15.329	-0.126	0.101
-681.251	800.000	0.075	0.276
-680.237	-70.080	0.075	0.029
-679.222	-19.043	0.249	-0.157
-678.208	-54.410	-0.133	-0.061
-677.193	-103.032	0.220	0.053
-676.178	675.802	0.096	-0.254
-675.164	123.420	-0.153	-0.195
-674.149	69.290	-0.177	-0.185
-673.135	-83.132	0.269	-0.088
-672.120	-200.000	-0.035	0.231
-671.105	800.000	-0.031	0.104
-670.091	6.077	-0.237	-0.179
-669.076	48.818	-0.174	0.166
-668.062	462.661	-0.067	-0.151
-667.047	-86.310	-0.195	0.061
-666.032	-200.000	-0.062	0.339
-665.018	94.299	-0.196	0.227
-664.003	79.296	0.233	0.254
-662.989	800.000	0.037	0.146
-661.974	295.309	-0.168	-0.312
-660.959	-151.554	0.428	0.032
-659.945	-200.000	-0.004	-0.146
-658.930	68.503	0.100	-0.104
-657.916	800.000	-0.074	0.295
-656.901	386.737	0.122	-0.257
-655.886	-200.000	0.023	-0.166
-654.872	-200.000	-0.018	-0.121
-653.857	-200.000	-0.012	-0.125
-652.843	-59.990	-0.336	0.146
-651.828	163.790	-0.038	-0.054
-650.814	-200.000	-0.010	-0.147
-649.799	-151.006	-0.410	-0.031
-648.784	-1.893	-0.175	0.125
-647.770	800.000	-0.058	-0.219
-646.755	296.451	0.137	-0.256
-645.741	81.056	-0.172	-0.189
-644.726	800.000	-0.054	-0.234
-643.711	-200.000	0.061	-0.488
-642.697	134.792	0.096	0.127
-641.682	-127.931	0.294	-0.043
-640.668	-138.145	-0.231	-0.026
-639.653	-67.439	0.260	0.104
-638.638	173.489	0.050	-0.073
-637.624	-99.164	-0.360	0.092
-636.609	-179.523	0.335	-0.007
-635.595	48.617	-0.200	-0.190
-634.580	-196.883	-0.071	-0.000
-633.565	35.923	-0.243	-0.217
-632.551	-200.000	0.024	-0.307
-631.536	-200.000	0.003	-0.372
-630.522	39.574	-0.188	0.171
-629.507	-60.219	0.150	-0.065
-628.492	-54.099	-0.402	-0.186
-627.478	59.256	-0.166	0.166
-626.463	-52.771	-0.161	0.075
-625.449	126.638	0.244	0.313
-624.434	-200.000	0.021	-0.174
-623.419	204.027	-0.079	0.125
-622.405	-200.000	-0.035	0.393
-621.390	-75.438	0.338	-0.122
-620.376	-200.000	-0.020	-0.089
-619.361	-94.005	0.085	-0.024
-618.346	231.904	-0.064	0.106
-617.332	-143.687	-0.232	-0.022
-616.317	-112.852	0.104	-0.021
-615.303	-200.000	-0.001	-0.232
-614.288	-96.324	-0.224	0.060
-613.273	-65.624	0.210	-0.085
-612.259	-172.679	0.069	0.002
-611.244	180.174	-0.033	0.050
-610.230	486.399	0.083	0.191
-609.215	800.000	-0.080	-0.348
-608.201	-141.510	0.098	0.010
-607.186	-71.535	-0.358	-0.136
-606.171	262.372	0.091	-0.160
-605.157	-7.789	0.206	0.141
-604.142	751.221	-0.134	0.368
-603.128	36.514	-0.265	-0.237
-602.113	-200.000	0.031	-0.169
-601.098	288.298	0.066	0.121
-600.084	-8.211	0.174	0.119
-599.069	-62.088	0.483	0.204
-598.055	-88.030	-0.187	-0.057
-597.040	130.307	0.077	0.100
-596.025	38.528	0.077	-0.069
-595.011	62.376	-0.181	-0.183
-593.996	61.451	0.072	0.073
-592.982	115.013	0.113	-0.140
-591.967	-64.579	-0.353	-0.145
-590.952	-155.105	-0.491	0.033
-589.938	-59.799	0.229	-0.099
-588.923	-32.146	0.090	-0.051
-587.909	428.627	-0.074	-0.162
-586.894	-52.960	0.281	0.131
-585.879	-110.888	-0.332	0.069
-584.865	110.494	0.062	-0.075
-583.850	-132.269	-0.116	0.015
-582.836	265.292	0.166	-0.293
-581.821	-141.584	-0.063	-0.006
-580.806	12.628	-0.207	0.161
-579.792	-58.888	-0.090	-0.039
-578.777	-200.000	0.006	0.274
-577.763	42.998	0.167	0.154
-576.748	46.835	0.261	0.245
-575.733	-200.000	0.030	-0.407
-574.719	-112.916	0.217	0.044
-573.704	-52.737	0.398	-0.186
-572.690	-58.650	-0.262	0.115
-571.675	102.002	0.149	-0.176
-570.661	-171.383	-0.146	0.005
-569.646	-83.720	-0.121	-0.039
-568.631	-141.181	-0.146	0.015
-567.617	800.000	-0.051	0.224
-566.602	-79.800	0.366	0.125
-565.588	67.653	-0.079	0.082
-564.573	800.000	0.025	0.107
-563.558	203.950	-0.082	0.129
-562.544	558.551	-0.119	0.291
-561.529	-200.000	-0.019	-0.222
-560.515	-74.265	-0.120	0.044
-559.500	-44.707	0.213	0.108
-558.485	-200.000	-0.015	0.139
-557.471	187.548	-0.057	0.086
-556.456	376.139	0.162	-0.334
-555.442	-200.000	0.047	-0.258
-554.427	800.000	-0.022	0.072
-553.412	107.785	-0.120	0.144
-552.398	-132.679	-0.086	0.011
-551.383	-63.222	-0.225	0.094
-550.369	116.134	0.226	-0.280
-549.354	-122.297	0.318	-0.053
-548.339	-10.000	-0.184	0.124
-547.325	-51.995	0.191	0.090
-546.310	-63.603	-0.094	0.039
-545.296	396.378	-0.075	-0.159
-544.281	-200.000	-0.052	0.354
-543.266	-66.183	-0.028	0.011
-542.252	-65.353	0.157	-0.064
-541.237	-35.548	-0.366	-0.201
-540.223	800.000	0.106	0.438
-539.208	-114.119	0.149	-0.029
-538.193	115.510	-0.141	-0.174
-537.179	-200.000	0.028	-0.214
-536.164	170.121	0.127	-0.184
-535.150	-160.337	0.180	-0.010
-534.135	463.672	-0.154	0.347
-533.121	-127.397	-0.141	-0.021
-532.106	-133.729	-0.084	-0.011
-531.091	406.677	0.127	0.270
-530.077	456.675	0.080	0.180
-529.062	-8.904	0.143	0.097
-528.048	-200.000	0.037	-0.170
-527.033	-5.769	-0.228	0.158
-526.018	-49.174	-0.266	0.128
-525.004	458.188	0.130	0.293
-523.989	-82.991	0.345	-0.112
-522.975	-88.238	-0.037	0.011
-521.960	11.844	0.083	-0.065
-520.945	-200.000	0.031	0.221
-519.931	635.676	-0.175	0.450
-518.916	-200.000	0.004	-0.109
-517.902	-73.003	-0.182	-0.068
-516.887	-120.336	0.479	0.082
-515.872	800.000	-0.072	-0.268
-514.858	-41.109	-0.144	-0.075
-513.843	-200.000	0.037	-0.258
-512.829	-24.335	0.126	0.076
-511.814	800.000	-0.050	-0.179
-510.799	522.470	-0.136	-0.322
-509.785	-38.560	-0.311	-0.166
-508.770	528.331	-0.054	0.129
-507.756	106.915	0.084	-0.101
-506.741	506.228	-0.065	-0.153
-505.726	-5.022	-0.150	0.104
-504.712	-71.952	0.103	0.039
-503.697	351.304	0.092	-0.184
-502.683	5.821	0.331	0.247
-501.668	-146.002	-0.057	0.005
-500.653	114.005	-0.270	-0.331
-499.639	-59.046	-0.171	-0.074
-498.624	349.724	-0.110	0.220
-497.610	800.000	-0.071	-0.273
-496.595	-48.291	-0.295	0.143
-495.581	94.886	-0.101	0.116
-494.566	-173.373	-0.103	-0.003
-493.551	124.196	-0.088	0.112
-492.537	130.647	0.330	-0.427
-491.522	660.916	-0.068	-0.178
-490.508	-200.000	0.058	0.388
-489.493	20.376	0.034	-0.028
-488.478	800.000	-0.057	-0.178
-487.464	-200.000	0.056	-0.248
-486.449	18.521	0.134	0.108
-485.435	-86.413	-0.120	-0.037
-484.420	800.000	0.087	-0.323
-483.405	-20.920	-0.077	0.048
-482.391	-12.177	-0.233	0.154
-481.376	-16.687	0.101	0.064
-480.362	-94.269	-0.320	0.088
-479.347	-63.750	-0.338	0.140
-478.332	5.470	0.267	-0.199
-477.318	99.729	-0.140	-0.163
-476.303	800.000	0.111	0.337
-475.289	-17.126	0.312	-0.198
-474.274	406.822	-0.203	-0.433
-473.259	87.238	0.061	0.068
-472.245	-51.319	0.107	0.050
-471.230	227.724	-0.236	-0.387
-470.216	26.836	0.174	0.147
-469.201	-33.763	0.213	0.118
-468.186	-200.000	0.009	-0.255
-467.172	-200.000	-0.002	0.042
-466.157	-149.837	0.106	-0.008
-465.143	87.416	0.275	0.307
-464.128	-104.916	0.227	-0.052
-463.113	201.941	-0.226	-0.352
-462.099	-83.533	0.013	-0.004
-461.084	-28.805	-0.103	0.060
-460.070	54.324	-0.100	0.097
-459.055	800.000	0.105	0.297
-458.040	-72.748	0.156	0.058
-457.026	275.519	0.059	-0.105
-456.011	-129.226	-0.239	0.034
-454.997	-71.576	-0.116	-0.044
-453.982	-89.391	0.214	0.063
-452.968	-0.285	0.386	0.277
-451.953	800.000	-0.066	0.246
-450.938	-200.000	-0.025	0.290
-449.924	-102.756	-0.053	0.013
-448.909	-98.634	0.102	-0.026
-447.895	44.596	0.164	-0.152
-446.880	-20.842	-0.188	0.116
-445.865	-103.245	-0.276	-0.066
-444.851	-180.018	0.349	0.007
-443.836	-7.039	0.102	0.069
-442.822	88.591	-0.181	0.203
-441.807	265.858	0.159	0.280
-440.792	-120.075	-0.171	-0.029
-439.778	-1.705	-0.156	0.111
-438.763	800.000	0.074	-0.223
-437.749	-113.464	-0.357	-0.071
-436.734	20.799	-0.185	-0.151
-435.719	-71.672	0.246	-0.092
-434.705	-121.556	0.263	-0.044
-433.690	19.008	-0.248	0.200
-432.676	-118.988	-0.168	-0.030
-431.661	-97.425	-0.121	-0.032
-430.646	-39.581	0.080	0.042
-429.632	270.346	-0.144	-0.255
-428.617	-200.000	-0.003	0.057
-427.603	-102.474	0.039	-0.009
-426.588	800.000	0.034	-0.096
-425.573	432.619	0.038	0.082
-424.559	-48.653	0.307	-0.148
-423.544	-200.000	0.011	-0.156
-422.530	-74.752	0.250	-0.090
-421.515	-200.000	-0.033	0.342
-420.500	-154.220	-0.263	0.018
-419.486	69.572	-0.151	0.157
-418.471	-134.198	0.067	0.008
-417.457	-200.000	0.020	-0.184
-416.442	49.408	-0.028	-0.026
-415.428	-200.000	-0.051	0.343
-414.413	-23.354	0.176	0.106
-413.398	800.000	0.097	0.296
-412.384	-146.245	-0.041	0.004
-411.369	800.000	-0.054	0.176
-410.355	-200.000	-0.005	0.169
-409.340	-79.812	-0.192	0.065
-408.325	295.421	-0.078	-0.144
-407.311	1.233	-0.163	0.118
-406.296	-200.000	0.034	0.205
-405.282	56.847	-0.217	0.212
-404.267	265.999	0.117	0.206
-403.252	-113.297	0.294	-0.058
-402.238	681.520	0.123	-0.322
-401.223	508.630	0.151	0.353
-400.209	179.660	0.020	0.030
-399.194	218.824	-0.068	0.109
-398.179	-34.464	0.035	0.019
-397.165	-200.000	-0.004	0.114
-396.150	241.508	0.120	0.201
-395.136	158.788	0.028	0.039
-394.121	-25.527	-0.255	0.151
-393.106	-139.959	-0.345	0.037
-392.092	-148.140	-0.046	-0.004
-391.077	800.000	-0.101	-0.288
-390.063	-101.130	0.195	-0.048
-389.048	-112.289	0.146	0.029
-388.033	800.000	-0.015	0.043
-387.019	-57.529	0.249	-0.110
-386.004	-169.167	0.240	0.009
-384.990	38.661	0.163	0.146
-383.975	-200.000	-0.052	0.299
-382.960	-200.000	0.008	0.138
-381.946	-73.012	0.218	-0.080
-380.931	199.109	-0.108	0.167
-379.917	-122.786	-0.334	-0.054
-378.902	-200.000	-0.017	-0.222
-377.888	346.591	-0.060	-0.118
-376.873	800.000	0.095	-0.277
-375.858	620.389	-0.141	0.356
-374.844	219.872	-0.150	0.241
-373.829	-58.660	-0.197	0.086
-372.815	257.985	0.044	-0.076
-371.800	-146.114	-0.041	-0.004
-370.785	800.000	0.035	-0.097
-369.771	-200.000	0.006	-0.252
-368.756	800.000	-0.020	-0.064
-367.742	800.000	-0.017	0.048
-366.727	-87.357	0.258	-0.079
-365.712	-77.580	-0.141	-0.049
-364.698	800.000	-0.060	-0.246
-363.683	800.000	0.039	-0.152
-362.669	-200.000	-0.000	0.042
-361.654	-135.272	0.367	0.044
-360.639	-25.815	-0.251	-0.148
-359.625	-200.000	-0.001	0.077
-358.610	-132.567	0.224	0.029
-357.596	-200.000	-0.002	0.029
-356.581	-139.778	-0.098	-0.010
-355.566	-80.382	0.258	-0.087
-354.552	800.000	0.108	-0.423
-353.537	-88.789	0.050	-0.015
-352.523	-85.211	-0.227	-0.071
-351.508	-123.309	-0.243	0.039
-350.493	-38.232	-0.284	0.151
-349.479	32.716	-0.082	-0.071
-348.464	184.517	-0.115	0.170
-347.450	22.613	-0.124	0.102
-346.435	-29.577	0.184	-0.105
-345.420	83.535	0.284	-0.311
-344.406	-124.313	0.102	-0.016
-343.391	-178.619	0.336	0.008
-342.377	-200.000	-0.009	-0.161
-341.362	-69.409	0.097	-0.037
-340.348	126.399	-0.078	0.099
-339.333	-134.154	-0.209	-0.026
-338.318	29.902	-0.210	-0.179
-337.304	243.282	0.089	-0.149
-336.289	-152.431	0.208	0.015
-335.275	-114.473	0.204	0.039
-334.260	-71.782	-0.288	0.108
-333.245	-170.993	0.572	-0.020
-332.231	-101.128	-0.045	0.011
-331.216	88.695	-0.036	0.040
-330.202	5.192	-0.267	-0.198
-329.187	-69.320	0.267	-0.103
-328.172	137.729	0.052	-0.068
-327.158	800.000	0.022	0.069
-326.143	421.184	-0.105	-0.225
-325.129	-200.000	-0.027	-0.125
-324.114	200.089	0.201	0.309
-323.099	3.248	-0.165	0.120
-322.085	19.797	-0.202	0.163
-321.070	-96.461	-0.380	0.101
-320.056	-200.000	-0.016	0.397
-319.041	382.371	-0.133	-0.273
-318.026	502.976	-0.042	-0.096
-317.012	617.966	0.052	-0.131
-315.997	572.487	-0.031	-0.076
-314.983	800.000	-0.088	-0.281
-313.968	-200.000	-0.010	-0.295
-312.953	355.161	0.095	0.189
-311.939	-61.847	-0.024	0.010
-310.924	-200.000	-0.042	0.188
-309.910	-171.440	-0.107	-0.004
-308.895	387.399	-0.201	0.417
-307.880	-135.993	0.183	-0.022
-306.866	-144.578	-0.419	0.039
-305.851	800.000	0.118	-0.375
-304.837	585.486	-0.097	0.240
-303.822	800.000	0.043	-0.163
-302.807	136.628	0.173	-0.226
-301.793	-94.789	-0.108	-0.029
-300.778	-105.343	-0.409	0.093
-299.764	256.665	-0.052	0.089
-298.749	800.000	0.029	0.121
-297.735	-55.931	-0.199	-0.089
-296.720	492.242	0.026	0.061
-295.705	15.185	0.158	0.124
-294.691	-200.000	0.032	-0.408
-293.676	-81.795	-0.387	0.127
-292.662	133.354	0.174	0.225
-291.647	-133.856	-0.285	-0.035
-290.632	-54.411	0.101	0.046
-289.618	208.746	0.133	0.208
-288.603	-135.186	-0.246	-0.030
-287.589	800.000	0.070	-0.220
-286.574	155.507	0.148	0.204
-285.559	-200.000	-0.013	-0.078
-284.545	-200.000	0.018	-0.294
-283.530	112.562	0.059	0.072
-282.516	-200.000	0.055	0.281
-281.501	-72.682	0.160	-0.059
-280.486	158.451	0.127	0.176
-279.472	-38.125	0.261	0.138
-278.457	-9.913	-0.292	0.194
-277.443	102.561	-0.142	-0.166
-276.428	170.552	0.160	-0.229
-275.413	191.166	0.087	-0.131
-274.399	-63.869	0.254	0.104
-273.384	-200.000	-0.008	-0.294
-272.370	692.071	-0.085	0.222
-271.355	303.618	0.122	0.226
-270.340	-93.151	-0.114	0.032
-269.326	-200.000	-0.018	0.097
-268.311	-200.000	-0.059	0.283
-267.297	800.000	-0.047	0.199
-266.282	10.975	0.063	0.048
-265.267	149.831	0.100	0.136
-264.253	-101.356	0.102	-0.025
-263.238	256.058	-0.097	-0.166
-262.224	-64.723	0.091	0.037
-261.209	-200.000	0.012	0.367
-260.195	56.832	0.086	0.083
-259.180	91.025	-0.077	-0.087
-258.165	-5.462	-0.212	0.145
-257.151	-46.515	0.132	-0.065
-256.136	465.404	0.024	-0.053
-255.122	-13.658	0.119	0.077
-254.107	-94.277	0.232	0.063
-253.092	-62.343	-0.187	-0.078
-252.078	10.891	0.264	-0.202
-251.063	-200.000	0.006	0.214
-250.049	-200.000	0.009	0.409
-249.034	168.474	0.216	0.307
-248.019	62.115	0.095	0.095
-247.005	-88.021	-0.182	-0.055
-245.990	157.449	0.195	-0.270
-244.976	-87.616	0.232	-0.070
-243.961	-101.226	0.160	-0.039
-242.946	604.025	-0.103	-0.255
-241.932	159.291	-0.234	-0.325
-240.917	-70.836	0.189	0.071
-239.903	800.000	0.118	0.326
-238.888	696.437	-0.041	0.108
-237.873	-64.454	0.458	-0.186
-236.859	138.142	0.231	0.302
-235.844	-200.000	-0.041	0.326
-234.830	-120.458	0.408	-0.069
-233.815	-90.057	-0.406	0.118
-232.800	-43.881	-0.369	-0.186
-231.786	-138.752	-0.196	0.021
-230.771	-200.000	0.016	0.088
-229.757	-200.000	-0.021	-0.280
-228.742	800.000	-0.019	-0.053
-227.727	-39.376	-0.284	0.149
-226.713	5.217	-0.137	0.101
-225.698	800.000	-0.071	0.203
-224.684	154.930	-0.135	-0.186
-223.669	-66.313	0.254	-0.101
-222.655	-79.776	0.111	0.037
-221.640	800.000	0.078	0.332
-220.625	3.509	-0.084	-0.061
-219.611	-91.083	-0.201	0.057
-218.596	89.146	0.154	-0.171
-217.582	91.617	-0.076	0.086
-216.567	-120.719	0.144	-0.024
-215.552	800.000	0.004	-0.016
-214.538	-19.182	0.132	-0.082
-213.523	-55.984	-0.450	-0.200
-212.509	-127.157	0.235	-0.034
-211.494	21.218	0.076	-0.062
-210.479	-68.225	0.385	0.149
-209.465	-131.372	-0.315	-0.042
-208.450	754.666	-0.028	-0.074
-207.436	516.807	0.093	0.217
-206.421	265.701	0.165	-0.287
-205.406	-200.000	-0.015	-0.233
-204.392	-200.000	-0.022	0.165
-203.377	-200.000	0.076	0.357
-202.363	-95.688	0.213	-0.057
-201.348	-114.701	0.177	-0.034
-200.333	-107.227	-0.199	-0.044
-199.319	60.581	-0.124	-0.123
-198.304	-188.922	0.121	0.001
-197.290	473.185	-0.103	0.232
-196.275	34.783	-0.168	0.147
-195.260	219.013	0.059	-0.094
-194.246	466.968	0.101	-0.225
-193.231	-66.998	0.061	0.024
-192.217	-28.555	0.320	0.184
-191.202	297.024	0.034	-0.063
-190.187	-46.846	0.228	-0.111
-189.173	800.000	-0.033	0.144
-188.158	55.957	0.114	-0.110
-187.144	-50.334	0.161	0.076
-186.129	-81.216	0.106	0.035
-185.114	-72.148	-0.149	-0.055
-184.100	45.699	0.285	-0.263
-183.085	83.657	-0.275	0.299
-182.071	447.887	-0.119	0.261
-181.056	-107.934	0.199	0.043
-180.042	-67.454	-0.273	-0.107
-179.027	284.290	0.178	0.318
-178.012	31.358	-0.101	-0.086
-176.998	-20.110	-0.331	-0.203
-175.983	800.000	-0.140	-0.403
-174.969	21.479	0.290	-0.235
-173.954	6.771	0.243	-0.180
-172.939	-200.000	-0.123	-0.561
-171.925	-87.003	0.073	-0.022
-170.910	313.153	-0.022	-0.040
-169.896	314.610	-0.075	-0.141
-168.881	70.251	0.164	-0.169
-167.866	235.367	0.080	0.132
-166.852	-200.000	0.006	0.054
-165.837	238.085	0.125	0.206
-164.823	16.005	0.322	-0.252
-163.808	-59.022	-0.223	0.096
-162.793	-46.441	-0.047	0.023
-161.779	800.000	-0.079	-0.279
-160.764	-121.139	0.284	-0.047
-159.750	-200.000	0.033	0.172
-158.735	116.700	-0.198	-0.242
-157.720	-17.924	-0.111	-0.069
-156.706	-47.397	0.115	-0.056
-155.691	673.825	-0.085	0.220
-154.677	-56.332	-0.282	0.125
-153.662	-200.000	0.031	0.325
-152.647	-200.000	0.011	-0.331
-151.633	335.967	-0.101	0.196
-150.618	-90.980	0.181	0.052
-149.604	150.927	-0.008	0.011
-148.589	513.884	-0.053	0.123
-147.574	-67.120	-0.317	-0.125
-146.560	-34.463	0.108	0.059
-145.545	-160.409	-0.161	-0.009
-144.531	91.495	0.194	-0.217
-143.516	143.835	-0.162	-0.215
-142.502	-200.000	-0.029	0.335
-141.487	-36.500	0.136	0.073
-140.472	34.787	0.057	0.050
-139.458	733.583	-0.074	0.198
-138.443	175.558	-0.147	0.212
-137.429	-200.000	-0.004	0.147
-136.414	-42.743	0.307	-0.155
-135.399	-9.993	-0.241	0.159
-134.385	-4.512	0.198	0.136
-133.370	-57.423	-0.125	0.055
-132.356	-200.000	0.004	0.290
-131.341	-177.653	0.233	0.006
-130.326	-8.994	0.077	-0.051
-129.312	800.000	0.065	0.217
-128.297	151.772	0.201	0.273
-127.283	-37.077	0.141	-0.075
-126.268	49.916	-0.242	-0.227
-125.253	800.000	0.170	-0.654
-124.239	-26.953	0.107	0.062
-123.224	-120.191	-0.092	-0.016
-122.210	124.430	0.113	-0.142
-121.195	800.000	0.017	-0.047
-120.180	436.962	0.115	-0.249
-119.166	-18.880	0.109	0.067
-118.151	-154.787	-0.306	-0.020
-117.137	-200.000	-0.017	-0.302
-116.122	800.000	-0.063	0.233
-115.107	-107.304	0.229	-0.050
-114.093	-91.476	-0.401	0.114
-113.078	-47.250	-0.222	0.108
-112.064	-28.366	0.168	-0.096
-111.049	-68.239	0.055	-0.021
-110.034	223.636	-0.079	0.127
-109.020	-200.000	-0.051	-0.374
-108.005	-143.691	0.144	-0.014
-106.991	-40.369	0.363	0.187
-105.976	-200.000	0.023	0.316
-104.962	-109.129	-0.218	0.046
-103.947	79.819	0.150	-0.160
-102.932	534.676	0.030	-0.071
-101.918	13.139	-0.108	0.083
-100.903	190.957	-0.022	0.033
-99.889	-200.000	-0.162	0.000
-98.874	-127.697	0.319	0.046
-97.859	800.000	-0.043	-0.181
-96.845	-100.423	-0.205	0.050
-95.830	-117.706	0.160	-0.029
-94.816	453.300	-0.023	0.050
-93.801	-80.621	0.288	0.095
-92.786	-64.692	0.231	0.093
-91.772	123.649	0.107	0.134
-90.757	-174.198	-0.241	0.007
-89.743	800.000	0.084	0.293
-88.728	800.000	-0.034	0.127
-87.713	-200.000	-0.022	0.118
-86.699	466.170	0.085	-0.190
-85.684	65.594	-0.046	0.046
-84.670	-42.930	0.423	0.213
-83.655	-117.929	-0.085	0.015
-82.640	-200.000	0.000	-0.296
-81.626	191.618	0.246	-0.368
-80.611	456.717	-0.114	-0.251
-79.597	404.938	-0.111	-0.233
-78.582	-200.000	-0.042	0.308
-77.567	-45.547	-0.242	-0.119
-76.553	-102.853	0.137	-0.032
-75.538	37.766	-0.054	0.048
-74.524	206.531	-0.248	0.384
-73.509	-200.000	0.016	-0.227
-72.494	79.610	0.265	0.282
-71.480	312.718	0.047	0.087
-70.465	165.632	-0.223	-0.313
-69.451	-200.000	0.045	0.340
-68.436	-18.009	0.340	-0.211
-67.422	-40.006	-0.342	0.177
-66.407	335.145	0.082	0.158
-65.392	238.713	-0.087	-0.144
-64.378	20.754	0.300	-0.241
-63.363	-108.662	-0.182	-0.039
-62.349	-175.837	-0.184	0.005
-61.334	-25.917	-0.998	-0.583
-60.319	24.123	0.212	0.173
-59.305	800.000	-0.350	-1.013
-58.290	167.520	0.609	0.858
-57.276	643.677	0.534	1.352
-56.261	-200.000	94.144	561.671
-55.246	632.962	1384.177	3479.078
-54.232	185.721	2602.658	3835.884
-53.217	122.976	2198.131	2729.571
-52.203	47.133	1648.368	1521.429
-51.188	38.815	1381.527	1223.488
-50.173	35.364	1338.915	1164.793
-49.159	55.986	1387.596	1335.075
-48.144	60.140	1405.368	1377.774
-47.130	38.933	1360.153	1205.088
-46.115	35.293	1342.138	1166.976
-45.100	35.093	1337.566	1161.740
-44.086	35.110	1334.683	1159.292
-43.071	34.945	1332.593	1156.434
-42.057	35.057	1330.198	1154.988
-41.042	34.977	1328.821	1153.263
-40.027	35.129	1326.780	1152.363
-39.013	35.069	1324.956	1150.369
-37.998	35.181	1322.728	1149.065
-36.984	35.166	1321.226	1147.621
-35.969	35.228	1319.759	1146.674
-34.954	35.151	1318.163	1144.779
-33.940	35.181	1317.138	1144.024
-32.925	35.413	1314.914	1143.428
-31.911	35.401	1313.382	1141.980
-30.896	35.337	1312.472	1140.767
-29.881	35.283	1310.987	1139.109
-28.867	35.305	1309.512	1137.911
-27.852	35.328	1308.018	1136.705
-26.838	35.322	1306.594	1135.384
-25.823	35.332	1305.121	1134.121
-24.809	35.338	1303.533	1132.733
-23.794	35.271	1302.264	1131.186
-22.779	35.223	1300.985	1129.749
-21.765	35.348	1299.680	1129.307
-20.750	35.254	1298.324	1127.530
-19.736	35.051	1297.545	1125.614
-18.721	34.982	1296.235	1124.028
-17.706	35.183	1294.683	1123.818
-16.692	35.255	1293.213	1122.921
-15.677	35.167	1292.033	1121.336
-14.663	35.195	1291.028	1120.580
-13.648	35.033	1289.895	1118.611
-12.633	35.170	1288.953	1118.546
-11.619	35.065	1288.375	1117.389
-10.604	35.056	1287.671	1116.681
-9.590	35.096	1286.747	1116.067
-8.575	35.014	1285.744	1114.679
-7.560	35.070	1284.848	1114.179
-6.546	35.056	1283.951	1113.275
-5.531	35.074	1282.726	1112.277
-4.517	35.098	1281.933	1111.686
-3.502	35.150	1281.211	1111.315
-2.487	35.144	1279.894	1110.095
-1.473	35.139	1275.946	1106.596
-0.458	33.938	1261.343	1087.024
0.556	32.230	1242.339	1045.767
1.571	28.004	1246.301	1025.357
2.586	26.454	1260.254	1027.946
3.600	24.686	1247.658	1007.628
4.615	18.432	1172.957	913.962
5.629	9.320	1096.129	808.400
6.644	4.967	1074.398	770.817
7.659	4.636	1071.858	767.291
8.673	4.341	1070.210	764.594
9.688	4.408	1069.121	764.075
10.702	4.987	1068.446	766.375
11.717	10.921	1076.695	801.546
12.731	19.592	1088.375	853.187
13.746	22.429	1091.576	869.660
14.761	21.878	1090.097	865.686
15.775	20.927	1088.760	859.854
16.790	20.000	1086.563	853.478
17.804	19.167	1084.887	847.987
18.819	19.029	1083.913	846.470
19.834	18.808	1083.575	845.043
20.848	18.626	1082.457	843.206
21.863	18.423	1081.781	841.604
22.877	18.419	1080.599	840.594
23.892	18.457	1079.771	840.061
24.907	18.293	1079.411	838.904
25.921	18.296	1078.649	838.248
26.936	18.409	1076.763	837.261
27.950	18.382	1075.791	836.301
28.965	18.548	1073.996	835.643
29.980	18.555	1072.905	834.751
30.994	18.693	1072.003	834.647
32.009	18.704	1070.967	833.820
33.023	18.613	1069.710	832.327
34.038	18.582	1068.687	831.306
35.053	18.525	1067.599	830.112
36.067	18.331	1066.989	828.624
37.082	18.500	1065.893	828.519
38.096	18.617	1065.758	828.904
39.111	18.742	1064.752	828.653
40.126	18.319	1063.837	825.824
41.140	18.199	1061.958	823.715
42.155	18.138	1060.404	822.147
43.169	17.998	1059.661	820.826
44.184	17.995	1058.387	819.752
45.199	18.045	1057.969	819.595
46.213	18.178	1057.298	819.638
47.228	18.388	1056.596	820.029
48.242	18.541	1055.120	819.539
49.257	18.359	1054.365	818.012
50.271	18.457	1053.698	817.889
51.286	18.545	1052.550	817.344
52.301	18.586	1051.481	816.639
53.315	18.267	1050.694	814.437
54.330	18.181	1049.325	812.894
55.344	18.150	1048.727	812.216
56.359	18.284	1047.918	812.151
57.374	18.188	1046.906	810.838
58.388	18.022	1046.047	809.317
59.403	18.074	1044.898	808.600
60.417	18.047	1044.489	808.088
61.432	17.938	1043.985	807.111
62.447	17.917	1043.045	806.210
63.461	17.857	1042.212	805.212
64.476	17.817	1041.298	804.249
65.490	17.752	1040.299	803.099
66.505	17.938	1039.325	803.153
67.520	17.892	1039.095	802.684
68.534	17.991	1037.684	801.992
69.549	17.859	1037.782	801.377
70.563	17.777	1036.668	800.061
71.578	17.731	1035.342	798.752
72.593	17.768	1034.874	798.489
73.607	17.653	1033.976	797.190
74.622	17.668	1033.713	796.986
75.636	17.674	1033.267	796.599
76.651	17.810	1032.194	796.336
77.666	17.759	1031.702	795.649
78.680	17.786	1030.942	795.117
79.695	17.875	1030.366	795.017
80.709	17.990	1029.612	794.902
81.724	17.954	1029.330	794.445
82.739	18.119	1028.285	794.336
83.753	18.487	1028.143	795.864
84.768	18.595	1027.614	795.886
85.782	18.823	1026.336	795.881
86.797	18.702	1025.746	794.792
87.812	18.450	1024.757	792.794
88.826	18.492	1023.592	792.016
89.841	18.640	1022.225	791.568
90.855	18.689	1021.460	791.135
91.870	18.763	1020.843	790.924
92.884	18.697	1019.739	789.697
93.899	18.646	1019.211	788.984
94.914	18.807	1018.137	788.820
95.928	18.777	1017.375	788.025
96.943	18.617	1016.455	786.507
97.957	18.549	1015.544	785.421
98.972	18.598	1014.911	785.086
99.987	18.582	1014.046	784.275
101.001	18.708	1012.660	783.710
102.016	18.556	1012.217	782.604
103.030	18.635	1011.495	782.335
104.045	18.570	1010.669	781.331
105.060	18.437	1009.646	779.868
106.074	18.275	1008.533	778.203
107.089	18.084	1007.177	776.221
108.103	18.050	1006.298	775.321
109.118	18.032	1005.642	774.663
110.133	17.936	1004.444	773.239
111.147	17.877	1003.688	772.321
112.162	18.091	1002.602	772.382
113.176	18.115	1002.424	772.289
114.191	18.207	1001.595	771.997
115.206	18.151	1000.878	771.121
116.220	18.035	999.971	769.832
117.235	18.149	998.444	769.100
118.249	17.915	998.178	767.776
119.264	18.040	997.226	767.538
120.279	17.986	996.637	766.773
121.293	17.971	995.533	765.791
122.308	17.950	994.357	764.725
123.322	17.810	993.739	763.553
124.337	17.698	993.029	762.438
125.352	17.802	991.475	761.645
126.366	17.832	990.534	760.984
127.381	17.922	989.110	760.225
128.395	17.761	988.985	759.346
129.410	17.971	987.656	759.190
130.424	18.007	987.213	758.943
131.439	18.046	986.404	758.428
132.454	18.290	985.189	758.506
133.468	18.304	984.834	758.229
134.483	18.190	984.246	757.207
135.497	18.238	983.238	756.573
136.512	18.371	981.947	756.101
137.527	18.183	981.712	755.023
138.541	18.179	980.964	754.364
139.556	18.348	979.952	754.266
140.570	18.464	979.248	754.166
141.585	18.577	978.676	754.154
142.600	18.656	977.870	753.813
143.614	18.735	977.020	753.440
144.629	18.708	976.531	752.878
145.643	18.764	975.444	752.219
146.658	18.726	973.428	750.432
147.673	18.417	973.039	748.714
148.687	18.357	972.062	747.636
149.702	18.185	971.172	746.133
150.716	18.076	970.593	745.147
151.731	18.198	969.620	744.867
152.746	18.220	969.421	744.741
153.760	18.290	968.651	744.389
154.775	18.451	968.158	744.646
155.789	18.532	967.462	744.396
156.804	18.646	966.523	744.101
157.819	18.522	966.099	743.173
158.833	18.711	965.578	743.524
159.848	18.853	964.582	743.304
160.862	18.590	963.740	741.456
161.877	18.477	962.221	739.731
162.892	18.280	961.293	738.105
163.906	18.162	960.316	736.781
164.921	18.207	959.736	736.463
165.935	18.312	958.921	736.223
166.950	18.305	958.150	735.536
167.964	18.353	956.949	734.755
168.979	18.337	955.921	733.835
169.994	18.426	955.021	733.458
171.008	18.318	954.394	732.450
172.023	18.566	954.165	733.272
173.037	18.698	953.460	733.227
174.052	18.620	952.153	731.824
175.067	18.214	951.540	729.556
176.081	18.245	950.568	728.879
177.096	18.220	950.269	728.482
178.110	18.288	949.966	728.471
179.125	18.430	948.980	728.255
180.140	18.353	948.795	727.721
181.154	18.618	948.289	728.394
182.169	18.592	948.274	728.209
183.183	18.769	947.149	728.033
184.198	18.743	946.158	727.092
185.213	18.739	945.292	726.349
186.227	18.790	945.007	726.280
187.242	18.815	944.456	725.898
188.256	18.935	943.947	725.951
189.271	18.892	943.227	725.148
190.286	18.571	941.965	722.762
191.300	18.197	941.053	720.423
192.315	18.082	940.098	719.145
193.329	18.097	940.264	719.274
194.344	18.465	939.282	720.003
195.359	18.512	938.769	719.746
196.373	18.610	938.493	719.882
197.388	18.748	938.423	720.342
198.402	18.972	937.562	720.554
199.417	19.039	936.993	720.336
200.432	19.236	936.545	720.750
201.446	19.241	936.117	720.380
202.461	19.270	935.712	720.126
203.475	19.170	934.646	718.822
204.490	19.021	933.827	717.509
205.504	18.840	932.950	716.016
206.519	18.762	932.395	715.202
207.534	18.874	931.679	715.055
208.548	18.825	930.665	714.011
209.563	18.932	930.096	713.957
210.577	18.887	929.622	713.341
211.592	19.119	929.020	713.780
212.607	19.259	928.023	713.531
213.621	19.074	927.608	712.381
214.636	19.129	927.013	712.091
215.650	19.111	926.263	711.376
216.665	19.297	925.423	711.436
217.680	19.320	924.551	710.797
218.694	19.209	924.356	710.125
219.709	19.395	922.976	709.770
220.723	19.309	922.821	709.232
221.738	19.087	922.137	707.732
222.753	19.229	921.403	707.690
223.767	19.291	921.320	707.817
224.782	19.370	920.387	707.364
225.796	19.353	920.377	707.221
226.811	19.472	918.936	706.538
227.826	19.284	918.328	705.239
228.840	19.157	917.877	704.312
229.855	19.140	916.833	703.381
230.869	19.083	916.292	702.669
231.884	19.248	915.288	702.512
232.899	19.039	914.808	701.229
233.913	18.965	913.286	699.699
234.928	18.979	913.066	699.525
235.942	18.936	912.495	698.851
236.957	19.078	911.827	698.855
237.972	18.955	911.502	698.044
238.986	19.000	911.263	697.982
240.001	19.058	910.340	697.449
241.015	19.120	909.452	696.956
242.030	19.144	909.095	696.718
243.045	19.243	908.797	696.828
244.059	19.175	908.352	696.150
245.074	19.208	907.561	695.618
246.088	19.429	906.751	695.828
247.103	19.504	906.413	695.807
248.117	19.593	905.865	695.683
249.132	19.797	905.526	696.184
250.147	20.049	904.987	696.720
251.161	20.007	904.450	696.078
252.176	20.105	903.685	695.818
253.190	20.106	902.888	695.147
254.205	20.186	902.248	694.913
255.220	20.055	901.871	694.040
256.234	20.020	900.949	693.128
257.249	20.176	900.601	693.420
258.263	20.005	899.600	691.907
259.278	20.111	898.987	691.799
260.293	20.081	898.776	691.454
261.307	20.111	898.587	691.368
262.322	20.124	897.614	690.609
263.336	20.285	896.828	690.583
264.351	20.137	895.900	689.219
265.366	20.234	895.417	689.173
266.380	20.328	894.553	688.819
267.395	20.073	894.075	687.380
268.409	20.142	893.270	686.974
269.424	20.015	892.711	685.979
270.439	20.056	891.542	685.183
271.453	20.055	890.760	684.518
272.468	20.143	890.361	684.498
273.482	20.013	889.961	683.617
274.497	19.871	889.519	682.657
275.512	20.015	888.606	682.461
276.526	20.041	888.122	682.131
277.541	20.157	887.541	682.084
278.555	20.296	887.389	682.451
279.570	20.541	886.695	682.819
280.585	20.468	885.927	681.883
281.599	20.222	884.979	680.126
282.614	20.114	884.202	679.046
283.628	20.158	883.845	678.884
284.643	20.173	882.858	678.125
285.657	20.273	882.574	678.241
286.672	20.073	882.004	676.959
287.687	20.169	881.252	676.697
288.701	20.196	880.806	676.400
289.716	20.146	880.318	675.770
290.730	20.236	879.729	675.609
291.745	20.290	878.975	675.180
292.760	20.373	878.453	675.041
293.774	20.544	877.305	674.766
294.789	20.528	876.915	674.342
295.803	20.253	876.151	672.630
296.818	20.117	875.696	671.693
297.833	20.208	875.112	671.540
298.847	20.246	874.281	670.989
299.862	20.236	874.332	670.931
300.876	20.440	873.391	670.937
301.891	20.557	873.008	671.032
302.906	20.635	872.305	670.736
303.920	20.921	871.989	671.537
304.935	20.776	871.441	670.495
305.949	20.687	870.704	669.528
306.964	20.642	869.938	668.706
307.979	20.562	869.449	667.964
308.993	20.709	868.804	667.973
310.008	20.762	868.227	667.674
311.022	20.635	867.703	666.723
312.037	20.533	866.899	665.657
313.052	20.427	866.387	664.799
314.066	20.328	865.610	663.767
315.081	20.450	864.999	663.703
316.095	20.358	864.446	662.871
317.110	20.318	863.856	662.208
318.125	20.334	863.376	661.841
319.139	20.383	862.927	661.625
320.154	20.383	862.618	661.331
321.168	20.257	861.893	660.235
322.183	20.498	861.175	660.545
323.197	20.546	860.787	660.369
324.212	20.377	860.894	659.753
325.227	20.345	860.134	658.990
326.241	20.442	858.908	658.360
327.256	20.365	858.601	657.773
328.270	20.516	857.832	657.697
329.285	20.350	857.612	656.844
330.300	20.326	857.036	656.254
331.314	20.483	856.384	656.290
332.329	20.579	856.347	656.566
333.343	20.666	855.660	656.307
334.358	20.691	855.269	656.045
335.373	20.703	854.967	655.799
336.387	20.849	854.736	656.115
337.402	20.776	854.753	655.796
338.416	20.945	854.235	655.973
339.431	21.037	853.820	655.945
340.446	21.186	853.357	656.090
341.460	21.218	852.712	655.659
342.475	21.259	852.772	655.799
343.489	21.180	852.444	655.191
344.504	21.208	851.795	654.740
345.519	21.356	851.601	655.089
346.533	21.196	850.790	653.808
347.548	21.113	849.683	652.589
348.562	20.907	849.501	651.621
349.577	20.980	848.123	650.780
350.592	20.844	847.339	649.612
351.606	20.762	847.114	649.076
352.621	20.877	846.336	648.850
353.635	20.888	845.963	648.549
354.650	21.002	845.078	648.236
355.665	21.142	844.286	648.094
356.679	20.987	844.499	647.624
357.694	21.231	843.086	647.388
358.708	21.035	842.792	646.378
359.723	21.154	842.268	646.358
360.738	21.022	841.979	645.590
361.752	21.214	841.106	645.574
362.767	21.425	840.513	645.840
363.781	21.468	840.308	645.785
364.796	21.531	839.974	645.705
365.810	21.742	839.303	645.910
366.825	21.643	839.022	645.269
367.840	21.536	838.779	644.632
368.854	21.351	838.543	643.711
369.869	21.420	837.490	643.100
370.883	21.458	837.258	643.004
371.898	21.523	837.055	643.033
372.913	21.561	836.428	642.634
373.927	21.610	835.454	642.008
374.942	21.636	835.041	641.729
375.956	21.682	835.008	641.815
376.971	21.635	834.813	641.436
377.986	21.714	834.276	641.257
379.000	21.922	833.706	641.521
380.015	21.897	832.775	640.657
381.029	21.872	831.828	639.781
382.044	21.738	831.618	639.075
383.059	21.859	831.202	639.138
384.073	21.839	830.360	638.363
385.088	21.593	829.778	636.964
386.102	21.474	829.263	636.079
387.117	21.553	828.546	635.759
388.132	21.565	827.614	635.031
389.146	21.522	827.393	634.651
390.161	21.604	827.282	634.807
391.175	21.821	826.786	635.155
392.190	21.630	826.491	634.180
393.205	21.620	825.534	633.354
394.219	21.461	825.352	632.583
395.234	21.529	824.515	632.134
396.248	21.406	824.269	631.442
397.263	21.349	823.570	630.647
398.278	21.366	823.317	630.459
399.292	21.206	823.401	629.889
400.307	21.380	822.784	629.989
401.321	21.319	821.931	629.061
402.336	21.580	821.571	629.669
403.350	21.644	821.261	629.606
404.365	21.683	821.028	629.509
405.380	21.923	820.071	629.584
406.394	21.968	819.925	629.577
407.409	21.916	819.548	629.045
408.423	22.135	819.227	629.526
409.438	22.191	818.655	629.233
410.453	22.249	818.297	629.108
411.467	22.161	818.025	628.530
412.482	22.393	817.506	628.903
413.496	22.492	817.276	629.024
414.511	22.522	816.704	628.638
415.526	22.245	816.325	627.299
416.540	22.137	816.030	626.634
417.555	22.233	815.353	626.401
418.569	22.238	815.189	626.235
419.584	22.432	814.399	626.263
420.599	22.345	814.228	625.768
421.613	158.560	1369.852	1788.196
422.628	138.068	1450.822	1788.305
