DTS Sentinel unit serial number:	SN413079Multiplexer serial number:	ORYXHardware model number:	OX4-SRSoftware version number:	ORYX F/W v4.00 Oryx Data Collector v3.7.2.0data status	okinstallation	princeton_trtdifferential loss correction	single-endedforward channel	channel 1reverse channel	N/Adate	2019/09/11time	00:44:11forward acquisition time	60.00reverse acquisition time	0.00gamma	496.2192k internal	0.2331k external	0.2331temperature offset calibration	0.9929default loss term (dB/km)	0.3790temperature slope calibration	1.0000multiplexer offset coefficient	1.0000multiplexer slope coefficient	1.0000fibre end	0.00T internal ref (°C)	29.19T ext. ref 1 (°C)	-0.32T ext. ref 2 (°C)	22.80length (m)	temperature (°C)	Stokes	anti-Stokes-747.200	-55.641	-0.258	0.116
-746.185	-30.322	-0.172	-0.098
-745.171	62.327	0.173	-0.174
-744.156	168.488	-0.190	0.273
-743.142	126.506	-0.106	0.135
-742.127	12.826	-0.021	-0.016
-741.112	-81.314	0.474	0.157
-740.098	-200.000	-0.015	0.299
-739.083	-7.584	0.214	0.146
-738.069	54.543	-0.214	0.207
-737.054	-132.489	0.062	-0.008
-736.039	-142.437	-0.021	0.002
-735.025	694.625	0.100	0.263
-734.010	299.824	-0.120	-0.222
-732.996	800.000	0.058	-0.210
-731.981	158.835	-0.093	-0.130
-730.966	-4.720	-0.189	0.131
-729.952	119.790	-0.294	-0.366
-728.937	313.771	-0.084	-0.159
-727.923	-114.096	-0.263	0.051
-726.908	36.362	-0.208	0.184
-725.894	-55.768	0.279	-0.125
-724.879	142.031	0.098	0.131
-723.864	-30.119	-0.241	0.138
-722.850	-125.583	-0.384	0.059
-721.835	-20.477	-0.286	-0.177
-720.821	23.465	-0.207	0.171
-719.806	128.222	-0.155	0.199
-718.791	-16.624	0.142	-0.091
-717.777	487.369	0.031	-0.071
-716.762	-30.413	0.025	-0.014
-715.748	537.120	-0.148	0.353
-714.733	286.916	-0.126	-0.229
-713.718	-34.971	-0.044	0.024
-712.704	-26.456	0.147	-0.087
-711.689	67.484	-0.250	-0.256
-710.675	-200.000	0.042	0.347
-709.660	25.818	0.213	0.178
-708.645	-76.125	0.062	0.022
-707.631	-155.697	0.078	-0.005
-706.616	-108.791	0.085	-0.018
-705.602	800.000	-0.082	0.306
-704.587	-200.000	-0.021	0.254
-703.572	72.562	0.082	-0.086
-702.558	50.361	-0.116	0.110
-701.543	-95.598	-0.399	-0.107
-700.529	368.074	0.065	-0.132
-699.514	378.817	0.119	0.244
-698.499	-7.343	-0.136	-0.093
-697.485	-82.654	0.246	-0.080
-696.470	82.167	-0.045	-0.049
-695.456	117.780	0.131	-0.163
-694.441	-63.222	-0.196	-0.081
-693.426	-124.743	-0.172	-0.027
-692.412	-198.351	-0.549	0.003
-691.397	-200.000	-0.000	-0.068
-690.383	-93.436	-0.177	0.049
-689.368	-80.500	0.170	-0.057
-688.354	778.727	0.065	-0.179
-687.339	-200.000	0.015	0.226
-686.324	800.000	0.022	0.086
-685.310	157.833	0.036	0.050
-684.295	-200.000	-0.013	-0.087
-683.281	363.837	-0.028	0.057
-682.266	-200.000	-0.008	0.041
-681.251	-200.000	-0.010	0.233
-680.237	-117.368	0.383	-0.070
-679.222	800.000	0.053	0.192
-678.208	323.859	0.121	0.232
-677.193	134.632	0.027	0.035
-676.178	-79.213	0.382	-0.130
-675.164	230.473	0.087	0.144
-674.149	50.176	0.237	-0.225
-673.135	-95.149	0.174	-0.047
-672.120	-129.109	-0.343	-0.048
-671.105	69.325	-0.148	0.153
-670.091	-102.002	-0.095	0.023
-669.076	-114.376	0.159	0.031
-668.062	384.324	-0.111	-0.229
-667.047	-40.665	0.256	0.133
-666.032	-200.000	-0.016	-0.299
-665.018	56.030	-0.155	0.151
-664.003	-157.492	0.151	0.009
-662.989	-200.000	-0.039	-0.222
-661.974	800.000	0.045	0.143
-660.959	172.666	-0.174	0.251
-659.945	80.250	-0.134	0.145
-658.930	-200.000	0.009	-0.042
-657.916	18.861	0.117	-0.094
-656.901	-92.053	0.161	-0.046
-655.886	-116.728	0.212	0.039
-654.872	-105.727	0.308	0.070
-653.857	-200.000	-0.016	0.205
-652.843	-101.168	-0.167	0.041
-651.828	-54.001	-0.197	-0.090
-650.814	334.436	0.189	-0.367
-649.799	-34.532	-0.203	-0.112
-648.784	-61.768	0.308	-0.129
-647.770	-5.619	0.371	0.255
-646.755	168.916	-0.033	-0.047
-645.741	-61.738	-0.296	-0.124
-644.726	750.787	-0.091	-0.247
-643.711	347.089	0.032	-0.063
-642.697	21.203	0.196	-0.159
-641.682	-137.992	-0.439	0.049
-640.668	40.632	-0.255	-0.230
-639.653	-5.131	-0.187	0.129
-638.638	375.603	-0.088	-0.181
-637.624	427.278	0.110	-0.238
-636.609	340.374	0.049	-0.095
-635.595	41.050	-0.144	-0.130
-634.580	-24.483	-0.198	-0.118
-633.565	45.576	-0.156	0.145
-632.551	78.175	-0.200	0.214
-631.536	-200.000	-0.015	0.145
-630.522	109.297	-0.070	-0.084
-629.507	516.772	-0.035	0.083
-628.492	800.000	-0.034	0.112
-627.478	115.898	0.186	0.228
-626.463	-122.466	-0.137	-0.022
-625.449	80.105	-0.045	0.049
-624.434	-10.515	0.170	-0.113
-623.419	-8.438	0.035	0.024
-622.405	-102.420	0.144	0.035
-621.390	-107.021	-0.057	-0.013
-620.376	-152.322	0.149	0.011
-619.361	44.980	0.186	-0.172
-618.346	369.696	-0.013	0.027
-617.332	5.920	-0.154	0.114
-616.317	-10.499	-0.184	-0.122
-615.303	-78.251	0.349	-0.120
-614.288	681.221	-0.099	0.258
-613.273	-200.000	0.038	-0.180
-612.259	43.284	0.132	0.120
-611.244	59.227	-0.130	0.128
-610.230	-38.098	0.018	-0.009
-609.215	800.000	-0.045	-0.130
-608.201	453.448	0.139	-0.309
-607.186	-200.000	-0.025	-0.377
-606.171	-200.000	-0.009	-0.195
-605.157	379.916	-0.032	-0.065
-604.142	257.399	-0.148	-0.255
-603.128	-188.687	-0.294	0.004
-602.113	-115.405	-0.360	0.068
-601.098	800.000	-0.052	-0.200
-600.084	-200.000	-0.011	-0.382
-599.069	800.000	-0.113	-0.323
-598.055	-172.162	-0.119	-0.004
-597.040	-200.000	-0.004	0.036
-596.025	-83.969	-0.046	0.015
-595.011	83.075	-0.144	-0.156
-593.996	28.764	-0.124	0.105
-592.982	768.459	0.098	-0.268
-591.967	-96.995	0.261	0.068
-590.952	30.805	-0.053	0.046
-589.938	26.813	0.433	0.363
-588.923	-58.131	-0.055	0.024
-587.909	-200.000	0.030	-0.245
-586.894	800.000	0.032	0.133
-585.879	800.000	0.041	0.149
-584.865	-142.682	0.042	0.004
-583.850	34.544	0.305	-0.266
-582.836	295.276	-0.175	-0.320
-581.821	800.000	0.053	-0.216
-580.806	-200.000	0.002	-0.345
-579.792	-180.717	0.118	0.002
-578.777	51.869	-0.088	0.083
-577.763	-60.930	-0.339	0.143
-576.748	79.585	-0.135	0.145
-575.733	21.734	-0.142	0.116
-574.719	-25.700	-0.082	-0.048
-573.704	-78.744	-0.255	-0.087
-572.690	50.883	-0.062	-0.059
-571.675	-200.000	0.002	-0.093
-570.661	336.788	0.114	0.221
-569.646	226.406	0.139	0.226
-568.631	-90.958	-0.354	0.102
-567.617	36.741	0.129	0.114
-566.602	66.604	0.122	-0.123
-565.588	800.000	-0.045	0.196
-564.573	-81.332	0.120	-0.040
-563.558	-116.475	0.162	0.030
-562.544	265.960	-0.083	0.145
-561.529	-142.192	-0.424	-0.042
-560.515	-134.580	-0.192	0.023
-559.500	347.758	-0.128	-0.252
-558.485	-61.639	-0.242	0.102
-557.471	-111.934	0.180	-0.036
-556.456	-60.120	0.079	0.034
-555.442	153.400	-0.217	0.297
-554.427	-34.758	-0.210	0.115
-553.412	211.380	-0.126	-0.198
-552.398	800.000	0.046	0.152
-551.383	-116.269	0.242	-0.045
-550.369	121.208	0.178	0.222
-549.354	-114.224	-0.237	0.046
-548.339	188.312	0.099	-0.147
-547.325	586.632	-0.101	-0.249
-546.310	34.165	0.242	0.210
-545.296	11.111	0.080	0.061
-544.281	441.822	0.087	-0.189
-543.266	-128.566	0.167	0.024
-542.252	-92.934	0.136	-0.038
-541.237	78.598	0.135	0.144
-540.223	-127.892	-0.147	-0.021
-539.208	16.662	-0.046	0.036
-538.193	-57.613	-0.184	-0.080
-537.179	800.000	0.099	0.274
-536.164	46.806	0.041	0.038
-535.150	-111.522	0.179	0.036
-534.135	21.078	0.225	-0.182
-533.121	-200.000	-0.098	0.637
-532.106	-200.000	0.004	0.143
-531.091	-200.000	-0.036	0.206
-530.077	330.087	-0.034	-0.065
-529.062	-200.000	-0.005	0.167
-528.048	-118.225	-0.107	-0.019
-527.033	48.836	0.243	-0.228
-526.018	217.734	-0.032	0.051
-525.004	425.467	-0.081	0.175
-523.989	-200.000	-0.011	0.130
-522.975	-92.183	-0.256	-0.072
-521.960	28.633	-0.087	-0.073
-520.945	-200.000	0.003	-0.212
-519.931	-200.000	-0.037	0.246
-518.916	800.000	-0.028	0.086
-517.902	-132.117	0.247	-0.032
-516.887	-45.846	0.275	0.136
-515.872	237.901	-0.043	0.071
-514.858	-199.565	-0.253	-0.001
-513.843	-200.000	0.026	-0.132
-512.829	394.751	0.131	-0.272
-511.814	-123.133	-0.356	-0.057
-510.799	-5.785	-0.304	0.207
-509.785	381.119	0.106	-0.217
-508.770	-199.222	0.007	0.000
-507.756	-18.810	-0.189	0.117
-506.741	72.103	0.134	0.139
-505.726	172.814	-0.112	0.161
-504.712	-171.187	-0.065	-0.002
-503.697	800.000	-0.035	-0.141
-502.683	-121.715	-0.200	-0.033
-501.668	82.948	-0.240	-0.260
-500.653	800.000	0.045	-0.156
-499.639	363.119	0.128	0.256
-498.624	-68.824	0.197	0.076
-497.610	108.173	-0.149	-0.177
-496.595	-7.199	0.091	-0.062
-495.581	-200.000	-0.005	-0.152
-494.566	191.945	-0.090	-0.135
-493.551	800.000	-0.082	0.253
-492.537	-200.000	0.053	0.262
-491.522	-120.278	-0.456	-0.077
-490.508	-88.747	0.281	0.083
-489.493	-200.000	0.040	-0.198
-488.478	59.206	-0.168	0.165
-487.464	20.412	0.155	-0.125
-486.449	601.652	0.058	-0.144
-485.435	-10.324	0.128	0.084
-484.420	-148.393	-0.166	0.014
-483.405	-37.563	0.527	-0.280
-482.391	170.285	0.012	0.017
-481.376	97.278	-0.188	-0.215
-480.362	12.295	0.076	0.059
-479.347	-106.233	0.176	0.039
-478.332	-200.000	0.012	-0.185
-477.318	-142.629	0.243	-0.024
-476.303	-200.000	-0.072	-0.637
-475.289	341.058	-0.130	-0.253
-474.274	147.873	-0.213	-0.286
-473.259	-113.069	0.212	0.042
-472.245	-200.000	-0.005	0.141
-471.230	-23.003	0.080	0.048
-470.216	583.539	0.023	0.056
-469.201	39.445	0.204	-0.182
-468.186	169.488	-0.056	0.080
-467.172	504.545	-0.078	0.181
-466.157	23.619	-0.286	0.234
-465.143	-182.398	-0.247	-0.005
-464.128	-63.050	0.123	0.051
-463.113	-200.000	0.009	0.044
-462.099	-200.000	-0.010	-0.256
-461.084	-200.000	0.001	0.050
-460.070	-107.733	-0.103	0.022
-459.055	800.000	-0.022	-0.077
-458.040	-200.000	0.046	-0.222
-457.026	-70.787	-0.140	0.053
-456.011	800.000	-0.069	-0.248
-454.997	-200.000	0.026	-0.257
-453.982	209.983	-0.027	-0.042
-452.968	77.126	0.213	0.225
-451.953	548.926	0.038	-0.092
-450.938	168.919	0.183	0.259
-449.924	607.190	-0.084	0.210
-448.909	800.000	-0.036	0.106
-447.895	188.695	-0.058	-0.087
-446.880	-40.456	-0.100	-0.052
-445.865	3.789	0.161	-0.117
-444.851	123.761	-0.107	0.133
-443.836	170.402	-0.048	0.068
-442.822	-200.000	0.013	0.133
-441.807	325.688	-0.104	-0.197
-440.792	-149.530	-0.097	0.008
-439.778	467.976	0.041	-0.091
-438.763	-93.607	-0.166	0.046
-437.749	236.875	-0.114	0.187
-436.734	-78.271	-0.307	0.105
-435.719	800.000	-0.070	0.197
-434.705	-200.000	-0.011	0.103
-433.690	-64.963	-0.143	0.058
-432.676	-200.000	0.042	-0.245
-431.661	51.091	0.078	0.073
-430.646	-76.826	-0.073	0.025
-429.632	-200.000	-0.031	-0.226
-428.617	-58.139	0.345	0.150
-427.603	-174.362	0.341	-0.010
-426.588	-20.340	0.277	0.169
-425.573	-109.457	-0.267	-0.056
-424.559	545.910	-0.116	-0.276
-423.544	-109.446	0.248	-0.052
-422.530	-65.255	-0.272	0.109
-421.515	-28.109	-0.193	-0.111
-420.500	-29.935	-0.364	-0.206
-419.486	-178.553	0.173	-0.004
-418.471	-200.000	-0.088	-0.395
-417.457	-81.724	-0.353	0.115
-416.442	252.123	-0.242	-0.410
-415.428	-85.772	0.202	-0.062
-414.413	-137.724	-0.058	0.006
-413.398	148.622	-0.295	-0.395
-412.384	-200.000	0.046	-0.306
-411.369	800.000	0.079	0.243
-410.355	17.246	0.064	-0.051
-409.340	-93.401	0.089	-0.025
-408.325	-15.242	0.078	0.050
-407.311	-200.000	0.017	0.224
-406.296	91.516	-0.067	0.075
-405.282	-179.967	0.289	0.006
-404.267	-200.000	0.027	0.145
-403.252	-57.908	0.195	-0.085
-402.238	-140.631	-0.213	-0.022
-401.223	-87.307	0.257	0.077
-400.209	-64.472	0.123	0.050
-399.194	49.977	0.232	0.217
-398.179	-73.436	0.355	-0.129
-397.165	246.700	-0.205	0.344
-396.150	-52.843	0.110	-0.050
-395.136	153.377	0.062	0.084
-394.121	-140.256	0.198	0.021
-393.106	800.000	0.131	0.421
-392.092	160.058	-0.128	-0.177
-391.077	-143.153	0.101	-0.010
-390.063	13.728	-0.114	0.088
-389.048	71.621	-0.081	-0.083
-388.033	171.481	0.096	-0.136
-387.019	89.982	-0.082	0.091
-386.004	63.871	0.089	-0.088
-384.990	121.049	-0.128	-0.158
-383.975	800.000	0.071	-0.306
-382.960	-200.000	-0.028	0.145
-381.946	415.655	-0.157	0.332
-380.931	28.637	-0.140	0.118
-379.917	-80.932	-0.153	0.050
-378.902	104.008	0.026	-0.031
-377.888	-75.453	0.392	0.139
-376.873	-106.141	-0.299	-0.067
-375.858	-200.000	0.013	0.259
-374.844	-25.763	0.181	-0.106
-373.829	-150.690	0.202	-0.015
-372.815	-42.797	0.150	0.076
-371.800	-200.000	-0.039	0.280
-370.785	-21.958	0.270	0.163
-369.771	18.807	-0.350	-0.278
-368.756	-53.608	0.100	0.045
-367.742	-200.000	-0.007	0.170
-366.727	-108.206	0.139	0.030
-365.712	29.455	0.228	0.192
-364.698	-155.623	-0.038	0.002
-363.683	531.861	0.081	0.191
-362.669	672.662	-0.128	-0.330
-361.654	-35.377	-0.127	-0.068
-360.639	-35.784	-0.298	-0.160
-359.625	-39.240	-0.043	0.022
-358.610	-200.000	0.005	-0.129
-357.596	-105.518	-0.082	-0.019
-356.581	-109.613	-0.419	0.088
-355.566	432.373	-0.100	0.215
-354.552	-130.645	0.288	-0.038
-353.537	-109.632	0.110	0.023
-352.523	85.620	-0.286	0.311
-351.508	-200.000	0.007	-0.100
-350.493	-20.170	0.213	0.130
-349.479	-26.605	0.162	0.094
-348.464	-56.937	0.044	0.019
-347.450	-107.179	0.299	-0.065
-346.435	-200.000	0.007	-0.064
-345.420	10.298	-0.190	-0.143
-344.406	-17.958	0.374	0.232
-343.391	-22.852	0.474	-0.284
-342.377	-170.162	-0.310	0.011
-341.362	289.754	-0.095	0.171
-340.348	184.817	-0.193	-0.283
-339.333	800.000	-0.121	0.405
-338.318	-143.153	0.165	-0.016
-337.304	-96.925	-0.272	-0.071
-336.289	-200.000	0.114	-0.502
-335.275	-200.000	0.015	0.154
-334.260	46.882	0.196	0.180
-333.245	-127.301	0.042	-0.006
-332.231	-60.163	0.127	0.053
-331.216	-122.466	0.134	0.022
-330.202	800.000	-0.082	0.319
-329.187	-200.000	-0.012	0.128
-328.172	-145.275	-0.022	0.002
-327.158	-129.212	-0.325	-0.045
-326.143	51.178	0.130	0.122
-325.129	-84.014	0.210	-0.066
-324.114	59.619	0.075	0.073
-323.099	-9.082	0.237	0.157
-322.085	-200.000	0.050	-0.376
-321.070	67.099	-0.282	-0.284
-320.056	229.294	0.133	-0.214
-319.041	173.661	0.149	0.213
-318.026	103.109	0.248	0.288
-317.012	-131.087	-0.022	-0.003
-315.997	-200.000	-0.001	0.146
-314.983	-200.000	-0.007	0.250
-313.968	-57.042	-0.169	0.074
-312.953	-104.448	0.191	-0.044
-311.939	-200.000	-0.008	-0.088
-310.924	2.865	-0.078	0.056
-309.910	181.415	-0.280	-0.408
-308.895	137.294	-0.041	-0.053
-307.880	-94.202	0.135	-0.037
-306.866	73.464	0.177	-0.183
-305.851	24.946	-0.097	-0.079
-304.837	-76.200	-0.274	0.096
-303.822	34.682	-0.150	-0.130
-302.807	-113.833	0.262	-0.050
-301.793	53.024	-0.206	-0.195
-300.778	-200.000	-0.039	-0.172
-299.764	-104.246	-0.142	-0.032
-298.749	-154.783	-0.389	0.025
-297.735	800.000	0.101	0.391
-296.720	-78.628	-0.181	-0.061
-295.705	383.812	0.155	-0.316
-294.691	-11.404	0.247	0.160
-293.676	601.188	0.048	0.118
-292.662	-85.205	0.296	0.092
-291.647	-200.000	0.014	0.185
-290.632	77.617	0.038	-0.040
-289.618	800.000	-0.151	0.455
-288.603	11.043	-0.091	0.069
-287.589	286.854	-0.045	0.080
-286.574	-200.000	-0.054	0.242
-285.559	-73.353	0.306	0.111
-284.545	33.566	0.042	0.036
-283.530	-153.136	-0.088	0.006
-282.516	43.574	-0.157	0.142
-281.501	-4.655	0.303	-0.207
-280.486	15.580	0.175	0.136
-279.472	310.539	0.107	-0.198
-278.457	77.273	-0.043	0.045
-277.443	-200.000	0.031	0.220
-276.428	53.716	0.185	0.175
-275.413	-39.486	-0.174	0.090
-274.399	43.188	-0.100	-0.090
-273.384	-200.000	0.046	-0.283
-272.370	-27.832	0.234	-0.134
-271.355	-62.303	0.336	0.138
-270.340	69.528	0.105	0.106
-269.326	-39.215	-0.250	-0.130
-268.311	-200.000	-0.024	0.279
-267.297	-200.000	0.067	0.298
-266.282	-76.411	0.339	-0.118
-265.267	211.623	0.081	-0.126
-264.253	240.686	-0.062	0.102
-263.238	-200.000	-0.008	0.063
-262.224	-98.482	0.220	-0.056
-261.209	51.386	-0.171	0.161
-260.195	496.536	-0.129	0.292
-259.180	-58.996	-0.167	0.071
-258.165	435.400	0.117	0.250
-257.151	-3.206	-0.073	0.050
-256.136	-200.000	0.009	0.066
-255.122	201.286	-0.133	0.202
-254.107	106.886	0.186	-0.218
-253.092	283.226	-0.007	-0.012
-252.078	415.728	-0.099	0.208
-251.063	29.578	-0.411	-0.346
-250.049	65.828	0.116	-0.117
-249.034	43.374	-0.054	0.049
-248.019	-200.000	-0.027	-0.170
-247.005	360.589	-0.098	0.193
-245.990	-105.660	0.173	-0.039
-244.976	388.733	-0.124	-0.253
-243.961	22.321	-0.217	0.175
-242.946	-63.470	0.125	-0.051
-241.932	-200.000	0.070	-0.328
-240.917	-99.756	0.316	0.078
-239.903	66.583	-0.251	-0.252
-238.888	-41.116	-0.337	0.172
-237.873	395.450	-0.053	0.109
-236.859	629.522	-0.082	-0.204
-235.844	135.676	-0.069	-0.088
-234.830	-46.816	-0.215	-0.104
-233.815	-39.864	0.316	0.163
-232.800	737.428	-0.087	-0.229
-231.786	388.347	0.140	0.287
-230.771	18.549	0.257	0.203
-229.757	145.057	0.130	-0.171
-228.742	127.200	-0.082	-0.103
-227.727	-42.800	0.093	0.046
-226.713	-21.309	0.116	-0.070
-225.698	1.717	-0.153	0.109
-224.684	203.020	0.201	0.307
-223.669	20.678	0.240	-0.191
-222.655	-98.785	0.227	0.057
-221.640	-46.381	0.187	0.091
-220.625	169.462	0.048	-0.067
-219.611	-140.311	-0.171	-0.018
-218.596	67.092	0.205	-0.206
-217.582	33.283	0.128	0.110
-216.567	-56.277	-0.241	0.106
-215.552	60.983	-0.131	-0.128
-214.538	-90.718	0.046	0.013
-213.523	46.559	-0.140	0.128
-212.509	-18.374	0.040	-0.025
-211.494	-49.668	0.106	0.050
-210.479	206.881	0.155	0.238
-209.465	673.628	-0.038	-0.098
-208.450	-31.924	-0.088	0.049
-207.436	190.737	0.252	0.374
-206.421	623.319	-0.109	0.269
-205.406	-13.176	0.131	0.084
-204.392	800.000	-0.055	-0.227
-203.377	0.755	0.217	0.153
-202.363	-200.000	-0.021	0.107
-201.348	-151.175	-0.238	0.018
-200.333	62.879	-0.154	0.152
-199.319	-72.937	-0.044	0.016
-198.304	800.000	0.071	-0.235
-197.290	-200.000	0.022	0.231
-196.275	65.230	-0.076	-0.075
-195.260	800.000	-0.012	-0.050
-194.246	800.000	0.088	0.266
-193.231	-200.000	0.016	-0.155
-192.217	501.423	0.086	0.196
-191.202	800.000	0.077	-0.261
-190.187	-91.190	0.095	0.027
-189.173	31.868	-0.132	-0.112
-188.158	422.193	-0.191	-0.404
-187.144	75.702	-0.054	0.056
-186.129	797.067	0.092	0.251
-185.114	-200.000	-0.002	-0.064
-184.100	-80.101	0.223	-0.073
-183.085	370.706	-0.184	-0.367
-182.071	-138.117	0.126	-0.014
-181.056	-82.995	0.329	-0.104
-180.042	190.860	0.079	0.117
-179.027	-12.563	-0.026	0.016
-178.012	-0.096	-0.157	0.110
-176.998	-200.000	0.011	-0.224
-175.983	292.076	-0.031	-0.056
-174.969	-121.006	-0.264	0.044
-173.954	800.000	-0.043	0.128
-172.939	102.603	-0.089	0.102
-171.925	-78.572	-0.294	-0.099
-170.910	-200.000	-0.011	0.259
-169.896	-200.000	-0.002	-0.194
-168.881	327.787	-0.067	0.126
-167.866	-200.000	0.017	-0.073
-166.852	-62.109	0.377	0.155
-165.837	-34.746	0.083	0.045
-164.823	-77.182	-0.118	0.041
-163.808	-57.197	0.434	-0.188
-162.793	-200.000	0.006	-0.108
-161.779	-200.000	0.052	-0.316
-160.764	-131.642	0.185	0.024
-159.750	-68.772	0.323	0.123
-158.735	25.470	-0.047	-0.039
-157.720	-200.000	-0.040	-0.198
-156.706	-200.000	-0.012	-0.203
-155.691	247.154	0.126	0.208
-154.677	623.106	0.060	-0.149
-153.662	-123.437	-0.231	0.036
-152.647	-13.162	0.095	0.061
-151.633	356.967	-0.088	0.172
-150.618	-161.226	-0.088	0.005
-149.604	376.003	0.049	0.099
-148.589	800.000	0.095	0.398
-147.574	-73.090	0.036	0.013
-146.560	-45.058	-0.099	-0.049
-145.545	800.000	-0.098	0.331
-144.531	189.886	0.084	-0.124
-143.516	13.602	0.322	-0.246
-142.502	-29.799	0.214	0.120
-141.487	-200.000	0.013	0.166
-140.472	87.120	0.183	-0.199
-139.458	-200.000	-0.016	0.134
-138.443	-105.366	-0.130	0.029
-137.429	6.450	0.181	0.132
-136.414	800.000	0.031	-0.105
-135.399	-0.149	0.221	0.154
-134.385	-200.000	-0.018	-0.171
-133.370	-83.296	-0.275	-0.087
-132.356	800.000	0.083	0.315
-131.341	478.423	-0.143	0.317
-130.326	166.972	0.144	0.201
-129.312	74.665	-0.187	0.194
-128.297	193.113	0.190	-0.282
-127.283	180.857	0.139	-0.201
-126.268	-70.155	0.067	-0.025
-125.253	800.000	0.084	0.239
-124.239	-17.095	0.194	0.120
-123.224	-114.400	0.030	-0.006
-122.210	-200.000	0.048	-0.295
-121.195	87.594	-0.128	0.139
-120.180	-32.364	-0.254	-0.139
-119.166	404.896	0.084	-0.174
-118.151	-21.634	0.259	0.155
-117.137	52.992	0.167	0.157
-116.122	-153.706	-0.490	-0.033
-115.107	415.150	-0.165	0.345
-114.093	162.839	0.145	-0.200
-113.078	749.495	-0.046	0.121
-112.064	199.341	-0.255	0.383
-111.049	-200.000	-0.027	0.195
-110.034	-200.000	0.009	0.069
-109.020	800.000	0.097	0.273
-108.005	-47.361	-0.215	-0.103
-106.991	-140.738	0.186	-0.019
-105.976	88.975	0.016	0.018
-104.962	-200.000	0.034	-0.162
-103.947	-155.013	-0.114	-0.007
-102.932	-200.000	0.014	-0.147
-101.918	800.000	0.060	0.176
-100.903	-14.382	-0.174	-0.110
-99.889	-200.000	0.068	0.375
-98.874	-128.181	-0.261	0.037
-97.859	-200.000	0.074	0.370
-96.845	-200.000	-0.059	-0.381
-95.830	-200.000	0.029	-0.255
-94.816	-115.634	0.098	-0.018
-93.801	-136.925	0.257	-0.029
-92.786	-130.755	0.210	0.028
-91.772	800.000	0.053	0.221
-90.757	-48.162	0.236	0.112
-89.743	14.127	-0.154	-0.117
-88.728	128.631	-0.142	0.178
-87.713	-112.100	-0.098	0.019
-86.699	239.000	-0.109	-0.178
-85.684	-146.587	-0.071	-0.006
-84.670	-139.518	0.161	-0.017
-83.655	-125.056	-0.080	-0.012
-82.640	-114.000	0.072	0.014
-81.626	-31.436	0.076	0.042
-80.611	-6.339	-0.408	0.273
-79.597	17.981	-0.256	-0.200
-78.582	31.633	-0.290	0.244
-77.567	171.568	-0.239	0.337
-76.553	-131.539	0.176	0.023
-75.538	-170.760	0.107	0.004
-74.524	398.831	0.017	0.034
-73.509	-161.476	-0.448	0.023
-72.494	784.143	0.190	-0.509
-71.480	-48.949	-0.227	0.107
-70.465	-200.000	-0.019	-0.086
-69.451	23.889	0.046	-0.037
-68.436	66.510	-0.087	-0.086
-67.422	513.056	0.072	0.165
-66.407	-138.816	0.212	-0.023
-65.392	-56.941	0.109	-0.047
-64.378	-124.447	-0.231	-0.035
-63.363	-163.688	-0.237	-0.011
-62.349	-200.000	-0.015	0.079
-61.334	94.847	-1.104	-1.230
-60.319	129.711	0.450	0.563
-59.305	292.006	-0.627	-1.118
-58.290	209.998	0.857	1.318
-57.276	-200.000	0.237	1.672
-56.261	-200.000	107.011	623.322
-55.246	522.097	1512.177	3477.733
-54.232	176.421	2701.159	3844.686
-53.217	111.456	2160.732	2552.252
-52.203	41.095	1598.680	1414.513
-51.188	32.820	1335.962	1132.598
-50.173	29.703	1295.219	1079.837
-49.159	53.740	1350.621	1270.152
-48.144	53.998	1365.141	1285.298
-47.130	32.865	1319.508	1118.740
-46.115	29.414	1301.753	1083.417
-45.100	29.160	1297.100	1078.017
-44.086	29.033	1295.137	1075.600
-43.071	29.112	1292.136	1073.522
-42.057	28.979	1290.044	1070.971
-41.042	29.091	1288.468	1070.267
-40.027	29.074	1287.120	1069.010
-39.013	29.093	1284.868	1067.207
-37.998	29.168	1282.815	1065.892
-36.984	29.187	1281.425	1064.804
-35.969	29.218	1279.412	1063.271
-34.954	29.216	1277.863	1061.929
-33.940	29.185	1276.789	1060.817
-32.925	29.251	1275.609	1060.173
-31.911	29.251	1273.776	1058.608
-30.896	29.252	1272.546	1057.545
-29.881	29.252	1271.362	1056.524
-28.867	29.378	1269.158	1055.367
-27.852	29.233	1268.428	1053.890
-26.838	29.328	1266.825	1053.062
-25.823	29.288	1265.268	1051.494
-24.809	29.171	1264.662	1050.284
-23.794	29.225	1263.068	1049.224
-22.779	29.226	1261.644	1048.004
-21.765	29.262	1260.681	1047.370
-20.750	29.211	1259.343	1045.926
-19.736	29.237	1257.549	1044.541
-18.721	29.176	1256.682	1043.436
-17.706	29.149	1255.619	1042.361
-16.692	29.352	1253.801	1041.953
-15.677	29.109	1253.502	1040.292
-14.663	29.264	1251.914	1039.806
-13.648	29.103	1251.516	1038.526
-12.633	29.125	1249.974	1037.331
-11.619	29.077	1249.245	1036.416
-10.604	29.106	1248.667	1036.056
-9.590	29.123	1247.643	1035.264
-8.575	29.132	1246.264	1034.127
-7.560	29.046	1245.882	1033.287
-6.546	29.118	1245.249	1033.122
-5.531	29.082	1244.517	1032.272
-4.517	29.219	1243.254	1031.954
-3.502	29.074	1242.981	1030.871
-2.487	29.169	1241.375	1030.033
-1.473	29.093	1237.551	1026.394
-0.458	27.691	1222.516	1006.155
0.556	21.891	1205.655	968.972
1.571	18.704	1210.516	955.091
2.586	17.837	1225.372	961.839
3.600	17.750	1215.124	953.227
4.615	12.855	1144.229	871.705
5.629	4.072	1069.845	771.376
6.644	-0.030	1050.073	736.977
7.659	-0.417	1047.554	733.249
8.673	-0.397	1046.476	732.529
9.688	-0.426	1045.030	731.307
10.702	-0.109	1042.983	731.352
11.717	5.623	1051.026	764.987
12.731	14.475	1064.261	818.167
13.746	19.194	1069.552	845.378
14.761	20.073	1070.515	850.383
15.775	20.067	1070.267	850.082
16.790	19.783	1069.234	847.791
17.804	19.776	1068.329	846.966
18.819	19.740	1068.547	846.888
19.834	19.944	1068.032	847.403
20.848	19.804	1067.302	846.062
21.863	19.872	1066.952	846.042
22.877	19.875	1065.685	844.980
23.892	19.794	1065.305	844.207
24.907	19.953	1064.890	844.579
25.921	19.811	1063.581	842.773
26.936	19.911	1062.374	842.231
27.950	19.831	1060.535	840.308
28.965	19.580	1058.576	837.467
29.980	19.603	1057.420	836.591
30.994	19.905	1056.055	836.893
32.009	19.961	1054.477	835.842
33.023	19.735	1053.283	833.732
34.038	19.795	1052.861	833.613
35.053	19.883	1052.007	833.285
36.067	20.011	1050.867	832.927
37.082	19.938	1050.626	832.312
38.096	20.071	1049.977	832.361
39.111	20.315	1048.625	832.386
40.126	20.072	1047.576	830.318
41.140	19.664	1046.277	827.259
42.155	19.545	1044.514	825.224
43.169	19.632	1043.643	824.877
44.184	19.610	1042.399	823.716
45.199	19.470	1041.763	822.474
46.213	19.632	1040.313	822.027
47.228	19.694	1039.500	821.605
48.242	19.701	1038.530	820.799
49.257	19.885	1037.936	821.134
50.271	19.883	1036.877	820.213
51.286	19.883	1036.271	819.660
52.301	19.961	1035.226	819.132
53.315	19.876	1034.498	818.079
54.330	19.899	1033.186	817.081
55.344	19.923	1032.570	816.631
56.359	19.856	1031.350	815.280
57.374	19.718	1030.365	813.780
58.388	19.818	1029.722	813.669
59.403	19.592	1028.971	811.941
60.417	19.514	1027.979	810.722
61.432	19.611	1027.341	810.600
62.447	19.764	1026.654	810.705
63.461	19.874	1025.558	810.282
64.476	19.816	1024.701	809.265
65.490	19.685	1023.512	807.640
66.505	19.723	1022.928	807.286
67.520	19.627	1022.611	806.516
68.534	19.518	1021.358	804.946
69.549	19.394	1020.105	803.312
70.563	19.280	1019.788	802.462
71.578	19.399	1018.719	802.100
72.593	19.275	1017.654	800.614
73.607	19.305	1017.414	800.494
74.622	19.586	1017.002	801.402
75.636	19.597	1016.043	800.628
76.651	19.423	1015.294	799.163
77.666	19.404	1014.518	798.392
78.680	19.492	1013.878	798.225
79.695	19.580	1013.169	798.003
80.709	19.503	1012.361	796.940
81.724	19.551	1011.314	796.268
82.739	19.634	1011.294	796.563
83.753	19.863	1010.664	797.052
84.768	20.120	1009.524	797.266
85.782	20.281	1008.442	797.079
86.797	20.153	1007.573	795.733
87.812	19.945	1006.907	794.185
88.826	20.106	1005.755	793.942
89.841	20.124	1005.040	793.390
90.855	20.124	1003.816	792.354
91.870	20.215	1002.485	791.650
92.884	19.939	1001.555	789.586
93.899	19.806	1000.708	788.244
94.914	20.104	999.748	788.772
95.928	19.867	998.801	786.876
96.943	19.795	997.477	785.440
97.957	19.614	995.791	783.220
98.972	19.396	994.967	781.517
99.987	19.600	994.644	782.115
101.001	19.796	993.742	782.224
102.016	19.846	993.066	781.847
103.030	19.754	991.884	780.433
104.045	19.646	990.616	778.880
105.060	19.533	989.759	777.628
106.074	19.656	989.535	777.938
107.089	20.058	988.687	779.013
108.103	19.954	987.719	777.714
109.118	19.641	986.660	775.403
110.133	19.716	985.141	774.478
111.147	19.590	983.672	772.691
112.162	19.504	982.941	771.663
113.176	19.573	982.706	771.720
114.191	19.556	981.686	770.776
115.206	19.313	979.981	768.286
116.220	19.277	979.493	767.673
117.235	19.456	978.999	768.017
118.249	19.399	978.207	767.075
119.264	19.279	977.259	765.727
120.279	19.363	976.334	765.311
121.293	19.472	975.475	765.049
122.308	19.488	974.979	764.666
123.322	19.380	973.630	763.063
124.337	19.307	972.080	761.458
125.352	18.857	970.227	757.954
126.366	18.776	969.465	756.934
127.381	19.581	969.282	760.269
128.395	19.810	968.691	760.746
129.410	20.016	968.216	761.212
130.424	19.848	966.801	759.294
131.439	20.012	965.891	759.230
132.454	19.784	965.255	757.664
133.468	19.743	964.516	756.841
134.483	19.943	963.591	756.922
135.497	20.091	962.890	756.952
136.512	20.089	962.063	756.225
137.527	20.066	960.653	754.949
138.541	20.100	960.280	754.739
139.556	20.056	959.726	754.043
140.570	20.062	958.413	752.973
141.585	20.274	957.306	752.956
142.600	20.038	956.857	751.513
143.614	20.405	955.684	752.115
144.629	20.414	954.897	751.467
145.643	20.238	953.600	749.619
146.658	20.092	952.642	748.168
147.673	20.065	951.442	747.046
148.687	20.048	950.451	746.126
149.702	19.852	949.727	744.648
150.716	19.863	948.987	744.052
151.731	20.037	948.588	744.419
152.746	20.185	947.918	744.465
153.760	20.203	947.199	743.911
154.775	20.236	946.635	743.541
155.789	20.196	945.469	742.389
156.804	20.285	944.778	742.162
157.819	20.450	943.446	741.755
158.833	20.414	942.959	741.154
159.848	20.413	941.862	740.219
160.862	20.223	940.440	738.229
161.877	20.279	939.855	737.943
162.892	20.379	938.947	737.589
163.906	20.360	937.834	736.570
164.921	20.094	937.327	734.978
165.935	20.386	936.034	735.135
166.950	20.336	935.260	734.252
167.964	20.270	934.074	732.977
168.979	20.070	933.259	731.428
169.994	20.193	932.263	731.100
171.008	20.287	932.132	731.330
172.023	20.243	931.060	730.237
173.037	19.927	930.201	728.171
174.052	19.934	928.653	726.925
175.067	20.152	928.217	727.434
176.081	20.186	927.709	727.112
177.096	20.156	927.170	726.500
178.110	19.881	926.127	724.469
179.125	19.774	925.197	723.229
180.140	19.785	924.828	722.925
181.154	19.800	924.480	722.650
182.169	20.216	924.238	724.133
183.183	20.303	924.031	724.269
184.198	20.026	923.273	722.457
185.213	20.012	922.741	721.920
186.227	20.195	921.644	721.758
187.242	20.261	920.607	721.158
188.256	20.386	919.657	720.866
189.271	20.384	919.409	720.603
190.286	20.088	918.168	718.336
191.300	19.575	916.961	715.206
192.315	18.905	915.555	711.275
193.329	18.789	915.435	710.639
194.344	19.689	915.591	714.420
195.359	20.179	915.165	716.047
196.373	20.220	914.683	715.777
197.388	20.050	913.983	714.465
198.402	20.125	913.443	714.286
199.417	20.145	912.529	713.594
200.432	19.847	911.891	711.804
201.446	19.636	911.186	710.323
202.461	19.622	910.471	709.646
203.475	18.833	908.527	704.833
204.490	18.221	907.345	701.343
205.504	19.262	907.867	705.954
206.519	19.783	907.905	708.054
207.534	19.739	907.210	707.268
208.548	20.266	907.012	709.209
209.563	19.978	906.117	707.270
210.577	19.935	905.494	706.544
211.592	20.447	904.941	708.138
212.607	20.213	904.301	706.623
213.621	20.419	903.762	706.975
214.636	20.372	902.446	705.695
215.650	20.285	901.896	704.847
216.665	20.391	901.328	704.769
217.680	20.396	899.925	703.633
218.694	19.880	899.043	700.790
219.709	19.760	898.476	699.803
220.723	20.060	898.241	700.770
221.738	20.244	897.472	700.850
222.753	20.111	896.878	699.788
223.767	20.195	896.946	700.121
224.782	20.445	896.071	700.380
225.796	20.404	895.614	699.799
226.811	19.862	894.091	696.367
227.826	19.183	892.684	692.480
228.840	19.394	892.436	693.074
229.855	19.504	891.503	692.728
230.869	19.116	890.515	690.343
231.884	19.613	890.731	692.444
232.899	20.222	890.638	694.748
233.913	20.119	889.595	693.463
234.928	20.119	889.258	693.140
235.942	20.118	888.436	692.434
236.957	19.695	887.828	690.209
237.972	19.794	887.215	690.066
238.986	19.998	886.581	690.323
240.001	19.955	885.876	689.543
241.015	20.065	885.341	689.503
242.030	20.185	884.692	689.413
243.045	20.282	884.121	689.296
244.059	20.534	883.522	689.766
245.074	20.076	882.756	687.292
246.088	19.690	882.176	685.249
247.103	20.063	881.446	686.099
248.117	20.639	881.216	688.139
249.132	20.789	880.824	688.364
250.147	20.748	880.472	687.867
251.161	20.894	880.110	688.100
252.176	20.989	878.970	687.521
253.190	21.024	878.673	687.367
254.205	21.223	877.903	687.486
255.220	21.210	877.212	686.832
256.234	20.859	876.602	684.915
257.249	20.895	875.664	684.263
258.263	20.916	875.283	683.986
259.278	21.070	874.129	683.627
260.293	20.935	874.029	682.960
261.307	20.909	873.411	682.317
262.322	20.748	872.277	680.740
263.336	20.012	870.153	676.150
264.351	18.829	868.409	670.121
265.366	19.164	867.753	670.862
266.380	20.130	869.202	675.692
267.395	20.663	868.667	677.291
268.409	20.592	867.893	676.350
269.424	20.863	867.139	676.759
270.439	20.873	866.681	676.379
271.453	20.826	866.266	675.813
272.468	21.083	865.920	676.480
273.482	21.083	865.425	676.035
274.497	20.709	863.953	673.376
275.512	20.287	863.106	671.026
276.526	20.815	863.452	673.276
277.541	20.973	862.238	672.881
278.555	20.602	861.912	671.135
279.570	20.508	860.979	669.987
280.585	20.794	859.858	670.158
281.599	20.708	859.083	669.163
282.614	20.059	858.128	665.865
283.628	20.098	857.762	665.673
284.643	20.454	857.913	667.099
285.657	20.067	856.309	664.310
286.672	19.978	855.397	663.200
287.687	20.371	855.554	664.768
288.701	20.462	854.909	664.557
289.716	20.208	853.988	662.813
290.730	20.144	853.274	661.956
291.745	19.815	852.528	660.061
292.760	20.156	852.410	661.215
293.774	21.077	852.988	665.116
294.789	21.306	852.325	665.411
295.803	21.504	851.433	665.411
296.818	21.385	851.344	664.829
297.833	20.857	849.866	661.613
298.847	20.906	849.269	661.274
299.862	21.295	849.010	662.490
300.876	21.346	849.046	662.651
301.891	21.326	847.708	661.473
302.906	20.859	846.270	658.526
303.920	20.959	846.399	658.950
304.935	21.343	846.217	660.199
305.949	21.139	845.563	658.862
306.964	21.138	844.828	658.227
307.979	21.175	844.366	657.947
308.993	21.440	844.640	659.102
310.008	21.537	843.851	658.792
311.022	21.156	842.949	656.596
312.037	21.187	842.297	656.149
313.052	20.830	841.272	653.953
314.066	20.171	839.858	650.324
315.081	19.940	838.826	648.600
316.095	20.792	839.237	652.053
317.110	21.164	838.840	653.078
318.125	20.180	837.650	648.419
319.139	19.164	836.421	643.613
320.154	19.361	836.245	644.155
321.168	20.134	836.385	647.094
322.183	20.854	836.527	649.834
323.197	21.045	836.009	650.087
324.212	21.131	835.587	650.022
325.227	21.261	834.818	649.848
326.241	21.078	834.196	648.624
327.256	21.122	833.224	647.976
328.270	20.863	833.381	647.078
329.285	20.706	832.278	645.583
330.300	20.568	831.251	644.217
331.314	20.824	831.043	644.950
332.329	21.211	830.788	646.126
333.343	21.236	830.321	645.798
334.358	21.211	829.598	645.086
335.373	21.138	829.894	644.991
336.387	21.665	829.518	646.585
337.402	21.600	829.316	646.131
338.416	21.585	828.702	645.539
339.431	21.586	828.441	645.284
340.446	21.755	828.216	645.672
341.460	21.567	827.739	644.555
342.475	21.541	826.920	643.761
343.489	21.577	826.779	643.726
344.504	21.821	826.392	644.265
345.519	21.913	826.172	644.376
346.533	21.990	825.362	643.968
347.548	22.067	825.028	643.934
348.562	22.118	824.436	643.601
349.577	22.019	823.953	642.805
350.592	22.067	822.976	642.163
351.606	22.056	822.438	641.645
352.621	21.869	821.888	640.475
353.635	21.769	820.614	639.061
354.650	21.193	819.198	635.807
355.665	20.145	818.112	631.092
356.679	20.715	817.559	632.684
357.694	21.117	817.461	634.015
358.708	21.040	816.449	632.893
359.723	21.355	816.710	634.183
360.738	21.724	816.636	635.408
361.752	21.763	816.189	635.146
362.767	22.077	815.546	635.726
363.781	22.282	815.146	636.099
364.796	22.329	814.666	635.839
365.810	22.225	814.321	635.137
366.825	22.416	813.612	635.217
367.840	21.904	813.372	633.126
368.854	21.665	812.015	631.152
369.869	21.685	811.715	630.933
370.883	21.726	811.533	630.885
371.898	21.607	810.995	629.981
372.913	21.632	810.639	629.741
373.927	21.858	809.936	629.951
374.942	22.164	809.655	630.774
375.956	22.044	809.760	630.370
376.971	22.195	809.122	630.359
377.986	22.297	808.644	630.296
379.000	22.259	808.083	629.668
380.015	22.084	807.353	628.417
381.029	22.105	807.174	628.297
382.044	22.475	806.106	628.730
383.059	22.309	805.849	627.884
384.073	22.470	804.831	627.608
385.088	22.316	804.556	626.789
386.102	22.187	803.757	625.653
387.117	22.120	803.281	624.989
388.132	21.696	802.551	622.858
389.146	21.515	801.130	621.057
390.161	21.911	800.967	622.282
391.175	22.000	800.864	622.462
392.190	21.802	800.123	621.128
393.205	20.289	798.620	614.552
394.219	19.028	796.557	608.453
395.234	19.231	796.455	609.042
396.248	20.804	797.758	615.547
397.263	22.127	798.554	620.786
398.278	21.989	798.179	619.950
399.292	21.715	797.573	618.459
400.307	21.902	796.730	618.408
401.321	21.802	796.762	618.027
402.336	22.088	796.606	618.859
403.350	22.518	796.430	620.182
404.365	22.731	796.516	620.946
405.380	23.080	795.757	621.523
406.394	23.038	795.370	621.019
407.409	23.014	794.478	620.183
408.423	22.877	794.142	619.386
409.438	23.019	793.833	619.586
410.453	22.967	793.583	619.157
411.467	22.998	792.901	618.677
412.482	23.074	792.104	618.266
413.496	23.093	792.177	618.335
414.511	23.056	791.728	617.800
415.526	23.074	791.230	617.419
416.540	22.872	790.622	616.187
417.555	22.709	789.750	614.886
418.569	22.653	789.787	614.661
419.584	22.552	789.383	613.942
420.599	22.448	788.608	612.924
421.613	158.207	1364.392	1798.441
422.628	136.971	1448.306	1798.494
