DTS Sentinel unit serial number:	SN413079Multiplexer serial number:	ORYXHardware model number:	OX4-SRSoftware version number:	ORYX F/W v4.00 Oryx Data Collector v3.7.2.0data status	okinstallation	princeton_trtdifferential loss correction	single-endedforward channel	channel 1reverse channel	N/Adate	2019/09/14time	16:58:35forward acquisition time	60.00reverse acquisition time	0.00gamma	496.2192k internal	0.2295k external	0.2295temperature offset calibration	1.0051default loss term (dB/km)	0.3790temperature slope calibration	1.0000multiplexer offset coefficient	1.0000multiplexer slope coefficient	1.0000fibre end	0.00T internal ref (°C)	38.00T ext. ref 1 (°C)	4.99T ext. ref 2 (°C)	33.25length (m)	temperature (°C)	Stokes	anti-Stokes-747.200	254.329	-0.164	-0.287
-746.185	-54.260	0.145	0.067
-745.171	-200.000	-0.042	-0.469
-744.156	-41.634	-0.157	0.082
-743.142	-200.000	0.071	-0.643
-742.127	-48.160	-0.111	0.055
-741.112	-200.000	-0.181	-0.000
-740.098	-27.940	-0.186	0.110
-739.083	565.680	-0.125	0.311
-738.069	61.870	0.219	0.223
-737.054	341.062	-0.126	-0.252
-736.039	-59.138	0.212	-0.093
-735.025	483.314	0.141	0.327
-734.010	-200.000	0.008	-0.249
-732.996	-14.826	-0.269	-0.176
-731.981	199.965	-0.175	0.275
-730.966	409.940	-0.127	0.275
-729.952	-22.817	-0.154	-0.095
-728.937	67.201	0.121	0.126
-727.923	-150.613	-0.331	0.026
-726.908	94.263	-0.132	0.153
-725.894	-200.000	0.019	-0.142
-724.879	13.000	-0.169	0.133
-723.864	-200.000	-0.035	-0.367
-722.850	170.315	-0.141	-0.206
-721.835	468.125	-0.006	0.013
-720.821	178.737	0.093	-0.139
-719.806	-200.000	0.073	0.376
-718.791	-2.666	-0.107	0.077
-717.777	800.000	-0.066	0.245
-716.762	-45.093	-0.303	-0.154
-715.748	800.000	0.120	-0.534
-714.733	-135.642	-0.066	0.008
-713.718	-200.000	-0.019	-0.278
-712.704	-200.000	0.005	-0.075
-711.689	116.412	-0.162	-0.203
-710.675	-22.622	-0.213	-0.131
-709.660	-140.359	-0.357	0.038
-708.645	-200.000	0.008	0.042
-707.631	750.694	-0.023	-0.063
-706.616	-104.945	0.215	0.050
-705.602	94.792	0.199	-0.231
-704.587	139.783	-0.153	-0.205
-703.572	-200.000	0.028	-0.212
-702.558	-200.000	-0.011	0.135
-701.543	-200.000	-0.038	-0.355
-700.529	-200.000	-0.015	0.147
-699.514	800.000	0.093	-0.341
-698.499	104.898	-0.224	0.270
-697.485	56.121	-0.034	-0.033
-696.470	-200.000	-0.026	-0.152
-695.456	344.157	0.170	-0.340
-694.441	-161.622	0.288	0.015
-693.426	-162.549	0.074	0.004
-692.412	-200.000	0.027	0.270
-691.397	-200.000	-0.005	-0.434
-690.383	-68.194	-0.286	-0.113
-689.368	-62.343	-0.269	0.114
-688.354	131.023	0.087	0.114
-687.339	13.432	-0.226	-0.179
-686.324	-33.578	0.214	0.120
-685.310	266.320	0.022	0.040
-684.295	-48.548	0.125	-0.061
-683.281	-77.905	-0.214	-0.075
-682.266	-92.836	-0.208	0.059
-681.251	-200.000	0.003	-0.406
-680.237	-52.665	0.194	0.091
-679.222	195.196	-0.123	-0.190
-678.208	-139.044	0.292	0.032
-677.193	-7.505	-0.099	-0.068
-676.178	156.299	0.216	-0.304
-675.164	-84.625	-0.535	-0.172
-674.149	67.183	-0.223	0.232
-673.135	-67.210	0.122	-0.049
-672.120	278.623	0.125	-0.227
-671.105	115.529	-0.109	-0.136
-670.091	800.000	0.079	0.282
-669.076	-200.000	0.034	-0.254
-668.062	6.718	0.420	-0.319
-667.047	800.000	-0.054	-0.155
-666.032	-40.904	-0.440	-0.232
-665.018	785.353	0.130	-0.363
-664.003	-134.811	0.161	0.020
-662.989	224.527	-0.104	0.172
-661.974	-200.000	0.026	-0.160
-660.959	124.712	0.267	-0.342
-659.945	800.000	0.008	-0.035
-658.930	-165.029	0.154	0.007
-657.916	-40.216	0.179	0.095
-656.901	-35.084	-0.163	-0.091
-655.886	37.490	0.120	0.109
-654.872	-164.131	0.173	-0.008
-653.857	-200.000	-0.068	-0.449
-652.843	-8.890	-0.113	-0.077
-651.828	-30.486	0.045	0.026
-650.814	800.000	0.037	0.151
-649.799	-200.000	-0.021	-0.133
-648.784	-79.024	0.135	0.047
-647.770	-17.288	-0.099	0.063
-646.755	-59.060	0.111	-0.049
-645.741	-200.000	0.003	-0.278
-644.726	-200.000	0.035	-0.230
-643.711	800.000	0.040	0.147
-642.697	182.114	0.084	-0.127
-641.682	-32.688	-0.045	-0.026
-640.668	-12.048	-0.087	-0.058
-639.653	-14.650	-0.392	-0.257
-638.638	-104.017	0.168	0.040
-637.624	-200.000	-0.005	0.308
-636.609	-96.558	0.144	-0.039
-635.595	567.455	0.091	0.226
-634.580	-200.000	0.013	-0.106
-633.565	-200.000	0.023	-0.210
-632.551	562.147	-0.123	-0.302
-631.536	-162.499	-0.268	-0.013
-630.522	-22.993	0.207	-0.127
-629.507	800.000	-0.014	-0.054
-628.492	-4.679	0.068	0.048
-627.478	-128.893	0.371	-0.053
-626.463	-79.491	-0.199	0.068
-625.449	-75.586	-0.249	-0.090
-624.434	21.270	0.045	0.037
-623.419	27.576	0.246	0.210
-622.405	134.329	0.182	0.240
-621.390	50.164	-0.305	0.293
-620.376	587.495	0.076	0.190
-619.361	87.745	0.187	0.210
-618.346	-182.366	-0.419	0.008
-617.332	-56.380	-0.292	-0.132
-616.317	52.941	0.299	0.291
-615.303	800.000	0.019	0.082
-614.288	553.741	-0.083	0.202
-613.273	54.216	0.060	-0.058
-612.259	-47.854	-0.286	0.141
-611.244	22.403	-0.238	-0.198
-610.230	248.888	0.111	-0.192
-609.215	609.071	-0.069	-0.175
-608.201	416.371	0.038	0.083
-607.186	226.216	-0.062	0.102
-606.171	172.959	-0.101	0.147
-605.157	-104.647	0.075	-0.017
-604.142	-137.128	0.190	0.022
-603.128	-36.044	-0.130	-0.071
-602.113	-194.302	-0.201	0.002
-601.098	-120.443	-0.076	0.013
-600.084	54.357	0.169	0.166
-599.069	-97.398	0.264	0.070
-598.055	179.936	0.129	-0.193
-597.040	-200.000	-0.010	0.048
-596.025	-145.917	0.181	0.016
-595.011	-200.000	0.026	0.154
-593.996	703.436	0.065	0.174
-592.982	74.067	-0.097	0.103
-591.967	-0.975	0.135	0.097
-590.952	402.912	0.083	0.177
-589.938	-112.802	-0.145	-0.029
-588.923	203.247	-0.214	-0.337
-587.909	236.941	-0.197	-0.332
-586.894	800.000	0.006	-0.017
-585.879	-200.000	0.069	0.571
-584.865	-200.000	0.018	0.343
-583.850	-87.975	-0.163	-0.050
-582.836	-29.227	0.147	0.085
-581.821	-9.725	-0.361	-0.245
-580.806	-184.732	0.098	-0.002
-579.792	-200.000	-0.003	-0.146
-578.777	489.600	0.077	-0.180
-577.763	126.544	-0.089	-0.115
-576.748	329.366	-0.090	0.176
-575.733	217.599	0.030	-0.049
-574.719	-49.006	0.438	0.213
-573.704	-80.770	-0.129	0.043
-572.690	3.341	-0.121	0.090
-571.675	1.778	-0.304	0.223
-570.661	800.000	-0.068	0.301
-569.646	-200.000	-0.017	-0.328
-568.631	612.488	0.110	-0.280
-567.617	-52.563	0.211	0.099
-566.602	42.518	-0.116	0.107
-565.588	1.983	0.220	-0.161
-564.573	-33.114	0.282	-0.159
-563.558	-135.769	0.188	0.023
-562.544	9.116	-0.303	0.233
-561.529	-52.005	0.322	0.152
-560.515	84.044	-0.101	-0.112
-559.500	-200.000	0.019	-0.339
-558.485	-67.586	0.126	0.050
-557.471	-59.832	0.181	-0.079
-556.456	122.660	0.147	0.187
-555.442	19.885	0.303	-0.248
-554.427	-136.531	-0.103	0.012
-553.412	800.000	-0.041	-0.164
-552.398	-160.342	0.048	-0.003
-551.383	-200.000	-0.031	0.261
-550.369	99.681	-0.028	0.032
-549.354	-166.495	0.342	-0.015
-548.339	-200.000	-0.043	0.227
-547.325	-156.613	-0.340	0.021
-546.310	14.269	0.112	0.089
-545.296	-126.431	-0.286	0.043
-544.281	-200.000	0.065	0.308
-543.266	-165.453	0.297	-0.013
-542.252	-109.238	0.188	0.041
-541.237	-25.544	-0.090	0.054
-540.223	16.737	0.182	-0.146
-539.208	312.836	-0.042	-0.081
-538.193	-200.000	-0.030	0.483
-537.179	-200.000	-0.005	0.333
-536.164	-200.000	0.003	0.079
-535.150	-200.000	0.034	-0.312
-534.135	-90.077	0.357	-0.105
-533.121	519.974	-0.091	-0.217
-532.106	800.000	-0.022	-0.074
-531.091	171.749	-0.072	-0.104
-530.077	-110.163	0.561	0.119
-529.062	47.854	-0.243	-0.230
-528.048	17.793	-0.178	0.144
-527.033	199.278	-0.191	-0.297
-526.018	74.872	0.217	-0.231
-525.004	-119.155	0.114	0.020
-523.989	-200.000	-0.008	0.051
-522.975	-57.451	-0.079	0.035
-521.960	-123.246	0.229	-0.037
-520.945	-138.402	-0.281	-0.031
-519.931	25.365	-0.311	0.262
-518.916	-200.000	-0.045	0.337
-517.902	-177.410	0.374	-0.009
-516.887	-200.000	0.000	0.138
-515.872	128.173	0.307	0.395
-514.858	157.616	-0.052	0.073
-513.843	-102.577	0.189	-0.046
-512.829	130.716	-0.074	0.097
-511.814	-123.270	-0.119	-0.019
-510.799	800.000	-0.041	-0.150
-509.785	-200.000	0.075	0.390
-508.770	-92.984	-0.233	0.066
-507.756	13.242	-0.308	-0.242
-506.741	-145.932	-0.143	-0.013
-505.726	374.206	0.189	-0.391
-504.712	-58.825	-0.292	-0.128
-503.697	-71.989	0.408	-0.154
-502.683	-83.288	0.240	0.078
-501.668	320.527	-0.075	0.144
-500.653	800.000	-0.060	-0.228
-499.639	82.911	-0.261	-0.287
-498.624	-200.000	-0.012	0.065
-497.610	240.803	-0.138	0.233
-496.595	-4.051	0.363	-0.255
-495.581	11.490	0.189	-0.147
-494.566	508.319	0.114	-0.268
-493.551	-78.905	0.194	-0.067
-492.537	-200.000	-0.024	0.360
-491.522	-68.516	0.249	-0.098
-490.508	-66.831	0.144	0.057
-489.493	-200.000	-0.031	-0.215
-488.478	800.000	0.062	0.244
-487.464	675.256	0.053	-0.140
-486.449	25.113	-0.204	-0.172
-485.435	217.450	-0.090	-0.145
-484.420	211.235	-0.150	-0.239
-483.405	-94.921	-0.192	0.053
-482.391	208.167	0.262	0.415
-481.376	543.508	0.048	0.115
-480.362	-67.880	-0.143	-0.057
-479.347	-58.254	0.034	0.015
-478.332	-81.568	-0.090	0.030
-477.318	-9.260	-0.303	-0.205
-476.303	-37.040	-0.231	-0.125
-475.289	70.422	0.099	-0.103
-474.274	48.763	0.015	-0.015
-473.259	800.000	-0.048	-0.164
-472.245	391.887	0.095	0.199
-471.230	-90.090	0.357	-0.105
-470.216	17.500	-0.126	0.101
-469.201	15.392	-0.360	0.285
-468.186	114.376	0.038	0.047
-467.172	50.160	-0.129	-0.123
-466.157	141.029	-0.111	0.148
-465.143	-93.239	0.262	0.074
-464.128	49.399	0.215	-0.204
-463.113	-130.636	-0.035	-0.005
-462.099	-146.874	0.222	0.019
-461.084	-200.000	-0.002	-0.111
-460.070	-68.355	0.075	0.030
-459.055	-170.140	-0.355	-0.013
-458.040	33.825	-0.248	-0.218
-457.026	-27.658	0.129	0.076
-456.011	280.515	0.096	0.173
-454.997	-200.000	0.041	0.330
-453.982	-38.290	0.480	-0.257
-452.968	-41.860	0.290	0.150
-451.953	-37.874	-0.211	-0.114
-450.938	56.573	0.075	-0.074
-449.924	-200.000	-0.066	0.414
-448.909	138.516	-0.122	0.161
-447.895	800.000	-0.049	0.143
-446.880	-141.064	0.188	0.019
-445.865	-200.000	-0.010	-0.064
-444.851	-106.936	0.058	0.013
-443.836	-67.167	-0.209	-0.083
-442.822	107.849	0.115	-0.139
-441.807	-85.719	-0.477	-0.150
-440.792	18.819	-0.096	-0.077
-439.778	-43.248	-0.160	0.082
-438.763	-83.755	0.260	-0.084
-437.749	-200.000	0.015	0.551
-436.734	60.769	0.201	0.201
-435.719	-148.543	-0.164	0.014
-434.705	110.263	0.115	0.139
-433.690	118.058	0.153	-0.191
-432.676	-200.000	0.043	-0.275
-431.661	58.461	0.098	0.097
-430.646	-175.703	-0.533	-0.015
-429.632	-178.790	-0.283	-0.007
-428.617	151.997	-0.110	0.151
-427.603	36.747	-0.084	-0.075
-426.588	-58.216	-0.475	-0.209
-425.573	137.812	-0.043	-0.057
-424.559	-190.021	0.109	0.001
-423.544	126.895	0.167	-0.214
-422.530	-200.000	0.017	-0.116
-421.515	-19.508	0.104	-0.065
-420.500	-42.675	-0.118	0.060
-419.486	249.394	0.176	-0.301
-418.471	-80.176	0.206	0.070
-417.457	-200.000	-0.092	-0.501
-416.442	90.022	-0.393	-0.443
-415.428	-200.000	-0.033	-0.179
-414.413	-5.104	-0.111	0.077
-413.398	-200.000	-0.006	0.048
-412.384	-78.032	0.196	0.068
-411.369	-40.356	0.167	-0.088
-410.355	132.294	0.102	-0.132
-409.340	75.034	0.064	0.068
-408.325	58.309	-0.114	-0.113
-407.311	-27.573	0.287	-0.168
-406.296	-200.000	0.013	-0.170
-405.282	-56.275	0.189	0.085
-404.267	-51.609	-0.300	-0.141
-403.252	800.000	-0.052	-0.198
-402.238	57.163	-0.103	-0.102
-401.223	-9.084	0.037	-0.025
-400.209	-200.000	0.045	-0.208
-399.194	22.642	-0.464	-0.383
-398.179	-200.000	0.012	-0.260
-397.165	289.761	0.141	0.258
-396.150	-200.000	0.063	-0.287
-395.136	800.000	0.065	-0.185
-394.121	316.079	0.067	-0.128
-393.106	-200.000	-0.024	-0.176
-392.092	19.529	-0.221	0.179
-391.077	177.114	0.004	-0.005
-390.063	150.093	0.273	-0.374
-389.048	103.107	-0.327	-0.386
-388.033	-112.322	-0.286	-0.058
-387.019	-200.000	0.052	-0.275
-386.004	800.000	-0.118	0.428
-384.990	758.866	-0.095	0.260
-383.975	800.000	0.050	0.218
-382.960	-146.592	0.041	0.004
-381.946	-200.000	0.056	0.291
-380.931	-120.979	0.245	0.041
-379.917	-200.000	0.392	-0.002
-378.902	473.224	0.051	0.117
-377.888	-90.200	0.184	0.054
-376.873	30.587	-0.210	-0.181
-375.858	49.291	-0.338	-0.320
-374.844	-4.434	-0.293	-0.204
-373.829	167.974	-0.121	0.173
-372.815	48.826	-0.135	0.128
-371.800	269.479	0.215	-0.380
-370.785	318.639	-0.111	-0.211
-369.771	128.091	-0.234	0.299
-368.756	46.002	0.082	-0.076
-367.742	-46.972	-0.266	0.131
-366.727	123.694	0.320	0.404
-365.712	-200.000	0.040	0.210
-364.698	362.108	0.155	0.313
-363.683	-151.438	-0.140	-0.010
-362.669	-111.779	0.260	0.053
-361.654	17.809	0.140	-0.113
-360.639	-141.337	-0.135	0.014
-359.625	-177.208	0.277	-0.007
-358.610	17.960	0.282	0.226
-357.596	-200.000	-0.050	0.244
-356.581	-79.685	-0.118	-0.040
-355.566	-95.308	-0.376	-0.102
-354.552	328.610	0.020	0.039
-353.537	800.000	0.082	0.231
-352.523	136.911	-0.172	0.226
-351.508	435.599	-0.135	0.296
-350.493	356.232	0.130	-0.262
-349.479	41.584	0.140	-0.128
-348.464	800.000	-0.066	-0.240
-347.450	800.000	-0.056	-0.184
-346.435	-200.000	0.082	-0.488
-345.420	-145.334	-0.285	0.026
-344.406	-165.732	0.188	0.008
-343.391	-200.000	-0.018	0.180
-342.377	-177.713	-0.157	-0.004
-341.362	-38.873	0.272	0.144
-340.348	-118.209	0.208	-0.037
-339.333	800.000	0.061	0.204
-338.318	364.280	-0.160	0.325
-337.304	-3.080	-0.171	0.120
-336.289	138.414	0.141	0.187
-335.275	-46.758	-0.220	0.109
-334.260	-45.485	-0.132	0.066
-333.245	121.352	0.220	-0.275
-332.231	260.600	-0.205	-0.357
-331.216	-9.051	-0.498	-0.336
-330.202	165.540	0.139	-0.198
-329.187	54.244	-0.267	-0.258
-328.172	-142.924	0.174	0.017
-327.158	0.535	0.187	-0.134
-326.143	20.355	0.181	0.147
-325.129	39.158	-0.058	-0.052
-324.114	171.915	0.208	0.301
-323.099	513.765	-0.190	0.446
-322.085	-9.138	-0.071	-0.048
-321.070	-67.723	0.138	0.055
-320.056	-62.137	-0.191	0.080
-319.041	118.425	0.274	-0.340
-318.026	651.975	-0.027	0.069
-317.012	-71.705	0.136	-0.051
-315.997	800.000	0.025	0.104
-314.983	-61.095	0.238	-0.101
-313.968	-200.000	0.011	-0.514
-312.953	-79.376	0.114	-0.039
-311.939	109.427	0.158	0.190
-310.924	272.521	0.092	0.163
-309.910	-4.332	0.033	-0.023
-308.895	800.000	-0.067	-0.264
-307.880	-3.436	-0.132	0.092
-306.866	225.637	-0.034	-0.055
-305.851	-107.187	-0.293	-0.065
-304.837	257.147	0.245	0.423
-303.822	-53.759	0.378	-0.173
-302.807	-200.000	-0.078	0.450
-301.793	-200.000	-0.015	0.246
-300.778	-78.266	0.118	-0.041
-299.764	800.000	0.047	0.174
-298.749	-18.527	0.095	-0.060
-297.735	-40.699	0.292	-0.152
-296.720	800.000	0.109	0.428
-295.705	-91.871	0.267	0.076
-294.691	800.000	0.030	-0.093
-293.676	-200.000	-0.056	-0.378
-292.662	-191.926	-0.026	-0.000
-291.647	786.616	-0.073	-0.202
-290.632	-116.975	0.268	0.049
-289.618	93.521	0.109	0.124
-288.603	-121.345	0.315	-0.053
-287.589	-73.524	0.226	0.083
-286.574	46.887	0.113	-0.105
-285.559	800.000	-0.082	0.298
-284.545	-132.704	0.265	-0.034
-283.530	-18.613	-0.154	0.096
-282.516	349.840	0.034	-0.067
-281.501	426.883	-0.146	0.315
-280.486	18.259	-0.211	0.169
-279.472	800.000	-0.043	0.165
-278.457	4.143	-0.108	0.080
-277.443	95.789	0.409	0.469
-276.428	-200.000	-0.043	-0.307
-275.413	583.651	0.069	-0.170
-274.399	21.429	-0.282	-0.230
-273.384	314.354	-0.062	0.116
-272.370	-200.000	-0.044	0.382
-271.355	-200.000	0.039	0.468
-270.340	800.000	-0.039	-0.161
-269.326	139.543	0.065	-0.086
-268.311	-86.971	-0.131	-0.040
-267.297	-2.822	-0.363	0.254
-266.282	384.656	-0.053	-0.109
-265.267	3.983	0.455	-0.334
-264.253	-172.017	0.218	-0.007
-263.238	185.411	0.124	0.184
-262.224	-200.000	-0.028	-0.235
-261.209	-99.562	-0.130	-0.033
-260.195	270.243	0.021	0.037
-259.180	188.991	0.048	-0.072
-258.165	-140.751	-0.169	0.018
-257.151	-25.697	-0.085	0.050
-256.136	-194.964	-0.275	0.002
-255.122	-34.261	-0.090	0.050
-254.107	-70.332	-0.110	0.042
-253.092	-149.083	0.070	0.006
-252.078	-85.703	-0.195	-0.061
-251.063	133.416	0.089	-0.115
-250.049	-200.000	0.045	-0.197
-249.034	800.000	-0.050	-0.177
-248.019	800.000	-0.067	0.240
-247.005	-88.349	-0.120	-0.036
-245.990	-200.000	-0.007	0.228
-244.976	-51.396	0.037	0.018
-243.961	-24.945	-0.321	0.191
-242.946	-97.565	-0.331	-0.086
-241.932	-15.696	0.209	0.133
-240.917	-181.909	0.286	-0.005
-239.903	-200.000	0.053	-0.261
-238.888	-200.000	-0.002	-0.208
-237.873	321.628	0.165	-0.315
-236.859	-139.648	0.116	0.012
-235.844	-187.087	-0.089	0.001
-234.830	800.000	-0.076	0.273
-233.815	-200.000	-0.026	0.302
-232.800	-200.000	0.020	0.181
-231.786	-200.000	0.081	-0.508
-230.771	52.172	-0.176	-0.168
-229.757	-88.531	0.233	-0.070
-228.742	-78.744	0.134	-0.046
-227.727	-200.000	-0.041	0.425
-226.713	-116.748	0.316	0.058
-225.698	-200.000	-0.034	0.206
-224.684	114.266	0.191	-0.233
-223.669	-138.172	0.297	0.033
-222.655	-23.450	-0.096	-0.058
-221.640	87.103	-0.114	-0.126
-220.625	-158.550	-0.152	0.009
-219.611	195.803	-0.032	0.049
-218.596	-74.364	0.254	-0.092
-217.582	234.478	0.070	-0.115
-216.567	-200.000	0.000	0.328
-215.552	81.697	0.144	-0.156
-214.538	63.021	0.092	-0.092
-213.523	-4.163	0.051	-0.035
-212.509	-13.366	-0.158	-0.103
-211.494	1.046	-0.032	0.023
-210.479	-163.766	0.354	0.017
-209.465	103.896	0.247	-0.290
-208.450	-53.382	-0.134	-0.061
-207.436	-73.402	0.150	0.055
-206.421	-50.100	0.221	0.105
-205.406	248.440	-0.029	-0.049
-204.392	245.452	-0.134	0.225
-203.377	-2.627	-0.183	0.128
-202.363	526.791	-0.059	0.139
-201.348	-6.488	-0.228	-0.156
-200.333	-200.000	-0.023	-0.167
-199.319	34.066	0.085	-0.074
-198.304	-0.056	-0.249	0.178
-197.290	-97.440	0.252	0.065
-196.275	424.796	0.023	0.050
-195.260	67.840	-0.320	-0.327
-194.246	343.757	0.019	0.038
-193.231	-82.666	-0.382	0.124
-192.217	-59.889	0.231	0.099
-191.202	288.609	0.012	-0.021
-190.187	314.144	-0.217	0.409
-189.173	4.522	-0.164	-0.120
-188.158	-133.994	0.268	-0.033
-187.144	800.000	0.038	0.141
-186.129	-127.921	-0.169	-0.024
-185.114	-200.000	-0.300	-0.001
-184.100	547.511	0.061	-0.146
-183.085	800.000	0.027	0.082
-182.071	384.962	-0.115	-0.237
-181.056	338.413	0.088	-0.172
-180.042	639.233	-0.061	-0.156
-179.027	157.630	-0.141	-0.195
-178.012	-72.478	-0.227	-0.084
-176.998	-91.486	0.130	-0.037
-175.983	67.633	-0.089	-0.091
-174.969	361.368	-0.038	-0.077
-173.954	-200.000	-0.018	0.159
-172.939	6.801	-0.166	0.123
-171.925	-200.000	-0.034	0.184
-170.910	259.318	-0.087	-0.151
-169.896	140.607	-0.122	-0.161
-168.881	-134.968	0.050	-0.006
-167.866	188.331	0.008	-0.012
-166.852	68.931	-0.235	0.242
-165.837	800.000	0.101	0.329
-164.823	800.000	0.078	0.241
-163.808	49.984	-0.189	0.178
-162.793	-101.436	-0.156	0.038
-161.779	800.000	0.042	-0.150
-160.764	-83.422	0.175	0.056
-159.750	114.831	-0.123	0.150
-158.735	-200.000	-0.029	-0.367
-157.720	-152.073	-0.294	-0.021
-156.706	248.967	0.054	-0.091
-155.691	342.228	0.056	0.109
-154.677	800.000	-0.024	-0.093
-153.662	765.985	-0.086	0.235
-152.647	-86.794	-0.204	-0.062
-151.633	-90.499	-0.471	0.136
-150.618	-200.000	-0.011	-0.328
-149.604	-30.334	-0.340	-0.193
-148.589	-200.000	-0.004	-0.091
-147.574	800.000	0.062	0.223
-146.560	-125.578	0.149	-0.023
-145.545	-200.000	-0.028	-0.410
-144.531	-53.760	0.097	0.044
-143.516	140.815	-0.095	0.125
-142.502	7.421	-0.271	-0.202
-141.487	800.000	0.033	-0.105
-140.472	-200.000	0.052	-0.338
-139.458	-107.948	0.183	-0.040
-138.443	231.538	-0.101	0.165
-137.429	35.975	-0.285	0.250
-136.414	-119.825	0.119	0.021
-135.399	62.599	0.087	-0.087
-134.385	116.573	-0.145	-0.178
-133.370	73.303	-0.200	-0.209
-132.356	11.822	-0.308	0.236
-131.341	800.000	-0.030	0.114
-130.326	-107.033	-0.249	-0.055
-129.312	-54.134	0.221	-0.100
-128.297	9.004	0.189	-0.143
-127.283	-200.000	-0.004	-0.132
-126.268	34.068	0.261	-0.227
-125.253	-5.504	0.094	0.064
-124.239	-200.000	-0.036	0.245
-123.224	-28.104	0.089	0.051
-122.210	-45.782	0.358	0.177
-121.195	800.000	0.063	0.206
-120.180	36.217	-0.132	0.116
-119.166	-200.000	0.018	-0.230
-118.151	-148.446	-0.205	-0.017
-117.137	-200.000	-0.062	0.334
-116.122	-3.257	-0.166	-0.115
-115.107	-113.380	0.175	-0.034
-114.093	-200.000	0.006	0.206
-113.078	-150.447	0.401	-0.031
-112.064	-19.439	-0.038	0.023
-111.049	-73.039	0.070	-0.026
-110.034	55.294	-0.065	0.063
-109.020	14.681	-0.143	-0.112
-108.005	-200.000	0.051	0.475
-106.991	800.000	-0.084	-0.267
-105.976	-200.000	0.003	0.304
-104.962	-128.598	0.521	0.073
-103.947	800.000	-0.089	-0.320
-102.932	154.647	0.149	0.203
-101.918	523.408	0.128	0.299
-100.903	-61.876	0.262	0.109
-99.889	-68.672	-0.128	0.049
-98.874	-200.000	-0.012	-0.086
-97.859	-109.396	0.128	0.027
-96.845	-92.136	-0.126	-0.035
-95.830	-65.074	-0.152	0.061
-94.816	83.518	-0.091	-0.099
-93.801	-80.430	-0.483	-0.161
-92.786	-14.166	0.306	-0.197
-91.772	61.854	0.114	-0.113
-90.757	-152.519	0.189	-0.013
-89.743	-128.109	0.138	0.020
-88.728	159.941	-0.169	0.234
-87.713	-24.209	0.314	0.187
-86.699	184.518	0.075	0.111
-85.684	-200.000	0.071	0.384
-84.670	-162.239	0.317	0.016
-83.655	418.799	-0.070	-0.150
-82.640	48.210	-0.137	0.128
-81.626	-200.000	-0.020	0.160
-80.611	315.307	-0.159	0.299
-79.597	-102.151	-0.187	-0.045
-78.582	-31.593	0.388	0.217
-77.567	-49.616	-0.330	0.156
-76.553	800.000	0.060	-0.202
-75.538	182.949	0.103	0.151
-74.524	800.000	-0.022	0.079
-73.509	-200.000	-0.020	0.202
-72.494	-83.399	-0.268	0.086
-71.480	96.719	0.095	-0.109
-70.465	-120.730	0.202	-0.034
-69.451	800.000	0.068	-0.281
-68.436	-200.000	0.062	0.388
-67.422	10.538	0.091	0.069
-66.407	-122.025	-0.152	-0.025
-65.392	75.331	-0.194	-0.204
-64.378	-32.022	0.246	-0.137
-63.363	222.744	0.177	-0.283
-62.349	-200.000	-0.043	0.315
-61.334	-33.707	-0.817	-0.449
-60.319	47.174	0.406	0.376
-59.305	-200.000	-0.153	-1.018
-58.290	800.000	0.222	0.842
-57.276	-200.000	0.362	1.689
-56.261	-200.000	85.771	496.693
-55.246	527.514	1383.391	3246.023
-54.232	183.706	2598.165	3823.847
-53.217	118.376	2220.768	2726.526
-52.203	48.612	1670.155	1557.773
-51.188	41.245	1401.975	1261.175
-50.173	38.039	1357.542	1201.460
-49.159	56.485	1400.127	1354.750
-48.144	61.354	1419.244	1403.617
-47.130	41.846	1376.792	1242.059
-46.115	38.238	1358.860	1203.662
-45.100	37.862	1354.657	1197.583
-44.086	37.811	1351.947	1194.826
-43.071	37.883	1349.918	1193.427
-42.057	37.703	1347.543	1190.183
-41.042	37.800	1346.152	1189.494
-40.027	37.894	1344.194	1188.290
-39.013	37.930	1342.159	1186.663
-37.998	37.935	1340.581	1185.255
-36.984	37.967	1338.832	1183.857
-35.969	37.962	1336.829	1182.006
-34.954	38.045	1335.104	1180.938
-33.940	37.966	1333.925	1179.368
-32.925	38.093	1332.211	1178.573
-31.911	38.212	1330.593	1177.813
-30.896	38.099	1329.694	1176.290
-29.881	38.007	1328.340	1174.488
-28.867	38.115	1326.941	1173.857
-27.852	38.100	1325.687	1172.609
-26.838	38.129	1323.989	1171.237
-25.823	38.118	1322.968	1170.221
-24.809	38.060	1321.385	1168.428
-23.794	38.113	1319.932	1167.414
-22.779	38.134	1318.184	1165.947
-21.765	38.159	1317.066	1165.062
-20.750	38.084	1315.723	1163.378
-19.736	37.974	1314.729	1161.797
-18.721	37.961	1313.276	1160.389
-17.706	37.965	1311.739	1159.009
-16.692	37.892	1310.898	1157.790
-15.677	38.053	1309.619	1157.566
-14.663	38.076	1308.408	1156.585
-13.648	37.850	1307.516	1154.413
-12.633	37.844	1306.585	1153.513
-11.619	37.878	1305.924	1153.085
-10.604	37.921	1304.951	1152.433
-9.590	37.951	1304.037	1151.757
-8.575	37.944	1302.982	1150.739
-7.560	37.871	1301.993	1149.389
-6.546	37.977	1301.105	1149.181
-5.531	37.860	1300.183	1147.637
-4.517	37.825	1299.790	1147.035
-3.502	37.973	1298.253	1146.506
-2.487	37.940	1297.358	1145.477
-1.473	37.877	1293.234	1141.419
-0.458	36.667	1278.091	1120.999
0.556	32.921	1257.370	1077.570
1.571	28.652	1260.740	1055.874
2.586	27.102	1275.283	1058.927
3.600	25.632	1263.516	1040.572
4.615	19.134	1187.968	942.803
5.629	9.592	1108.169	830.428
6.644	5.165	1085.381	790.891
7.659	4.837	1082.712	787.217
8.673	4.955	1081.299	786.716
9.688	5.003	1080.157	786.057
10.702	5.179	1078.942	785.991
11.717	10.379	1086.618	817.819
12.731	18.671	1098.050	868.484
13.746	20.918	1100.099	881.408
14.761	19.372	1097.336	871.311
15.775	18.246	1095.198	863.852
16.790	17.135	1093.158	856.565
17.804	16.361	1091.416	851.228
18.819	16.212	1089.664	849.038
19.834	15.885	1088.820	846.657
20.848	15.492	1088.512	844.367
21.863	15.460	1087.256	843.157
22.877	15.254	1086.904	841.777
23.892	15.154	1086.141	840.607
24.907	15.205	1085.533	840.320
25.921	15.298	1084.190	839.673
26.936	15.392	1082.261	838.572
27.950	15.324	1081.202	837.338
28.965	15.382	1080.107	836.705
29.980	15.511	1078.323	835.893
30.994	15.483	1077.678	835.180
32.009	15.412	1077.048	834.264
33.023	15.484	1075.282	833.182
34.038	15.375	1074.199	831.726
35.053	15.411	1073.253	831.100
36.067	15.522	1072.354	830.879
37.082	15.291	1072.406	829.704
38.096	15.461	1071.357	829.656
39.111	15.423	1070.599	828.809
40.126	15.307	1068.981	826.914
41.140	15.214	1067.078	824.910
42.155	15.147	1066.346	823.939
43.169	15.092	1065.004	822.563
44.184	15.166	1063.659	821.811
45.199	15.161	1062.899	821.128
46.213	15.204	1062.079	820.633
47.228	15.505	1060.412	820.741
48.242	15.421	1059.752	819.749
49.257	15.258	1059.109	818.385
50.271	15.354	1057.895	817.842
51.286	15.337	1057.271	817.205
52.301	15.408	1056.095	816.570
53.315	15.354	1054.953	815.351
54.330	15.243	1053.840	813.880
55.344	15.339	1052.892	813.538
56.359	15.239	1052.329	812.551
57.374	15.125	1051.351	811.168
58.388	15.224	1050.251	810.728
59.403	15.117	1049.455	809.525
60.417	15.009	1049.044	808.616
61.432	14.960	1048.267	807.706
62.447	15.082	1046.896	807.165
63.461	14.904	1046.831	806.189
64.476	14.958	1045.541	805.382
65.490	14.981	1044.885	804.918
66.505	14.871	1044.048	803.674
67.520	15.169	1043.021	804.242
68.534	15.131	1042.321	803.449
69.549	15.058	1041.643	802.505
70.563	15.048	1040.850	801.777
71.578	14.885	1040.048	800.308
72.593	14.881	1039.408	799.723
73.607	15.003	1038.424	799.477
74.622	14.951	1038.087	798.902
75.636	14.935	1037.840	798.561
76.651	14.895	1036.593	797.341
77.666	14.969	1035.631	796.886
78.680	14.949	1035.164	796.361
79.695	14.956	1034.399	795.733
80.709	15.046	1033.862	795.675
81.724	15.096	1033.327	795.432
82.739	15.128	1032.671	795.010
83.753	15.244	1031.972	794.949
84.768	15.441	1030.896	794.983
85.782	15.565	1030.203	794.970
86.797	15.491	1029.124	793.716
87.812	15.328	1028.467	792.366
88.826	15.287	1027.113	791.059
89.841	15.254	1026.788	790.587
90.855	15.496	1025.297	790.506
91.870	15.437	1024.809	789.781
92.884	15.604	1023.558	789.532
93.899	15.627	1022.674	788.892
94.914	15.627	1021.915	788.233
95.928	15.648	1021.029	787.582
96.943	15.440	1020.252	785.937
97.957	15.455	1019.528	785.378
98.972	15.373	1018.773	784.347
99.987	15.589	1017.276	784.133
101.001	15.505	1016.387	782.986
102.016	15.423	1015.639	781.956
103.030	15.542	1015.018	781.965
104.045	15.489	1014.173	780.999
105.060	15.410	1013.223	779.832
106.074	15.311	1012.073	778.414
107.089	15.150	1010.925	776.716
108.103	15.133	1010.679	776.381
109.118	15.152	1009.295	775.340
110.133	15.004	1008.671	774.106
111.147	15.063	1007.728	773.587
112.162	15.209	1006.712	773.411
113.176	15.245	1006.037	772.990
114.191	15.281	1005.507	772.679
115.206	15.241	1004.523	771.672
116.220	15.171	1003.612	770.583
117.235	15.204	1002.787	770.032
118.249	15.208	1001.655	769.113
119.264	15.212	1000.977	768.543
120.279	15.182	999.985	767.576
121.293	15.212	999.108	766.970
122.308	14.964	998.471	765.279
123.322	15.196	997.390	765.446
124.337	15.024	996.612	763.992
125.352	15.073	995.454	763.263
126.366	15.056	994.508	762.393
127.381	15.093	992.904	761.265
128.395	15.100	992.233	760.711
129.410	15.063	991.759	760.113
130.424	15.198	990.678	759.831
131.439	15.275	990.238	759.778
132.454	15.397	988.673	759.062
133.468	15.299	988.303	758.264
134.483	15.287	987.786	757.745
135.497	15.356	986.615	757.095
136.512	15.367	985.710	756.382
137.527	15.444	984.528	755.756
138.541	15.383	984.487	755.380
139.556	15.345	983.807	754.621
140.570	15.596	982.828	754.933
141.585	15.629	981.991	754.372
142.600	15.619	980.937	753.450
143.614	15.716	980.469	753.457
144.629	15.697	979.634	752.664
145.643	15.542	978.721	751.204
146.658	15.466	977.554	749.901
147.673	15.464	976.424	748.961
148.687	15.444	975.654	748.213
149.702	15.448	974.664	747.405
150.716	15.314	974.196	746.386
151.731	15.377	973.119	745.772
152.746	15.431	972.770	745.680
153.760	15.440	972.033	745.089
154.775	15.474	971.482	744.750
155.789	15.572	970.609	744.451
156.804	15.535	970.187	743.898
157.819	15.693	969.060	743.664
158.833	15.564	969.083	743.046
159.848	15.645	968.030	742.530
160.862	15.707	967.095	742.021
161.877	15.647	965.595	740.544
162.892	15.410	965.127	739.072
163.906	15.373	964.007	737.988
164.921	15.500	962.824	737.575
165.935	15.508	962.256	737.111
166.950	15.525	961.326	736.407
167.964	15.414	960.843	735.484
168.979	15.459	959.497	734.587
169.994	15.507	958.928	734.295
171.008	15.558	958.117	733.832
172.023	15.711	957.245	733.767
173.037	15.772	956.627	733.495
174.052	15.689	955.963	732.558
175.067	15.592	955.285	731.551
176.081	15.497	954.510	730.483
177.096	15.422	954.584	730.149
178.110	15.669	953.515	730.337
179.125	15.513	953.021	729.216
180.140	15.679	952.395	729.392
181.154	15.657	952.080	728.991
182.169	15.796	951.232	728.880
183.183	15.755	950.662	728.204
184.198	15.785	949.985	727.749
185.213	15.787	949.253	727.135
186.227	15.871	948.241	726.655
187.242	15.990	947.593	726.607
188.256	16.036	947.735	726.853
189.271	15.959	946.620	725.598
190.286	15.764	945.573	723.893
191.300	15.386	945.152	721.882
192.315	15.366	944.536	721.261
193.329	15.376	943.992	720.825
194.344	15.507	943.208	720.726
195.359	15.671	942.431	720.773
196.373	15.729	941.918	720.563
197.388	15.804	941.674	720.633
198.402	15.872	941.453	720.693
199.417	16.129	940.461	720.967
200.432	16.126	939.961	720.510
201.446	16.317	939.196	720.672
202.461	16.232	938.715	719.879
203.475	16.178	938.370	719.320
204.490	16.044	937.355	717.907
205.504	16.013	936.175	716.809
206.519	15.839	935.952	715.831
207.534	16.120	934.726	716.024
208.548	16.040	934.168	715.194
209.563	16.001	933.780	714.668
210.577	16.106	932.909	714.385
211.592	16.169	932.411	714.206
212.607	16.132	931.853	713.559
213.621	16.235	930.736	713.077
214.636	16.044	930.426	711.971
215.650	16.153	929.181	711.412
216.665	16.285	928.402	711.311
217.680	16.306	927.782	710.862
218.694	16.339	927.374	710.624
219.709	16.334	926.775	710.083
220.723	16.382	925.872	709.527
221.738	16.303	925.183	708.606
222.753	16.255	924.606	707.901
223.767	16.365	924.203	707.991
224.782	16.414	923.655	707.711
225.796	16.345	923.193	707.009
226.811	16.471	922.658	707.061
227.826	16.310	921.489	705.430
228.840	16.175	920.774	704.259
229.855	16.352	919.952	704.303
230.869	16.349	919.062	703.549
231.884	16.360	918.254	702.912
232.899	16.289	917.740	702.164
233.913	16.202	917.277	701.384
234.928	16.217	916.382	700.700
235.942	16.171	915.726	699.946
236.957	16.255	915.126	699.774
237.972	16.244	914.616	699.275
238.986	16.279	913.923	698.831
240.001	16.270	913.113	698.113
241.015	16.321	912.441	697.746
242.030	16.348	911.943	697.414
243.045	16.385	911.610	697.251
244.059	16.442	910.828	696.825
245.074	16.444	910.249	696.331
246.088	16.457	909.687	695.890
247.103	16.473	908.824	695.239
248.117	16.749	908.371	695.961
249.132	16.806	908.005	695.855
250.147	16.910	907.384	695.745
251.161	17.024	906.486	695.463
252.176	17.072	906.160	695.345
253.190	16.844	905.659	693.967
254.205	17.022	905.071	694.184
255.220	17.004	904.078	693.286
256.234	17.043	903.340	692.819
257.249	17.103	902.547	692.393
258.263	17.020	902.171	691.705
259.278	17.038	901.449	691.163
260.293	17.020	900.987	690.677
261.307	17.113	900.064	690.286
262.322	17.137	899.905	690.200
263.336	17.116	898.829	689.226
264.351	17.065	898.076	688.383
265.366	17.378	897.475	689.131
266.380	17.238	896.677	687.891
267.395	17.278	896.124	687.565
268.409	17.133	895.323	686.304
269.424	17.046	894.684	685.403
270.439	16.982	893.975	684.540
271.453	17.227	892.924	684.660
272.468	16.986	892.718	683.471
273.482	17.067	891.973	683.169
274.497	17.049	891.606	682.754
275.512	17.249	890.881	682.943
276.526	17.157	890.617	682.309
277.541	17.120	889.987	681.620
278.555	17.103	889.618	681.207
279.570	17.302	889.155	681.590
280.585	17.407	888.066	681.117
281.599	17.262	887.278	679.869
282.614	17.123	886.719	678.825
283.628	17.082	886.192	678.198
284.643	17.128	885.693	677.942
285.657	17.114	885.082	677.360
286.672	17.119	884.302	676.722
287.687	17.243	883.410	676.474
288.701	17.420	882.798	676.649
289.716	17.375	882.424	676.122
290.730	17.243	881.774	675.041
291.745	17.308	881.110	674.732
292.760	17.346	880.696	674.505
293.774	17.442	880.006	674.298
294.789	17.408	879.437	673.666
295.803	17.523	878.299	673.188
296.818	17.198	878.275	671.825
297.833	17.466	877.202	672.005
298.847	17.580	876.356	671.748
299.862	17.546	875.791	671.121
300.876	17.438	875.459	670.380
301.891	17.523	874.690	670.068
302.906	17.657	874.486	670.379
303.920	17.688	873.901	669.993
304.935	17.761	873.034	669.556
305.949	17.714	872.527	668.923
306.964	17.712	871.653	668.186
307.979	17.655	871.566	667.835
308.993	17.594	871.045	667.141
310.008	17.878	870.105	667.472
311.022	17.690	869.822	666.460
312.037	17.728	869.102	665.997
313.052	17.520	868.638	664.770
314.066	17.513	867.882	664.107
315.081	17.514	867.280	663.592
316.095	17.524	866.764	663.175
317.110	17.569	866.182	662.847
318.125	17.522	865.794	662.308
319.139	17.533	865.431	662.017
320.154	17.579	864.772	661.633
321.168	17.589	863.983	661.008
322.183	17.819	863.630	661.573
323.197	17.714	862.891	660.540
324.212	17.790	862.504	660.480
325.227	17.640	861.990	659.448
326.241	17.632	861.501	658.985
327.256	17.643	860.781	658.416
328.270	17.642	860.139	657.865
329.285	17.692	859.650	657.625
330.300	17.720	859.059	657.221
331.314	17.835	858.789	657.402
332.329	17.725	858.473	656.676
333.343	17.876	857.669	656.584
334.358	17.892	856.737	655.874
335.373	17.820	856.771	655.568
336.387	17.786	856.842	655.433
337.402	17.944	856.440	655.672
338.416	18.136	855.876	655.919
339.431	18.126	855.692	655.684
340.446	18.082	855.410	655.238
341.460	18.246	854.773	655.323
342.475	18.111	854.428	654.481
343.489	18.314	853.583	654.552
344.504	18.349	853.060	654.230
345.519	18.395	852.901	654.223
346.533	18.331	852.010	653.239
347.548	18.163	851.336	652.026
348.562	18.195	850.929	651.778
349.577	18.136	850.363	651.060
350.592	18.139	849.567	650.405
351.606	18.127	848.869	649.765
352.621	18.053	848.541	649.179
353.635	18.032	847.673	648.379
354.650	18.029	847.205	647.949
355.665	18.208	846.245	647.836
356.679	18.152	845.808	647.232
357.694	18.279	845.169	647.168
358.708	18.181	844.683	646.365
359.723	18.221	844.020	645.953
360.738	18.214	843.628	645.570
361.752	18.394	842.927	645.653
362.767	18.497	842.264	645.476
363.781	18.662	841.791	645.680
364.796	18.601	841.726	645.343
365.810	18.487	841.421	644.623
366.825	18.461	841.089	644.215
367.840	18.648	840.140	644.130
368.854	18.657	839.404	643.542
369.869	18.586	839.045	642.945
370.883	18.691	838.725	643.036
371.898	18.692	838.637	642.917
372.913	18.650	837.870	642.115
373.927	18.518	837.648	641.395
374.942	18.761	837.211	641.909
375.956	18.655	836.571	640.968
376.971	18.911	835.825	641.294
377.986	18.759	835.802	640.651
379.000	18.892	835.153	640.594
380.015	18.767	834.937	639.906
381.029	18.765	834.067	639.177
382.044	19.044	833.117	639.427
383.059	18.940	832.557	638.553
384.073	18.789	832.335	637.767
385.088	18.765	831.639	637.090
386.102	18.498	831.605	636.016
387.117	18.687	830.397	635.737
388.132	18.803	829.625	635.520
389.146	18.935	829.045	635.506
390.161	18.805	829.187	635.078
391.175	18.966	828.313	634.948
392.190	18.892	827.944	634.336
393.205	18.850	827.370	633.681
394.219	18.760	827.086	633.077
395.234	18.625	826.921	632.397
396.248	18.673	826.177	631.949
397.263	18.778	825.390	631.679
398.278	18.672	825.328	631.185
399.292	18.667	825.151	630.977
400.307	18.773	824.340	630.688
401.321	18.780	823.936	630.351
402.336	18.829	823.340	630.018
403.350	18.849	822.811	629.630
404.365	18.838	823.137	629.782
405.380	19.006	822.267	629.676
406.394	19.008	821.966	629.399
407.409	19.081	821.275	629.082
408.423	19.235	820.738	629.176
409.438	19.216	820.374	628.770
410.453	19.238	820.004	628.512
411.467	19.255	820.061	628.564
412.482	19.463	819.383	628.745
413.496	19.368	819.307	628.285
414.511	19.395	818.769	627.914
415.526	19.401	818.044	627.327
416.540	19.325	817.615	626.665
417.555	19.358	816.864	626.152
418.569	19.462	816.408	626.125
419.584	19.470	816.365	626.068
420.599	19.366	816.071	625.408
421.613	151.371	1368.173	1776.745
422.628	131.634	1448.642	1776.862
