DTS Sentinel unit serial number:	SN413079Multiplexer serial number:	ORYXHardware model number:	OX4-SRSoftware version number:	ORYX F/W v4.00 Oryx Data Collector v3.7.2.0data status	okinstallation	princeton_trtdifferential loss correction	single-endedforward channel	channel 1reverse channel	N/Adate	2019/09/12time	19:42:34forward acquisition time	15.00reverse acquisition time	0.00gamma	496.2192k internal	0.2323k external	0.2323temperature offset calibration	1.0124default loss term (dB/km)	0.3790temperature slope calibration	1.0000multiplexer offset coefficient	1.0000multiplexer slope coefficient	1.0000fibre end	0.00T internal ref (°C)	32.06T ext. ref 1 (°C)	3.30T ext. ref 2 (°C)	26.64length (m)	temperature (°C)	Stokes	anti-Stokes-747.200	-91.233	-0.600	-0.174
-746.185	99.299	-0.212	0.247
-745.171	-77.834	-0.654	0.228
-744.156	-200.000	0.007	-0.126
-743.142	-200.000	-0.193	1.225
-742.127	-38.388	-0.512	0.274
-741.112	-55.406	0.686	-0.311
-740.098	47.490	-0.452	-0.425
-739.083	-15.368	-0.875	0.565
-738.069	-136.507	-0.747	-0.088
-737.054	271.757	-0.100	-0.177
-736.039	615.696	-0.398	-1.007
-735.025	-83.040	1.001	-0.326
-734.010	-200.000	-0.048	-0.707
-732.996	-33.023	0.152	0.085
-731.981	-200.000	0.011	0.432
-730.966	-112.063	-0.614	0.125
-729.952	13.490	-0.406	-0.318
-728.937	-200.000	0.032	0.573
-727.923	-32.629	0.593	-0.333
-726.908	10.182	-0.456	0.350
-725.894	-200.000	0.017	0.320
-724.879	-200.000	-0.129	0.766
-723.864	126.578	0.400	0.512
-722.850	523.220	-0.052	0.123
-721.835	29.948	-0.130	-0.112
-720.821	-186.671	-0.447	0.006
-719.806	226.186	-0.281	-0.460
-718.791	800.000	0.068	0.264
-717.777	64.156	-0.258	0.262
-716.762	-200.000	-0.096	0.517
-715.748	-28.199	-0.880	-0.513
-714.733	-200.000	0.013	-0.851
-713.718	-200.000	-0.047	-0.601
-712.704	211.257	0.131	-0.207
-711.689	50.423	-0.168	-0.161
-710.675	-64.827	-0.377	-0.154
-709.660	-178.709	-0.561	-0.013
-708.645	49.810	-0.186	-0.177
-707.631	-200.000	0.210	1.495
-706.616	800.000	-0.180	0.508
-705.602	-200.000	-0.130	1.225
-704.587	-95.375	-0.731	0.198
-703.572	18.109	0.390	0.314
-702.558	-116.156	0.401	0.075
-701.543	-200.000	0.033	0.574
-700.529	-65.208	0.099	-0.040
-699.514	-160.538	-0.621	-0.033
-698.499	-200.000	0.053	-0.431
-697.485	-195.572	-0.421	0.003
-696.470	-32.803	-0.121	0.068
-695.456	-115.072	-0.515	0.099
-694.441	-200.000	-0.005	-1.138
-693.426	-8.892	-0.779	0.526
-692.412	-200.000	0.004	-0.139
-691.397	-200.000	-0.165	0.870
-690.383	-132.650	-0.096	0.012
-689.368	110.498	0.192	-0.233
-688.354	800.000	-0.113	-0.378
-687.339	-108.372	0.281	-0.061
-686.324	160.861	0.400	-0.563
-685.310	125.665	0.708	-0.901
-684.295	327.962	-0.121	-0.234
-683.281	-152.753	-0.324	-0.023
-682.266	-99.124	-0.808	-0.206
-681.251	388.195	-0.319	0.665
-680.237	-3.590	0.544	-0.381
-679.222	53.070	0.474	-0.457
-678.208	40.404	-0.650	0.590
-677.193	-200.000	-0.122	0.711
-676.178	20.306	-0.409	-0.333
-675.164	32.821	-0.340	0.296
-674.149	-56.579	-0.614	0.274
-673.135	-14.186	-0.784	0.509
-672.120	458.170	0.073	-0.163
-671.105	-200.000	-0.138	-1.103
-670.091	-200.000	-0.190	-1.153
-669.076	-15.165	0.098	0.063
-668.062	800.000	-0.138	0.514
-667.047	-32.073	0.692	0.390
-666.032	-117.453	-0.709	-0.129
-665.018	-200.000	0.038	0.184
-664.003	-92.691	1.027	0.290
-662.989	84.422	0.089	0.098
-661.974	-116.551	0.396	-0.073
-660.959	482.080	-0.115	0.263
-659.945	92.055	0.681	-0.772
-658.930	178.675	0.429	-0.631
-657.916	-200.000	-0.071	0.672
-656.901	800.000	0.092	-0.389
-655.886	-154.607	0.707	0.047
-654.872	-40.200	0.681	0.357
-653.857	21.423	-0.128	-0.105
-652.843	-130.157	0.475	-0.065
-651.828	196.609	0.087	0.133
-650.814	325.221	-0.080	0.154
-649.799	-57.395	-0.378	0.167
-648.784	63.975	-0.638	-0.646
-647.770	120.184	-0.490	-0.612
-646.755	411.735	-0.488	1.042
-645.741	-200.000	0.002	-0.097
-644.726	-105.544	0.383	0.087
-643.711	24.366	-0.451	0.375
-642.697	30.119	-0.433	0.372
-641.682	95.535	0.493	0.566
-640.668	25.069	-0.355	-0.296
-639.653	-66.221	-0.131	0.053
-638.638	345.643	-0.207	0.410
-637.624	35.268	-0.301	0.266
-636.609	-48.070	-0.310	0.151
-635.595	-200.000	0.005	-0.821
-634.580	-169.575	0.272	-0.010
-633.565	-200.000	-0.120	0.939
-632.551	-31.312	-0.315	-0.178
-631.536	16.437	-0.312	0.248
-630.522	-164.290	0.662	-0.031
-629.507	42.869	-0.348	0.319
-628.492	-56.867	-0.644	-0.286
-627.478	362.079	-0.351	-0.709
-626.463	-168.359	-0.469	0.018
-625.449	-200.000	0.007	0.254
-624.434	-200.000	0.080	-0.890
-623.419	-200.000	-0.023	1.091
-622.405	-200.000	-0.085	0.764
-621.390	-89.618	0.135	0.040
-620.376	2.925	-0.601	0.439
-619.361	79.241	-0.300	-0.324
-618.346	31.283	0.509	-0.439
-617.332	-200.000	-0.012	0.855
-616.317	-200.000	0.004	-0.423
-615.303	-200.000	0.101	0.617
-614.288	-200.000	0.090	-0.432
-613.273	364.001	0.145	-0.294
-612.259	63.252	0.365	0.367
-611.244	144.727	-0.238	-0.319
-610.230	409.605	-0.153	-0.325
-609.215	-57.390	-0.610	-0.269
-608.201	778.333	0.216	0.594
-607.186	-200.000	-0.064	-0.427
-606.171	-162.437	0.423	0.021
-605.157	-120.542	-0.451	-0.077
-604.142	-1.980	0.177	0.125
-603.128	129.086	0.146	-0.187
-602.113	43.523	0.269	-0.247
-601.098	-200.000	0.020	0.198
-600.084	26.163	-0.657	0.551
-599.069	315.881	0.226	0.429
-598.055	-40.916	0.179	-0.093
-597.040	-82.803	-0.323	-0.105
-596.025	-161.971	-0.859	0.044
-595.011	-77.058	-0.128	0.045
-593.996	271.229	0.142	-0.251
-592.982	-160.969	0.421	0.022
-591.967	-101.047	0.700	-0.172
-590.952	260.078	0.359	-0.623
-589.938	-29.524	-0.610	0.350
-588.923	-109.664	0.445	0.094
-587.909	441.241	-0.206	-0.452
-586.894	-200.000	0.170	0.974
-585.879	474.786	0.106	0.240
-584.865	-6.441	-0.591	-0.404
-583.850	33.041	-0.189	-0.165
-582.836	40.525	0.088	-0.079
-581.821	-25.588	0.234	0.139
-580.806	-72.490	1.051	0.390
-579.792	-200.000	0.062	0.500
-578.777	-55.791	-0.665	0.298
-577.763	60.086	0.182	0.181
-576.748	-200.000	-0.021	-0.309
-575.733	178.117	0.155	0.226
-574.719	-84.591	0.350	-0.111
-573.704	-56.812	-0.564	0.250
-572.690	89.650	-0.272	0.304
-571.675	-24.996	0.120	-0.072
-570.661	-37.585	0.251	0.134
-569.646	-200.000	-0.105	-0.847
-568.631	-200.000	0.014	0.245
-567.617	69.749	0.484	0.501
-566.602	-0.634	-0.202	-0.144
-565.588	800.000	0.319	0.968
-564.573	-200.000	-0.066	0.790
-563.558	-30.151	0.575	-0.328
-562.544	197.768	0.143	0.219
-561.529	-200.000	-0.000	0.516
-560.515	-41.392	0.965	-0.498
-559.500	-135.977	0.474	-0.056
-558.485	147.078	0.437	-0.589
-557.471	-92.789	0.176	0.049
-556.456	61.856	-0.376	0.376
-555.442	-22.404	0.077	-0.047
-554.427	569.396	-0.137	0.333
-553.412	-91.689	-0.200	0.057
-552.398	800.000	-0.175	-0.705
-551.383	-17.116	-0.571	0.361
-550.369	-150.981	0.248	-0.019
-549.354	-200.000	-0.057	0.525
-548.339	800.000	-0.107	0.336
-547.325	-82.999	0.267	-0.086
-546.310	800.000	0.109	0.452
-545.296	200.161	-0.299	-0.460
-544.281	-67.898	0.214	0.084
-543.266	-120.116	0.861	0.148
-542.252	-195.387	0.121	0.001
-541.237	800.000	-0.156	-0.682
-540.223	52.676	-0.322	-0.308
-539.208	-200.000	-0.052	0.750
-538.193	497.748	0.304	-0.702
-537.179	800.000	0.178	-0.680
-536.164	-200.000	-0.035	0.711
-535.150	42.828	0.525	-0.479
-534.135	-61.882	-0.280	0.118
-533.121	-96.054	-1.133	-0.302
-532.106	46.046	-0.267	-0.247
-531.091	-200.000	0.015	-0.287
-530.077	-34.771	0.554	0.303
-529.062	800.000	0.074	0.273
-528.048	144.678	0.469	0.627
-527.033	448.567	0.271	-0.598
-526.018	478.444	-0.449	1.018
-525.004	713.577	0.327	0.869
-523.989	47.378	-0.515	-0.480
-522.975	-85.133	-0.861	0.270
-521.960	-179.160	0.289	-0.006
-520.945	-31.399	-1.199	-0.676
-519.931	120.742	0.424	-0.528
-518.916	-179.205	-0.161	-0.004
-517.902	-200.000	0.099	1.049
-516.887	-200.000	-0.074	0.553
-515.872	-44.684	-0.364	-0.182
-514.858	-84.313	0.250	0.079
-513.843	-200.000	-0.022	-0.431
-512.829	735.385	-0.131	-0.350
-511.814	55.304	0.379	0.367
-510.799	-31.888	-0.347	-0.195
-509.785	24.716	-0.420	0.348
-508.770	800.000	0.192	0.544
-507.756	80.310	-0.394	0.424
-506.741	-72.739	0.582	-0.215
-505.726	-63.790	0.478	0.196
-504.712	-41.893	0.507	0.260
-503.697	49.602	0.370	0.349
-502.683	-75.417	0.634	-0.226
-501.668	-100.227	0.666	-0.166
-500.653	800.000	-0.074	-0.307
-499.639	-89.400	-0.603	-0.177
-498.624	-200.000	0.050	-0.421
-497.610	-148.769	-0.488	-0.040
-496.595	-200.000	0.029	0.434
-495.581	-102.474	0.407	-0.097
-494.566	-200.000	0.009	-0.320
-493.551	67.688	-0.072	-0.074
-492.537	-34.249	0.346	0.190
-491.522	-48.751	0.918	-0.441
-490.508	127.706	0.234	-0.297
-489.493	210.493	-0.113	-0.178
-488.478	-200.000	0.099	-0.678
-487.464	88.578	0.177	0.197
-486.449	800.000	-0.117	-0.381
-485.435	-200.000	0.105	-0.622
-484.420	209.949	-0.222	-0.349
-483.405	578.638	-0.056	-0.137
-482.391	396.714	-0.134	-0.279
-481.376	-94.679	-0.228	-0.062
-480.362	344.655	-0.381	-0.748
-479.347	800.000	0.328	0.982
-478.332	-91.490	0.592	0.169
-477.318	-200.000	0.011	0.390
-476.303	-106.621	-0.754	-0.168
-475.289	-12.113	0.500	0.327
-474.274	20.856	-0.861	0.698
-473.259	-4.249	-0.290	0.200
-472.245	-44.779	-0.803	-0.400
-471.230	49.144	0.123	-0.116
-470.216	-5.643	-0.235	0.161
-469.201	-200.000	-0.035	0.214
-468.186	-91.262	-0.755	0.216
-467.172	552.709	0.407	0.978
-466.157	-200.000	-0.199	1.084
-465.143	-173.410	-0.107	-0.003
-464.128	156.077	-0.235	-0.323
-463.113	-200.000	0.027	-1.380
-462.099	236.037	-0.134	-0.222
-461.084	-138.978	0.054	-0.006
-460.070	-52.787	-0.843	0.388
-459.055	172.654	0.447	-0.643
-458.040	-46.925	-0.058	0.028
-457.026	-200.000	0.407	-0.002
-456.011	235.689	-0.536	0.885
-454.997	-43.376	-0.359	0.181
-453.982	157.543	-0.442	-0.611
-452.968	67.572	-0.562	0.573
-451.953	100.223	-0.257	0.298
-450.938	63.863	-0.319	0.320
-449.924	404.258	0.238	-0.501
-448.909	-200.000	-0.073	0.564
-447.895	-161.249	0.265	-0.014
-446.880	-56.819	0.446	0.197
-445.865	-20.252	-0.079	0.049
-444.851	800.000	-0.179	-0.612
-443.836	258.289	-0.386	0.664
-442.822	-200.000	-0.021	0.186
-441.807	-86.081	-0.479	0.148
-440.792	-200.000	0.086	-0.642
-439.778	-124.537	-0.301	-0.047
-438.763	1.334	-0.749	0.537
-437.749	104.405	-0.416	-0.489
-436.734	35.034	-0.299	-0.261
-435.719	126.053	0.518	-0.653
-434.705	311.563	-0.178	-0.334
-433.690	4.867	0.533	0.391
-432.676	305.583	-0.286	-0.530
-431.661	-71.925	0.394	-0.146
-430.646	-94.164	-0.895	-0.245
-429.632	-155.212	0.429	-0.028
-428.617	-200.000	-0.037	0.755
-427.603	-200.000	0.037	0.667
-426.588	-116.123	-0.071	0.013
-425.573	-23.055	-0.451	0.271
-424.559	-200.000	-0.047	0.998
-423.544	91.444	0.405	0.453
-422.530	399.415	0.225	-0.470
-421.515	-133.928	-0.605	0.075
-420.500	379.283	0.236	-0.482
-419.486	-100.819	-0.446	0.109
-418.471	-200.000	-0.016	1.227
-417.457	12.273	-0.301	-0.232
-416.442	-200.000	0.088	0.947
-415.428	21.041	0.861	0.696
-414.413	165.228	-0.194	0.273
-413.398	291.627	0.453	-0.821
-412.384	-115.465	0.307	0.058
-411.369	-129.066	0.611	-0.085
-410.355	-119.936	0.557	0.095
-409.340	159.821	-0.225	0.313
-408.325	800.000	-0.284	-1.034
-407.311	109.720	0.408	-0.488
-406.296	28.131	-0.452	0.381
-405.282	-161.610	-0.886	0.045
-404.267	800.000	-0.085	0.283
-403.252	69.014	0.678	-0.695
-402.238	165.339	-0.545	0.768
-401.223	225.468	0.119	-0.192
-400.209	321.802	0.189	0.359
-399.194	-200.000	0.043	0.388
-398.179	-200.000	0.037	-0.406
-397.165	800.000	0.084	0.273
-396.150	-43.965	-0.723	-0.362
-395.136	800.000	-0.134	0.396
-394.121	144.003	-0.587	-0.780
-393.106	-5.613	0.303	0.207
-392.092	-9.923	0.590	-0.391
-391.077	-5.614	-0.057	0.039
-390.063	-72.318	0.338	-0.125
-389.048	231.487	-0.345	0.563
-388.033	86.571	0.328	-0.361
-387.019	-182.093	-0.423	-0.008
-386.004	4.771	0.267	0.196
-384.990	652.225	0.176	0.449
-383.975	-130.984	-0.143	-0.019
-382.960	-33.267	0.485	-0.267
-381.946	-69.920	-0.359	-0.136
-380.931	-200.000	-0.079	-0.862
-379.917	231.651	-0.203	-0.332
-378.902	28.739	-0.938	0.791
-377.888	16.003	-0.111	0.087
-376.873	322.751	0.250	-0.475
-375.858	-89.440	0.294	-0.086
-374.844	-133.240	-0.724	-0.091
-373.829	-26.260	-0.654	0.383
-372.815	594.247	-0.155	0.382
-371.800	551.142	-0.398	0.951
-370.785	135.116	-0.252	-0.326
-369.771	141.584	0.189	-0.250
-368.756	-157.790	-0.253	-0.015
-367.742	60.168	0.523	0.514
-366.727	-200.000	-0.024	-0.131
-365.712	-2.219	0.370	0.258
-364.698	227.306	-0.433	-0.701
-363.683	-200.000	0.038	0.196
-362.669	800.000	0.168	-0.720
-361.654	-152.438	0.368	-0.026
-360.639	-115.822	0.300	-0.056
-359.625	-37.369	0.292	-0.155
-358.610	66.186	0.024	-0.024
-357.596	12.342	-0.576	-0.442
-356.581	365.525	-0.055	-0.110
-355.566	-105.737	-0.400	-0.090
-354.552	189.813	0.431	0.643
-353.537	-200.000	-0.128	1.006
-352.523	74.119	0.186	0.194
-351.508	233.930	0.372	0.609
-350.493	-37.185	-0.730	0.388
-349.479	-22.141	-0.361	0.218
-348.464	32.387	-0.290	-0.249
-347.450	-120.103	0.098	0.017
-346.435	45.544	-0.382	0.350
-345.420	-2.760	0.796	0.553
-344.406	338.996	0.126	0.245
-343.391	-19.886	-0.898	-0.552
-342.377	-200.000	0.004	-0.795
-341.362	800.000	-0.209	-0.831
-340.348	753.300	-0.324	-0.872
-339.333	800.000	0.070	0.211
-338.318	800.000	0.111	-0.425
-337.304	800.000	0.259	-0.803
-336.289	56.838	0.377	0.365
-335.275	-15.826	0.304	0.193
-334.260	-119.888	-0.502	-0.086
-333.245	-63.973	0.142	0.058
-332.231	-200.000	0.127	0.692
-331.216	49.877	0.546	-0.512
-330.202	-200.000	0.005	-0.142
-329.187	-157.085	-0.157	0.009
-328.172	382.246	-0.174	-0.356
-327.158	-38.089	0.325	-0.171
-326.143	-106.168	0.320	0.071
-325.129	-200.000	-0.059	-0.328
-324.114	70.421	0.653	0.671
-323.099	-200.000	-0.071	0.514
-322.085	800.000	0.120	0.392
-321.070	-4.490	-0.524	-0.360
-320.056	-113.758	1.103	0.214
-319.041	33.779	-0.296	-0.255
-318.026	60.631	0.375	-0.369
-317.012	-200.000	0.132	-0.780
-315.997	-200.000	-0.020	0.659
-314.983	119.807	0.459	-0.565
-313.968	-104.105	-0.554	0.128
-312.953	53.262	0.305	-0.290
-311.939	-200.000	0.038	-0.376
-310.924	5.582	-0.561	-0.412
-309.910	-128.041	0.613	-0.087
-308.895	731.673	0.376	0.999
-307.880	-40.484	0.507	-0.262
-306.866	-124.729	-0.551	-0.085
-305.851	121.717	0.376	-0.466
-304.837	-134.725	-0.895	-0.108
-303.822	36.156	0.107	-0.094
-302.807	-2.993	-0.477	-0.331
-301.793	113.584	-0.495	0.597
-300.778	-14.543	0.798	-0.509
-299.764	133.608	0.244	-0.314
-298.749	-146.386	0.745	-0.065
-297.735	-200.000	0.001	-0.258
-296.720	800.000	0.152	-0.551
-295.705	173.827	0.274	-0.393
-294.691	323.938	-0.266	0.504
-293.676	800.000	0.048	-0.182
-292.662	11.802	0.134	0.102
-291.647	800.000	-0.161	0.661
-290.632	-200.000	-0.009	0.663
-289.618	174.141	0.099	-0.142
-288.603	-132.922	1.022	0.129
-287.589	563.763	0.157	-0.378
-286.574	-200.000	-0.061	1.005
-285.559	-72.747	-0.820	0.300
-284.545	23.547	-0.132	0.108
-283.530	-200.000	0.155	-1.033
-282.516	-115.756	-0.434	-0.081
-281.501	429.887	0.259	0.556
-280.486	-50.448	-0.956	-0.448
-279.472	-23.266	-0.474	0.283
-278.457	52.528	-0.566	-0.536
-277.443	169.398	-0.323	0.457
-276.428	800.000	-0.269	-0.748
-275.413	-91.473	0.629	-0.178
-274.399	28.577	0.550	-0.461
-273.384	-75.604	0.437	-0.154
-272.370	371.599	0.110	-0.220
-271.355	188.575	0.437	-0.648
-270.340	800.000	-0.188	-0.533
-269.326	72.091	0.629	-0.650
-268.311	262.663	0.177	-0.304
-267.297	-58.219	0.508	-0.219
-266.282	167.540	-0.346	-0.488
-265.267	800.000	-0.106	0.378
-264.253	-121.406	0.836	0.138
-263.238	368.600	0.369	-0.739
-262.224	-31.951	0.257	-0.143
-261.209	-150.114	-0.391	0.030
-260.195	-3.501	0.184	0.127
-259.180	-107.634	0.224	0.048
-258.165	37.238	0.272	-0.238
-257.151	38.133	0.359	-0.316
-256.136	-88.746	-0.627	0.185
-255.122	-200.000	-0.058	-0.932
-254.107	-3.815	-0.559	0.385
-253.092	-96.704	-0.599	-0.156
-252.078	60.602	-0.526	-0.517
-251.063	-73.527	-0.043	0.015
-250.049	-19.967	-0.109	0.066
-249.034	-155.001	-0.679	-0.044
-248.019	-125.467	0.572	-0.086
-247.005	52.407	0.224	-0.212
-245.990	-24.037	0.862	-0.510
-244.976	664.418	0.379	0.968
-243.961	-125.611	-0.200	0.030
-242.946	124.660	-0.345	0.430
-241.932	49.507	0.083	0.077
-240.917	-161.419	-0.667	0.034
-239.903	-28.436	0.500	0.286
-238.888	-183.702	-0.513	0.009
-237.873	-98.833	-0.592	-0.149
-236.859	77.401	0.344	-0.363
-235.844	-71.118	-0.714	-0.266
-234.830	270.649	0.459	-0.800
-233.815	144.441	0.051	-0.068
-232.800	20.978	0.244	0.196
-231.786	-131.662	-0.338	-0.044
-230.771	-60.271	-0.284	-0.120
-229.757	116.653	-0.322	0.392
-228.742	-22.273	0.713	0.428
-227.727	233.089	0.402	0.655
-226.713	1.961	0.940	-0.672
-225.698	91.381	-0.652	-0.725
-224.684	-145.668	0.384	0.034
-223.669	578.678	0.111	-0.268
-222.655	-200.000	-0.051	0.501
-221.640	-49.495	-0.640	-0.302
-220.625	-18.876	-0.410	0.252
-219.611	-109.017	1.070	-0.226
-218.596	-1.619	-0.780	0.544
-217.582	-11.088	1.078	-0.703
-216.567	-63.688	-0.247	-0.100
-215.552	-4.791	0.219	-0.150
-214.538	49.111	0.300	0.278
-213.523	-200.000	-0.087	-0.653
-212.509	202.186	0.355	0.542
-211.494	-200.000	-0.038	0.593
-210.479	-17.578	1.029	0.640
-209.465	294.367	-0.040	-0.073
-208.450	397.446	-0.391	-0.808
-207.436	-200.000	-0.027	-0.185
-206.421	-200.000	0.007	-0.417
-205.406	800.000	-0.213	-0.708
-204.392	236.509	0.288	-0.471
-203.377	-200.000	0.005	0.377
-202.363	247.299	-0.236	0.394
-201.348	360.644	0.409	-0.809
-200.333	594.872	0.309	0.757
-199.319	-200.000	0.057	-0.587
-198.304	158.971	0.222	-0.305
-197.290	69.020	-0.246	-0.249
-196.275	800.000	0.045	-0.152
-195.260	306.759	-0.113	-0.209
-194.246	122.420	0.485	-0.600
-193.231	61.695	-0.651	0.640
-192.217	800.000	-0.027	0.075
-191.202	211.944	-0.168	0.261
-190.187	-7.284	0.225	-0.150
-189.173	114.313	0.587	0.707
-188.158	-54.972	0.905	0.403
-187.144	-200.000	0.063	-0.653
-186.129	320.100	0.068	0.127
-185.114	-18.284	0.203	0.126
-184.100	-48.520	-0.408	0.194
-183.085	800.000	0.134	-0.547
-182.071	207.704	-0.245	0.378
-181.056	-200.000	0.030	-0.167
-180.042	65.180	-0.695	-0.694
-179.027	-121.171	0.904	0.149
-178.012	366.509	0.285	0.568
-176.998	-200.000	0.008	0.299
-175.983	514.409	-0.023	0.054
-174.969	-200.000	-0.117	0.712
-173.954	325.911	-0.287	-0.543
-172.939	800.000	0.120	-0.449
-171.925	272.731	0.341	0.595
-170.910	73.800	-0.498	-0.516
-169.896	149.105	0.108	0.144
-168.881	662.402	0.352	-0.897
-167.866	435.447	0.191	0.410
-166.852	-99.428	0.464	-0.115
-165.837	-126.312	-0.421	-0.062
-164.823	194.653	-0.615	0.921
-163.808	-165.501	-0.114	-0.005
-162.793	-200.000	-0.107	0.643
-161.779	463.294	0.067	0.147
-160.764	-31.171	0.762	-0.424
-159.750	353.788	0.369	0.723
-158.735	14.921	0.750	0.579
-157.720	-200.000	0.047	-0.741
-156.706	800.000	0.066	-0.278
-155.691	335.327	0.410	0.785
-154.677	-56.105	-0.436	-0.192
-153.662	-73.008	0.507	-0.184
-152.647	78.436	-0.099	-0.104
-151.633	-200.000	-0.031	-0.145
-150.618	401.596	0.114	0.237
-149.604	133.593	-0.279	-0.356
-148.589	-21.129	0.505	0.305
-147.574	-115.032	-0.212	-0.040
-146.560	-140.177	0.633	-0.066
-145.545	88.166	-0.430	0.470
-144.531	-200.000	-0.185	0.000
-143.516	63.904	-0.954	0.946
-142.502	314.578	0.417	0.774
-141.487	-119.762	-0.397	-0.068
-140.472	-200.000	0.059	0.545
-139.458	-176.778	0.325	-0.008
-138.443	-200.000	0.020	-0.127
-137.429	-14.363	-0.255	-0.162
-136.414	800.000	0.195	-0.706
-135.399	-5.787	-0.381	-0.258
-134.385	100.643	1.044	-1.196
-133.370	69.182	-0.230	-0.233
-132.356	-200.000	0.041	-0.254
-131.341	-136.434	1.057	0.121
-130.326	-150.279	-1.015	-0.077
-129.312	199.143	0.174	-0.264
-128.297	112.305	-0.213	0.254
-127.283	-75.899	-0.192	-0.067
-126.268	-3.867	-0.233	-0.160
-125.253	-200.000	-0.035	0.443
-124.239	174.514	0.278	-0.397
-123.224	8.834	-0.804	0.597
-122.210	106.533	0.234	-0.273
-121.195	-200.000	-0.115	0.923
-120.180	-200.000	0.237	1.069
-119.166	-17.164	-0.208	0.130
-118.151	378.505	-0.303	0.611
-117.137	-8.615	-0.413	0.273
-116.122	800.000	-0.076	-0.209
-115.107	323.098	-0.338	-0.636
-114.093	-200.000	-0.106	0.574
-113.078	-20.959	0.569	-0.344
-112.064	800.000	-0.068	0.263
-111.049	-67.269	-0.637	0.247
-110.034	234.229	0.291	0.473
-109.020	-125.826	0.741	0.110
-108.005	0.578	0.310	-0.219
-106.991	-160.551	0.737	0.039
-105.976	217.543	0.499	0.784
-104.962	-200.000	0.164	0.904
-103.947	694.021	-0.166	-0.429
-102.932	-105.847	-0.371	0.082
-101.918	-200.000	-0.027	-0.142
-100.903	-106.674	-0.954	-0.209
-99.889	-200.000	0.215	1.073
-98.874	-200.000	0.192	1.286
-97.859	81.202	-0.448	0.477
-96.845	-102.427	-0.794	-0.187
-95.830	177.350	0.049	0.070
-94.816	133.612	-0.423	0.539
-93.801	-200.000	0.123	0.746
-92.786	322.982	0.176	-0.331
-91.772	40.034	0.227	-0.201
-90.757	-52.099	0.636	0.291
-89.743	-200.000	-0.043	-0.397
-88.728	-200.000	0.045	0.516
-87.713	-88.836	-0.371	-0.108
-86.699	-200.000	0.434	-0.001
-85.684	457.868	-0.157	0.342
-84.670	-108.537	0.325	-0.069
-83.655	-28.253	0.808	-0.459
-82.640	-91.155	-0.190	0.054
-81.626	-200.000	-0.008	-0.166
-80.611	-154.973	0.066	-0.004
-79.597	-7.817	0.527	0.350
-78.582	-130.711	0.773	-0.102
-77.567	43.744	0.373	-0.336
-76.553	-200.000	-0.142	-1.041
-75.538	-34.385	-0.670	0.361
-74.524	-147.697	0.603	-0.050
-73.509	-24.376	-0.177	-0.104
-72.494	760.778	0.367	-0.978
-71.480	52.059	0.140	-0.131
-70.465	-31.575	-0.792	0.438
-69.451	372.658	-0.042	0.084
-68.436	21.428	-0.263	0.210
-67.422	269.748	-0.443	0.765
-66.407	33.887	0.371	-0.317
-65.392	-70.828	-0.202	-0.075
-64.378	-200.000	0.007	0.077
-63.363	144.557	0.597	-0.784
-62.349	-24.720	0.517	-0.302
-61.334	95.340	-1.407	-1.577
-60.319	-54.930	0.510	0.226
-59.305	-200.000	-0.034	-1.538
-58.290	800.000	0.348	1.025
-57.276	502.721	0.683	1.553
-56.261	-200.000	96.130	600.280
-55.246	661.063	1357.355	3438.060
-54.232	204.130	2520.877	3839.791
-53.217	120.061	2118.196	2583.255
-52.203	43.784	1588.300	1429.592
-51.188	35.407	1328.559	1145.997
-50.173	32.479	1287.214	1093.313
-49.159	56.169	1337.373	1276.592
-48.144	56.699	1353.756	1295.312
-47.130	35.723	1311.230	1132.729
-46.115	32.331	1293.875	1097.932
-45.100	32.150	1288.367	1092.164
-44.086	32.179	1286.225	1090.474
-43.071	31.765	1284.550	1086.607
-42.057	31.674	1282.703	1084.478
-41.042	31.747	1279.743	1082.350
-40.027	31.739	1278.279	1081.028
-39.013	31.951	1277.628	1081.653
-37.998	31.997	1274.800	1079.485
-36.984	31.990	1272.999	1077.872
-35.969	31.904	1271.103	1075.731
-34.954	32.031	1269.418	1074.993
-33.940	31.961	1268.707	1073.948
-32.925	31.949	1267.171	1072.535
-31.911	32.117	1265.529	1072.060
-30.896	32.302	1262.953	1070.888
-29.881	32.286	1262.268	1070.176
-28.867	31.900	1262.069	1067.766
-27.852	32.320	1258.955	1067.473
-26.838	32.144	1258.235	1065.826
-25.823	32.166	1257.793	1065.530
-24.809	32.151	1256.353	1064.184
-23.794	31.952	1255.537	1062.326
-22.779	32.226	1254.130	1062.643
-21.765	32.392	1251.357	1061.188
-20.750	32.082	1250.593	1058.746
-19.736	32.227	1249.300	1058.431
-18.721	32.026	1248.397	1056.489
-17.706	31.990	1247.511	1055.498
-16.692	31.986	1246.278	1054.386
-15.677	32.163	1244.735	1054.032
-14.663	31.986	1243.354	1051.830
-13.648	32.127	1241.791	1051.259
-12.633	31.997	1241.419	1050.175
-11.619	31.925	1241.004	1049.374
-10.604	32.156	1239.321	1049.203
-9.590	31.966	1239.406	1048.169
-8.575	31.952	1238.839	1047.571
-7.560	32.025	1237.792	1047.054
-6.546	31.876	1237.681	1046.088
-5.531	32.134	1235.561	1045.691
-4.517	31.974	1235.498	1044.702
-3.502	31.979	1233.989	1043.412
-2.487	31.784	1233.550	1041.918
-1.473	31.720	1228.755	1037.472
-0.458	30.649	1213.167	1018.408
0.556	27.954	1196.368	979.067
1.571	24.222	1201.256	962.859
2.586	22.901	1216.202	967.525
3.600	22.412	1204.436	955.428
4.615	16.942	1132.749	870.479
5.629	7.609	1059.704	769.265
6.644	3.738	1038.309	735.273
7.659	3.251	1035.956	731.231
8.673	3.119	1034.232	729.323
9.688	3.094	1032.772	728.112
10.702	3.403	1032.694	729.455
11.717	9.197	1039.940	762.057
12.731	18.637	1052.517	816.325
13.746	23.435	1060.476	845.363
14.761	24.256	1059.183	848.166
15.775	23.837	1058.484	845.542
16.790	23.335	1057.221	842.071
17.804	23.445	1055.855	841.430
18.819	23.319	1055.613	840.568
19.834	23.563	1055.164	841.293
20.848	23.212	1055.218	839.597
21.863	23.189	1054.475	838.819
22.877	23.126	1054.040	838.099
23.892	23.228	1052.199	837.047
24.907	23.320	1051.746	837.044
25.921	22.893	1049.681	833.312
26.936	22.995	1048.809	833.029
27.950	22.896	1048.569	832.301
28.965	22.739	1047.155	830.363
29.980	23.184	1045.200	830.832
30.994	23.227	1043.959	829.973
32.009	22.864	1043.879	828.130
33.023	23.282	1042.760	829.127
34.038	23.096	1040.651	826.508
35.053	22.874	1040.931	825.621
36.067	22.877	1039.978	824.808
37.082	22.966	1039.406	824.694
38.096	23.192	1037.720	824.336
39.111	23.055	1037.819	823.705
40.126	22.835	1035.878	821.070
41.140	22.938	1033.977	819.967
42.155	22.558	1033.219	817.529
43.169	22.575	1031.739	816.365
44.184	22.140	1031.691	814.242
45.199	22.470	1030.113	814.448
46.213	22.420	1030.559	814.500
47.228	22.845	1029.955	815.914
48.242	23.178	1029.349	816.900
49.257	23.129	1028.656	816.051
50.271	23.527	1026.848	816.376
51.286	23.270	1027.019	815.259
52.301	23.423	1025.683	814.829
53.315	23.055	1024.781	812.349
54.330	23.104	1023.567	811.540
55.344	23.010	1022.563	810.240
56.359	23.056	1021.371	809.437
57.374	23.042	1020.424	808.551
58.388	22.954	1019.460	807.312
59.403	22.570	1019.123	805.221
60.417	22.582	1017.958	804.285
61.432	22.760	1017.169	804.401
62.447	22.627	1017.128	803.689
63.461	22.513	1016.555	802.647
64.476	22.394	1017.478	802.762
65.490	21.809	1015.410	798.398
66.505	22.716	1014.027	801.359
67.520	22.918	1012.895	801.308
68.534	22.284	1013.246	798.637
69.549	21.842	1012.851	796.253
70.563	22.152	1011.478	796.508
71.578	21.861	1009.616	793.652
72.593	21.923	1007.705	792.359
73.607	21.785	1008.050	791.940
74.622	21.900	1008.156	792.470
75.636	21.795	1007.453	791.376
76.651	21.940	1006.056	790.862
77.666	21.723	1006.734	790.345
78.680	22.042	1005.719	790.914
79.695	21.889	1004.508	789.203
80.709	21.785	1005.211	789.221
81.724	22.402	1003.516	790.590
82.739	22.420	1003.629	790.691
83.753	23.102	1002.955	793.147
84.768	23.492	1002.315	794.320
85.782	23.749	1001.201	794.516
86.797	23.433	1000.074	792.141
87.812	23.586	998.325	791.365
88.826	23.221	998.679	789.950
89.841	23.646	998.284	791.464
90.855	23.493	996.601	789.378
91.870	23.527	995.696	788.742
92.884	23.288	995.066	787.111
93.899	23.280	994.633	786.661
94.914	23.449	992.501	785.655
95.928	23.488	992.374	785.659
96.943	23.108	992.367	783.901
97.957	23.122	990.020	782.038
98.972	23.076	989.848	781.630
99.987	23.252	988.355	781.157
101.001	23.282	986.790	779.986
102.016	23.106	986.922	779.246
103.030	23.102	986.857	779.106
104.045	23.345	985.768	779.247
105.060	23.185	985.398	778.181
106.074	23.001	984.398	776.513
107.089	22.923	982.480	774.592
108.103	22.632	981.798	772.709
109.118	22.547	979.923	770.795
110.133	22.281	978.296	768.287
111.147	22.196	977.882	767.523
112.162	22.004	977.838	766.581
113.176	22.364	976.065	766.690
114.191	22.538	975.505	766.942
115.206	22.304	975.536	765.877
116.220	22.508	973.835	765.363
117.235	22.322	974.391	764.923
118.249	22.136	972.996	762.951
119.264	21.728	972.087	760.401
120.279	21.912	971.270	760.493
121.293	21.716	970.358	758.862
122.308	21.629	969.787	757.973
123.322	21.716	968.043	756.917
124.337	21.885	966.806	756.615
125.352	21.999	965.829	756.273
126.366	21.977	964.385	754.981
127.381	22.135	964.303	755.528
128.395	22.314	964.084	756.062
129.410	22.314	963.124	755.239
130.424	22.373	961.725	754.331
131.439	22.612	961.863	755.394
132.454	22.592	961.243	754.755
133.468	22.437	960.596	753.516
134.483	22.678	958.964	753.201
135.497	22.846	958.376	753.389
136.512	22.558	957.365	751.300
137.527	22.509	957.450	751.092
138.541	22.474	956.971	750.499
139.556	22.362	956.250	749.393
140.570	22.993	955.668	751.551
141.585	23.239	954.653	751.731
142.600	23.346	953.302	751.056
143.614	23.536	953.162	751.686
144.629	23.587	952.033	750.944
145.643	23.457	951.218	749.683
146.658	22.865	950.452	746.511
147.673	22.796	948.978	744.996
148.687	22.748	947.385	743.479
149.702	22.401	947.421	741.978
150.716	23.089	945.254	743.107
151.731	22.732	945.679	741.878
152.746	22.822	945.465	742.019
153.760	23.021	944.300	741.874
154.775	22.899	944.371	741.355
155.789	22.862	943.752	740.648
156.804	23.113	941.153	739.590
157.819	22.969	941.229	738.986
158.833	23.564	940.579	740.895
159.848	23.651	940.484	741.115
160.862	23.313	938.335	737.952
161.877	23.039	936.803	735.538
162.892	22.413	936.966	732.997
163.906	22.430	935.390	731.769
164.921	22.685	934.308	731.917
165.935	22.821	933.805	732.022
166.950	22.791	933.677	731.734
167.964	22.725	932.556	730.518
168.979	22.765	931.368	729.685
169.994	22.637	930.800	728.646
171.008	23.329	929.406	730.347
172.023	23.197	929.123	729.516
173.037	23.301	928.974	729.761
174.052	23.009	928.151	727.849
175.067	22.735	927.669	726.280
176.081	22.653	926.347	724.842
177.096	22.282	925.359	722.480
178.110	22.557	924.251	722.680
179.125	22.233	922.973	720.290
180.140	22.581	923.798	722.298
181.154	22.717	924.719	723.510
182.169	23.068	924.039	724.351
183.183	23.101	923.465	723.974
184.198	23.067	922.134	722.728
185.213	22.984	921.015	721.447
186.227	22.833	920.881	720.663
187.242	23.373	919.345	721.595
188.256	23.108	920.465	721.332
189.271	23.306	918.535	720.560
190.286	22.742	917.738	717.579
191.300	22.369	916.475	715.012
192.315	22.008	916.266	713.318
193.329	22.353	915.310	713.914
194.344	22.379	915.447	714.062
195.359	22.862	914.359	715.107
196.373	23.150	914.743	716.508
197.388	23.178	913.540	715.619
198.402	23.366	914.029	716.698
199.417	23.775	911.960	716.663
200.432	23.810	912.265	716.979
201.446	23.642	912.991	716.808
202.461	23.814	911.496	716.265
203.475	23.309	911.159	713.903
204.490	22.975	909.116	710.893
205.504	22.804	908.452	709.625
206.519	22.971	907.936	709.829
207.534	23.246	907.681	710.672
208.548	22.961	907.277	709.148
209.563	23.425	905.828	709.812
210.577	23.165	906.349	709.114
211.592	23.884	904.783	710.701
212.607	23.637	905.141	709.934
213.621	23.313	904.523	708.090
214.636	23.201	903.725	706.956
215.650	23.489	902.246	706.886
216.665	23.237	901.739	705.423
217.680	23.459	901.976	706.427
218.694	23.700	900.812	706.412
219.709	23.139	900.349	703.758
220.723	23.306	899.464	703.665
221.738	23.410	897.485	702.468
222.753	23.248	897.842	702.044
223.767	23.456	897.863	702.821
224.782	23.652	897.997	703.642
225.796	23.483	897.469	702.495
226.811	23.566	895.809	701.462
227.826	23.204	894.122	698.650
228.840	23.002	895.012	698.488
229.855	23.148	893.896	698.128
230.869	22.921	893.687	697.010
231.884	23.158	892.148	696.682
232.899	23.169	891.811	696.401
233.913	23.336	890.793	696.200
234.928	22.931	889.868	693.825
235.942	22.719	889.715	692.810
236.957	22.822	888.352	692.093
237.972	22.398	888.709	690.647
238.986	22.539	887.448	690.158
240.001	22.660	887.098	690.299
241.015	23.041	885.616	690.571
242.030	23.041	885.967	690.784
243.045	23.016	885.946	690.607
244.059	22.954	885.548	689.997
245.074	23.341	885.105	691.098
246.088	23.521	883.607	690.569
247.103	23.746	883.965	691.666
248.117	23.633	884.344	691.458
249.132	24.264	883.911	693.515
250.147	24.457	883.738	694.070
251.161	24.729	882.737	694.279
252.176	24.621	882.544	693.644
253.190	24.424	881.922	692.333
254.205	24.516	881.303	692.138
255.220	24.455	879.574	690.485
256.234	24.451	879.303	690.195
257.249	24.103	879.266	688.758
258.263	23.961	878.661	687.676
259.278	23.911	877.136	686.229
260.293	24.338	877.862	688.385
261.307	24.349	876.791	687.528
262.322	24.278	876.123	686.667
263.336	24.475	875.923	687.208
264.351	24.272	873.946	684.819
265.366	24.186	873.915	684.405
266.380	24.438	873.550	685.025
267.395	24.288	872.993	683.950
268.409	23.966	872.205	682.038
269.424	24.353	870.785	682.348
270.439	24.113	870.983	681.524
271.453	24.195	870.203	681.169
272.468	24.052	869.414	679.945
273.482	23.666	870.338	679.129
274.497	23.874	869.616	679.303
275.512	24.206	867.805	679.090
276.526	24.082	868.256	678.913
277.541	24.167	867.334	678.455
278.555	24.501	866.973	679.383
279.570	24.469	866.204	678.599
280.585	24.254	865.669	677.302
281.599	23.801	864.492	674.604
282.614	23.782	863.490	673.690
283.628	23.622	862.655	672.374
284.643	23.835	862.535	673.027
285.657	23.969	861.225	672.450
286.672	24.021	860.316	671.877
287.687	24.121	860.345	672.219
288.701	24.320	860.027	672.660
289.716	24.049	859.931	671.504
290.730	23.858	859.921	670.718
291.745	24.177	858.059	670.405
292.760	24.080	858.054	669.976
293.774	24.628	858.001	671.940
294.789	24.390	857.658	670.716
295.803	24.244	856.334	669.073
296.818	24.299	855.448	668.529
297.833	24.011	854.757	666.851
298.847	24.156	854.339	667.007
299.862	24.058	854.358	666.595
300.876	24.506	853.524	667.563
301.891	24.658	852.916	667.596
302.906	24.759	852.918	667.914
303.920	24.980	852.177	668.100
304.935	24.787	852.462	667.543
305.949	24.843	850.959	666.515
306.964	24.212	850.100	663.436
307.979	24.426	849.462	663.675
308.993	24.702	849.774	664.886
310.008	24.498	848.760	663.276
311.022	24.699	847.438	662.930
312.037	24.291	847.701	661.563
313.052	23.881	846.113	658.747
314.066	23.755	845.765	657.954
315.081	23.955	845.420	658.366
316.095	23.762	844.994	657.261
317.110	24.319	843.640	658.207
318.125	23.997	843.204	656.622
319.139	23.456	842.627	654.119
320.154	23.846	841.800	654.855
321.168	23.785	842.181	654.868
322.183	23.994	840.838	654.535
323.197	24.083	841.429	655.263
324.212	23.822	840.235	653.319
325.227	23.876	840.036	653.304
326.241	23.768	839.355	652.320
327.256	23.989	838.692	652.558
328.270	23.555	838.500	650.760
329.285	23.612	837.948	650.482
330.300	23.682	837.198	650.098
331.314	23.510	836.510	648.878
332.329	24.147	836.824	651.392
333.343	24.280	835.853	651.065
334.358	24.534	834.973	651.251
335.373	24.628	834.364	651.060
336.387	24.744	835.318	652.169
337.402	24.758	835.319	652.162
338.416	25.004	834.559	652.408
339.431	25.504	834.326	653.987
340.446	25.195	833.956	652.518
341.460	25.017	834.028	651.867
342.475	24.871	833.848	651.137
343.489	25.387	832.840	652.167
344.504	25.065	833.270	651.276
345.519	25.112	832.429	650.732
346.533	25.684	830.902	651.551
347.548	25.110	830.694	649.253
348.562	24.678	830.121	647.183
349.577	24.380	829.818	645.813
350.592	24.499	827.817	644.627
351.606	24.522	827.459	644.375
352.621	24.527	827.502	644.368
353.635	24.645	826.265	643.773
354.650	24.241	826.052	642.094
355.665	24.226	825.376	641.460
356.679	24.867	824.630	643.126
357.694	24.392	825.042	641.683
358.708	24.596	823.652	641.278
359.723	24.616	822.081	640.070
360.738	24.345	821.978	638.963
361.752	24.282	822.160	638.820
362.767	25.126	821.845	641.542
363.781	25.386	820.824	641.616
364.796	25.419	821.558	642.252
365.810	25.336	821.547	641.891
366.825	25.470	819.773	640.925
367.840	25.227	819.205	639.558
368.854	24.853	818.875	637.911
369.869	25.013	818.379	638.039
370.883	24.611	818.692	636.791
371.898	25.098	817.909	637.860
372.913	25.354	817.822	638.648
373.927	25.121	815.941	636.294
374.942	24.939	816.460	635.998
375.956	25.020	816.468	636.236
376.971	25.334	816.064	636.979
377.986	25.652	815.591	637.679
379.000	25.768	814.713	637.347
380.015	26.190	813.360	637.723
381.029	25.687	812.502	635.220
382.044	25.271	812.864	633.975
383.059	25.678	813.035	635.491
384.073	25.672	812.131	634.707
385.088	24.964	810.826	631.137
386.102	24.609	810.108	629.272
387.117	24.819	809.198	629.249
388.132	24.771	808.389	628.394
389.146	24.733	808.715	628.461
390.161	24.743	809.547	629.084
391.175	25.538	808.497	631.004
392.190	25.210	806.966	628.607
393.205	24.892	806.371	626.974
394.219	24.496	805.695	625.007
395.234	24.113	805.389	623.374
396.248	24.653	804.544	624.550
397.263	24.479	805.237	624.426
398.278	24.242	804.502	622.972
399.292	24.599	802.989	622.991
400.307	24.446	802.975	622.390
401.321	24.535	803.071	622.722
402.336	24.890	801.503	622.683
403.350	24.702	802.022	622.378
404.365	25.085	802.845	624.296
405.380	25.795	801.970	626.028
406.394	25.804	801.492	625.633
407.409	26.055	800.747	625.867
408.423	25.780	801.264	625.260
409.438	25.797	800.166	624.408
410.453	26.074	798.911	624.331
411.467	25.884	798.635	623.402
412.482	25.349	799.366	622.065
413.496	25.531	799.466	622.720
414.511	25.749	798.847	622.936
415.526	25.671	798.012	621.960
416.540	25.823	798.008	622.427
417.555	25.237	796.909	619.492
418.569	25.844	795.691	620.582
419.584	25.399	795.976	619.216
420.599	25.766	794.857	619.554
421.613	161.447	1370.114	1793.044
422.628	140.012	1453.931	1793.133
