DTS Sentinel unit serial number:	SN413079Multiplexer serial number:	ORYXHardware model number:	OX4-SRSoftware version number:	ORYX F/W v4.00 Oryx Data Collector v3.7.2.0data status	okinstallation	princeton_trtdifferential loss correction	single-endedforward channel	channel 1reverse channel	N/Adate	2019/09/12time	16:28:11forward acquisition time	60.00reverse acquisition time	0.00gamma	496.2192k internal	0.2304k external	0.2304temperature offset calibration	1.0087default loss term (dB/km)	0.3790temperature slope calibration	1.0000multiplexer offset coefficient	1.0000multiplexer slope coefficient	1.0000fibre end	0.00T internal ref (°C)	37.42T ext. ref 1 (°C)	2.55T ext. ref 2 (°C)	29.80length (m)	temperature (°C)	Stokes	anti-Stokes-747.200	-99.399	-0.096	-0.025
-746.185	23.357	0.148	0.124
-745.171	-37.173	0.218	0.119
-744.156	-200.000	-0.005	0.347
-743.142	144.055	0.187	0.254
-742.127	224.645	-0.104	0.171
-741.112	-41.763	0.203	0.106
-740.098	800.000	-0.150	0.529
-739.083	-82.948	-0.085	0.028
-738.069	340.610	-0.102	0.203
-737.054	143.221	0.239	0.324
-736.039	-92.857	-0.069	-0.020
-735.025	-200.000	0.009	0.256
-734.010	800.000	0.049	-0.142
-732.996	-18.734	-0.179	0.114
-731.981	-6.545	-0.072	-0.050
-730.966	748.111	0.018	0.050
-729.952	187.252	-0.095	-0.144
-728.937	-200.000	-0.105	-0.000
-727.923	-45.095	0.205	-0.104
-726.908	800.000	-0.024	0.094
-725.894	-200.000	0.023	-0.146
-724.879	493.493	0.048	-0.111
-723.864	86.736	-0.179	0.201
-722.850	-200.000	-0.011	0.062
-721.835	113.872	-0.110	-0.137
-720.821	-12.196	-0.201	-0.134
-719.806	-200.000	0.008	-0.245
-718.791	-145.697	0.100	-0.009
-717.777	47.948	0.116	0.111
-716.762	-47.260	0.234	0.116
-715.748	800.000	0.056	0.196
-714.733	-32.346	-0.117	0.066
-713.718	-200.000	-0.017	-0.092
-712.704	286.416	0.170	0.312
-711.689	-91.532	0.306	0.089
-710.675	91.913	0.071	-0.081
-709.660	28.673	0.165	-0.142
-708.645	800.000	-0.035	-0.124
-707.631	237.576	-0.066	-0.111
-706.616	43.725	0.197	0.183
-705.602	800.000	0.055	0.219
-704.587	-1.189	0.263	0.189
-703.572	132.965	0.045	-0.059
-702.558	137.016	-0.085	0.113
-701.543	800.000	0.120	0.390
-700.529	800.000	-0.024	-0.102
-699.514	84.490	0.101	0.112
-698.499	-17.087	0.182	-0.117
-697.485	252.565	-0.187	0.323
-696.470	-122.909	0.303	0.050
-695.456	800.000	0.027	-0.092
-694.441	-3.341	-0.163	0.115
-693.426	800.000	-0.085	0.329
-692.412	184.854	0.015	0.023
-691.397	-77.742	0.426	0.150
-690.383	800.000	-0.063	0.228
-689.368	-124.211	-0.072	0.011
-688.354	-74.062	-0.116	0.043
-687.339	-84.940	0.211	0.067
-686.324	3.987	0.228	-0.169
-685.310	-200.000	-0.015	-0.268
-684.295	269.364	0.040	0.071
-683.281	-200.000	-0.023	0.135
-682.266	-27.276	0.254	0.150
-681.251	-200.000	0.015	0.089
-680.237	201.192	-0.144	-0.225
-679.222	105.589	-0.215	0.258
-678.208	59.903	0.087	0.087
-677.193	70.982	0.196	0.207
-676.178	-21.343	-0.201	-0.125
-675.164	-70.380	0.333	-0.128
-674.149	191.340	0.089	-0.136
-673.135	57.419	-0.251	0.249
-672.120	-81.798	0.349	0.116
-671.105	-200.000	-0.044	-0.209
-670.091	800.000	-0.059	-0.241
-669.076	333.039	-0.037	-0.074
-668.062	-200.000	0.018	-0.251
-667.047	-144.435	0.133	-0.013
-666.032	800.000	-0.020	-0.083
-665.018	9.786	-0.289	0.222
-664.003	165.863	-0.031	-0.044
-662.989	-40.446	0.081	-0.043
-661.974	776.139	-0.101	0.279
-660.959	-41.112	-0.276	0.145
-659.945	411.482	0.102	0.219
-658.930	147.170	-0.110	0.151
-657.916	800.000	-0.087	0.263
-656.901	-14.800	-0.352	0.229
-655.886	-158.947	-0.070	-0.004
-654.872	316.591	0.087	-0.168
-653.857	800.000	-0.053	0.192
-652.843	-73.673	-0.030	-0.011
-651.828	-11.225	-0.146	0.097
-650.814	800.000	-0.051	0.202
-649.799	93.081	-0.129	0.148
-648.784	800.000	0.079	0.250
-647.770	39.061	-0.038	-0.034
-646.755	-93.098	-0.331	0.093
-645.741	-103.994	0.400	0.095
-644.726	241.312	0.038	-0.064
-643.711	-3.989	-0.071	-0.050
-642.697	-57.201	-0.165	0.074
-641.682	-72.327	-0.070	-0.026
-640.668	-108.566	-0.052	0.011
-639.653	-98.107	0.184	0.048
-638.638	66.095	0.159	0.163
-637.624	-65.257	0.102	0.042
-636.609	-200.000	-0.028	0.225
-635.595	-200.000	-0.043	0.287
-634.580	800.000	-0.017	0.069
-633.565	719.296	-0.022	-0.058
-632.551	102.588	0.174	-0.207
-631.536	-28.016	-0.143	0.084
-630.522	60.365	-0.085	0.085
-629.507	-51.526	-0.032	0.015
-628.492	174.961	-0.116	0.171
-627.478	-12.871	0.152	0.101
-626.463	14.480	0.271	-0.215
-625.449	-86.854	0.206	-0.064
-624.434	-117.143	0.214	-0.039
-623.419	-32.973	-0.027	0.015
-622.405	-143.712	-0.302	0.029
-621.390	19.998	-0.103	0.084
-620.376	-200.000	0.033	-0.533
-619.361	800.000	0.102	-0.346
-618.346	95.265	-0.185	-0.214
-617.332	-110.479	-0.281	0.059
-616.317	-45.993	-0.237	-0.118
-615.303	-113.428	0.175	0.035
-614.288	-200.000	0.342	0.002
-613.273	-105.650	0.110	0.025
-612.259	-103.574	0.183	0.044
-611.244	-200.000	0.019	0.137
-610.230	-200.000	-0.021	-0.279
-609.215	16.387	-0.188	-0.150
-608.201	172.293	0.034	-0.050
-607.186	271.797	-0.049	-0.087
-606.171	5.617	-0.159	-0.119
-605.157	-63.077	0.526	-0.220
-604.142	-1.422	-0.231	-0.165
-603.128	6.995	-0.258	-0.195
-602.113	-134.086	-0.163	-0.020
-601.098	800.000	0.058	0.177
-600.084	-48.150	0.215	-0.105
-599.069	-109.840	-0.453	-0.096
-598.055	112.334	-0.098	0.120
-597.040	63.189	-0.173	0.176
-596.025	192.261	0.052	-0.079
-595.011	-200.000	0.017	-0.117
-593.996	22.834	-0.229	0.190
-592.982	-200.000	-0.007	-0.179
-591.967	-200.000	-0.031	-0.198
-590.952	46.154	0.040	-0.037
-589.938	232.299	-0.074	0.122
-588.923	800.000	0.070	-0.275
-587.909	-74.199	-0.170	0.062
-586.894	-200.000	0.047	0.251
-585.879	461.184	-0.110	0.248
-584.865	-27.319	0.208	-0.122
-583.850	800.000	0.094	0.277
-582.836	-200.000	-0.060	0.277
-581.821	800.000	0.029	0.116
-580.806	-104.265	-0.068	-0.016
-579.792	79.487	-0.364	-0.395
-578.777	800.000	-0.024	-0.076
-577.763	164.939	-0.066	-0.094
-576.748	239.975	-0.179	0.301
-575.733	-26.171	-0.146	-0.087
-574.719	-119.837	-0.302	-0.053
-573.704	647.283	0.143	-0.369
-572.690	-23.938	0.058	-0.035
-571.675	82.306	-0.153	-0.168
-570.661	-200.000	0.023	0.145
-569.646	13.715	-0.157	-0.123
-568.631	-200.000	-0.063	0.397
-567.617	-200.000	-0.030	-0.161
-566.602	-78.301	-0.351	0.122
-565.588	222.629	-0.119	0.193
-564.573	-49.074	0.126	-0.061
-563.558	-200.000	-0.010	-0.245
-562.544	-200.000	0.047	0.217
-561.529	445.797	0.108	0.241
-560.515	100.748	-0.054	-0.063
-559.500	-47.819	0.134	0.066
-558.485	-6.263	-0.203	-0.140
-557.471	-200.000	-0.024	0.121
-556.456	-77.808	-0.283	-0.099
-555.442	314.646	0.096	-0.183
-554.427	800.000	-0.062	0.187
-553.412	-42.868	0.133	-0.068
-552.398	139.339	-0.074	0.098
-551.383	-200.000	0.022	0.203
-550.369	35.169	0.174	-0.154
-549.354	-141.253	-0.516	0.053
-548.339	-87.523	0.456	0.140
-547.325	-112.875	0.077	-0.015
-546.310	-92.375	-0.106	0.030
-545.296	-200.000	0.007	0.072
-544.281	-78.314	-0.132	-0.046
-543.266	-200.000	-0.020	0.120
-542.252	412.432	0.035	0.076
-541.237	514.865	-0.074	0.175
-540.223	112.867	-0.391	0.478
-539.208	-141.103	-0.211	-0.022
-538.193	800.000	-0.067	-0.188
-537.179	150.665	0.211	-0.290
-536.164	-6.528	-0.128	0.088
-535.150	-13.241	0.261	0.171
-534.135	633.082	-0.053	0.134
-533.121	43.527	-0.279	0.258
-532.106	81.880	-0.116	-0.127
-531.091	-200.000	0.028	-0.278
-530.077	37.279	-0.092	0.082
-529.062	-146.932	-0.173	0.015
-528.048	-200.000	0.005	-0.334
-527.033	-200.000	0.025	-0.663
-526.018	-61.631	0.121	-0.051
-525.004	542.024	0.029	-0.070
-523.989	-40.405	0.113	0.059
-522.975	-91.676	0.565	-0.162
-521.960	-137.855	-0.136	-0.015
-520.945	-200.000	-0.016	0.278
-519.931	168.858	0.089	-0.128
-518.916	-85.772	0.145	-0.045
-517.902	800.000	-0.046	-0.185
-516.887	302.589	0.073	-0.137
-515.872	68.216	-0.301	0.311
-514.858	-18.059	-0.261	0.165
-513.843	-156.113	0.165	0.011
-512.829	499.233	0.056	-0.131
-511.814	727.564	-0.088	-0.237
-510.799	-130.026	-0.194	0.027
-509.785	-171.948	-0.099	0.003
-508.770	-113.750	0.262	0.051
-507.756	-200.000	-0.007	0.190
-506.741	-21.744	0.261	0.160
-505.726	-200.000	-0.001	-0.106
-504.712	175.111	0.089	-0.130
-503.697	-89.104	-0.096	0.029
-502.683	-53.559	-0.306	-0.141
-501.668	800.000	-0.126	-0.380
-500.653	-15.550	-0.164	0.106
-499.639	800.000	-0.064	0.225
-498.624	65.435	0.123	0.126
-497.610	-71.731	-0.097	-0.036
-496.595	11.179	0.305	0.235
-495.581	800.000	0.030	0.120
-494.566	502.443	0.067	0.157
-493.551	-26.931	-0.200	-0.118
-492.537	-2.083	0.136	0.097
-491.522	604.538	0.077	-0.194
-490.508	-79.062	-0.353	-0.121
-489.493	-27.586	0.193	0.113
-488.478	100.635	-0.268	0.314
-487.464	-56.520	0.324	0.145
-486.449	800.000	0.050	0.204
-485.435	-172.647	-0.193	-0.006
-484.420	208.096	-0.125	0.197
-483.405	-98.371	0.121	-0.031
-482.391	-150.401	-0.061	-0.005
-481.376	-200.000	0.005	-0.153
-480.362	328.086	-0.031	-0.060
-479.347	-200.000	-0.088	-0.453
-478.332	-81.031	0.075	-0.025
-477.318	-200.000	0.054	-0.429
-476.303	-135.059	-0.067	-0.008
-475.289	-125.720	0.200	-0.030
-474.274	-200.000	0.041	-0.248
-473.259	192.072	0.314	-0.477
-472.245	-88.595	-0.193	-0.058
-471.230	-200.000	-0.014	-0.088
-470.216	-157.078	0.016	-0.001
-469.201	-131.467	0.145	0.019
-468.186	51.577	-0.147	-0.140
-467.172	-14.341	0.124	0.080
-466.157	55.815	-0.064	0.063
-465.143	-200.000	0.348	0.001
-464.128	-111.116	0.179	0.037
-463.113	125.464	0.297	-0.377
-462.099	-46.793	-0.066	-0.032
-461.084	800.000	0.011	0.032
-460.070	129.691	0.265	0.341
-459.055	-200.000	-0.003	-0.045
-458.040	-111.736	-0.449	0.092
-457.026	117.148	-0.196	-0.243
-456.011	-200.000	-0.024	0.408
-454.997	800.000	-0.064	0.281
-453.982	-200.000	0.011	0.313
-452.968	-30.287	0.273	0.156
-451.953	-4.379	-0.165	0.115
-450.938	104.482	-0.255	0.302
-449.924	-27.710	-0.180	-0.105
-448.909	-200.000	-0.040	-0.486
-447.895	748.026	-0.069	-0.187
-446.880	376.641	0.048	0.099
-445.865	569.819	0.142	0.347
-444.851	268.838	-0.141	-0.249
-443.836	401.715	-0.065	-0.136
-442.822	406.379	0.052	-0.109
-441.807	-200.000	-0.029	0.155
-440.792	40.786	-0.066	0.060
-439.778	-95.766	0.237	-0.064
-438.763	11.332	0.136	-0.105
-437.749	-200.000	-0.011	0.266
-436.734	497.142	0.039	-0.090
-435.719	-10.557	-0.210	-0.140
-434.705	-136.122	0.374	-0.044
-433.690	-21.132	-0.016	-0.010
-432.676	-200.000	-0.006	-0.048
-431.661	-167.574	0.135	0.005
-430.646	-47.289	-0.104	0.051
-429.632	-63.898	0.123	-0.051
-428.617	52.929	-0.077	-0.074
-427.603	-102.863	-0.465	0.111
-426.588	800.000	-0.040	0.174
-425.573	-200.000	-0.057	0.336
-424.559	800.000	-0.005	0.021
-423.544	-200.000	0.013	0.098
-422.530	-115.392	0.023	0.004
-421.515	205.455	-0.269	0.420
-420.500	649.898	0.075	-0.193
-419.486	123.462	-0.195	0.245
-418.471	-152.057	-0.172	0.013
-417.457	-182.318	-0.180	-0.003
-416.442	19.692	-0.040	0.032
-415.428	390.038	0.195	0.407
-414.413	800.000	0.024	-0.068
-413.398	258.545	-0.041	-0.071
-412.384	-175.122	0.270	0.008
-411.369	203.927	-0.142	0.222
-410.355	-174.368	-0.098	-0.003
-409.340	715.938	0.131	-0.348
-408.325	16.815	0.331	-0.263
-407.311	-61.416	-0.134	-0.056
-406.296	800.000	-0.040	0.159
-405.282	-97.929	0.201	0.052
-404.267	86.090	-0.123	0.136
-403.252	-15.689	0.223	-0.143
-402.238	-158.412	-0.426	-0.025
-401.223	-145.777	-0.274	0.025
-400.209	-200.000	0.010	0.049
-399.194	-81.662	-0.322	0.106
-398.179	-200.000	-0.028	-0.166
-397.165	-52.107	0.344	0.161
-396.150	685.623	0.059	0.154
-395.136	-200.000	0.059	-0.379
-394.121	46.074	-0.145	-0.135
-393.106	-200.000	-0.047	-0.256
-392.092	74.545	0.169	0.178
-391.077	-36.483	0.089	0.048
-390.063	800.000	-0.050	0.202
-389.048	584.176	-0.145	-0.358
-388.033	401.565	-0.067	-0.142
-387.019	-200.000	-0.018	0.374
-386.004	-143.571	0.143	-0.014
-384.990	5.820	0.153	-0.113
-383.975	707.987	-0.125	0.331
-382.960	-200.000	-0.031	-0.339
-381.946	151.327	-0.039	-0.053
-380.931	721.476	0.058	-0.155
-379.917	-23.448	-0.125	0.076
-378.902	368.784	0.068	-0.138
-377.888	158.469	-0.104	0.145
-376.873	39.390	-0.123	-0.111
-375.858	21.948	-0.198	-0.162
-374.844	740.803	0.075	-0.202
-373.829	81.458	-0.112	-0.122
-372.815	-200.000	-0.031	-0.193
-371.800	212.811	0.121	0.192
-370.785	-42.385	0.102	0.052
-369.771	111.935	-0.160	0.194
-368.756	-23.938	0.221	0.133
-367.742	620.959	0.123	0.311
-366.727	-43.059	-0.087	0.044
-365.712	70.349	-0.206	0.213
-364.698	253.544	-0.033	0.057
-363.683	194.874	0.077	0.118
-362.669	2.723	-0.129	-0.094
-361.654	-65.413	0.209	0.084
-360.639	-36.666	-0.130	0.070
-359.625	6.856	0.100	-0.075
-358.610	57.669	0.113	-0.111
-357.596	-52.276	0.210	-0.097
-356.581	-22.606	0.308	-0.187
-355.566	-200.000	-0.249	-0.001
-354.552	58.188	0.163	0.160
-353.537	-1.901	0.163	0.115
-352.523	-7.715	0.132	-0.090
-351.508	-200.000	-0.021	-0.511
-350.493	-107.850	-0.126	-0.027
-349.479	800.000	-0.026	-0.084
-348.464	-85.075	-0.173	-0.054
-347.450	-123.671	0.129	-0.021
-346.435	-163.152	-0.054	-0.003
-345.420	-133.423	-0.324	0.041
-344.406	-18.147	0.156	0.098
-343.391	-184.823	-0.286	0.005
-342.377	-123.341	-0.238	0.038
-341.362	800.000	0.099	0.327
-340.348	-94.112	-0.126	-0.035
-339.333	56.209	0.358	0.348
-338.318	-78.633	-0.233	-0.080
-337.304	92.534	0.153	-0.173
-336.289	81.326	0.292	0.316
-335.275	-200.000	0.005	-0.283
-334.260	800.000	0.138	-0.398
-333.245	540.661	0.044	-0.104
-332.231	427.186	-0.026	0.056
-331.216	210.663	-0.042	-0.066
-330.202	47.509	-0.151	-0.141
-329.187	-200.000	0.030	0.183
-328.172	-200.000	0.077	-0.477
-327.158	-54.044	0.234	0.107
-326.143	-68.413	0.143	-0.056
-325.129	-31.154	-0.331	-0.187
-324.114	-87.930	-0.270	0.081
-323.099	37.287	0.166	0.148
-322.085	800.000	0.067	0.185
-321.070	577.947	-0.137	-0.335
-320.056	-63.857	-0.157	0.064
-319.041	800.000	-0.159	-0.538
-318.026	743.195	0.108	-0.291
-317.012	-38.182	-0.272	-0.145
-315.997	-200.000	0.007	0.125
-314.983	-92.329	0.282	0.080
-313.968	612.444	-0.062	-0.155
-312.953	45.048	0.149	0.138
-311.939	-76.581	-0.155	0.055
-310.924	-200.000	-0.001	-0.188
-309.910	795.175	0.161	-0.443
-308.895	-107.875	0.238	-0.052
-307.880	131.039	-0.162	-0.208
-306.866	169.006	0.072	-0.102
-305.851	364.693	0.153	-0.308
-304.837	32.867	-0.179	-0.155
-303.822	-200.000	-0.010	-0.077
-302.807	800.000	-0.043	0.165
-301.793	-200.000	0.027	0.310
-300.778	-200.000	0.047	-0.214
-299.764	-152.803	0.066	0.005
-298.749	321.988	-0.139	-0.265
-297.735	205.421	-0.116	-0.181
-296.720	-17.669	-0.247	-0.155
-295.705	572.380	-0.072	-0.176
-294.691	327.049	0.067	0.129
-293.676	65.310	-0.124	0.125
-292.662	40.017	-0.138	0.124
-291.647	-64.141	-0.136	-0.055
-290.632	-61.503	0.293	0.123
-289.618	27.077	0.217	0.182
-288.603	-83.894	0.144	-0.046
-287.589	34.882	-0.063	-0.055
-286.574	-122.451	-0.085	0.014
-285.559	304.316	-0.210	-0.390
-284.545	-121.265	-0.192	0.032
-283.530	-134.587	-0.212	0.026
-282.516	-200.000	0.007	0.060
-281.501	800.000	0.158	0.440
-280.486	178.546	0.140	0.204
-279.472	21.404	-0.120	-0.098
-278.457	93.125	0.118	-0.133
-277.443	-71.653	0.244	0.091
-276.428	800.000	0.033	-0.105
-275.413	-200.000	0.063	0.390
-274.399	371.860	0.125	0.253
-273.384	91.492	-0.248	0.279
-272.370	800.000	0.084	0.233
-271.355	-82.614	-0.172	-0.056
-270.340	184.879	-0.026	0.039
-269.326	800.000	0.053	-0.153
-268.311	278.264	0.097	-0.172
-267.297	-7.635	0.201	0.136
-266.282	237.243	0.089	0.148
-265.267	-76.305	0.196	0.069
-264.253	-25.744	0.159	-0.094
-263.238	-164.001	0.059	-0.003
-262.224	686.887	0.096	0.250
-261.209	83.267	0.206	0.224
-260.195	-200.000	-0.002	-0.145
-259.180	-77.117	0.177	-0.062
-258.165	-200.000	-0.005	0.438
-257.151	-33.325	-0.077	-0.042
-256.136	-18.324	-0.251	-0.157
-255.122	213.552	-0.153	0.242
-254.107	800.000	-0.030	0.087
-253.092	-76.941	0.226	-0.079
-252.078	60.749	0.267	-0.265
-251.063	-45.845	0.126	0.062
-250.049	-142.957	0.112	0.011
-249.034	231.944	-0.068	-0.112
-248.019	340.377	-0.098	-0.190
-247.005	-68.947	-0.197	-0.076
-245.990	-24.939	-0.240	0.142
-244.976	-115.232	-0.238	0.045
-243.961	122.845	-0.069	-0.086
-242.946	137.727	0.166	-0.217
-241.932	-200.000	-0.003	-0.176
-240.917	-200.000	-0.023	-0.255
-239.903	-200.000	-0.029	0.183
-238.888	91.967	-0.086	0.097
-237.873	12.442	-0.261	-0.201
-236.859	-18.750	0.397	-0.247
-235.844	-29.222	-0.200	0.114
-234.830	-68.012	0.041	-0.016
-233.815	-19.289	-0.269	-0.166
-232.800	468.489	0.090	0.201
-231.786	431.424	0.051	-0.111
-230.771	-66.695	-0.171	0.067
-229.757	-89.847	0.110	-0.032
-228.742	128.622	-0.120	0.153
-227.727	-82.109	-0.250	-0.081
-226.713	-117.533	0.511	0.092
-225.698	525.991	-0.042	0.099
-224.684	-156.607	0.220	-0.014
-223.669	-200.000	0.052	-0.266
-222.655	435.641	-0.037	-0.080
-221.640	111.619	0.095	0.115
-220.625	-173.246	0.397	0.012
-219.611	-44.407	0.288	0.144
-218.596	-112.908	0.210	-0.042
-217.582	174.922	0.057	-0.082
-216.567	54.454	-0.206	0.198
-215.552	-5.142	0.131	-0.090
-214.538	243.653	-0.065	0.109
-213.523	800.000	-0.038	-0.125
-212.509	111.975	-0.079	-0.095
-211.494	-149.133	0.140	-0.011
-210.479	-35.465	-0.113	-0.061
-209.465	152.602	0.129	0.176
-208.450	432.085	0.051	-0.111
-207.436	-200.000	0.002	-0.152
-206.421	-71.496	0.170	0.063
-205.406	48.945	0.106	-0.099
-204.392	75.082	0.153	0.160
-203.377	-25.669	-0.067	-0.039
-202.363	-200.000	0.047	-0.499
-201.348	-191.211	-0.148	-0.002
-200.333	125.651	0.283	-0.356
-199.319	-21.920	0.115	0.069
-198.304	797.558	-0.046	-0.126
-197.290	-142.506	0.133	0.013
-196.275	80.817	0.201	-0.216
-195.260	-109.452	0.361	0.076
-194.246	-200.000	0.058	0.335
-193.231	-17.358	0.218	0.137
-192.217	800.000	0.055	0.237
-191.202	771.535	0.159	0.430
-190.187	-200.000	-0.037	0.319
-189.173	-200.000	0.039	-0.645
-188.158	-200.000	0.007	-0.139
-187.144	56.754	0.258	0.251
-186.129	-65.739	-0.036	-0.014
-185.114	124.202	-0.286	0.358
-184.100	61.148	0.289	0.286
-183.085	-31.572	-0.063	0.035
-182.071	631.155	0.077	0.194
-181.056	-50.951	-0.367	0.172
-180.042	800.000	-0.018	0.076
-179.027	30.806	0.072	-0.062
-178.012	549.481	0.052	0.124
-176.998	800.000	-0.027	0.109
-175.983	390.344	0.047	-0.098
-174.969	183.401	0.137	0.201
-173.954	-57.822	0.296	-0.129
-172.939	190.279	-0.180	-0.269
-171.925	-200.000	0.014	-0.392
-170.910	-7.142	-0.133	0.090
-169.896	-66.211	-0.355	0.141
-168.881	-27.142	0.070	0.040
-167.866	800.000	0.103	0.304
-166.852	24.370	-0.069	-0.057
-165.837	-144.874	0.196	0.018
-164.823	-200.000	-0.099	0.644
-163.808	-112.502	0.119	0.024
-162.793	800.000	0.067	0.227
-161.779	800.000	-0.054	0.152
-160.764	-88.996	0.267	0.079
-159.750	174.902	-0.088	-0.127
-158.735	-29.540	-0.072	-0.041
-157.720	800.000	0.055	0.197
-156.706	800.000	0.024	-0.101
-155.691	-200.000	-0.015	0.281
-154.677	-44.413	-0.245	0.122
-153.662	-185.861	0.337	-0.005
-152.647	439.973	0.126	0.274
-151.633	800.000	0.075	-0.252
-150.618	192.539	0.263	-0.395
-149.604	-15.395	0.321	0.204
-148.589	-12.919	-0.140	-0.090
-147.574	-200.000	-0.034	-0.174
-146.560	-200.000	0.035	0.332
-145.545	62.824	-0.036	0.036
-144.531	-32.082	0.241	0.134
-143.516	-161.355	0.411	-0.021
-142.502	357.882	-0.192	-0.382
-141.487	-200.000	0.005	0.110
-140.472	-129.703	-0.341	0.047
-139.458	331.384	0.108	0.208
-138.443	-158.619	0.252	-0.014
-137.429	-200.000	0.027	0.150
-136.414	-200.000	-0.007	0.409
-135.399	117.857	0.257	0.314
-134.385	-7.117	0.265	0.179
-133.370	8.541	-0.151	0.113
-132.356	-200.000	-0.068	0.513
-131.341	-200.000	-0.009	0.077
-130.326	35.098	0.070	0.061
-129.312	-101.648	-0.186	0.045
-128.297	800.000	-0.098	0.273
-127.283	-200.000	0.012	-0.290
-126.268	-189.208	-0.204	-0.002
-125.253	291.974	-0.066	-0.119
-124.239	-200.000	-0.059	0.298
-123.224	-7.690	-0.248	-0.167
-122.210	-122.240	-0.360	-0.059
-121.195	-27.607	-0.126	0.073
-120.180	-200.000	0.078	0.597
-119.166	-114.984	-0.147	-0.028
-118.151	-139.103	0.108	-0.012
-117.137	-200.000	-0.008	-0.129
-116.122	-200.000	-0.067	0.293
-115.107	-200.000	-0.044	-0.226
-114.093	-200.000	-0.012	0.315
-113.078	-200.000	-0.038	0.187
-112.064	-200.000	-0.006	-0.057
-111.049	-5.690	-0.265	0.180
-110.034	397.226	0.048	0.100
-109.020	-66.968	0.214	0.084
-108.005	124.789	-0.221	-0.277
-106.991	46.865	0.327	-0.302
-105.976	-144.723	0.207	-0.019
-104.962	1.279	0.087	-0.062
-103.947	800.000	-0.085	0.261
-102.932	346.319	0.052	0.101
-101.918	87.172	0.090	-0.099
-100.903	-30.447	0.277	0.156
-99.889	-39.993	-0.210	0.109
-98.874	385.190	0.119	-0.244
-97.859	23.870	0.231	0.189
-96.845	119.750	0.194	-0.238
-95.830	800.000	0.029	-0.089
-94.816	31.852	-0.303	0.259
-93.801	-61.713	-0.168	-0.070
-92.786	169.334	-0.169	-0.240
-91.772	24.391	0.094	0.077
-90.757	-95.258	0.435	0.116
-89.743	385.626	0.062	0.126
-88.728	311.063	-0.058	0.108
-87.713	-142.544	-0.350	-0.034
-86.699	426.764	0.075	-0.161
-85.684	800.000	-0.035	0.117
-84.670	-124.513	0.248	-0.038
-83.655	-47.613	-0.131	-0.063
-82.640	-141.048	-0.236	-0.024
-81.626	370.424	-0.116	-0.233
-80.611	231.301	0.216	0.351
-79.597	800.000	0.035	0.126
-78.582	-103.395	-0.041	0.010
-77.567	201.040	-0.072	0.111
-76.553	-160.910	-0.149	-0.008
-75.538	-156.028	0.248	0.016
-74.524	-98.825	0.131	-0.033
-73.509	165.433	0.224	-0.313
-72.494	-72.586	0.317	0.116
-71.480	800.000	0.102	0.418
-70.465	137.766	0.154	0.200
-69.451	-135.993	0.015	0.002
-68.436	800.000	-0.090	0.259
-67.422	-35.415	-0.196	0.106
-66.407	-129.046	-0.025	0.003
-65.392	219.181	-0.111	0.176
-64.378	-151.401	-0.214	0.016
-63.363	43.347	0.179	-0.162
-62.349	91.779	0.134	0.150
-61.334	145.845	-0.704	-0.936
-60.319	176.031	-0.102	-0.146
-59.305	800.000	-0.154	-0.613
-58.290	510.661	0.469	1.083
-57.276	288.271	0.925	1.660
-56.261	-200.000	89.653	510.070
-55.246	487.682	1373.593	3107.118
-54.232	150.589	2578.924	3472.088
-53.217	114.961	2185.227	2642.065
-52.203	48.666	1641.557	1525.104
-51.188	40.897	1375.885	1230.388
-50.173	37.605	1332.434	1171.708
-49.159	57.401	1377.825	1333.160
-48.144	62.123	1397.202	1380.737
-47.130	41.226	1352.692	1211.458
-46.115	37.581	1335.203	1173.812
-45.100	37.357	1330.026	1167.866
-44.086	37.302	1327.727	1165.474
-43.071	37.273	1325.603	1163.388
-42.057	37.215	1323.534	1161.177
-41.042	37.279	1322.234	1160.377
-40.027	37.249	1320.924	1158.997
-39.013	37.389	1318.671	1157.811
-37.998	37.281	1316.979	1155.639
-36.984	37.404	1314.776	1154.389
-35.969	37.418	1313.082	1152.940
-34.954	37.494	1311.010	1151.523
-33.940	37.359	1309.852	1149.663
-32.925	37.452	1308.309	1148.810
-31.911	37.572	1307.376	1148.655
-30.896	37.456	1305.981	1146.702
-29.881	37.600	1304.143	1145.890
-28.867	37.553	1302.801	1144.391
-27.852	37.512	1301.422	1142.892
-26.838	37.452	1299.857	1141.119
-25.823	37.623	1298.232	1140.649
-24.809	37.564	1296.992	1139.171
-23.794	37.525	1295.604	1137.677
-22.779	37.447	1293.984	1135.755
-21.765	37.526	1292.862	1135.187
-20.750	37.425	1291.391	1133.261
-19.736	37.458	1290.118	1132.290
-18.721	37.336	1289.443	1130.941
-17.706	37.391	1288.042	1129.987
-16.692	37.353	1286.833	1128.662
-15.677	37.403	1285.464	1127.708
-14.663	37.338	1284.472	1126.413
-13.648	37.415	1283.228	1125.724
-12.633	37.322	1282.006	1124.067
-11.619	37.398	1281.407	1123.937
-10.604	37.299	1280.856	1122.838
-9.590	37.431	1279.721	1122.561
-8.575	37.395	1278.619	1121.345
-7.560	37.353	1277.988	1120.504
-6.546	37.273	1277.111	1119.227
-5.531	37.360	1275.983	1118.698
-4.517	37.407	1274.898	1117.969
-3.502	37.344	1274.246	1116.995
-2.487	37.311	1273.079	1115.738
-1.473	37.348	1268.524	1111.913
-0.458	35.314	1253.084	1086.818
0.556	31.265	1232.490	1038.820
1.571	26.469	1235.869	1014.745
2.586	24.959	1250.358	1017.976
3.600	24.015	1239.249	1003.522
4.615	17.643	1165.608	909.895
5.629	7.588	1086.823	798.023
6.644	2.949	1065.415	759.347
7.659	2.593	1062.403	755.379
8.673	2.248	1060.958	752.585
9.688	2.402	1058.978	751.870
10.702	2.781	1057.981	752.957
11.717	8.569	1066.862	787.787
12.731	18.769	1081.360	849.102
13.746	24.536	1088.559	883.293
14.761	25.815	1090.478	891.107
15.775	26.041	1089.509	891.352
16.790	25.741	1088.634	889.074
17.804	25.780	1088.049	888.712
18.819	25.720	1088.269	888.516
19.834	26.025	1087.163	889.039
20.848	25.930	1087.471	888.741
21.863	26.012	1086.810	888.526
22.877	25.875	1085.793	886.946
23.892	25.874	1085.154	886.339
24.907	25.895	1083.998	885.418
25.921	25.889	1083.376	884.802
26.936	25.947	1082.016	883.898
27.950	25.939	1080.254	882.340
28.965	25.818	1078.502	880.243
29.980	25.856	1077.101	879.206
30.994	26.028	1076.158	879.195
32.009	25.988	1075.250	878.185
33.023	25.735	1073.949	875.810
34.038	25.845	1073.321	875.755
35.053	26.021	1072.855	876.154
36.067	26.059	1071.624	875.255
37.082	26.151	1070.940	875.064
38.096	26.194	1070.864	875.136
39.111	26.119	1070.174	874.131
40.126	26.182	1068.125	872.682
41.140	25.740	1066.587	869.217
42.155	25.581	1065.178	867.224
43.169	25.578	1064.632	866.690
44.184	25.540	1063.966	865.889
45.199	25.369	1062.632	863.903
46.213	25.607	1062.225	864.641
47.228	25.647	1061.630	864.272
48.242	25.779	1060.119	863.598
49.257	25.876	1059.722	863.663
50.271	25.925	1059.013	863.243
51.286	25.940	1058.064	862.464
52.301	25.994	1057.222	861.959
53.315	25.890	1056.281	860.618
54.330	25.789	1055.780	859.654
55.344	26.010	1054.313	859.438
56.359	25.826	1053.778	858.049
57.374	25.622	1052.795	856.202
58.388	25.656	1052.459	856.014
59.403	25.629	1051.261	854.837
60.417	25.369	1050.679	853.053
61.432	25.538	1049.726	853.003
62.447	25.682	1049.214	853.194
63.461	25.754	1047.849	852.349
64.476	25.657	1047.471	851.510
65.490	25.489	1046.347	849.723
66.505	25.561	1045.820	849.563
67.520	25.648	1044.922	849.166
68.534	25.501	1044.009	847.658
69.549	25.135	1042.976	845.019
70.563	25.210	1042.087	844.577
71.578	25.129	1041.364	843.537
72.593	24.959	1040.462	841.933
73.607	25.153	1039.993	842.389
74.622	25.514	1039.285	843.434
75.636	25.419	1038.916	842.617
76.651	25.369	1037.936	841.512
77.666	25.268	1037.272	840.424
78.680	25.403	1036.368	840.249
79.695	25.484	1036.009	840.264
80.709	25.414	1035.625	839.551
81.724	25.492	1034.761	839.142
82.739	25.674	1033.594	838.971
83.753	25.944	1033.409	840.002
84.768	26.294	1032.332	840.680
85.782	26.175	1031.993	839.779
86.797	26.281	1030.361	838.869
87.812	26.109	1029.106	836.974
88.826	26.072	1029.257	836.853
89.841	26.311	1027.681	836.604
90.855	26.245	1027.070	835.726
91.870	26.089	1026.177	834.205
92.884	26.004	1025.443	833.141
93.899	25.898	1024.477	831.791
94.914	26.146	1023.542	832.101
95.928	25.926	1022.314	830.020
96.943	25.656	1020.987	827.627
97.957	25.584	1019.518	826.033
98.972	25.355	1018.560	824.131
99.987	25.663	1018.323	825.281
101.001	25.777	1017.754	825.268
102.016	25.903	1016.630	824.858
103.030	25.819	1015.534	823.512
104.045	25.706	1014.780	822.315
105.060	25.569	1013.772	820.799
106.074	25.486	1013.303	819.967
107.089	25.878	1012.739	821.224
108.103	25.749	1011.739	819.753
109.118	25.605	1010.007	817.623
110.133	25.694	1008.860	817.026
111.147	25.460	1008.141	815.310
112.162	25.375	1007.097	814.008
113.176	25.646	1006.727	814.868
114.191	25.394	1006.198	813.226
115.206	25.115	1004.736	810.711
116.220	25.204	1003.749	810.246
117.235	25.305	1003.091	810.095
118.249	25.279	1002.269	809.242
119.264	25.175	1001.448	808.041
120.279	25.240	1000.843	807.772
121.293	25.214	999.980	806.891
122.308	25.346	999.159	806.748
123.322	25.280	997.774	805.264
124.337	25.167	996.560	803.704
125.352	24.658	994.995	800.096
126.366	24.473	994.256	798.602
127.381	25.317	994.430	802.445
128.395	25.640	994.440	803.827
129.410	25.808	993.243	803.538
130.424	25.940	991.719	802.818
131.439	25.803	991.297	801.796
132.454	25.896	990.510	801.506
133.468	25.855	989.147	800.147
134.483	25.937	988.965	800.292
135.497	26.146	987.899	800.286
136.512	26.155	987.021	799.546
137.527	26.060	986.591	798.705
138.541	26.102	985.793	798.173
139.556	25.971	985.088	796.954
140.570	26.140	984.189	796.900
141.585	26.271	982.749	796.245
142.600	26.074	981.879	794.602
143.614	26.391	981.443	795.571
144.629	26.426	980.717	795.066
145.643	26.272	979.328	793.193
146.658	26.114	977.691	791.106
147.673	26.003	976.715	789.762
148.687	26.041	975.761	789.085
149.702	25.917	974.509	787.464
150.716	25.920	973.634	786.698
151.731	25.939	973.348	786.481
152.746	26.201	972.640	786.981
153.760	26.300	971.997	786.820
154.775	26.233	971.595	786.137
155.789	26.265	970.682	785.465
156.804	26.180	970.032	784.502
157.819	26.305	968.484	783.722
158.833	26.430	968.320	784.064
159.848	26.363	967.427	782.979
160.862	26.169	966.227	781.099
161.877	26.302	964.840	780.486
162.892	26.324	964.000	779.828
163.906	26.218	963.034	778.525
164.921	26.153	962.448	777.699
165.935	26.146	961.303	776.677
166.950	26.235	960.156	776.063
167.964	26.267	959.226	775.379
168.979	25.967	958.655	773.564
169.994	25.974	957.431	772.536
171.008	26.295	957.005	773.498
172.023	26.358	955.924	772.828
173.037	26.105	955.090	771.005
174.052	25.825	954.440	769.213
175.067	25.938	953.946	769.232
176.081	26.072	953.228	769.153
177.096	25.934	952.789	768.145
178.110	25.808	951.475	766.482
179.125	25.562	950.664	764.713
180.140	25.604	950.656	764.818
181.154	25.682	950.397	764.873
182.169	25.988	950.253	765.991
183.183	26.139	949.740	766.151
184.198	26.221	948.378	765.332
185.213	26.031	947.823	764.011
186.227	26.047	947.801	763.993
187.242	26.209	946.648	763.680
188.256	26.306	946.070	763.560
189.271	26.439	945.233	763.375
190.286	26.038	944.381	760.928
191.300	25.392	942.347	756.505
192.315	24.558	940.954	751.810
193.329	24.509	940.537	751.203
194.344	25.429	941.217	755.553
195.359	25.967	941.205	757.738
196.373	26.239	940.729	758.428
197.388	26.102	940.128	757.300
198.402	26.079	939.493	756.628
199.417	26.160	938.573	756.157
200.432	25.895	937.826	754.379
201.446	25.695	936.945	752.767
202.461	25.863	936.403	752.968
203.475	24.894	934.751	747.528
204.490	24.119	932.997	742.828
205.504	24.965	933.777	746.914
206.519	25.730	933.324	749.674
207.534	25.720	933.079	749.370
208.548	26.209	932.916	751.206
209.563	25.917	932.141	749.301
210.577	25.941	931.412	748.750
211.592	26.367	930.968	750.095
212.607	26.291	930.468	749.308
213.621	26.280	929.996	748.816
214.636	26.258	929.250	748.061
215.650	26.204	928.425	747.104
216.665	26.421	927.781	747.420
217.680	26.246	926.965	745.973
218.694	25.867	925.690	743.319
219.709	25.717	925.088	742.147
220.723	25.931	925.496	743.295
221.738	25.998	924.818	742.958
222.753	26.023	923.853	742.221
223.767	26.216	923.122	742.363
224.782	26.415	922.895	742.933
225.796	26.269	922.788	742.180
226.811	25.713	920.809	738.242
227.826	25.046	919.549	734.433
228.840	25.242	919.015	734.747
229.855	25.369	918.389	734.701
230.869	25.057	917.237	732.439
231.884	25.465	917.440	734.201
232.899	26.111	917.824	737.083
233.913	26.010	916.922	735.884
234.928	25.948	916.548	735.264
235.942	26.022	915.619	734.756
236.957	25.720	914.789	732.793
237.972	25.792	913.709	732.157
238.986	25.821	913.803	732.288
240.001	25.685	913.252	731.228
241.015	25.805	912.940	731.399
242.030	26.064	912.193	731.788
243.045	26.120	911.851	731.676
244.059	26.299	911.047	731.692
245.074	25.920	910.775	729.873
246.088	25.777	909.281	728.033
247.103	26.057	909.147	728.991
248.117	26.563	909.345	731.133
249.132	26.773	909.014	731.650
250.147	26.959	908.077	731.581
251.161	26.968	908.041	731.521
252.176	27.109	907.310	731.436
253.190	27.084	906.699	730.779
254.205	27.299	906.094	731.090
255.220	27.126	905.705	730.016
256.234	26.991	905.063	728.891
257.249	27.047	904.020	728.214
258.263	26.981	903.507	727.472
259.278	27.082	902.556	727.046
260.293	27.030	902.332	726.591
261.307	27.092	901.115	725.794
262.322	26.844	900.535	724.273
263.336	26.102	898.717	719.789
264.351	24.937	897.222	713.885
265.366	25.146	896.690	714.233
266.380	26.363	897.323	719.519
267.395	26.676	896.970	720.418
268.409	26.478	896.705	719.356
269.424	26.832	896.081	720.199
270.439	26.869	895.757	720.020
271.453	26.995	894.575	719.505
272.468	27.024	894.676	719.638
273.482	27.156	893.831	719.416
274.497	26.661	892.840	716.598
275.512	26.308	892.166	714.599
276.526	26.690	892.015	715.925
277.541	26.918	891.724	716.526
278.555	26.627	890.926	714.675
279.570	26.503	889.965	713.353
280.585	26.664	889.293	713.383
281.599	26.589	888.733	712.577
282.614	26.002	887.579	709.280
283.628	26.068	887.332	709.281
284.643	26.541	886.716	710.584
285.657	26.042	885.747	707.784
286.672	25.804	884.876	706.094
287.687	26.235	884.964	707.792
288.701	26.436	884.357	708.029
289.716	26.071	883.295	705.690
290.730	25.933	882.791	704.687
291.745	25.669	881.853	702.841
292.760	26.158	881.481	704.393
293.774	27.023	882.261	708.329
294.789	27.365	881.930	709.334
295.803	27.288	881.209	708.393
296.818	27.406	880.498	708.216
297.833	26.884	879.591	705.395
298.847	26.843	878.822	704.556
299.862	27.003	878.991	705.253
300.876	27.412	878.131	706.084
301.891	27.231	877.527	704.836
302.906	26.939	876.198	702.576
303.920	26.880	876.367	702.421
304.935	27.435	875.776	704.032
305.949	27.310	875.282	703.092
306.964	27.051	874.334	701.267
307.979	27.092	874.131	701.199
308.993	27.516	873.588	702.337
310.008	27.446	873.547	701.973
311.022	27.159	872.915	700.294
312.037	26.982	872.182	698.963
313.052	26.784	870.791	697.027
314.066	25.790	869.671	692.250
315.081	25.701	868.379	690.818
316.095	26.542	868.981	694.465
317.110	26.832	868.714	695.301
318.125	26.058	866.980	690.889
319.139	25.009	865.801	685.877
320.154	24.979	865.207	685.231
321.168	26.042	865.602	689.548
322.183	26.610	865.973	691.953
323.197	26.733	865.855	692.268
324.212	27.024	865.628	693.136
325.227	27.118	864.550	692.568
326.241	27.080	863.838	691.794
327.256	26.952	863.159	690.703
328.270	26.834	861.944	689.221
329.285	26.579	861.608	687.921
330.300	26.328	861.028	686.445
331.314	26.578	860.939	687.260
332.329	26.921	860.983	688.538
333.343	27.113	860.675	688.959
334.358	27.121	860.345	688.662
335.373	27.182	859.751	688.359
336.387	27.573	859.216	689.349
337.402	27.697	859.494	689.978
338.416	27.531	859.024	688.912
339.431	27.670	858.627	689.059
340.446	27.885	858.173	689.447
341.460	27.845	857.640	688.807
342.475	27.542	857.120	687.184
343.489	27.601	856.775	687.070
344.504	27.886	856.818	688.117
345.519	28.082	856.377	688.439
346.533	27.963	855.853	687.509
347.548	28.015	855.318	687.214
348.562	28.012	854.262	686.296
349.577	27.937	854.101	685.823
350.592	27.883	853.380	684.979
351.606	28.008	852.702	684.844
352.621	27.743	851.916	683.160
353.635	27.547	851.012	681.643
354.650	27.189	849.216	678.806
355.665	26.179	848.116	674.100
356.679	26.558	847.630	675.067
357.694	26.913	847.530	676.249
358.708	26.914	846.821	675.629
359.723	27.309	847.008	677.189
360.738	27.687	846.264	677.939
361.752	27.734	846.128	677.946
362.767	28.045	845.516	678.548
363.781	28.158	845.768	679.112
364.796	28.270	844.891	678.761
365.810	28.375	844.538	678.806
366.825	28.393	844.067	678.436
367.840	28.065	842.849	676.185
368.854	27.720	842.175	674.307
369.869	27.783	841.828	674.202
370.883	27.755	841.756	673.981
371.898	27.672	840.858	672.899
372.913	27.781	840.903	673.275
373.927	27.875	840.725	673.419
374.942	27.913	840.049	672.960
375.956	28.133	839.806	673.514
376.971	28.169	839.482	673.328
377.986	28.367	838.908	673.537
379.000	28.289	838.379	672.767
380.015	28.066	837.672	671.321
381.029	28.329	836.815	671.539
382.044	28.329	836.252	671.026
383.059	28.357	835.965	670.841
384.073	28.320	835.731	670.457
385.088	28.228	834.783	669.301
386.102	28.090	833.871	668.007
387.117	28.115	833.579	667.805
388.132	27.730	832.106	665.164
389.146	27.285	830.991	662.591
390.161	27.684	830.996	663.990
391.175	28.090	831.173	665.549
392.190	27.578	830.055	662.734
393.205	26.408	827.740	656.585
394.219	24.836	825.665	649.182
395.234	24.644	825.940	648.645
396.248	26.344	827.256	655.792
397.263	27.811	828.128	661.749
398.278	27.785	827.823	661.353
399.292	27.628	826.959	660.037
400.307	27.632	826.513	659.634
401.321	27.736	826.343	659.819
402.336	27.981	826.258	660.577
403.350	28.412	826.164	662.000
404.365	28.793	825.945	663.142
405.380	29.206	825.574	664.275
406.394	29.133	825.081	663.556
407.409	29.064	824.578	662.846
408.423	28.854	824.459	661.936
409.438	29.222	823.695	662.586
410.453	29.222	822.961	661.938
411.467	29.031	822.985	661.213
412.482	28.971	822.663	660.678
413.496	29.148	822.202	660.886
414.511	29.129	821.908	660.521
415.526	29.052	821.500	659.860
416.540	28.901	820.259	658.263
417.555	28.635	819.750	656.846
418.569	28.661	819.759	656.887
419.584	28.627	818.986	656.091
420.599	28.592	818.411	655.445
421.613	104.097	1279.548	1424.065
422.628	90.012	1346.741	1424.172
