DTS Sentinel unit serial number:	SN413079Multiplexer serial number:	ORYXHardware model number:	OX4-SRSoftware version number:	ORYX F/W v4.00 Oryx Data Collector v3.7.2.0data status	okinstallation	princeton_trtdifferential loss correction	single-endedforward channel	channel 1reverse channel	N/Adate	2019/09/13time	20:10:35forward acquisition time	60.00reverse acquisition time	0.00gamma	496.2192k internal	0.2330k external	0.2330temperature offset calibration	1.0085default loss term (dB/km)	0.3790temperature slope calibration	1.0000multiplexer offset coefficient	1.0000multiplexer slope coefficient	1.0000fibre end	0.00T internal ref (°C)	29.52T ext. ref 1 (°C)	3.21T ext. ref 2 (°C)	24.00length (m)	temperature (°C)	Stokes	anti-Stokes-747.200	-91.560	-0.252	-0.072
-746.185	-26.557	0.133	0.079
-745.171	65.613	0.097	-0.099
-744.156	-67.799	0.248	0.098
-743.142	-0.079	0.088	0.063
-742.127	403.384	-0.111	0.236
-741.112	45.253	-0.184	-0.171
-740.098	-200.000	-0.043	0.268
-739.083	-124.449	0.283	0.044
-738.069	712.541	-0.136	0.363
-737.054	-56.383	0.300	-0.134
-736.039	86.924	-0.305	0.339
-735.025	-75.144	0.233	0.084
-734.010	564.435	0.018	-0.043
-732.996	-200.000	0.056	-0.304
-731.981	-200.000	0.050	0.355
-730.966	-99.385	-0.184	-0.047
-729.952	-200.000	-0.183	0.000
-728.937	659.345	0.022	0.056
-727.923	-171.766	-0.152	0.005
-726.908	-200.000	0.012	0.070
-725.894	745.790	-0.053	-0.143
-724.879	19.226	-0.359	-0.290
-723.864	271.678	-0.115	0.204
-722.850	800.000	-0.037	-0.125
-721.835	-39.363	-0.222	-0.117
-720.821	800.000	0.075	-0.284
-719.806	66.825	-0.074	0.075
-718.791	-85.049	-0.097	0.031
-717.777	727.232	-0.101	0.271
-716.762	-83.735	-0.124	-0.040
-715.748	-200.000	-0.000	-0.035
-714.733	-112.517	0.023	0.005
-713.718	585.386	-0.050	0.124
-712.704	466.592	0.182	-0.411
-711.689	-200.000	0.017	-0.198
-710.675	-54.999	0.175	0.079
-709.660	-200.000	0.082	-0.362
-708.645	-12.200	0.030	0.020
-707.631	-200.000	-0.028	0.232
-706.616	-200.000	-0.007	0.085
-705.602	-65.284	0.203	-0.082
-704.587	3.216	0.146	0.107
-703.572	81.702	-0.086	0.093
-702.558	800.000	0.103	-0.329
-701.543	251.277	0.188	-0.321
-700.529	-200.000	0.015	-0.087
-699.514	800.000	0.033	-0.138
-698.499	-113.363	0.067	-0.013
-697.485	800.000	0.047	-0.132
-696.470	-164.968	0.323	0.015
-695.456	141.911	-0.099	0.132
-694.441	-112.253	0.085	0.017
-693.426	28.616	-0.128	0.109
-692.412	-200.000	0.015	0.152
-691.397	346.949	0.111	-0.219
-690.383	800.000	-0.097	-0.278
-689.368	-86.339	0.163	-0.050
-688.354	95.296	-0.169	0.193
-687.339	43.260	-0.289	-0.265
-686.324	15.503	-0.234	-0.185
-685.310	-182.035	0.173	-0.003
-684.295	-160.176	-0.374	-0.020
-683.281	-200.000	0.009	-0.114
-682.266	-161.883	0.143	-0.007
-681.251	21.511	0.185	0.151
-680.237	-200.000	-0.003	0.246
-679.222	278.672	-0.123	-0.220
-678.208	-200.000	0.002	-0.015
-677.193	-70.458	-0.143	0.055
-676.178	-200.000	-0.017	-0.171
-675.164	-103.231	-0.187	0.044
-674.149	633.239	-0.089	0.227
-673.135	-136.838	0.271	-0.031
-672.120	-200.000	0.022	-0.208
-671.105	277.582	0.025	-0.045
-670.091	-115.261	0.160	0.030
-669.076	-42.586	0.144	-0.074
-668.062	154.716	-0.018	0.025
-667.047	175.770	-0.164	-0.240
-666.032	-200.000	-0.041	0.180
-665.018	706.475	0.030	0.081
-664.003	47.442	-0.224	0.209
-662.989	-33.996	0.410	-0.226
-661.974	800.000	0.039	-0.126
-660.959	-45.906	-0.146	0.072
-659.945	-149.911	0.239	-0.019
-658.930	-104.659	-0.162	0.037
-657.916	-141.553	0.300	0.030
-656.901	582.266	0.018	0.044
-655.886	37.046	0.148	0.131
-654.872	-105.066	0.296	0.068
-653.857	-38.358	0.084	0.044
-652.843	-200.000	0.047	-0.316
-651.828	639.456	0.057	-0.145
-650.814	73.812	-0.141	-0.148
-649.799	800.000	0.096	-0.390
-648.784	247.213	-0.109	0.185
-647.770	-4.767	-0.270	-0.187
-646.755	-200.000	-0.014	-0.062
-645.741	-200.000	0.005	-0.066
-644.726	-45.384	-0.170	-0.084
-643.711	546.905	-0.097	-0.234
-642.697	149.905	-0.096	-0.131
-641.682	329.524	0.103	-0.199
-640.668	33.582	-0.072	0.062
-639.653	232.650	0.134	-0.220
-638.638	-138.219	-0.343	0.038
-637.624	-118.416	-0.083	0.015
-636.609	-200.000	-0.060	-0.322
-635.595	549.132	-0.131	-0.315
-634.580	153.510	-0.053	-0.073
-633.565	-200.000	0.015	-0.207
-632.551	-145.702	0.317	-0.028
-631.536	-41.962	-0.140	0.072
-630.522	182.611	0.106	-0.157
-629.507	29.145	-0.331	-0.281
-628.492	38.498	-0.270	0.241
-627.478	-200.000	-0.129	-0.000
-626.463	-200.000	0.035	0.256
-625.449	-76.822	0.189	-0.066
-624.434	800.000	0.024	0.096
-623.419	-200.000	-0.002	0.073
-622.405	-106.064	-0.124	-0.028
-621.390	-173.672	0.152	0.005
-620.376	-33.868	-0.202	-0.111
-619.361	-51.147	0.293	-0.138
-618.346	610.948	-0.054	0.134
-617.332	-75.711	-0.363	-0.129
-616.317	-120.726	-0.257	0.043
-615.303	-200.000	0.056	-0.377
-614.288	56.537	-0.041	0.040
-613.273	-60.951	0.246	0.104
-612.259	-100.478	-0.317	-0.079
-611.244	285.623	-0.082	-0.148
-610.230	800.000	-0.077	-0.328
-609.215	800.000	-0.062	-0.178
-608.201	-116.087	0.012	-0.002
-607.186	-108.165	-0.099	-0.022
-606.171	12.023	0.084	-0.065
-605.157	662.488	-0.052	-0.134
-604.142	-49.348	-0.157	-0.075
-603.128	-200.000	-0.039	-0.175
-602.113	-186.721	-0.136	0.002
-601.098	-85.189	0.302	-0.095
-600.084	160.133	0.130	-0.181
-599.069	-53.129	0.031	-0.014
-598.055	-200.000	-0.028	0.400
-597.040	-200.000	0.068	-0.369
-596.025	-200.000	-0.076	0.000
-595.011	-139.673	-0.167	0.018
-593.996	314.239	-0.113	-0.212
-592.982	585.265	0.033	-0.082
-591.967	800.000	0.094	-0.331
-590.952	74.571	0.062	-0.065
-589.938	-200.000	-0.010	-0.414
-588.923	81.912	0.128	0.139
-587.909	-95.836	-0.297	0.079
-586.894	178.868	-0.162	0.238
-585.879	-77.722	-0.219	0.076
-584.865	-200.000	-0.301	-0.000
-583.850	120.121	-0.198	0.246
-582.836	-124.258	-0.203	-0.032
-581.821	343.764	-0.092	0.180
-580.806	-52.034	0.200	-0.093
-579.792	-108.558	0.367	-0.079
-578.777	230.412	0.019	0.032
-577.763	65.982	0.189	-0.192
-576.748	18.550	0.097	0.078
-575.733	-200.000	-0.050	-0.236
-574.719	228.085	-0.019	0.031
-573.704	411.991	0.082	-0.174
-572.690	-109.469	-0.330	0.070
-571.675	525.795	-0.056	0.132
-570.661	-200.000	-0.000	0.384
-569.646	-110.143	0.281	0.059
-568.631	800.000	0.074	-0.246
-567.617	-200.000	-0.054	-0.329
-566.602	334.992	-0.078	0.152
-565.588	-78.954	0.234	-0.080
-564.573	26.829	0.314	0.263
-563.558	-64.165	0.267	0.109
-562.544	-34.711	-0.038	0.021
-561.529	-5.927	0.088	-0.060
-560.515	-200.000	0.018	-0.096
-559.500	-26.603	-0.057	0.034
-558.485	-32.115	0.333	-0.186
-557.471	-125.265	0.265	0.040
-556.456	182.635	-0.023	-0.034
-555.442	77.108	-0.289	-0.307
-554.427	-59.331	0.069	-0.030
-553.412	77.969	-0.207	0.221
-552.398	-153.593	-0.172	-0.012
-551.383	97.526	0.097	0.111
-550.369	133.158	-0.094	-0.122
-549.354	-200.000	0.011	-0.085
-548.339	-60.050	0.356	-0.152
-547.325	19.704	0.255	-0.205
-546.310	144.824	-0.122	0.163
-545.296	-118.272	0.203	0.036
-544.281	543.896	0.116	-0.277
-543.266	635.815	0.018	0.046
-542.252	358.690	-0.090	-0.179
-541.237	-89.387	0.133	0.039
-540.223	286.037	0.059	0.106
-539.208	-41.232	0.056	0.029
-538.193	-200.000	0.013	-0.199
-537.179	-147.904	-0.301	-0.025
-536.164	378.884	0.095	-0.195
-535.150	10.788	-0.093	0.071
-534.135	-106.243	-0.437	0.098
-533.121	16.609	-0.125	0.098
-532.106	800.000	-0.070	-0.306
-531.091	800.000	-0.084	0.350
-530.077	195.026	0.169	0.256
-529.062	-200.000	0.038	-0.253
-528.048	55.383	0.138	0.133
-527.033	-200.000	0.048	-0.326
-526.018	-46.598	0.203	-0.099
-525.004	-55.589	0.181	-0.081
-523.989	-32.282	-0.352	0.196
-522.975	-200.000	0.018	-0.085
-521.960	237.380	0.110	0.182
-520.945	-111.732	-0.197	-0.040
-519.931	-106.219	0.121	-0.027
-518.916	241.599	-0.149	-0.248
-517.902	94.713	0.033	-0.037
-516.887	-116.608	-0.195	-0.036
-515.872	-82.919	-0.136	-0.044
-514.858	-80.084	0.158	-0.053
-513.843	-200.000	0.063	0.417
-512.829	291.645	-0.188	0.342
-511.814	-200.000	0.006	-0.111
-510.799	-200.000	-0.007	-0.178
-509.785	17.017	0.205	0.162
-508.770	-41.542	0.187	-0.096
-507.756	-7.289	0.250	-0.169
-506.741	24.553	-0.337	-0.279
-505.726	-200.000	-0.030	0.255
-504.712	-200.000	0.005	0.164
-503.697	127.199	0.177	-0.224
-502.683	109.054	0.127	0.152
-501.668	-60.588	0.022	0.009
-500.653	-5.011	-0.369	-0.254
-499.639	-87.063	0.215	0.065
-498.624	-152.875	-0.318	-0.022
-497.610	-31.061	0.109	0.061
-496.595	-86.709	-0.068	-0.021
-495.581	211.825	0.025	-0.039
-494.566	-189.830	0.221	0.003
-493.551	-153.675	-0.288	-0.020
-492.537	-35.470	0.286	0.155
-491.522	800.000	0.014	0.042
-490.508	17.284	-0.185	-0.146
-489.493	147.212	-0.241	-0.323
-488.478	-200.000	0.046	-0.316
-487.464	69.187	0.200	-0.205
-486.449	-200.000	0.015	0.120
-485.435	-200.000	0.051	-0.340
-484.420	109.311	0.143	-0.171
-483.405	392.505	0.097	0.200
-482.391	-26.705	0.221	0.129
-481.376	-76.006	-0.570	0.201
-480.362	-165.027	0.347	0.015
-479.347	-200.000	0.094	0.481
-478.332	-149.536	-0.401	-0.032
-477.318	187.027	-0.065	0.097
-476.303	800.000	0.052	-0.227
-475.289	272.384	-0.083	0.145
-474.274	-200.000	-0.006	-0.081
-473.259	-64.200	0.375	0.152
-472.245	-9.937	0.160	0.106
-471.230	-18.150	0.084	0.052
-470.216	-155.002	-0.263	-0.017
-469.201	359.442	-0.064	-0.128
-468.186	-153.095	0.116	0.008
-467.172	800.000	-0.094	0.307
-466.157	-70.458	-0.270	0.102
-465.143	54.401	-0.211	-0.202
-464.128	-147.239	-0.166	-0.014
-463.113	-70.804	-0.216	0.081
-462.099	-200.000	-0.018	0.291
-461.084	397.240	-0.176	0.367
-460.070	64.842	0.112	-0.112
-459.055	31.410	0.090	-0.077
-458.040	-81.605	0.092	0.030
-457.026	71.334	-0.254	0.262
-456.011	14.142	-0.123	-0.095
-454.997	800.000	-0.016	-0.059
-453.982	-200.000	-0.037	-0.161
-452.968	-200.000	0.051	0.256
-451.953	-112.769	0.176	-0.035
-450.938	800.000	-0.056	0.169
-449.924	800.000	-0.002	-0.008
-448.909	-200.000	-0.026	-0.197
-447.895	-75.322	-0.038	-0.013
-446.880	-118.862	0.079	0.014
-445.865	308.985	0.055	-0.103
-444.851	-159.481	0.294	0.016
-443.836	-138.892	0.209	0.023
-442.822	144.713	-0.124	-0.165
-441.807	-180.617	0.240	-0.005
-440.792	-40.831	0.295	0.152
-439.778	186.984	-0.278	-0.412
-438.763	98.971	-0.124	0.143
-437.749	-200.000	-0.013	-0.241
-436.734	-173.559	0.113	0.003
-435.719	-200.000	0.029	-0.254
-434.705	800.000	0.076	-0.276
-433.690	232.731	0.147	0.241
-432.676	685.003	-0.065	0.170
-431.661	-55.817	-0.204	-0.091
-430.646	88.232	-0.113	-0.125
-429.632	-82.263	-0.149	-0.048
-428.617	212.898	0.241	-0.378
-427.603	-51.459	0.059	-0.027
-426.588	282.499	0.090	-0.161
-425.573	117.742	0.037	-0.045
-424.559	418.183	-0.037	0.078
-423.544	22.129	-0.291	-0.236
-422.530	-32.236	0.191	0.106
-421.515	-62.321	-0.257	0.106
-420.500	800.000	0.113	0.398
-419.486	-131.439	-0.208	0.027
-418.471	-91.669	-0.129	-0.036
-417.457	150.544	-0.093	0.125
-416.442	-68.737	-0.170	0.065
-415.428	-154.518	-0.230	-0.015
-414.413	-12.125	-0.281	-0.183
-413.398	131.021	-0.109	0.139
-412.384	-107.615	0.436	-0.095
-411.369	-54.098	-0.159	-0.072
-410.355	-75.478	-0.091	-0.032
-409.340	21.435	0.274	0.221
-408.325	22.237	-0.163	0.132
-407.311	-200.000	0.063	0.341
-406.296	139.993	-0.130	0.170
-405.282	254.098	-0.100	0.170
-404.267	87.963	-0.093	0.103
-403.252	-87.128	0.076	-0.023
-402.238	-200.000	0.000	-0.120
-401.223	-200.000	-0.048	-0.248
-400.209	800.000	-0.055	-0.224
-399.194	-200.000	0.011	-0.114
-398.179	94.320	-0.129	-0.146
-397.165	-180.346	0.314	0.007
-396.150	800.000	0.160	-0.537
-395.136	706.320	0.038	0.100
-394.121	-77.039	0.318	-0.110
-393.106	11.439	-0.106	0.081
-392.092	-31.467	-0.172	0.096
-391.077	-16.473	0.231	-0.146
-390.063	192.755	-0.089	0.133
-389.048	-200.000	0.014	-0.123
-388.033	800.000	-0.145	-0.532
-387.019	35.807	-0.223	0.195
-386.004	-78.362	-0.068	-0.023
-384.990	761.387	0.106	-0.285
-383.975	-200.000	-0.005	-0.029
-382.960	715.820	0.131	0.345
-381.946	-31.583	0.208	0.116
-380.931	397.739	-0.063	0.130
-379.917	-153.169	0.135	-0.009
-378.902	-200.000	-0.050	-0.349
-377.888	800.000	-0.039	-0.130
-376.873	-3.628	0.171	-0.118
-375.858	-36.020	0.175	0.094
-374.844	-200.000	0.037	0.172
-373.829	-83.098	-0.295	0.094
-372.815	-40.037	0.142	0.074
-371.800	-200.000	-0.034	0.168
-370.785	-200.000	-0.047	0.227
-369.771	800.000	-0.072	0.203
-368.756	-110.015	-0.524	-0.109
-367.742	59.842	-0.125	0.122
-366.727	-67.369	0.201	0.078
-365.712	-22.317	0.292	0.175
-364.698	40.300	0.194	0.173
-363.683	295.747	-0.217	0.395
-362.669	-81.704	0.288	0.094
-361.654	277.295	0.144	-0.254
-360.639	-109.020	-0.225	-0.048
-359.625	410.363	-0.029	0.061
-358.610	-67.019	-0.119	0.047
-357.596	361.724	-0.018	-0.036
-356.581	-200.000	-0.006	0.045
-355.566	244.611	0.072	0.120
-354.552	-131.235	0.235	0.031
-353.537	-78.776	0.089	0.030
-352.523	-162.452	0.157	-0.008
-351.508	-200.000	-0.037	0.162
-350.493	336.774	-0.104	0.200
-349.479	371.282	0.060	-0.121
-348.464	133.433	0.086	0.110
-347.450	-43.691	-0.094	-0.047
-346.435	-200.000	-0.020	0.290
-345.420	-107.047	0.136	-0.030
-344.406	-65.859	0.143	-0.057
-343.391	232.910	-0.025	0.040
-342.377	-126.056	-0.346	-0.051
-341.362	168.442	-0.190	-0.268
-340.348	-50.495	0.133	-0.062
-339.333	369.569	0.060	-0.121
-338.318	-158.419	0.129	-0.007
-337.304	800.000	-0.067	-0.223
-336.289	-7.601	-0.121	-0.081
-335.275	239.815	-0.220	0.364
-334.260	-69.953	-0.201	0.076
-333.245	-127.718	0.162	-0.023
-332.231	800.000	0.019	0.075
-331.216	-33.910	-0.128	0.070
-330.202	-200.000	-0.042	0.259
-329.187	149.050	-0.145	-0.195
-328.172	350.315	-0.139	-0.271
-327.158	800.000	-0.127	0.362
-326.143	687.065	0.046	0.120
-325.129	-200.000	0.010	-0.150
-324.114	-200.000	0.007	0.182
-323.099	100.128	0.175	0.201
-322.085	6.278	0.119	0.087
-321.070	-2.425	-0.240	0.167
-320.056	-28.015	0.039	0.022
-319.041	241.613	-0.125	-0.207
-318.026	784.603	-0.059	-0.161
-317.012	-56.100	-0.334	0.147
-315.997	-200.000	0.033	0.166
-314.983	-54.650	0.196	-0.088
-313.968	67.897	-0.105	0.107
-312.953	708.755	0.142	0.371
-311.939	36.524	0.086	-0.075
-310.924	-148.719	0.189	-0.015
-309.910	271.227	0.033	0.058
-308.895	330.612	-0.027	0.051
-307.880	-128.547	0.312	0.044
-306.866	105.400	0.123	-0.144
-305.851	40.562	0.091	0.081
-304.837	-147.233	-0.264	0.022
-303.822	144.116	-0.150	0.197
-302.807	-42.752	0.185	0.093
-301.793	-131.914	-0.071	0.009
-300.778	197.528	-0.094	0.143
-299.764	55.811	0.048	-0.046
-298.749	-200.000	-0.070	-0.384
-297.735	60.358	0.144	-0.141
-296.720	120.586	-0.091	-0.112
-295.705	387.137	-0.113	0.231
-294.691	-137.764	0.274	-0.030
-293.676	-45.690	0.121	0.059
-292.662	713.685	0.133	0.348
-291.647	-200.000	0.019	-0.098
-290.632	-103.614	0.242	0.056
-289.618	9.020	-0.106	-0.079
-288.603	800.000	-0.092	0.260
-287.589	-69.281	0.320	-0.122
-286.574	108.313	-0.138	0.163
-285.559	-138.701	0.373	-0.040
-284.545	-38.507	-0.038	0.020
-283.530	-100.101	-0.074	-0.018
-282.516	-55.836	-0.140	-0.062
-281.501	-139.820	-0.041	-0.004
-280.486	212.588	0.018	-0.029
-279.472	56.247	-0.131	-0.126
-278.457	800.000	0.101	0.278
-277.443	-92.210	0.065	-0.018
-276.428	-178.276	-0.219	-0.005
-275.413	63.816	0.093	-0.093
-274.399	-111.196	0.542	0.110
-273.384	21.469	0.110	0.088
-272.370	555.917	0.061	-0.146
-271.355	-22.637	-0.274	0.163
-270.340	-135.787	-0.189	-0.022
-269.326	800.000	0.056	0.186
-268.311	332.586	0.182	-0.347
-267.297	73.357	0.095	-0.098
-266.282	-32.335	0.055	-0.030
-265.267	-129.467	0.131	-0.018
-264.253	19.537	0.106	-0.084
-263.238	-200.000	-0.027	0.155
-262.224	-93.671	0.239	0.065
-261.209	38.317	-0.161	-0.141
-260.195	238.722	-0.051	-0.084
-259.180	-110.910	0.174	-0.035
-258.165	-142.412	-0.297	0.029
-257.151	433.250	0.146	-0.314
-256.136	-101.885	-0.328	-0.078
-255.122	-33.620	-0.091	-0.049
-254.107	47.543	0.018	0.016
-253.092	284.039	0.065	-0.115
-252.078	-61.391	0.250	0.104
-251.063	-200.000	-0.063	-0.320
-250.049	168.016	-0.205	-0.289
-249.034	-200.000	0.010	0.098
-248.019	-120.307	0.205	-0.035
-247.005	-67.561	-0.138	0.054
-245.990	26.551	0.126	-0.104
-244.976	-101.823	0.406	-0.097
-243.961	391.344	0.020	-0.041
-242.946	549.827	-0.070	0.166
-241.932	289.743	0.115	0.205
-240.917	137.498	0.056	-0.072
-239.903	159.822	0.216	0.297
-238.888	800.000	-0.021	-0.061
-237.873	-58.983	0.182	0.078
-236.859	4.980	0.054	-0.039
-235.844	-200.000	-0.069	0.366
-234.830	45.772	0.221	0.202
-233.815	-118.411	-0.543	-0.095
-232.800	-119.648	0.224	0.038
-231.786	37.745	0.095	-0.083
-230.771	-0.775	0.027	-0.019
-229.757	-97.851	0.035	0.009
-228.742	-70.686	0.185	-0.069
-227.727	42.029	0.036	0.032
-226.713	46.740	-0.166	0.152
-225.698	-29.054	0.089	0.050
-224.684	-115.487	-0.197	-0.037
-223.669	-93.053	0.200	-0.055
-222.655	800.000	-0.083	0.258
-221.640	-200.000	-0.065	0.293
-220.625	800.000	-0.035	-0.126
-219.611	-200.000	-0.006	0.061
-218.596	-200.000	0.016	0.157
-217.582	800.000	0.028	0.115
-216.567	-19.711	-0.261	0.159
-215.552	800.000	0.089	0.270
-214.538	7.469	-0.174	-0.129
-213.523	-69.526	-0.031	0.012
-212.509	-135.838	0.083	-0.010
-211.494	96.107	-0.308	-0.347
-210.479	355.780	-0.083	-0.163
-209.465	465.793	-0.084	0.185
-208.450	57.457	0.191	0.184
-207.436	476.780	0.053	0.117
-206.421	-45.622	0.197	-0.096
-205.406	-150.645	0.162	-0.012
-204.392	-121.435	-0.135	-0.022
-203.377	800.000	-0.074	0.312
-202.363	-82.468	0.361	0.116
-201.348	-200.000	0.004	0.162
-200.333	107.141	0.141	0.165
-199.319	800.000	0.041	-0.166
-198.304	-11.860	0.123	0.079
-197.290	-156.096	0.055	-0.003
-196.275	-183.008	-0.162	-0.003
-195.260	-28.358	0.142	-0.081
-194.246	-122.848	-0.122	0.019
-193.231	-87.200	0.183	0.055
-192.217	800.000	-0.082	-0.235
-191.202	800.000	-0.127	-0.542
-190.187	26.527	0.139	-0.115
-189.173	-200.000	0.139	-0.613
-188.158	800.000	-0.075	-0.299
-187.144	-200.000	0.020	0.244
-186.129	111.720	0.256	0.305
-185.114	-1.766	-0.132	0.091
-184.100	67.297	-0.119	0.120
-183.085	80.604	0.167	0.178
-182.071	49.285	0.164	0.152
-181.056	-118.250	-0.096	0.017
-180.042	229.015	-0.043	0.068
-179.027	131.804	0.244	0.310
-178.012	-200.000	0.015	0.094
-176.998	-136.738	-0.322	0.037
-175.983	-65.854	0.298	-0.117
-174.969	-18.116	-0.372	0.229
-173.954	-37.739	0.124	0.065
-172.939	800.000	0.079	-0.229
-171.925	-24.978	-0.315	0.184
-170.910	-200.000	-0.007	0.095
-169.896	-200.000	0.014	0.350
-168.881	-83.914	0.356	-0.112
-167.866	800.000	-0.046	0.199
-166.852	-174.519	-0.370	-0.010
-165.837	-200.000	-0.032	0.276
-164.823	-109.816	-0.055	-0.011
-163.808	462.975	0.166	0.364
-162.793	-138.327	0.323	0.035
-161.779	-87.578	-0.067	-0.020
-160.764	154.659	-0.158	0.213
-159.750	450.786	0.040	-0.087
-158.735	800.000	-0.128	0.424
-157.720	422.617	0.087	0.184
-156.706	800.000	-0.131	-0.366
-155.691	61.106	0.033	-0.032
-154.677	356.500	-0.116	0.228
-153.662	-200.000	0.021	0.142
-152.647	6.521	0.083	0.060
-151.633	8.046	0.153	-0.113
-150.618	205.254	-0.040	-0.061
-149.604	-35.954	-0.182	0.097
-148.589	-144.410	0.225	0.021
-147.574	-151.813	-0.278	-0.020
-146.560	-200.000	0.022	0.143
-145.545	17.696	0.108	-0.084
-144.531	-82.560	0.058	0.019
-143.516	-168.376	0.145	0.005
-142.502	-83.515	0.048	0.015
-141.487	-200.000	-0.024	-0.148
-140.472	-200.000	-0.041	0.247
-139.458	87.921	0.246	-0.268
-138.443	-84.830	0.149	0.046
-137.429	170.731	0.071	-0.100
-136.414	-70.964	-0.150	-0.056
-135.399	800.000	0.136	0.391
-134.385	46.913	0.248	0.227
-133.370	-193.480	-0.068	0.001
-132.356	-108.911	0.131	-0.027
-131.341	800.000	-0.102	0.321
-130.326	-135.352	0.220	0.026
-129.312	600.488	0.047	-0.116
-128.297	464.127	0.100	-0.219
-127.283	-200.000	-0.010	-0.196
-126.268	-8.541	0.193	-0.128
-125.253	565.128	-0.132	-0.315
-124.239	-200.000	0.009	0.353
-123.224	531.199	0.114	0.264
-122.210	-42.114	0.196	0.099
-121.195	75.982	-0.102	-0.106
-120.180	-149.435	0.314	-0.025
-119.166	800.000	-0.107	-0.341
-118.151	-49.790	0.291	-0.136
-117.137	28.570	0.196	0.163
-116.122	-90.917	-0.370	0.105
-115.107	-200.000	-0.070	0.356
-114.093	3.467	0.088	0.063
-113.078	-85.250	-0.179	-0.055
-112.064	-134.551	0.163	0.020
-111.049	-64.995	-0.189	-0.075
-110.034	-200.000	-0.034	-0.309
-109.020	-200.000	0.014	0.170
-108.005	-76.322	0.302	0.105
-106.991	481.928	0.050	0.113
-105.976	-200.000	0.234	0.000
-104.962	-89.419	0.089	0.026
-103.947	-200.000	0.009	-0.053
-102.932	447.606	0.096	0.207
-101.918	-116.028	-0.297	0.054
-100.903	489.739	-0.111	0.250
-99.889	749.513	0.059	0.156
-98.874	-93.840	0.388	-0.105
-97.859	-67.054	-0.135	0.052
-96.845	-200.000	0.002	0.156
-95.830	800.000	-0.062	0.240
-94.816	-200.000	-0.054	0.384
-93.801	-64.863	0.313	0.124
-92.786	548.291	-0.068	-0.160
-91.772	-105.768	0.366	0.081
-90.757	-127.681	-0.351	-0.050
-89.743	-75.173	-0.271	0.095
-88.728	-29.051	-0.314	0.177
-87.713	115.929	0.131	-0.158
-86.699	800.000	-0.093	0.262
-85.684	-75.915	-0.245	-0.085
-84.670	-19.867	-0.139	-0.084
-83.655	800.000	-0.033	0.132
-82.640	-200.000	0.002	0.126
-81.626	40.046	-0.103	0.091
-80.611	245.307	-0.129	-0.213
-79.597	800.000	0.078	-0.268
-78.582	435.129	0.105	0.224
-77.567	-124.977	-0.103	0.016
-76.553	-12.182	-0.087	-0.056
-75.538	-200.000	0.029	-0.229
-74.524	226.580	0.007	-0.011
-73.509	-40.096	-0.190	-0.097
-72.494	-73.629	-0.160	0.057
-71.480	-61.388	0.479	0.198
-70.465	-30.473	0.365	0.203
-69.451	-70.691	0.094	-0.035
-68.436	-98.260	0.302	0.076
-67.422	405.969	-0.111	0.230
-66.407	-66.844	-0.105	0.041
-65.392	-76.275	-0.200	0.069
-64.378	-200.000	0.009	0.142
-63.363	-35.621	0.200	0.107
-62.349	-98.876	-0.244	0.061
-61.334	141.503	-0.912	-1.184
-60.319	-8.088	0.576	0.380
-59.305	-200.000	-0.275	-1.306
-58.290	303.643	0.802	1.457
-57.276	786.287	0.502	1.351
-56.261	-200.000	110.237	627.199
-55.246	521.779	1504.095	3460.754
-54.232	178.646	2683.924	3843.723
-53.217	112.278	2150.216	2548.656
-52.203	40.975	1600.039	1415.877
-51.188	33.025	1341.834	1139.627
-50.173	29.915	1301.405	1087.016
-49.159	54.663	1357.316	1282.831
-48.144	54.742	1371.987	1297.121
-47.130	33.049	1326.531	1126.596
-46.115	29.749	1308.036	1091.401
-45.100	29.486	1303.323	1085.878
-44.086	29.416	1300.779	1083.303
-43.071	29.328	1298.800	1081.099
-42.057	29.327	1296.519	1079.149
-41.042	29.430	1294.501	1078.031
-40.027	29.345	1293.496	1076.656
-39.013	29.405	1291.338	1075.162
-37.998	29.430	1289.628	1073.845
-36.984	29.504	1287.631	1072.566
-35.969	29.512	1286.007	1071.222
-34.954	29.459	1284.482	1069.600
-33.940	29.562	1283.215	1069.100
-32.925	29.471	1282.207	1067.692
-31.911	29.625	1280.273	1066.928
-30.896	29.618	1279.193	1065.942
-29.881	29.665	1277.805	1065.018
-28.867	29.690	1275.918	1063.547
-27.852	29.584	1274.745	1061.916
-26.838	29.647	1273.366	1061.085
-25.823	29.579	1272.255	1059.730
-24.809	29.586	1271.362	1058.982
-23.794	29.647	1269.306	1057.576
-22.779	29.594	1268.423	1056.494
-21.765	29.586	1267.015	1055.234
-20.750	29.596	1265.544	1054.024
-19.736	29.537	1264.340	1052.645
-18.721	29.492	1263.301	1051.484
-17.706	29.460	1262.320	1050.441
-16.692	29.504	1261.045	1049.586
-15.677	29.410	1260.107	1048.230
-14.663	29.538	1258.555	1047.625
-13.648	29.440	1257.795	1046.398
-12.633	29.575	1256.306	1045.881
-11.619	29.519	1255.724	1045.040
-10.604	29.477	1255.401	1044.488
-9.590	29.468	1254.077	1043.296
-8.575	29.393	1253.415	1042.281
-7.560	29.379	1252.368	1041.287
-6.546	29.402	1251.653	1040.780
-5.531	29.410	1250.732	1040.021
-4.517	29.534	1249.663	1039.787
-3.502	29.343	1249.167	1038.258
-2.487	29.464	1248.081	1037.998
-1.473	29.486	1243.445	1034.225
-0.458	27.758	1228.083	1011.835
0.556	24.172	1210.837	971.165
1.571	20.296	1214.690	952.927
2.586	19.262	1229.162	958.451
3.600	18.638	1217.281	945.660
4.615	13.985	1146.829	866.638
5.629	6.647	1074.455	775.896
6.644	3.366	1056.089	746.686
7.659	3.052	1054.317	743.852
8.673	3.172	1052.537	743.105
9.688	3.241	1051.002	742.290
10.702	3.384	1049.583	741.911
11.717	7.456	1054.861	765.244
12.731	15.101	1065.797	810.234
13.746	19.627	1070.982	836.062
14.761	20.040	1071.005	838.003
15.775	19.093	1069.392	832.089
16.790	18.117	1067.564	825.884
17.804	17.367	1066.011	820.988
18.819	17.194	1064.656	819.039
19.834	17.088	1064.101	818.026
20.848	16.930	1063.404	816.658
21.863	16.731	1062.531	814.959
22.877	16.598	1061.680	813.594
23.892	16.512	1061.028	812.610
24.907	16.455	1060.516	811.871
25.921	16.525	1059.192	811.124
26.936	16.561	1058.151	810.428
27.950	16.548	1056.456	808.995
28.965	16.826	1054.817	808.993
29.980	16.792	1054.072	808.190
30.994	16.860	1052.487	807.225
32.009	16.906	1052.135	807.106
33.023	16.932	1050.487	805.893
34.038	16.727	1049.775	804.301
35.053	16.721	1048.869	803.510
36.067	16.684	1047.982	802.583
37.082	16.629	1047.490	801.871
38.096	16.813	1046.467	801.887
39.111	16.903	1045.557	801.548
40.126	16.620	1044.295	799.173
41.140	16.386	1042.886	796.921
42.155	16.254	1041.962	795.519
43.169	16.211	1040.950	794.476
44.184	16.294	1039.649	793.801
45.199	16.374	1038.564	793.280
46.213	16.403	1038.139	793.020
47.228	16.562	1037.137	792.932
48.242	16.709	1036.038	792.711
49.257	16.571	1035.221	791.366
50.271	16.631	1034.808	791.262
51.286	16.783	1033.342	790.781
52.301	16.835	1032.381	790.220
53.315	16.611	1031.431	788.380
54.330	16.387	1030.294	786.397
55.344	16.388	1029.819	785.970
56.359	16.446	1028.984	785.530
57.374	16.407	1027.849	784.415
58.388	16.326	1026.891	783.237
59.403	16.273	1026.073	782.300
60.417	16.347	1025.629	782.236
61.432	16.109	1024.992	780.579
62.447	16.105	1023.810	779.588
63.461	16.049	1023.199	778.797
64.476	16.134	1021.995	778.206
65.490	16.158	1021.046	777.523
66.505	16.179	1020.209	776.913
67.520	16.175	1020.053	776.709
68.534	16.195	1019.156	776.048
69.549	16.194	1018.261	775.295
70.563	16.153	1017.485	774.447
71.578	16.098	1016.519	773.392
72.593	15.955	1015.735	772.067
73.607	15.871	1015.495	771.434
74.622	16.028	1014.695	771.479
75.636	16.039	1013.828	770.801
76.651	15.997	1013.536	770.320
77.666	16.019	1012.398	769.483
78.680	15.968	1012.044	768.916
79.695	16.164	1011.008	768.953
80.709	16.266	1010.656	769.082
81.724	16.515	1009.824	769.516
82.739	16.460	1009.238	768.751
83.753	16.667	1008.986	769.432
84.768	16.903	1007.835	769.559
85.782	17.018	1006.865	769.267
86.797	16.856	1006.183	767.947
87.812	16.673	1005.403	766.453
88.826	16.653	1004.270	765.434
89.841	16.809	1003.254	765.296
90.855	16.911	1002.454	765.075
91.870	16.891	1002.114	764.660
92.884	16.923	1000.643	763.612
93.899	16.923	1000.251	763.248
94.914	16.929	999.497	762.632
95.928	16.927	998.347	761.676
96.943	16.797	997.562	760.429
97.957	16.834	996.901	760.021
98.972	16.790	995.944	759.029
99.987	16.798	995.336	758.534
101.001	16.742	994.340	757.458
102.016	16.796	993.442	756.945
103.030	16.860	992.647	756.561
104.045	16.814	992.035	755.822
105.060	16.652	990.903	754.171
106.074	16.457	989.783	752.384
107.089	16.329	988.824	751.017
108.103	16.335	987.763	750.172
109.118	16.277	986.834	749.143
110.133	16.128	986.258	747.980
111.147	16.166	985.211	747.290
112.162	16.240	984.535	747.037
113.176	16.353	984.055	747.105
114.191	16.563	982.852	747.056
115.206	16.364	982.764	746.042
116.220	16.310	981.525	744.799
117.235	16.312	980.473	743.941
118.249	16.392	979.565	743.539
119.264	16.343	978.741	742.635
120.279	16.215	978.496	741.817
121.293	16.219	977.402	740.941
122.308	16.110	976.411	739.645
123.322	16.259	974.865	739.062
124.337	16.185	974.014	738.030
125.352	15.985	973.789	736.917
126.366	16.063	972.570	736.270
127.381	16.049	971.299	735.182
128.395	16.342	970.230	735.584
129.410	16.328	969.382	734.815
130.424	16.288	968.724	734.079
131.439	16.331	968.241	733.832
132.454	16.397	967.563	733.543
133.468	16.428	966.605	732.885
134.483	16.348	965.412	731.569
135.497	16.388	965.009	731.370
136.512	16.424	964.066	730.748
137.527	16.444	962.885	729.873
138.541	16.509	962.558	729.843
139.556	16.443	961.981	729.056
140.570	16.581	961.826	729.468
141.585	16.616	961.166	729.054
142.600	16.873	959.730	729.004
143.614	16.993	958.935	728.852
144.629	16.907	958.438	728.041
145.643	16.838	957.524	726.986
146.658	16.718	956.100	725.327
147.673	16.534	954.751	723.454
148.687	16.538	954.286	723.054
149.702	16.364	953.487	721.642
150.716	16.386	952.671	721.054
151.731	16.480	951.922	720.825
152.746	16.468	951.086	720.077
153.760	16.629	950.511	720.263
154.775	16.537	950.057	719.464
155.789	16.702	949.179	719.437
156.804	16.666	948.673	718.837
157.819	16.694	948.399	718.686
158.833	16.808	947.806	718.656
159.848	16.947	946.930	718.517
160.862	16.890	945.749	717.315
161.877	16.709	944.225	715.331
162.892	16.569	942.992	713.742
163.906	16.376	942.683	712.632
164.921	16.595	941.550	712.633
165.935	16.618	940.703	712.027
166.950	16.629	939.814	711.339
167.964	16.620	938.966	710.593
168.979	16.539	938.187	709.603
169.994	16.566	937.379	709.043
171.008	16.682	937.062	709.225
172.023	16.871	936.690	709.673
173.037	16.860	935.696	708.812
174.052	16.882	934.517	707.948
175.067	16.691	933.720	706.482
176.081	16.536	933.249	705.416
177.096	16.574	932.948	705.287
178.110	16.628	932.187	704.872
179.125	16.618	931.777	704.461
180.140	16.653	931.367	704.232
181.154	16.689	931.472	704.398
182.169	16.880	930.148	704.128
183.183	16.857	930.213	704.021
184.198	16.937	929.164	703.496
185.213	16.963	928.220	702.828
186.227	16.899	927.847	702.218
187.242	17.114	927.161	702.528
188.256	17.096	926.594	701.958
189.271	17.152	925.922	701.621
190.286	16.860	924.633	699.375
191.300	16.550	923.664	697.305
192.315	16.532	922.864	696.564
193.329	16.452	922.571	695.953
194.344	16.762	921.853	696.626
195.359	16.869	921.430	696.681
196.373	16.864	920.869	696.177
197.388	17.077	920.696	696.858
198.402	17.107	920.508	696.779
199.417	17.366	919.691	697.160
200.432	17.422	919.333	697.053
201.446	17.320	919.127	696.419
202.461	17.484	918.100	696.250
203.475	17.320	917.547	695.097
204.490	17.216	916.443	693.779
205.504	17.199	916.119	693.403
206.519	17.067	915.186	692.096
207.534	17.135	914.290	691.633
208.548	17.151	913.756	691.233
209.563	17.042	913.197	690.305
210.577	17.253	912.511	690.582
211.592	17.258	912.131	690.254
212.607	17.417	911.520	690.376
213.621	17.440	910.483	689.624
214.636	17.405	909.844	688.936
215.650	17.443	908.917	688.326
216.665	17.460	908.804	688.249
217.680	17.503	908.227	687.927
218.694	17.531	907.467	687.403
219.709	17.541	906.814	686.888
220.723	17.461	906.083	685.949
221.738	17.416	905.543	685.300
222.753	17.466	904.882	684.942
223.767	17.555	904.227	684.742
224.782	17.680	903.730	684.807
225.796	17.784	902.761	684.430
226.811	17.566	902.758	683.490
227.826	17.464	901.842	682.329
228.840	17.453	900.819	681.452
229.855	17.349	900.539	680.760
230.869	17.508	899.059	680.220
231.884	17.291	898.629	678.966
232.899	17.231	897.944	678.148
233.913	17.332	897.030	677.803
234.928	17.173	896.481	676.692
235.942	17.192	895.982	676.332
236.957	17.317	895.514	676.415
237.972	17.171	894.959	675.357
238.986	17.156	894.475	674.873
240.001	17.204	893.612	674.354
241.015	17.477	892.874	674.819
242.030	17.442	892.440	674.292
243.045	17.488	892.169	674.208
244.059	17.542	891.220	673.646
245.074	17.630	890.706	673.545
246.088	17.603	889.999	672.844
247.103	17.756	889.144	672.741
248.117	17.794	889.134	672.825
249.132	18.036	888.871	673.523
250.147	18.104	888.470	673.427
251.161	18.154	887.538	672.856
252.176	18.200	886.753	672.384
253.190	18.124	886.450	671.794
254.205	18.234	885.678	671.582
255.220	18.255	884.791	670.934
256.234	18.333	884.097	670.653
257.249	18.165	883.592	669.553
258.263	18.290	882.727	669.327
259.278	18.298	882.028	668.770
260.293	18.265	881.955	668.523
261.307	18.482	880.718	668.375
262.322	18.293	880.737	667.592
263.336	18.476	879.831	667.558
264.351	18.542	878.785	666.962
265.366	18.431	878.482	666.244
266.380	18.497	877.738	665.877
267.395	18.446	876.877	664.966
268.409	18.233	876.095	663.488
269.424	18.316	875.258	663.118
270.439	18.295	874.951	662.743
271.453	18.191	874.061	661.609
272.468	18.233	873.905	661.595
273.482	18.128	873.063	660.494
274.497	18.199	872.384	660.197
275.512	18.099	872.093	659.532
276.526	18.219	871.599	659.563
277.541	18.316	871.291	659.646
278.555	18.321	870.787	659.222
279.570	18.616	870.099	659.780
280.585	18.653	868.942	658.987
281.599	18.367	868.456	657.461
282.614	18.262	867.614	656.363
283.628	18.346	866.861	656.058
284.643	18.276	866.320	655.323
285.657	18.418	865.776	655.396
286.672	18.377	865.265	654.794
287.687	18.362	864.350	653.987
288.701	18.423	864.080	653.956
289.716	18.406	863.747	653.580
290.730	18.534	862.811	653.305
291.745	18.569	862.224	652.934
292.760	18.496	862.370	652.709
293.774	18.615	861.360	652.339
294.789	18.641	860.549	651.765
295.803	18.437	859.595	650.213
296.818	18.490	858.807	649.758
297.833	18.410	858.451	649.131
298.847	18.495	857.923	648.994
299.862	18.505	857.338	648.532
300.876	18.704	856.906	648.900
301.891	18.864	855.755	648.577
302.906	18.949	855.826	648.892
303.920	18.958	855.518	648.636
304.935	19.033	854.841	648.347
305.949	18.901	854.528	647.556
306.964	18.730	853.668	646.204
307.979	18.865	853.068	646.199
308.993	19.006	852.432	646.192
310.008	18.993	851.870	645.660
311.022	18.815	851.392	644.571
312.037	18.847	850.261	643.778
313.052	18.782	849.724	643.070
314.066	18.672	849.372	642.338
315.081	18.666	848.806	641.827
316.095	18.629	848.147	641.136
317.110	18.682	847.511	640.797
318.125	18.656	847.248	640.442
319.139	18.732	846.512	640.113
320.154	18.715	846.080	639.666
321.168	18.646	845.768	639.117
322.183	18.814	845.107	639.186
323.197	18.807	844.739	638.826
324.212	18.789	844.311	638.377
325.227	18.771	843.610	637.726
326.241	18.534	842.890	636.245
327.256	18.638	842.304	636.134
328.270	18.819	841.577	636.195
329.285	18.782	841.191	635.712
330.300	18.707	840.444	634.814
331.314	18.733	840.176	634.653
332.329	18.931	839.599	634.890
333.343	19.082	839.099	635.014
334.358	18.785	839.382	634.075
335.373	18.915	838.687	633.973
336.387	19.094	838.437	634.390
337.402	19.146	838.021	634.211
338.416	19.203	837.793	634.189
339.431	19.335	837.494	634.393
340.446	19.332	836.905	633.881
341.460	19.322	837.036	633.885
342.475	19.269	836.656	633.348
343.489	19.426	836.034	633.398
344.504	19.594	835.297	633.398
345.519	19.526	834.707	632.646
346.533	19.543	833.871	632.019
347.548	19.368	833.352	630.931
348.562	19.204	832.948	629.968
349.577	19.129	832.225	629.093
350.592	19.068	831.713	628.426
351.606	19.067	830.714	627.611
352.621	19.243	830.379	627.945
353.635	19.188	829.637	627.128
354.650	19.251	829.150	626.933
355.665	19.308	828.870	626.876
356.679	19.233	828.296	626.113
357.694	19.313	827.418	625.685
358.708	19.323	826.673	625.102
359.723	19.411	826.064	624.903
360.738	19.347	825.667	624.318
361.752	19.429	825.129	624.152
362.767	19.700	824.258	624.416
363.781	19.682	824.129	624.197
364.796	19.817	823.482	624.141
365.810	19.957	823.365	624.501
366.825	20.001	822.785	624.166
367.840	19.752	822.510	623.002
368.854	19.715	822.082	622.492
369.869	19.668	821.531	621.851
370.883	19.720	820.719	621.368
371.898	19.829	820.929	621.862
372.913	19.856	820.193	621.346
373.927	19.716	819.976	620.624
374.942	19.762	819.448	620.334
375.956	19.853	819.247	620.454
376.971	20.042	818.723	620.681
377.986	20.076	818.397	620.499
379.000	20.001	817.858	619.767
380.015	20.001	817.229	619.236
381.029	19.929	816.617	618.462
382.044	19.989	816.159	618.274
383.059	20.139	815.084	617.940
384.073	20.038	814.718	617.247
385.088	19.768	814.135	615.788
386.102	19.879	813.451	615.612
387.117	19.751	812.870	614.665
388.132	19.893	812.038	614.483
389.146	19.763	812.077	613.997
390.161	19.984	811.451	614.253
391.175	19.929	811.335	613.918
392.190	19.957	810.503	613.332
393.205	19.839	810.104	612.557
394.219	19.966	809.750	612.686
395.234	19.877	808.911	611.683
396.248	19.661	808.751	610.745
397.263	19.644	808.016	610.074
398.278	19.567	807.827	609.604
399.292	19.677	807.319	609.555
400.307	19.653	806.984	609.165
401.321	19.780	806.621	609.285
402.336	19.706	806.365	608.776
403.350	19.873	805.758	608.854
404.365	20.113	805.106	609.149
405.380	20.127	804.876	608.971
406.394	20.377	804.239	609.314
407.409	20.284	803.993	608.747
408.423	20.251	803.697	608.352
409.438	20.312	803.514	608.373
410.453	20.437	802.919	608.308
411.467	20.295	802.692	607.585
412.482	20.570	802.297	608.193
413.496	20.642	801.875	608.072
414.511	20.521	801.437	607.264
415.526	20.348	801.005	606.278
416.540	20.250	800.729	605.673
417.555	20.525	799.752	605.839
418.569	20.626	799.459	605.915
419.584	20.535	799.035	605.223
420.599	20.701	798.593	605.412
421.613	161.488	1372.088	1797.319
422.628	140.140	1455.657	1797.434
