DTS Sentinel unit serial number:	SN413079Multiplexer serial number:	ORYXHardware model number:	OX4-SRSoftware version number:	ORYX F/W v4.00 Oryx Data Collector v3.7.2.0data status	okinstallation	princeton_trtdifferential loss correction	single-endedforward channel	channel 1reverse channel	N/Adate	2019/09/10time	19:08:11forward acquisition time	60.00reverse acquisition time	0.00gamma	496.2192k internal	0.2316k external	0.2316temperature offset calibration	0.9926default loss term (dB/km)	0.3790temperature slope calibration	1.0000multiplexer offset coefficient	1.0000multiplexer slope coefficient	1.0000fibre end	0.00T internal ref (°C)	34.25T ext. ref 1 (°C)	-0.36T ext. ref 2 (°C)	26.50length (m)	temperature (°C)	Stokes	anti-Stokes-747.200	223.949	0.117	-0.191
-746.185	-200.000	0.046	0.228
-745.171	524.274	-0.154	0.368
-744.156	800.000	-0.089	0.353
-743.142	63.571	0.099	-0.101
-742.127	-16.492	-0.210	-0.135
-741.112	-5.888	-0.022	0.015
-740.098	-61.299	-0.034	-0.015
-739.083	617.692	0.054	0.136
-738.069	672.583	0.120	0.315
-737.054	-200.000	0.011	-0.532
-736.039	-136.734	0.199	0.023
-735.025	1.891	-0.083	-0.061
-734.010	-154.497	-0.157	0.011
-732.996	-200.000	-0.009	-0.320
-731.981	83.351	-0.150	-0.166
-730.966	-133.734	0.164	-0.021
-729.952	163.456	0.065	-0.093
-728.937	-125.834	-0.171	-0.026
-727.923	211.253	0.202	-0.322
-726.908	800.000	0.049	0.161
-725.894	208.350	-0.080	0.126
-724.879	800.000	-0.080	-0.316
-723.864	291.379	-0.080	-0.147
-722.850	-67.460	-0.264	0.105
-721.835	412.991	-0.186	-0.400
-720.821	-101.388	0.372	0.092
-719.806	28.283	0.126	-0.108
-718.791	-164.106	-0.171	0.008
-717.777	84.061	0.096	0.106
-716.762	-200.000	-0.006	0.208
-715.748	-200.000	0.026	-0.182
-714.733	-36.707	-0.367	-0.200
-713.718	19.521	-0.131	0.107
-712.704	484.284	-0.096	-0.221
-711.689	34.456	-0.273	0.241
-710.675	-26.370	0.249	-0.148
-709.660	-200.000	-0.008	0.108
-708.645	19.015	-0.153	0.124
-707.631	-148.206	-0.108	0.009
-706.616	9.941	-0.229	0.176
-705.602	25.251	0.254	-0.213
-704.587	474.928	0.070	-0.161
-703.572	-200.000	-0.009	0.050
-702.558	-134.202	-0.087	-0.011
-701.543	-67.228	0.215	0.085
-700.529	50.761	-0.094	0.090
-699.514	-0.832	0.123	-0.088
-698.499	-200.000	-0.020	-0.224
-697.485	-200.000	-0.028	-0.467
-696.470	-69.575	-0.005	-0.002
-695.456	559.423	-0.044	0.109
-694.441	800.000	0.125	-0.428
-693.426	746.741	0.091	-0.248
-692.412	316.019	0.082	-0.157
-691.397	-17.223	0.334	-0.213
-690.383	-27.816	-0.060	0.035
-689.368	139.265	0.135	-0.179
-688.354	-33.034	-0.050	0.028
-687.339	-200.000	0.003	-0.067
-686.324	-4.341	-0.175	-0.123
-685.310	-71.419	0.392	-0.148
-684.295	269.473	-0.131	-0.233
-683.281	-200.000	-0.020	-0.357
-682.266	322.861	-0.089	0.172
-681.251	-42.230	-0.440	0.227
-680.237	565.108	-0.071	0.173
-679.222	-200.000	-0.021	-0.228
-678.208	-200.000	-0.006	-0.102
-677.193	153.100	-0.152	-0.211
-676.178	15.730	-0.219	-0.174
-675.164	-200.000	-0.020	-0.299
-674.149	164.114	0.119	0.169
-673.135	-79.395	-0.075	0.026
-672.120	399.025	-0.134	0.284
-671.105	-57.949	0.146	-0.064
-670.091	75.408	-0.132	-0.140
-669.076	-57.860	0.157	0.069
-668.062	-117.961	-0.160	0.029
-667.047	800.000	0.056	-0.159
-666.032	-83.910	0.412	0.132
-665.018	64.189	-0.127	-0.129
-664.003	-109.473	-0.514	0.110
-662.989	205.597	-0.197	0.309
-661.974	-97.039	0.183	0.048
-660.959	800.000	-0.048	0.156
-659.945	13.637	0.157	-0.123
-658.930	-200.000	-0.011	0.069
-657.916	-124.417	0.460	0.072
-656.901	-89.417	-0.403	0.120
-655.886	-84.080	-0.245	-0.079
-654.872	-45.883	-0.241	-0.120
-653.857	-46.801	0.082	-0.040
-652.843	88.378	-0.256	-0.286
-651.828	-121.334	0.116	-0.019
-650.814	-120.557	0.205	0.035
-649.799	430.298	0.287	-0.626
-648.784	-200.000	-0.089	-0.419
-647.770	800.000	0.064	-0.193
-646.755	403.035	0.018	-0.039
-645.741	800.000	-0.046	-0.202
-644.726	222.142	-0.024	-0.039
-643.711	171.672	0.225	0.326
-642.697	-200.000	0.017	0.348
-641.682	628.274	0.118	-0.301
-640.668	-85.676	0.256	-0.080
-639.653	-161.519	-0.352	-0.018
-638.638	-44.928	0.119	0.060
-637.624	800.000	-0.123	0.367
-636.609	-193.023	0.473	0.004
-635.595	-77.739	-0.102	0.036
-634.580	574.284	0.146	-0.360
-633.565	137.006	-0.093	-0.123
-632.551	-51.748	-0.086	-0.040
-631.536	-40.662	-0.181	-0.094
-630.522	-200.000	-0.019	-0.130
-629.507	30.722	-0.068	0.059
-628.492	-165.756	0.090	-0.004
-627.478	-200.000	-0.024	-0.237
-626.463	104.125	-0.156	0.185
-625.449	658.948	0.023	-0.059
-624.434	746.679	-0.112	-0.303
-623.419	800.000	-0.068	-0.229
-622.405	372.285	0.256	0.524
-621.390	-167.406	0.202	-0.008
-620.376	161.762	-0.219	-0.309
-619.361	34.699	-0.215	0.189
-618.346	-162.052	0.302	-0.015
-617.332	800.000	-0.028	-0.110
-616.317	-200.000	0.038	0.272
-615.303	-92.934	-0.156	0.044
-614.288	-95.717	0.353	0.095
-613.273	-101.384	-0.309	0.076
-612.259	-137.335	0.170	0.019
-611.244	-55.516	-0.106	0.048
-610.230	800.000	-0.076	0.233
-609.215	800.000	0.090	0.281
-608.201	30.601	0.197	-0.170
-607.186	800.000	0.033	-0.101
-606.171	152.439	0.203	0.280
-605.157	251.920	-0.258	-0.443
-604.142	83.720	-0.060	-0.066
-603.128	49.180	-0.167	0.158
-602.113	-71.160	0.114	0.043
-601.098	347.543	-0.163	-0.323
-600.084	800.000	0.051	-0.149
-599.069	800.000	0.044	0.142
-598.055	42.887	-0.224	0.205
-597.040	62.863	0.093	0.094
-596.025	13.063	-0.165	0.128
-595.011	13.515	-0.285	-0.223
-593.996	-200.000	0.035	0.202
-592.982	-200.000	0.055	-0.400
-591.967	269.904	-0.049	0.087
-590.952	0.452	-0.138	-0.099
-589.938	800.000	0.071	0.262
-588.923	238.606	0.067	0.113
-587.909	1.675	0.044	0.032
-586.894	-4.002	0.278	-0.194
-585.879	167.977	0.141	0.202
-584.865	-154.713	-0.224	0.015
-583.850	38.660	-0.286	-0.256
-582.836	-200.000	0.030	-0.176
-581.821	-21.077	-0.213	0.131
-580.806	219.645	0.111	0.178
-579.792	-14.036	-0.026	-0.017
-578.777	200.223	-0.144	-0.223
-577.763	-160.907	0.110	-0.006
-576.748	-176.541	-0.377	0.010
-575.733	-139.230	-0.300	-0.033
-574.719	-53.813	0.175	-0.080
-573.704	800.000	0.081	-0.300
-572.690	-200.000	-0.036	0.245
-571.675	717.528	-0.072	-0.192
-570.661	238.237	-0.112	0.187
-569.646	28.357	0.207	-0.176
-568.631	-77.364	-0.158	0.055
-567.617	-3.168	-0.128	-0.090
-566.602	-142.900	-0.032	0.003
-565.588	296.876	0.032	-0.058
-564.573	465.736	0.130	0.292
-563.558	190.291	-0.059	-0.090
-562.544	192.242	-0.081	-0.123
-561.529	253.990	-0.048	0.082
-560.515	-200.000	-0.006	0.070
-559.500	-38.447	-0.403	-0.214
-558.485	-198.404	0.158	-0.001
-557.471	-200.000	0.009	-0.196
-556.456	-200.000	-0.032	0.299
-555.442	-200.000	-0.022	0.106
-554.427	800.000	0.101	0.280
-553.412	-5.115	-0.236	-0.163
-552.398	-110.146	-0.272	-0.057
-551.383	-200.000	-0.005	-0.198
-550.369	-42.019	0.110	0.057
-549.354	-154.655	0.290	0.019
-548.339	800.000	0.050	-0.189
-547.325	673.022	-0.113	0.294
-546.310	271.382	-0.116	-0.206
-545.296	-200.000	0.010	0.305
-544.281	-52.189	-0.033	0.015
-543.266	786.440	-0.152	0.418
-542.252	-16.883	0.203	-0.129
-541.237	444.501	-0.099	-0.218
-540.223	-105.478	-0.214	0.049
-539.208	7.542	0.057	0.043
-538.193	165.915	-0.069	-0.098
-537.179	409.730	0.133	-0.283
-536.164	-94.513	-0.123	-0.034
-535.150	598.475	-0.070	-0.174
-534.135	-78.537	0.350	0.120
-533.121	-69.367	-0.206	-0.079
-532.106	-28.295	0.384	0.223
-531.091	-200.000	0.025	0.395
-530.077	-179.015	0.255	0.006
-529.062	-141.464	0.255	0.026
-528.048	-61.630	-0.246	-0.104
-527.033	-95.363	0.317	-0.086
-526.018	-6.860	-0.301	0.206
-525.004	233.648	0.148	0.244
-523.989	-40.636	-0.431	0.224
-522.975	4.014	-0.281	0.207
-521.960	203.706	0.047	0.074
-520.945	68.983	-0.294	0.303
-519.931	-92.951	0.122	0.034
-518.916	-200.000	0.013	-0.080
-517.902	339.599	-0.086	0.169
-516.887	800.000	0.024	0.080
-515.872	265.754	0.102	-0.179
-514.858	-106.384	0.192	-0.043
-513.843	-148.796	-0.113	0.009
-512.829	-78.246	-0.136	-0.047
-511.814	-136.600	0.140	0.016
-510.799	800.000	-0.031	-0.126
-509.785	328.411	0.111	0.214
-508.770	800.000	-0.073	0.315
-507.756	-76.083	0.209	-0.074
-506.741	-200.000	-0.084	0.442
-505.726	143.682	0.129	0.173
-504.712	800.000	-0.048	-0.182
-503.697	-8.743	-0.145	-0.098
-502.683	421.933	-0.111	0.238
-501.668	1.702	0.045	0.032
-500.653	-200.000	-0.016	0.209
-499.639	176.065	-0.163	0.237
-498.624	-38.478	-0.146	-0.078
-497.610	-200.000	-0.005	0.091
-496.595	-26.086	0.136	0.080
-495.581	-192.075	0.109	-0.001
-494.566	303.946	-0.139	0.258
-493.551	472.965	0.113	0.255
-492.537	-200.000	0.012	-0.112
-491.522	-200.000	-0.011	0.141
-490.508	-200.000	0.056	-0.454
-489.493	-45.869	-0.070	-0.034
-488.478	71.377	-0.299	-0.311
-487.464	118.618	-0.231	-0.286
-486.449	361.563	0.111	0.222
-485.435	122.582	0.091	-0.114
-484.420	41.109	-0.462	-0.418
-483.405	73.531	-0.365	-0.383
-482.391	-136.209	0.173	0.020
-481.376	-56.331	0.341	-0.152
-480.362	-61.237	0.324	0.137
-479.347	96.368	-0.126	-0.144
-478.332	244.850	-0.076	0.128
-477.318	-200.000	0.008	-0.150
-476.303	100.859	-0.042	0.049
-475.289	214.213	-0.179	-0.285
-474.274	-200.000	-0.011	0.110
-473.259	-96.790	0.270	-0.071
-472.245	419.465	0.079	-0.170
-471.230	-126.342	-0.189	-0.028
-470.216	51.115	0.251	0.238
-469.201	184.872	-0.070	-0.105
-468.186	79.185	0.217	-0.233
-467.172	-120.078	-0.234	-0.040
-466.157	24.067	0.210	-0.174
-465.143	158.602	0.053	0.073
-464.128	46.086	0.223	0.207
-463.113	800.000	-0.037	-0.159
-462.099	-129.321	-0.154	-0.021
-461.084	34.693	0.174	0.153
-460.070	-98.907	0.147	0.037
-459.055	747.315	-0.111	0.300
-458.040	-200.000	-0.015	-0.100
-457.026	24.597	0.129	0.107
-456.011	800.000	0.056	0.225
-454.997	-200.000	0.012	0.101
-453.982	-91.016	0.252	0.073
-452.968	-73.804	0.270	-0.098
-451.953	-81.984	-0.213	0.070
-450.938	32.492	0.125	-0.109
-449.924	95.230	-0.096	0.110
-448.909	35.157	-0.128	-0.112
-447.895	-50.009	-0.088	0.042
-446.880	-65.500	0.049	-0.020
-445.865	-132.107	-0.226	0.029
-444.851	-2.245	0.271	0.190
-443.836	-92.733	-0.331	-0.093
-442.822	800.000	-0.026	-0.073
-441.807	800.000	0.147	-0.575
-440.792	124.171	0.086	-0.108
-439.778	470.141	-0.145	0.325
-438.763	543.098	-0.115	0.274
-437.749	-52.507	-0.381	0.176
-436.734	255.665	-0.053	-0.090
-435.719	-19.983	-0.095	-0.059
-434.705	-87.066	0.313	-0.095
-433.690	6.949	-0.295	-0.220
-432.676	287.597	-0.093	0.168
-431.661	226.455	0.020	-0.032
-430.646	-15.925	-0.043	0.028
-429.632	-200.000	0.026	0.292
-428.617	-200.000	0.020	-0.090
-427.603	-113.945	0.101	0.020
-426.588	-124.874	-0.274	-0.042
-425.573	92.290	0.204	0.230
-424.559	-168.209	-0.291	0.011
-423.544	48.706	0.175	-0.164
-422.530	71.246	0.135	-0.140
-421.515	15.342	0.104	-0.082
-420.500	-52.715	0.064	0.030
-419.486	-104.393	-0.200	0.046
-418.471	-149.791	0.174	-0.014
-417.457	57.118	0.325	-0.317
-416.442	-53.378	-0.281	-0.129
-415.428	-27.799	-0.116	-0.067
-414.413	800.000	0.054	0.183
-413.398	75.378	0.138	0.146
-412.384	-200.000	0.076	-0.354
-411.369	101.806	-0.206	0.240
-410.355	-111.335	0.187	0.038
-409.340	185.192	-0.075	-0.112
-408.325	-88.031	0.185	0.056
-407.311	800.000	-0.093	-0.321
-406.296	551.594	-0.068	0.164
-405.282	-200.000	0.031	-0.230
-404.267	-66.815	0.124	-0.049
-403.252	-200.000	-0.015	0.081
-402.238	67.650	-0.064	0.065
-401.223	55.032	-0.274	-0.265
-400.209	19.758	0.130	0.105
-399.194	-70.686	-0.186	0.070
-398.179	215.718	-0.138	-0.219
-397.165	18.281	0.308	-0.246
-396.150	-9.740	0.114	-0.076
-395.136	41.800	0.255	-0.231
-394.121	188.348	-0.075	-0.112
-393.106	240.864	-0.114	-0.189
-392.092	-200.000	0.001	-0.031
-391.077	142.332	-0.123	-0.164
-390.063	331.552	-0.145	-0.279
-389.048	-200.000	0.089	-0.423
-388.033	59.141	0.157	-0.154
-387.019	162.283	0.074	-0.104
-386.004	16.223	-0.080	0.063
-384.990	-61.795	-0.324	0.136
-383.975	800.000	-0.130	0.359
-382.960	-200.000	0.034	-0.165
-381.946	-67.876	0.149	-0.058
-380.931	-119.891	-0.137	0.024
-379.917	23.681	0.252	0.207
-378.902	-200.000	-0.013	-0.081
-377.888	-101.730	0.155	-0.038
-376.873	-200.000	0.022	-0.205
-375.858	569.931	-0.050	0.122
-374.844	65.565	0.044	0.044
-373.829	325.458	0.084	0.160
-372.815	249.569	0.035	0.059
-371.800	520.181	0.030	0.070
-370.785	-138.358	0.385	-0.042
-369.771	800.000	-0.050	0.172
-368.756	41.203	-0.166	0.150
-367.742	800.000	0.027	-0.095
-366.727	800.000	0.066	0.187
-365.712	-20.461	-0.168	-0.103
-364.698	181.959	-0.163	0.239
-363.683	-90.614	-0.112	0.032
-362.669	190.593	-0.125	0.187
-361.654	-66.738	0.165	0.065
-360.639	-133.132	0.174	-0.022
-359.625	-112.255	-0.270	-0.054
-358.610	210.596	-0.091	0.143
-357.596	149.189	0.138	0.186
-356.581	-78.774	0.303	0.103
-355.566	-13.211	-0.143	0.092
-354.552	1.821	0.238	-0.171
-353.537	800.000	0.104	-0.310
-352.523	94.716	-0.146	0.166
-351.508	-200.000	0.074	0.441
-350.493	250.338	-0.029	-0.049
-349.479	-98.776	0.187	-0.048
-348.464	-200.000	0.038	-0.311
-347.450	-80.721	0.074	-0.025
-346.435	-100.457	-0.397	0.098
-345.420	445.429	0.026	0.058
-344.406	-22.752	0.138	0.083
-343.391	-73.301	0.028	0.010
-342.377	-129.626	0.146	-0.020
-341.362	-200.000	-0.060	-0.359
-340.348	-95.224	-0.235	0.063
-339.333	-85.692	0.260	0.081
-338.318	-90.588	0.304	-0.088
-337.304	208.143	-0.184	0.287
-336.289	-200.000	-0.017	0.350
-335.275	-69.450	0.326	-0.124
-334.260	800.000	0.057	-0.157
-333.245	-200.000	-0.005	-0.189
-332.231	800.000	0.090	0.375
-331.216	329.604	0.065	0.124
-330.202	800.000	0.039	0.163
-329.187	566.462	-0.048	-0.116
-328.172	-47.654	0.171	-0.083
-327.158	-82.006	-0.137	-0.045
-326.143	-200.000	0.056	-0.315
-325.129	-200.000	0.004	-0.381
-324.114	-26.413	0.261	-0.152
-323.099	800.000	0.031	0.108
-322.085	46.079	0.041	-0.038
-321.070	16.314	-0.045	0.035
-320.056	65.862	-0.337	0.340
-319.041	-61.480	0.141	0.059
-318.026	48.415	-0.197	-0.183
-317.012	-96.038	-0.390	-0.103
-315.997	-96.682	-0.284	-0.075
-314.983	-106.388	0.077	-0.017
-313.968	333.996	0.105	0.202
-312.953	13.983	0.051	-0.039
-311.939	18.291	0.074	0.059
-310.924	-127.538	0.001	0.000
-309.910	757.186	0.073	-0.196
-308.895	-200.000	-0.037	-0.319
-307.880	-108.630	-0.253	-0.054
-306.866	92.202	0.144	0.161
-305.851	-122.896	-0.120	-0.019
-304.837	-200.000	-0.034	0.255
-303.822	-82.758	-0.222	0.072
-302.807	-200.000	0.022	-0.175
-301.793	-118.217	-0.140	-0.025
-300.778	-193.557	-0.297	-0.003
-299.764	292.780	-0.068	-0.123
-298.749	-108.275	-0.181	0.039
-297.735	-200.000	0.020	-0.099
-296.720	-64.572	0.363	-0.147
-295.705	-93.811	0.252	-0.069
-294.691	-152.062	-0.244	0.018
-293.676	-36.513	0.177	0.095
-292.662	165.599	0.105	-0.148
-291.647	252.375	-0.088	-0.149
-290.632	-200.000	-0.008	-0.302
-289.618	800.000	-0.115	-0.344
-288.603	-200.000	-0.103	0.572
-287.589	15.219	-0.261	-0.204
-286.574	-53.063	0.272	0.124
-285.559	47.128	0.180	0.166
-284.545	-200.000	0.000	0.030
-283.530	800.000	0.070	-0.279
-282.516	-127.258	0.310	0.045
-281.501	-190.443	-0.223	-0.002
-280.486	800.000	-0.066	-0.222
-279.472	-200.000	-0.001	-0.405
-278.457	-137.057	0.371	-0.042
-277.443	800.000	-0.056	0.183
-276.428	-3.286	0.293	-0.203
-275.413	-7.338	0.248	0.167
-274.399	-34.471	0.264	-0.144
-273.384	-104.322	-0.067	0.016
-272.370	111.813	-0.233	0.279
-271.355	123.028	0.073	0.091
-270.340	800.000	0.069	-0.235
-269.326	371.055	0.033	0.066
-268.311	263.239	-0.062	0.108
-267.297	-50.966	0.172	-0.080
-266.282	451.172	-0.180	-0.394
-265.267	-200.000	0.051	0.565
-264.253	-200.000	0.010	0.139
-263.238	800.000	0.094	-0.261
-262.224	59.630	0.364	0.357
-261.209	88.634	-0.031	-0.034
-260.195	-117.436	-0.173	0.031
-259.180	43.952	0.368	0.335
-258.165	-86.683	0.088	-0.027
-257.151	31.769	0.231	0.197
-256.136	0.471	-0.228	0.162
-255.122	-78.093	-0.039	0.013
-254.107	109.647	-0.129	0.154
-253.092	-4.514	0.257	-0.177
-252.078	92.382	-0.052	0.058
-251.063	263.467	0.038	-0.066
-250.049	-70.556	-0.377	0.142
-249.034	-112.410	-0.218	-0.043
-248.019	83.868	0.139	0.151
-247.005	800.000	-0.044	-0.187
-245.990	-12.421	-0.134	0.087
-244.976	215.386	-0.087	0.137
-243.961	-94.558	0.258	-0.070
-242.946	160.115	-0.158	-0.219
-241.932	-147.016	0.161	-0.014
-240.917	4.429	0.163	0.118
-239.903	397.824	-0.161	0.334
-238.888	-182.890	0.094	-0.002
-237.873	42.072	-0.143	0.129
-236.859	196.475	0.228	-0.345
-235.844	800.000	-0.029	0.122
-234.830	152.436	0.205	0.277
-233.815	-200.000	0.020	-0.237
-232.800	22.391	-0.220	0.179
-231.786	-73.327	-0.111	0.040
-230.771	13.942	-0.103	0.079
-229.757	-200.000	0.003	-0.030
-228.742	-169.902	0.281	-0.010
-227.727	614.736	0.061	0.151
-226.713	-200.000	0.019	0.151
-225.698	-79.222	0.126	-0.042
-224.684	250.675	-0.111	-0.186
-223.669	204.093	0.108	-0.165
-222.655	128.220	-0.083	0.105
-221.640	319.663	-0.076	0.143
-220.625	-119.429	0.127	-0.022
-219.611	-200.000	-0.028	-0.389
-218.596	-179.504	-0.138	-0.003
-217.582	800.000	-0.128	0.363
-216.567	486.108	-0.110	0.248
-215.552	34.126	-0.292	0.252
-214.538	-200.000	0.005	-0.051
-213.523	-159.246	-0.136	0.008
-212.509	381.644	-0.070	-0.142
-211.494	-200.000	-0.031	0.139
-210.479	-49.684	-0.394	-0.186
-209.465	57.879	0.283	-0.275
-208.450	231.512	-0.106	0.172
-207.436	582.279	0.219	0.534
-206.421	-200.000	-0.039	-0.308
-205.406	-200.000	0.012	0.207
-204.392	-17.519	-0.112	0.070
-203.377	41.060	-0.076	-0.068
-202.363	490.232	0.080	0.182
-201.348	800.000	-0.028	0.105
-200.333	-131.185	-0.094	0.012
-199.319	800.000	0.114	-0.343
-198.304	-72.496	0.038	-0.014
-197.290	-149.923	0.052	0.004
-196.275	-134.117	-0.074	-0.009
-195.260	-65.387	-0.223	0.089
-194.246	107.849	-0.087	-0.103
-193.231	198.091	-0.122	0.186
-192.217	-183.741	-0.240	-0.004
-191.202	800.000	-0.022	-0.078
-190.187	-121.163	0.226	0.038
-189.173	-2.590	0.291	-0.202
-188.158	-31.379	-0.061	0.034
-187.144	-30.059	0.118	0.067
-186.129	-200.000	0.020	0.182
-185.114	436.166	0.070	-0.151
-184.100	-79.705	-0.254	0.085
-183.085	-200.000	-0.031	-0.320
-182.071	-126.811	-0.233	0.034
-181.056	800.000	0.054	0.232
-180.042	-97.829	-0.126	-0.032
-179.027	-154.658	-0.390	0.026
-178.012	93.664	0.059	0.066
-176.998	739.948	0.179	0.477
-175.983	35.711	0.139	-0.121
-174.969	-200.000	0.010	-0.066
-173.954	800.000	-0.014	-0.051
-172.939	-45.012	-0.170	0.084
-171.925	570.893	0.194	-0.468
-170.910	193.979	0.068	-0.102
-169.896	227.516	-0.085	-0.137
-168.881	52.785	-0.136	-0.128
-167.866	-200.000	-0.010	-0.150
-166.852	377.749	-0.174	-0.352
-165.837	-150.678	0.163	0.012
-164.823	122.100	0.217	0.268
-163.808	-82.686	0.256	0.082
-162.793	-110.142	0.417	0.086
-161.779	-200.000	0.036	0.287
-160.764	377.146	-0.107	0.217
-159.750	-200.000	-0.042	0.223
-158.735	-200.000	0.006	-0.254
-157.720	30.391	0.163	0.138
-156.706	800.000	-0.044	-0.185
-155.691	4.479	-0.108	-0.079
-154.677	19.155	0.266	0.211
-153.662	22.933	0.216	0.176
-152.647	-89.739	0.133	-0.038
-151.633	188.756	0.055	0.082
-150.618	800.000	0.059	0.211
-149.604	-99.980	-0.174	-0.043
-148.589	-200.000	0.242	0.000
-147.574	800.000	0.115	-0.411
-146.560	800.000	-0.053	0.169
-145.545	-109.601	0.127	-0.026
-144.531	-200.000	-0.014	-0.210
-143.516	-136.714	0.064	-0.007
-142.502	-200.000	-0.054	0.485
-141.487	66.878	0.076	-0.076
-140.472	475.951	0.052	0.116
-139.458	-100.550	0.065	-0.016
-138.443	-200.000	0.035	-0.188
-137.429	800.000	-0.064	0.267
-136.414	72.109	0.337	-0.347
-135.399	800.000	0.052	-0.220
-134.385	164.759	0.071	0.099
-133.370	-135.951	0.254	-0.030
-132.356	193.916	-0.042	-0.063
-131.341	-96.049	-0.194	0.051
-130.326	-150.167	0.141	0.011
-129.312	-156.999	-0.088	0.005
-128.297	-182.770	0.217	-0.004
-127.283	215.478	-0.135	0.211
-126.268	800.000	0.051	0.151
-125.253	18.303	0.156	0.123
-124.239	20.338	0.270	-0.215
-123.224	-200.000	0.019	0.170
-122.210	45.829	-0.190	0.174
-121.195	68.389	-0.279	0.283
-120.180	354.513	0.083	-0.164
-119.166	800.000	0.065	-0.280
-118.151	-90.148	0.162	0.047
-117.137	-200.000	-0.016	-0.076
-116.122	-184.643	-0.400	0.006
-115.107	18.250	-0.203	-0.160
-114.093	54.936	-0.248	-0.237
-113.078	128.364	-0.055	0.069
-112.064	107.852	0.080	0.095
-111.049	-3.776	0.294	0.201
-110.034	-200.000	0.006	0.311
-109.020	-35.485	0.329	-0.177
-108.005	-200.000	-0.014	0.216
-106.991	-107.152	-0.458	-0.100
-105.976	-136.701	-0.160	0.018
-104.962	1.532	-0.260	-0.185
-103.947	-172.217	-0.309	0.010
-102.932	424.105	-0.023	-0.049
-101.918	800.000	0.041	-0.131
-100.903	-54.057	-0.161	0.072
-99.889	-200.000	-0.016	0.094
-98.874	78.233	-0.138	0.146
-97.859	-40.878	-0.217	0.111
-96.845	196.895	0.187	0.282
-95.830	28.167	0.229	0.190
-94.816	43.848	-0.062	-0.056
-93.801	-18.476	0.223	-0.137
-92.786	-65.442	0.394	-0.156
-91.772	-92.064	0.187	0.052
-90.757	-200.000	0.004	-0.143
-89.743	60.419	-0.202	0.197
-88.728	311.498	0.082	-0.151
-87.713	237.540	0.070	-0.115
-86.699	297.296	-0.110	0.199
-85.684	-36.577	-0.123	-0.065
-84.670	82.509	-0.200	0.214
-83.655	128.369	0.084	0.106
-82.640	116.353	0.272	0.328
-81.626	436.944	-0.069	0.149
-80.611	-34.635	-0.099	0.053
-79.597	-54.794	0.583	0.260
-78.582	10.276	-0.088	0.066
-77.567	392.545	-0.291	0.597
-76.553	118.739	0.166	0.202
-75.538	30.455	-0.013	-0.011
-74.524	800.000	-0.058	-0.176
-73.509	83.396	-0.075	0.081
-72.494	-80.078	0.084	0.028
-71.480	82.346	0.112	-0.120
-70.465	155.992	-0.104	-0.142
-69.451	108.721	0.148	-0.174
-68.436	-37.492	0.283	-0.149
-67.422	-200.000	0.023	0.213
-66.407	-116.507	-0.291	-0.053
-65.392	-98.569	0.206	0.052
-64.378	-11.262	0.297	0.193
-63.363	32.206	-0.039	-0.033
-62.349	-86.535	-0.302	0.091
-61.334	12.250	-1.059	-0.804
-60.319	105.087	0.301	0.350
-59.305	-200.000	-0.109	-1.088
-58.290	177.172	0.413	0.593
-57.276	233.119	0.940	1.523
-56.261	-200.000	102.522	609.690
-55.246	608.397	1432.473	3524.221
-54.232	181.986	2645.450	3840.833
-53.217	120.323	2182.613	2671.048
-52.203	46.179	1628.064	1486.583
-51.188	37.821	1362.559	1193.215
-50.173	34.531	1319.488	1135.901
-49.159	56.789	1372.268	1317.068
-48.144	60.409	1388.960	1354.973
-47.130	38.033	1341.612	1175.962
-46.115	34.380	1323.644	1138.399
-45.100	34.236	1319.018	1133.515
-44.086	34.140	1316.441	1130.685
-43.071	34.016	1314.230	1128.005
-42.057	34.063	1312.380	1126.650
-41.042	34.127	1310.322	1125.220
-40.027	34.152	1308.966	1124.157
-39.013	34.184	1306.707	1122.362
-37.998	34.212	1304.956	1120.979
-36.984	34.131	1303.505	1119.209
-35.969	34.304	1301.459	1118.425
-34.954	34.301	1299.172	1116.400
-33.940	34.282	1298.506	1115.667
-32.925	34.352	1296.798	1114.569
-31.911	34.363	1295.431	1113.411
-30.896	34.363	1294.299	1112.397
-29.881	34.344	1292.888	1111.026
-28.867	34.438	1291.063	1109.963
-27.852	34.431	1289.647	1108.662
-26.838	34.429	1288.629	1107.731
-25.823	34.391	1287.315	1106.337
-24.809	34.380	1285.558	1104.718
-23.794	34.433	1284.129	1103.751
-22.779	34.344	1283.383	1102.552
-21.765	34.295	1282.221	1101.227
-20.750	34.306	1281.271	1100.430
-19.736	34.238	1279.569	1098.532
-18.721	34.015	1279.165	1096.860
-17.706	34.275	1277.180	1096.607
-16.692	34.268	1275.994	1095.508
-15.677	34.234	1274.915	1094.341
-14.663	34.233	1273.413	1093.005
-13.648	34.060	1272.744	1091.394
-12.633	34.105	1271.898	1090.885
-11.619	34.183	1270.487	1090.078
-10.604	34.147	1269.975	1089.389
-9.590	34.130	1268.952	1088.371
-8.575	34.254	1267.455	1087.750
-7.560	34.148	1266.995	1086.707
-6.546	34.074	1266.529	1085.844
-5.531	34.091	1265.521	1085.033
-4.517	34.136	1264.580	1084.437
-3.502	34.196	1263.491	1083.805
-2.487	34.285	1262.113	1083.083
-1.473	34.156	1258.187	1078.940
-0.458	32.265	1242.938	1055.218
0.556	25.744	1223.604	1011.658
1.571	21.579	1227.923	991.603
2.586	20.561	1243.336	998.120
3.600	20.173	1233.359	987.810
4.615	14.679	1160.451	899.807
5.629	4.764	1082.106	788.936
6.644	-0.021	1060.916	749.601
7.659	-0.398	1058.490	745.944
8.673	-0.510	1056.628	744.007
9.688	-0.510	1055.196	742.935
10.702	-0.192	1054.032	743.624
11.717	5.647	1062.308	778.482
12.731	14.596	1075.689	833.077
13.746	17.996	1079.210	852.731
14.761	17.716	1078.734	850.881
15.775	17.647	1077.551	849.531
16.790	17.300	1076.943	847.248
17.804	17.073	1076.560	845.740
18.819	17.211	1075.661	845.646
19.834	17.419	1075.300	846.320
20.848	17.307	1074.589	845.131
21.863	17.344	1074.309	845.017
22.877	17.273	1073.380	843.858
23.892	17.154	1073.009	842.904
24.907	17.325	1071.729	842.674
25.921	17.313	1071.188	842.110
26.936	17.310	1069.428	840.638
27.950	17.219	1067.910	838.922
28.965	17.110	1065.795	836.649
29.980	17.123	1064.188	835.377
30.994	17.374	1062.852	835.487
32.009	17.351	1061.465	834.209
33.023	17.099	1059.989	831.743
34.038	17.353	1059.229	832.315
35.053	17.379	1058.624	831.895
36.067	17.476	1057.380	831.319
37.082	17.529	1056.509	830.819
38.096	17.454	1056.493	830.366
39.111	17.714	1055.258	830.587
40.126	17.466	1053.897	828.236
41.140	17.145	1052.365	825.401
42.155	17.058	1050.939	823.788
43.169	17.245	1049.426	823.435
44.184	17.151	1048.430	822.126
45.199	16.981	1047.823	820.754
46.213	17.011	1046.436	819.740
47.228	17.021	1045.180	818.732
48.242	17.134	1044.204	818.440
49.257	17.279	1042.996	818.118
50.271	17.222	1042.272	817.203
51.286	17.176	1041.804	816.543
52.301	17.248	1040.792	816.024
53.315	17.208	1039.625	814.846
54.330	17.307	1038.361	814.255
55.344	17.314	1037.795	813.774
56.359	17.350	1036.730	813.038
57.374	17.139	1035.891	811.297
58.388	17.280	1034.970	811.181
59.403	17.130	1034.141	809.741
60.417	17.098	1033.371	808.916
61.432	17.078	1032.159	807.798
62.447	17.157	1032.046	808.015
63.461	17.333	1031.216	808.132
64.476	17.149	1030.124	806.331
65.490	17.117	1028.976	805.207
66.505	17.207	1028.114	804.890
67.520	17.267	1027.599	804.697
68.534	17.152	1026.023	802.851
69.549	16.851	1025.376	800.851
70.563	16.833	1024.979	800.384
71.578	17.040	1023.483	800.120
72.593	16.807	1022.957	798.544
73.607	17.032	1022.001	798.786
74.622	17.136	1021.736	798.995
75.636	17.150	1021.065	798.468
76.651	17.003	1020.231	797.055
77.666	16.925	1019.268	795.864
78.680	17.170	1018.420	796.280
79.695	17.154	1018.136	795.912
80.709	17.100	1017.433	795.040
81.724	17.116	1016.523	794.335
82.739	17.149	1015.676	793.755
83.753	17.367	1014.958	794.141
84.768	17.528	1013.874	793.976
85.782	17.463	1013.171	793.052
86.797	17.471	1011.640	791.820
87.812	17.397	1010.679	790.655
88.826	17.397	1009.845	789.930
89.841	17.607	1008.767	789.992
90.855	17.517	1007.516	788.525
91.870	17.486	1006.957	787.874
92.884	17.373	1005.667	786.272
93.899	17.373	1004.748	785.486
94.914	17.704	1003.367	785.861
95.928	17.359	1002.754	783.722
96.943	17.274	1001.896	782.591
97.957	17.070	1000.321	780.355
98.972	16.771	999.348	778.153
99.987	17.040	998.198	778.422
101.001	17.342	997.558	779.241
102.016	17.449	996.885	779.132
103.030	17.142	995.923	776.909
104.045	17.102	995.036	775.967
105.060	16.814	994.081	773.839
106.074	17.077	993.016	774.138
107.089	17.597	992.448	775.997
108.103	17.534	991.516	774.914
109.118	17.270	990.369	772.747
110.133	17.452	989.446	772.786
111.147	17.064	988.583	770.284
112.162	17.126	987.164	769.389
113.176	17.148	986.600	768.982
114.191	17.070	985.543	767.737
115.206	16.697	984.735	765.356
116.220	16.864	983.527	765.103
117.235	16.985	982.982	765.158
118.249	17.135	981.965	764.973
119.264	17.147	980.855	764.092
120.279	17.097	980.193	763.285
121.293	17.084	979.479	762.606
122.308	17.210	978.185	762.095
123.322	17.279	977.012	761.422
124.337	17.027	976.084	759.504
125.352	16.554	974.343	755.971
126.366	16.431	973.221	754.484
127.381	17.164	972.666	757.256
128.395	17.466	972.247	758.207
129.410	17.676	971.274	758.316
130.424	17.358	970.186	755.986
131.439	17.420	969.161	755.393
132.454	17.415	968.713	754.955
133.468	17.397	967.346	753.743
134.483	17.498	966.837	753.727
135.497	17.621	965.954	753.518
136.512	17.626	964.615	752.431
137.527	17.703	963.665	751.959
138.541	17.700	963.054	751.403
139.556	17.625	962.227	750.363
140.570	17.580	961.319	749.392
141.585	17.671	960.193	748.846
142.600	17.677	958.599	747.564
143.614	17.770	958.077	747.497
144.629	17.937	957.446	747.668
145.643	17.677	956.491	745.720
146.658	17.619	954.796	744.080
147.673	17.651	954.349	743.804
148.687	17.527	953.212	742.313
149.702	17.524	952.155	741.413
150.716	17.382	951.468	740.191
151.731	17.690	950.392	740.628
152.746	17.777	950.419	740.961
153.760	17.862	948.855	740.047
154.775	17.807	948.793	739.692
155.789	17.637	948.002	738.277
156.804	17.685	946.645	737.361
157.819	17.846	945.586	737.166
158.833	17.864	944.571	736.387
159.848	17.859	943.618	735.556
160.862	17.781	942.288	734.120
161.877	17.710	941.807	733.376
162.892	17.889	940.770	733.272
163.906	17.681	940.038	731.742
164.921	17.692	939.161	731.044
165.935	17.756	938.074	730.405
166.950	17.784	936.949	729.587
167.964	17.783	936.185	728.923
168.979	17.601	934.989	727.148
169.994	17.605	934.077	726.394
171.008	17.816	933.614	726.866
172.023	17.808	932.479	725.887
173.037	17.482	931.424	723.613
174.052	17.478	930.143	722.538
175.067	17.489	930.166	722.541
176.081	17.701	930.095	723.321
177.096	17.683	929.337	722.589
178.110	17.425	927.968	720.371
179.125	17.408	926.936	719.434
180.140	17.405	926.675	719.154
181.154	17.515	926.068	719.083
182.169	17.541	926.209	719.239
183.183	17.947	925.199	720.104
184.198	17.733	924.502	718.597
185.213	17.746	923.630	717.909
186.227	17.841	923.179	717.896
187.242	17.820	922.347	717.098
188.256	17.910	921.311	716.603
189.271	17.727	920.721	715.314
190.286	17.693	919.564	714.210
191.300	17.300	918.607	711.758
192.315	16.542	917.450	707.630
193.329	16.422	917.309	706.956
194.344	17.318	917.343	710.666
195.359	17.770	916.741	712.024
196.373	17.760	916.280	711.563
197.388	17.409	915.872	709.719
198.402	17.578	914.478	709.277
199.417	17.435	914.159	708.372
200.432	17.134	913.011	706.169
201.446	17.067	912.242	705.233
202.461	17.104	911.324	704.613
203.475	16.489	909.916	700.914
204.490	15.784	908.946	697.187
205.504	16.729	908.948	701.041
206.519	17.396	908.760	703.590
207.534	17.347	908.227	702.916
208.548	17.658	908.327	704.213
209.563	17.497	906.978	702.444
210.577	17.614	906.136	702.211
211.592	17.723	905.992	702.484
212.607	17.692	904.829	701.394
213.621	17.782	904.154	701.179
214.636	17.842	903.725	701.033
215.650	17.877	902.851	700.433
216.665	17.996	902.000	700.199
217.680	17.821	900.842	698.524
218.694	17.328	899.915	695.724
219.709	17.376	899.215	695.317
220.723	17.679	899.051	696.368
221.738	17.756	898.122	695.900
222.753	17.709	897.777	695.382
223.767	17.703	896.808	694.544
224.782	17.895	896.569	695.080
225.796	17.824	896.331	694.546
226.811	17.306	894.599	691.035
227.826	16.861	893.351	688.206
228.840	17.095	892.596	688.512
229.855	17.239	891.840	688.453
230.869	16.822	891.221	686.223
231.884	17.391	890.382	687.819
232.899	17.924	890.467	689.978
233.913	17.940	889.562	689.281
234.928	17.770	889.198	688.253
235.942	17.855	888.621	688.085
236.957	17.564	888.256	686.569
237.972	17.505	887.444	685.642
238.986	17.776	886.811	686.186
240.001	17.585	886.283	684.948
241.015	17.778	885.038	684.698
242.030	17.760	885.373	684.826
243.045	17.821	884.188	684.094
244.059	18.086	883.309	684.412
245.074	17.804	882.468	682.574
246.088	17.439	881.390	680.220
247.103	17.679	880.558	680.476
248.117	18.051	880.956	682.210
249.132	18.099	880.136	681.703
250.147	18.095	879.329	681.002
251.161	18.421	878.408	681.526
252.176	18.402	877.852	680.958
253.190	18.490	877.280	680.808
254.205	18.689	876.676	681.065
255.220	18.545	876.396	680.219
256.234	18.371	875.711	678.935
257.249	18.326	874.534	677.784
258.263	18.318	874.135	677.385
259.278	18.525	873.239	677.447
260.293	18.416	872.909	676.704
261.307	18.467	871.893	676.054
262.322	18.210	870.949	674.249
263.336	17.273	869.381	669.288
264.351	16.536	867.105	664.584
265.366	16.616	866.992	664.752
266.380	17.677	867.280	669.080
267.395	18.146	867.308	670.882
268.409	18.034	866.881	670.056
269.424	18.214	866.169	670.151
270.439	18.164	865.656	669.499
271.453	18.342	865.047	669.663
272.468	18.612	864.293	670.075
273.482	18.688	863.397	669.618
274.497	18.354	862.241	667.364
275.512	17.898	861.791	665.178
276.526	18.245	861.675	666.380
277.541	18.429	860.875	666.421
278.555	18.142	859.866	664.465
279.570	18.104	858.813	663.443
280.585	18.260	858.236	663.545
281.599	18.149	857.665	662.614
282.614	17.719	856.227	659.781
283.628	17.756	856.119	659.783
284.643	18.118	855.420	660.586
285.657	17.832	854.088	658.393
286.672	17.477	853.546	656.551
287.687	17.895	853.644	658.177
288.701	17.953	852.989	657.839
289.716	17.725	851.943	656.097
290.730	17.612	851.247	655.066
291.745	17.434	850.094	653.438
292.760	17.690	849.893	654.208
293.774	18.605	850.377	658.034
294.789	18.728	849.937	658.107
295.803	19.013	849.402	658.730
296.818	18.987	848.568	657.922
297.833	18.626	847.701	655.814
298.847	18.539	846.991	654.872
299.862	18.724	846.795	655.372
300.876	18.808	846.620	655.499
301.891	18.693	845.661	654.259
302.906	18.215	844.315	651.341
303.920	18.363	844.042	651.637
304.935	18.726	843.477	652.521
305.949	18.700	843.061	652.044
306.964	18.610	842.007	650.828
307.979	18.733	842.072	651.288
308.993	19.003	841.608	651.896
310.008	19.015	840.801	651.256
311.022	18.760	840.230	649.792
312.037	18.664	839.845	649.073
313.052	18.519	838.768	647.635
314.066	17.854	837.341	643.969
315.081	17.669	836.475	642.548
316.095	18.399	836.506	645.268
317.110	18.761	836.438	646.519
318.125	17.930	835.334	642.483
319.139	17.319	834.147	639.217
320.154	17.249	833.397	638.326
321.168	17.947	833.857	641.243
322.183	18.571	833.312	643.108
323.197	18.513	833.337	642.852
324.212	18.684	833.305	643.410
325.227	18.955	831.901	643.285
326.241	18.720	831.444	641.996
327.256	18.631	831.011	641.271
328.270	18.695	830.408	640.988
329.285	18.507	829.801	639.761
330.300	18.396	829.065	638.722
331.314	18.622	828.229	638.863
332.329	18.672	828.442	639.158
333.343	18.790	828.168	639.328
334.358	18.927	827.431	639.215
335.373	18.922	826.967	638.781
336.387	19.017	827.185	639.246
337.402	19.157	826.610	639.263
338.416	19.137	826.058	638.704
339.431	19.018	825.860	638.056
340.446	19.252	825.198	638.355
341.460	19.070	824.594	637.157
342.475	18.755	824.741	636.048
343.489	19.001	824.141	636.440
344.504	19.377	823.606	637.358
345.519	19.337	823.235	636.868
346.533	19.470	823.016	637.133
347.548	19.399	822.501	636.416
348.562	19.366	822.026	635.870
349.577	19.418	821.235	635.395
350.592	19.557	820.524	635.300
351.606	19.542	820.003	634.785
352.621	19.478	819.113	633.804
353.635	19.433	818.391	633.024
354.650	18.897	816.524	629.563
355.665	18.000	815.632	625.535
356.679	18.239	815.469	626.230
357.694	18.638	814.788	627.109
358.708	18.851	813.825	627.091
359.723	19.138	814.142	628.327
360.738	19.272	813.588	628.331
361.752	19.262	813.196	627.937
362.767	19.632	812.682	628.831
363.781	19.711	812.485	628.913
364.796	19.753	811.963	628.606
365.810	19.779	811.230	628.077
366.825	19.807	811.240	628.130
367.840	19.431	810.199	625.904
368.854	19.276	809.183	624.503
369.869	19.218	809.132	624.197
370.883	19.258	808.739	623.983
371.898	19.183	808.347	623.356
372.913	19.358	807.267	623.101
373.927	19.557	807.244	623.746
374.942	19.493	807.405	623.583
375.956	19.526	806.740	623.134
376.971	19.606	806.163	622.921
377.986	19.677	806.041	623.029
379.000	19.857	805.059	622.862
380.015	19.726	804.714	622.069
381.029	19.571	804.497	621.287
382.044	19.729	803.873	621.319
383.059	19.758	802.958	620.663
384.073	19.830	802.483	620.497
385.088	19.967	801.882	620.469
386.102	19.814	801.413	619.505
387.117	19.786	800.984	619.015
388.132	19.375	799.873	616.635
389.146	19.009	798.960	614.567
390.161	19.260	798.469	615.033
391.175	19.389	798.446	615.420
392.190	19.366	797.370	614.454
393.205	18.272	795.664	609.193
394.219	17.214	794.406	604.414
395.234	17.163	794.429	604.196
396.248	18.336	795.414	609.068
397.263	19.581	796.010	613.899
398.278	19.706	795.287	613.732
399.292	19.451	794.829	612.418
400.307	19.598	794.069	612.301
401.321	19.602	793.871	612.106
402.336	19.801	793.821	612.720
403.350	20.022	793.604	613.279
404.365	20.310	793.166	613.906
405.380	20.296	792.677	613.423
406.394	20.516	792.041	613.654
407.409	20.342	791.546	612.603
408.423	20.297	791.272	612.177
409.438	20.354	791.015	612.127
410.453	20.496	790.523	612.190
411.467	20.370	790.016	611.300
412.482	20.374	789.521	610.877
413.496	20.458	789.245	610.906
414.511	20.396	789.104	610.526
415.526	20.491	788.361	610.230
416.540	20.363	787.630	609.162
417.555	20.107	787.142	607.832
418.569	20.150	786.656	607.553
419.584	20.253	785.798	607.198
420.599	19.938	785.368	605.707
421.613	156.047	1359.651	1793.740
422.628	135.021	1443.313	1793.859
