DTS Sentinel unit serial number:	SN413079Multiplexer serial number:	ORYXHardware model number:	OX4-SRSoftware version number:	ORYX F/W v4.00 Oryx Data Collector v3.7.2.0data status	okinstallation	princeton_trtdifferential loss correction	single-endedforward channel	channel 1reverse channel	N/Adate	2019/09/13time	12:58:35forward acquisition time	60.00reverse acquisition time	0.00gamma	496.2192k internal	0.2306k external	0.2306temperature offset calibration	1.0162default loss term (dB/km)	0.3790temperature slope calibration	1.0000multiplexer offset coefficient	1.0000multiplexer slope coefficient	1.0000fibre end	0.00T internal ref (°C)	34.80T ext. ref 1 (°C)	4.57T ext. ref 2 (°C)	30.78length (m)	temperature (°C)	Stokes	anti-Stokes-747.200	59.649	0.046	-0.046
-746.185	389.176	-0.145	0.306
-745.171	-115.282	0.138	0.027
-744.156	800.000	-0.040	0.113
-743.142	173.151	0.148	-0.217
-742.127	-200.000	0.019	-0.196
-741.112	-159.410	-0.290	-0.016
-740.098	-200.000	0.071	0.360
-739.083	-200.000	-0.051	-0.267
-738.069	-71.243	-0.074	0.028
-737.054	24.493	-0.332	-0.280
-736.039	97.026	-0.244	-0.284
-735.025	488.039	-0.234	-0.542
-734.010	-25.154	-0.142	-0.085
-732.996	-200.000	-0.018	-0.099
-731.981	-200.000	-0.013	-0.189
-730.966	-1.625	-0.268	-0.192
-729.952	-13.019	-0.228	-0.150
-728.937	300.705	0.170	-0.319
-727.923	356.000	0.048	0.097
-726.908	87.325	-0.124	0.139
-725.894	-87.203	-0.495	0.153
-724.879	28.549	-0.306	-0.263
-723.864	-200.000	0.230	-0.001
-722.850	-178.126	-0.147	-0.004
-721.835	107.040	-0.076	0.092
-720.821	-19.134	-0.500	-0.315
-719.806	-130.565	-0.093	-0.013
-718.791	95.181	-0.094	-0.108
-717.777	45.745	-0.091	-0.085
-716.762	420.035	-0.115	0.250
-715.748	165.297	-0.098	0.141
-714.733	800.000	-0.026	-0.108
-713.718	-140.522	0.136	0.014
-712.704	-200.000	0.025	-0.294
-711.689	800.000	-0.070	-0.237
-710.675	-103.653	0.168	0.040
-709.660	126.266	-0.071	0.092
-708.645	-75.632	-0.269	-0.097
-707.631	-14.213	0.131	-0.086
-706.616	-48.670	0.169	0.083
-705.602	783.448	0.050	0.140
-704.587	197.925	0.093	-0.145
-703.572	240.808	0.053	-0.090
-702.558	-110.941	0.139	-0.029
-701.543	-200.000	0.117	0.553
-700.529	387.029	0.111	-0.232
-699.514	-150.904	-0.192	0.015
-698.499	113.141	0.060	-0.074
-697.485	-13.347	0.184	-0.121
-696.470	-97.804	-0.331	-0.087
-695.456	800.000	0.044	0.156
-694.441	81.526	-0.044	0.048
-693.426	-136.649	-0.020	0.002
-692.412	-200.000	-0.020	-0.323
-691.397	-200.000	-0.033	-0.454
-690.383	-81.438	0.423	-0.141
-689.368	205.164	-0.061	0.097
-688.354	-69.958	0.091	0.035
-687.339	-200.000	0.051	-0.450
-686.324	-200.000	-0.009	0.211
-685.310	800.000	-0.111	-0.365
-684.295	-200.000	-0.004	-0.052
-683.281	-200.000	0.020	0.116
-682.266	35.645	-0.261	-0.232
-681.251	5.994	0.373	-0.281
-680.237	-105.949	-0.038	-0.009
-679.222	-87.185	0.394	-0.122
-678.208	135.902	0.124	-0.164
-677.193	-101.084	-0.129	0.032
-676.178	680.313	0.145	0.384
-675.164	-163.870	-0.274	-0.013
-674.149	-174.300	0.055	-0.002
-673.135	125.175	0.053	-0.068
-672.120	-153.150	0.175	-0.012
-671.105	-139.887	-0.417	-0.045
-670.091	-200.000	-0.015	-0.219
-669.076	35.274	0.192	0.170
-668.062	-200.000	-0.002	0.221
-667.047	448.592	0.096	0.215
-666.032	-176.741	0.168	0.004
-665.018	-60.028	0.409	-0.177
-664.003	410.306	-0.137	-0.294
-662.989	-140.580	0.205	0.022
-661.974	-84.958	-0.324	0.103
-660.959	-200.000	-0.032	0.181
-659.945	-62.350	0.147	-0.062
-658.930	800.000	0.079	-0.317
-657.916	-156.069	-0.278	0.018
-656.901	119.484	-0.062	-0.078
-655.886	109.722	0.140	0.170
-654.872	-148.131	-0.448	0.038
-653.857	-200.000	-0.002	-0.079
-652.843	-160.891	0.090	0.005
-651.828	-200.000	0.028	0.302
-650.814	51.353	0.312	-0.300
-649.799	-200.000	0.002	0.167
-648.784	-107.011	0.329	-0.074
-647.770	-152.741	-0.239	0.017
-646.755	800.000	-0.027	0.084
-645.741	63.735	0.183	-0.187
-644.726	611.611	-0.132	0.334
-643.711	-125.640	-0.406	0.062
-642.697	-71.869	0.126	0.048
-641.682	123.377	-0.165	-0.210
-640.668	-1.417	0.111	-0.079
-639.653	158.252	-0.118	-0.165
-638.638	-200.000	-0.017	-0.163
-637.624	38.863	-0.415	0.376
-636.609	294.182	-0.144	-0.267
-635.595	-76.918	-0.204	0.072
-634.580	-61.756	-0.047	-0.020
-633.565	800.000	0.042	0.175
-632.551	-97.163	0.143	0.038
-631.536	1.426	0.153	-0.112
-630.522	788.580	-0.080	-0.223
-629.507	800.000	-0.029	-0.105
-628.492	-200.000	-0.023	0.201
-627.478	117.349	0.093	-0.116
-626.463	151.364	-0.072	-0.099
-625.449	-62.785	-0.238	0.100
-624.434	264.679	-0.170	-0.300
-623.419	267.981	0.083	0.147
-622.405	-80.797	0.307	0.103
-621.390	1.925	0.357	0.260
-620.376	-1.414	0.076	-0.054
-619.361	268.743	-0.057	-0.102
-618.346	1.078	-0.242	-0.176
-617.332	-5.287	0.075	0.052
-616.317	554.913	0.060	0.146
-615.303	236.145	-0.087	-0.146
-614.288	64.325	-0.337	0.343
-613.273	63.284	0.117	0.118
-612.259	-152.098	-0.033	0.002
-611.244	36.386	0.059	-0.053
-610.230	-19.490	-0.124	-0.078
-609.215	-191.923	-0.193	-0.002
-608.201	-200.000	0.018	0.131
-607.186	800.000	0.087	0.295
-606.171	216.900	-0.084	0.135
-605.157	582.447	-0.117	-0.290
-604.142	-156.099	-0.224	-0.014
-603.128	11.633	-0.161	-0.125
-602.113	-200.000	0.037	0.268
-601.098	-101.839	-0.194	0.048
-600.084	-4.876	-0.336	0.234
-599.069	800.000	0.029	-0.105
-598.055	549.236	0.063	0.153
-597.040	657.925	-0.091	0.237
-596.025	155.178	0.050	-0.069
-595.011	-142.805	0.090	-0.009
-593.996	674.158	0.047	-0.123
-592.982	-187.366	0.314	-0.004
-591.967	-169.156	-0.232	-0.009
-590.952	505.774	0.104	-0.243
-589.938	-200.000	-0.009	-0.229
-588.923	-57.533	-0.070	0.031
-587.909	-200.000	-0.314	0.002
-586.894	-118.583	0.136	-0.024
-585.879	89.305	-0.035	-0.039
-584.865	73.701	0.163	-0.172
-583.850	62.232	-0.218	-0.220
-582.836	-88.212	0.055	-0.017
-581.821	-192.413	-0.164	0.002
-580.806	-47.585	-0.078	-0.038
-579.792	354.021	0.076	-0.153
-578.777	608.790	-0.115	0.291
-577.763	-200.000	-0.044	-0.209
-576.748	144.718	-0.067	0.090
-575.733	-15.701	-0.182	0.117
-574.719	2.156	-0.315	0.230
-573.704	-76.059	-0.320	0.114
-572.690	7.297	0.154	-0.116
-571.675	-90.743	0.201	-0.059
-570.661	-97.876	0.350	-0.091
-569.646	800.000	-0.013	0.056
-568.631	-5.706	0.087	0.060
-567.617	176.197	0.172	-0.252
-566.602	-134.590	-0.083	0.010
-565.588	3.450	-0.401	0.295
-564.573	739.197	0.083	-0.226
-563.558	-192.678	0.247	0.002
-562.544	-139.353	0.220	-0.024
-561.529	409.998	-0.128	0.274
-560.515	-113.324	0.109	0.022
-559.500	-36.881	0.357	-0.193
-558.485	-200.000	-0.013	-0.104
-557.471	-75.630	0.160	-0.057
-556.456	-26.030	-0.159	-0.094
-555.442	-200.000	-0.013	0.281
-554.427	-200.000	0.045	-0.286
-553.412	-59.572	-0.308	0.134
-552.398	158.922	0.180	0.252
-551.383	-66.565	-0.221	0.088
-550.369	156.932	0.200	-0.279
-549.354	-27.470	-0.287	-0.169
-548.339	479.292	0.133	-0.304
-547.325	609.894	-0.095	-0.239
-546.310	-16.608	-0.143	0.091
-545.296	13.877	-0.203	0.159
-544.281	39.760	-0.273	-0.247
-543.266	-144.020	0.239	-0.023
-542.252	110.337	0.164	-0.198
-541.237	32.093	0.092	-0.080
-540.223	-153.143	-0.191	0.014
-539.208	-75.370	0.126	0.045
-538.193	139.725	0.114	-0.151
-537.179	-28.523	0.211	0.123
-536.164	-166.003	-0.359	0.015
-535.150	-57.266	0.220	0.098
-534.135	-134.597	0.106	-0.013
-533.121	116.687	0.109	-0.135
-532.106	800.000	-0.046	0.129
-531.091	-72.141	-0.146	-0.055
-530.077	29.079	-0.190	0.162
-529.062	12.289	0.094	-0.073
-528.048	53.567	-0.051	0.050
-527.033	-172.247	-0.149	0.005
-526.018	-83.295	0.136	0.044
-525.004	233.321	0.084	-0.139
-523.989	-74.200	0.400	-0.146
-522.975	800.000	-0.087	0.257
-521.960	-156.395	-0.097	0.006
-520.945	-29.618	0.070	0.040
-519.931	123.645	0.057	0.072
-518.916	800.000	0.055	-0.192
-517.902	30.753	-0.231	-0.199
-516.887	41.352	-0.140	-0.128
-515.872	-15.250	-0.279	0.180
-514.858	-163.916	0.093	0.004
-513.843	800.000	0.066	-0.276
-512.829	-200.000	0.031	-0.293
-511.814	800.000	0.095	0.278
-510.799	-48.525	0.070	-0.034
-509.785	-92.448	0.298	-0.084
-508.770	7.336	-0.275	0.207
-507.756	476.393	0.066	-0.151
-506.741	-200.000	0.001	0.010
-505.726	241.134	-0.347	-0.583
-504.712	-30.675	0.405	0.231
-503.697	360.027	0.087	0.176
-502.683	132.087	0.219	-0.284
-501.668	222.508	0.105	-0.171
-500.653	-48.171	0.111	-0.054
-499.639	180.619	0.094	-0.139
-498.624	-200.000	-0.022	0.143
-497.610	800.000	-0.039	0.115
-496.595	-200.000	0.026	-0.193
-495.581	4.963	-0.078	0.057
-494.566	-97.255	0.114	0.030
-493.551	-15.229	0.125	-0.081
-492.537	263.854	0.071	0.125
-491.522	-68.546	0.273	-0.107
-490.508	-94.837	-0.134	0.037
-489.493	-200.000	0.025	0.347
-488.478	31.326	0.060	-0.052
-487.464	-200.000	-0.068	0.355
-486.449	-33.273	0.273	0.152
-485.435	-10.220	-0.278	0.186
-484.420	-156.448	-0.254	0.016
-483.405	-200.000	-0.165	-0.000
-482.391	-152.039	-0.370	-0.027
-481.376	120.850	0.057	0.071
-480.362	-59.297	-0.149	-0.065
-479.347	141.178	0.040	0.054
-478.332	800.000	0.024	0.070
-477.318	-120.590	0.178	-0.030
-476.303	-200.000	-0.036	-0.158
-475.289	-200.000	-0.011	0.081
-474.274	659.694	0.078	-0.202
-473.259	-154.460	0.210	0.014
-472.245	-13.198	0.213	0.139
-471.230	-57.442	-0.191	0.084
-470.216	10.086	0.161	-0.123
-469.201	-51.730	0.189	-0.089
-468.186	21.529	0.101	-0.083
-467.172	0.439	0.049	0.036
-466.157	-104.186	0.299	-0.070
-465.143	-130.941	0.211	0.028
-464.128	198.021	0.051	-0.079
-463.113	83.563	0.207	-0.227
-462.099	29.391	-0.218	0.187
-461.084	-151.541	0.231	-0.017
-460.070	-200.000	-0.336	-0.002
-459.055	-121.357	0.127	-0.021
-458.040	-64.094	0.069	0.028
-457.026	289.659	-0.203	0.371
-456.011	2.114	0.185	-0.134
-454.997	-200.000	0.032	0.252
-453.982	74.864	-0.145	0.154
-452.968	-49.680	-0.292	0.140
-451.953	-120.685	0.170	0.029
-450.938	-63.710	0.191	-0.079
-449.924	-163.633	0.299	0.014
-448.909	-70.094	-0.269	0.103
-447.895	230.212	-0.115	-0.190
-446.880	-115.910	0.231	-0.043
-445.865	-200.000	0.001	0.038
-444.851	51.523	-0.044	0.042
-443.836	18.383	-0.063	0.050
-442.822	-129.680	-0.166	0.023
-441.807	-91.934	0.281	0.080
-440.792	-24.709	0.328	0.196
-439.778	86.473	-0.245	0.272
-438.763	-200.000	0.023	-0.159
-437.749	800.000	0.071	-0.215
-436.734	-76.273	0.327	-0.116
-435.719	187.504	-0.039	0.059
-434.705	522.864	-0.113	0.268
-433.690	30.763	0.157	0.135
-432.676	7.119	0.040	0.030
-431.661	800.000	-0.030	-0.095
-430.646	-99.126	-0.317	-0.081
-429.632	369.543	-0.109	-0.222
-428.617	168.301	0.219	-0.313
-427.603	-20.946	0.065	-0.040
-426.588	343.427	-0.097	0.191
-425.573	-113.040	0.175	0.035
-424.559	-161.977	-0.270	0.014
-423.544	-138.399	-0.400	-0.044
-422.530	-200.000	-0.004	0.227
-421.515	125.831	-0.216	0.274
-420.500	-200.000	-0.021	0.285
-419.486	-1.943	-0.309	0.218
-418.471	-136.136	-0.128	-0.015
-417.457	-28.925	-0.237	0.136
-416.442	179.585	0.140	-0.206
-415.428	-111.950	-0.115	-0.023
-414.413	-178.060	-0.163	0.004
-413.398	-200.000	0.053	-0.250
-412.384	-24.196	0.197	0.118
-411.369	-94.924	-0.308	0.084
-410.355	-27.913	0.049	0.028
-409.340	-200.000	-0.028	0.356
-408.325	30.463	0.167	0.143
-407.311	84.853	-0.077	-0.085
-406.296	-67.118	-0.348	-0.138
-405.282	151.082	-0.093	0.127
-404.267	772.641	-0.065	-0.178
-403.252	-113.522	0.243	0.048
-402.238	60.038	0.120	0.119
-401.223	-12.184	-0.089	-0.059
-400.209	800.000	0.014	-0.044
-399.194	465.369	0.193	-0.434
-398.179	-113.160	0.078	0.015
-397.165	171.409	-0.151	-0.218
-396.150	800.000	-0.046	0.156
-395.136	140.126	0.159	0.211
-394.121	-62.864	-0.127	0.053
-393.106	-144.616	-0.100	-0.009
-392.092	-200.000	-0.005	-0.079
-391.077	31.490	-0.195	-0.168
-390.063	-112.595	-0.354	-0.071
-389.048	800.000	-0.045	0.147
-388.033	113.823	0.012	-0.015
-387.019	-108.805	0.040	0.009
-386.004	-200.000	-0.034	-0.187
-384.990	156.273	0.138	-0.191
-383.975	-81.924	0.086	0.028
-382.960	-116.345	0.190	0.035
-381.946	469.506	-0.100	0.226
-380.931	-36.182	0.201	-0.109
-379.917	79.608	-0.170	-0.183
-378.902	-200.000	-0.003	-0.198
-377.888	-11.058	0.058	-0.038
-376.873	-200.000	0.078	0.376
-375.858	-200.000	-0.017	-0.121
-374.844	-85.553	-0.114	0.036
-373.829	-129.971	-0.282	0.039
-372.815	220.644	-0.213	0.342
-371.800	353.478	0.038	-0.075
-370.785	-112.497	-0.137	0.027
-369.771	100.829	-0.179	-0.209
-368.756	96.354	0.226	0.259
-367.742	-200.000	0.006	-0.320
-366.727	-55.118	-0.068	-0.031
-365.712	-200.000	-0.016	-0.093
-364.698	-89.267	-0.253	0.075
-363.683	-76.756	-0.143	0.050
-362.669	-155.778	0.335	0.021
-361.654	179.855	-0.110	0.161
-360.639	-41.541	-0.084	-0.043
-359.625	297.279	0.048	0.089
-358.610	360.631	-0.046	0.092
-357.596	-90.280	-0.376	0.109
-356.581	-154.697	-0.300	-0.020
-355.566	4.061	-0.028	-0.020
-354.552	-171.559	-0.118	0.004
-353.537	-83.414	-0.234	0.075
-352.523	-200.000	0.001	-0.029
-351.508	-95.107	-0.203	0.055
-350.493	-43.236	-0.214	-0.109
-349.479	235.064	0.073	0.121
-348.464	170.188	-0.119	-0.170
-347.450	378.542	-0.181	0.372
-346.435	79.676	-0.074	0.080
-345.420	86.544	-0.062	-0.068
-344.406	117.658	0.142	-0.176
-343.391	-30.917	0.188	0.106
-342.377	128.288	-0.138	-0.176
-341.362	800.000	0.086	0.237
-340.348	655.466	0.134	-0.344
-339.333	-200.000	-0.037	0.342
-338.318	100.466	-0.130	0.151
-337.304	72.378	-0.302	-0.316
-336.289	800.000	0.027	-0.098
-335.275	-126.281	-0.191	-0.029
-334.260	-200.000	0.034	0.298
-333.245	-139.267	-0.112	0.012
-332.231	-123.298	-0.147	0.024
-331.216	-110.728	-0.101	0.021
-330.202	-50.506	0.449	0.212
-329.187	-67.587	-0.243	0.095
-328.172	-200.000	-0.013	-0.257
-327.158	-200.000	0.022	-0.385
-326.143	-1.979	-0.080	-0.056
-325.129	38.738	-0.003	-0.003
-324.114	303.197	-0.146	-0.270
-323.099	-76.974	0.101	0.035
-322.085	800.000	-0.108	0.410
-321.070	293.502	0.136	0.249
-320.056	-200.000	-0.038	-0.263
-319.041	129.011	0.126	-0.161
-318.026	-62.293	-0.039	0.016
-317.012	60.109	-0.100	-0.099
-315.997	-196.504	0.251	0.002
-314.983	565.564	-0.146	-0.354
-313.968	-117.424	0.217	0.039
-312.953	122.921	0.319	0.399
-311.939	-54.488	0.429	-0.194
-310.924	-39.901	-0.226	-0.118
-309.910	800.000	-0.016	-0.066
-308.895	-150.129	0.300	-0.023
-307.880	-173.187	0.337	-0.010
-306.866	47.925	-0.246	0.230
-305.851	63.415	0.103	0.104
-304.837	-200.000	0.047	-0.330
-303.822	394.241	0.141	0.294
-302.807	135.800	-0.128	-0.166
-301.793	69.306	0.079	-0.081
-300.778	-57.358	0.237	0.104
-299.764	-27.789	-0.257	0.149
-298.749	1.777	-0.079	-0.057
-297.735	-40.626	0.337	-0.175
-296.720	54.617	-0.100	-0.097
-295.705	57.593	0.135	0.131
-294.691	-182.906	0.181	-0.003
-293.676	-52.075	0.106	0.049
-292.662	-107.620	0.249	0.054
-291.647	347.012	0.037	0.073
-290.632	-200.000	0.022	0.235
-289.618	-121.589	0.232	0.039
-288.603	800.000	-0.099	0.401
-287.589	-63.129	-0.124	-0.051
-286.574	-200.000	-0.015	0.091
-285.559	513.449	-0.127	-0.297
-284.545	-81.265	-0.218	0.072
-283.530	800.000	0.026	0.099
-282.516	-200.000	0.000	0.009
-281.501	-57.643	0.254	0.111
-280.486	28.193	-0.043	0.036
-279.472	404.026	-0.056	0.118
-278.457	-200.000	0.061	-0.421
-277.443	-104.402	0.430	0.100
-276.428	70.850	0.166	0.172
-275.413	800.000	-0.070	0.222
-274.399	800.000	-0.018	-0.079
-273.384	693.534	-0.034	-0.089
-272.370	-74.247	-0.248	-0.090
-271.355	190.570	0.299	-0.449
-270.340	101.060	-0.103	-0.120
-269.326	237.756	-0.150	-0.249
-268.311	-200.000	0.024	-0.342
-267.297	-25.115	0.260	-0.154
-266.282	115.953	-0.128	0.156
-265.267	-122.154	0.397	0.065
-264.253	-92.611	-0.309	0.087
-263.238	-200.000	-0.021	-0.113
-262.224	540.887	-0.065	0.155
-261.209	-57.066	-0.014	-0.006
-260.195	514.760	-0.010	0.023
-259.180	-68.161	-0.093	-0.036
-258.165	367.131	-0.032	-0.064
-257.151	85.870	-0.229	-0.251
-256.136	-159.273	-0.263	0.015
-255.122	-67.445	0.240	-0.094
-254.107	-200.000	-0.011	-0.055
-253.092	-200.000	-0.076	0.387
-252.078	376.083	0.051	-0.104
-251.063	-57.286	-0.285	-0.125
-250.049	-32.367	0.153	0.085
-249.034	-76.161	0.253	0.089
-248.019	-45.830	-0.232	-0.114
-247.005	-42.705	0.461	-0.234
-245.990	-200.000	-0.002	0.082
-244.976	-111.813	0.343	-0.069
-243.961	95.863	0.298	0.340
-242.946	-5.260	-0.122	0.084
-241.932	127.765	0.112	0.142
-240.917	699.540	-0.017	-0.045
-239.903	800.000	0.077	-0.277
-238.888	-67.538	-0.234	-0.092
-237.873	-54.423	0.177	-0.080
-236.859	-200.000	-0.025	0.394
-235.844	458.494	0.048	0.106
-234.830	800.000	0.071	0.310
-233.815	-51.056	0.446	0.209
-232.800	419.902	-0.105	0.225
-231.786	-200.000	-0.018	0.092
-230.771	63.300	-0.087	0.087
-229.757	-49.886	-0.208	0.098
-228.742	127.504	-0.071	-0.090
-227.727	800.000	0.024	0.100
-226.713	-132.917	-0.249	-0.032
-225.698	288.277	-0.071	-0.127
-224.684	26.480	0.203	0.170
-223.669	-36.685	-0.133	0.071
-222.655	-34.644	0.196	-0.107
-221.640	-200.000	-0.000	-0.212
-220.625	800.000	-0.058	0.165
-219.611	800.000	-0.033	0.126
-218.596	800.000	0.050	-0.178
-217.582	800.000	-0.047	0.144
-216.567	800.000	0.080	-0.320
-215.552	76.823	0.246	0.260
-214.538	317.445	0.221	0.417
-213.523	-200.000	0.029	-0.236
-212.509	-13.283	0.090	0.058
-211.494	-64.926	0.241	0.097
-210.479	161.548	-0.123	-0.172
-209.465	7.446	-0.172	-0.128
-208.450	800.000	-0.138	0.480
-207.436	65.656	0.233	-0.235
-206.421	-200.000	0.004	-0.155
-205.406	-200.000	0.027	-0.243
-204.392	-182.153	-0.456	0.009
-203.377	800.000	0.006	-0.024
-202.363	132.746	-0.218	-0.280
-201.348	-200.000	0.026	-0.311
-200.333	-109.920	0.160	0.033
-199.319	-121.872	0.184	0.030
-198.304	-70.076	-0.241	-0.091
-197.290	10.543	0.308	-0.233
-196.275	-73.098	-0.185	-0.067
-195.260	718.404	-0.045	0.120
-194.246	94.270	0.148	-0.168
-193.231	-200.000	-0.022	-0.372
-192.217	36.377	0.096	-0.084
-191.202	-160.907	-0.110	-0.006
-190.187	377.289	0.170	0.345
-189.173	-200.000	-0.032	0.303
-188.158	11.501	-0.333	-0.254
-187.144	-164.785	0.318	-0.014
-186.129	83.688	0.073	-0.080
-185.114	-106.726	0.378	0.084
-184.100	135.209	0.218	-0.282
-183.085	36.358	0.211	-0.185
-182.071	-133.662	-0.167	0.021
-181.056	-119.806	0.348	0.060
-180.042	800.000	-0.074	0.259
-179.027	425.132	-0.140	0.301
-178.012	21.734	-0.226	0.183
-176.998	-40.771	0.095	0.049
-175.983	115.787	0.034	-0.042
-174.969	232.380	-0.115	-0.188
-173.954	1.711	0.204	-0.146
-172.939	-200.000	0.030	0.306
-171.925	-123.840	0.187	0.029
-170.910	197.357	0.050	0.076
-169.896	-200.000	0.014	-0.098
-168.881	476.323	0.118	-0.265
-167.866	-13.705	0.327	0.211
-166.852	68.694	0.104	0.107
-165.837	228.467	-0.038	0.061
-164.823	800.000	-0.120	-0.405
-163.808	-200.000	-0.015	0.189
-162.793	-200.000	-0.034	0.209
-161.779	194.940	-0.008	-0.013
-160.764	-6.231	0.280	0.190
-159.750	-49.227	0.129	0.061
-158.735	-78.360	0.385	-0.131
-157.720	-58.923	0.195	0.084
-156.706	-146.715	-0.095	-0.008
-155.691	-58.541	-0.118	-0.051
-154.677	-200.000	-0.006	0.052
-153.662	-141.266	-0.421	-0.043
-152.647	495.426	-0.127	-0.291
-151.633	210.706	-0.067	-0.105
-150.618	800.000	0.015	-0.045
-149.604	-72.581	0.245	0.090
-148.589	-31.184	-0.114	-0.064
-147.574	800.000	0.057	-0.157
-146.560	24.461	0.141	0.116
-145.545	180.320	0.084	0.123
-144.531	458.943	0.082	0.180
-143.516	212.494	0.079	-0.123
-142.502	113.101	-0.185	0.223
-141.487	361.305	-0.049	-0.097
-140.472	-168.015	-0.261	0.010
-139.458	437.276	-0.032	0.068
-138.443	-52.067	0.248	-0.114
-137.429	38.985	0.169	0.150
-136.414	36.203	-0.177	0.155
-135.399	466.479	-0.069	-0.153
-134.385	-58.420	-0.381	-0.164
-133.370	54.216	0.154	-0.147
-132.356	416.793	-0.081	0.172
-131.341	-200.000	0.044	0.434
-130.326	-32.878	0.047	0.026
-129.312	81.257	-0.073	0.078
-128.297	257.780	-0.093	0.158
-127.283	-62.004	-0.105	0.044
-126.268	-57.723	0.233	-0.101
-125.253	-58.688	0.041	0.018
-124.239	800.000	-0.077	-0.288
-123.224	10.512	0.207	-0.157
-122.210	27.441	-0.042	0.035
-121.195	-191.454	0.275	-0.003
-120.180	22.218	0.226	-0.183
-119.166	263.908	0.181	-0.312
-118.151	81.206	-0.279	0.299
-117.137	-98.085	-0.189	0.048
-116.122	-12.553	-0.302	-0.196
-115.107	703.838	-0.049	-0.127
-114.093	-137.581	0.102	-0.011
-113.078	800.000	0.025	0.078
-112.064	-200.000	-0.014	0.234
-111.049	-26.307	-0.363	-0.211
-110.034	-80.802	-0.377	-0.124
-109.020	3.593	0.230	-0.166
-108.005	800.000	-0.031	-0.099
-106.991	-200.000	0.039	0.203
-105.976	-200.000	0.002	-0.052
-104.962	398.710	-0.152	0.316
-103.947	-115.833	0.186	0.034
-102.932	-5.761	0.234	-0.159
-101.918	89.140	-0.326	-0.360
-100.903	30.983	0.200	0.170
-99.889	92.188	0.141	0.157
-98.874	-106.414	-0.451	0.100
-97.859	293.489	0.234	-0.423
-96.845	-200.000	0.088	0.000
-95.830	89.538	-0.061	-0.067
-94.816	-4.490	0.164	0.112
-93.801	800.000	0.013	-0.056
-92.786	-157.390	0.041	0.002
-91.772	-99.192	0.032	-0.008
-90.757	278.338	-0.104	-0.184
-89.743	-155.995	0.102	0.006
-88.728	-7.207	-0.203	-0.136
-87.713	-47.645	-0.125	-0.060
-86.699	155.280	0.090	0.122
-85.684	76.918	-0.281	-0.295
-84.670	-146.729	0.032	-0.003
-83.655	-200.000	-0.006	0.269
-82.640	118.175	-0.137	0.167
-81.626	-200.000	0.005	0.198
-80.611	-200.000	-0.019	0.102
-79.597	-200.000	-0.025	-0.285
-78.582	219.063	-0.098	-0.156
-77.567	75.509	0.299	-0.312
-76.553	-36.314	-0.093	0.050
-75.538	28.863	0.152	0.128
-74.524	-153.153	-0.373	-0.026
-73.509	-200.000	-0.005	0.152
-72.494	86.046	-0.073	0.080
-71.480	-200.000	-0.042	0.240
-70.465	-200.000	0.041	0.362
-69.451	-61.861	-0.088	0.036
-68.436	800.000	0.108	-0.342
-67.422	-93.087	-0.064	-0.018
-66.407	82.003	0.109	0.117
-65.392	87.674	-0.142	0.156
-64.378	240.310	0.248	0.410
-63.363	-171.255	0.173	-0.006
-62.349	-49.701	0.234	-0.110
-61.334	-8.423	-1.304	-0.869
-60.319	-77.887	0.595	0.203
-59.305	-200.000	-0.200	-1.074
-58.290	414.353	0.373	0.787
-57.276	240.197	0.906	1.496
-56.261	-200.000	95.757	562.954
-55.246	633.712	1387.505	3483.134
-54.232	184.723	2613.817	3836.768
-53.217	121.561	2198.950	2713.766
-52.203	46.731	1647.307	1514.931
-51.188	38.415	1380.441	1217.970
-50.173	35.056	1337.871	1160.050
-49.159	55.869	1386.042	1330.619
-48.144	60.224	1403.948	1374.572
-47.130	38.621	1358.926	1200.058
-46.115	34.978	1340.836	1161.963
-45.100	34.698	1335.981	1156.015
-44.086	34.777	1333.837	1154.590
-43.071	34.644	1331.250	1151.505
-42.057	34.631	1328.974	1149.411
-41.042	34.666	1327.341	1148.165
-40.027	34.770	1325.632	1147.267
-39.013	34.733	1323.647	1145.280
-37.998	34.617	1321.871	1143.002
-36.984	34.887	1319.585	1142.596
-35.969	34.861	1318.656	1141.590
-34.954	34.795	1317.017	1139.732
-33.940	34.796	1315.306	1138.215
-32.925	34.888	1313.860	1137.465
-31.911	34.828	1312.567	1135.944
-30.896	34.878	1310.686	1134.569
-29.881	35.036	1308.899	1133.909
-28.867	34.909	1308.329	1132.620
-27.852	34.975	1306.521	1131.399
-26.838	34.972	1305.215	1130.208
-25.823	34.817	1303.826	1128.046
-24.809	34.867	1302.700	1127.321
-23.794	34.898	1301.235	1126.190
-22.779	34.891	1299.878	1124.930
-21.765	34.790	1298.605	1123.188
-20.750	34.922	1297.188	1122.696
-19.736	34.845	1296.182	1121.330
-18.721	34.842	1294.713	1119.992
-17.706	34.707	1293.758	1118.332
-16.692	34.724	1291.991	1116.861
-15.677	34.686	1291.195	1115.907
-14.663	34.767	1289.799	1115.132
-13.648	34.689	1289.309	1114.208
-12.633	34.683	1288.122	1113.099
-11.619	34.735	1287.212	1112.571
-10.604	34.683	1286.107	1111.274
-9.590	34.709	1285.254	1110.644
-8.575	34.713	1284.528	1109.991
-7.560	34.724	1283.282	1108.936
-6.546	34.724	1282.649	1108.344
-5.531	34.731	1281.710	1107.531
-4.517	34.766	1280.568	1106.705
-3.502	34.716	1280.311	1106.148
-2.487	34.737	1278.740	1104.867
-1.473	34.849	1274.955	1102.197
-0.458	33.404	1259.426	1080.492
0.556	31.395	1239.907	1037.198
1.571	26.995	1243.663	1015.694
2.586	25.751	1257.178	1019.602
3.600	23.988	1245.115	999.836
4.615	18.087	1171.276	909.170
5.629	9.224	1094.470	805.237
6.644	4.900	1073.561	768.495
7.659	4.615	1070.566	764.878
8.673	4.319	1069.128	762.330
9.688	4.438	1067.788	761.890
10.702	4.947	1067.290	763.966
11.717	10.709	1074.930	797.742
12.731	19.256	1086.603	848.607
13.746	22.366	1090.098	866.601
14.761	22.035	1089.228	864.205
15.775	21.137	1087.146	858.063
16.790	20.156	1085.511	851.878
17.804	19.584	1083.540	847.448
18.819	19.126	1082.751	844.512
19.834	19.048	1081.944	843.423
20.848	18.746	1081.666	841.654
21.863	18.640	1080.810	840.395
22.877	18.614	1079.558	839.221
23.892	18.582	1078.972	838.530
24.907	18.492	1078.644	837.765
25.921	18.578	1077.282	837.052
26.936	18.464	1076.061	835.473
27.950	18.585	1073.890	834.300
28.965	18.682	1073.117	834.099
29.980	18.808	1071.828	833.634
30.994	18.919	1070.396	832.984
32.009	18.875	1069.784	832.224
33.023	18.884	1068.512	831.202
34.038	18.833	1067.522	830.111
35.053	18.607	1066.748	828.345
36.067	18.617	1065.432	827.299
37.082	18.628	1064.878	826.850
38.096	18.945	1064.071	827.673
39.111	18.808	1063.446	826.454
40.126	18.591	1062.069	824.271
41.140	18.388	1060.537	822.033
42.155	18.293	1059.497	820.699
43.169	18.227	1058.170	819.285
44.184	18.152	1057.106	818.030
45.199	18.193	1056.403	817.610
46.213	18.356	1055.613	817.702
47.228	18.520	1054.889	817.851
48.242	18.582	1054.096	817.462
49.257	18.663	1052.304	816.383
50.271	18.710	1051.833	816.170
51.286	18.707	1051.413	815.758
52.301	18.667	1050.190	814.545
53.315	18.666	1048.864	813.440
54.330	18.355	1047.813	811.083
55.344	18.409	1047.039	810.667
56.359	18.420	1046.659	810.352
57.374	18.405	1045.686	809.457
58.388	18.226	1045.096	808.082
59.403	18.143	1044.071	806.829
60.417	18.222	1042.829	806.166
61.432	18.077	1042.474	805.140
62.447	18.033	1041.702	804.265
63.461	18.162	1039.966	803.458
64.476	18.066	1039.707	802.737
65.490	17.908	1039.098	801.454
66.505	18.075	1037.705	801.093
67.520	18.060	1037.209	800.566
68.534	18.102	1036.042	799.793
69.549	18.078	1035.606	799.271
70.563	18.038	1034.546	798.198
71.578	17.926	1033.810	797.034
72.593	17.795	1033.097	795.805
73.607	17.832	1032.516	795.462
74.622	17.896	1031.862	795.184
75.636	17.931	1031.420	794.937
76.651	17.982	1030.656	794.513
77.666	17.941	1029.989	793.738
78.680	17.939	1029.208	793.055
79.695	18.027	1028.493	792.844
80.709	17.984	1028.356	792.470
81.724	18.331	1027.303	793.197
82.739	18.457	1026.339	792.964
83.753	18.618	1025.883	793.287
84.768	18.922	1025.359	794.214
85.782	18.938	1024.441	793.507
86.797	18.844	1023.577	792.336
87.812	18.681	1022.336	790.554
88.826	18.784	1021.279	790.140
89.841	18.781	1020.733	789.633
90.855	18.897	1019.818	789.390
91.870	18.913	1019.046	788.795
92.884	18.944	1017.904	787.984
93.899	18.925	1017.018	787.139
94.914	19.018	1016.102	786.787
95.928	18.884	1015.316	785.496
96.943	18.936	1014.536	785.061
97.957	18.766	1013.422	783.353
98.972	18.743	1013.139	782.961
99.987	18.805	1011.721	782.079
101.001	18.839	1010.633	781.323
102.016	18.760	1010.017	780.421
103.030	18.930	1009.320	780.582
104.045	18.753	1008.781	779.293
105.060	18.755	1007.636	778.348
106.074	18.337	1006.531	775.535
107.089	18.235	1005.369	774.107
108.103	18.089	1004.260	772.525
109.118	18.155	1003.232	771.967
110.133	18.036	1002.728	770.975
111.147	18.133	1001.405	770.324
112.162	18.128	1000.990	769.914
113.176	18.258	1000.390	769.968
114.191	18.568	999.269	770.431
115.206	18.464	998.662	769.427
116.220	18.283	997.712	767.819
117.235	18.293	996.878	767.152
118.249	18.228	996.180	766.255
119.264	18.062	995.482	764.907
120.279	18.053	994.699	764.198
121.293	18.023	993.497	763.073
122.308	17.905	992.757	761.910
123.322	18.078	991.525	761.671
124.337	17.850	990.520	759.813
125.352	17.961	989.329	759.327
126.366	17.913	988.650	758.524
127.381	18.006	987.511	757.998
128.395	18.101	986.799	757.804
129.410	17.986	986.319	756.859
130.424	18.086	985.256	756.422
131.439	18.316	984.012	756.415
132.454	18.240	983.797	755.844
133.468	18.286	983.011	755.380
134.483	18.293	982.135	754.667
135.497	18.399	980.916	754.132
136.512	18.522	979.624	753.613
137.527	18.451	979.364	753.034
138.541	18.353	978.745	752.064
139.556	18.407	977.815	751.518
140.570	18.638	977.598	752.298
141.585	18.748	976.900	752.174
142.600	18.794	975.834	751.491
143.614	18.843	975.382	751.289
144.629	18.868	974.384	750.561
145.643	18.834	973.639	749.773
146.658	18.718	972.339	748.200
147.673	18.524	970.991	746.254
148.687	18.308	970.403	744.794
149.702	18.346	969.108	743.900
150.716	18.326	968.578	743.343
151.731	18.333	967.825	742.727
152.746	18.390	966.696	742.044
153.760	18.430	966.399	741.923
154.775	18.612	966.197	742.491
155.789	18.726	965.215	742.163
156.804	18.635	964.657	741.274
157.819	18.722	964.131	741.179
158.833	18.797	963.782	741.170
159.848	18.995	962.339	740.847
160.862	18.852	961.478	739.505
161.877	18.562	959.757	736.871
162.892	18.415	958.960	735.563
163.906	18.463	957.615	734.671
164.921	18.381	957.121	733.876
165.935	18.478	956.011	733.372
166.950	18.600	955.369	733.338
167.964	18.510	954.138	731.943
168.979	18.444	953.658	731.231
169.994	18.471	952.570	730.448
171.008	18.635	951.968	730.617
172.023	18.858	951.537	731.171
173.037	18.952	950.628	730.808
174.052	18.749	950.163	729.522
175.067	18.506	949.064	727.584
176.081	18.412	948.260	726.503
177.096	18.298	948.213	725.921
178.110	18.454	947.129	725.686
179.125	18.515	946.578	725.459
180.140	18.596	945.880	725.202
181.154	18.731	945.998	725.798
182.169	18.873	945.486	725.941
183.183	18.940	944.770	725.610
184.198	18.890	943.859	724.636
185.213	18.932	943.013	724.098
186.227	18.786	942.769	723.231
187.242	19.004	941.919	723.433
188.256	19.139	941.720	723.784
189.271	19.016	940.756	722.465
190.286	18.880	939.508	720.871
191.300	18.256	938.694	717.567
192.315	18.287	938.046	717.139
193.329	18.441	937.025	716.937
194.344	18.528	936.913	717.152
195.359	18.750	936.465	717.674
196.373	18.744	935.841	717.107
197.388	18.977	935.724	717.926
198.402	19.194	935.099	718.290
199.417	19.330	934.533	718.358
200.432	19.337	934.115	718.002
201.446	19.425	933.582	717.895
202.461	19.572	933.344	718.258
203.475	19.302	932.392	716.342
204.490	19.175	931.290	714.904
205.504	19.095	930.451	713.865
206.519	19.043	929.610	712.941
207.534	18.879	929.235	711.911
208.548	19.109	928.254	712.049
209.563	18.877	928.244	711.018
210.577	19.082	927.298	711.080
211.592	19.214	927.015	711.343
212.607	19.324	925.848	710.839
213.621	19.197	925.236	709.782
214.636	19.235	924.607	709.394
215.650	19.367	923.623	709.120
216.665	19.363	923.107	708.643
217.680	19.479	922.873	708.878
218.694	19.564	921.944	708.452
219.709	19.506	921.082	707.488
220.723	19.528	920.375	706.974
221.738	19.252	920.095	705.563
222.753	19.289	919.154	704.930
223.767	19.452	918.789	705.254
224.782	19.508	918.505	705.204
225.796	19.620	917.542	704.860
226.811	19.580	917.047	704.253
227.826	19.327	916.026	702.377
228.840	19.374	915.420	702.042
229.855	19.319	914.848	701.318
230.869	19.234	913.810	700.112
231.884	19.181	913.336	699.474
232.899	19.282	912.334	699.055
233.913	19.141	911.653	697.896
234.928	19.106	911.303	697.428
235.942	19.088	910.007	696.301
236.957	19.043	909.910	695.983
237.972	19.117	909.680	696.044
238.986	19.095	908.677	695.126
240.001	19.109	908.385	694.896
241.015	19.070	907.849	694.270
242.030	19.241	907.305	694.480
243.045	19.393	906.443	694.370
244.059	19.420	905.548	693.733
245.074	19.435	904.923	693.252
246.088	19.581	904.547	693.490
247.103	19.524	904.133	692.884
248.117	19.835	903.979	693.951
249.132	20.125	903.312	694.540
250.147	20.115	902.931	694.147
251.161	20.141	902.475	693.837
252.176	20.262	901.720	693.681
253.190	20.414	900.793	693.513
254.205	20.219	900.538	692.477
255.220	20.095	900.119	691.596
256.234	20.247	899.236	691.462
257.249	20.365	898.049	690.958
258.263	20.204	897.573	689.893
259.278	20.227	897.279	689.697
260.293	20.309	896.317	689.223
261.307	20.325	895.815	688.837
262.322	20.379	895.153	688.482
263.336	20.460	894.590	688.311
264.351	20.353	894.156	687.490
265.366	20.433	893.126	686.953
266.380	20.323	892.988	686.354
267.395	20.338	891.737	685.389
268.409	20.322	890.846	684.579
269.424	20.243	890.055	683.603
270.439	20.169	889.452	682.788
271.453	20.171	888.831	682.255
272.468	20.075	888.287	681.402
273.482	20.133	887.676	681.100
274.497	20.072	886.971	680.258
275.512	20.068	886.692	679.969
276.526	20.233	885.932	679.972
277.541	20.246	885.276	679.461
278.555	20.458	885.398	680.323
279.570	20.518	884.624	679.905
280.585	20.404	884.154	679.036
281.599	20.363	882.865	677.825
282.614	20.298	881.723	676.637
283.628	20.149	881.769	676.031
284.643	20.206	880.941	675.560
285.657	20.284	879.913	675.013
286.672	20.445	879.651	675.378
287.687	20.310	879.129	674.394
288.701	20.473	878.437	674.435
289.716	20.469	877.594	673.713
290.730	20.266	877.250	672.603
291.745	20.399	876.825	672.734
292.760	20.504	876.115	672.536
293.774	20.569	876.203	672.796
294.789	20.652	874.914	672.065
295.803	20.398	874.229	670.501
296.818	20.379	873.550	669.847
297.833	20.393	872.843	669.301
298.847	20.443	872.385	669.081
299.862	20.555	871.858	669.049
300.876	20.515	871.479	668.545
301.891	20.706	870.643	668.581
302.906	20.730	870.404	668.428
303.920	20.908	869.967	668.716
304.935	20.980	869.553	668.617
305.949	20.905	868.691	667.607
306.964	20.792	867.838	666.460
307.979	20.733	867.351	665.801
308.993	21.020	866.509	666.192
310.008	20.808	866.624	665.412
311.022	20.931	865.478	664.941
312.037	20.748	865.249	664.009
313.052	20.479	864.551	662.390
314.066	20.369	863.477	661.090
315.081	20.397	863.217	660.940
316.095	20.343	862.489	660.116
317.110	20.369	862.138	659.888
318.125	20.405	861.601	659.556
319.139	20.424	860.770	658.933
320.154	20.670	860.341	659.479
321.168	20.680	859.624	658.909
322.183	20.694	858.963	658.397
323.197	20.545	858.626	657.517
324.212	20.771	857.955	657.801
325.227	20.704	857.376	657.044
326.241	20.491	857.193	656.042
327.256	20.498	856.560	655.526
328.270	20.702	855.676	655.558
329.285	20.647	855.288	654.998
330.300	20.619	854.321	654.092
331.314	20.531	854.253	653.652
332.329	20.702	853.875	653.949
333.343	20.766	853.709	654.002
334.358	20.852	852.971	653.702
335.373	20.853	852.664	653.414
336.387	20.941	852.310	653.417
337.402	21.067	852.364	653.870
338.416	21.154	851.468	653.453
339.431	21.216	851.520	653.664
340.446	21.278	851.078	653.500
341.460	21.433	850.838	653.840
342.475	21.407	850.458	653.389
343.489	21.505	849.555	653.004
344.504	21.466	849.453	652.724
345.519	21.622	849.134	653.003
346.533	21.629	848.282	652.314
347.548	21.374	847.230	650.501
348.562	21.047	847.040	649.078
349.577	21.080	846.075	648.405
350.592	20.910	845.638	647.382
351.606	20.943	844.644	646.686
352.621	20.979	844.089	646.338
353.635	20.967	843.928	646.111
354.650	21.030	843.273	645.785
355.665	21.164	842.627	645.729
356.679	21.235	841.898	645.376
357.694	21.172	841.371	644.684
358.708	21.318	840.433	644.447
359.723	21.208	840.230	643.828
360.738	21.176	839.634	643.197
361.752	21.308	839.172	643.271
362.767	21.445	838.584	643.269
363.781	21.575	837.861	643.134
364.796	21.812	837.498	643.670
365.810	21.712	837.586	643.311
366.825	21.800	836.950	643.088
367.840	21.790	836.356	642.541
368.854	21.634	835.974	641.616
369.869	21.832	835.163	641.664
370.883	21.564	834.907	640.428
371.898	21.685	834.493	640.497
372.913	21.769	834.474	640.734
373.927	21.658	833.987	639.897
374.942	21.678	833.212	639.318
375.956	22.082	832.584	640.253
376.971	21.879	832.374	639.295
377.986	22.018	831.990	639.450
379.000	21.983	831.565	638.939
380.015	22.152	830.626	638.776
381.029	22.025	830.127	637.874
382.044	22.100	829.559	637.652
383.059	22.040	829.051	636.990
384.073	21.990	828.400	636.251
385.088	21.714	827.803	634.737
386.102	21.598	827.053	633.685
387.117	21.696	826.261	633.379
388.132	21.785	825.657	633.180
389.146	21.833	825.273	633.003
390.161	22.024	825.001	633.428
391.175	21.992	824.781	633.088
392.190	21.866	824.217	632.142
393.205	21.786	823.581	631.311
394.219	21.767	823.116	630.833
395.234	21.617	822.509	629.771
396.248	21.688	821.934	629.530
397.263	21.436	821.634	628.341
398.278	21.461	821.448	628.230
399.292	21.550	820.978	628.137
400.307	21.366	820.515	627.065
401.321	21.616	819.801	627.358
402.336	21.710	819.408	627.342
403.350	21.863	818.873	627.422
404.365	21.900	818.806	627.447
405.380	22.168	818.272	627.942
406.394	22.121	817.642	627.234
407.409	22.238	817.331	627.359
408.423	22.237	817.162	627.168
409.438	22.189	816.561	626.483
410.453	22.442	816.283	627.113
411.467	22.563	815.667	627.016
412.482	22.416	815.516	626.320
413.496	22.386	815.309	626.000
414.511	22.535	814.815	626.094
415.526	22.345	814.085	624.803
416.540	22.400	813.495	624.492
417.555	22.434	812.942	624.132
418.569	22.432	812.837	623.989
419.584	22.549	812.182	623.843
420.599	22.380	812.059	623.098
421.613	159.508	1369.663	1789.218
422.628	138.856	1450.922	1789.321
