DTS Sentinel unit serial number:	SN413079Multiplexer serial number:	ORYXHardware model number:	OX4-SRSoftware version number:	ORYX F/W v4.00 Oryx Data Collector v3.7.2.0data status	okinstallation	princeton_trtdifferential loss correction	single-endedforward channel	channel 1reverse channel	N/Adate	2019/09/18time	15:30:35forward acquisition time	60.00reverse acquisition time	0.00gamma	496.2192k internal	0.2298k external	0.2298temperature offset calibration	0.9999default loss term (dB/km)	0.3790temperature slope calibration	1.0000multiplexer offset coefficient	1.0000multiplexer slope coefficient	1.0000fibre end	0.00T internal ref (°C)	36.22T ext. ref 1 (°C)	0.78T ext. ref 2 (°C)	33.42length (m)	temperature (°C)	Stokes	anti-Stokes-747.200	-200.000	0.017	0.319
-746.185	-200.000	0.038	0.337
-745.171	199.639	-0.137	0.215
-744.156	57.302	-0.187	0.186
-743.142	47.547	-0.076	0.072
-742.127	-60.257	-0.206	-0.090
-741.112	800.000	-0.011	-0.035
-740.098	-92.061	0.229	0.066
-739.083	-27.560	-0.106	-0.063
-738.069	-200.000	0.088	0.418
-737.054	-68.442	0.345	0.137
-736.039	144.451	-0.057	-0.077
-735.025	20.621	0.247	-0.204
-734.010	103.391	0.156	-0.187
-732.996	-200.000	0.043	-0.248
-731.981	166.681	-0.035	0.051
-730.966	-95.178	-0.383	-0.105
-729.952	800.000	-0.111	-0.336
-728.937	-200.000	0.041	-0.213
-727.923	-200.000	0.005	-0.040
-726.908	50.485	-0.179	0.173
-725.894	-200.000	-0.014	0.282
-724.879	800.000	0.012	-0.039
-723.864	611.637	0.055	-0.141
-722.850	-108.445	0.180	-0.039
-721.835	84.053	0.202	-0.225
-720.821	-34.441	-0.136	-0.076
-719.806	-200.000	-0.063	0.291
-718.791	-200.000	-0.030	-0.235
-717.777	284.108	0.113	-0.207
-716.762	-91.760	0.238	-0.069
-715.748	-41.928	-0.315	-0.165
-714.733	-110.519	0.207	-0.044
-713.718	84.123	-0.178	-0.198
-712.704	198.041	0.242	0.378
-711.689	163.283	-0.037	-0.052
-710.675	-200.000	-0.009	-0.098
-709.660	-200.000	0.002	0.173
-708.645	-2.393	-0.374	-0.268
-707.631	400.075	0.130	-0.278
-706.616	-5.262	0.212	-0.148
-705.602	800.000	0.032	-0.124
-704.587	370.703	-0.228	0.471
-703.572	167.005	-0.266	0.384
-702.558	23.409	0.132	0.111
-701.543	123.917	0.105	0.135
-700.529	-200.000	0.011	-0.112
-699.514	-48.408	-0.072	-0.035
-698.499	3.449	0.166	0.124
-697.485	-200.000	0.027	-0.328
-696.470	-200.000	-0.041	-0.368
-695.456	-82.831	-0.157	-0.052
-694.441	365.740	0.223	0.458
-693.426	-162.504	0.211	-0.011
-692.412	108.620	-0.185	0.226
-691.397	-120.639	-0.268	0.046
-690.383	161.743	-0.225	0.321
-689.368	-200.000	0.165	-0.001
-688.354	157.637	0.188	0.265
-687.339	-165.796	0.093	-0.004
-686.324	-84.778	0.426	-0.136
-685.310	145.687	-0.033	0.045
-684.295	-200.000	-0.007	0.059
-683.281	96.242	-0.196	0.229
-682.266	337.100	0.141	-0.279
-681.251	-115.924	-0.262	-0.050
-680.237	800.000	-0.010	-0.039
-679.222	-200.000	0.053	0.310
-678.208	-30.719	-0.333	0.192
-677.193	39.870	-0.429	-0.392
-676.178	187.858	0.085	-0.130
-675.164	800.000	0.129	-0.401
-674.149	115.156	-0.127	-0.158
-673.135	800.000	-0.048	-0.137
-672.120	800.000	0.050	0.188
-671.105	-65.148	0.223	-0.091
-670.091	-65.481	-0.241	-0.099
-669.076	109.229	-0.203	0.248
-668.062	234.332	-0.155	0.261
-667.047	-153.356	0.345	0.024
-666.032	48.694	-0.290	0.277
-665.018	200.654	0.095	0.148
-664.003	126.661	0.117	0.151
-662.989	-200.000	0.009	-0.062
-661.974	-200.000	-0.013	-0.340
-660.959	541.689	0.041	-0.099
-659.945	-136.457	0.159	0.019
-658.930	-6.677	0.044	-0.031
-657.916	-200.000	-0.010	-0.259
-656.901	800.000	0.075	-0.210
-655.886	-200.000	0.017	0.198
-654.872	-59.749	-0.056	0.024
-653.857	-106.668	-0.078	-0.018
-652.843	112.662	0.189	-0.232
-651.828	800.000	-0.064	0.265
-650.814	-200.000	-0.002	-0.023
-649.799	52.837	0.175	0.170
-648.784	35.580	0.092	0.083
-647.770	-33.046	0.130	-0.073
-646.755	800.000	0.048	-0.178
-645.741	-18.168	0.303	-0.193
-644.726	-200.000	0.002	0.192
-643.711	-200.000	-0.074	-0.422
-642.697	-31.732	-0.043	-0.025
-641.682	174.429	0.088	-0.130
-640.668	155.537	0.080	-0.112
-639.653	775.728	-0.040	0.111
-638.638	800.000	0.012	-0.034
-637.624	-21.590	-0.121	-0.075
-636.609	696.620	-0.025	0.067
-635.595	-55.726	0.140	-0.064
-634.580	163.656	-0.117	-0.167
-633.565	-71.402	-0.260	0.099
-632.551	-97.957	0.222	0.058
-631.536	-137.196	-0.328	0.038
-630.522	-126.669	-0.282	0.042
-629.507	114.423	-0.045	-0.055
-628.492	-200.000	-0.023	0.147
-627.478	800.000	-0.188	0.539
-626.463	99.764	-0.285	0.336
-625.449	-200.000	-0.031	-0.361
-624.434	-200.000	0.008	-0.266
-623.419	-200.000	-0.008	-0.247
-622.405	-113.870	-0.212	-0.042
-621.390	-132.241	-0.220	-0.029
-620.376	800.000	-0.097	-0.346
-619.361	-200.000	-0.008	-0.041
-618.346	800.000	0.103	0.323
-617.332	23.378	0.106	-0.088
-616.317	238.187	0.060	0.101
-615.303	30.095	0.324	-0.281
-614.288	0.291	-0.201	0.146
-613.273	-145.650	0.366	0.033
-612.259	311.397	-0.200	-0.381
-611.244	-123.151	-0.155	0.025
-610.230	100.485	0.142	0.167
-609.215	231.114	-0.105	0.175
-608.201	98.198	-0.087	-0.102
-607.186	-181.355	-0.183	-0.004
-606.171	512.279	0.048	0.114
-605.157	-72.117	0.225	-0.085
-604.142	55.227	-0.045	0.045
-603.128	-45.383	0.132	-0.066
-602.113	800.000	-0.122	-0.367
-601.098	-79.928	-0.171	-0.058
-600.084	-200.000	0.006	-0.034
-599.069	-177.109	-0.214	0.005
-598.055	22.347	0.182	-0.151
-597.040	-114.583	0.026	0.005
-596.025	-41.051	-0.233	-0.122
-595.011	92.955	-0.227	-0.260
-593.996	800.000	0.025	-0.072
-592.982	-52.408	0.180	-0.085
-591.967	-200.000	0.006	0.172
-590.952	771.689	0.134	-0.371
-589.938	-200.000	-0.015	-0.111
-588.923	-37.085	-0.228	0.124
-587.909	642.515	0.141	-0.363
-586.894	-200.000	-0.008	-0.161
-585.879	586.108	0.078	-0.195
-584.865	-0.416	0.234	-0.169
-583.850	132.520	0.204	-0.267
-582.836	800.000	-0.043	-0.128
-581.821	145.393	-0.142	-0.193
-580.806	-71.049	0.157	-0.060
-579.792	236.002	-0.075	-0.126
-578.777	-59.492	-0.217	-0.094
-577.763	108.335	0.182	0.220
-576.748	-180.452	0.258	-0.005
-575.733	47.679	0.153	0.145
-574.719	40.442	0.230	0.210
-573.704	102.511	-0.092	-0.110
-572.690	-200.000	0.001	0.190
-571.675	586.486	-0.095	0.237
-570.661	712.849	-0.098	-0.263
-569.646	-200.000	0.037	-0.299
-568.631	-200.000	0.007	-0.116
-567.617	-41.096	-0.356	-0.186
-566.602	-64.172	0.511	-0.211
-565.588	12.939	0.180	-0.141
-564.573	-17.607	0.069	-0.044
-563.558	131.617	0.201	-0.262
-562.544	-158.175	-0.280	-0.017
-561.529	408.944	-0.093	0.200
-560.515	-199.067	0.284	0.002
-559.500	-47.559	-0.306	0.150
-558.485	454.790	0.074	0.166
-557.471	-7.580	0.231	-0.158
-556.456	52.322	-0.211	-0.204
-555.442	195.889	0.061	0.095
-554.427	-200.000	0.009	-0.099
-553.412	800.000	0.033	0.094
-552.398	800.000	-0.045	-0.182
-551.383	-39.335	-0.078	-0.041
-550.369	132.496	0.195	-0.255
-549.354	-102.666	-0.216	-0.052
-548.339	-5.050	-0.182	-0.127
-547.325	-58.784	0.359	-0.157
-546.310	58.323	0.164	0.162
-545.296	429.275	-0.116	-0.255
-544.281	-119.483	-0.130	-0.023
-543.266	-154.816	-0.150	-0.010
-542.252	-200.000	-0.005	-0.248
-541.237	-200.000	-0.010	-0.416
-540.223	-154.686	-0.348	0.023
-539.208	-43.216	-0.295	-0.151
-538.193	-200.000	0.028	-0.259
-537.179	91.316	-0.099	0.113
-536.164	-200.000	-0.045	-0.388
-535.150	92.308	0.178	-0.203
-534.135	-109.019	0.227	0.049
-533.121	-13.713	0.126	0.083
-532.106	-105.887	-0.190	-0.043
-531.091	-103.429	-0.285	-0.068
-530.077	563.365	-0.043	0.105
-529.062	38.386	0.329	0.297
-528.048	-9.550	0.248	-0.167
-527.033	-5.392	-0.354	-0.246
-526.018	-200.000	-0.035	0.266
-525.004	151.078	0.172	0.237
-523.989	-47.084	-0.359	0.177
-522.975	800.000	0.038	-0.111
-521.960	-70.682	-0.129	0.049
-520.945	800.000	-0.071	-0.215
-519.931	-33.296	-0.361	-0.202
-518.916	98.759	0.121	0.141
-517.902	258.439	-0.188	0.328
-516.887	213.001	-0.127	0.203
-515.872	-101.145	0.337	-0.083
-514.858	-137.153	0.167	0.019
-513.843	-200.000	0.041	-0.224
-512.829	365.244	0.079	-0.161
-511.814	342.570	-0.114	0.226
-510.799	6.449	-0.148	-0.111
-509.785	-115.060	0.049	-0.009
-508.770	-32.132	-0.299	0.169
-507.756	-20.276	0.101	-0.063
-506.741	-200.000	0.028	-0.131
-505.726	-25.403	-0.076	-0.045
-504.712	481.996	-0.151	0.348
-503.697	-152.945	0.059	-0.004
-502.683	800.000	-0.080	0.256
-501.668	60.453	-0.213	0.213
-500.653	-52.470	0.059	-0.028
-499.639	-164.719	0.354	-0.016
-498.624	30.773	-0.282	-0.244
-497.610	800.000	0.095	-0.338
-496.595	-97.895	-0.221	0.058
-495.581	-29.977	0.053	0.031
-494.566	-200.000	0.017	-0.398
-493.551	11.232	-0.203	0.157
-492.537	-74.929	0.254	0.092
-491.522	63.673	0.195	-0.198
-490.508	-190.800	0.119	-0.001
-489.493	-42.465	-0.122	-0.063
-488.478	-200.000	0.013	-0.086
-487.464	151.257	0.125	-0.172
-486.449	652.008	-0.079	0.205
-485.435	-11.139	-0.169	-0.113
-484.420	-200.000	-0.006	0.487
-483.405	-96.507	0.060	-0.016
-482.391	331.670	0.126	0.246
-481.376	-132.852	0.468	-0.060
-480.362	800.000	0.036	0.149
-479.347	17.214	0.116	0.093
-478.332	423.695	0.028	-0.062
-477.318	-19.823	0.026	0.016
-476.303	16.638	-0.194	0.155
-475.289	556.566	-0.056	-0.136
-474.274	137.053	0.179	-0.236
-473.259	274.474	-0.137	-0.245
-472.245	347.487	-0.065	0.130
-471.230	-200.000	-0.014	0.191
-470.216	57.846	-0.121	0.119
-469.201	538.611	0.042	-0.100
-468.186	137.400	-0.021	0.027
-467.172	800.000	-0.082	-0.238
-466.157	-18.647	-0.300	0.189
-465.143	-200.000	-0.005	0.237
-464.128	-52.451	0.113	0.053
-463.113	163.939	-0.235	-0.335
-462.099	800.000	-0.029	-0.104
-461.084	800.000	0.033	-0.139
-460.070	-10.193	0.242	-0.162
-459.055	-95.925	-0.313	0.084
-458.040	288.534	-0.082	-0.149
-457.026	456.158	-0.049	0.109
-456.011	9.356	0.173	0.132
-454.997	115.965	-0.267	0.330
-453.982	25.313	0.117	-0.098
-452.968	423.409	-0.061	0.132
-451.953	-197.667	-0.351	-0.002
-450.938	60.110	0.140	-0.140
-449.924	153.941	-0.123	0.170
-448.909	66.847	0.080	-0.082
-447.895	-84.663	0.240	-0.076
-446.880	800.000	-0.023	-0.098
-445.865	-157.010	-0.573	-0.035
-444.851	800.000	0.153	-0.444
-443.836	800.000	0.046	-0.184
-442.822	130.578	0.053	0.069
-441.807	-52.821	0.142	0.066
-440.792	-97.234	-0.244	0.064
-439.778	-200.000	-0.038	-0.410
-438.763	-200.000	0.002	-0.090
-437.749	-200.000	-0.228	0.001
-436.734	800.000	0.102	0.430
-435.719	23.669	0.165	-0.137
-434.705	-200.000	0.079	-0.378
-433.690	357.849	0.114	0.229
-432.676	111.919	0.073	-0.089
-431.661	-79.025	0.296	-0.102
-430.646	266.608	-0.056	-0.099
-429.632	442.940	0.138	-0.304
-428.617	21.301	0.156	-0.128
-427.603	-39.450	0.232	0.123
-426.588	-59.483	-0.142	0.062
-425.573	800.000	-0.094	-0.299
-424.559	-91.011	0.146	0.042
-423.544	35.369	0.260	-0.230
-422.530	-64.691	0.201	-0.082
-421.515	-102.930	-0.479	0.115
-420.500	-200.000	0.040	0.178
-419.486	-108.769	0.149	0.032
-418.471	800.000	0.037	0.105
-417.457	49.168	-0.201	-0.190
-416.442	-200.000	0.018	0.240
-415.428	-82.871	0.268	-0.087
-414.413	800.000	0.089	0.277
-413.398	341.825	-0.097	-0.191
-412.384	-38.055	0.138	0.074
-411.369	142.849	0.128	-0.171
-410.355	44.080	0.088	-0.082
-409.340	544.466	0.142	-0.341
-408.325	-138.560	0.182	-0.020
-407.311	-75.544	0.210	-0.075
-406.296	206.989	-0.215	0.337
-405.282	150.692	-0.019	0.027
-404.267	-41.482	-0.053	-0.028
-403.252	-101.213	-0.162	0.040
-402.238	132.272	-0.033	-0.042
-401.223	294.212	-0.031	-0.057
-400.209	-200.000	0.026	-0.214
-399.194	90.264	0.124	0.140
-398.179	60.530	0.076	-0.076
-397.165	-141.715	-0.318	-0.032
-396.150	333.539	0.029	0.057
-395.136	-175.047	0.204	-0.006
-394.121	800.000	-0.085	0.245
-393.106	138.370	-0.094	-0.124
-392.092	273.522	-0.063	0.112
-391.077	22.768	-0.154	0.127
-390.063	259.984	-0.073	0.126
-389.048	201.307	-0.074	-0.115
-388.033	-141.431	-0.072	-0.007
-387.019	-200.000	-0.050	-0.468
-386.004	-200.000	0.035	-0.194
-384.990	800.000	-0.139	0.403
-383.975	-200.000	0.006	-0.127
-382.960	-129.624	0.180	0.025
-381.946	480.381	0.129	-0.295
-380.931	85.944	0.080	-0.089
-379.917	-200.000	-0.026	0.373
-378.902	-200.000	-0.011	0.061
-377.888	-95.842	-0.216	-0.058
-376.873	800.000	0.037	-0.159
-375.858	240.683	-0.034	0.058
-374.844	-79.130	0.337	0.115
-373.829	-200.000	0.031	0.197
-372.815	104.611	0.218	0.258
-371.800	-70.357	-0.198	0.075
-370.785	200.012	-0.021	0.033
-369.771	-53.013	-0.209	0.097
-368.756	124.093	-0.046	-0.058
-367.742	800.000	-0.072	-0.230
-366.727	-97.050	0.111	0.029
-365.712	800.000	-0.089	-0.259
-364.698	295.104	-0.108	-0.199
-363.683	-200.000	-0.021	-0.183
-362.669	257.192	-0.090	0.156
-361.654	21.367	-0.047	0.038
-360.639	-66.114	0.126	-0.050
-359.625	-56.619	0.284	0.127
-358.610	514.443	0.020	-0.048
-357.596	3.274	0.259	-0.190
-356.581	-6.929	-0.324	0.221
-355.566	-159.203	-0.314	-0.018
-354.552	706.506	0.064	0.170
-353.537	1.598	0.195	-0.141
-352.523	-177.656	0.088	0.002
-351.508	-119.005	0.104	0.018
-350.493	-200.000	-0.006	-0.202
-349.479	-45.396	0.098	0.049
-348.464	-52.297	0.078	0.036
-347.450	357.169	0.207	0.414
-346.435	800.000	0.090	0.288
-345.420	175.107	0.175	0.255
-344.406	800.000	0.012	0.036
-343.391	-185.233	-0.262	0.004
-342.377	-147.369	-0.233	0.020
-341.362	-148.919	0.296	0.024
-340.348	119.137	-0.178	0.222
-339.333	800.000	0.043	0.140
-338.318	133.614	0.040	0.053
-337.304	-200.000	0.098	0.489
-336.289	190.029	-0.028	-0.043
-335.275	257.344	0.059	0.101
-334.260	7.624	0.064	0.048
-333.245	-200.000	-0.050	0.276
-332.231	128.097	-0.117	0.149
-331.216	-200.000	0.017	0.282
-330.202	382.740	-0.083	-0.172
-329.187	800.000	-0.041	0.166
-328.172	657.218	0.105	-0.270
-327.158	800.000	0.091	-0.265
-326.143	51.295	-0.138	-0.132
-325.129	-71.901	0.244	-0.091
-324.114	-169.280	-0.106	0.004
-323.099	16.166	-0.221	-0.175
-322.085	32.918	-0.134	-0.116
-321.070	-57.779	-0.099	0.044
-320.056	-95.137	-0.141	-0.038
-319.041	800.000	-0.082	0.289
-318.026	80.530	0.076	0.082
-317.012	96.942	-0.303	-0.349
-315.997	203.035	0.076	-0.118
-314.983	165.060	-0.076	-0.108
-313.968	-52.887	0.014	0.006
-312.953	-145.321	-0.148	-0.013
-311.939	80.966	0.175	0.189
-310.924	331.098	0.121	-0.233
-309.910	-15.166	-0.248	-0.159
-308.895	-29.175	-0.117	0.068
-307.880	-130.207	0.061	0.008
-306.866	73.200	-0.243	-0.255
-305.851	-200.000	0.007	0.123
-304.837	-45.396	0.246	0.122
-303.822	118.672	-0.117	0.144
-302.807	800.000	-0.110	0.410
-301.793	432.356	0.125	-0.272
-300.778	-200.000	-0.065	0.305
-299.764	35.348	-0.258	0.227
-298.749	417.262	-0.041	0.088
-297.735	182.152	0.072	-0.107
-296.720	221.879	-0.107	-0.173
-295.705	65.369	0.363	-0.368
-294.691	-62.354	-0.186	0.078
-293.676	72.616	0.063	0.066
-292.662	-200.000	0.012	0.109
-291.647	-68.045	-0.043	0.017
-290.632	-85.164	-0.167	-0.052
-289.618	-156.849	-0.264	-0.016
-288.603	-84.844	-0.153	-0.048
-287.589	800.000	0.059	-0.182
-286.574	-200.000	0.046	-0.223
-285.559	0.673	-0.124	-0.089
-284.545	-14.414	-0.208	-0.134
-283.530	588.893	0.173	-0.426
-282.516	182.477	-0.055	0.081
-281.501	-145.919	-0.192	-0.017
-280.486	-87.287	0.091	-0.028
-279.472	-95.539	0.206	0.055
-278.457	-52.684	0.194	-0.090
-277.443	20.777	-0.222	0.180
-276.428	-65.057	-0.445	0.180
-275.413	131.239	0.149	0.191
-274.399	-89.206	0.262	0.077
-273.384	19.411	0.087	0.070
-272.370	750.003	-0.183	0.494
-271.355	800.000	0.154	0.538
-270.340	-46.883	0.190	0.093
-269.326	-200.000	-0.019	0.189
-268.311	-78.516	0.158	-0.054
-267.297	519.704	-0.020	0.046
-266.282	773.493	-0.073	0.198
-265.267	-74.404	-0.204	0.074
-264.253	269.355	-0.133	0.234
-263.238	-99.641	0.228	-0.057
-262.224	5.563	-0.041	0.031
-261.209	3.000	-0.165	-0.120
-260.195	-58.772	0.022	0.010
-259.180	-200.000	0.013	-0.109
-258.165	-110.373	-0.218	-0.045
-257.151	124.698	0.235	0.296
-256.136	149.372	0.105	-0.143
-255.122	591.893	-0.025	-0.061
-254.107	-200.000	0.001	0.128
-253.092	435.666	-0.135	0.294
-252.078	598.028	0.110	-0.273
-251.063	-122.791	-0.114	0.018
-250.049	345.992	0.105	0.206
-249.034	-41.478	0.245	0.126
-248.019	519.862	-0.079	-0.185
-247.005	-20.274	0.245	0.151
-245.990	7.474	-0.123	0.092
-244.976	-43.789	0.189	-0.095
-243.961	413.388	0.218	0.463
-242.946	344.268	0.159	0.313
-241.932	562.536	0.057	-0.137
-240.917	119.217	-0.103	-0.127
-239.903	-0.279	-0.057	-0.041
-238.888	-49.590	0.103	-0.049
-237.873	-60.956	0.481	0.204
-236.859	47.668	0.063	-0.059
-235.844	-200.000	0.025	0.185
-234.830	-200.000	-0.003	-0.248
-233.815	391.167	0.067	0.138
-232.800	197.691	0.143	0.219
-231.786	49.632	-0.197	0.186
-230.771	-200.000	-0.034	0.156
-229.757	4.884	0.194	-0.142
-228.742	-143.490	0.426	0.041
-227.727	-79.282	-0.064	0.022
-226.713	-200.000	0.028	-0.332
-225.698	45.215	-0.043	-0.040
-224.684	-200.000	-0.001	-0.067
-223.669	-109.963	0.177	0.037
-222.655	474.782	0.097	0.219
-221.640	50.569	-0.070	-0.067
-220.625	-200.000	0.024	0.302
-219.611	38.958	0.107	-0.095
-218.596	123.759	-0.202	0.254
-217.582	96.222	0.284	0.324
-216.567	-181.923	0.169	-0.003
-215.552	641.380	0.021	0.054
-214.538	29.459	0.172	-0.146
-213.523	-90.942	-0.043	-0.012
-212.509	14.542	-0.028	-0.022
-211.494	134.801	-0.090	-0.117
-210.479	-40.723	-0.065	0.034
-209.465	767.332	0.090	-0.244
-208.450	-185.646	0.282	-0.004
-207.436	-155.907	0.413	-0.026
-206.421	-110.394	-0.541	-0.112
-205.406	-92.229	0.112	0.032
-204.392	548.006	-0.083	0.198
-203.377	-123.179	-0.108	-0.017
-202.363	624.557	-0.092	-0.232
-201.348	762.076	0.067	-0.182
-200.333	-120.660	0.171	0.029
-199.319	67.720	0.250	0.256
-198.304	191.407	0.153	0.230
-197.290	341.517	-0.074	0.145
-196.275	127.314	-0.094	0.119
-195.260	800.000	-0.056	-0.222
-194.246	-200.000	-0.021	0.494
-193.231	30.966	-0.109	0.093
-192.217	197.712	0.116	0.177
-191.202	117.392	-0.197	-0.243
-190.187	30.928	0.177	0.151
-189.173	43.443	-0.199	0.182
-188.158	20.189	-0.269	0.217
-187.144	695.327	-0.040	-0.106
-186.129	800.000	-0.050	0.162
-185.114	-200.000	-0.040	-0.185
-184.100	377.793	0.003	-0.005
-183.085	800.000	-0.069	-0.278
-182.071	-156.538	-0.231	0.014
-181.056	800.000	0.101	0.350
-180.042	-36.583	0.249	-0.134
-179.027	-200.000	-0.019	0.144
-178.012	-200.000	0.000	0.187
-176.998	74.185	0.057	-0.060
-175.983	29.661	-0.189	0.161
-174.969	106.550	-0.055	0.065
-173.954	-40.486	-0.248	-0.128
-172.939	74.782	-0.110	0.115
-171.925	-140.050	-0.346	0.036
-170.910	-119.589	0.235	0.041
-169.896	800.000	-0.041	0.147
-168.881	800.000	0.064	0.209
-167.866	-177.482	0.361	0.009
-166.852	149.789	-0.044	0.060
-165.837	-59.108	0.292	0.125
-164.823	-32.929	0.132	-0.073
-163.808	-200.000	-0.008	0.169
-162.793	-67.487	-0.602	0.236
-161.779	800.000	-0.060	-0.169
-160.764	431.551	-0.146	0.316
-159.750	-200.000	-0.001	-0.022
-158.735	670.613	0.031	0.081
-157.720	-89.914	0.050	-0.015
-156.706	-118.419	0.190	0.034
-155.691	-41.081	0.296	-0.153
-154.677	-45.174	0.139	0.069
-153.662	-200.000	0.082	0.427
-152.647	40.606	-0.244	0.220
-151.633	-128.427	0.129	0.018
-150.618	-1.159	0.221	-0.156
-149.604	208.834	-0.078	-0.122
-148.589	-182.846	-0.178	0.003
-147.574	349.270	-0.192	-0.378
-146.560	800.000	0.032	-0.093
-145.545	-16.950	0.171	-0.108
-144.531	-200.000	0.020	-0.326
-143.516	-200.000	-0.008	0.160
-142.502	-29.146	-0.188	-0.107
-141.487	-200.000	0.004	-0.053
-140.472	-14.554	-0.329	0.211
-139.458	75.502	-0.084	-0.088
-138.443	254.380	-0.038	0.064
-137.429	312.029	-0.108	-0.203
-136.414	287.963	0.101	-0.182
-135.399	271.273	-0.191	0.334
-134.385	-200.000	0.006	0.290
-133.370	-200.000	0.034	-0.186
-132.356	-38.178	0.382	-0.202
-131.341	-200.000	0.012	0.191
-130.326	-6.820	0.034	0.023
-129.312	-57.363	0.155	-0.068
-128.297	-200.000	0.030	0.458
-127.283	800.000	-0.052	0.204
-126.268	320.852	-0.171	0.324
-125.253	104.358	0.092	0.107
-124.239	-136.602	0.068	0.008
-123.224	-130.598	-0.292	-0.039
-122.210	140.771	-0.159	0.209
-121.195	-160.551	0.125	-0.007
-120.180	-200.000	0.017	-0.135
-119.166	-200.000	0.039	0.267
-118.151	94.601	0.149	0.169
-117.137	-200.000	-0.013	-0.214
-116.122	278.369	-0.141	-0.251
-115.107	-45.932	0.370	0.182
-114.093	-200.000	-0.058	-0.348
-113.078	-200.000	0.010	0.282
-112.064	51.004	0.222	0.209
-111.049	-200.000	-0.011	-0.095
-110.034	621.980	0.016	-0.041
-109.020	-146.982	-0.229	0.020
-108.005	553.057	-0.089	-0.212
-106.991	-195.441	-0.295	-0.002
-105.976	-57.970	0.084	0.037
-104.962	43.128	0.467	0.424
-103.947	68.066	0.099	0.101
-102.932	38.969	-0.197	0.176
-101.918	800.000	0.037	-0.156
-100.903	652.577	-0.118	-0.301
-99.889	-55.394	-0.327	-0.146
-98.874	-93.549	-0.083	0.023
-97.859	281.067	0.140	-0.250
-96.845	-13.513	-0.229	-0.147
-95.830	-60.907	0.258	0.109
-94.816	428.282	-0.138	0.296
-93.801	800.000	-0.067	0.264
-92.786	194.651	-0.164	0.247
-91.772	585.190	0.076	-0.186
-90.757	120.248	-0.056	0.069
-89.743	-52.580	0.279	-0.128
-88.728	636.938	0.131	-0.331
-87.713	800.000	0.069	0.276
-86.699	-146.278	0.300	0.026
-85.684	-146.274	0.181	0.016
-84.670	-115.220	-0.124	-0.023
-83.655	-116.848	-0.107	-0.020
-82.640	27.024	0.116	0.097
-81.626	800.000	0.067	0.215
-80.611	-200.000	-0.037	-0.172
-79.597	800.000	0.106	0.458
-78.582	-131.223	-0.290	0.038
-77.567	534.953	0.131	-0.309
-76.553	-200.000	-0.012	-0.084
-75.538	-74.720	-0.233	0.083
-74.524	-200.000	0.011	-0.243
-73.509	800.000	-0.023	-0.094
-72.494	-65.821	-0.192	0.076
-71.480	-200.000	0.058	0.363
-70.465	205.382	-0.201	-0.311
-69.451	-5.735	-0.114	0.078
-68.436	-21.070	-0.081	-0.049
-67.422	29.797	0.072	-0.061
-66.407	-59.661	0.102	-0.044
-65.392	800.000	-0.114	0.319
-64.378	800.000	0.065	0.237
-63.363	-200.000	-0.011	-0.269
-62.349	-91.395	-0.206	-0.058
-61.334	-59.086	-1.218	-0.522
-60.319	-145.968	0.484	0.043
-59.305	800.000	-0.246	-0.713
-58.290	-50.005	0.689	0.325
-57.276	706.555	0.625	1.641
-56.261	-200.000	89.333	509.524
-55.246	446.073	1422.885	3107.134
-54.232	142.515	2636.229	3478.031
-53.217	109.549	2238.109	2664.123
-52.203	47.082	1675.393	1548.551
-51.188	39.508	1404.831	1250.586
-50.173	36.312	1361.355	1192.135
-49.159	55.223	1406.666	1350.928
-48.144	59.370	1425.425	1394.930
-47.130	40.087	1381.746	1233.453
-46.115	36.449	1363.984	1195.095
-45.100	36.190	1359.445	1189.472
-44.086	35.988	1357.094	1186.126
-43.071	35.988	1354.634	1183.929
-42.057	36.199	1351.623	1182.545
-41.042	36.110	1350.300	1180.791
-40.027	36.005	1348.896	1178.876
-39.013	36.145	1346.317	1177.430
-37.998	36.177	1344.880	1176.322
-36.984	36.172	1343.044	1174.638
-35.969	36.308	1341.093	1173.715
-34.954	36.226	1340.002	1172.214
-33.940	36.278	1338.192	1170.898
-32.925	36.308	1336.825	1169.840
-31.911	36.289	1335.228	1168.277
-30.896	36.329	1333.677	1167.117
-29.881	36.334	1332.528	1166.094
-28.867	36.257	1330.955	1164.207
-27.852	36.321	1329.282	1163.082
-26.838	36.413	1327.563	1162.086
-25.823	36.310	1326.379	1160.385
-24.809	36.372	1324.487	1159.054
-23.794	36.253	1323.430	1157.372
-22.779	36.228	1322.007	1155.931
-21.765	36.336	1320.904	1155.567
-20.750	36.190	1319.695	1153.590
-19.736	36.081	1318.717	1152.037
-18.721	36.275	1316.574	1151.280
-17.706	36.143	1315.632	1149.624
-16.692	36.175	1314.263	1148.573
-15.677	36.175	1313.005	1147.424
-14.663	36.185	1311.680	1146.283
-13.648	36.189	1310.450	1145.184
-12.633	36.155	1309.874	1144.434
-11.619	36.152	1309.093	1143.687
-10.604	36.124	1308.745	1143.172
-9.590	36.102	1307.162	1141.619
-8.575	36.176	1306.331	1141.284
-7.560	36.035	1305.655	1139.812
-6.546	36.224	1304.319	1139.715
-5.531	36.241	1303.200	1138.793
-4.517	36.084	1302.761	1137.439
-3.502	36.116	1301.347	1136.350
-2.487	36.161	1300.429	1135.764
-1.473	36.141	1297.010	1132.616
-0.458	35.427	1282.341	1115.616
0.556	30.926	1263.865	1075.343
1.571	26.094	1267.323	1050.151
2.586	24.047	1280.950	1049.294
3.600	22.313	1269.023	1029.301
4.615	16.268	1191.663	933.154
5.629	6.212	1109.828	816.983
6.644	1.175	1086.731	774.241
7.659	0.680	1084.726	770.224
8.673	0.613	1083.795	769.154
9.688	0.643	1082.660	768.430
10.702	1.096	1080.168	768.890
11.717	6.206	1087.852	800.348
12.731	14.646	1099.487	852.088
13.746	18.055	1102.438	871.721
14.761	17.600	1101.140	868.298
15.775	16.632	1099.311	861.852
16.790	15.678	1097.567	855.553
17.804	14.892	1095.505	849.877
18.819	14.582	1094.201	847.219
19.834	14.254	1093.549	844.971
20.848	14.002	1092.820	843.056
21.863	13.598	1091.974	840.281
22.877	13.489	1091.004	838.909
23.892	13.419	1090.431	838.040
24.907	13.516	1089.458	837.707
25.921	13.599	1088.580	837.376
26.936	13.681	1087.761	837.085
27.950	13.711	1086.536	836.223
28.965	13.762	1085.481	835.593
29.980	13.714	1084.088	834.204
30.994	13.596	1083.654	833.206
32.009	13.628	1082.678	832.538
33.023	13.849	1080.954	832.251
34.038	13.805	1079.923	831.164
35.053	13.780	1078.649	829.985
36.067	13.798	1078.200	829.653
37.082	13.639	1077.779	828.461
38.096	13.697	1077.018	828.093
39.111	13.680	1076.513	827.547
40.126	13.652	1075.088	826.238
41.140	13.578	1073.629	824.676
42.155	13.609	1072.447	823.849
43.169	13.441	1071.696	822.366
44.184	13.567	1070.561	822.044
45.199	13.504	1069.560	820.894
46.213	13.648	1068.168	820.466
47.228	13.612	1067.056	819.361
48.242	13.664	1065.807	818.587
49.257	13.600	1065.161	817.698
50.271	13.625	1064.633	817.348
51.286	13.652	1063.502	816.540
52.301	13.726	1061.958	815.643
53.315	13.656	1061.566	814.930
54.330	13.543	1060.641	813.591
55.344	13.626	1059.349	812.934
56.359	13.616	1058.769	812.370
57.374	13.537	1058.115	811.410
58.388	13.567	1056.959	810.597
59.403	13.554	1056.301	809.958
60.417	13.598	1055.105	809.183
61.432	13.488	1054.937	808.445
62.447	13.442	1053.723	807.218
63.461	13.483	1052.438	806.365
64.476	13.358	1052.000	805.346
65.490	13.521	1051.281	805.519
66.505	13.514	1050.515	804.825
67.520	13.580	1049.522	804.317
68.534	13.571	1048.573	803.473
69.549	13.469	1048.052	802.507
70.563	13.542	1047.084	802.050
71.578	13.513	1046.477	801.372
72.593	13.446	1045.577	800.289
73.607	13.453	1045.007	799.818
74.622	13.388	1044.484	799.029
75.636	13.448	1043.852	798.765
76.651	13.394	1043.129	797.883
77.666	13.389	1042.573	797.363
78.680	13.474	1041.548	796.918
79.695	13.452	1040.990	796.315
80.709	13.448	1040.321	795.713
81.724	13.573	1039.695	795.764
82.739	13.475	1039.339	794.950
83.753	13.614	1038.180	794.659
84.768	13.711	1037.398	794.458
85.782	13.681	1036.430	793.501
86.797	13.783	1035.289	793.046
87.812	13.737	1034.296	791.993
88.826	13.607	1033.385	790.606
89.841	13.640	1032.309	789.869
90.855	13.745	1031.125	789.396
91.870	13.750	1030.490	788.860
92.884	13.714	1029.821	788.109
93.899	13.750	1028.890	787.499
94.914	13.715	1028.090	786.649
95.928	13.811	1027.215	786.363
96.943	13.731	1026.645	785.479
97.957	13.795	1024.901	784.377
98.972	13.713	1025.003	784.000
99.987	13.730	1023.686	783.001
101.001	13.720	1023.056	782.404
102.016	13.813	1021.748	781.773
103.030	13.702	1021.213	780.774
104.045	13.817	1020.298	780.547
105.060	13.716	1019.591	779.459
106.074	13.620	1018.484	778.095
107.089	13.707	1017.364	777.576
108.103	13.600	1016.603	776.424
109.118	13.718	1015.630	776.165
110.133	13.561	1014.914	774.814
111.147	13.599	1013.826	774.093
112.162	13.617	1012.500	773.097
113.176	13.568	1012.306	772.655
114.191	13.635	1011.384	772.193
115.206	13.731	1010.500	771.896
116.220	13.682	1009.436	770.787
117.235	13.769	1009.073	770.847
118.249	13.775	1008.077	770.046
119.264	13.774	1007.085	769.217
120.279	13.672	1006.396	768.147
121.293	13.688	1005.897	767.772
122.308	13.624	1004.717	766.508
123.322	13.617	1003.448	765.442
124.337	13.625	1002.650	764.801
125.352	13.708	1001.499	764.238
126.366	13.665	1000.358	763.101
127.381	13.649	999.331	762.178
128.395	13.625	998.590	761.436
129.410	13.734	997.451	760.996
130.424	13.738	996.692	760.372
131.439	13.804	996.027	760.100
132.454	13.741	995.058	759.005
133.468	13.851	994.148	758.746
134.483	13.900	993.059	758.069
135.497	13.726	992.584	756.844
136.512	13.823	991.787	756.614
137.527	13.906	990.602	756.023
138.541	13.740	990.477	755.102
139.556	13.793	989.655	754.650
140.570	13.724	989.075	753.828
141.585	13.868	988.045	753.628
142.600	13.913	986.880	752.877
143.614	13.884	986.053	752.049
144.629	13.911	985.220	751.470
145.643	13.943	984.253	750.810
146.658	13.881	982.769	749.335
147.673	13.743	982.230	748.235
148.687	13.742	981.377	747.515
149.702	13.831	980.141	746.904
150.716	13.789	979.890	746.461
151.731	13.807	978.779	745.626
152.746	13.881	978.408	745.611
153.760	13.802	977.702	744.655
154.775	13.737	977.481	744.128
155.789	13.871	976.167	743.663
156.804	13.929	975.709	743.504
157.819	13.961	974.852	742.929
158.833	13.958	974.414	742.516
159.848	13.960	973.485	741.755
160.862	14.017	972.717	741.357
161.877	13.838	971.833	739.817
162.892	13.844	970.877	739.054
163.906	13.816	969.984	738.184
164.921	13.782	969.336	737.471
165.935	13.974	967.763	737.063
166.950	13.983	966.744	736.263
167.964	13.958	966.084	735.584
168.979	14.016	965.291	735.172
169.994	13.886	964.424	733.871
171.008	13.983	963.456	733.498
172.023	14.116	963.054	733.713
173.037	14.098	962.077	732.824
174.052	14.149	961.521	732.563
175.067	13.963	961.569	731.715
176.081	14.127	960.525	731.577
177.096	14.010	959.889	730.512
178.110	13.940	959.399	729.769
179.125	14.151	958.449	729.906
180.140	14.055	958.654	729.576
181.154	14.124	957.424	728.880
182.169	14.197	956.769	728.635
183.183	14.092	956.491	727.901
184.198	14.225	955.359	727.554
185.213	14.182	954.768	726.851
186.227	14.247	954.294	726.712
187.242	14.314	953.615	726.420
188.256	14.246	952.800	725.443
189.271	14.290	952.106	725.040
190.286	14.138	951.539	723.882
191.300	14.094	950.586	722.903
192.315	14.152	950.083	722.707
193.329	14.224	949.222	722.301
194.344	14.193	948.685	721.695
195.359	14.289	947.979	721.508
196.373	14.266	947.413	720.914
197.388	14.378	947.044	721.054
198.402	14.331	946.691	720.519
199.417	14.397	945.914	720.148
200.432	14.365	945.286	719.471
201.446	14.445	944.706	719.309
202.461	14.418	944.474	718.951
203.475	14.598	943.231	718.718
204.490	14.571	942.544	718.014
205.504	14.426	941.952	716.877
206.519	14.430	941.619	716.578
207.534	14.486	940.768	716.108
208.548	14.470	939.933	715.341
209.563	14.500	939.122	714.785
210.577	14.517	938.491	714.317
211.592	14.568	937.957	714.068
212.607	14.601	937.051	713.455
213.621	14.611	936.388	712.930
214.636	14.592	935.626	712.206
215.650	14.674	934.738	711.814
216.665	14.507	934.324	710.724
217.680	14.729	933.548	711.017
218.694	14.758	932.752	710.469
219.709	14.693	932.224	709.729
220.723	14.682	931.697	709.219
221.738	14.774	930.577	708.692
222.753	14.800	930.019	708.314
223.767	14.788	929.772	708.016
224.782	14.847	928.753	707.427
225.796	14.833	928.565	707.160
226.811	14.877	927.526	706.491
227.826	14.848	926.795	705.752
228.840	14.742	926.118	704.725
229.855	14.833	925.127	704.293
230.869	14.780	924.722	703.700
231.884	14.884	923.627	703.242
232.899	14.776	923.099	702.324
233.913	14.764	922.592	701.826
234.928	14.687	921.904	700.916
235.942	14.809	921.254	700.870
236.957	14.871	920.664	700.621
237.972	14.820	920.133	699.939
238.986	14.764	919.623	699.258
240.001	14.853	918.692	698.858
241.015	14.886	917.931	698.358
242.030	14.964	917.604	698.372
243.045	14.903	916.932	697.543
244.059	14.987	916.310	697.358
245.074	15.023	915.464	696.803
246.088	15.050	914.714	696.284
247.103	14.938	914.231	695.387
248.117	14.934	913.872	695.038
249.132	15.066	913.005	694.865
250.147	15.112	912.228	694.401
251.161	15.206	911.818	694.418
252.176	15.279	910.907	693.966
253.190	15.274	910.067	693.244
254.205	15.357	909.865	693.370
255.220	15.274	909.164	692.432
256.234	15.371	908.203	692.041
257.249	15.318	907.561	691.269
258.263	15.382	906.862	690.942
259.278	15.399	905.918	690.229
260.293	15.482	905.622	690.283
261.307	15.381	905.029	689.357
262.322	15.437	904.280	688.955
263.336	15.473	903.885	688.740
264.351	15.552	902.846	688.214
265.366	15.458	902.543	687.535
266.380	15.549	901.718	687.219
267.395	15.540	900.942	686.528
268.409	15.476	900.211	685.650
269.424	15.612	899.233	685.399
270.439	15.584	898.659	684.785
271.453	15.577	897.978	684.179
272.468	15.529	897.437	683.512
273.482	15.648	897.088	683.667
274.497	15.606	896.306	682.842
275.512	15.462	895.870	681.862
276.526	15.541	895.376	681.748
277.541	15.583	894.680	681.328
278.555	15.622	894.138	681.013
279.570	15.838	893.298	681.186
280.585	15.778	892.506	680.280
281.599	15.764	891.914	679.714
282.614	15.797	890.985	679.078
283.628	15.737	890.538	678.434
284.643	15.745	889.838	677.874
285.657	15.780	889.129	677.414
286.672	15.715	888.597	676.689
287.687	15.656	888.558	676.361
288.701	15.895	887.265	676.277
289.716	15.813	886.983	675.674
290.730	15.990	886.188	675.720
291.745	15.809	885.686	674.548
292.760	15.786	885.516	674.267
293.774	15.986	884.669	674.365
294.789	16.021	883.771	673.759
295.803	15.963	883.263	673.083
296.818	15.830	882.498	671.908
297.833	15.959	881.586	671.670
298.847	15.942	881.122	671.188
299.862	15.848	880.424	670.223
300.876	16.040	879.870	670.507
301.891	16.068	879.430	670.222
302.906	16.136	878.445	669.683
303.920	15.957	878.425	668.898
304.935	16.099	878.012	669.088
305.949	16.067	877.225	668.301
306.964	16.112	876.619	667.960
307.979	16.148	875.945	667.527
308.993	16.177	875.598	667.318
310.008	16.277	874.744	667.004
311.022	16.087	874.381	665.918
312.037	16.146	873.480	665.405
313.052	16.274	872.723	665.274
314.066	16.300	872.005	664.773
315.081	16.262	871.640	664.283
316.095	16.109	871.471	663.495
317.110	16.205	870.930	663.401
318.125	16.238	870.046	662.801
319.139	16.204	869.840	662.451
320.154	16.262	869.330	662.232
321.168	16.302	868.803	661.929
322.183	16.279	868.116	661.255
323.197	16.307	867.591	660.905
324.212	16.221	867.075	660.118
325.227	16.307	866.670	660.090
326.241	16.270	866.113	659.462
327.256	16.296	865.277	658.867
328.270	16.260	864.429	658.023
329.285	16.428	863.941	658.246
330.300	16.386	863.316	657.549
331.314	16.269	863.055	656.836
332.329	16.308	862.426	656.452
333.343	16.341	862.194	656.346
334.358	16.331	861.575	655.778
335.373	16.311	861.254	655.396
336.387	16.325	860.908	655.132
337.402	16.503	860.496	655.451
338.416	16.530	860.004	655.121
339.431	16.524	859.790	654.879
340.446	16.706	859.290	655.144
341.460	16.563	858.862	654.205
342.475	16.707	858.162	654.171
343.489	16.741	857.946	654.078
344.504	16.762	857.049	653.418
345.519	16.740	857.084	653.305
346.533	16.734	856.189	652.538
347.548	16.708	855.640	651.965
348.562	16.692	855.190	651.503
349.577	16.613	854.942	650.951
350.592	16.633	854.335	650.507
351.606	16.546	853.842	649.742
352.621	16.678	852.802	649.400
353.635	16.812	852.056	649.287
354.650	16.720	851.760	648.650
355.665	16.764	850.790	648.022
356.679	16.791	850.434	647.800
357.694	16.869	849.576	647.385
358.708	16.933	848.821	646.998
359.723	16.850	848.229	646.172
360.738	16.908	847.657	645.901
361.752	16.874	847.174	645.344
362.767	16.823	846.913	644.897
363.781	16.968	846.221	644.863
364.796	17.033	845.403	644.429
365.810	17.145	844.997	644.486
366.825	16.987	845.132	643.933
367.840	17.036	844.373	643.484
368.854	17.043	843.906	643.097
369.869	17.151	843.358	643.032
370.883	17.188	842.827	642.712
371.898	17.146	842.586	642.312
372.913	17.266	841.979	642.245
373.927	17.234	841.250	641.511
374.942	17.075	841.281	640.877
375.956	17.149	840.931	640.835
376.971	17.210	840.087	640.362
377.986	17.226	840.138	640.407
379.000	17.230	839.337	639.755
380.015	17.233	838.721	639.241
381.029	17.405	838.126	639.377
382.044	17.418	837.525	638.911
383.059	17.395	836.926	638.310
384.073	17.336	836.429	637.654
385.088	17.234	835.919	636.826
386.102	17.242	835.077	636.158
387.117	17.312	834.676	636.058
388.132	17.347	834.207	635.776
389.146	17.354	833.652	635.323
390.161	17.384	833.103	634.961
391.175	17.492	832.867	635.128
392.190	17.450	832.406	634.563
393.205	17.517	831.683	634.205
394.219	17.410	831.339	633.487
395.234	17.434	830.976	633.243
396.248	17.264	830.744	632.379
397.263	17.374	830.209	632.323
398.278	17.422	829.527	631.927
399.292	17.362	829.157	631.368
400.307	17.561	828.345	631.432
401.321	17.505	828.105	630.986
402.336	17.547	827.682	630.761
403.350	17.547	827.180	630.322
404.365	17.526	826.737	629.851
405.380	17.569	826.393	629.694
406.394	17.590	825.854	629.303
407.409	17.723	825.165	629.214
408.423	17.741	824.938	629.051
409.438	17.649	824.897	628.626
410.453	17.697	824.373	628.347
411.467	17.920	823.637	628.552
412.482	17.719	823.631	627.750
413.496	17.762	823.041	627.405
414.511	17.868	822.744	627.511
415.526	17.778	822.363	626.836
416.540	17.919	821.333	626.512
417.555	17.907	821.139	626.266
418.569	18.004	820.654	626.195
419.584	17.804	820.647	625.402
420.599	18.047	819.726	625.533
421.613	101.502	1282.160	1430.008
422.628	87.594	1349.559	1430.123
