DTS Sentinel unit serial number:	SN413079Multiplexer serial number:	ORYXHardware model number:	OX4-SRSoftware version number:	ORYX F/W v4.00 Oryx Data Collector v3.7.2.0data status	okinstallation	princeton_trtdifferential loss correction	single-endedforward channel	channel 1reverse channel	N/Adate	2019/09/11time	07:12:11forward acquisition time	60.00reverse acquisition time	0.00gamma	496.2192k internal	0.2328k external	0.2328temperature offset calibration	0.9917default loss term (dB/km)	0.3790temperature slope calibration	1.0000multiplexer offset coefficient	1.0000multiplexer slope coefficient	1.0000fibre end	0.00T internal ref (°C)	30.44T ext. ref 1 (°C)	-0.09T ext. ref 2 (°C)	26.59length (m)	temperature (°C)	Stokes	anti-Stokes-747.200	800.000	-0.054	-0.183
-746.185	91.112	-0.163	-0.184
-745.171	352.264	0.029	0.058
-744.156	481.071	-0.039	-0.090
-743.142	66.379	0.207	0.212
-742.127	-3.488	0.350	-0.246
-741.112	-118.462	0.237	-0.042
-740.098	-19.927	-0.307	-0.191
-739.083	-26.165	0.188	-0.112
-738.069	-66.961	-0.121	0.048
-737.054	-200.000	0.019	0.439
-736.039	-109.139	-0.259	-0.056
-735.025	-100.247	-0.065	0.016
-734.010	-81.873	0.203	-0.067
-732.996	-132.293	-0.304	0.040
-731.981	711.859	-0.045	0.120
-730.966	-119.414	0.441	0.077
-729.952	44.681	-0.259	-0.240
-728.937	-10.352	-0.166	-0.111
-727.923	1.174	0.237	0.171
-726.908	-165.895	0.034	0.001
-725.894	-200.000	0.015	-0.153
-724.879	-85.311	0.062	0.020
-723.864	-200.000	0.021	0.178
-722.850	444.118	-0.065	-0.142
-721.835	26.428	-0.167	-0.141
-720.821	-173.431	-0.279	-0.008
-719.806	28.110	0.228	-0.194
-718.791	622.771	-0.116	0.295
-717.777	-127.251	0.463	0.068
-716.762	59.718	0.128	0.127
-715.748	-34.723	0.185	0.102
-714.733	130.310	-0.064	0.083
-713.718	-79.496	0.235	-0.080
-712.704	-139.153	-0.487	0.053
-711.689	-24.499	-0.372	0.223
-710.675	-200.000	-0.068	0.322
-709.660	42.633	0.147	-0.134
-708.645	-95.081	-0.329	-0.089
-707.631	594.221	0.124	-0.308
-706.616	-77.879	-0.091	0.031
-705.602	800.000	0.097	0.296
-704.587	606.897	-0.124	-0.312
-703.572	-27.985	0.371	-0.216
-702.558	117.206	0.099	-0.123
-701.543	800.000	-0.020	-0.059
-700.529	-200.000	0.011	0.294
-699.514	-200.000	-0.007	0.212
-698.499	72.797	0.422	0.443
-697.485	747.491	-0.037	-0.101
-696.470	429.471	-0.074	-0.162
-695.456	22.119	-0.220	-0.180
-694.441	-55.595	0.136	0.061
-693.426	-159.193	-0.218	-0.012
-692.412	178.012	0.027	-0.040
-691.397	-26.822	-0.322	0.189
-690.383	-27.270	-0.069	-0.040
-689.368	-23.695	-0.121	-0.073
-688.354	-147.505	-0.158	-0.013
-687.339	-125.509	0.500	-0.077
-686.324	-59.388	0.393	0.170
-685.310	63.228	0.020	-0.020
-684.295	-29.908	0.058	-0.033
-683.281	-200.000	-0.018	0.271
-682.266	25.984	0.219	0.183
-681.251	-140.195	0.044	0.005
-680.237	199.866	-0.155	0.240
-679.222	-200.000	-0.071	0.342
-678.208	-99.906	0.151	-0.038
-677.193	-104.825	0.138	-0.032
-676.178	-89.740	-0.101	-0.030
-675.164	412.194	0.099	-0.212
-674.149	-200.000	0.018	-0.090
-673.135	-5.615	0.353	-0.243
-672.120	-148.552	-0.322	-0.026
-671.105	-200.000	0.005	-0.335
-670.091	-98.636	-0.279	0.071
-669.076	11.427	0.205	0.157
-668.062	-200.000	0.016	-0.126
-667.047	-200.000	0.023	0.246
-666.032	-200.000	0.012	0.067
-665.018	199.686	0.076	0.117
-664.003	699.518	-0.031	0.082
-662.989	191.972	0.052	0.079
-661.974	-47.573	0.052	-0.025
-660.959	-200.000	0.007	0.115
-659.945	98.201	-0.118	-0.137
-658.930	800.000	-0.019	0.056
-657.916	-200.000	-0.060	-0.298
-656.901	-106.603	0.238	0.053
-655.886	134.006	0.186	0.242
-654.872	-35.398	-0.133	0.073
-653.857	126.440	-0.158	0.201
-652.843	-200.000	-0.024	0.318
-651.828	-200.000	-0.004	-0.033
-650.814	45.606	-0.074	-0.068
-649.799	-200.000	-0.024	-0.250
-648.784	9.792	-0.220	0.167
-647.770	57.527	0.154	0.151
-646.755	138.196	-0.239	-0.315
-645.741	215.901	0.062	-0.099
-644.726	763.124	0.157	-0.427
-643.711	118.111	0.169	-0.209
-642.697	57.613	0.141	0.138
-641.682	-40.301	-0.236	-0.123
-640.668	-200.000	0.034	-0.236
-639.653	237.362	0.118	-0.196
-638.638	-169.582	0.248	0.009
-637.624	422.023	0.079	0.170
-636.609	-146.324	-0.174	0.015
-635.595	-200.000	-0.002	-0.443
-634.580	-153.954	-0.063	-0.004
-633.565	-94.441	0.114	-0.031
-632.551	432.787	0.098	0.214
-631.536	496.224	0.030	0.070
-630.522	110.236	0.170	0.205
-629.507	212.929	0.041	0.064
-628.492	153.265	-0.212	-0.292
-627.478	-150.822	0.320	-0.024
-626.463	-37.242	-0.245	-0.132
-625.449	-200.000	0.033	-0.181
-624.434	513.108	0.079	-0.184
-623.419	-133.360	-0.313	0.040
-622.405	649.046	0.082	-0.210
-621.390	612.837	0.049	-0.123
-620.376	3.454	-0.357	0.261
-619.361	658.325	-0.056	-0.145
-618.346	369.071	-0.201	0.408
-617.332	0.222	-0.228	-0.163
-616.317	54.422	0.252	-0.243
-615.303	5.264	-0.243	-0.180
-614.288	478.635	0.074	0.167
-613.273	1.523	-0.170	-0.123
-612.259	-68.970	0.405	-0.156
-611.244	28.709	0.183	-0.156
-610.230	-97.658	0.193	-0.050
-609.215	-200.000	0.008	0.291
-608.201	800.000	-0.038	0.129
-607.186	-128.195	-0.407	-0.058
-606.171	447.779	0.076	0.168
-605.157	250.080	-0.071	-0.120
-604.142	800.000	0.030	0.129
-603.128	-68.584	0.141	0.055
-602.113	-91.927	-0.214	0.061
-601.098	7.928	-0.058	0.043
-600.084	-113.236	0.494	-0.097
-599.069	-45.606	-0.218	-0.108
-598.055	-100.722	-0.183	0.045
-597.040	-200.000	-0.029	-0.249
-596.025	237.286	-0.207	0.344
-595.011	800.000	-0.125	0.539
-593.996	-63.322	0.165	-0.068
-592.982	-112.974	0.196	-0.039
-591.967	-200.000	0.033	0.258
-590.952	69.526	-0.240	-0.248
-589.938	63.735	-0.049	0.049
-588.923	-181.348	0.308	0.006
-587.909	23.366	0.041	-0.034
-586.894	800.000	0.033	0.117
-585.879	-164.778	-0.231	-0.010
-584.865	35.732	0.259	0.228
-583.850	-145.608	0.139	0.012
-582.836	228.872	-0.255	0.416
-581.821	-66.676	-0.304	0.121
-580.806	581.677	0.156	-0.384
-579.792	423.412	-0.053	0.114
-578.777	514.865	-0.084	0.195
-577.763	-90.572	0.115	0.033
-576.748	14.158	0.080	0.063
-575.733	17.929	0.092	-0.074
-574.719	-71.161	0.274	0.103
-573.704	14.629	-0.071	-0.055
-572.690	111.846	-0.083	-0.101
-571.675	-200.000	-0.027	-0.140
-570.661	352.213	0.039	-0.078
-569.646	-200.000	0.055	-0.298
-568.631	-48.666	0.257	-0.124
-567.617	-190.419	-0.123	0.001
-566.602	591.835	0.082	-0.202
-565.588	352.197	-0.130	0.258
-564.573	103.658	-0.283	-0.332
-563.558	-80.978	0.132	-0.044
-562.544	-68.840	-0.361	-0.140
-561.529	85.532	-0.260	-0.285
-560.515	22.534	-0.262	-0.214
-559.500	201.151	-0.249	0.383
-558.485	99.279	-0.141	-0.163
-557.471	59.150	0.038	0.038
-556.456	374.565	0.094	0.191
-555.442	-200.000	0.008	0.070
-554.427	12.923	-0.106	0.082
-553.412	74.429	0.052	0.055
-552.398	62.560	0.167	-0.167
-551.383	350.522	0.039	-0.078
-550.369	52.131	0.075	0.072
-549.354	562.655	0.077	-0.186
-548.339	391.359	0.087	-0.180
-547.325	-200.000	-0.044	0.272
-546.310	-200.000	-0.011	0.273
-545.296	369.804	-0.066	-0.133
-544.281	-122.062	0.344	-0.056
-543.266	398.635	-0.048	-0.100
-542.252	6.723	-0.238	-0.177
-541.237	193.686	-0.051	-0.077
-540.223	-105.932	0.237	0.053
-539.208	58.897	-0.189	-0.186
-538.193	-57.645	0.304	-0.133
-537.179	508.621	0.033	0.076
-536.164	-200.000	0.011	-0.122
-535.150	-146.020	0.449	-0.040
-534.135	-6.415	-0.106	-0.073
-533.121	-200.000	0.015	0.122
-532.106	-66.767	0.072	0.028
-531.091	-171.237	0.133	0.004
-530.077	-137.975	-0.257	0.029
-529.062	-200.000	-0.044	-0.194
-528.048	-200.000	0.007	0.100
-527.033	-146.347	0.292	0.026
-526.018	800.000	-0.074	-0.207
-525.004	25.088	0.240	-0.199
-523.989	12.057	0.333	-0.256
-522.975	-200.000	-0.027	0.240
-521.960	800.000	-0.044	-0.194
-520.945	155.459	0.024	0.033
-519.931	156.142	-0.084	0.115
-518.916	-86.341	0.023	-0.007
-517.902	49.922	-0.119	0.112
-516.887	-122.391	0.210	-0.034
-515.872	-200.000	0.058	0.314
-514.858	-200.000	0.008	0.067
-513.843	-200.000	-0.002	0.296
-512.829	15.325	0.398	-0.312
-511.814	-200.000	0.024	0.182
-510.799	-97.562	0.073	-0.019
-509.785	1.829	0.132	0.095
-508.770	161.029	0.077	0.108
-507.756	-106.342	0.085	0.019
-506.741	87.753	0.064	-0.071
-505.726	172.665	0.142	-0.204
-504.712	-200.000	0.020	-0.187
-503.697	-200.000	-0.022	0.298
-502.683	-200.000	0.036	-0.219
-501.668	-30.206	-0.245	0.139
-500.653	800.000	0.044	-0.170
-499.639	104.787	0.153	-0.180
-498.624	123.386	0.172	-0.215
-497.610	-76.482	-0.039	0.014
-496.595	-56.840	0.225	-0.099
-495.581	-200.000	-0.053	0.310
-494.566	17.556	-0.275	0.218
-493.551	-200.000	0.017	-0.160
-492.537	-151.574	0.380	-0.028
-491.522	-15.674	-0.260	0.166
-490.508	-81.414	-0.042	0.014
-489.493	49.845	-0.106	0.100
-488.478	220.468	0.063	0.100
-487.464	800.000	-0.006	0.026
-486.449	-127.401	-0.309	-0.045
-485.435	-43.683	-0.158	-0.079
-484.420	-31.534	-0.183	-0.103
-483.405	100.119	-0.223	-0.258
-482.391	117.826	-0.169	0.208
-481.376	-48.822	-0.093	-0.045
-480.362	-200.000	-0.028	0.173
-479.347	-64.888	-0.385	0.155
-478.332	581.545	0.136	0.333
-477.318	-52.185	0.316	-0.146
-476.303	800.000	-0.143	0.491
-475.289	45.759	-0.204	0.188
-474.274	-123.074	-0.053	0.008
-473.259	491.701	-0.075	0.172
-472.245	-10.863	-0.211	0.139
-471.230	-79.176	-0.235	0.079
-470.216	148.267	0.114	-0.153
-469.201	-18.362	-0.115	0.072
-468.186	-34.527	0.267	0.146
-467.172	-81.039	-0.161	-0.053
-466.157	800.000	0.002	-0.010
-465.143	-200.000	0.054	-0.328
-464.128	-141.842	-0.066	0.007
-463.113	246.306	-0.190	-0.320
-462.099	-98.015	-0.163	0.042
-461.084	-64.575	0.425	0.172
-460.070	398.404	0.190	-0.395
-459.055	-51.951	0.208	0.096
-458.040	98.300	-0.054	0.062
-457.026	46.810	0.214	0.198
-456.011	-200.000	-0.005	-0.132
-454.997	299.961	-0.069	-0.126
-453.982	-79.266	-0.160	0.054
-452.968	-4.571	-0.375	-0.258
-451.953	-200.000	0.017	-0.426
-450.938	-200.000	0.016	0.250
-449.924	-200.000	0.010	-0.089
-448.909	-126.646	-0.219	-0.032
-447.895	-16.098	0.123	0.078
-446.880	-140.240	-0.397	0.041
-445.865	-200.000	-0.003	-0.029
-444.851	391.766	-0.130	0.270
-443.836	-81.006	0.280	0.092
-442.822	110.595	0.126	-0.151
-441.807	215.487	0.183	-0.289
-440.792	800.000	-0.129	-0.375
-439.778	-36.642	-0.154	-0.082
-438.763	-98.242	-0.102	0.026
-437.749	169.543	-0.157	0.224
-436.734	-53.874	-0.161	-0.073
-435.719	-59.994	0.128	-0.055
-434.705	-200.000	-0.024	0.194
-433.690	-200.000	-0.020	0.167
-432.676	-59.074	-0.108	0.046
-431.661	-113.831	0.391	-0.076
-430.646	267.474	-0.114	-0.199
-429.632	-73.773	0.245	0.089
-428.617	-104.371	-0.225	-0.052
-427.603	-5.436	0.015	0.010
-426.588	-107.955	-0.269	0.058
-425.573	-53.977	0.146	0.066
-424.559	-55.536	0.167	0.075
-423.544	703.979	0.043	0.112
-422.530	-186.027	-0.204	-0.003
-421.515	135.489	-0.102	0.132
-420.500	800.000	-0.100	-0.421
-419.486	-200.000	-0.025	-0.187
-418.471	171.058	0.041	0.058
-417.457	170.728	-0.184	0.262
-416.442	63.756	0.148	-0.148
-415.428	-152.812	-0.181	-0.013
-414.413	595.208	0.123	0.302
-413.398	-200.000	0.018	0.167
-412.384	-200.000	0.032	0.355
-411.369	130.939	0.102	0.130
-410.355	-47.170	0.210	0.102
-409.340	-184.351	-0.401	0.007
-408.325	393.622	0.062	0.129
-407.311	-81.031	-0.373	0.123
-406.296	283.278	0.066	0.119
-405.282	-188.000	0.058	-0.001
-404.267	32.716	-0.113	-0.097
-403.252	-153.510	-0.287	-0.020
-402.238	1.254	0.271	-0.194
-401.223	-200.000	0.003	0.194
-400.209	231.307	0.118	0.192
-399.194	-64.427	0.150	-0.060
-398.179	59.046	0.038	-0.037
-397.165	618.698	-0.049	-0.123
-396.150	601.670	-0.123	-0.305
-395.136	75.551	0.201	0.211
-394.121	-58.374	0.073	0.032
-393.106	800.000	0.019	0.059
-392.092	-127.578	0.120	-0.017
-391.077	-18.494	-0.109	-0.068
-390.063	387.950	-0.162	0.332
-389.048	49.034	0.125	-0.116
-388.033	-108.029	0.326	-0.070
-387.019	7.235	-0.162	-0.120
-386.004	-73.282	-0.318	-0.115
-384.990	800.000	-0.044	-0.123
-383.975	-200.000	0.006	0.226
-382.960	143.234	0.275	0.364
-381.946	-0.588	0.154	-0.108
-380.931	-3.025	-0.323	0.224
-379.917	-107.322	0.283	0.062
-378.902	79.638	-0.105	0.112
-377.888	-62.908	-0.189	0.078
-376.873	-69.942	0.093	0.035
-375.858	-109.208	-0.335	0.071
-374.844	-200.000	-0.058	-0.426
-373.829	-57.214	-0.121	-0.053
-372.815	-98.793	-0.219	-0.055
-371.800	-200.000	0.028	-0.159
-370.785	-20.554	0.050	0.030
-369.771	-99.398	0.308	-0.077
-368.756	-133.456	0.247	0.031
-367.742	-64.231	-0.169	0.068
-366.727	624.698	0.071	0.179
-365.712	-51.669	0.197	-0.091
-364.698	-6.832	0.197	0.133
-363.683	800.000	-0.042	0.130
-362.669	-86.067	-0.102	-0.031
-361.654	-134.610	-0.302	-0.037
-360.639	-200.000	-0.019	0.115
-359.625	570.618	-0.080	-0.193
-358.610	800.000	0.091	-0.327
-357.596	82.548	0.094	-0.102
-356.581	-6.458	-0.327	0.221
-355.566	-200.000	-0.015	0.255
-354.552	800.000	0.093	0.278
-353.537	-108.469	0.346	-0.074
-352.523	-31.901	0.101	0.056
-351.508	-122.005	-0.324	-0.053
-350.493	8.175	-0.114	-0.085
-349.479	-117.280	0.108	0.019
-348.464	21.892	-0.113	-0.091
-347.450	473.016	0.068	-0.152
-346.435	-48.698	-0.095	0.045
-345.420	-36.999	0.342	-0.182
-344.406	531.782	-0.018	0.043
-343.391	714.152	0.088	0.231
-342.377	124.765	-0.134	-0.168
-341.362	-92.330	0.365	0.102
-340.348	522.578	0.011	0.026
-339.333	19.044	-0.228	0.181
-338.318	30.934	0.072	-0.061
-337.304	-103.247	0.370	-0.087
-336.289	-57.000	0.254	-0.111
-335.275	62.413	-0.097	0.096
-334.260	800.000	-0.102	0.306
-333.245	-200.000	-0.058	-0.400
-332.231	191.141	0.176	0.263
-331.216	-200.000	-0.047	-0.337
-330.202	132.232	0.093	-0.118
-329.187	-134.605	0.118	-0.014
-328.172	-200.000	0.014	0.085
-327.158	-50.786	0.092	-0.043
-326.143	304.870	-0.183	0.337
-325.129	800.000	0.022	0.064
-324.114	-123.495	0.292	0.046
-323.099	-88.180	-0.149	0.044
-322.085	-38.544	0.218	0.114
-321.070	-155.761	-0.441	0.028
-320.056	-115.479	-0.115	0.022
-319.041	-114.575	-0.343	-0.065
-318.026	-200.000	-0.007	0.200
-317.012	-74.819	0.365	0.130
-315.997	-110.915	0.324	0.066
-314.983	-200.000	-0.036	0.297
-313.968	0.847	-0.224	-0.159
-312.953	335.401	0.198	0.380
-311.939	-39.889	-0.228	0.118
-310.924	51.894	-0.246	0.232
-309.910	800.000	-0.064	-0.206
-308.895	-200.000	0.032	0.396
-307.880	-95.884	-0.405	0.107
-306.866	436.195	-0.049	-0.106
-305.851	188.123	-0.090	0.133
-304.837	28.683	0.260	0.218
-303.822	-161.661	0.153	-0.008
-302.807	800.000	-0.140	0.538
-301.793	606.662	-0.050	0.124
-300.778	-34.164	-0.333	0.181
-299.764	-145.571	-0.244	-0.022
-298.749	-72.331	0.139	-0.051
-297.735	-200.000	0.034	0.431
-296.720	-58.486	-0.121	-0.052
-295.705	-200.000	-0.005	-0.155
-294.691	800.000	-0.086	-0.310
-293.676	48.380	-0.134	0.124
-292.662	496.165	0.132	-0.300
-291.647	-76.083	0.233	-0.082
-290.632	143.184	0.072	-0.095
-289.618	800.000	0.028	-0.098
-288.603	800.000	0.031	-0.127
-287.589	506.209	0.101	0.233
-286.574	179.123	0.162	0.235
-285.559	-200.000	0.039	-0.266
-284.545	-124.310	-0.309	0.048
-283.530	800.000	-0.009	0.037
-282.516	-96.066	0.167	0.044
-281.501	354.399	-0.172	-0.339
-280.486	-112.988	0.213	0.042
-279.472	77.916	0.152	-0.160
-278.457	-133.742	-0.123	0.015
-277.443	-59.220	-0.118	-0.050
-276.428	-164.784	0.064	-0.003
-275.413	-126.019	0.241	-0.036
-274.399	800.000	-0.065	-0.180
-273.384	-9.321	-0.068	0.045
-272.370	16.373	-0.113	-0.088
-271.355	130.866	-0.286	-0.363
-270.340	-21.095	0.276	-0.167
-269.326	-121.334	0.230	-0.038
-268.311	145.739	-0.099	-0.132
-267.297	338.924	0.085	0.163
-266.282	-80.356	0.151	0.050
-265.267	-91.398	0.227	-0.064
-264.253	-127.998	0.259	-0.037
-263.238	-24.284	-0.219	0.129
-262.224	-196.244	0.089	-0.001
-261.209	16.808	-0.306	-0.239
-260.195	-108.641	-0.196	0.042
-259.180	32.893	-0.225	-0.193
-258.165	75.442	0.202	0.211
-257.151	-200.000	-0.032	-0.220
-256.136	-51.429	0.104	0.048
-255.122	-200.000	0.014	-0.246
-254.107	-200.000	-0.047	0.333
-253.092	-86.480	-0.192	0.058
-252.078	-50.920	0.227	0.105
-251.063	-200.000	-0.037	-0.414
-250.049	-43.291	0.453	0.227
-249.034	-16.916	0.313	0.195
-248.019	-200.000	0.022	0.216
-247.005	-71.116	0.138	0.051
-245.990	-171.094	0.328	0.011
-244.976	-200.000	-0.028	-0.172
-243.961	318.289	-0.070	0.130
-242.946	-192.822	0.331	-0.003
-241.932	-200.000	-0.006	-0.366
-240.917	767.506	0.034	-0.092
-239.903	-52.780	-0.239	0.109
-238.888	248.166	0.059	-0.099
-237.873	126.138	-0.249	-0.311
-236.859	-41.573	0.276	-0.140
-235.844	485.529	-0.061	0.138
-234.830	229.268	-0.149	0.241
-233.815	-200.000	-0.022	0.264
-232.800	800.000	-0.092	-0.369
-231.786	-200.000	-0.306	0.001
-230.771	-114.825	-0.304	-0.057
-229.757	-122.524	0.145	0.023
-228.742	116.827	0.074	-0.089
-227.727	-86.999	0.152	-0.046
-226.713	142.081	-0.142	0.186
-225.698	-200.000	-0.018	0.196
-224.684	800.000	-0.090	-0.304
-223.669	674.461	0.105	-0.269
-222.655	-200.000	0.055	0.452
-221.640	-101.735	0.122	-0.029
-220.625	94.733	-0.166	0.186
-219.611	-200.000	0.018	0.123
-218.596	-87.637	-0.132	0.039
-217.582	-78.210	-0.391	0.133
-216.567	304.942	0.079	0.145
-215.552	57.566	0.124	-0.120
-214.538	106.820	0.147	-0.172
-213.523	-111.274	0.123	0.025
-212.509	800.000	-0.079	0.254
-211.494	-30.423	0.306	0.171
-210.479	31.419	0.218	0.185
-209.465	124.016	-0.222	-0.275
-208.450	19.975	0.052	0.042
-207.436	-200.000	0.015	-0.130
-206.421	800.000	-0.124	-0.340
-205.406	103.740	-0.449	0.520
-204.392	-145.578	0.308	0.027
-203.377	-97.976	0.211	0.054
-202.363	-50.409	0.137	-0.064
-201.348	54.920	0.452	0.431
-200.333	-200.000	-0.011	0.053
-199.319	187.568	0.210	-0.309
-198.304	47.558	-0.126	0.116
-197.290	290.318	-0.030	-0.054
-196.275	800.000	-0.011	0.045
-195.260	120.196	-0.271	0.331
-194.246	345.951	-0.053	0.103
-193.231	536.374	0.080	-0.186
-192.217	-200.000	-0.003	0.237
-191.202	84.892	-0.243	0.262
-190.187	350.858	-0.069	0.135
-189.173	800.000	-0.015	0.055
-188.158	209.318	0.212	-0.327
-187.144	151.868	-0.107	-0.144
-186.129	-128.707	0.143	0.020
-185.114	800.000	-0.020	0.062
-184.100	-134.097	-0.342	0.042
-183.085	201.225	0.089	-0.135
-182.071	-161.050	-0.196	-0.010
-181.056	-200.000	0.007	0.119
-180.042	217.838	0.055	-0.086
-179.027	790.176	0.088	0.239
-178.012	561.779	0.100	0.238
-176.998	-65.539	-0.305	-0.121
-175.983	232.500	0.036	-0.058
-174.969	-73.510	0.249	0.090
-173.954	800.000	-0.089	-0.249
-172.939	266.812	0.086	-0.148
-171.925	-200.000	0.052	-0.360
-170.910	411.106	0.127	0.266
-169.896	800.000	-0.063	0.229
-168.881	521.483	-0.079	-0.183
-167.866	298.626	-0.120	-0.218
-166.852	312.471	0.250	-0.462
-165.837	-87.364	-0.196	-0.058
-164.823	-191.019	-0.274	0.003
-163.808	501.374	-0.052	-0.118
-162.793	129.275	0.137	0.172
-161.779	-149.019	0.187	0.015
-160.764	81.290	0.267	-0.284
-159.750	68.242	0.103	0.104
-158.735	27.389	0.090	0.075
-157.720	-200.000	-0.009	-0.183
-156.706	127.880	-0.119	-0.149
-155.691	-102.431	-0.325	0.077
-154.677	-51.672	0.272	-0.125
-153.662	-34.222	-0.186	-0.101
-152.647	329.289	-0.098	-0.185
-151.633	-200.000	-0.051	-0.239
-150.618	140.991	-0.177	0.230
-149.604	46.842	-0.159	-0.145
-148.589	-200.000	0.018	0.085
-147.574	-56.090	-0.111	0.049
-146.560	-200.000	0.036	-0.197
-145.545	271.556	0.127	0.221
-144.531	-200.000	-0.062	0.363
-143.516	69.025	0.092	-0.093
-142.502	-164.707	-0.083	0.004
-141.487	-124.809	-0.051	0.008
-140.472	355.166	0.023	0.045
-139.458	-137.238	-0.138	-0.015
-138.443	-200.000	0.026	0.148
-137.429	228.342	-0.082	-0.132
-136.414	-121.212	0.200	-0.033
-135.399	-75.262	-0.308	0.108
-134.385	57.850	-0.268	-0.258
-133.370	64.766	-0.122	-0.121
-132.356	-138.316	0.530	0.058
-131.341	-200.000	0.031	0.157
-130.326	-158.334	0.291	-0.017
-129.312	186.805	0.066	0.097
-128.297	800.000	-0.059	0.166
-127.283	-200.000	0.010	0.251
-126.268	233.013	0.056	0.090
-125.253	531.795	-0.080	0.185
-124.239	252.702	-0.080	-0.135
-123.224	780.225	-0.065	0.174
-122.210	-91.411	-0.146	0.041
-121.195	-35.497	-0.177	0.094
-120.180	91.623	-0.152	0.168
-119.166	-26.233	0.067	-0.039
-118.151	-200.000	0.004	-0.179
-117.137	42.752	0.033	-0.029
-116.122	-53.931	0.187	0.084
-115.107	800.000	0.034	-0.105
-114.093	197.371	0.285	0.427
-113.078	35.719	-0.237	0.205
-112.064	800.000	-0.088	0.270
-111.049	12.633	0.264	-0.200
-110.034	406.785	-0.107	0.221
-109.020	-87.343	0.091	-0.027
-108.005	-200.000	-0.024	0.274
-106.991	800.000	-0.041	-0.152
-105.976	272.144	-0.081	-0.140
-104.962	-105.905	0.430	0.095
-103.947	-140.012	0.486	-0.050
-102.932	115.698	0.220	0.265
-101.918	800.000	0.048	0.177
-100.903	144.777	0.177	0.233
-99.889	800.000	0.069	-0.250
-98.874	149.352	0.030	0.040
-97.859	105.272	-0.280	-0.325
-96.845	-45.368	0.381	-0.186
-95.830	-64.203	-0.355	0.142
-94.816	-200.000	0.078	-0.491
-93.801	-91.561	0.207	0.058
-92.786	800.000	0.031	0.111
-91.772	-40.747	-0.252	-0.128
-90.757	207.795	0.309	-0.473
-89.743	44.610	0.217	0.196
-88.728	-46.619	-0.275	0.132
-87.713	-137.023	-0.092	0.010
-86.699	-190.830	-0.358	0.004
-85.684	800.000	-0.042	0.167
-84.670	-122.452	-0.109	-0.017
-83.655	0.539	-0.127	0.089
-82.640	393.188	-0.110	0.226
-81.626	-200.000	0.043	-0.269
-80.611	-159.114	-0.217	-0.012
-79.597	110.946	0.106	0.126
-78.582	-32.365	-0.017	-0.009
-77.567	7.758	-0.292	0.215
-76.553	-200.000	0.019	0.260
-75.538	78.946	0.161	0.170
-74.524	-200.000	-0.038	0.203
-73.509	-200.000	-0.004	0.122
-72.494	-200.000	-0.039	0.202
-71.480	-40.639	-0.199	-0.101
-70.465	42.432	0.166	0.148
-69.451	640.561	-0.092	0.231
-68.436	-20.379	0.205	0.124
-67.422	-70.051	-0.132	0.049
-66.407	416.589	0.152	0.318
-65.392	166.814	0.076	-0.105
-64.378	-155.227	-0.121	0.008
-63.363	-200.000	0.066	0.303
-62.349	-200.000	-0.012	0.299
-61.334	21.557	-1.312	-1.047
-60.319	335.432	0.230	0.438
-59.305	800.000	-0.240	-0.768
-58.290	480.967	0.460	1.025
-57.276	800.000	0.420	1.305
-56.261	-200.000	98.925	602.714
-55.246	567.113	1431.550	3408.446
-54.232	186.288	2633.196	3842.613
-53.217	115.927	2160.557	2593.385
-52.203	42.916	1603.091	1433.156
-51.188	34.003	1337.732	1142.621
-50.173	30.838	1296.063	1088.518
-49.159	53.872	1345.973	1268.126
-48.144	54.983	1362.010	1289.795
-47.130	34.099	1319.245	1127.217
-46.115	30.622	1301.879	1091.963
-45.100	30.391	1297.246	1086.685
-44.086	30.215	1295.096	1083.811
-43.071	30.332	1292.194	1082.022
-42.057	30.239	1290.269	1079.822
-41.042	30.343	1288.750	1079.117
-40.027	30.304	1287.312	1077.641
-39.013	30.282	1285.403	1075.876
-37.998	30.476	1283.289	1075.182
-36.984	30.300	1282.112	1073.135
-35.969	30.469	1279.631	1071.996
-34.954	30.457	1278.235	1070.714
-33.940	30.472	1277.097	1069.805
-32.925	30.535	1275.692	1068.946
-31.911	30.431	1274.508	1067.312
-30.896	30.443	1273.568	1066.555
-29.881	30.531	1271.537	1065.316
-28.867	30.652	1270.328	1064.950
-27.852	30.553	1268.974	1063.210
-26.838	30.615	1267.609	1062.376
-25.823	30.590	1266.504	1061.264
-24.809	30.521	1265.060	1059.622
-23.794	30.567	1263.690	1058.692
-22.779	30.511	1261.999	1056.916
-21.765	30.554	1260.813	1056.123
-20.750	30.505	1259.488	1054.695
-19.736	30.435	1258.021	1053.028
-18.721	30.436	1256.891	1052.044
-17.706	30.399	1255.618	1050.730
-16.692	30.360	1254.761	1049.748
-15.677	30.363	1253.475	1048.651
-14.663	30.433	1252.474	1048.168
-13.648	30.354	1251.533	1046.891
-12.633	30.358	1250.472	1045.985
-11.619	30.302	1250.059	1045.282
-10.604	30.367	1249.034	1044.749
-9.590	30.308	1248.078	1043.578
-8.575	30.361	1246.929	1042.871
-7.560	30.391	1246.050	1042.266
-6.546	30.387	1244.747	1041.113
-5.531	30.376	1243.689	1040.124
-4.517	30.313	1243.168	1039.292
-3.502	30.338	1242.413	1038.761
-2.487	30.437	1241.415	1038.436
-1.473	30.404	1237.719	1035.123
-0.458	29.289	1223.266	1016.847
0.556	23.873	1206.623	983.086
1.571	20.622	1213.224	970.274
2.586	19.989	1227.704	978.193
3.600	19.681	1216.412	967.384
4.615	14.502	1145.651	883.652
5.629	5.136	1069.389	778.240
6.644	0.336	1048.839	739.701
7.659	-0.206	1045.939	734.938
8.673	-0.207	1044.474	733.838
9.688	-0.282	1043.039	732.399
10.702	0.286	1041.990	734.367
11.717	6.585	1050.870	771.450
12.731	15.562	1063.853	825.193
13.746	19.943	1068.705	850.453
14.761	20.789	1069.690	855.316
15.775	20.790	1069.787	855.326
16.790	20.644	1068.774	853.721
17.804	20.580	1067.784	852.544
18.819	20.775	1067.927	853.540
19.834	20.715	1067.306	852.673
20.848	20.849	1066.991	853.001
21.863	20.741	1066.448	851.963
22.877	20.814	1065.509	851.496
23.892	20.742	1064.789	850.491
24.907	20.769	1064.360	850.205
25.921	20.806	1062.935	849.170
26.936	20.749	1061.999	848.072
27.950	20.741	1059.750	846.160
28.965	20.656	1057.979	844.261
29.980	20.690	1056.566	843.225
30.994	20.854	1056.116	843.584
32.009	20.928	1054.108	842.263
33.023	20.726	1053.142	840.442
34.038	20.708	1052.544	839.804
35.053	20.853	1052.039	840.023
36.067	20.913	1050.869	839.305
37.082	20.883	1050.483	838.777
38.096	21.162	1049.520	839.277
39.111	21.051	1048.800	838.095
40.126	20.886	1047.755	836.392
41.140	20.572	1045.366	832.907
42.155	20.440	1044.170	831.247
43.169	20.493	1042.980	830.482
44.184	20.667	1041.814	830.309
45.199	20.433	1040.785	828.301
46.213	20.476	1040.056	827.854
47.228	20.562	1039.357	827.630
48.242	20.607	1038.739	827.280
49.257	20.797	1037.622	827.222
50.271	20.939	1036.990	827.318
51.286	20.879	1036.114	826.261
52.301	20.874	1035.457	825.641
53.315	20.762	1034.503	824.278
54.330	20.757	1033.532	823.406
55.344	20.750	1032.832	822.741
56.359	20.949	1031.310	822.395
57.374	20.695	1030.516	820.492
58.388	20.631	1029.794	819.542
59.403	20.563	1028.760	818.328
60.417	20.579	1027.676	817.469
61.432	20.482	1027.267	816.616
62.447	20.674	1026.557	816.881
63.461	20.768	1026.074	816.867
64.476	20.556	1025.051	814.984
65.490	20.524	1023.788	813.758
66.505	20.674	1022.825	813.623
67.520	20.657	1022.520	813.227
68.534	20.435	1021.530	811.331
69.549	20.128	1020.503	809.012
70.563	20.211	1019.414	808.463
71.578	20.316	1018.698	808.315
72.593	20.050	1017.695	806.207
73.607	20.211	1017.620	806.828
74.622	20.432	1016.845	807.170
75.636	20.519	1016.189	806.981
76.651	20.446	1014.923	805.564
77.666	20.212	1014.708	804.240
78.680	20.403	1013.567	804.148
79.695	20.410	1013.437	804.007
80.709	20.516	1012.617	803.772
81.724	20.365	1012.155	802.636
82.739	20.576	1010.785	802.454
83.753	20.906	1010.085	803.348
84.768	21.125	1009.512	803.833
85.782	21.123	1009.058	803.389
86.797	20.939	1007.909	801.558
87.812	20.998	1006.370	800.535
88.826	20.984	1005.699	799.867
89.841	21.111	1004.677	799.564
90.855	21.171	1003.810	799.078
91.870	21.083	1002.813	797.810
92.884	20.858	1001.964	796.036
93.899	20.826	1000.743	794.850
94.914	21.072	999.895	795.229
95.928	20.851	998.987	793.429
96.943	20.689	997.605	791.525
97.957	20.608	996.244	790.006
98.972	20.341	994.921	787.676
99.987	20.587	994.912	788.713
101.001	20.794	994.216	789.032
102.016	20.769	993.272	788.099
103.030	20.623	992.492	786.749
104.045	20.545	991.428	785.487
105.060	20.383	990.296	783.787
106.074	20.622	989.812	784.413
107.089	20.908	989.444	785.340
108.103	20.779	988.202	783.706
109.118	20.719	986.598	782.096
110.133	20.703	986.030	781.504
111.147	20.439	984.828	779.298
112.162	20.298	983.701	777.704
113.176	20.544	983.490	778.570
114.191	20.398	982.258	776.872
115.206	20.152	981.282	774.933
116.220	20.240	980.743	774.831
117.235	20.362	979.581	774.391
118.249	20.228	979.129	773.366
119.264	20.212	977.674	772.076
120.279	20.219	977.151	771.628
121.293	20.466	976.128	771.848
122.308	20.553	975.114	771.363
123.322	20.428	973.838	769.735
124.337	20.132	972.894	767.610
125.352	19.711	970.830	764.052
126.366	19.706	970.144	763.422
127.381	20.415	970.072	766.428
128.395	20.712	969.968	767.590
129.410	20.902	969.096	767.668
130.424	20.834	967.953	766.397
131.439	20.906	966.794	765.725
132.454	20.845	965.928	764.706
133.468	20.773	964.971	763.562
134.483	20.824	964.486	763.336
135.497	21.073	963.681	763.723
136.512	21.064	963.094	763.148
137.527	21.183	961.750	762.536
138.541	21.087	961.304	761.695
139.556	21.018	960.528	760.715
140.570	21.112	959.766	760.452
141.585	21.189	958.639	759.826
142.600	20.952	957.568	757.878
143.614	21.211	957.191	758.639
144.629	21.359	956.234	758.458
145.643	21.163	955.015	756.573
146.658	21.016	953.613	754.760
147.673	20.971	952.269	753.436
148.687	20.832	951.696	752.313
149.702	20.872	950.449	751.433
150.716	20.857	949.651	750.671
151.731	20.991	948.972	750.646
152.746	21.113	948.989	751.118
153.760	21.153	948.056	750.484
154.775	21.201	947.477	750.166
155.789	21.193	946.340	749.164
156.804	21.160	945.865	748.582
157.819	21.258	944.474	747.833
158.833	21.389	944.052	747.994
159.848	21.454	942.420	746.914
160.862	21.164	941.723	745.057
161.877	21.178	940.689	744.235
162.892	21.259	940.061	744.013
163.906	21.218	938.438	742.490
164.921	21.008	937.934	741.136
165.935	21.207	936.923	741.114
166.950	21.246	935.819	740.339
167.964	21.126	935.264	739.326
168.979	20.990	934.062	737.736
169.994	20.887	933.617	736.882
171.008	21.184	932.773	737.409
172.023	21.276	931.625	736.822
173.037	20.960	930.953	734.895
174.052	20.864	930.106	733.757
175.067	20.830	929.695	733.223
176.081	20.897	929.030	732.917
177.096	21.055	927.774	732.525
178.110	20.734	927.112	730.591
179.125	20.494	926.732	729.218
180.140	20.735	925.707	729.360
181.154	20.768	925.653	729.389
182.169	21.128	925.572	730.768
183.183	21.153	925.260	730.562
184.198	20.992	924.280	729.049
185.213	20.980	923.613	728.409
186.227	21.164	922.752	728.434
187.242	21.123	922.228	727.783
188.256	21.222	921.066	727.217
189.271	21.337	920.304	727.030
190.286	20.935	919.280	724.486
191.300	20.412	917.607	720.930
192.315	19.748	916.362	717.136
193.329	19.815	915.801	716.910
194.344	20.680	916.224	720.766
195.359	21.055	916.356	722.358
196.373	21.309	915.434	722.618
197.388	21.096	915.087	721.400
198.402	20.936	914.367	720.106
199.417	21.081	913.758	720.161
200.432	20.796	912.724	718.109
201.446	20.681	912.227	717.179
202.461	20.668	911.441	716.443
203.475	19.933	909.092	711.514
204.490	19.168	908.204	707.617
205.504	20.201	908.683	712.169
206.519	20.685	908.628	714.052
207.534	20.842	907.936	714.087
208.548	21.235	907.774	715.506
209.563	20.930	906.574	713.251
210.577	21.021	906.028	713.129
211.592	21.366	906.126	714.553
212.607	21.256	904.891	713.069
213.621	21.351	904.121	712.787
214.636	21.205	903.587	711.706
215.650	21.189	902.913	711.049
216.665	21.307	902.331	711.005
217.680	21.185	901.642	709.904
218.694	20.817	900.462	707.416
219.709	20.790	899.465	706.463
220.723	21.003	899.015	706.908
221.738	21.090	898.775	707.009
222.753	21.206	897.810	706.661
223.767	21.127	897.778	706.253
224.782	21.418	897.001	706.753
225.796	21.366	896.905	706.407
226.811	20.695	895.281	702.357
227.826	20.050	893.926	698.631
228.840	20.407	893.399	699.595
229.855	20.330	892.702	698.678
230.869	19.997	891.886	696.640
231.884	20.619	891.455	698.742
232.899	21.073	891.968	700.904
233.913	20.968	891.257	699.863
234.928	21.076	890.877	699.935
235.942	21.047	889.763	698.882
236.957	20.660	889.166	696.802
237.972	20.790	888.615	696.830
238.986	20.774	888.067	696.272
240.001	20.922	887.401	696.280
241.015	21.089	886.851	696.454
242.030	21.083	886.300	695.938
243.045	21.215	885.998	696.166
244.059	21.245	885.655	695.953
245.074	21.032	884.497	694.132
246.088	20.702	883.207	691.746
247.103	21.067	883.008	692.979
248.117	21.463	883.224	694.661
249.132	21.612	882.745	694.817
250.147	21.778	882.375	695.121
251.161	21.974	881.616	695.237
252.176	21.895	881.003	694.382
253.190	22.088	880.755	694.886
254.205	22.074	880.456	694.536
255.220	22.225	879.137	694.028
256.234	21.925	878.644	692.393
257.249	22.026	877.463	691.801
258.263	21.960	876.887	691.024
259.278	21.923	876.496	690.511
260.293	21.988	875.948	690.274
261.307	21.896	875.500	689.496
262.322	21.703	874.289	687.726
263.336	20.944	872.489	683.274
264.351	19.922	870.386	677.570
265.366	20.048	870.408	678.019
266.380	21.204	871.011	682.953
267.395	21.711	870.558	684.516
268.409	21.482	870.239	683.311
269.424	21.666	869.557	683.434
270.439	21.617	868.863	682.639
271.453	21.870	868.122	682.981
272.468	22.082	868.284	683.872
273.482	21.911	867.771	682.743
274.497	21.576	866.137	680.094
275.512	21.186	865.670	678.155
276.526	21.920	865.162	680.544
277.541	21.810	865.014	679.940
278.555	21.671	863.924	678.486
279.570	21.460	863.387	677.189
280.585	21.743	862.554	677.567
281.599	21.780	861.569	676.879
282.614	20.942	860.592	672.817
283.628	20.992	860.127	672.587
284.643	21.426	859.838	673.973
285.657	20.933	859.047	671.397
286.672	20.733	858.096	669.822
287.687	21.283	858.250	672.000
288.701	21.291	857.541	671.418
289.716	21.101	856.594	669.886
290.730	20.950	855.538	668.422
291.745	20.838	854.700	667.280
292.760	21.050	854.688	668.022
293.774	22.079	855.068	672.201
294.789	22.343	854.839	672.970
295.803	22.452	854.192	672.820
296.818	22.435	853.711	672.316
297.833	21.929	852.485	669.362
298.847	21.827	851.887	668.444
299.862	22.253	851.504	669.706
300.876	22.275	851.527	669.749
301.891	22.193	850.562	668.620
302.906	21.829	849.391	666.256
303.920	21.851	849.515	666.381
304.935	22.174	849.353	667.419
305.949	22.238	848.346	666.810
306.964	21.960	848.210	665.590
307.979	22.169	847.291	665.605
308.993	22.481	846.913	666.427
310.008	22.426	846.319	665.692
311.022	22.179	845.549	664.097
312.037	22.050	845.070	663.175
313.052	21.804	844.161	661.476
314.066	20.943	842.173	656.618
315.081	20.718	841.751	655.382
316.095	21.428	842.240	658.377
317.110	21.867	842.447	660.135
318.125	21.228	840.733	656.331
319.139	20.093	839.436	650.998
320.154	20.250	838.696	650.956
321.168	20.982	839.246	654.074
322.183	21.741	839.305	656.910
323.197	21.847	838.708	656.779
324.212	22.116	838.425	657.508
325.227	22.071	837.842	656.825
326.241	22.110	836.937	656.202
327.256	21.871	836.825	655.163
328.270	21.777	835.964	654.081
329.285	21.719	834.811	652.904
330.300	21.610	834.009	651.814
331.314	21.680	834.081	652.072
332.329	21.924	834.019	652.875
333.343	22.067	834.012	653.343
334.358	22.096	833.051	652.640
335.373	22.214	832.790	652.816
336.387	22.531	832.762	653.914
337.402	22.571	832.425	653.738
338.416	22.439	832.048	652.897
339.431	22.505	831.965	653.017
340.446	22.736	831.522	653.467
341.460	22.712	830.655	652.641
342.475	22.417	830.350	651.253
343.489	22.486	829.908	651.101
344.504	22.810	829.739	652.108
345.519	23.008	829.030	652.225
346.533	23.018	828.498	651.784
347.548	23.007	828.136	651.404
348.562	22.810	827.885	650.422
349.577	23.003	827.266	650.588
350.592	22.884	826.552	649.534
351.606	22.982	825.526	649.029
352.621	22.793	824.684	647.616
353.635	22.674	824.513	646.987
354.650	22.125	822.811	643.584
355.665	21.192	820.897	638.619
356.679	21.579	821.185	640.202
357.694	22.060	820.565	641.418
358.708	21.851	820.403	640.473
359.723	22.203	820.117	641.477
360.738	22.585	819.704	642.490
361.752	22.807	819.036	642.719
362.767	23.055	818.786	643.368
363.781	23.186	818.456	643.529
364.796	23.300	818.185	643.671
365.810	23.455	817.464	643.610
366.825	23.276	817.369	642.829
367.840	22.969	816.475	640.956
368.854	22.550	815.858	638.898
369.869	22.722	815.451	639.144
370.883	22.747	814.939	638.778
371.898	22.652	814.717	638.202
372.913	22.799	814.060	638.163
373.927	22.785	813.669	637.749
374.942	22.940	813.463	638.090
375.956	23.021	812.671	637.705
376.971	23.055	812.903	637.955
377.986	23.288	812.275	638.243
379.000	23.274	811.480	637.513
380.015	23.080	811.042	636.414
381.029	23.040	810.489	635.782
382.044	23.306	810.138	636.403
383.059	23.319	809.444	635.851
384.073	23.407	808.511	635.376
385.088	23.288	808.292	634.721
386.102	23.048	807.698	633.338
387.117	23.198	806.746	633.073
388.132	22.646	806.157	630.581
389.146	22.149	805.190	627.995
390.161	22.510	805.181	629.221
391.175	23.008	804.704	630.569
392.190	22.690	803.457	628.404
393.205	21.369	801.469	622.094
394.219	20.059	799.748	616.051
395.234	19.928	800.118	615.814
396.248	21.477	801.361	622.231
397.263	23.093	801.838	628.291
398.278	23.019	801.503	627.711
399.292	22.762	800.760	626.161
400.307	22.663	800.413	625.485
401.321	22.669	799.650	624.855
402.336	22.965	800.315	626.366
403.350	23.257	800.365	627.387
404.365	23.731	799.906	628.647
405.380	23.873	799.559	628.821
406.394	24.027	798.648	628.595
407.409	23.886	798.509	627.932
408.423	23.800	797.935	627.121
409.438	23.903	797.651	627.207
410.453	23.868	797.317	626.765
411.467	24.027	796.585	626.695
412.482	23.899	796.502	626.123
413.496	24.040	795.958	626.135
414.511	23.901	795.765	625.440
415.526	23.967	795.389	625.319
416.540	23.715	794.377	623.584
417.555	23.542	793.557	622.279
418.569	23.738	793.056	622.519
419.584	23.620	792.373	621.512
420.599	23.368	792.167	620.415
421.613	156.352	1365.949	1795.937
422.628	135.393	1449.543	1796.009
