DTS Sentinel unit serial number:	SN413079Multiplexer serial number:	ORYXHardware model number:	OX4-SRSoftware version number:	ORYX F/W v4.00 Oryx Data Collector v3.7.2.0data status	okinstallation	princeton_trtdifferential loss correction	single-endedforward channel	channel 1reverse channel	N/Adate	2019/09/13time	02:34:35forward acquisition time	60.00reverse acquisition time	0.00gamma	496.2192k internal	0.2332k external	0.2332temperature offset calibration	1.0163default loss term (dB/km)	0.3790temperature slope calibration	1.0000multiplexer offset coefficient	1.0000multiplexer slope coefficient	1.0000fibre end	0.00T internal ref (°C)	27.48T ext. ref 1 (°C)	3.98T ext. ref 2 (°C)	22.21length (m)	temperature (°C)	Stokes	anti-Stokes-747.200	800.000	0.098	0.356
-746.185	119.485	-0.070	0.087
-745.171	99.440	0.173	-0.201
-744.156	-13.321	-0.242	0.158
-743.142	-50.368	-0.244	-0.116
-742.127	74.356	-0.093	0.098
-741.112	356.532	-0.056	-0.113
-740.098	800.000	-0.156	-0.572
-739.083	-116.550	-0.478	-0.089
-738.069	16.080	-0.267	-0.211
-737.054	-126.592	0.184	0.027
-736.039	430.346	-0.112	-0.243
-735.025	-20.824	0.238	0.147
-734.010	-122.914	-0.219	-0.036
-732.996	384.536	0.068	0.142
-731.981	-47.318	0.394	-0.193
-730.966	-158.280	-0.263	0.015
-729.952	-25.828	0.264	-0.156
-728.937	-61.344	0.286	-0.121
-727.923	-41.072	0.222	-0.115
-726.908	282.685	0.122	0.220
-725.894	83.277	0.154	-0.168
-724.879	423.327	-0.034	-0.073
-723.864	306.318	0.109	-0.204
-722.850	-79.840	-0.256	-0.087
-721.835	493.332	0.095	0.218
-720.821	15.384	0.330	-0.261
-719.806	191.170	-0.284	-0.429
-718.791	-200.000	0.071	-0.414
-717.777	-57.418	0.187	-0.082
-716.762	258.248	-0.051	-0.089
-715.748	-200.000	0.005	-0.093
-714.733	-98.278	-0.058	-0.015
-713.718	800.000	0.055	-0.211
-712.704	66.796	-0.055	-0.056
-711.689	-200.000	0.025	-0.226
-710.675	627.404	-0.029	-0.073
-709.660	154.789	-0.012	0.017
-708.645	800.000	0.037	-0.156
-707.631	187.040	-0.070	-0.105
-706.616	-40.372	-0.163	-0.085
-705.602	800.000	-0.069	0.219
-704.587	-176.285	0.293	0.008
-703.572	387.867	-0.107	-0.222
-702.558	-146.679	-0.040	0.004
-701.543	-44.355	-0.196	0.099
-700.529	-139.693	0.111	0.012
-699.514	680.677	0.094	-0.246
-698.499	800.000	0.094	-0.274
-697.485	-168.345	-0.148	-0.006
-696.470	-21.419	-0.110	-0.068
-695.456	-200.000	-0.025	-0.173
-694.441	8.969	-0.344	-0.260
-693.426	-200.000	-0.017	-0.382
-692.412	-200.000	0.001	-0.170
-691.397	-91.513	-0.251	-0.072
-690.383	800.000	0.057	-0.163
-689.368	-50.537	0.272	-0.129
-688.354	-200.000	-0.001	-0.122
-687.339	-161.393	-0.356	0.018
-686.324	1.080	0.157	0.113
-685.310	239.350	-0.063	-0.105
-684.295	69.524	0.035	-0.037
-683.281	-39.144	-0.213	0.112
-682.266	-200.000	-0.054	-0.286
-681.251	-79.626	-0.120	0.041
-680.237	33.437	0.129	0.112
-679.222	270.825	0.140	0.248
-678.208	-200.000	-0.033	0.240
-677.193	-200.000	0.055	-0.396
-676.178	-6.878	0.137	0.094
-675.164	-0.600	0.142	-0.101
-674.149	-200.000	0.010	-0.314
-673.135	-200.000	-0.029	-0.249
-672.120	-12.847	-0.290	-0.190
-671.105	-75.253	-0.085	0.031
-670.091	-142.118	-0.256	0.025
-669.076	-99.245	-0.242	0.061
-668.062	141.961	0.017	-0.023
-667.047	-105.858	0.143	-0.032
-666.032	-50.422	-0.085	-0.040
-665.018	-165.417	-0.306	-0.013
-664.003	-37.225	-0.262	-0.141
-662.989	102.084	-0.093	0.108
-661.974	90.165	0.138	-0.155
-660.959	800.000	-0.032	-0.090
-659.945	46.045	0.040	0.038
-658.930	800.000	-0.065	-0.248
-657.916	-88.436	0.267	-0.080
-656.901	-15.412	0.258	0.165
-655.886	647.105	0.064	-0.163
-654.872	800.000	0.048	-0.155
-653.857	-67.517	0.339	-0.133
-652.843	-33.822	-0.172	0.095
-651.828	380.367	0.123	0.253
-650.814	-37.323	0.235	-0.126
-649.799	293.537	-0.100	0.183
-648.784	347.399	-0.167	0.330
-647.770	22.532	-0.400	-0.328
-646.755	-22.748	0.126	0.076
-645.741	-132.690	-0.167	0.021
-644.726	-132.206	0.173	-0.022
-643.711	-6.032	-0.210	0.144
-642.697	173.080	-0.195	-0.281
-641.682	-168.570	-0.096	0.004
-640.668	-66.367	0.172	0.069
-639.653	228.085	0.122	0.200
-638.638	488.571	0.031	-0.072
-637.624	629.648	0.071	0.179
-636.609	-110.710	0.233	0.048
-635.595	9.609	-0.068	-0.052
-634.580	-3.978	-0.069	-0.048
-633.565	-200.000	0.025	0.392
-632.551	800.000	0.050	-0.141
-631.536	95.311	-0.239	0.273
-630.522	-121.347	-0.308	0.051
-629.507	800.000	0.013	0.038
-628.492	178.961	-0.176	0.258
-627.478	91.712	-0.135	0.152
-626.463	-44.098	0.408	0.205
-625.449	243.892	-0.171	0.287
-624.434	-200.000	0.014	0.160
-623.419	-111.867	-0.389	-0.079
-622.405	800.000	-0.040	-0.152
-621.390	9.806	0.078	-0.060
-620.376	27.642	-0.141	-0.119
-619.361	-101.201	0.044	-0.011
-618.346	-200.000	0.051	-0.276
-617.332	-15.666	0.034	0.022
-616.317	-66.835	-0.203	0.080
-615.303	259.703	-0.139	-0.240
-614.288	-200.000	0.015	-0.203
-613.273	-2.155	-0.180	-0.126
-612.259	-42.960	-0.355	0.180
-611.244	495.293	0.165	0.380
-610.230	-200.000	0.027	0.146
-609.215	-200.000	0.016	-0.074
-608.201	-101.645	0.237	0.058
-607.186	-76.566	0.169	-0.059
-606.171	735.428	-0.067	0.181
-605.157	-95.213	0.122	-0.033
-604.142	643.502	-0.020	0.052
-603.128	-106.530	0.133	0.030
-602.113	229.850	-0.093	0.153
-601.098	-25.737	-0.252	-0.149
-600.084	-103.336	-0.277	-0.065
-599.069	800.000	-0.090	-0.262
-598.055	-200.000	-0.024	-0.181
-597.040	71.942	0.232	0.241
-596.025	-39.580	-0.104	0.054
-595.011	170.974	-0.155	0.222
-593.996	-64.055	-0.219	-0.089
-592.982	800.000	-0.105	-0.436
-591.967	-113.692	0.313	-0.061
-590.952	345.057	0.077	0.151
-589.938	-200.000	0.008	-0.101
-588.923	800.000	-0.045	-0.167
-587.909	433.931	0.049	-0.107
-586.894	-200.000	-0.013	-0.240
-585.879	-15.267	0.150	-0.096
-584.865	800.000	-0.041	0.173
-583.850	254.061	0.130	-0.223
-582.836	94.949	0.056	-0.064
-581.821	82.914	0.089	0.097
-580.806	127.484	-0.012	-0.015
-579.792	-185.972	0.397	-0.006
-578.777	-108.350	0.182	-0.039
-577.763	-27.209	-0.356	-0.207
-576.748	-81.295	0.075	-0.025
-575.733	38.534	-0.324	0.289
-574.719	42.446	0.099	-0.090
-573.704	26.640	0.028	0.023
-572.690	42.390	0.192	-0.174
-571.675	130.781	-0.085	0.109
-570.661	237.382	0.064	0.107
-569.646	278.078	-0.105	-0.187
-568.631	196.365	0.054	0.082
-567.617	676.044	-0.051	0.133
-566.602	-34.643	-0.190	-0.104
-565.588	190.264	-0.110	0.165
-564.573	-200.000	0.035	-0.312
-563.558	-130.614	-0.278	-0.037
-562.544	7.480	0.397	-0.297
-561.529	800.000	-0.042	-0.139
-560.515	15.015	-0.289	-0.226
-559.500	57.887	0.005	0.005
-558.485	-29.269	0.175	-0.100
-557.471	-200.000	0.017	-0.298
-556.456	238.911	-0.160	0.266
-555.442	-97.534	-0.364	-0.094
-554.427	-30.522	-0.150	0.085
-553.412	95.288	-0.178	-0.203
-552.398	163.903	-0.225	-0.316
-551.383	-200.000	0.008	-0.063
-550.369	-200.000	0.063	-0.340
-549.354	-17.561	-0.167	0.105
-548.339	32.048	0.204	-0.175
-547.325	-93.304	0.351	-0.097
-546.310	-41.741	0.132	0.068
-545.296	485.790	0.110	-0.249
-544.281	-131.058	0.209	0.028
-543.266	800.000	-0.029	0.122
-542.252	43.277	-0.271	-0.247
-541.237	271.014	-0.055	0.097
-540.223	-3.882	-0.226	0.157
-539.208	800.000	-0.068	-0.244
-538.193	433.985	0.030	-0.065
-537.179	217.306	-0.120	0.191
-536.164	398.667	-0.098	-0.204
-535.150	-200.000	-0.001	-0.206
-534.135	-200.000	-0.004	0.084
-533.121	-200.000	0.017	-0.238
-532.106	-200.000	-0.008	0.067
-531.091	101.549	-0.048	-0.056
-530.077	-200.000	-0.010	0.348
-529.062	-200.000	0.037	0.168
-528.048	-200.000	0.027	-0.298
-527.033	507.558	-0.021	-0.049
-526.018	-108.117	0.111	0.024
-525.004	133.312	0.191	-0.246
-523.989	800.000	-0.065	-0.261
-522.975	800.000	0.035	-0.123
-521.960	-200.000	-0.010	-0.183
-520.945	142.811	-0.145	0.192
-519.931	800.000	0.078	-0.293
-518.916	-200.000	-0.011	0.174
-517.902	479.145	-0.087	0.195
-516.887	123.055	0.075	0.093
-515.872	17.146	0.215	-0.170
-514.858	19.481	-0.155	0.124
-513.843	517.390	0.141	-0.330
-512.829	-128.764	0.117	0.016
-511.814	-200.000	-0.039	0.236
-510.799	249.923	0.089	-0.151
-509.785	-38.350	0.131	0.069
-508.770	-105.325	0.200	-0.045
-507.756	72.980	-0.136	0.141
-506.741	195.321	-0.060	-0.091
-505.726	108.341	-0.069	-0.082
-504.712	-51.887	-0.225	0.104
-503.697	800.000	-0.019	0.078
-502.683	-200.000	0.031	-0.254
-501.668	186.674	-0.155	-0.230
-500.653	76.810	0.206	0.218
-499.639	-146.960	0.330	-0.028
-498.624	93.526	0.169	0.191
-497.610	158.386	0.087	0.121
-496.595	-200.000	-0.035	-0.169
-495.581	80.327	0.445	0.477
-494.566	-41.464	-0.263	-0.135
-493.551	223.079	0.115	-0.184
-492.537	242.671	-0.155	0.258
-491.522	800.000	-0.095	-0.310
-490.508	36.330	-0.043	-0.038
-489.493	629.080	0.030	-0.075
-488.478	-169.568	-0.256	0.009
-487.464	-137.077	-0.066	0.008
-486.449	206.822	-0.170	-0.264
-485.435	-19.578	0.096	-0.059
-484.420	3.343	0.181	0.131
-483.405	-41.169	-0.190	0.098
-482.391	468.365	-0.138	-0.309
-481.376	162.831	-0.143	-0.200
-480.362	15.985	-0.205	-0.161
-479.347	800.000	0.086	0.271
-478.332	-16.646	0.314	-0.198
-477.318	800.000	-0.037	-0.110
-476.303	45.754	0.123	0.113
-475.289	-146.880	-0.148	-0.013
-474.274	211.750	0.071	0.112
-473.259	89.250	-0.155	0.172
-472.245	118.548	0.317	-0.389
-471.230	800.000	0.068	-0.281
-470.216	-40.284	-0.342	-0.177
-469.201	-74.005	-0.276	-0.099
-468.186	800.000	-0.076	-0.295
-467.172	-200.000	-0.006	-0.167
-466.157	-145.814	0.090	0.008
-465.143	-174.469	0.287	-0.008
-464.128	-67.948	0.111	-0.043
-463.113	722.907	0.018	-0.047
-462.099	-59.884	0.174	0.074
-461.084	-200.000	-0.037	-0.243
-460.070	139.933	-0.153	0.201
-459.055	-81.232	0.076	-0.025
-458.040	-62.455	-0.183	-0.076
-457.026	-200.000	-0.005	0.272
-456.011	428.856	0.101	0.217
-454.997	-81.645	0.114	-0.037
-453.982	42.456	0.371	-0.335
-452.968	-87.437	-0.189	0.057
-451.953	800.000	0.075	0.294
-450.938	385.292	0.018	0.037
-449.924	800.000	-0.027	-0.111
-448.909	69.847	-0.029	0.030
-447.895	69.042	0.196	0.201
-446.880	106.366	-0.066	-0.078
-445.865	468.566	0.171	0.383
-444.851	618.623	0.159	-0.398
-443.836	62.938	-0.169	-0.168
-442.822	-200.000	-0.012	0.445
-441.807	-200.000	0.032	0.168
-440.792	-200.000	-0.022	0.110
-439.778	159.365	-0.151	-0.209
-438.763	800.000	0.141	-0.434
-437.749	186.728	-0.097	0.144
-436.734	58.064	0.144	0.140
-435.719	223.250	0.084	0.135
-434.705	800.000	0.148	0.444
-433.690	800.000	-0.064	0.198
-432.676	800.000	0.067	0.224
-431.661	688.924	0.055	0.144
-430.646	-200.000	0.006	-0.081
-429.632	-146.705	-0.332	0.029
-428.617	-46.191	-0.159	0.078
-427.603	-120.834	0.194	-0.033
-426.588	-121.643	-0.391	-0.064
-425.573	-141.334	0.205	0.021
-424.559	800.000	0.080	-0.299
-423.544	41.698	0.084	-0.076
-422.530	-68.854	-0.275	0.105
-421.515	16.443	-0.090	0.070
-420.500	33.863	0.055	0.048
-419.486	51.669	-0.345	-0.326
-418.471	34.498	-0.115	0.100
-417.457	-200.000	-0.036	-0.187
-416.442	-54.597	0.202	-0.091
-415.428	141.510	-0.193	0.254
-414.413	-134.516	0.610	0.074
-413.398	-200.000	0.024	0.179
-412.384	-200.000	-0.016	-0.250
-411.369	-45.192	0.105	0.052
-410.355	22.669	0.156	0.127
-409.340	-200.000	-0.083	0.368
-408.325	-200.000	0.029	-0.312
-407.311	-200.000	-0.004	0.164
-406.296	-139.494	-0.308	-0.033
-405.282	-142.803	0.139	-0.013
-404.267	353.025	-0.101	0.200
-403.252	57.336	0.115	-0.111
-402.238	711.817	0.080	0.210
-401.223	-149.868	0.152	0.012
-400.209	-200.000	0.006	-0.182
-399.194	589.107	0.053	0.129
-398.179	800.000	0.107	-0.303
-397.165	-200.000	0.037	0.197
-396.150	-200.000	-0.044	0.407
-395.136	27.431	-0.092	0.077
-394.121	800.000	-0.020	-0.059
-393.106	-107.508	-0.516	0.112
-392.092	185.501	0.103	0.152
-391.077	24.884	0.230	0.189
-390.063	-200.000	-0.002	0.237
-389.048	172.099	0.152	-0.217
-388.033	-24.770	-0.193	-0.114
-387.019	157.321	-0.053	0.073
-386.004	3.566	0.302	0.218
-384.990	-200.000	-0.045	0.208
-383.975	-93.516	-0.091	0.025
-382.960	-200.000	0.003	-0.264
-381.946	-170.499	0.302	-0.010
-380.931	800.000	-0.041	-0.159
-379.917	-168.355	-0.133	-0.005
-378.902	32.410	-0.235	-0.202
-377.888	800.000	-0.111	0.366
-376.873	-200.000	0.013	-0.109
-375.858	333.581	-0.108	0.208
-374.844	-60.701	0.229	-0.096
-373.829	-13.460	-0.057	0.037
-372.815	-200.000	-0.008	-0.256
-371.800	781.620	-0.149	0.406
-370.785	432.759	-0.092	0.199
-369.771	-143.027	0.140	0.013
-368.756	-200.000	0.016	0.087
-367.742	-45.742	0.051	0.025
-366.727	85.685	-0.216	-0.236
-365.712	-200.000	-0.027	0.165
-364.698	-152.401	0.103	0.007
-363.683	-96.366	-0.414	0.108
-362.669	135.252	0.045	0.058
-361.654	-93.057	-0.336	0.093
-360.639	-17.529	0.227	-0.142
-359.625	-108.990	0.134	-0.028
-358.610	-200.000	0.027	0.231
-357.596	247.036	-0.107	0.179
-356.581	-17.469	-0.110	0.069
-355.566	120.384	-0.082	0.101
-354.552	-200.000	0.006	-0.108
-353.537	-150.996	-0.079	0.006
-352.523	-111.926	-0.312	-0.062
-351.508	-89.926	0.288	0.083
-350.493	252.434	-0.066	-0.112
-349.479	-200.000	0.010	-0.165
-348.464	65.734	0.281	-0.282
-347.450	-200.000	-0.007	-0.194
-346.435	-96.011	-0.426	-0.112
-345.420	141.779	0.075	-0.098
-344.406	-8.369	-0.112	-0.075
-343.391	-83.767	-0.087	0.027
-342.377	-145.700	0.259	0.023
-341.362	140.601	-0.203	0.265
-340.348	267.534	-0.194	0.336
-339.333	63.243	-0.182	0.181
-338.318	590.322	-0.035	-0.084
-337.304	634.141	-0.038	0.094
-336.289	340.333	-0.088	0.170
-335.275	-20.084	-0.160	0.098
-334.260	-71.921	0.147	0.054
-333.245	-117.991	-0.339	-0.060
-332.231	651.263	-0.027	-0.069
-331.216	80.728	0.289	-0.308
-330.202	-200.000	-0.040	0.220
-329.187	262.184	0.062	-0.106
-328.172	-109.669	0.296	0.062
-327.158	-200.000	0.013	0.085
-326.143	144.382	-0.232	-0.307
-325.129	367.677	0.176	0.352
-324.114	-54.929	0.228	0.102
-323.099	-200.000	0.078	0.350
-322.085	300.764	-0.067	0.122
-321.070	446.664	0.083	-0.181
-320.056	-200.000	0.019	-0.259
-319.041	81.064	-0.134	-0.143
-318.026	148.479	-0.136	0.182
-317.012	38.799	0.142	0.126
-315.997	-200.000	0.004	0.142
-314.983	259.073	0.113	0.193
-313.968	-200.000	0.022	0.240
-312.953	-12.438	0.209	0.135
-311.939	-34.083	0.209	-0.114
-310.924	-53.740	-0.109	-0.049
-309.910	12.546	0.128	0.097
-308.895	-110.398	-0.203	-0.042
-307.880	271.696	-0.205	-0.358
-306.866	268.070	-0.133	-0.230
-305.851	-200.000	-0.023	0.345
-304.837	-161.717	-0.293	0.015
-303.822	-105.300	0.371	-0.084
-302.807	-135.604	0.231	0.027
-301.793	735.542	-0.047	-0.125
-300.778	-200.000	-0.004	-0.294
-299.764	-38.937	0.285	-0.149
-298.749	-94.655	-0.192	0.052
-297.735	-171.045	0.192	-0.006
-296.720	-106.711	0.145	0.032
-295.705	-200.000	-0.023	0.178
-294.691	800.000	0.059	-0.182
-293.676	39.473	-0.139	-0.123
-292.662	-44.258	-0.291	0.144
-291.647	72.124	-0.080	-0.083
-290.632	-111.569	-0.054	-0.011
-289.618	181.135	0.127	-0.184
-288.603	-147.375	0.330	-0.028
-287.589	-135.533	-0.209	-0.025
-286.574	800.000	-0.068	-0.200
-285.559	299.017	0.090	-0.164
-284.545	-200.000	0.010	-0.189
-283.530	264.714	0.104	-0.179
-282.516	74.000	0.109	-0.113
-281.501	-62.304	-0.083	0.034
-280.486	124.149	-0.102	0.127
-279.472	-163.903	0.224	-0.010
-278.457	-107.148	-0.126	-0.027
-277.443	162.761	-0.150	0.207
-276.428	-200.000	0.026	-0.335
-275.413	-97.753	-0.185	-0.047
-274.399	800.000	-0.069	0.238
-273.384	-200.000	-0.024	0.111
-272.370	-160.951	0.242	0.013
-271.355	591.663	0.147	-0.358
-270.340	41.212	0.055	0.049
-269.326	57.339	0.239	0.231
-268.311	-55.812	-0.234	-0.103
-267.297	87.577	0.078	0.086
-266.282	-34.590	0.141	-0.076
-265.267	-200.000	-0.032	0.180
-264.253	-200.000	-0.002	-0.062
-263.238	-200.000	0.004	0.090
-262.224	26.677	-0.334	-0.276
-261.209	-53.084	-0.261	0.119
-260.195	-118.203	0.368	-0.065
-259.180	-200.000	0.024	0.291
-258.165	-193.163	0.216	0.002
-257.151	800.000	-0.034	-0.110
-256.136	338.956	0.061	0.117
-255.122	-200.000	-0.004	-0.085
-254.107	20.914	-0.100	-0.080
-253.092	378.010	-0.177	-0.358
-252.078	-98.237	-0.228	0.058
-251.063	-28.903	0.108	0.061
-250.049	-65.554	-0.215	-0.085
-249.034	190.769	-0.184	-0.273
-248.019	-3.228	0.203	0.139
-247.005	76.602	-0.242	0.254
-245.990	-51.743	-0.214	0.099
-244.976	-160.356	0.197	-0.010
-243.961	661.509	0.108	-0.273
-242.946	-128.394	0.519	0.073
-241.932	-200.000	0.020	0.214
-240.917	-200.000	0.022	-0.227
-239.903	739.035	0.110	0.291
-238.888	93.313	0.231	0.257
-237.873	-142.966	-0.427	0.041
-236.859	573.434	-0.119	-0.287
-235.844	33.582	-0.078	-0.067
-234.830	-130.946	-0.300	0.040
-233.815	545.032	0.108	-0.254
-232.800	150.599	0.087	-0.117
-231.786	-200.000	-0.003	-0.323
-230.771	114.638	-0.112	0.134
-229.757	107.388	-0.148	0.173
-228.742	800.000	0.040	0.147
-227.727	173.193	0.163	-0.232
-226.713	6.893	-0.072	0.053
-225.698	-45.185	-0.297	-0.146
-224.684	39.255	0.287	0.254
-223.669	-27.854	0.246	0.140
-222.655	-50.303	0.424	0.198
-221.640	133.356	0.065	0.083
-220.625	20.656	0.158	-0.126
-219.611	-200.000	-0.021	-0.113
-218.596	-116.924	0.114	-0.021
-217.582	-39.878	0.274	0.141
-216.567	239.685	0.150	0.246
-215.552	65.767	0.060	0.059
-214.538	240.438	-0.045	-0.074
-213.523	-145.305	-0.251	0.022
-212.509	-1.131	-0.041	0.029
-211.494	259.848	0.105	0.179
-210.479	515.224	0.130	0.299
-209.465	-158.060	0.160	-0.009
-208.450	-200.000	-0.009	0.247
-207.436	-102.694	0.281	0.066
-206.421	97.624	-0.157	0.178
-205.406	218.166	-0.119	0.188
-204.392	5.296	-0.070	0.051
-203.377	-91.207	0.176	-0.050
-202.363	738.679	-0.045	-0.120
-201.348	800.000	-0.037	-0.154
-200.333	-128.905	-0.204	0.028
-199.319	-89.669	0.201	0.058
-198.304	-134.931	-0.370	0.044
-197.290	-131.932	-0.217	0.028
-196.275	65.639	-0.131	0.131
-195.260	800.000	0.082	0.317
-194.246	-91.429	-0.113	0.032
-193.231	429.916	0.167	0.355
-192.217	5.420	0.181	-0.131
-191.202	76.747	-0.153	0.159
-190.187	-200.000	0.039	-0.170
-189.173	46.387	0.201	-0.184
-188.158	-132.109	-0.104	0.013
-187.144	634.679	0.097	-0.243
-186.129	-200.000	0.023	-0.254
-185.114	-76.719	0.188	0.065
-184.100	103.730	-0.182	0.211
-183.085	-83.274	0.314	-0.099
-182.071	-141.398	-0.258	0.026
-181.056	800.000	-0.129	0.398
-180.042	-19.308	-0.208	0.127
-179.027	-200.000	0.023	-0.106
-178.012	-200.000	0.069	-0.438
-176.998	159.799	-0.205	0.281
-175.983	83.130	-0.098	0.105
-174.969	-30.889	0.346	0.192
-173.954	-55.725	0.194	0.086
-172.939	-112.494	-0.175	0.034
-171.925	-89.430	0.278	0.081
-170.910	76.764	0.150	0.157
-169.896	800.000	-0.031	-0.089
-168.881	593.186	0.144	0.349
-167.866	-138.881	0.346	0.037
-166.852	-120.588	0.166	0.028
-165.837	492.634	0.209	0.472
-164.823	393.987	-0.109	-0.224
-163.808	-27.354	0.458	0.262
-162.793	546.859	-0.119	-0.281
-161.779	-200.000	0.025	-0.197
-160.764	-200.000	-0.042	-0.530
-159.750	-200.000	-0.026	-0.117
-158.735	-30.169	0.178	0.099
-157.720	-21.539	0.015	0.009
-156.706	-71.681	-0.144	-0.053
-155.691	77.616	-0.075	-0.079
-154.677	-200.000	0.045	-0.214
-153.662	449.915	-0.047	-0.103
-152.647	9.967	0.126	-0.094
-151.633	-27.504	0.367	-0.210
-150.618	800.000	0.019	-0.082
-149.604	264.688	0.109	-0.187
-148.589	800.000	0.067	0.223
-147.574	221.446	-0.074	-0.116
-146.560	800.000	0.054	0.159
-145.545	231.296	0.125	-0.201
-144.531	107.193	-0.115	0.134
-143.516	211.926	-0.047	-0.073
-142.502	-147.788	0.128	0.010
-141.487	-200.000	0.014	0.169
-140.472	-200.000	0.027	0.159
-139.458	-200.000	-0.033	0.247
-138.443	18.257	0.137	0.107
-137.429	52.017	0.324	0.303
-136.414	75.339	0.181	0.187
-135.399	-65.124	-0.136	0.054
-134.385	-168.220	0.071	-0.003
-133.370	-64.804	-0.091	0.036
-132.356	-69.313	-0.127	0.048
-131.341	188.793	0.171	0.252
-130.326	800.000	0.053	-0.206
-129.312	800.000	0.104	0.299
-128.297	800.000	0.123	-0.374
-127.283	-82.468	0.393	0.125
-126.268	38.119	-0.246	0.215
-125.253	373.581	-0.070	0.140
-124.239	-9.672	0.192	-0.126
-123.224	-110.246	0.261	-0.053
-122.210	-111.963	-0.188	-0.037
-121.195	-90.481	0.311	0.089
-120.180	792.679	-0.047	-0.127
-119.166	-200.000	0.019	0.160
-118.151	800.000	-0.076	-0.265
-117.137	157.862	0.215	0.293
-116.122	295.739	0.006	0.012
-115.107	800.000	-0.024	-0.101
-114.093	-40.393	-0.122	0.062
-113.078	-75.756	-0.229	-0.080
-112.064	213.825	-0.092	0.143
-111.049	81.261	0.266	0.282
-110.034	102.724	-0.101	-0.116
-109.020	31.787	-0.097	-0.082
-108.005	94.232	-0.213	0.238
-106.991	-47.970	-0.184	-0.088
-105.976	77.315	0.099	-0.103
-104.962	-200.000	-0.075	0.369
-103.947	-200.000	0.028	-0.223
-102.932	-79.757	0.166	-0.055
-101.918	9.849	0.427	0.318
-100.903	-27.661	0.184	-0.105
-99.889	16.529	-0.250	-0.194
-98.874	-55.457	-0.181	-0.080
-97.859	75.581	-0.235	0.243
-96.845	-43.802	0.467	0.231
-95.830	-106.831	0.112	0.024
-94.816	800.000	0.081	-0.305
-93.801	-153.536	0.314	0.021
-92.786	119.425	-0.080	0.097
-91.772	-86.782	-0.261	0.078
-90.757	66.622	0.228	0.228
-89.743	-35.945	0.093	-0.049
-88.728	-119.817	0.151	0.025
-87.713	-132.176	0.278	-0.035
-86.699	256.414	-0.064	-0.108
-85.684	-33.375	-0.096	0.052
-84.670	73.216	-0.034	-0.034
-83.655	-143.480	-0.356	-0.033
-82.640	570.355	0.011	0.027
-81.626	800.000	0.045	0.156
-80.611	-200.000	0.052	-0.336
-79.597	-200.000	0.012	-0.191
-78.582	-115.453	0.061	0.011
-77.567	13.145	-0.073	0.055
-76.553	29.682	0.119	-0.099
-75.538	800.000	-0.009	-0.034
-74.524	145.241	0.150	-0.197
-73.509	-23.135	0.084	0.050
-72.494	68.178	-0.074	-0.074
-71.480	-123.311	0.229	0.036
-70.465	-36.751	0.202	-0.107
-69.451	38.717	-0.127	0.111
-68.436	-34.106	0.174	-0.094
-67.422	-51.197	-0.120	-0.055
-66.407	9.891	0.140	-0.104
-65.392	516.227	-0.052	-0.118
-64.378	-30.831	-0.356	0.197
-63.363	115.944	-0.173	0.207
-62.349	22.315	0.159	0.127
-61.334	48.512	-1.317	-1.208
-60.319	-41.475	0.581	0.293
-59.305	626.368	-0.506	-1.252
-58.290	221.974	0.672	1.059
-57.276	301.768	0.835	1.513
-56.261	-200.000	114.152	651.384
-55.246	536.405	1523.408	3541.732
-54.232	178.375	2688.393	3844.090
-53.217	109.021	2149.940	2518.234
-52.203	38.951	1596.269	1396.871
-51.188	30.800	1343.563	1126.615
-50.173	27.932	1305.480	1077.747
-49.159	55.376	1362.710	1290.999
-48.144	53.868	1376.531	1294.985
-47.130	31.002	1331.857	1117.829
-46.115	27.696	1314.160	1083.336
-45.100	27.401	1309.152	1077.418
-44.086	27.293	1307.050	1075.008
-43.071	27.369	1304.698	1073.478
-42.057	27.352	1302.785	1071.764
-41.042	27.299	1301.231	1070.130
-40.027	27.390	1299.460	1069.165
-39.013	27.330	1297.556	1067.205
-37.998	27.433	1295.356	1065.959
-36.984	27.456	1293.835	1064.799
-35.969	27.407	1292.143	1063.079
-34.954	27.562	1290.115	1062.268
-33.940	27.412	1289.603	1060.931
-32.925	27.571	1287.648	1060.204
-31.911	27.604	1286.291	1059.238
-30.896	27.572	1285.115	1058.045
-29.881	27.637	1283.401	1056.965
-28.867	27.596	1282.140	1055.648
-27.852	27.610	1280.847	1054.624
-26.838	27.620	1279.155	1053.247
-25.823	27.577	1278.024	1052.025
-24.809	27.586	1276.894	1051.106
-23.794	27.581	1275.506	1049.890
-22.779	27.576	1273.998	1048.582
-21.765	27.607	1272.956	1047.859
-20.750	27.618	1271.699	1046.847
-19.736	27.511	1270.405	1045.126
-18.721	27.445	1269.365	1043.851
-17.706	27.421	1268.396	1042.874
-16.692	27.361	1267.286	1041.574
-15.677	27.425	1265.775	1040.658
-14.663	27.451	1264.691	1039.874
-13.648	27.399	1264.339	1039.250
-12.633	27.341	1263.050	1037.815
-11.619	27.562	1261.645	1037.881
-10.604	27.429	1261.342	1036.834
-9.590	27.365	1260.386	1035.641
-8.575	27.473	1258.792	1034.903
-7.560	27.416	1258.072	1033.949
-6.546	27.412	1257.452	1033.373
-5.531	27.332	1256.239	1031.882
-4.517	27.456	1255.797	1032.179
-3.502	27.417	1255.013	1031.274
-2.487	27.395	1253.730	1030.055
-1.473	27.307	1249.924	1026.392
-0.458	25.824	1234.994	1005.815
0.556	24.280	1217.929	969.132
1.571	20.485	1224.128	953.204
2.586	19.607	1239.048	959.857
3.600	19.451	1227.181	949.723
4.615	14.877	1156.238	870.961
5.629	7.365	1083.972	779.641
6.644	4.287	1066.115	751.831
7.659	3.905	1063.590	748.136
8.673	3.861	1061.903	746.672
9.688	3.858	1060.797	745.814
10.702	4.263	1058.310	745.949
11.717	8.906	1065.049	773.061
12.731	17.184	1076.718	821.660
13.746	21.956	1082.965	849.512
14.761	22.706	1083.453	853.449
15.775	22.092	1081.655	848.993
16.790	21.122	1079.829	842.802
17.804	20.605	1078.568	839.246
18.819	20.386	1077.798	837.517
19.834	20.419	1077.048	837.022
20.848	20.434	1076.189	836.351
21.863	20.200	1075.882	834.912
22.877	19.994	1074.959	833.129
23.892	19.981	1074.523	832.655
24.907	19.937	1073.188	831.337
25.921	19.836	1072.609	830.330
26.936	19.805	1070.986	828.855
27.950	20.025	1069.415	828.613
28.965	20.028	1068.144	827.573
29.980	20.092	1067.322	827.165
30.994	20.192	1066.518	826.948
32.009	20.291	1065.474	826.537
33.023	20.333	1063.962	825.492
34.038	20.094	1063.263	823.740
35.053	20.075	1061.711	822.376
36.067	20.039	1061.335	821.838
37.082	20.048	1060.427	821.107
38.096	20.067	1059.884	820.705
39.111	20.326	1058.748	820.975
40.126	19.915	1057.916	818.316
41.140	19.734	1056.106	815.988
42.155	19.475	1055.330	814.093
43.169	19.507	1053.708	812.921
44.184	19.441	1052.710	811.770
45.199	19.432	1052.210	811.272
46.213	19.722	1051.534	812.041
47.228	19.992	1050.786	812.658
48.242	19.934	1049.938	811.656
49.257	20.067	1048.778	811.314
50.271	20.198	1047.905	811.180
51.286	20.179	1046.939	810.268
52.301	20.203	1045.949	809.546
53.315	19.976	1045.249	807.870
54.330	19.803	1043.878	805.936
55.344	19.687	1043.267	804.850
56.359	19.698	1041.894	803.772
57.374	19.515	1041.533	802.573
58.388	19.483	1040.324	801.420
59.403	19.437	1039.473	800.482
60.417	19.534	1038.786	800.331
61.432	19.188	1038.273	798.262
62.447	19.272	1037.129	797.701
63.461	19.287	1035.919	796.766
64.476	19.214	1035.072	795.707
65.490	19.200	1034.294	794.977
66.505	19.305	1033.685	794.921
67.520	19.272	1033.572	794.612
68.534	19.390	1032.037	793.903
69.549	19.205	1031.692	792.719
70.563	19.164	1030.656	791.664
71.578	18.893	1029.922	789.783
72.593	18.817	1029.385	788.954
73.607	18.880	1028.434	788.445
74.622	19.117	1027.607	788.825
75.636	18.996	1027.396	788.039
76.651	19.059	1026.709	787.731
77.666	19.135	1025.913	787.398
78.680	19.098	1025.108	786.544
79.695	19.141	1024.464	786.176
80.709	19.422	1024.434	787.365
81.724	19.461	1023.824	787.006
82.739	19.560	1023.254	786.947
83.753	20.010	1022.630	788.446
84.768	20.269	1022.215	789.234
85.782	20.535	1021.984	790.196
86.797	20.398	1020.355	788.246
87.812	20.094	1019.214	785.915
88.826	20.326	1018.356	786.238
89.841	20.198	1017.923	785.253
90.855	20.336	1017.063	785.147
91.870	20.389	1016.282	784.712
92.884	20.341	1015.027	783.456
93.899	20.218	1014.502	782.428
94.914	20.430	1013.410	782.471
95.928	20.322	1012.571	781.268
96.943	20.176	1011.537	779.744
97.957	20.210	1010.588	779.095
98.972	20.327	1009.707	778.872
99.987	20.281	1008.990	778.043
101.001	20.089	1008.039	776.381
102.016	20.150	1007.069	775.841
103.030	20.268	1006.495	775.858
104.045	20.231	1005.844	775.120
105.060	19.997	1004.890	773.274
106.074	19.801	1003.392	771.177
107.089	19.538	1002.011	768.875
108.103	19.370	1000.812	767.140
109.118	19.290	999.963	766.067
110.133	19.266	998.846	765.036
111.147	19.111	998.422	763.955
112.162	19.249	997.350	763.679
113.176	19.552	997.129	764.785
114.191	19.505	996.370	763.931
115.206	19.597	995.265	763.419
116.220	19.371	994.923	762.092
117.235	19.454	993.763	761.503
118.249	19.273	993.008	760.058
119.264	19.333	991.602	759.177
120.279	19.239	990.984	758.223
121.293	19.044	990.564	756.981
122.308	19.010	989.099	755.642
123.322	18.799	988.361	754.087
124.337	18.994	986.852	753.725
125.352	18.964	986.171	753.004
126.366	18.894	985.559	752.166
127.381	19.050	984.578	752.029
128.395	19.041	983.570	751.154
129.410	19.144	982.850	750.986
130.424	19.259	981.944	750.731
131.439	19.378	981.748	751.034
132.454	19.388	980.729	750.228
133.468	19.467	980.106	750.031
134.483	19.589	978.749	749.457
135.497	19.522	978.217	748.692
136.512	19.628	977.741	748.718
137.527	19.481	976.818	747.309
138.541	19.554	976.321	747.180
139.556	19.548	975.844	746.724
140.570	19.798	974.872	746.991
141.585	20.047	974.154	747.451
142.600	20.112	973.243	746.968
143.614	20.288	972.440	747.039
144.629	20.311	972.131	746.838
145.643	20.140	971.103	745.247
146.658	20.028	969.320	743.333
147.673	19.874	968.331	741.847
148.687	19.582	967.670	740.025
149.702	19.575	966.718	739.203
150.716	19.582	965.389	738.147
151.731	19.777	964.504	738.240
152.746	19.757	964.471	738.064
153.760	19.741	963.917	737.505
154.775	19.830	963.320	737.363
155.789	19.939	962.413	737.066
156.804	20.075	961.440	736.835
157.819	20.139	961.112	736.791
158.833	20.171	960.445	736.349
159.848	20.401	959.657	736.658
160.862	20.051	959.012	734.613
161.877	19.792	956.669	731.660
162.892	19.630	955.862	730.292
163.906	19.552	955.016	729.250
164.921	19.515	954.770	728.843
165.935	19.696	953.545	728.604
166.950	19.915	952.611	728.751
167.964	19.865	951.507	727.632
168.979	19.579	951.048	726.013
169.994	19.706	949.790	725.522
171.008	19.694	949.205	724.962
172.023	20.068	948.588	725.993
173.037	20.162	948.317	726.114
174.052	20.011	946.832	724.279
175.067	19.752	946.260	722.697
176.081	19.331	945.789	720.515
177.096	19.516	944.677	720.375
178.110	19.654	943.824	720.237
179.125	19.635	943.276	719.675
180.140	19.881	942.823	720.289
181.154	20.000	942.872	720.762
182.169	20.081	942.904	721.056
183.183	20.081	942.374	720.590
184.198	19.977	941.323	719.290
185.213	20.071	940.444	718.944
186.227	20.220	939.483	718.764
187.242	20.376	939.109	719.061
188.256	20.459	939.080	719.318
189.271	20.335	938.293	718.136
190.286	20.017	936.834	715.644
191.300	19.361	935.691	712.000
192.315	19.271	934.951	711.003
193.329	19.382	934.319	710.918
194.344	19.579	934.084	711.485
195.359	19.747	933.427	711.615
196.373	19.943	932.637	711.754
197.388	20.109	933.106	712.731
198.402	20.387	932.837	713.606
199.417	20.447	932.435	713.481
200.432	20.641	931.951	713.845
201.446	20.783	931.225	713.809
202.461	20.943	930.308	713.698
203.475	20.498	930.222	711.747
204.490	20.183	928.861	709.353
205.504	20.193	927.699	708.445
206.519	20.173	927.027	707.787
207.534	20.113	926.229	706.871
208.548	20.209	925.816	706.885
209.563	20.110	925.274	706.003
210.577	20.351	924.375	706.238
211.592	20.576	923.973	706.780
212.607	20.609	923.262	706.311
213.621	20.636	922.060	705.436
214.636	20.577	921.635	704.811
215.650	20.541	921.254	704.308
216.665	20.476	921.030	703.813
217.680	20.744	920.187	704.189
218.694	20.635	919.676	703.296
219.709	20.424	919.250	702.055
220.723	20.633	917.709	701.661
221.738	20.431	917.347	700.508
222.753	20.494	916.527	700.073
223.767	20.632	916.177	700.301
224.782	20.869	915.809	700.910
225.796	20.986	915.279	700.912
226.811	20.727	914.732	699.389
227.826	20.550	913.416	697.612
228.840	20.412	912.663	696.421
229.855	20.396	911.786	695.627
230.869	20.341	911.202	694.900
231.884	20.249	910.516	693.948
232.899	20.202	910.004	693.307
233.913	20.220	909.037	692.581
234.928	19.954	908.437	691.000
235.942	20.033	907.628	690.642
236.957	20.096	907.453	690.698
237.972	20.030	906.819	689.892
238.986	20.068	906.302	689.587
240.001	20.093	905.456	688.982
241.015	20.126	905.097	688.779
242.030	20.314	904.580	689.069
243.045	20.379	903.867	688.723
244.059	20.523	903.101	688.653
245.074	20.574	902.888	688.628
246.088	20.602	902.160	688.125
247.103	20.845	901.767	688.725
248.117	20.964	901.756	689.127
249.132	21.356	901.810	690.656
250.147	21.661	901.338	691.435
251.161	21.606	900.590	690.585
252.176	21.532	899.777	689.609
253.190	21.652	899.075	689.481
254.205	21.782	898.739	689.674
255.220	21.675	897.591	688.312
256.234	21.597	897.117	687.584
257.249	21.580	896.557	687.025
258.263	21.548	895.752	686.222
259.278	21.629	894.951	685.864
260.293	21.506	895.150	685.474
261.307	21.708	894.188	685.468
262.322	21.746	893.510	685.035
263.336	21.706	892.926	684.370
264.351	21.683	892.166	683.637
265.366	21.753	891.553	683.382
266.380	21.788	890.502	682.650
267.395	21.518	890.113	681.241
268.409	21.401	889.279	680.088
269.424	21.462	888.761	679.871
270.439	21.431	887.769	678.930
271.453	21.137	886.494	676.755
272.468	21.153	886.167	676.508
273.482	21.274	886.040	676.820
274.497	21.100	885.230	675.466
275.512	21.188	884.850	675.458
276.526	21.279	884.511	675.490
277.541	21.343	883.939	675.242
278.555	21.662	883.760	676.279
279.570	21.872	883.232	676.625
280.585	21.814	882.106	675.478
281.599	21.542	881.009	673.533
282.614	21.306	880.526	672.194
283.628	21.319	879.857	671.676
284.643	21.294	879.135	670.966
285.657	21.324	878.861	670.815
286.672	21.423	878.197	670.629
287.687	21.520	877.285	670.244
288.701	21.434	876.557	669.300
289.716	21.370	876.517	668.964
290.730	21.446	875.640	668.527
291.745	21.432	875.625	668.404
292.760	21.573	875.122	668.497
293.774	21.808	874.293	668.703
294.789	21.760	873.458	667.822
295.803	21.595	872.084	666.085
296.818	21.430	871.867	665.233
297.833	21.562	871.012	665.021
298.847	21.412	870.905	664.310
299.862	21.575	870.216	664.346
300.876	21.638	870.115	664.449
301.891	21.797	869.843	664.787
302.906	22.030	869.058	665.009
303.920	22.190	868.735	665.309
304.935	22.379	868.090	665.472
305.949	22.226	867.236	664.180
306.964	22.050	866.143	662.619
307.979	21.861	865.983	661.726
308.993	22.056	865.638	662.139
310.008	22.113	864.922	661.746
311.022	22.013	864.006	660.610
312.037	21.697	863.508	658.982
313.052	21.484	862.950	657.700
314.066	21.379	862.001	656.523
315.081	21.375	861.850	656.335
316.095	21.527	860.753	656.013
317.110	21.372	860.485	655.169
318.125	21.585	859.891	655.457
319.139	21.249	859.463	653.812
320.154	21.390	859.142	654.039
321.168	21.510	858.517	653.955
322.183	21.553	857.990	653.655
323.197	21.568	857.587	653.346
324.212	21.616	856.923	652.963
325.227	21.657	855.958	652.322
326.241	21.399	855.846	651.216
327.256	21.454	855.377	651.009
328.270	21.453	854.425	650.223
329.285	21.344	853.701	649.208
330.300	21.422	853.190	649.053
331.314	21.540	852.909	649.219
332.329	21.630	852.578	649.245
333.343	21.900	852.123	649.840
334.358	21.770	851.921	649.146
335.373	21.923	851.572	649.390
336.387	21.901	851.254	649.008
337.402	22.142	850.937	649.600
338.416	22.340	850.637	650.043
339.431	22.427	850.378	650.110
340.446	22.469	850.156	650.040
341.460	22.459	849.995	649.822
342.475	22.565	849.483	649.761
343.489	22.644	849.026	649.647
344.504	22.745	848.989	649.933
345.519	22.722	848.659	649.540
346.533	22.720	847.320	648.448
347.548	22.370	846.483	646.464
348.562	22.072	845.631	644.663
349.577	22.027	845.018	643.974
350.592	21.958	844.544	643.302
351.606	21.820	843.603	642.023
352.621	22.080	842.945	642.419
353.635	22.030	842.024	641.476
354.650	21.999	841.921	641.229
355.665	22.191	841.292	641.392
356.679	22.307	840.966	641.513
357.694	22.280	840.220	640.785
358.708	22.104	839.707	639.696
359.723	22.212	838.742	639.300
360.738	22.263	838.006	638.866
361.752	22.401	837.926	639.251
362.767	22.581	837.630	639.620
363.781	22.608	837.468	639.539
364.796	22.951	836.608	640.067
365.810	22.903	836.834	640.011
366.825	22.939	836.327	639.696
367.840	22.912	835.528	638.932
368.854	22.644	835.107	637.584
369.869	22.517	834.595	636.677
370.883	22.637	834.034	636.628
371.898	22.921	833.590	637.257
372.913	22.947	833.320	637.086
373.927	22.815	832.505	635.933
374.942	22.799	832.189	635.575
375.956	22.962	831.877	635.868
376.971	22.980	831.136	635.312
377.986	23.218	830.808	635.858
379.000	23.116	830.912	635.514
380.015	23.115	830.192	634.907
381.029	23.189	829.188	634.347
382.044	23.094	828.723	633.593
383.059	23.300	827.919	633.660
384.073	23.114	827.196	632.388
385.088	22.720	826.619	630.481
386.102	22.523	826.269	629.453
387.117	22.596	825.202	628.847
388.132	22.592	824.611	628.326
389.146	22.820	823.991	628.611
390.161	22.934	824.213	629.132
391.175	23.021	823.819	629.083
392.190	22.774	823.152	627.641
393.205	22.607	822.398	626.417
394.219	22.593	822.054	626.049
395.234	22.304	821.810	624.780
396.248	22.328	821.189	624.338
397.263	22.350	820.639	623.944
398.278	22.435	819.716	623.488
399.292	22.331	819.140	622.627
400.307	22.114	819.140	621.805
401.321	22.368	818.413	622.095
402.336	22.350	818.202	621.817
403.350	22.721	817.650	622.652
404.365	22.994	817.686	623.587
405.380	23.174	817.214	623.807
406.394	23.229	816.988	623.772
407.409	23.319	816.418	623.599
408.423	23.448	816.406	623.989
409.438	23.440	816.098	623.669
410.453	23.391	815.598	623.061
411.467	23.487	814.927	622.829
412.482	23.473	814.946	622.739
413.496	23.777	814.248	623.218
414.511	23.607	813.865	622.273
415.526	23.293	813.393	620.758
416.540	23.347	812.668	620.339
417.555	23.461	812.529	620.576
418.569	23.403	811.684	619.673
419.584	23.552	811.088	619.683
420.599	23.641	810.736	619.670
421.613	164.788	1372.623	1798.130
422.628	143.536	1454.465	1798.195
