DTS Sentinel unit serial number:	SN413079Multiplexer serial number:	ORYXHardware model number:	OX4-SRSoftware version number:	ORYX F/W v4.00 Oryx Data Collector v3.7.2.0data status	okinstallation	princeton_trtdifferential loss correction	single-endedforward channel	channel 1reverse channel	N/Adate	2019/09/12time	15:04:11forward acquisition time	60.00reverse acquisition time	0.00gamma	496.2192k internal	0.2293k external	0.2293temperature offset calibration	1.0056default loss term (dB/km)	0.3790temperature slope calibration	1.0000multiplexer offset coefficient	1.0000multiplexer slope coefficient	1.0000fibre end	0.00T internal ref (°C)	40.50T ext. ref 1 (°C)	2.35T ext. ref 2 (°C)	37.13length (m)	temperature (°C)	Stokes	anti-Stokes-747.200	407.509	-0.151	-0.327
-746.185	190.692	0.127	0.195
-745.171	261.493	-0.124	0.220
-744.156	175.500	-0.232	0.345
-743.142	543.537	-0.129	-0.315
-742.127	-200.000	-0.037	0.170
-741.112	480.574	0.012	-0.028
-740.098	56.893	-0.042	-0.042
-739.083	-132.975	-0.322	0.042
-738.069	-200.000	0.006	0.381
-737.054	-43.578	0.041	0.021
-736.039	3.014	-0.226	-0.168
-735.025	800.000	0.058	0.211
-734.010	-158.898	-0.371	0.022
-732.996	-34.855	-0.220	0.123
-731.981	-160.666	0.195	0.011
-730.966	553.207	0.144	-0.354
-729.952	800.000	0.031	0.090
-728.937	80.413	-0.062	-0.069
-727.923	366.497	-0.073	-0.150
-726.908	639.909	-0.082	-0.214
-725.894	-145.795	-0.193	-0.018
-724.879	-200.000	0.280	-0.000
-723.864	800.000	-0.014	0.054
-722.850	71.353	-0.198	-0.211
-721.835	-23.515	-0.155	-0.095
-720.821	-200.000	-0.044	-0.298
-719.806	11.382	-0.291	-0.228
-718.791	-7.246	0.275	-0.191
-717.777	-55.161	-0.132	-0.061
-716.762	-44.794	-0.221	-0.113
-715.748	-117.217	0.168	-0.031
-714.733	-20.196	-0.317	-0.199
-713.718	-200.000	0.055	-0.346
-712.704	-200.000	-0.008	-0.238
-711.689	370.453	-0.091	-0.189
-710.675	-166.456	0.181	0.008
-709.660	-62.923	0.257	-0.108
-708.645	26.866	-0.112	-0.096
-707.631	-200.000	0.004	-0.530
-706.616	-67.574	-0.138	0.055
-705.602	155.246	-0.126	0.177
-704.587	-200.000	-0.010	-0.122
-703.572	-12.304	-0.194	0.130
-702.558	10.829	0.280	0.219
-701.543	480.730	0.087	-0.201
-700.529	-200.000	0.038	0.206
-699.514	-85.860	0.067	0.021
-698.499	-200.000	0.052	-0.243
-697.485	443.093	0.040	-0.090
-696.470	25.949	0.033	-0.028
-695.456	571.332	-0.065	0.161
-694.441	277.165	0.018	0.032
-693.426	-87.655	-0.227	0.070
-692.412	-200.000	0.001	-0.180
-691.397	215.266	-0.144	-0.234
-690.383	-15.578	-0.028	-0.018
-689.368	800.000	-0.033	-0.110
-688.354	13.412	-0.277	-0.219
-687.339	230.408	0.085	-0.142
-686.324	244.983	-0.260	-0.446
-685.310	-144.974	-0.219	0.020
-684.295	-45.570	-0.374	-0.189
-683.281	800.000	0.076	0.311
-682.266	-200.000	0.179	0.001
-681.251	800.000	0.102	-0.400
-680.237	331.834	0.029	0.057
-679.222	800.000	-0.051	-0.165
-678.208	457.395	0.088	-0.199
-677.193	-107.380	0.157	-0.035
-676.178	169.314	-0.176	-0.256
-675.164	107.468	-0.231	-0.281
-674.149	-35.666	0.242	-0.134
-673.135	-200.000	-0.000	0.234
-672.120	-128.183	-0.085	-0.012
-671.105	-105.415	-0.169	-0.039
-670.091	-95.774	0.336	-0.091
-669.076	524.715	0.052	-0.125
-668.062	17.710	-0.216	0.175
-667.047	-16.585	0.095	0.062
-666.032	-48.460	0.200	-0.098
-665.018	41.159	-0.133	-0.122
-664.003	15.814	-0.146	-0.117
-662.989	-200.000	-0.024	-0.110
-661.974	351.137	-0.158	0.319
-660.959	-13.695	0.036	-0.024
-659.945	-29.603	0.228	-0.133
-658.930	-56.905	0.158	0.071
-657.916	59.574	0.269	-0.271
-656.901	-200.000	0.038	0.324
-655.886	-200.000	0.004	-0.223
-654.872	-4.703	0.144	0.102
-653.857	-15.946	0.304	-0.197
-652.843	82.787	0.093	0.103
-651.828	-135.459	-0.399	-0.049
-650.814	-89.713	-0.130	-0.039
-649.799	-41.568	-0.142	-0.075
-648.784	313.518	-0.079	-0.152
-647.770	469.125	-0.100	0.229
-646.755	-47.275	0.279	0.139
-645.741	222.438	-0.184	0.302
-644.726	-200.000	0.031	0.144
-643.711	800.000	0.047	0.203
-642.697	41.689	0.080	0.073
-641.682	99.355	-0.061	0.071
-640.668	-200.000	-0.045	-0.264
-639.653	31.689	-0.112	-0.098
-638.638	-92.489	-0.141	-0.040
-637.624	330.839	-0.109	-0.214
-636.609	290.715	0.074	0.137
-635.595	-86.766	-0.114	-0.035
-634.580	-200.000	0.027	0.487
-633.565	-200.000	-0.085	-0.416
-632.551	0.938	-0.190	-0.139
-631.536	-200.000	0.005	0.169
-630.522	-200.000	0.014	0.184
-629.507	-85.778	-0.175	0.055
-628.492	-144.948	-0.219	-0.020
-627.478	4.456	-0.124	0.093
-626.463	-129.221	0.414	0.059
-625.449	800.000	-0.089	0.376
-624.434	154.814	0.168	0.235
-623.419	43.768	-0.146	-0.136
-622.405	702.606	0.098	0.263
-621.390	104.593	-0.029	-0.034
-620.376	-200.000	-0.016	-0.416
-619.361	-200.000	-0.041	0.184
-618.346	-103.137	0.124	0.030
-617.332	43.163	-0.202	0.187
-616.317	-87.057	-0.082	0.025
-615.303	76.542	-0.230	0.249
-614.288	-4.997	-0.340	0.238
-613.273	347.094	-0.202	0.404
-612.259	-92.388	-0.329	-0.094
-611.244	-49.102	0.069	-0.034
-610.230	20.691	0.064	-0.053
-609.215	-115.739	0.254	-0.048
-608.201	-130.077	0.223	-0.031
-607.186	134.458	-0.176	0.233
-606.171	124.546	0.103	0.132
-605.157	-63.236	0.041	-0.017
-604.142	54.775	0.050	-0.049
-603.128	-200.000	-0.053	-0.264
-602.113	-97.522	0.356	-0.094
-601.098	-56.638	0.235	0.106
-600.084	68.421	-0.340	-0.355
-599.069	-139.268	-0.316	-0.035
-598.055	203.342	-0.140	-0.221
-597.040	62.323	0.140	0.142
-596.025	-22.572	-0.430	0.265
-595.011	197.912	-0.142	0.221
-593.996	-33.617	0.150	-0.084
-592.982	118.526	-0.171	0.215
-591.967	22.148	-0.147	-0.122
-590.952	-200.000	-0.025	-0.260
-589.938	-87.130	-0.112	-0.035
-588.923	-200.000	-0.003	0.109
-587.909	33.582	0.125	-0.111
-586.894	-105.079	-0.272	-0.063
-585.879	-120.263	-0.196	-0.034
-584.865	-200.000	0.012	-0.165
-583.850	-48.522	0.197	-0.096
-582.836	-200.000	0.008	0.041
-581.821	-42.607	-0.275	-0.143
-580.806	47.076	-0.094	0.089
-579.792	800.000	-0.047	-0.149
-578.777	144.124	0.125	-0.170
-577.763	158.781	0.223	-0.316
-576.748	-10.824	-0.073	-0.049
-575.733	-122.712	0.195	-0.032
-574.719	153.880	-0.041	0.058
-573.704	-175.688	-0.192	-0.005
-572.690	-108.941	-0.239	-0.052
-571.675	76.327	0.033	0.035
-570.661	452.916	0.093	-0.209
-569.646	-53.497	0.129	0.060
-568.631	-200.000	0.040	-0.217
-567.617	-37.722	0.291	0.157
-566.602	800.000	-0.098	0.390
-565.588	390.147	-0.172	0.362
-564.573	-38.183	-0.342	0.184
-563.558	220.999	0.053	-0.087
-562.544	-128.104	0.315	-0.046
-561.529	39.670	-0.114	-0.103
-560.515	53.848	-0.294	-0.287
-559.500	13.400	-0.168	-0.132
-558.485	23.050	0.114	0.095
-557.471	47.067	0.138	0.130
-556.456	27.437	0.144	-0.123
-555.442	49.701	0.214	-0.205
-554.427	-66.978	-0.405	-0.162
-553.412	-125.900	0.469	0.072
-552.398	521.880	0.134	0.319
-551.383	-61.767	-0.338	0.144
-550.369	111.400	-0.309	-0.378
-549.354	168.716	-0.097	0.141
-548.339	-0.742	-0.229	-0.165
-547.325	-200.000	-0.015	-0.218
-546.310	-153.065	0.271	0.019
-545.296	-87.979	0.348	0.106
-544.281	208.062	0.206	0.326
-543.266	-200.000	-0.003	-0.188
-542.252	-45.675	0.245	-0.123
-541.237	240.950	0.091	-0.154
-540.223	91.713	-0.275	-0.314
-539.208	-97.804	0.278	-0.073
-538.193	-107.071	0.322	0.072
-537.179	800.000	-0.025	0.086
-536.164	-129.195	0.107	-0.015
-535.150	-104.314	-0.178	-0.042
-534.135	-105.456	0.047	0.011
-533.121	229.409	-0.052	-0.085
-532.106	-200.000	0.013	-0.224
-531.091	170.413	-0.133	0.193
-530.077	106.879	0.146	-0.176
-529.062	800.000	-0.139	0.606
-528.048	-20.164	-0.148	0.093
-527.033	-34.294	-0.153	0.085
-526.018	-153.279	0.241	-0.017
-525.004	202.642	-0.052	-0.082
-523.989	-200.000	-0.023	-0.231
-522.975	94.973	0.051	0.059
-521.960	164.439	0.099	0.142
-520.945	45.316	-0.143	0.133
-519.931	-28.100	-0.248	0.145
-518.916	126.839	0.199	0.256
-517.902	-127.764	-0.211	-0.031
-516.887	800.000	-0.067	0.227
-515.872	-122.509	0.234	0.039
-514.858	-114.478	-0.287	0.056
-513.843	-200.000	-0.008	0.116
-512.829	-47.790	0.150	0.074
-511.814	-155.472	-0.113	-0.007
-510.799	800.000	-0.048	0.178
-509.785	800.000	-0.051	0.206
-508.770	-55.104	-0.218	0.099
-507.756	-28.572	-0.112	-0.066
-506.741	-7.578	-0.310	-0.212
-505.726	204.329	0.181	0.285
-504.712	800.000	-0.098	0.370
-503.697	-112.611	-0.202	0.041
-502.683	-200.000	-0.050	-0.285
-501.668	800.000	0.078	-0.288
-500.653	800.000	0.043	0.123
-499.639	-78.959	0.292	0.101
-498.624	108.141	-0.024	-0.029
-497.610	-200.000	-0.016	-0.181
-496.595	-200.000	0.056	0.283
-495.581	-97.315	0.228	-0.060
-494.566	138.668	0.199	-0.265
-493.551	-200.000	-0.023	-0.347
-492.537	-24.962	-0.027	-0.016
-491.522	-200.000	0.007	0.104
-490.508	274.289	-0.077	0.138
-489.493	800.000	0.055	0.198
-488.478	-200.000	-0.064	-0.577
-487.464	112.262	0.239	0.293
-486.449	278.963	0.021	-0.039
-485.435	107.513	-0.203	-0.245
-484.420	-200.000	-0.023	-0.417
-483.405	800.000	0.046	-0.156
-482.391	-200.000	-0.002	0.026
-481.376	-54.710	0.176	0.080
-480.362	-123.829	0.205	-0.033
-479.347	127.859	-0.374	-0.482
-478.332	386.056	0.043	0.091
-477.318	-131.154	-0.051	0.007
-476.303	-17.587	-0.041	0.026
-475.289	82.176	-0.319	0.350
-474.274	-87.220	0.198	0.061
-473.259	-48.647	-0.142	0.069
-472.245	-62.748	-0.107	-0.045
-471.230	-79.340	-0.033	0.011
-470.216	-200.000	-0.025	0.197
-469.201	800.000	0.105	0.348
-468.186	-200.000	-0.017	-0.185
-467.172	82.632	0.257	-0.283
-466.157	118.134	0.061	0.076
-465.143	-200.000	-0.005	-0.407
-464.128	604.777	0.030	0.077
-463.113	-138.923	0.310	0.034
-462.099	96.296	0.250	0.289
-461.084	-200.000	-0.018	-0.162
-460.070	-200.000	0.059	0.418
-459.055	474.438	-0.196	-0.448
-458.040	24.284	-0.035	-0.029
-457.026	-200.000	-0.005	0.362
-456.011	-200.000	0.002	0.122
-454.997	228.283	-0.136	0.225
-453.982	197.654	-0.097	0.150
-452.968	-17.016	-0.143	0.091
-451.953	-33.671	-0.200	-0.112
-450.938	21.667	-0.156	0.128
-449.924	-15.881	0.198	0.128
-448.909	-41.593	0.190	-0.099
-447.895	-127.681	0.196	0.029
-446.880	800.000	-0.069	0.212
-445.865	160.271	-0.126	-0.178
-444.851	8.138	-0.108	-0.082
-443.836	245.067	0.114	0.195
-442.822	-200.000	-0.029	0.143
-441.807	138.766	-0.157	-0.209
-440.792	800.000	-0.105	0.331
-439.778	93.939	-0.171	0.196
-438.763	-109.665	-0.383	-0.082
-437.749	-104.563	-0.334	-0.078
-436.734	204.533	0.139	-0.218
-435.719	47.971	0.220	-0.208
-434.705	756.582	0.149	0.407
-433.690	-108.603	-0.160	-0.035
-432.676	42.927	-0.239	-0.221
-431.661	41.346	-0.223	0.204
-430.646	-68.118	0.342	-0.135
-429.632	-200.000	0.016	-0.238
-428.617	463.584	0.053	-0.120
-427.603	-92.983	-0.131	-0.037
-426.588	800.000	-0.040	0.132
-425.573	592.536	0.093	-0.233
-424.559	143.443	-0.155	-0.208
-423.544	-200.000	0.023	-0.201
-422.530	800.000	0.018	-0.067
-421.515	-200.000	0.010	-0.129
-420.500	-114.127	0.225	-0.044
-419.486	33.274	0.064	-0.056
-418.471	-127.884	0.127	0.018
-417.457	-42.510	-0.249	0.128
-416.442	-200.000	-0.006	0.081
-415.428	-200.000	-0.049	-0.422
-414.413	-60.419	-0.120	-0.052
-413.398	-113.284	-0.013	0.003
-412.384	800.000	0.104	-0.400
-411.369	800.000	0.068	-0.248
-410.355	0.943	-0.293	-0.212
-409.340	-49.569	-0.098	0.047
-408.325	-53.015	-0.048	0.022
-407.311	-47.104	0.336	0.166
-406.296	800.000	-0.057	-0.188
-405.282	645.380	-0.122	-0.313
-404.267	-88.159	-0.237	-0.072
-403.252	14.067	-0.026	-0.021
-402.238	-200.000	-0.010	0.201
-401.223	-200.000	-0.003	0.026
-400.209	34.516	-0.144	-0.127
-399.194	65.894	-0.045	0.046
-398.179	-200.000	0.013	-0.082
-397.165	-90.624	-0.359	0.105
-396.150	800.000	-0.002	-0.007
-395.136	104.816	-0.197	0.235
-394.121	20.464	0.075	-0.061
-393.106	81.897	-0.134	0.147
-392.092	-24.363	-0.142	0.086
-391.077	-200.000	0.029	-0.135
-390.063	1.856	-0.148	-0.108
-389.048	105.834	-0.181	-0.216
-388.033	17.107	-0.189	0.151
-387.019	800.000	-0.034	-0.131
-386.004	-106.262	-0.073	-0.017
-384.990	164.629	0.279	-0.397
-383.975	758.055	0.117	0.320
-382.960	800.000	0.055	-0.211
-381.946	-111.280	-0.518	-0.107
-380.931	-84.976	-0.280	-0.089
-379.917	236.837	0.266	-0.444
-378.902	-83.885	0.224	0.072
-377.888	250.168	0.216	-0.371
-376.873	2.499	-0.166	0.121
-375.858	22.385	0.093	-0.077
-374.844	-200.000	0.000	-0.161
-373.829	545.992	-0.020	-0.047
-372.815	-112.978	-0.456	0.091
-371.800	-200.000	0.020	0.129
-370.785	168.279	-0.133	-0.191
-369.771	800.000	-0.033	-0.134
-368.756	-106.594	0.062	-0.014
-367.742	-200.000	0.004	0.082
-366.727	800.000	0.066	0.196
-365.712	-200.000	0.017	0.349
-364.698	493.774	0.024	-0.055
-363.683	-200.000	-0.044	0.216
-362.669	18.594	0.221	-0.178
-361.654	392.623	-0.183	0.384
-360.639	-12.162	0.117	0.077
-359.625	30.381	0.198	0.171
-358.610	-200.000	-0.005	-0.128
-357.596	625.884	0.027	-0.068
-356.581	510.118	0.176	-0.413
-355.566	-200.000	0.082	-0.398
-354.552	800.000	-0.063	0.181
-353.537	167.061	0.130	-0.186
-352.523	-146.386	0.112	0.010
-351.508	-41.942	0.045	0.023
-350.493	-200.000	0.018	0.163
-349.479	-200.000	0.018	-0.082
-348.464	-39.648	0.559	-0.295
-347.450	268.222	-0.077	-0.136
-346.435	-105.822	0.220	0.050
-345.420	9.550	-0.347	0.264
-344.406	157.460	-0.218	-0.304
-343.391	259.329	0.137	-0.239
-342.377	108.686	0.205	-0.247
-341.362	-114.173	-0.307	-0.060
-340.348	800.000	0.032	-0.099
-339.333	-127.416	0.073	-0.011
-338.318	-101.221	-0.254	0.062
-337.304	84.447	-0.106	-0.117
-336.289	23.221	-0.161	-0.133
-335.275	-113.272	-0.271	0.054
-334.260	-95.674	-0.206	-0.055
-333.245	6.548	-0.297	-0.222
-332.231	682.531	0.079	-0.206
-331.216	-6.915	-0.196	0.134
-330.202	-12.148	0.301	-0.199
-329.187	-7.758	0.396	0.269
-328.172	-200.000	-0.007	0.140
-327.158	386.514	-0.072	-0.149
-326.143	184.555	0.211	-0.314
-325.129	-70.490	0.143	-0.054
-324.114	-153.073	-0.245	0.017
-323.099	77.865	0.118	0.126
-322.085	7.322	0.087	-0.065
-321.070	134.049	0.018	0.023
-320.056	800.000	-0.059	-0.198
-319.041	-71.056	0.119	-0.045
-318.026	-68.929	-0.271	-0.105
-317.012	326.914	0.068	0.132
-315.997	-23.157	-0.123	0.074
-314.983	67.834	0.260	-0.267
-313.968	-18.047	-0.151	-0.095
-312.953	800.000	0.041	-0.169
-311.939	270.830	0.192	-0.340
-310.924	492.434	-0.156	-0.360
-309.910	21.967	0.337	0.277
-308.895	74.549	0.081	0.086
-307.880	-176.443	-0.208	-0.005
-306.866	60.537	0.034	-0.034
-305.851	-200.000	-0.015	0.248
-304.837	-101.612	0.081	-0.020
-303.822	73.907	0.046	-0.048
-302.807	34.286	-0.070	0.062
-301.793	545.765	0.081	0.195
-300.778	299.520	-0.103	0.191
-299.764	-129.930	0.113	0.016
-298.749	-114.136	-0.134	0.026
-297.735	-100.712	-0.284	0.070
-296.720	-64.422	-0.067	-0.028
-295.705	21.669	0.033	0.027
-294.691	-15.877	0.060	-0.038
-293.676	-94.013	-0.334	0.092
-292.662	117.062	0.064	0.079
-291.647	-118.187	-0.171	-0.031
-290.632	800.000	0.087	0.380
-289.618	-73.602	-0.042	0.016
-288.603	168.193	0.155	0.221
-287.589	-119.484	-0.274	0.048
-286.574	-79.145	0.117	-0.040
-285.559	800.000	0.051	-0.182
-284.545	800.000	-0.064	0.225
-283.530	-83.121	0.250	-0.081
-282.516	-111.160	0.191	-0.039
-281.501	-200.000	0.001	0.240
-280.486	211.790	-0.027	-0.043
-279.472	39.468	-0.162	0.146
-278.457	-200.000	-0.022	-0.355
-277.443	38.884	0.226	0.203
-276.428	-200.000	0.014	-0.284
-275.413	-70.026	0.147	0.056
-274.399	621.473	0.103	-0.261
-273.384	46.653	0.174	0.163
-272.370	0.586	0.192	-0.138
-271.355	-200.000	0.015	0.082
-270.340	45.184	-0.175	0.162
-269.326	104.777	-0.215	-0.254
-268.311	-98.073	0.396	0.102
-267.297	-200.000	-0.021	-0.179
-266.282	285.418	-0.052	-0.095
-265.267	-200.000	-0.027	0.125
-264.253	-182.655	0.384	0.007
-263.238	-200.000	-0.012	-0.216
-262.224	-200.000	-0.003	0.115
-261.209	-179.177	0.063	0.001
-260.195	29.586	-0.125	-0.107
-259.180	-200.000	0.065	0.306
-258.165	102.319	0.198	-0.233
-257.151	-9.432	0.190	-0.128
-256.136	3.646	0.208	-0.152
-255.122	-200.000	-0.017	0.303
-254.107	377.819	-0.006	-0.012
-253.092	-59.083	-0.075	0.032
-252.078	-117.324	-0.110	0.020
-251.063	800.000	-0.029	0.090
-250.049	433.150	0.073	0.158
-249.034	800.000	0.085	0.306
-248.019	800.000	-0.093	-0.399
-247.005	444.452	-0.145	-0.320
-245.990	-110.940	0.355	0.073
-244.976	-200.000	-0.037	-0.328
-243.961	-52.706	0.088	0.041
-242.946	-112.622	-0.170	-0.034
-241.932	212.905	0.139	-0.220
-240.917	757.913	-0.099	-0.270
-239.903	651.962	0.049	0.125
-238.888	20.807	0.088	0.072
-237.873	800.000	-0.044	0.154
-236.859	131.586	-0.196	0.253
-235.844	-74.808	0.235	0.085
-234.830	7.923	0.158	0.118
-233.815	-93.279	0.227	0.063
-232.800	-56.590	0.138	0.061
-231.786	-118.821	-0.092	0.016
-230.771	-190.490	-0.033	-0.000
-229.757	800.000	0.050	0.139
-228.742	97.007	-0.039	0.045
-227.727	-43.083	-0.082	0.042
-226.713	94.268	0.264	0.301
-225.698	-158.034	0.173	-0.010
-224.684	-8.913	-0.077	0.052
-223.669	99.835	0.097	-0.112
-222.655	-83.302	-0.305	-0.098
-221.640	193.348	0.159	0.242
-220.625	186.508	-0.137	-0.205
-219.611	-200.000	0.002	-0.010
-218.596	-200.000	-0.017	0.227
-217.582	-200.000	0.072	0.000
-216.567	-153.491	0.202	0.014
-215.552	-87.683	-0.069	-0.021
-214.538	610.715	-0.081	0.202
-213.523	-200.000	-0.029	-0.178
-212.509	800.000	0.064	-0.189
-211.494	196.494	-0.046	-0.070
-210.479	-65.989	0.290	0.116
-209.465	-27.480	0.224	-0.131
-208.450	-179.197	0.376	0.008
-207.436	75.952	-0.094	0.100
-206.421	443.749	0.089	0.196
-205.406	32.810	-0.121	-0.105
-204.392	800.000	0.075	0.327
-203.377	-52.966	0.133	-0.061
-202.363	800.000	0.113	0.340
-201.348	-121.021	0.293	-0.049
-200.333	395.856	0.112	0.235
-199.319	1.340	0.166	-0.119
-198.304	800.000	0.103	0.287
-197.290	-200.000	-0.123	-0.624
-196.275	316.652	0.082	-0.155
-195.260	15.924	0.105	-0.082
-194.246	27.736	0.125	-0.106
-193.231	702.970	0.018	0.048
-192.217	82.008	0.112	0.121
-191.202	43.488	0.185	0.169
-190.187	-200.000	0.021	-0.164
-189.173	80.898	-0.038	-0.041
-188.158	800.000	0.110	-0.314
-187.144	27.398	-0.080	-0.068
-186.129	330.399	0.079	0.153
-185.114	40.653	-0.205	0.185
-184.100	250.708	-0.093	-0.158
-183.085	-200.000	-0.054	0.336
-182.071	-13.910	-0.416	-0.269
-181.056	6.181	0.284	0.211
-180.042	79.181	0.127	-0.136
-179.027	225.674	0.298	0.484
-178.012	787.806	0.046	-0.126
-176.998	289.577	0.244	0.443
-175.983	-72.368	0.189	0.070
-174.969	176.715	-0.168	0.244
-173.954	217.259	-0.060	0.096
-172.939	-129.287	-0.191	-0.027
-171.925	-119.067	-0.350	0.061
-170.910	197.495	-0.110	0.167
-169.896	-142.441	-0.037	-0.004
-168.881	-79.291	0.160	0.054
-167.866	-42.425	0.169	-0.086
-166.852	-21.510	-0.302	0.184
-165.837	-200.000	-0.016	0.183
-164.823	-128.950	0.148	-0.021
-163.808	-78.159	0.131	0.045
-162.793	70.487	-0.093	-0.096
-161.779	101.108	-0.294	0.342
-160.764	-123.290	0.091	-0.015
-159.750	-168.527	0.146	0.006
-158.735	-75.485	0.279	-0.099
-157.720	73.655	0.068	0.072
-156.706	553.301	0.194	0.467
-155.691	14.297	0.135	0.105
-154.677	58.338	0.151	-0.148
-153.662	-89.199	0.141	0.042
-152.647	-25.347	0.076	-0.045
-151.633	-1.496	0.172	0.121
-150.618	-124.710	0.444	0.069
-149.604	-200.000	-0.001	0.309
-148.589	67.641	0.194	0.198
-147.574	594.322	-0.050	-0.124
-146.560	800.000	0.048	-0.137
-145.545	45.673	-0.149	0.138
-144.531	125.209	0.080	0.101
-143.516	800.000	0.095	0.293
-142.502	1.241	-0.236	-0.169
-141.487	21.407	-0.366	-0.298
-140.472	-27.411	-0.169	0.098
-139.458	800.000	0.088	0.295
-138.443	-200.000	-0.018	0.172
-137.429	398.710	-0.108	-0.226
-136.414	9.599	0.209	0.158
-135.399	527.196	0.072	0.170
-134.385	-95.818	0.302	-0.080
-133.370	200.375	-0.038	0.058
-132.356	436.361	0.037	-0.080
-131.341	-58.750	-0.089	0.039
-130.326	-117.091	-0.110	0.020
-129.312	82.603	-0.186	0.202
-128.297	800.000	-0.034	-0.117
-127.283	-89.018	-0.249	0.074
-126.268	-9.599	0.460	0.306
-125.253	-25.580	-0.371	0.219
-124.239	-71.228	-0.095	0.036
-123.224	800.000	0.046	0.161
-122.210	-131.795	0.059	0.008
-121.195	225.065	-0.195	-0.315
-120.180	297.757	-0.054	-0.099
-119.166	800.000	-0.043	0.136
-118.151	-148.940	-0.085	0.007
-117.137	105.416	-0.067	0.079
-116.122	24.895	0.129	-0.107
-115.107	105.398	-0.230	0.271
-114.093	-200.000	0.023	-0.134
-113.078	-14.738	-0.182	0.117
-112.064	-74.566	0.163	0.059
-111.049	-200.000	-0.004	-0.417
-110.034	-1.929	-0.234	-0.165
-109.020	-86.746	0.025	0.008
-108.005	6.206	0.170	-0.126
-106.991	-200.000	0.006	-0.160
-105.976	37.696	-0.056	0.050
-104.962	-84.830	0.143	0.045
-103.947	-126.599	-0.246	0.036
-102.932	-165.122	0.065	-0.003
-101.918	-200.000	0.076	-0.353
-100.903	61.739	0.250	0.248
-99.889	-101.453	0.324	-0.079
-98.874	800.000	-0.097	0.370
-97.859	64.665	-0.057	-0.058
-96.845	-102.394	-0.338	-0.081
-95.830	-78.314	-0.386	0.132
-94.816	57.941	-0.264	0.258
-93.801	637.948	-0.067	-0.170
-92.786	229.450	0.155	0.253
-91.772	-200.000	0.004	0.035
-90.757	-87.515	0.313	0.094
-89.743	158.824	0.130	0.181
-88.728	-200.000	-0.004	0.060
-87.713	-200.000	-0.003	-0.127
-86.699	-141.955	0.293	0.029
-85.684	452.093	-0.037	0.081
-84.670	337.231	-0.082	0.158
-83.655	-200.000	0.005	-0.316
-82.640	-200.000	0.062	-0.295
-81.626	310.314	0.041	0.077
-80.611	-82.636	0.133	0.043
-79.597	-200.000	0.011	-0.230
-78.582	-65.329	-0.012	-0.005
-77.567	104.622	0.152	0.179
-76.553	51.616	0.185	-0.175
-75.538	616.135	-0.087	-0.218
-74.524	297.621	-0.151	-0.277
-73.509	711.247	-0.072	-0.190
-72.494	533.232	-0.148	-0.348
-71.480	800.000	0.055	-0.167
-70.465	8.671	-0.034	-0.025
-69.451	437.381	0.142	-0.309
-68.436	-200.000	0.006	-0.173
-67.422	-104.809	0.189	0.043
-66.407	-200.000	-0.007	-0.144
-65.392	87.494	-0.082	0.091
-64.378	45.643	-0.220	0.203
-63.363	111.591	0.161	0.193
-62.349	-55.651	0.079	-0.035
-61.334	79.843	-0.743	-0.795
-60.319	-88.861	0.378	0.112
-59.305	526.079	0.406	-0.953
-58.290	418.414	0.260	0.555
-57.276	335.532	0.789	1.525
-56.261	-200.000	76.827	513.943
-55.246	517.999	1328.487	3096.259
-54.232	147.282	2556.492	3427.060
-53.217	116.613	2223.675	2716.429
-52.203	52.122	1671.261	1586.093
-51.188	44.138	1397.103	1275.922
-50.173	40.714	1351.227	1213.102
-49.159	59.301	1386.411	1359.665
-48.144	66.134	1405.558	1420.451
-47.130	44.737	1368.071	1252.896
-46.115	40.716	1351.239	1212.931
-45.100	40.488	1346.932	1207.631
-44.086	40.341	1344.813	1204.789
-43.071	40.452	1341.724	1202.647
-42.057	40.310	1339.962	1200.160
-41.042	40.228	1338.430	1198.245
-40.027	40.329	1336.582	1197.151
-39.013	40.377	1334.722	1195.725
-37.998	40.366	1332.915	1193.996
-36.984	40.469	1330.757	1192.631
-35.969	40.588	1328.860	1191.602
-34.954	40.568	1327.534	1190.242
-33.940	40.597	1326.348	1189.310
-32.925	40.508	1325.281	1187.773
-31.911	40.627	1323.410	1186.761
-30.896	40.505	1322.418	1185.090
-29.881	40.615	1320.295	1183.802
-28.867	40.636	1319.128	1182.831
-27.852	40.641	1317.576	1181.426
-26.838	40.673	1315.931	1180.093
-25.823	40.648	1314.619	1178.722
-24.809	40.533	1313.676	1177.143
-23.794	40.508	1312.247	1175.671
-22.779	40.615	1310.671	1174.845
-21.765	40.500	1309.328	1172.913
-20.750	40.694	1307.705	1172.558
-19.736	40.550	1306.361	1170.457
-18.721	40.495	1305.178	1169.025
-17.706	40.459	1304.383	1168.056
-16.692	40.495	1303.050	1167.030
-15.677	40.395	1302.269	1165.692
-14.663	40.464	1301.200	1165.095
-13.648	40.372	1300.051	1163.479
-12.633	40.318	1299.195	1162.354
-11.619	40.306	1298.221	1161.363
-10.604	40.464	1297.075	1161.217
-9.590	40.496	1296.223	1160.599
-8.575	40.471	1294.683	1159.025
-7.560	40.418	1294.377	1158.399
-6.546	40.480	1293.565	1157.987
-5.531	40.401	1292.505	1156.529
-4.517	40.421	1291.442	1155.649
-3.502	40.423	1290.644	1154.900
-2.487	40.393	1289.733	1153.868
-1.473	40.530	1285.721	1151.024
-0.458	39.405	1271.066	1131.401
0.556	36.061	1251.464	1090.511
1.571	31.989	1255.261	1070.552
2.586	30.707	1270.296	1075.869
3.600	28.810	1258.946	1055.279
4.615	20.535	1180.673	944.806
5.629	8.383	1096.903	815.961
6.644	2.842	1073.084	770.421
7.659	2.306	1070.386	765.734
8.673	2.184	1068.697	763.848
9.688	2.070	1067.794	762.563
10.702	2.474	1066.337	763.472
11.717	9.407	1076.998	805.860
12.731	20.457	1093.174	873.776
13.746	25.480	1098.128	902.967
14.761	25.779	1098.545	904.732
15.775	25.610	1098.602	903.846
16.790	25.506	1097.182	902.079
17.804	25.406	1096.912	901.273
18.819	25.519	1096.364	901.310
19.834	25.580	1096.189	901.391
20.848	25.658	1095.270	900.946
21.863	25.693	1094.949	900.780
22.877	25.665	1094.077	899.842
23.892	25.585	1093.547	898.924
24.907	25.637	1092.616	898.343
25.921	25.597	1091.672	897.288
26.936	25.541	1090.529	895.987
27.950	25.559	1088.774	894.557
28.965	25.325	1087.335	892.134
29.980	25.422	1085.822	891.295
30.994	25.780	1084.467	891.877
32.009	25.605	1083.813	890.393
33.023	25.552	1082.419	888.906
34.038	25.600	1082.161	888.853
35.053	25.629	1081.162	888.099
36.067	25.660	1080.224	887.403
37.082	25.718	1079.689	887.171
38.096	25.805	1079.500	887.362
39.111	25.916	1078.210	886.772
40.126	25.831	1076.606	884.959
41.140	25.393	1075.068	881.463
42.155	25.223	1073.230	879.046
43.169	25.317	1072.852	879.119
44.184	25.309	1071.883	878.209
45.199	25.172	1071.080	876.806
46.213	25.340	1069.671	876.394
47.228	25.403	1069.226	876.258
48.242	25.393	1068.955	875.912
49.257	25.547	1067.622	875.489
50.271	25.519	1067.106	874.855
51.286	25.726	1066.278	875.101
52.301	25.651	1065.268	873.834
53.315	25.512	1064.460	872.419
54.330	25.484	1063.208	871.179
55.344	25.510	1062.948	871.016
56.359	25.428	1062.001	869.762
57.374	25.281	1060.770	867.971
58.388	25.295	1060.233	867.522
59.403	25.365	1059.238	866.967
60.417	25.250	1058.342	865.605
61.432	25.255	1057.731	865.053
62.447	25.437	1056.943	865.207
63.461	25.458	1056.575	864.929
64.476	25.371	1055.445	863.509
65.490	25.253	1054.583	862.162
66.505	25.470	1053.562	862.289
67.520	25.224	1053.681	861.130
68.534	25.221	1052.281	859.898
69.549	24.854	1051.260	857.231
70.563	24.791	1050.656	856.361
71.578	24.862	1049.595	855.760
72.593	24.544	1048.895	853.590
73.607	24.811	1047.971	854.041
74.622	25.102	1047.690	855.125
75.636	25.143	1047.094	854.758
76.651	24.903	1046.152	852.768
77.666	24.893	1045.276	851.932
78.680	24.982	1044.724	851.830
79.695	25.050	1044.004	851.490
80.709	25.317	1042.827	851.721
81.724	25.082	1042.676	850.411
82.739	25.288	1041.375	850.249
83.753	25.613	1040.901	851.323
84.768	25.815	1040.352	851.755
85.782	26.013	1039.472	851.895
86.797	25.842	1038.541	850.249
87.812	25.721	1037.861	849.045
88.826	25.826	1036.586	848.425
89.841	25.966	1035.945	848.481
90.855	25.875	1035.026	847.227
91.870	25.823	1034.284	846.299
92.884	25.796	1032.278	844.459
93.899	25.612	1031.592	842.960
94.914	25.832	1030.953	843.394
95.928	25.645	1030.029	841.686
96.943	25.535	1028.530	839.876
97.957	25.218	1027.327	837.339
98.972	25.129	1026.588	836.249
99.987	25.339	1025.882	836.578
101.001	25.542	1024.995	836.725
102.016	25.560	1024.324	836.186
103.030	25.431	1023.415	834.771
104.045	25.399	1022.005	833.400
105.060	25.200	1021.335	831.857
106.074	25.279	1020.892	831.789
107.089	25.677	1020.323	833.092
108.103	25.605	1018.956	831.568
109.118	25.221	1018.150	829.067
110.133	25.311	1016.993	828.466
111.147	25.072	1015.809	826.324
112.162	24.927	1014.753	824.727
113.176	25.274	1014.354	825.925
114.191	25.196	1013.283	824.621
115.206	24.880	1012.598	822.540
116.220	24.887	1011.341	821.476
117.235	25.047	1010.347	821.330
118.249	24.964	1009.810	820.443
119.264	24.911	1009.203	819.633
120.279	24.816	1008.895	818.877
121.293	25.073	1007.692	819.000
122.308	25.110	1006.451	818.088
123.322	25.000	1005.475	816.722
124.337	24.859	1004.213	814.981
125.352	24.274	1002.765	811.077
126.366	24.320	1001.634	810.297
127.381	24.851	1002.271	813.157
128.395	25.462	1001.573	815.291
129.410	25.407	1001.099	814.583
130.424	25.582	999.829	814.267
131.439	25.532	998.858	813.180
132.454	25.568	997.860	812.460
133.468	25.409	997.316	811.225
134.483	25.523	996.347	810.877
135.497	25.861	995.571	811.700
136.512	25.861	994.773	810.977
137.527	25.841	993.818	810.035
138.541	25.894	993.291	809.775
139.556	25.794	992.826	808.872
140.570	25.898	991.896	808.512
141.585	25.894	990.632	807.390
142.600	25.885	989.297	806.191
143.614	26.058	988.924	806.588
144.629	26.119	988.192	806.192
145.643	25.935	987.207	804.497
146.658	25.870	985.302	802.584
147.673	25.637	984.684	800.975
148.687	25.559	983.661	799.725
149.702	25.453	982.403	798.158
150.716	25.641	981.316	798.039
151.731	25.731	981.106	798.195
152.746	25.935	980.254	798.337
153.760	26.017	979.823	798.279
154.775	25.953	979.667	797.798
155.789	25.921	978.594	796.712
156.804	25.948	977.325	795.725
157.819	25.850	976.932	794.902
158.833	25.992	975.603	794.377
159.848	26.073	974.619	793.862
160.862	25.959	973.540	792.411
161.877	25.899	972.617	791.330
162.892	25.976	971.456	790.651
163.906	25.819	970.609	789.203
164.921	25.823	969.840	788.528
165.935	25.954	968.712	788.113
166.950	25.941	967.753	787.204
167.964	25.948	966.626	786.251
168.979	25.874	965.707	785.111
169.994	25.740	964.780	783.704
171.008	25.842	964.718	784.029
172.023	25.944	963.813	783.665
173.037	25.862	962.399	782.091
174.052	25.586	961.956	780.466
175.067	25.678	961.178	780.165
176.081	25.680	960.651	779.677
177.096	25.642	960.304	779.161
178.110	25.374	959.149	776.993
179.125	25.157	958.199	775.219
180.140	25.291	958.033	775.594
181.154	25.436	957.761	775.931
182.169	25.702	957.673	776.939
183.183	25.954	957.009	777.422
184.198	25.874	955.823	776.045
185.213	25.910	955.143	775.578
186.227	25.898	954.361	774.822
187.242	25.929	953.568	774.244
188.256	25.989	952.874	773.867
189.271	25.983	952.491	773.463
190.286	25.719	950.984	771.040
191.300	24.955	949.847	766.783
192.315	24.274	947.769	762.124
193.329	24.101	947.265	760.911
194.344	25.072	948.366	765.884
195.359	25.597	948.624	768.267
196.373	25.899	947.528	768.597
197.388	25.724	947.015	767.370
198.402	25.903	945.921	767.176
199.417	25.770	945.515	766.214
200.432	25.607	944.314	764.478
201.446	25.403	944.153	763.416
202.461	25.519	943.547	763.347
203.475	24.591	941.768	757.906
204.490	23.904	940.218	753.681
205.504	24.812	940.237	757.475
206.519	25.311	940.473	759.713
207.534	25.406	940.024	759.682
208.548	25.954	939.455	761.471
209.563	25.598	938.883	759.439
210.577	25.571	938.209	758.712
211.592	25.936	938.201	760.177
212.607	25.886	936.984	758.915
213.621	25.996	936.376	758.819
214.636	25.912	935.583	757.754
215.650	25.959	934.575	757.067
216.665	26.087	934.122	757.172
217.680	26.020	933.476	756.299
218.694	25.600	932.131	753.384
219.709	25.436	931.348	751.999
220.723	25.599	931.369	752.630
221.738	25.730	930.774	752.632
222.753	25.705	930.034	751.863
223.767	25.975	929.440	752.443
224.782	26.130	929.677	753.214
225.796	26.049	929.074	752.321
226.811	25.359	927.709	748.277
227.826	24.733	926.104	744.311
228.840	24.944	925.262	744.446
229.855	25.016	925.234	744.655
230.869	24.599	923.875	741.767
231.884	25.006	924.055	743.536
232.899	25.722	924.066	746.448
233.913	25.607	923.283	745.272
234.928	25.766	922.458	745.201
235.942	25.679	922.031	744.429
236.957	25.364	920.914	742.158
237.972	25.310	920.565	741.589
238.986	25.419	919.980	741.503
240.001	25.386	919.414	740.842
241.015	25.478	918.998	740.820
242.030	25.728	918.510	741.394
243.045	25.796	918.099	741.274
244.059	25.944	917.595	741.412
245.074	25.658	916.824	739.548
246.088	25.368	915.670	737.362
247.103	25.775	915.249	738.627
248.117	26.153	915.698	740.472
249.132	26.393	914.775	740.645
250.147	26.512	914.630	740.949
251.161	26.682	914.104	741.156
252.176	26.630	913.593	740.461
253.190	26.656	913.100	740.105
254.205	27.055	912.382	741.083
255.220	26.800	911.553	739.305
256.234	26.661	911.034	738.254
257.249	26.631	910.433	737.576
258.263	26.532	909.861	736.646
259.278	26.696	908.636	736.255
260.293	26.779	908.033	736.039
261.307	26.640	907.505	734.982
262.322	26.471	906.760	733.627
263.336	25.850	904.589	729.292
264.351	24.813	902.806	723.600
265.366	24.791	902.744	723.398
266.380	25.910	903.367	728.359
267.395	26.312	902.940	729.572
268.409	26.107	902.446	728.280
269.424	26.438	901.707	728.953
270.439	26.507	901.142	728.712
271.453	26.643	900.516	728.686
272.468	26.804	900.621	729.357
273.482	26.665	900.151	728.352
274.497	26.273	898.911	725.710
275.512	25.946	897.820	723.454
276.526	26.354	897.922	725.108
277.541	26.484	897.815	725.480
278.555	26.410	896.623	724.155
279.570	26.274	895.730	722.825
280.585	26.405	895.545	723.138
281.599	26.317	894.135	721.581
282.614	25.720	893.211	718.390
283.628	25.760	892.644	718.033
284.643	26.129	892.574	719.384
285.657	25.818	891.437	717.163
286.672	25.428	890.369	714.691
287.687	26.051	890.664	717.342
288.701	26.171	889.850	717.100
289.716	25.822	888.825	714.824
290.730	25.756	888.399	714.158
291.745	25.505	887.282	712.203
292.760	25.752	887.500	713.292
293.774	26.741	887.889	717.461
294.789	27.071	887.242	718.178
295.803	27.086	886.975	717.958
296.818	27.216	886.199	717.778
297.833	26.663	885.213	714.737
298.847	26.418	884.891	713.447
299.862	26.771	884.298	714.297
300.876	27.105	883.927	715.251
301.891	26.786	883.567	713.638
302.906	26.473	882.462	711.452
303.920	26.765	882.008	712.171
304.935	26.962	881.720	712.648
305.949	26.968	881.296	712.268
306.964	26.691	880.431	710.418
307.979	26.914	879.545	710.515
308.993	27.154	879.799	711.598
310.008	27.045	879.325	710.723
311.022	26.774	878.339	708.805
312.037	26.669	877.552	707.698
313.052	26.426	876.525	705.856
314.066	25.582	874.891	701.190
315.081	25.164	874.207	698.951
316.095	26.106	874.706	702.959
317.110	26.618	874.403	704.648
318.125	25.711	872.959	699.895
319.139	24.879	870.978	695.015
320.154	24.692	871.094	694.322
321.168	25.664	871.404	698.279
322.183	26.409	871.567	701.240
323.197	26.573	871.081	701.421
324.212	26.739	870.878	701.840
325.227	26.741	870.230	701.263
326.241	26.557	869.798	700.140
327.256	26.523	869.165	699.436
328.270	26.564	868.076	698.660
329.285	26.302	866.959	696.687
330.300	25.975	866.290	694.827
331.314	26.150	866.403	695.534
332.329	26.730	865.897	697.298
333.343	26.871	865.960	697.829
334.358	26.719	865.850	697.094
335.373	26.717	865.710	696.912
336.387	27.256	865.103	698.431
337.402	27.375	864.771	698.560
338.416	27.207	864.674	697.772
339.431	27.272	864.104	697.503
340.446	27.479	863.858	698.035
341.460	27.253	863.524	696.835
342.475	27.041	862.853	695.423
343.489	27.340	862.237	696.008
344.504	27.387	862.252	696.136
345.519	27.618	861.688	696.503
346.533	27.819	861.126	696.754
347.548	27.661	860.698	695.745
348.562	27.700	859.779	695.088
349.577	27.626	859.365	694.410
350.592	27.595	858.754	693.736
351.606	27.582	857.916	692.951
352.621	27.555	857.083	692.113
353.635	27.372	855.961	690.453
354.650	26.784	854.474	686.965
355.665	25.779	853.354	682.198
356.679	26.200	853.340	683.720
357.694	26.657	852.840	684.989
358.708	26.422	852.478	683.749
359.723	27.040	852.000	685.637
360.738	27.305	851.730	686.361
361.752	27.447	850.902	686.167
362.767	27.796	851.050	687.542
363.781	27.937	850.435	687.514
364.796	28.077	850.164	687.760
365.810	28.163	849.785	687.718
366.825	28.019	849.368	686.777
367.840	27.849	848.600	685.456
368.854	27.431	847.656	683.067
369.869	27.394	847.413	682.671
370.883	27.374	846.774	682.019
371.898	27.165	846.523	680.975
372.913	27.380	846.091	681.374
373.927	27.522	845.411	681.296
374.942	27.650	845.192	681.539
375.956	27.694	844.994	681.483
376.971	27.831	844.594	681.611
377.986	28.129	843.996	682.180
379.000	27.907	843.335	680.755
380.015	27.880	842.497	679.921
381.029	27.870	842.223	679.600
382.044	28.053	841.655	679.765
383.059	28.012	841.061	679.070
384.073	28.015	840.605	678.654
385.088	27.899	840.032	677.701
386.102	27.826	839.308	676.787
387.117	27.740	838.526	675.777
388.132	27.424	837.558	673.768
389.146	26.911	836.524	670.982
390.161	27.284	836.671	672.419
391.175	27.746	836.566	673.980
392.190	27.328	835.260	671.329
393.205	26.088	833.129	664.990
394.219	24.477	831.176	657.445
395.234	24.255	831.112	656.518
396.248	26.042	832.293	663.977
397.263	27.597	833.232	670.390
398.278	27.461	832.846	669.521
399.292	27.248	832.361	668.288
400.307	27.180	831.897	667.609
401.321	27.273	831.759	667.780
402.336	27.691	831.524	669.066
403.350	28.088	831.649	670.563
404.365	28.393	831.255	671.302
405.380	28.661	831.183	672.167
406.394	28.801	830.258	671.873
407.409	28.672	829.829	670.995
408.423	28.563	829.354	670.153
409.438	28.630	829.354	670.336
410.453	28.755	828.606	670.131
411.467	28.824	827.923	669.769
412.482	28.761	827.370	669.034
413.496	28.872	827.394	669.397
414.511	28.798	827.001	668.751
415.526	28.807	825.859	667.800
416.540	28.769	825.231	667.096
417.555	28.479	824.643	665.510
418.569	28.380	824.587	665.048
419.584	28.499	824.134	665.054
420.599	28.312	823.192	663.558
421.613	95.690	1266.589	1378.999
422.628	82.582	1331.216	1379.138
