DTS Sentinel unit serial number:	SN413079Multiplexer serial number:	ORYXHardware model number:	OX4-SRSoftware version number:	ORYX F/W v4.00 Oryx Data Collector v3.7.2.0data status	okinstallation	princeton_trtdifferential loss correction	single-endedforward channel	channel 1reverse channel	N/Adate	2019/09/15time	11:18:35forward acquisition time	60.00reverse acquisition time	0.00gamma	496.2192k internal	0.2308k external	0.2308temperature offset calibration	0.9986default loss term (dB/km)	0.3790temperature slope calibration	1.0000multiplexer offset coefficient	1.0000multiplexer slope coefficient	1.0000fibre end	0.00T internal ref (°C)	34.30T ext. ref 1 (°C)	5.00T ext. ref 2 (°C)	29.63length (m)	temperature (°C)	Stokes	anti-Stokes-747.200	-200.000	-0.067	0.338
-746.185	-200.000	0.016	0.355
-745.171	-119.490	-0.327	0.058
-744.156	-69.928	0.328	0.127
-743.142	57.003	-0.331	0.327
-742.127	44.844	0.321	0.301
-741.112	-200.000	-0.026	0.333
-740.098	129.355	-0.146	0.189
-739.083	22.047	-0.270	0.224
-738.069	800.000	0.104	0.362
-737.054	139.706	0.136	0.182
-736.039	-151.809	-0.290	0.022
-735.025	0.715	0.131	0.095
-734.010	-200.000	0.035	0.268
-732.996	-29.313	-0.277	-0.161
-731.981	-72.854	-0.087	0.033
-730.966	-38.785	-0.225	-0.121
-729.952	-24.707	0.115	0.069
-728.937	123.629	0.061	-0.078
-727.923	-23.162	-0.517	-0.316
-726.908	-200.000	0.012	-0.601
-725.894	800.000	0.055	-0.232
-724.879	800.000	-0.092	0.294
-723.864	800.000	0.076	0.330
-722.850	325.956	0.035	0.067
-721.835	-90.218	0.170	-0.050
-720.821	-92.586	0.148	-0.042
-719.806	-187.317	0.166	-0.002
-718.791	-200.000	0.023	0.154
-717.777	-200.000	0.049	-0.240
-716.762	800.000	-0.103	-0.420
-715.748	-112.241	-0.108	-0.022
-714.733	800.000	-0.066	-0.265
-713.718	27.545	-0.067	-0.057
-712.704	-54.886	-0.230	-0.105
-711.689	543.772	0.028	-0.067
-710.675	-11.076	0.100	0.067
-709.660	-155.527	0.126	0.008
-708.645	-31.515	0.229	-0.131
-707.631	800.000	0.077	0.305
-706.616	-200.000	0.019	0.109
-705.602	-188.091	-0.187	-0.002
-704.587	146.200	-0.240	-0.326
-703.572	-16.890	-0.387	-0.248
-702.558	-105.400	-0.197	-0.045
-701.543	-200.000	-0.000	-0.172
-700.529	-76.856	-0.264	-0.094
-699.514	-188.917	0.309	0.004
-698.499	-145.753	0.047	-0.004
-697.485	187.605	0.044	-0.066
-696.470	22.405	0.190	-0.158
-695.456	-58.191	0.055	0.024
-694.441	224.727	-0.079	-0.130
-693.426	-69.673	0.027	-0.010
-692.412	98.131	0.216	-0.252
-691.397	-200.000	0.022	0.524
-690.383	-66.346	0.142	0.057
-689.368	643.430	0.039	-0.101
-688.354	-200.000	0.007	-0.089
-687.339	-200.000	0.009	-0.131
-686.324	800.000	0.056	0.209
-685.310	48.954	-0.288	0.274
-684.295	300.746	-0.065	-0.121
-683.281	-86.157	-0.134	0.042
-682.266	-12.568	0.219	0.145
-681.251	-40.856	-0.104	0.055
-680.237	-167.618	0.233	-0.009
-679.222	-200.000	0.041	0.361
-678.208	529.025	0.145	0.346
-677.193	-95.633	0.071	-0.019
-676.178	25.842	-0.087	-0.073
-675.164	245.742	-0.048	0.082
-674.149	113.242	-0.123	-0.151
-673.135	-17.799	0.274	-0.174
-672.120	-200.000	-0.006	-0.296
-671.105	3.321	0.245	-0.181
-670.091	-56.421	0.136	0.061
-669.076	-8.310	-0.119	0.081
-668.062	-164.103	0.096	-0.005
-667.047	800.000	-0.017	0.061
-666.032	-106.769	-0.269	-0.061
-665.018	11.594	-0.163	-0.127
-664.003	84.288	-0.153	0.170
-662.989	-200.000	0.009	0.195
-661.974	168.393	-0.118	-0.170
-660.959	177.770	-0.118	0.174
-659.945	374.658	-0.099	0.204
-658.930	-51.957	0.190	0.089
-657.916	-16.108	-0.278	0.179
-656.901	-71.680	0.165	0.062
-655.886	-158.404	-0.259	0.015
-654.872	-25.444	0.263	-0.158
-653.857	-77.124	-0.052	0.018
-652.843	-200.000	-0.014	-0.227
-651.828	107.565	-0.029	0.035
-650.814	-65.770	-0.021	-0.009
-649.799	-200.000	-0.060	-0.306
-648.784	397.369	0.089	-0.189
-647.770	800.000	-0.049	0.182
-646.755	-69.925	-0.175	0.067
-645.741	-55.313	0.157	0.071
-644.726	-200.000	0.020	-0.149
-643.711	-83.270	0.157	0.051
-642.697	594.410	0.056	0.141
-641.682	-200.000	0.027	0.121
-640.668	27.482	0.128	0.109
-639.653	116.511	-0.121	0.151
-638.638	-174.788	-0.220	-0.006
-637.624	269.254	0.099	-0.176
-636.609	-200.000	0.015	0.202
-635.595	800.000	0.050	-0.193
-634.580	-82.595	0.456	0.150
-633.565	-42.552	0.125	0.065
-632.551	-200.000	0.014	-0.089
-631.536	-102.696	0.121	0.029
-630.522	-196.455	-0.311	-0.002
-629.507	133.830	-0.222	0.291
-628.492	-94.997	0.237	0.065
-627.478	147.474	0.049	0.067
-626.463	800.000	-0.097	-0.393
-625.449	-57.618	0.398	0.177
-624.434	69.562	-0.148	0.155
-623.419	68.064	-0.207	0.215
-622.405	264.805	-0.081	-0.143
-621.390	-67.120	-0.259	0.103
-620.376	3.125	0.320	-0.235
-619.361	800.000	0.107	-0.407
-618.346	24.037	-0.155	-0.130
-617.332	-76.212	-0.243	0.087
-616.317	246.331	0.161	-0.275
-615.303	-74.827	-0.070	-0.025
-614.288	15.883	0.327	-0.261
-613.273	800.000	0.042	-0.124
-612.259	381.243	0.169	-0.352
-611.244	-4.978	-0.257	-0.179
-610.230	-200.000	0.049	0.277
-609.215	-92.991	-0.180	-0.051
-608.201	800.000	-0.042	-0.159
-607.186	124.301	0.085	-0.107
-606.171	-171.089	-0.189	0.006
-605.157	711.701	0.055	0.147
-604.142	800.000	-0.074	-0.283
-603.128	153.978	-0.135	-0.187
-602.113	164.762	0.184	-0.262
-601.098	77.769	-0.080	0.086
-600.084	-61.283	-0.129	0.055
-599.069	46.474	0.203	0.190
-598.055	-200.000	0.032	-0.181
-597.040	-200.000	-0.046	-0.206
-596.025	-17.915	0.070	-0.044
-595.011	-101.108	0.227	-0.056
-593.996	-93.321	0.115	0.032
-592.982	4.378	-0.043	-0.032
-591.967	-200.000	0.033	-0.210
-590.952	177.056	0.169	0.249
-589.938	-124.333	-0.356	-0.056
-588.923	256.438	0.073	0.127
-587.909	62.160	-0.054	-0.055
-586.894	465.845	0.119	-0.269
-585.879	-5.786	-0.497	-0.344
-584.865	800.000	-0.048	-0.191
-583.850	-53.667	0.293	0.135
-582.836	800.000	-0.020	0.080
-581.821	281.016	-0.075	-0.135
-580.806	533.594	0.072	0.172
-579.792	33.243	-0.144	0.126
-578.777	-102.392	0.333	0.081
-577.763	173.267	-0.264	0.384
-576.748	-93.761	0.291	0.081
-575.733	800.000	0.024	-0.084
-574.719	800.000	0.085	-0.305
-573.704	179.606	-0.027	-0.040
-572.690	-200.000	-0.025	-0.259
-571.675	495.237	-0.182	0.423
-570.661	-129.215	0.308	-0.043
-569.646	-100.987	0.345	-0.086
-568.631	-50.316	0.033	-0.016
-567.617	220.620	-0.185	0.300
-566.602	-149.770	0.177	-0.014
-565.588	-200.000	0.038	0.363
-564.573	-45.805	0.166	-0.083
-563.558	-200.000	0.048	0.283
-562.544	800.000	0.055	0.213
-561.529	4.396	0.062	-0.046
-560.515	-200.000	-0.061	-0.313
-559.500	-161.887	0.245	-0.013
-558.485	697.391	-0.047	0.125
-557.471	800.000	-0.061	-0.257
-556.456	-131.278	0.061	-0.008
-555.442	41.319	0.137	-0.125
-554.427	750.234	0.149	-0.405
-553.412	-144.043	-0.460	-0.044
-552.398	-124.391	-0.324	0.051
-551.383	28.572	0.099	-0.085
-550.369	107.859	-0.069	-0.082
-549.354	565.632	-0.077	0.188
-548.339	-33.819	0.170	-0.094
-547.325	-200.000	-0.033	0.169
-546.310	188.502	-0.168	-0.253
-545.296	800.000	0.146	0.632
-544.281	-75.269	0.135	0.049
-543.266	9.001	0.214	0.163
-542.252	-138.160	-0.319	0.036
-541.237	-143.282	0.364	-0.035
-540.223	-200.000	0.005	-0.163
-539.208	537.676	-0.084	0.201
-538.193	149.635	-0.083	0.114
-537.179	-39.356	-0.213	-0.113
-536.164	-119.708	-0.218	-0.038
-535.150	18.046	-0.054	-0.043
-534.135	-25.051	-0.138	0.083
-533.121	-84.283	0.136	0.043
-532.106	-14.305	-0.122	0.079
-531.091	-30.468	-0.181	-0.103
-530.077	-13.331	-0.057	0.037
-529.062	-111.616	-0.099	-0.020
-528.048	-200.000	-0.023	-0.405
-527.033	68.993	0.271	-0.281
-526.018	49.735	0.128	-0.122
-525.004	-200.000	0.017	-0.092
-523.989	-200.000	0.013	0.093
-522.975	252.691	0.109	0.188
-521.960	482.783	0.143	0.327
-520.945	-12.336	-0.169	0.111
-519.931	-66.110	0.116	-0.047
-518.916	187.112	-0.093	0.139
-517.902	-139.520	-0.215	-0.023
-516.887	71.365	-0.124	0.130
-515.872	-200.000	-0.011	0.142
-514.858	-124.461	0.290	-0.045
-513.843	121.134	-0.095	-0.119
-512.829	-200.000	-0.007	0.336
-511.814	-3.740	-0.157	0.110
-510.799	800.000	-0.119	-0.414
-509.785	-59.696	0.165	-0.071
-508.770	-200.000	-0.026	-0.249
-507.756	-116.214	0.253	-0.047
-506.741	-200.000	0.003	-0.129
-505.726	-121.713	0.336	0.056
-504.712	76.624	-0.026	0.028
-503.697	-68.599	-0.209	-0.082
-502.683	-91.489	0.266	-0.076
-501.668	-200.000	-0.046	0.317
-500.653	6.215	-0.127	-0.095
-499.639	-200.000	0.055	-0.288
-498.624	684.949	0.074	0.195
-497.610	68.054	0.146	0.150
-496.595	35.822	0.198	0.175
-495.581	45.214	-0.141	0.131
-494.566	6.154	0.100	0.075
-493.551	-34.901	-0.212	0.116
-492.537	220.474	-0.202	0.325
-491.522	219.326	-0.176	0.284
-490.508	52.724	-0.063	-0.060
-489.493	-200.000	0.045	-0.348
-488.478	-114.259	0.083	0.016
-487.464	766.570	0.077	-0.209
-486.449	800.000	-0.085	-0.319
-485.435	-123.552	0.231	-0.037
-484.420	-200.000	-0.021	0.206
-483.405	-156.337	0.107	0.007
-482.391	16.232	-0.199	0.158
-481.376	28.505	0.311	0.264
-480.362	-200.000	0.031	0.187
-479.347	503.014	-0.160	0.371
-478.332	64.905	0.170	-0.173
-477.318	800.000	0.050	-0.184
-476.303	-200.000	0.016	0.107
-475.289	56.615	0.148	0.145
-474.274	800.000	0.152	0.493
-473.259	-110.291	0.337	0.071
-472.245	102.894	-0.255	-0.300
-471.230	-134.728	-0.101	-0.012
-470.216	695.438	0.066	0.175
-469.201	-125.769	0.134	-0.020
-468.186	-144.249	-0.200	-0.019
-467.172	-115.291	-0.138	-0.026
-466.157	-51.861	0.095	0.045
-465.143	800.000	0.108	-0.354
-464.128	-133.087	-0.073	-0.009
-463.113	431.513	0.146	0.319
-462.099	-47.696	-0.334	-0.163
-461.084	-63.396	0.091	0.037
-460.070	256.034	0.125	-0.215
-459.055	800.000	-0.083	0.278
-458.040	32.428	-0.063	0.055
-457.026	-109.858	-0.097	-0.021
-456.011	-40.765	-0.042	0.022
-454.997	-18.909	0.151	0.094
-453.982	-66.236	-0.267	-0.107
-452.968	158.280	0.195	-0.272
-451.953	-47.156	-0.551	0.270
-450.938	24.170	-0.139	-0.116
-449.924	-103.057	0.028	-0.007
-448.909	-32.336	0.242	0.136
-447.895	-200.000	0.032	0.255
-446.880	192.057	0.246	-0.373
-445.865	-61.986	-0.184	0.077
-444.851	-130.647	0.085	-0.011
-443.836	800.000	0.067	0.278
-442.822	-71.108	-0.113	0.043
-441.807	800.000	-0.122	0.364
-440.792	660.356	-0.119	0.307
-439.778	-200.000	0.026	0.140
-438.763	36.622	-0.200	0.177
-437.749	27.731	-0.209	-0.177
-436.734	59.709	0.223	-0.221
-435.719	-200.000	-0.028	-0.178
-434.705	110.823	0.129	0.156
-433.690	-200.000	0.020	0.141
-432.676	-81.884	0.127	0.042
-431.661	-200.000	0.008	-0.127
-430.646	9.052	0.195	-0.148
-429.632	-61.412	-0.318	0.134
-428.617	-47.761	-0.247	-0.120
-427.603	-121.131	-0.261	-0.044
-426.588	-46.943	-0.429	0.211
-425.573	30.709	0.128	0.110
-424.559	-58.429	0.369	-0.161
-423.544	313.735	0.071	-0.134
-422.530	-0.537	-0.050	0.036
-421.515	96.012	-0.284	0.326
-420.500	800.000	0.084	0.234
-419.486	-177.706	0.156	0.004
-418.471	-139.062	-0.285	0.031
-417.457	-14.689	0.193	-0.125
-416.442	-200.000	0.021	0.116
-415.428	210.307	0.140	0.220
-414.413	72.237	0.265	-0.277
-413.398	64.916	-0.069	0.070
-412.384	-43.800	-0.066	-0.033
-411.369	335.549	-0.097	-0.189
-410.355	-64.805	-0.287	-0.117
-409.340	69.546	-0.098	-0.101
-408.325	42.527	-0.127	0.116
-407.311	153.260	0.102	-0.140
-406.296	302.833	-0.071	-0.131
-405.282	800.000	-0.098	-0.283
-404.267	62.100	-0.215	0.215
-403.252	800.000	-0.037	0.113
-402.238	-91.501	0.134	0.038
-401.223	71.644	-0.180	0.188
-400.209	-95.388	-0.252	-0.068
-399.194	-55.980	-0.355	-0.159
-398.179	-147.270	-0.147	0.013
-397.165	-200.000	-0.078	0.388
-396.150	-77.855	0.232	-0.080
-395.136	-98.548	-0.180	-0.046
-394.121	-200.000	0.016	-0.260
-393.106	125.343	0.180	0.228
-392.092	-64.443	0.146	-0.060
-391.077	800.000	0.044	-0.186
-390.063	719.639	0.079	0.211
-389.048	-40.982	-0.238	-0.123
-388.033	-57.071	0.417	0.184
-387.019	-106.639	0.207	0.046
-386.004	-200.000	0.005	-0.085
-384.990	-200.000	-0.012	0.169
-383.975	579.421	0.150	0.367
-382.960	-200.000	0.005	0.132
-381.946	-137.883	-0.112	-0.013
-380.931	-54.373	-0.245	0.111
-379.917	-200.000	0.034	-0.235
-378.902	-200.000	0.018	-0.303
-377.888	226.686	0.105	-0.170
-376.873	-10.276	-0.299	0.199
-375.858	-200.000	-0.059	0.403
-374.844	77.234	0.146	-0.155
-373.829	77.172	-0.234	-0.249
-372.815	800.000	0.126	-0.405
-371.800	-44.367	-0.158	-0.079
-370.785	-175.977	0.355	0.009
-369.771	-63.234	0.079	-0.033
-368.756	209.304	-0.097	-0.152
-367.742	-200.000	0.021	0.133
-366.727	-52.005	-0.085	-0.040
-365.712	800.000	0.063	-0.196
-364.698	-200.000	0.031	-0.220
-363.683	-112.641	0.043	-0.009
-362.669	285.965	0.148	-0.267
-361.654	104.281	0.039	-0.046
-360.639	-74.908	0.175	-0.063
-359.625	800.000	-0.045	-0.125
-358.610	41.539	0.157	-0.143
-357.596	7.667	0.148	0.111
-356.581	800.000	-0.030	-0.104
-355.566	559.261	0.012	0.028
-354.552	324.071	-0.165	-0.315
-353.537	-200.000	-0.008	0.094
-352.523	187.190	0.252	0.376
-351.508	-2.031	0.224	0.157
-350.493	-109.487	-0.084	0.018
-349.479	-148.208	-0.187	-0.015
-348.464	-200.000	0.048	-0.281
-347.450	-33.751	-0.328	0.181
-346.435	8.577	0.283	0.213
-345.420	-200.000	-0.043	-0.296
-344.406	125.607	0.093	-0.117
-343.391	432.294	0.107	-0.232
-342.377	800.000	0.062	0.173
-341.362	381.623	-0.199	0.408
-340.348	-22.167	0.049	0.030
-339.333	800.000	0.064	-0.257
-338.318	-131.791	0.340	0.045
-337.304	-112.279	-0.317	-0.064
-336.289	-90.233	-0.270	0.078
-335.275	-118.406	-0.385	-0.068
-334.260	-127.144	-0.256	0.037
-333.245	-51.299	0.232	0.109
-332.231	-27.386	0.143	-0.083
-331.216	-56.652	-0.299	-0.133
-330.202	800.000	-0.170	0.528
-329.187	278.512	0.248	0.442
-328.172	-130.898	-0.308	0.041
-327.158	-78.551	0.030	-0.010
-326.143	800.000	-0.052	-0.220
-325.129	-110.465	-0.329	-0.068
-324.114	-155.600	0.144	0.009
-323.099	800.000	0.104	0.306
-322.085	800.000	-0.078	-0.243
-321.070	14.639	-0.318	-0.249
-320.056	-105.534	0.189	-0.043
-319.041	-151.487	-0.439	-0.033
-318.026	-200.000	-0.006	-0.129
-317.012	614.092	-0.091	0.228
-315.997	-31.237	0.306	0.173
-314.983	473.515	0.120	-0.270
-313.968	-177.906	-0.221	0.005
-312.953	-200.000	-0.026	0.329
-311.939	96.290	0.123	-0.141
-310.924	-152.508	-0.134	0.010
-309.910	75.408	-0.070	-0.074
-308.895	-156.586	0.329	0.020
-307.880	-200.000	0.000	0.107
-306.866	-8.086	-0.249	-0.168
-305.851	-54.106	-0.138	-0.063
-304.837	-200.000	0.014	-0.177
-303.822	800.000	0.034	0.138
-302.807	-38.829	0.147	-0.078
-301.793	-200.000	0.033	0.294
-300.778	311.034	-0.179	0.336
-299.764	-12.085	-0.393	0.257
-298.749	800.000	0.088	0.324
-297.735	-194.380	0.362	0.003
-296.720	270.267	-0.179	-0.314
-295.705	-21.341	0.169	-0.103
-294.691	-40.673	-0.030	0.015
-293.676	576.312	-0.039	0.095
-292.662	17.657	-0.165	0.131
-291.647	-155.583	-0.142	0.009
-290.632	-51.032	0.169	0.079
-289.618	707.460	0.151	0.398
-288.603	-116.096	0.075	-0.014
-287.589	-200.000	0.005	-0.055
-286.574	-31.392	0.189	0.106
-285.559	-141.921	0.174	0.017
-284.545	-126.529	0.112	-0.017
-283.530	-85.200	-0.095	0.030
-282.516	-34.973	-0.366	0.199
-281.501	49.635	-0.092	-0.087
-280.486	-78.225	0.225	0.077
-279.472	344.970	0.222	0.435
-278.457	-115.690	-0.520	0.097
-277.443	-131.766	0.380	0.050
-276.428	71.243	-0.359	-0.372
-275.413	800.000	-0.038	-0.141
-274.399	-132.188	-0.097	-0.013
-273.384	196.784	0.097	-0.147
-272.370	448.432	-0.106	-0.234
-271.355	-7.813	-0.217	-0.146
-270.340	-42.205	0.357	-0.182
-269.326	479.132	0.079	0.179
-268.311	800.000	-0.076	-0.215
-267.297	199.406	0.052	0.080
-266.282	268.428	-0.120	0.210
-265.267	448.078	-0.066	-0.145
-264.253	-11.170	-0.126	-0.083
-263.238	-200.000	-0.007	0.056
-262.224	226.628	0.137	0.221
-261.209	-98.588	0.342	-0.087
-260.195	-63.293	-0.126	-0.052
-259.180	143.272	-0.082	-0.109
-258.165	-22.783	-0.267	-0.161
-257.151	178.363	0.220	-0.321
-256.136	-109.396	0.027	-0.006
-255.122	-200.000	-0.038	0.294
-254.107	-44.365	0.206	0.103
-253.092	-200.000	-0.001	-0.154
-252.078	-95.602	0.097	0.026
-251.063	335.287	-0.089	0.173
-250.049	317.210	0.072	0.136
-249.034	-200.000	0.016	-0.075
-248.019	285.148	0.147	-0.264
-247.005	151.787	0.117	0.159
-245.990	800.000	0.092	-0.335
-244.976	-114.249	0.346	-0.067
-243.961	-70.470	0.236	0.089
-242.946	-200.000	0.004	-0.261
-241.932	17.915	0.096	-0.076
-240.917	2.701	-0.179	-0.130
-239.903	32.158	0.150	-0.129
-238.888	-160.676	0.405	0.021
-237.873	800.000	-0.072	0.283
-236.859	-195.874	0.134	-0.001
-235.844	-95.778	0.126	-0.033
-234.830	-121.583	0.319	0.053
-233.815	11.767	-0.306	-0.234
-232.800	-15.235	0.112	0.071
-231.786	117.179	-0.145	0.178
-230.771	67.944	-0.102	0.104
-229.757	73.037	-0.127	-0.133
-228.742	403.068	0.088	-0.184
-227.727	-200.000	0.033	0.318
-226.713	392.253	0.155	-0.320
-225.698	-200.000	0.021	0.197
-224.684	800.000	0.023	0.079
-223.669	-200.000	0.009	-0.129
-222.655	-107.966	0.394	-0.085
-221.640	431.871	-0.084	0.180
-220.625	34.199	0.127	-0.111
-219.611	-200.000	0.028	0.199
-218.596	181.191	-0.179	0.262
-217.582	-131.176	-0.216	-0.029
-216.567	-102.445	0.032	0.008
-215.552	326.990	-0.056	0.107
-214.538	671.520	0.025	0.064
-213.523	143.126	0.168	-0.223
-212.509	-184.049	0.246	0.004
-211.494	-18.275	-0.042	-0.026
-210.479	-200.000	-0.004	0.022
-209.465	190.084	-0.099	-0.148
-208.450	45.379	0.083	0.077
-207.436	-67.088	0.164	0.064
-206.421	117.657	-0.072	0.088
-205.406	-70.494	0.134	-0.051
-204.392	800.000	0.063	-0.251
-203.377	-158.414	-0.068	0.004
-202.363	759.123	-0.158	0.426
-201.348	15.399	0.084	-0.065
-200.333	-118.316	-0.046	-0.008
-199.319	255.235	0.108	0.183
-198.304	800.000	0.049	-0.183
-197.290	74.148	-0.247	-0.258
-196.275	-200.000	0.007	-0.447
-195.260	-81.781	0.399	-0.130
-194.246	800.000	-0.075	0.214
-193.231	-55.598	-0.132	-0.059
-192.217	110.127	0.132	0.158
-191.202	156.612	0.179	0.246
-190.187	800.000	0.036	0.128
-189.173	224.023	0.154	-0.247
-188.158	-22.126	0.216	-0.131
-187.144	-129.636	0.138	-0.019
-186.129	-41.301	-0.362	-0.185
-185.114	-17.070	0.134	-0.084
-184.100	759.006	0.157	0.422
-183.085	-75.789	-0.354	0.125
-182.071	-200.000	0.080	-0.440
-181.056	-200.000	0.041	0.201
-180.042	269.775	-0.004	0.008
-179.027	218.169	-0.253	0.402
-178.012	137.931	0.186	-0.242
-176.998	2.627	-0.228	-0.164
-175.983	2.874	-0.236	-0.170
-174.969	-65.123	0.188	-0.075
-173.954	23.890	-0.067	-0.055
-172.939	-200.000	0.001	0.035
-171.925	800.000	-0.049	0.169
-170.910	-200.000	-0.009	-0.038
-169.896	800.000	-0.026	-0.095
-168.881	-200.000	-0.023	0.124
-167.866	-89.507	-0.374	-0.109
-166.852	-28.184	-0.045	-0.026
-165.837	294.127	0.007	0.014
-164.823	-109.565	0.145	-0.030
-163.808	800.000	0.098	-0.371
-162.793	-35.156	-0.097	-0.052
-161.779	-107.821	-0.318	-0.069
-160.764	-63.991	-0.228	-0.092
-159.750	800.000	0.041	-0.168
-158.735	-200.000	0.036	-0.247
-157.720	-11.348	-0.350	0.229
-156.706	-39.885	-0.211	0.109
-155.691	-15.816	-0.313	0.198
-154.677	-121.717	-0.213	0.035
-153.662	499.890	0.087	-0.198
-152.647	-16.626	0.330	0.208
-151.633	441.519	-0.047	0.101
-150.618	43.738	0.130	-0.118
-149.604	752.911	-0.073	-0.195
-148.589	-73.735	-0.297	-0.107
-147.574	118.398	0.185	0.227
-146.560	-69.446	-0.114	0.044
-145.545	157.700	0.242	-0.333
-144.531	4.643	-0.294	-0.214
-143.516	800.000	-0.043	0.176
-142.502	-156.985	-0.273	0.017
-141.487	-186.140	0.272	0.004
-140.472	800.000	-0.039	0.137
-139.458	-200.000	0.005	0.231
-138.443	685.132	0.085	0.220
-137.429	48.708	-0.097	-0.090
-136.414	-116.976	0.385	-0.070
-135.399	337.303	-0.177	0.341
-134.385	-23.923	0.081	-0.048
-133.370	112.002	-0.069	-0.083
-132.356	-200.000	0.014	0.110
-131.341	-118.915	-0.085	-0.015
-130.326	-183.872	0.331	-0.006
-129.312	-200.000	-0.001	0.064
-128.297	-200.000	0.013	0.589
-127.283	800.000	-0.032	0.127
-126.268	315.103	-0.123	-0.231
-125.253	265.710	-0.114	0.197
-124.239	17.097	0.063	-0.049
-123.224	178.393	0.075	0.109
-122.210	323.253	0.029	0.055
-121.195	91.796	-0.051	0.057
-120.180	-8.081	-0.122	0.082
-119.166	194.601	0.156	-0.234
-118.151	594.899	0.057	-0.140
-117.137	518.323	-0.013	0.029
-116.122	-166.112	0.135	-0.006
-115.107	345.043	0.120	-0.233
-114.093	-0.597	-0.069	-0.049
-113.078	-200.000	0.028	-0.240
-112.064	800.000	-0.075	-0.311
-111.049	59.249	0.207	0.202
-110.034	246.796	-0.277	0.463
-109.020	-179.424	-0.166	-0.004
-108.005	-62.981	-0.272	-0.112
-106.991	-200.000	-0.012	-0.068
-105.976	-200.000	0.020	-0.095
-104.962	100.765	-0.291	-0.336
-103.947	35.085	0.087	0.076
-102.932	-200.000	-0.033	0.221
-101.918	-159.327	-0.290	0.016
-100.903	91.152	-0.028	-0.031
-99.889	800.000	-0.039	0.152
-98.874	13.938	0.014	0.011
-97.859	300.988	-0.140	-0.257
-96.845	16.197	0.138	0.108
-95.830	367.436	0.104	0.208
-94.816	-34.650	0.253	0.137
-93.801	-54.303	0.143	-0.064
-92.786	-105.162	0.138	-0.031
-91.772	798.280	-0.062	0.171
-90.757	39.037	-0.084	0.075
-89.743	245.774	0.176	0.294
-88.728	280.721	-0.195	-0.346
-87.713	-200.000	0.040	-0.181
-86.699	-150.957	0.217	-0.016
-85.684	90.325	-0.173	-0.192
-84.670	-200.000	-0.029	-0.346
-83.655	155.807	0.180	0.246
-82.640	467.946	-0.090	-0.200
-81.626	-86.535	-0.248	-0.075
-80.611	-11.285	0.163	0.106
-79.597	493.729	-0.054	0.123
-78.582	-140.770	0.078	0.008
-77.567	522.815	0.028	-0.064
-76.553	25.834	0.196	-0.162
-75.538	800.000	0.008	0.031
-74.524	219.831	0.210	0.334
-73.509	54.860	-0.079	0.075
-72.494	-159.086	0.166	0.009
-71.480	539.680	0.096	-0.227
-70.465	516.013	0.025	0.059
-69.451	-114.636	-0.310	-0.059
-68.436	199.966	-0.016	-0.024
-67.422	-78.432	0.288	-0.098
-66.407	-200.000	0.070	-0.369
-65.392	-103.385	-0.240	-0.056
-64.378	-57.469	-0.150	-0.065
-63.363	800.000	0.073	0.310
-62.349	-200.000	-0.046	-0.283
-61.334	183.528	-0.673	-0.984
-60.319	58.837	0.483	0.470
-59.305	800.000	-0.299	-1.105
-58.290	292.854	0.532	0.960
-57.276	800.000	0.548	1.590
-56.261	-200.000	97.227	569.558
-55.246	625.539	1398.839	3491.392
-54.232	186.095	2607.879	3837.427
-53.217	120.447	2182.677	2681.997
-52.203	46.090	1631.845	1494.857
-51.188	37.753	1366.688	1200.803
-50.173	34.410	1324.328	1143.525
-49.159	55.841	1373.063	1316.946
-48.144	59.976	1390.484	1358.808
-47.130	38.054	1345.476	1183.800
-46.115	34.540	1327.390	1146.767
-45.100	34.253	1322.909	1141.131
-44.086	34.130	1320.901	1138.623
-43.071	34.188	1318.250	1136.637
-42.057	34.181	1315.759	1134.401
-41.042	34.127	1314.408	1132.871
-40.027	34.180	1313.215	1132.111
-39.013	34.272	1311.207	1130.880
-37.998	34.296	1308.967	1129.047
-36.984	34.287	1307.502	1127.684
-35.969	34.391	1305.299	1126.358
-34.954	34.355	1303.946	1124.929
-33.940	34.380	1302.489	1123.775
-32.925	34.328	1301.359	1122.453
-31.911	34.416	1300.096	1121.836
-30.896	34.330	1298.663	1120.051
-29.881	34.367	1297.392	1119.125
-28.867	34.451	1295.702	1118.114
-27.852	34.400	1294.033	1116.334
-26.838	34.376	1292.866	1115.143
-25.823	34.423	1291.430	1114.133
-24.809	34.376	1290.098	1112.665
-23.794	34.336	1288.922	1111.374
-22.779	34.308	1287.342	1109.806
-21.765	34.571	1285.428	1109.637
-20.750	34.307	1284.942	1107.642
-19.736	34.247	1283.631	1106.116
-18.721	34.229	1282.595	1105.075
-17.706	34.313	1281.113	1104.245
-16.692	34.369	1279.670	1103.284
-15.677	34.326	1278.709	1102.160
-14.663	34.115	1278.295	1100.539
-13.648	34.209	1276.501	1099.492
-12.633	34.212	1275.779	1098.848
-11.619	34.267	1274.746	1098.229
-10.604	34.173	1274.050	1097.044
-9.590	34.096	1273.319	1095.928
-8.575	34.177	1272.160	1095.353
-7.560	34.241	1271.408	1095.032
-6.546	34.213	1270.238	1093.818
-5.531	34.163	1269.602	1092.939
-4.517	34.232	1268.447	1092.301
-3.502	34.195	1267.660	1091.364
-2.487	34.315	1266.097	1090.661
-1.473	34.278	1262.890	1087.649
-0.458	33.045	1247.504	1067.390
0.556	28.053	1229.856	1027.353
1.571	24.178	1234.654	1009.362
2.586	23.144	1250.334	1016.159
3.600	22.625	1239.551	1004.346
4.615	17.453	1168.274	918.668
5.629	9.167	1092.177	816.779
6.644	5.358	1071.196	781.991
7.659	4.966	1068.425	777.943
8.673	4.946	1067.331	776.977
9.688	4.741	1066.197	775.059
10.702	5.120	1064.586	775.706
11.717	10.206	1071.563	806.113
12.731	17.398	1081.834	849.820
13.746	19.312	1083.188	860.370
14.761	18.019	1081.331	852.371
15.775	16.889	1078.803	844.677
16.790	15.919	1076.364	837.871
17.804	15.284	1074.799	833.421
18.819	14.733	1074.015	830.002
19.834	14.604	1072.827	828.372
20.848	14.401	1071.808	826.501
21.863	14.117	1071.142	824.510
22.877	13.965	1070.306	823.040
23.892	13.906	1069.881	822.348
24.907	13.832	1069.269	821.438
25.921	14.048	1067.736	821.257
26.936	14.021	1066.473	820.080
27.950	14.035	1065.453	819.288
28.965	14.132	1064.075	818.635
29.980	14.138	1062.186	817.139
30.994	14.267	1060.838	816.661
32.009	14.338	1059.940	816.245
33.023	14.279	1058.876	815.069
34.038	14.172	1057.898	813.721
35.053	14.012	1057.326	812.424
36.067	14.007	1056.056	811.354
37.082	14.052	1055.166	810.816
38.096	14.248	1054.475	811.171
39.111	14.151	1054.067	810.311
40.126	14.129	1052.592	808.997
41.140	14.085	1050.994	807.483
42.155	13.805	1050.021	805.309
43.169	13.879	1048.567	804.479
44.184	13.821	1048.113	803.779
45.199	13.866	1046.787	802.909
46.213	13.954	1045.614	802.362
47.228	14.043	1044.970	802.225
48.242	13.998	1043.744	800.997
49.257	14.164	1042.759	800.973
50.271	14.032	1042.062	799.729
51.286	14.081	1040.876	798.986
52.301	14.102	1039.554	798.001
53.315	13.928	1039.181	796.806
54.330	13.984	1037.970	796.079
55.344	14.041	1036.849	795.418
56.359	13.899	1036.303	794.253
57.374	13.894	1035.162	793.285
58.388	13.758	1034.496	792.054
59.403	13.822	1033.556	791.566
60.417	13.903	1032.772	791.284
61.432	13.907	1031.339	790.133
62.447	13.826	1030.972	789.400
63.461	13.718	1030.381	788.364
64.476	13.809	1028.950	787.629
65.490	13.835	1028.268	787.162
66.505	13.775	1027.799	786.449
67.520	13.795	1027.424	786.187
68.534	13.865	1026.281	785.576
69.549	13.752	1025.620	784.463
70.563	13.898	1024.208	784.004
71.578	13.733	1023.917	782.934
72.593	13.763	1022.981	782.289
73.607	13.603	1022.543	781.133
74.622	13.687	1021.692	780.807
75.636	13.670	1020.895	780.048
76.651	13.811	1020.159	780.080
77.666	13.758	1019.791	779.481
78.680	13.808	1018.601	778.739
79.695	13.724	1018.120	777.905
80.709	13.852	1017.219	777.751
81.724	13.777	1017.504	777.545
82.739	13.912	1016.209	777.119
83.753	14.054	1015.298	777.018
84.768	14.101	1014.433	776.508
85.782	14.275	1014.050	776.957
86.797	14.231	1012.947	775.841
87.812	14.034	1012.032	774.153
88.826	14.164	1010.948	773.859
89.841	14.175	1010.141	773.225
90.855	14.217	1009.242	772.662
91.870	14.239	1008.559	772.174
92.884	14.267	1007.270	771.247
93.899	14.123	1006.585	769.988
94.914	14.377	1005.476	770.245
95.928	14.345	1004.455	769.247
96.943	14.144	1004.202	768.060
97.957	14.144	1003.752	767.648
98.972	14.117	1002.729	766.671
99.987	14.174	1001.846	766.190
101.001	14.180	1000.248	764.930
102.016	14.204	999.603	764.477
103.030	14.194	998.639	763.626
104.045	14.092	998.164	762.728
105.060	14.174	997.105	762.227
106.074	13.998	996.408	760.822
107.089	13.849	995.606	759.461
108.103	13.983	994.027	758.802
109.118	13.816	993.704	757.726
110.133	13.729	992.524	756.360
111.147	13.814	991.138	755.624
112.162	13.953	990.563	755.750
113.176	13.999	990.216	755.631
114.191	14.085	989.502	755.409
115.206	14.121	988.604	754.820
116.220	14.042	987.543	753.586
117.235	13.930	986.665	752.341
118.249	14.040	986.085	752.331
119.264	14.010	985.215	751.466
120.279	14.216	983.955	751.366
121.293	13.914	983.500	749.590
122.308	13.824	982.696	748.504
123.322	13.882	981.641	747.898
124.337	13.927	980.624	747.257
125.352	14.047	979.039	746.522
126.366	14.010	978.567	745.932
127.381	14.038	977.234	744.974
128.395	13.847	976.892	743.791
129.410	13.985	975.723	743.453
130.424	13.994	975.177	743.013
131.439	14.033	974.483	742.590
132.454	14.178	973.591	742.495
133.468	14.031	972.834	741.194
134.483	14.080	972.122	740.803
135.497	14.153	971.033	740.236
136.512	14.108	970.581	739.622
137.527	14.049	969.493	738.469
138.541	14.136	968.571	738.087
139.556	14.192	967.755	737.648
140.570	14.103	967.687	737.135
141.585	14.306	966.875	737.351
142.600	14.310	965.664	736.379
143.614	14.446	964.331	735.897
144.629	14.411	963.710	735.205
145.643	14.364	963.059	734.437
146.658	14.181	961.861	732.652
147.673	14.256	960.759	732.079
148.687	14.247	959.962	731.368
149.702	14.185	959.287	730.516
150.716	14.167	958.623	729.864
151.731	14.147	958.103	729.320
152.746	14.141	957.259	728.586
153.760	14.228	956.451	728.286
154.775	14.263	955.777	727.861
155.789	14.334	955.472	727.876
156.804	14.261	954.793	726.975
157.819	14.304	954.239	726.675
158.833	14.413	953.525	726.545
159.848	14.499	952.566	726.124
160.862	14.311	952.101	724.886
161.877	14.276	950.723	723.620
162.892	14.257	949.735	722.724
163.906	14.270	948.394	721.693
164.921	14.281	947.743	721.180
165.935	14.399	946.672	720.815
166.950	14.373	946.188	720.271
167.964	14.265	945.700	719.367
168.979	14.270	944.574	718.470
169.994	14.214	944.054	717.767
171.008	14.273	943.185	717.296
172.023	14.537	942.086	717.534
173.037	14.554	941.594	717.169
174.052	14.335	941.223	715.881
175.067	14.355	940.278	715.187
176.081	14.381	939.649	714.755
177.096	14.249	939.710	714.175
178.110	14.409	938.778	714.089
179.125	14.328	937.804	712.938
180.140	14.445	937.546	713.178
181.154	14.411	936.985	712.541
182.169	14.624	936.189	712.785
183.183	14.581	935.982	712.381
184.198	14.572	935.288	711.751
185.213	14.550	934.222	710.784
186.227	14.569	933.974	710.613
187.242	14.569	933.425	710.130
188.256	14.732	932.585	710.120
189.271	14.648	931.832	709.128
190.286	14.446	931.034	707.603
191.300	14.316	930.118	706.290
192.315	14.138	929.638	705.109
193.329	14.295	929.082	705.289
194.344	14.626	927.897	705.728
195.359	14.390	927.731	704.542
196.373	14.521	927.227	704.649
197.388	14.667	926.903	704.960
198.402	14.760	926.202	704.756
199.417	14.858	925.401	704.498
200.432	14.845	925.035	704.102
201.446	14.881	924.709	703.941
202.461	14.972	924.137	703.826
203.475	14.989	923.800	703.580
204.490	14.830	922.927	702.186
205.504	14.754	921.965	701.074
206.519	14.687	921.584	700.437
207.534	14.680	920.933	699.853
208.548	14.688	919.915	699.053
209.563	14.890	918.921	699.078
210.577	14.814	918.648	698.490
211.592	14.991	917.433	698.243
212.607	15.077	916.737	698.013
213.621	14.975	916.286	697.180
214.636	15.041	915.343	696.678
215.650	15.081	915.043	696.552
216.665	15.075	914.217	695.836
217.680	15.139	913.528	695.520
218.694	15.194	912.957	695.251
219.709	14.955	912.284	693.686
220.723	15.045	911.506	693.405
221.738	15.106	910.835	693.084
222.753	15.069	910.013	692.247
223.767	15.138	909.686	692.221
224.782	15.152	909.374	691.978
225.796	15.320	908.466	691.919
226.811	15.279	907.632	691.056
227.826	15.128	907.047	689.928
228.840	15.089	906.547	689.323
229.855	15.177	905.805	689.061
230.869	15.048	905.093	687.930
231.884	15.062	904.120	687.186
232.899	15.109	903.727	687.021
233.913	15.128	903.042	686.515
234.928	15.071	902.253	685.624
235.942	15.095	901.560	685.134
236.957	15.110	901.073	684.762
237.972	15.198	900.084	684.312
238.986	15.221	899.557	683.945
240.001	15.202	899.170	683.511
241.015	15.166	898.679	682.931
242.030	15.241	897.796	682.506
243.045	15.257	897.567	682.334
244.059	15.183	897.068	681.593
245.074	15.275	895.723	680.884
246.088	15.275	895.345	680.538
247.103	15.423	894.838	680.692
248.117	15.464	894.275	680.370
249.132	15.615	893.894	680.633
250.147	15.542	893.338	679.854
251.161	15.553	893.037	679.608
252.176	15.585	892.056	678.930
253.190	15.787	891.353	679.153
254.205	15.771	890.967	678.732
255.220	15.794	889.991	678.024
256.234	15.756	889.447	677.395
257.249	15.781	888.748	676.905
258.263	15.849	887.758	676.361
259.278	15.883	887.227	676.036
260.293	15.886	887.112	675.899
261.307	15.873	886.527	675.341
262.322	15.988	885.312	674.816
263.336	15.864	884.852	673.910
264.351	15.891	884.275	673.518
265.366	15.959	883.699	673.293
266.380	15.835	883.425	672.528
267.395	15.830	882.582	671.806
268.409	15.959	881.619	671.530
269.424	15.883	880.615	670.404
270.439	16.087	880.110	670.772
271.453	15.872	879.510	669.397
272.468	15.798	878.923	668.598
273.482	15.950	878.333	668.695
274.497	15.979	877.521	668.132
275.512	15.890	877.222	667.493
276.526	15.826	876.815	666.869
277.541	16.025	876.031	667.004
278.555	15.997	875.478	666.410
279.570	16.125	874.869	666.395
280.585	16.115	874.091	665.705
281.599	16.092	873.388	665.018
282.614	16.118	872.310	664.243
283.628	16.157	871.850	663.988
284.643	16.127	871.594	663.613
285.657	16.196	870.542	663.027
286.672	16.059	870.195	662.167
287.687	15.988	869.785	661.515
288.701	16.191	869.159	661.776
289.716	16.218	868.520	661.339
290.730	16.098	868.202	660.569
291.745	16.267	867.171	660.386
292.760	16.213	866.779	659.816
293.774	16.182	866.092	659.113
294.789	16.201	865.513	658.689
295.803	16.154	864.801	657.907
296.818	16.241	864.243	657.763
297.833	16.203	863.393	656.909
298.847	16.237	862.942	656.640
299.862	16.543	862.057	657.097
300.876	16.478	861.545	656.398
301.891	16.304	861.587	655.695
302.906	16.450	861.012	655.765
303.920	16.500	860.314	655.370
304.935	16.519	859.738	654.947
305.949	16.455	859.341	654.339
306.964	16.431	858.698	653.700
307.979	16.497	857.572	653.041
308.993	16.475	857.242	652.645
310.008	16.457	856.673	652.085
311.022	16.463	856.013	651.549
312.037	16.462	855.507	651.102
313.052	16.508	854.937	650.785
314.066	16.405	854.356	649.892
315.081	16.392	853.566	649.184
316.095	16.482	852.932	648.988
317.110	16.417	852.747	648.542
318.125	16.488	852.144	648.296
319.139	16.457	851.542	647.664
320.154	16.410	851.392	647.313
321.168	16.550	850.284	646.949
322.183	16.550	849.850	646.561
323.197	16.504	849.625	646.157
324.212	16.582	849.254	646.116
325.227	16.654	847.971	645.355
326.241	16.559	847.588	644.645
327.256	16.514	847.031	643.991
328.270	16.541	846.391	643.552
329.285	16.629	846.087	643.598
330.300	16.572	845.475	642.859
331.314	16.488	845.273	642.329
332.329	16.612	844.544	642.189
333.343	16.620	844.448	642.092
334.358	16.801	843.705	642.156
335.373	16.719	843.415	641.566
336.387	16.837	842.967	641.615
337.402	16.808	842.755	641.288
338.416	16.874	842.347	641.172
339.431	16.900	842.204	641.104
340.446	16.843	841.676	640.430
341.460	16.942	841.432	640.561
342.475	17.034	840.816	640.383
343.489	17.054	840.012	639.787
344.504	17.111	839.941	639.891
345.519	17.067	839.503	639.335
346.533	16.910	838.793	638.150
347.548	16.931	838.098	637.642
348.562	17.001	837.742	637.580
349.577	17.042	836.804	636.963
350.592	16.967	836.323	636.258
351.606	16.981	835.523	635.645
352.621	17.074	834.667	635.286
353.635	16.974	834.341	634.608
354.650	17.012	833.775	634.264
355.665	17.039	833.553	634.140
356.679	17.116	832.418	633.507
357.694	17.145	831.851	633.126
358.708	17.130	831.281	632.582
359.723	17.060	830.960	632.020
360.738	17.182	830.144	631.799
361.752	17.193	829.552	631.332
362.767	17.175	828.999	630.788
363.781	17.335	828.842	631.205
364.796	17.359	828.404	630.907
365.810	17.503	827.711	630.858
366.825	17.437	827.688	630.539
367.840	17.407	826.941	629.802
368.854	17.318	826.671	629.212
369.869	17.228	826.444	628.651
370.883	17.451	825.680	628.840
371.898	17.346	825.367	628.156
372.913	17.588	824.459	628.301
373.927	17.337	824.567	627.403
374.942	17.414	824.129	627.300
375.956	17.402	823.893	627.018
376.971	17.723	822.843	627.346
377.986	17.648	822.466	626.727
379.000	17.643	822.176	626.434
380.015	17.720	821.582	626.206
381.029	17.658	820.715	625.263
382.044	17.693	820.362	625.069
383.059	17.701	819.918	624.703
384.073	17.423	819.436	623.262
385.088	17.550	818.617	623.050
386.102	17.455	818.118	622.268
387.117	17.562	817.643	622.242
388.132	17.580	816.897	621.684
389.146	17.697	816.541	621.786
390.161	17.699	815.609	621.028
391.175	17.688	815.633	620.951
392.190	17.676	814.636	620.095
393.205	17.624	814.154	619.481
394.219	17.515	814.184	619.056
395.234	17.474	813.929	618.658
396.248	17.460	813.485	618.211
397.263	17.663	813.019	618.541
398.278	17.619	812.713	618.094
399.292	17.711	811.879	617.739
400.307	17.546	811.334	616.670
401.321	17.621	811.136	616.737
402.336	17.693	810.378	616.368
403.350	17.810	810.187	616.590
404.365	17.790	809.665	616.065
405.380	17.945	808.914	616.000
406.394	17.884	808.787	615.630
407.409	17.947	808.725	615.754
408.423	18.032	807.869	615.355
409.438	18.045	807.878	615.355
410.453	18.111	807.097	614.941
411.467	18.243	806.409	614.837
412.482	18.220	806.114	614.477
413.496	18.091	806.018	613.884
414.511	18.136	805.966	613.951
415.526	18.225	805.290	613.702
416.540	18.277	804.340	613.110
417.555	18.339	803.968	612.994
418.569	18.174	803.991	612.368
419.584	18.197	803.593	612.092
420.599	18.156	802.787	611.277
421.613	153.195	1370.696	1790.024
422.628	132.797	1453.465	1790.130
