DTS Sentinel unit serial number:	SN413079Multiplexer serial number:	ORYXHardware model number:	OX4-SRSoftware version number:	ORYX F/W v4.00 Oryx Data Collector v3.7.2.0data status	okinstallation	princeton_trtdifferential loss correction	single-endedforward channel	channel 1reverse channel	N/Adate	2019/09/14time	15:30:35forward acquisition time	60.00reverse acquisition time	0.00gamma	496.2192k internal	0.2295k external	0.2295temperature offset calibration	1.0079default loss term (dB/km)	0.3790temperature slope calibration	1.0000multiplexer offset coefficient	1.0000multiplexer slope coefficient	1.0000fibre end	0.00T internal ref (°C)	38.91T ext. ref 1 (°C)	5.14T ext. ref 2 (°C)	33.39length (m)	temperature (°C)	Stokes	anti-Stokes-747.200	-180.926	0.152	-0.003
-746.185	-78.720	0.389	-0.136
-745.171	-200.000	-0.084	0.430
-744.156	-4.295	0.328	0.232
-743.142	-60.440	0.076	-0.033
-742.127	-123.008	0.201	0.033
-741.112	72.722	-0.167	-0.178
-740.098	-134.633	-0.330	-0.041
-739.083	800.000	-0.084	-0.287
-738.069	-122.766	-0.059	-0.010
-737.054	-200.000	-0.273	0.001
-736.039	17.549	-0.102	0.083
-735.025	-58.610	0.154	0.068
-734.010	-187.009	-0.176	0.002
-732.996	161.809	-0.171	-0.245
-731.981	-200.000	-0.012	-0.074
-730.966	-157.501	0.058	0.004
-729.952	334.879	0.037	-0.073
-728.937	800.000	-0.093	-0.277
-727.923	800.000	-0.130	-0.496
-726.908	800.000	0.024	-0.101
-725.894	-148.033	-0.100	-0.008
-724.879	-127.807	-0.443	-0.065
-723.864	30.596	0.212	0.185
-722.850	-200.000	0.011	0.081
-721.835	-69.253	-0.174	-0.068
-720.821	-74.729	-0.166	-0.061
-719.806	-136.732	0.172	0.020
-718.791	31.385	0.376	-0.330
-717.777	263.925	-0.124	-0.221
-716.762	-200.000	0.015	-0.103
-715.748	90.038	0.184	0.211
-714.733	-20.682	0.252	-0.158
-713.718	156.231	0.058	-0.081
-712.704	-149.345	-0.301	-0.024
-711.689	-31.989	0.101	0.058
-710.675	145.793	-0.169	-0.232
-709.660	-65.186	0.214	-0.088
-708.645	-84.631	0.037	-0.012
-707.631	-200.000	-0.023	-0.292
-706.616	313.902	-0.097	-0.187
-705.602	155.299	-0.243	-0.341
-704.587	231.449	0.028	0.047
-703.572	12.240	0.106	0.083
-702.558	53.783	0.037	-0.037
-701.543	-160.220	-0.206	0.011
-700.529	59.983	0.159	0.160
-699.514	-52.423	0.106	0.050
-698.499	4.278	-0.049	0.037
-697.485	-136.764	0.171	-0.020
-696.470	-95.498	0.292	0.080
-695.456	647.054	0.087	-0.228
-694.441	107.793	-0.223	0.271
-693.426	-96.987	0.147	-0.039
-692.412	-55.283	0.337	0.154
-691.397	-200.000	0.025	0.261
-690.383	367.911	-0.017	0.035
-689.368	-200.000	0.075	-0.424
-688.354	-200.000	0.030	-0.204
-687.339	82.381	0.345	0.382
-686.324	116.019	0.016	0.020
-685.310	4.308	-0.019	0.015
-684.295	-200.000	0.002	-0.202
-683.281	-200.000	0.059	-0.457
-682.266	789.855	0.063	-0.176
-681.251	149.905	0.164	-0.227
-680.237	584.090	0.138	0.345
-679.222	57.833	0.225	0.224
-678.208	136.635	0.075	0.100
-677.193	-200.000	0.024	-0.241
-676.178	800.000	0.031	-0.131
-675.164	-91.414	0.166	-0.048
-674.149	88.148	0.164	-0.186
-673.135	344.695	0.068	0.135
-672.120	369.793	-0.113	-0.233
-671.105	-200.000	0.020	0.132
-670.091	-200.000	-0.004	-0.113
-669.076	-171.225	-0.161	-0.006
-668.062	5.040	-0.080	0.060
-667.047	-95.938	-0.136	0.037
-666.032	-200.000	0.057	0.436
-665.018	-196.852	0.239	0.002
-664.003	-135.892	-0.220	-0.026
-662.989	800.000	0.065	-0.226
-661.974	-118.862	-0.192	-0.034
-660.959	-128.206	-0.193	0.028
-659.945	3.755	-0.260	-0.194
-658.930	-125.808	0.326	-0.050
-657.916	126.006	-0.077	0.100
-656.901	458.084	0.041	-0.092
-655.886	-200.000	0.037	-0.298
-654.872	-142.583	-0.169	0.017
-653.857	323.071	-0.074	-0.143
-652.843	-60.765	0.152	-0.066
-651.828	484.927	0.126	0.293
-650.814	764.213	-0.130	-0.359
-649.799	-27.499	0.177	-0.105
-648.784	-168.554	0.303	-0.012
-647.770	132.506	-0.053	-0.070
-646.755	58.306	0.101	-0.101
-645.741	37.120	0.160	-0.144
-644.726	8.538	-0.256	-0.196
-643.711	-83.627	0.245	0.080
-642.697	-103.637	0.181	0.043
-641.682	135.216	-0.186	-0.246
-640.668	-200.000	0.006	-0.211
-639.653	800.000	0.035	-0.109
-638.638	32.719	0.137	0.121
-637.624	-200.000	0.015	-0.272
-636.609	-121.708	0.102	-0.017
-635.595	-200.000	0.283	0.000
-634.580	293.242	0.147	0.273
-633.565	115.421	-0.096	0.120
-632.551	90.514	-0.295	-0.336
-631.536	-188.143	-0.045	0.001
-630.522	-200.000	0.017	-0.146
-629.507	223.514	-0.123	-0.203
-628.492	107.035	-0.294	0.355
-627.478	548.062	-0.080	0.195
-626.463	-68.309	0.021	-0.008
-625.449	162.205	-0.028	-0.040
-624.434	170.870	-0.034	0.049
-623.419	631.977	0.012	-0.030
-622.405	800.000	0.171	-0.483
-621.390	-200.000	0.008	-0.063
-620.376	800.000	0.048	-0.137
-619.361	-97.686	0.102	-0.027
-618.346	397.028	0.086	-0.183
-617.332	133.621	0.239	0.314
-616.317	-200.000	-0.009	0.237
-615.303	-200.000	0.001	0.064
-614.288	-114.173	0.223	-0.044
-613.273	344.926	0.054	0.107
-612.259	-78.875	-0.176	-0.061
-611.244	61.761	0.138	0.140
-610.230	800.000	0.033	-0.131
-609.215	-73.300	0.250	0.093
-608.201	172.359	0.032	-0.047
-607.186	122.146	-0.162	-0.206
-606.171	-58.160	0.468	-0.207
-605.157	800.000	-0.102	-0.414
-604.142	-130.415	-0.236	-0.033
-603.128	-86.456	0.255	-0.080
-602.113	82.076	-0.192	0.212
-601.098	-88.434	0.295	0.090
-600.084	764.631	0.082	0.226
-599.069	2.068	0.067	-0.049
-598.055	-141.484	0.266	-0.027
-597.040	-200.000	0.036	0.301
-596.025	7.379	0.069	0.052
-595.011	-200.000	0.012	0.055
-593.996	-200.000	-0.033	0.397
-592.982	-68.427	-0.077	0.030
-591.967	-17.901	-0.599	0.381
-590.952	425.306	-0.238	0.521
-589.938	800.000	0.080	-0.258
-588.923	-115.523	0.254	-0.049
-587.909	-6.675	0.167	-0.116
-586.894	-67.427	0.417	-0.167
-585.879	4.183	0.165	0.123
-584.865	-98.751	-0.071	0.018
-583.850	-194.280	0.212	0.002
-582.836	-136.683	-0.114	-0.013
-581.821	63.711	0.066	-0.068
-580.806	-200.000	0.013	0.251
-579.792	800.000	-0.033	0.127
-578.777	-200.000	0.259	-0.001
-577.763	410.849	-0.117	0.253
-576.748	-200.000	-0.049	0.237
-575.733	36.631	-0.116	-0.104
-574.719	113.778	0.081	0.100
-573.704	-152.749	0.227	-0.016
-572.690	-7.654	0.343	-0.236
-571.675	-103.658	-0.365	0.087
-570.661	-9.794	0.101	-0.068
-569.646	-200.000	-0.041	0.187
-568.631	317.024	-0.159	-0.306
-567.617	709.082	0.026	-0.070
-566.602	-112.826	-0.417	-0.084
-565.588	-55.003	0.229	-0.105
-564.573	43.737	0.057	0.053
-563.558	105.288	-0.150	-0.179
-562.544	-159.507	-0.050	0.003
-561.529	37.391	0.248	0.223
-560.515	281.769	0.258	-0.469
-559.500	-200.000	0.003	-0.106
-558.485	-101.568	-0.162	-0.040
-557.471	725.498	0.121	-0.328
-556.456	-22.961	0.216	-0.132
-555.442	-88.041	-0.373	0.114
-554.427	-175.926	-0.192	0.005
-553.412	-200.000	0.061	-0.278
-552.398	437.309	0.132	-0.292
-551.383	-26.136	-0.108	-0.065
-550.369	-200.000	-0.017	-0.260
-549.354	315.117	-0.034	0.064
-548.339	800.000	0.144	0.427
-547.325	-82.724	-0.083	0.027
-546.310	-1.535	-0.332	-0.238
-545.296	26.723	-0.356	-0.302
-544.281	60.307	-0.046	-0.047
-543.266	-92.476	-0.117	0.034
-542.252	-93.771	-0.398	-0.111
-541.237	181.673	0.071	-0.107
-540.223	73.110	0.352	0.373
-539.208	177.684	0.238	0.352
-538.193	-200.000	-0.013	0.299
-537.179	-80.148	0.066	-0.022
-536.164	-200.000	0.043	0.204
-535.150	-200.000	-0.005	0.046
-534.135	-36.619	-0.499	0.272
-533.121	800.000	-0.053	-0.156
-532.106	781.161	-0.086	0.238
-531.091	800.000	-0.031	0.135
-530.077	-104.201	-0.183	0.043
-529.062	10.212	-0.247	0.190
-528.048	48.964	0.249	0.237
-527.033	301.919	0.054	0.101
-526.018	800.000	-0.099	-0.278
-525.004	-200.000	0.030	0.212
-523.989	-125.167	0.069	0.011
-522.975	800.000	0.032	-0.103
-521.960	56.328	-0.204	-0.201
-520.945	-39.749	0.237	-0.126
-519.931	-38.337	-0.217	-0.117
-518.916	-15.487	-0.242	0.157
-517.902	1.524	0.145	0.105
-516.887	-150.003	0.185	-0.015
-515.872	-126.324	0.179	0.027
-514.858	216.978	-0.078	0.126
-513.843	169.322	0.029	-0.042
-512.829	-13.650	-0.190	0.124
-511.814	471.397	0.170	0.388
-510.799	81.068	0.132	-0.144
-509.785	505.434	0.039	0.091
-508.770	-53.817	0.087	0.040
-507.756	69.814	0.221	-0.231
-506.741	800.000	0.066	-0.225
-505.726	21.179	-0.152	0.125
-504.712	31.597	0.102	0.089
-503.697	-77.436	0.139	-0.049
-502.683	23.848	0.158	-0.132
-501.668	-200.000	0.003	0.180
-500.653	29.737	-0.206	-0.178
-499.639	289.747	-0.059	-0.109
-498.624	496.371	0.024	-0.057
-497.610	-200.000	0.015	0.231
-496.595	375.638	0.056	0.116
-495.581	292.467	-0.030	-0.054
-494.566	-119.938	-0.295	0.051
-493.551	800.000	-0.049	-0.148
-492.537	800.000	-0.138	0.410
-491.522	-188.621	0.096	-0.001
-490.508	63.297	0.261	-0.265
-489.493	50.130	0.244	0.234
-488.478	-161.054	-0.219	-0.012
-487.464	-126.886	0.171	0.026
-486.449	-73.555	-0.335	-0.123
-485.435	45.772	-0.060	-0.056
-484.420	-139.014	0.213	0.023
-483.405	-151.186	0.354	-0.027
-482.391	46.230	0.232	0.217
-481.376	114.834	0.136	0.167
-480.362	176.176	-0.186	-0.274
-479.347	24.353	-0.309	-0.258
-478.332	-143.677	-0.323	0.031
-477.318	278.670	-0.080	0.145
-476.303	326.745	0.044	-0.085
-475.289	-163.826	-0.113	-0.005
-474.274	-200.000	-0.028	-0.203
-473.259	800.000	-0.066	-0.223
-472.245	-7.627	0.211	-0.144
-471.230	-160.109	-0.191	0.011
-470.216	100.105	-0.174	0.204
-469.201	454.797	-0.023	-0.051
-468.186	60.293	-0.115	-0.115
-467.172	610.040	0.048	-0.120
-466.157	-200.000	0.003	-0.017
-465.143	41.874	-0.172	0.158
-464.128	-200.000	-0.011	0.157
-463.113	236.736	-0.049	-0.082
-462.099	686.114	-0.005	-0.014
-461.084	-200.000	-0.380	-0.001
-460.070	-58.532	0.139	-0.061
-459.055	-78.039	0.257	-0.089
-458.040	-200.000	0.009	0.059
-457.026	-76.764	-0.272	0.096
-456.011	-109.337	0.218	-0.047
-454.997	-80.642	-0.069	-0.023
-453.982	800.000	0.122	-0.404
-452.968	-101.833	-0.113	-0.028
-451.953	51.403	-0.241	0.231
-450.938	-32.775	0.046	0.026
-449.924	-200.000	0.032	-0.407
-448.909	12.257	0.100	0.078
-447.895	-44.092	-0.287	-0.146
-446.880	91.080	0.134	0.152
-445.865	-21.879	0.364	-0.224
-444.851	-91.092	0.233	0.068
-443.836	-140.937	0.126	-0.013
-442.822	599.165	-0.081	0.203
-441.807	44.392	0.392	-0.364
-440.792	-107.563	-0.099	0.022
-439.778	0.941	0.267	-0.194
-438.763	-36.950	0.216	0.117
-437.749	7.506	-0.370	-0.279
-436.734	112.533	0.090	-0.110
-435.719	12.966	-0.168	0.131
-434.705	800.000	-0.030	0.112
-433.690	-166.453	-0.390	-0.017
-432.676	-184.012	0.447	0.008
-431.661	-200.000	-0.025	0.134
-430.646	-200.000	0.033	-0.164
-429.632	-200.000	-0.009	-0.234
-428.617	-53.633	0.208	0.096
-427.603	-94.167	0.042	0.012
-426.588	-89.116	-0.281	-0.084
-425.573	-35.378	0.307	-0.169
-424.559	-200.000	0.002	-0.123
-423.544	625.755	0.070	0.179
-422.530	-57.386	0.167	0.074
-421.515	-75.678	0.120	0.043
-420.500	36.992	0.288	-0.258
-419.486	-102.613	0.088	-0.021
-418.471	-200.000	0.066	-0.462
-417.457	82.944	0.163	0.179
-416.442	-156.045	0.177	-0.011
-415.428	-200.000	-0.200	0.000
-414.413	-200.000	-0.041	-0.198
-413.398	211.060	-0.243	-0.385
-412.384	800.000	0.062	0.249
-411.369	93.291	0.094	0.107
-410.355	63.308	0.087	0.088
-409.340	85.277	-0.136	-0.151
-408.325	-18.871	0.166	-0.104
-407.311	226.260	-0.163	0.267
-406.296	-171.283	-0.122	0.004
-405.282	-26.320	0.376	-0.222
-404.267	91.629	0.124	0.140
-403.252	68.113	-0.113	0.117
-402.238	800.000	-0.011	0.036
-401.223	-133.262	-0.284	0.036
-400.209	-20.709	0.049	0.030
-399.194	-200.000	0.057	0.307
-398.179	-10.866	-0.103	-0.068
-397.165	-158.000	-0.093	-0.006
-396.150	-159.416	-0.095	-0.005
-395.136	439.104	-0.074	0.162
-394.121	575.731	-0.241	0.592
-393.106	244.929	0.098	-0.165
-392.092	-46.454	0.132	-0.065
-391.077	35.548	0.333	-0.294
-390.063	-200.000	-0.061	-0.378
-389.048	250.515	-0.069	0.118
-388.033	240.639	0.081	0.137
-387.019	-88.417	-0.209	0.063
-386.004	-200.000	0.011	-0.179
-384.990	27.633	-0.079	-0.067
-383.975	111.060	-0.176	0.214
-382.960	48.711	0.206	-0.194
-381.946	115.251	-0.142	0.175
-380.931	68.138	0.157	0.162
-379.917	-200.000	-0.022	-0.110
-378.902	-66.826	-0.114	-0.046
-377.888	51.457	-0.241	0.230
-376.873	-132.644	-0.205	0.027
-375.858	-32.657	0.198	0.111
-374.844	3.945	0.120	0.089
-373.829	-187.390	0.165	-0.002
-372.815	65.688	-0.218	-0.222
-371.800	-200.000	0.011	-0.309
-370.785	369.792	0.069	-0.142
-369.771	-32.166	-0.179	-0.101
-368.756	-30.737	0.367	0.209
-367.742	-49.976	-0.230	0.110
-366.727	10.170	-0.069	-0.053
-365.712	-200.000	0.012	0.245
-364.698	-85.109	-0.403	-0.127
-363.683	105.451	-0.049	-0.058
-362.669	-123.715	-0.121	-0.019
-361.654	-118.567	0.278	-0.050
-360.639	-146.434	-0.401	0.035
-359.625	-67.558	-0.136	0.054
-358.610	49.089	-0.256	0.242
-357.596	223.007	-0.111	0.180
-356.581	-9.532	-0.175	0.117
-355.566	-124.988	-0.077	-0.012
-354.552	-200.000	0.014	0.329
-353.537	34.254	-0.160	0.140
-352.523	-94.763	0.057	-0.016
-351.508	-118.402	0.346	-0.062
-350.493	135.560	-0.076	0.100
-349.479	213.947	0.206	0.328
-348.464	164.065	-0.244	0.346
-347.450	201.107	0.168	-0.260
-346.435	-19.798	0.241	0.150
-345.420	800.000	-0.026	0.090
-344.406	223.320	0.143	0.232
-343.391	366.837	-0.217	-0.441
-342.377	-200.000	-0.016	-0.076
-341.362	-55.358	0.087	-0.039
-340.348	800.000	0.052	-0.189
-339.333	163.693	0.072	0.101
-338.318	433.293	-0.065	-0.142
-337.304	-64.903	-0.327	0.133
-336.289	-110.316	0.641	0.134
-335.275	-145.019	0.033	-0.003
-334.260	-76.870	-0.618	-0.217
-333.245	245.469	-0.151	0.256
-332.231	-111.429	-0.102	0.021
-331.216	344.065	0.099	0.194
-330.202	-68.445	0.246	-0.096
-329.187	-200.000	-0.002	-0.191
-328.172	-20.896	-0.249	0.154
-327.158	78.441	-0.175	0.188
-326.143	800.000	0.073	0.319
-325.129	-22.093	0.128	-0.078
-324.114	301.392	-0.056	0.104
-323.099	141.335	0.189	0.251
-322.085	-200.000	-0.027	-0.250
-321.070	800.000	-0.077	0.219
-320.056	-89.383	-0.235	-0.069
-319.041	800.000	0.134	-0.410
-318.026	-128.984	0.404	0.057
-317.012	66.404	-0.227	-0.232
-315.997	800.000	-0.082	-0.344
-314.983	800.000	-0.048	-0.145
-313.968	212.256	0.106	0.168
-312.953	-116.109	-0.287	-0.054
-311.939	-74.133	0.259	-0.094
-310.924	-200.000	0.031	-0.437
-309.910	-200.000	0.030	0.212
-308.895	-200.000	-0.043	-0.193
-307.880	72.388	0.121	0.126
-306.866	22.628	-0.160	0.131
-305.851	-138.968	0.300	-0.033
-304.837	-200.000	-0.040	-0.233
-303.822	-151.274	0.292	0.022
-302.807	-200.000	-0.034	-0.262
-301.793	-117.775	0.287	0.052
-300.778	-107.331	-0.162	0.036
-299.764	-173.794	-0.148	0.004
-298.749	12.925	0.375	0.291
-297.735	55.750	-0.048	-0.047
-296.720	-67.023	-0.309	-0.122
-295.705	-109.980	-0.249	-0.052
-294.691	-93.194	0.368	0.103
-293.676	-91.216	-0.041	-0.012
-292.662	407.242	-0.089	-0.188
-291.647	-200.000	0.063	-0.423
-290.632	-173.081	0.129	0.004
-289.618	-126.976	-0.225	-0.033
-288.603	800.000	-0.050	-0.159
-287.589	574.310	-0.062	0.151
-286.574	118.430	0.156	-0.193
-285.559	-200.000	-0.059	-0.319
-284.545	-93.546	-0.167	-0.046
-283.530	-200.000	-0.048	0.298
-282.516	-163.480	-0.367	0.017
-281.501	20.258	-0.148	0.120
-280.486	-1.048	-0.170	-0.121
-279.472	318.670	0.095	0.180
-278.457	800.000	0.142	0.399
-277.443	-131.432	0.306	0.041
-276.428	-80.621	0.346	0.116
-275.413	290.079	0.125	0.228
-274.399	-77.933	0.132	-0.046
-273.384	800.000	-0.087	-0.321
-272.370	-26.325	0.142	-0.084
-271.355	-57.981	0.367	0.161
-270.340	286.102	-0.136	-0.247
-269.326	168.068	-0.030	0.043
-268.311	71.567	-0.306	-0.319
-267.297	-140.274	-0.197	-0.021
-266.282	-200.000	-0.034	-0.184
-265.267	800.000	0.024	-0.091
-264.253	-40.131	0.101	0.053
-263.238	-92.938	0.115	-0.032
-262.224	-74.031	-0.493	0.179
-261.209	-5.573	-0.272	0.187
-260.195	800.000	0.027	0.076
-259.180	582.223	-0.088	0.216
-258.165	-4.235	0.260	0.181
-257.151	82.268	0.071	-0.077
-256.136	-73.743	0.377	0.138
-255.122	410.556	0.192	0.409
-254.107	-84.883	-0.029	-0.009
-253.092	-200.000	0.015	-0.165
-252.078	59.001	-0.153	0.151
-251.063	-200.000	-0.050	0.543
-250.049	-200.000	0.002	-0.057
-249.034	-200.000	-0.053	-0.419
-248.019	-148.828	-0.062	-0.005
-247.005	-47.374	-0.276	0.135
-245.990	-125.667	-0.111	0.017
-244.976	72.420	-0.235	-0.246
-243.961	10.095	0.160	-0.122
-242.946	-82.289	0.413	0.135
-241.932	41.925	0.226	-0.205
-240.917	116.110	-0.071	-0.088
-239.903	404.657	-0.083	0.176
-238.888	448.799	0.081	0.180
-237.873	-50.248	0.092	0.044
-236.859	-200.000	-0.029	0.291
-235.844	800.000	0.132	0.426
-234.830	-200.000	-0.006	0.072
-233.815	-119.567	-0.215	-0.037
-232.800	-42.244	0.387	0.198
-231.786	-41.583	0.256	-0.132
-230.771	114.795	-0.071	-0.087
-229.757	54.274	-0.162	-0.157
-228.742	-200.000	-0.014	-0.129
-227.727	-21.135	0.064	0.039
-226.713	-91.432	-0.342	-0.098
-225.698	-200.000	0.033	-0.209
-224.684	217.089	0.063	-0.101
-223.669	800.000	-0.055	-0.207
-222.655	560.478	-0.064	-0.154
-221.640	1.463	-0.375	0.270
-220.625	139.198	-0.192	0.253
-219.611	90.500	-0.154	0.173
-218.596	800.000	-0.039	0.108
-217.582	-48.241	0.243	0.118
-216.567	-123.524	-0.303	-0.048
-215.552	-22.850	0.278	-0.168
-214.538	-63.337	0.035	0.015
-213.523	-95.704	0.065	-0.018
-212.509	199.739	0.176	-0.270
-211.494	-149.693	-0.205	0.016
-210.479	-79.295	0.190	-0.064
-209.465	-200.000	-0.021	0.101
-208.450	107.415	0.216	-0.257
-207.436	-83.350	-0.039	-0.013
-206.421	-66.737	-0.237	-0.094
-205.406	-200.000	0.027	0.124
-204.392	-67.646	-0.101	0.039
-203.377	161.291	0.172	0.240
-202.363	-90.216	0.116	-0.034
-201.348	-200.000	0.009	-0.139
-200.333	149.010	0.187	0.253
-199.319	-102.707	-0.093	-0.022
-198.304	42.402	-0.218	-0.199
-197.290	249.155	-0.114	-0.192
-196.275	-62.370	-0.174	0.073
-195.260	800.000	-0.041	0.176
-194.246	20.842	-0.191	0.154
-193.231	15.989	-0.244	-0.192
-192.217	-166.228	0.424	0.018
-191.202	370.909	-0.125	-0.253
-190.187	271.867	0.059	0.105
-189.173	52.064	-0.104	-0.099
-188.158	52.296	0.030	0.029
-187.144	-200.000	-0.007	0.089
-186.129	58.497	-0.234	0.230
-185.114	-33.110	-0.147	-0.082
-184.100	388.654	0.080	-0.165
-183.085	231.279	0.014	-0.023
-182.071	634.517	-0.047	-0.120
-181.056	-41.511	-0.303	0.156
-180.042	90.759	0.225	0.252
-179.027	-116.725	-0.053	0.010
-178.012	-200.000	0.016	-0.194
-176.998	-48.304	0.062	-0.030
-175.983	-200.000	0.025	0.146
-174.969	800.000	0.087	-0.257
-173.954	85.006	-0.160	-0.175
-172.939	92.634	-0.134	0.151
-171.925	-78.739	0.186	-0.063
-170.910	-200.000	-0.238	0.000
-169.896	-64.442	-0.232	-0.094
-168.881	-200.000	0.034	-0.289
-167.866	-165.297	-0.252	0.011
-166.852	-200.000	0.070	0.477
-165.837	25.255	0.124	-0.103
-164.823	-73.416	-0.313	-0.114
-163.808	-8.660	0.156	0.105
-162.793	522.853	-0.087	0.204
-161.779	80.728	-0.128	0.138
-160.764	-51.152	-0.098	-0.046
-159.750	800.000	0.057	0.204
-158.735	286.492	0.039	-0.071
-157.720	-57.836	-0.105	-0.046
-156.706	-200.000	-0.013	0.081
-155.691	-51.588	0.388	0.181
-154.677	-200.000	-0.026	0.233
-153.662	530.378	0.073	0.172
-152.647	-157.869	-0.043	-0.003
-151.633	440.648	0.033	-0.072
-150.618	-200.000	0.014	-0.110
-149.604	-75.040	0.401	0.143
-148.589	-68.052	-0.099	0.038
-147.574	-45.298	-0.041	-0.020
-146.560	800.000	0.139	-0.385
-145.545	17.740	-0.269	-0.214
-144.531	-133.020	-0.203	-0.026
-143.516	160.071	0.258	0.359
-142.502	597.456	-0.083	-0.205
-141.487	-69.779	0.282	0.108
-140.472	-3.236	0.197	-0.137
-139.458	-83.544	0.229	-0.073
-138.443	415.802	-0.129	-0.275
-137.429	437.231	-0.036	-0.078
-136.414	89.891	-0.123	-0.137
-135.399	-200.000	0.094	0.514
-134.385	109.335	0.059	0.071
-133.370	-103.264	0.143	0.034
-132.356	-200.000	-0.006	-0.181
-131.341	37.286	0.059	-0.052
-130.326	-37.682	-0.068	0.036
-129.312	339.790	0.094	-0.183
-128.297	-1.342	-0.162	0.114
-127.283	-8.776	-0.212	-0.142
-126.268	-141.545	-0.018	-0.002
-125.253	800.000	0.028	-0.077
-124.239	800.000	-0.034	-0.141
-123.224	132.220	-0.294	0.378
-122.210	261.360	-0.083	0.144
-121.195	-200.000	-0.024	0.115
-120.180	229.893	-0.033	-0.054
-119.166	37.194	0.181	-0.160
-118.151	-27.410	-0.083	-0.048
-117.137	800.000	0.083	-0.251
-116.122	-148.345	0.074	-0.006
-115.107	99.761	-0.262	0.303
-114.093	-200.000	-0.020	0.191
-113.078	71.485	-0.012	0.013
-112.064	78.440	0.122	0.130
-111.049	39.539	0.261	-0.234
-110.034	-121.546	-0.300	0.050
-109.020	119.316	-0.091	-0.112
-108.005	-35.908	0.165	-0.089
-106.991	19.149	0.046	0.037
-105.976	-172.690	0.422	0.013
-104.962	-34.805	-0.251	-0.137
-103.947	800.000	0.010	-0.033
-102.932	800.000	-0.066	0.269
-101.918	-172.201	-0.297	-0.010
-100.903	-173.909	0.211	0.006
-99.889	-200.000	0.001	-0.204
-98.874	-87.424	0.289	-0.087
-97.859	57.620	0.034	-0.034
-96.845	40.857	-0.132	-0.119
-95.830	-200.000	0.026	-0.305
-94.816	-200.000	0.102	0.000
-93.801	329.254	-0.196	-0.376
-92.786	-63.277	0.127	-0.052
-91.772	54.689	0.203	0.195
-90.757	-23.109	0.151	-0.090
-89.743	-49.515	-0.138	0.066
-88.728	760.815	0.070	0.189
-87.713	98.861	0.111	-0.127
-86.699	800.000	-0.100	-0.278
-85.684	74.565	0.208	-0.218
-84.670	-170.945	-0.313	0.011
-83.655	25.769	-0.222	0.184
-82.640	109.204	0.034	-0.041
-81.626	800.000	0.027	-0.099
-80.611	58.675	-0.124	0.121
-79.597	-39.174	-0.224	0.117
-78.582	-88.264	0.361	-0.108
-77.567	161.423	0.172	0.239
-76.553	800.000	0.102	0.338
-75.538	-72.666	0.116	-0.042
-74.524	-200.000	-0.053	-0.552
-73.509	321.277	0.027	0.051
-72.494	99.092	-0.031	-0.036
-71.480	-131.582	0.139	-0.018
-70.465	20.258	-0.099	0.080
-69.451	-137.135	0.105	-0.012
-68.436	800.000	-0.067	-0.189
-67.422	-68.857	-0.190	-0.073
-66.407	-200.000	-0.045	0.267
-65.392	-145.890	-0.276	-0.024
-64.378	-84.645	-0.224	-0.070
-63.363	72.948	-0.242	-0.252
-62.349	-9.360	0.096	-0.064
-61.334	44.519	-0.877	-0.802
-60.319	-90.329	0.203	0.059
-59.305	-200.000	-0.154	-0.771
-58.290	362.936	0.447	0.893
-57.276	322.646	0.814	1.543
-56.261	-200.000	82.694	500.787
-55.246	564.066	1364.418	3288.953
-54.232	184.410	2588.128	3815.027
-53.217	121.407	2235.212	2770.807
-52.203	49.967	1686.556	1583.100
-51.188	42.331	1418.480	1282.833
-50.173	38.983	1374.227	1221.972
-49.159	56.904	1414.284	1370.916
-48.144	62.274	1433.291	1423.129
-47.130	42.671	1393.303	1262.000
-46.115	39.059	1375.701	1223.565
-45.100	38.826	1371.425	1218.265
-44.086	38.705	1368.614	1214.968
-43.071	38.677	1366.382	1212.763
-42.057	38.671	1364.159	1210.705
-41.042	38.833	1362.172	1209.894
-40.027	38.791	1361.167	1208.695
-39.013	38.782	1359.621	1207.221
-37.998	38.775	1357.706	1205.430
-36.984	38.817	1355.924	1204.056
-35.969	38.973	1353.344	1202.672
-34.954	38.932	1351.820	1201.023
-33.940	38.858	1350.643	1199.476
-32.925	39.014	1348.915	1198.847
-31.911	39.115	1347.394	1198.060
-30.896	39.098	1345.755	1196.455
-29.881	39.021	1344.155	1194.518
-28.867	39.003	1343.071	1193.393
-27.852	38.946	1342.074	1192.115
-26.838	39.003	1340.509	1191.023
-25.823	38.868	1339.212	1189.008
-24.809	39.003	1337.246	1188.033
-23.794	38.882	1335.798	1185.964
-22.779	39.066	1334.377	1185.766
-21.765	39.037	1333.081	1184.392
-20.750	39.028	1331.761	1183.119
-19.736	38.833	1330.584	1180.855
-18.721	38.916	1329.471	1180.317
-17.706	38.938	1327.709	1178.840
-16.692	38.850	1327.094	1177.715
-15.677	38.851	1325.787	1176.515
-14.663	38.898	1324.808	1175.884
-13.648	38.807	1323.975	1174.552
-12.633	38.769	1323.005	1173.419
-11.619	38.839	1321.956	1172.859
-10.604	38.918	1321.044	1172.475
-9.590	38.766	1319.996	1170.592
-8.575	38.856	1318.912	1170.119
-7.560	38.895	1317.853	1169.370
-6.546	38.831	1317.785	1168.878
-5.531	38.870	1316.535	1167.954
-4.517	38.792	1315.853	1166.841
-3.502	38.783	1314.970	1165.956
-2.487	38.845	1313.782	1165.227
-1.473	38.868	1309.360	1161.392
-0.458	37.425	1293.497	1138.830
0.556	33.747	1273.249	1092.755
1.571	29.077	1276.785	1068.659
2.586	27.648	1290.923	1072.002
3.600	26.152	1278.801	1053.120
4.615	19.457	1202.823	953.596
5.629	9.857	1122.316	839.955
6.644	5.258	1099.401	799.246
7.659	4.969	1096.671	795.712
8.673	5.212	1095.333	795.913
9.688	5.101	1094.634	794.766
10.702	5.448	1092.711	795.063
11.717	10.512	1100.186	826.291
12.731	18.757	1112.064	877.443
13.746	21.197	1114.198	891.523
14.761	19.799	1112.003	882.556
15.775	18.749	1110.184	875.685
16.790	17.725	1107.922	868.607
17.804	16.922	1105.935	862.887
18.819	16.637	1104.558	860.291
19.834	16.302	1104.107	858.159
20.848	16.072	1103.120	856.152
21.863	15.839	1102.212	854.185
22.877	15.814	1101.523	853.450
23.892	15.735	1101.027	852.588
24.907	15.728	1100.201	851.841
25.921	15.936	1098.937	851.836
26.936	15.699	1097.763	849.653
27.950	15.856	1096.136	849.114
28.965	15.887	1094.804	848.161
29.980	15.992	1093.142	847.329
30.994	16.127	1092.159	847.169
32.009	16.049	1091.043	845.838
33.023	15.946	1090.193	844.585
34.038	16.060	1088.812	844.015
35.053	15.901	1087.661	842.252
36.067	15.884	1087.040	841.611
37.082	16.116	1085.709	841.663
38.096	15.958	1085.632	840.739
39.111	16.003	1084.704	840.174
40.126	15.916	1083.748	838.922
41.140	15.703	1082.218	836.604
42.155	15.748	1080.655	835.544
43.169	15.609	1079.956	834.245
44.184	15.583	1078.817	833.159
45.199	15.646	1077.474	832.359
46.213	15.821	1076.416	832.337
47.228	15.780	1075.724	831.526
48.242	15.869	1074.785	831.165
49.257	15.879	1073.751	830.339
50.271	15.891	1072.805	829.594
51.286	15.997	1072.207	829.580
52.301	15.988	1070.921	828.467
53.315	15.919	1069.702	827.116
54.330	15.785	1068.787	825.673
55.344	15.700	1068.203	824.731
56.359	15.866	1066.737	824.341
57.374	15.786	1065.960	823.277
58.388	15.610	1065.156	821.722
59.403	15.601	1064.362	820.993
60.417	15.758	1063.269	820.845
61.432	15.652	1062.943	820.000
62.447	15.522	1062.136	818.673
63.461	15.529	1061.245	817.947
64.476	15.480	1060.505	817.065
65.490	15.540	1059.220	816.295
66.505	15.607	1058.423	815.936
67.520	15.646	1058.031	815.749
68.534	15.537	1057.287	814.576
69.549	15.545	1056.539	813.967
70.563	15.557	1055.812	813.394
71.578	15.373	1055.150	811.918
72.593	15.541	1053.648	811.502
73.607	15.331	1053.426	810.246
74.622	15.447	1052.727	810.198
75.636	15.403	1051.889	809.267
76.651	15.543	1050.782	809.018
77.666	15.402	1051.040	808.466
78.680	15.495	1050.061	808.089
79.695	15.544	1049.335	807.698
80.709	15.535	1048.951	807.286
81.724	15.689	1048.117	807.312
82.739	15.691	1047.621	806.867
83.753	15.911	1046.598	807.065
84.768	15.991	1045.910	806.843
85.782	16.179	1044.789	806.806
86.797	16.042	1044.028	805.494
87.812	15.952	1042.852	804.084
88.826	15.915	1041.763	802.997
89.841	15.918	1040.982	802.339
90.855	16.003	1040.088	801.983
91.870	16.097	1039.266	801.726
92.884	16.002	1038.467	800.590
93.899	16.028	1037.767	800.102
94.914	16.169	1036.807	799.959
95.928	16.009	1036.353	798.777
96.943	16.141	1034.373	797.805
97.957	15.992	1033.967	796.720
98.972	15.984	1033.356	796.140
99.987	15.999	1032.262	795.297
101.001	16.029	1031.203	794.552
102.016	16.017	1030.316	793.741
103.030	16.086	1029.714	793.533
104.045	16.118	1028.737	792.862
105.060	15.929	1027.811	791.186
106.074	15.815	1026.847	789.841
107.089	15.777	1025.530	788.582
108.103	15.631	1024.791	787.256
109.118	15.625	1023.730	786.347
110.133	15.569	1023.048	785.490
111.147	15.782	1021.491	785.220
112.162	15.800	1020.686	784.616
113.176	15.795	1020.113	784.084
114.191	15.846	1019.835	784.035
115.206	15.761	1019.141	783.039
116.220	15.668	1018.065	781.709
117.235	15.837	1016.360	781.115
118.249	15.668	1016.166	780.115
119.264	15.780	1015.207	779.829
120.279	15.749	1014.423	779.014
121.293	15.728	1013.690	778.285
122.308	15.744	1012.544	777.408
123.322	15.584	1011.426	775.742
124.337	15.639	1010.465	775.189
125.352	15.700	1009.148	774.394
126.366	15.706	1008.337	773.731
127.381	15.601	1007.653	772.652
128.395	15.707	1006.560	772.233
129.410	15.723	1005.577	771.487
130.424	15.704	1004.921	770.828
131.439	15.802	1004.174	770.635
132.454	15.824	1003.448	770.109
133.468	15.787	1002.699	769.297
134.483	15.792	1001.788	768.552
135.497	15.791	1001.161	767.997
136.512	15.941	1000.011	767.734
137.527	16.027	998.804	767.130
138.541	15.948	998.361	766.361
139.556	15.894	997.885	765.685
140.570	15.946	997.402	765.483
141.585	16.152	996.265	765.476
142.600	16.157	995.254	764.653
143.614	16.297	994.358	764.533
144.629	16.113	994.098	763.433
145.643	16.271	992.219	762.636
146.658	16.078	991.556	761.187
147.673	15.947	990.358	759.609
148.687	15.948	989.560	758.933
149.702	15.769	988.865	757.529
150.716	16.008	987.805	757.724
151.731	15.927	987.205	756.831
152.746	15.978	986.228	756.247
153.760	16.021	985.560	755.860
154.775	16.097	985.126	755.801
155.789	16.248	984.091	755.616
156.804	16.136	983.645	754.705
157.819	16.125	983.261	754.294
158.833	16.164	982.707	753.977
159.848	16.300	981.673	753.726
160.862	16.247	980.686	752.663
161.877	16.065	979.919	751.197
162.892	15.968	978.242	749.412
163.906	15.825	977.859	748.420
164.921	15.877	976.925	747.868
165.935	15.980	975.666	747.294
166.950	16.185	974.704	747.402
167.964	15.980	974.087	745.955
168.979	16.170	972.667	745.642
169.994	16.170	971.779	744.896
171.008	16.139	971.633	744.578
172.023	16.263	970.814	744.432
173.037	16.248	970.432	744.007
174.052	16.192	969.248	742.789
175.067	16.078	968.815	741.886
176.081	16.063	968.051	741.171
177.096	16.163	967.266	740.944
178.110	16.082	966.914	740.252
179.125	16.136	966.442	740.062
180.140	16.105	966.234	739.704
181.154	16.240	965.525	739.685
182.169	16.217	965.118	739.209
183.183	16.323	964.271	738.959
184.198	16.395	963.086	738.297
185.213	16.386	962.762	737.945
186.227	16.380	962.009	737.275
187.242	16.397	961.840	737.155
188.256	16.630	960.814	737.320
189.271	16.628	959.423	736.179
190.286	16.339	958.628	734.248
191.300	15.975	958.048	732.155
192.315	15.953	957.003	731.198
193.329	15.989	957.050	731.325
194.344	16.167	956.352	731.499
195.359	16.243	955.923	731.435
196.373	16.392	955.014	731.322
197.388	16.398	954.753	731.084
198.402	16.673	954.005	731.635
199.417	16.722	953.534	731.420
200.432	16.749	953.039	731.090
201.446	16.740	952.575	730.630
202.461	16.808	951.982	730.406
203.475	16.743	951.586	729.756
204.490	16.564	950.500	728.089
205.504	16.590	949.595	727.442
206.519	16.529	948.492	726.271
207.534	16.640	948.129	726.408
208.548	16.693	947.141	725.811
209.563	16.584	946.629	724.890
210.577	16.650	946.040	724.656
211.592	16.754	945.710	724.785
212.607	16.795	945.149	724.465
213.621	16.765	944.055	723.436
214.636	16.837	943.168	722.999
215.650	16.805	942.422	722.227
216.665	17.027	941.542	722.431
217.680	16.926	941.264	721.726
218.694	16.947	940.201	720.935
219.709	16.816	939.875	720.064
220.723	16.876	939.179	719.725
221.738	16.835	938.113	718.670
222.753	16.862	937.454	718.213
223.767	16.926	936.957	718.041
224.782	17.063	936.547	718.243
225.796	17.086	935.795	717.701
226.811	17.013	934.963	716.693
227.826	16.859	934.879	715.911
228.840	16.882	933.667	715.019
229.855	16.828	933.230	714.393
230.869	16.923	931.933	713.738
231.884	16.834	931.263	712.786
232.899	16.896	929.970	711.994
233.913	16.722	929.767	711.045
234.928	16.878	928.942	711.003
235.942	16.817	928.654	710.468
236.957	16.850	927.972	710.018
237.972	16.824	927.391	709.402
238.986	16.693	926.747	708.299
240.001	17.027	926.091	709.133
241.015	16.924	925.549	708.225
242.030	16.970	924.848	707.817
243.045	16.977	924.391	707.434
244.059	17.029	923.696	707.054
245.074	17.050	923.223	706.718
246.088	17.081	922.281	706.064
247.103	17.230	921.638	706.130
248.117	17.225	921.485	705.929
249.132	17.335	920.708	705.725
250.147	17.555	920.221	706.204
251.161	17.524	919.690	705.606
252.176	17.489	919.038	704.898
253.190	17.628	918.231	704.790
254.205	17.686	917.355	704.297
255.220	17.625	916.661	703.449
256.234	17.555	916.355	702.864
257.249	17.554	915.332	702.014
258.263	17.516	915.176	701.672
259.278	17.551	914.337	701.113
260.293	17.601	913.615	700.704
261.307	17.681	913.069	700.550
262.322	17.699	912.201	699.896
263.336	17.731	911.378	699.336
264.351	17.615	910.707	698.284
265.366	17.756	910.369	698.538
266.380	17.725	909.876	697.970
267.395	17.784	908.492	697.088
268.409	17.730	907.585	696.110
269.424	17.633	907.217	695.373
270.439	17.528	906.706	694.489
271.453	17.489	905.898	693.650
272.468	17.562	905.298	693.428
273.482	17.632	904.691	693.185
274.497	17.765	903.662	692.878
275.512	17.744	903.494	692.601
276.526	17.533	902.928	691.250
277.541	17.639	902.627	691.389
278.555	17.743	902.149	691.382
279.570	17.910	901.260	691.317
280.585	17.896	900.498	690.614
281.599	17.811	899.639	689.549
282.614	17.777	898.860	688.754
283.628	17.906	898.119	688.645
284.643	17.929	897.378	688.112
285.657	17.781	896.975	687.144
286.672	17.839	896.403	686.877
287.687	17.805	896.053	686.415
288.701	17.904	895.245	686.131
289.716	17.999	894.350	685.764
290.730	17.915	894.225	685.272
291.745	17.986	893.403	684.868
292.760	18.035	892.834	684.564
293.774	18.117	892.275	684.406
294.789	18.152	891.258	683.703
295.803	18.081	890.779	682.994
296.818	17.986	889.844	681.835
297.833	17.965	889.077	681.105
298.847	17.870	888.514	680.235
299.862	17.812	888.340	679.811
300.876	18.068	887.739	680.308
301.891	18.208	886.795	680.080
302.906	18.255	886.265	679.802
303.920	18.166	886.339	679.446
304.935	18.328	885.655	679.506
305.949	18.400	884.450	678.803
306.964	18.192	884.250	677.765
307.979	18.243	883.676	677.469
308.993	18.200	883.391	677.019
310.008	18.360	882.715	677.075
311.022	18.296	882.211	676.374
312.037	18.233	881.050	675.175
313.052	18.125	880.431	674.215
314.066	18.165	879.731	673.780
315.081	18.158	878.972	673.110
316.095	18.266	878.279	672.945
317.110	18.201	877.686	672.175
318.125	18.141	877.618	671.829
319.139	18.161	877.045	671.408
320.154	18.075	876.551	670.634
321.168	18.162	876.161	670.618
322.183	18.360	875.455	670.792
323.197	18.325	874.874	670.152
324.212	18.269	874.635	669.689
325.227	18.305	873.684	669.044
326.241	18.366	872.534	668.342
327.256	18.270	872.597	667.955
328.270	18.157	872.232	667.177
329.285	18.343	871.502	667.283
330.300	18.300	870.416	666.224
331.314	18.240	870.255	665.810
332.329	18.410	869.849	666.100
333.343	18.509	869.421	666.099
334.358	18.518	868.757	665.565
335.373	18.589	868.346	665.471
336.387	18.467	868.123	664.767
337.402	18.490	867.878	664.610
338.416	18.624	867.468	664.756
339.431	18.800	867.207	665.179
340.446	18.732	866.828	664.566
341.460	18.707	866.659	664.279
342.475	18.732	866.122	663.906
343.489	18.883	865.415	663.888
344.504	18.860	865.091	663.492
345.519	19.069	864.278	663.617
346.533	18.797	863.690	662.060
347.548	18.693	863.352	661.340
348.562	18.705	862.340	660.551
349.577	18.566	862.209	659.858
350.592	18.645	861.357	659.453
351.606	18.711	860.379	658.899
352.621	18.603	859.855	658.024
353.635	18.638	859.530	657.850
354.650	18.654	858.787	657.285
355.665	18.747	858.328	657.234
356.679	18.836	857.346	656.762
357.694	18.810	857.079	656.400
358.708	18.827	856.164	655.707
359.723	18.723	855.540	654.774
360.738	18.942	855.085	655.201
361.752	18.940	854.476	654.671
362.767	18.930	853.740	654.012
363.781	19.060	853.449	654.223
364.796	19.158	853.035	654.219
365.810	19.106	852.868	653.839
366.825	19.150	852.563	653.713
367.840	19.223	851.828	653.367
368.854	19.195	851.114	652.658
369.869	19.100	850.957	652.117
370.883	19.110	850.310	651.605
371.898	19.242	850.239	651.991
372.913	19.309	849.561	651.667
373.927	19.229	849.005	650.881
374.942	19.323	848.464	650.761
375.956	19.313	848.321	650.558
376.971	19.450	847.555	650.428
377.986	19.511	847.213	650.338
379.000	19.548	846.356	649.763
380.015	19.545	845.963	649.394
381.029	19.612	845.246	649.035
382.044	19.418	844.766	647.883
383.059	19.656	844.069	648.182
384.073	19.503	843.912	647.432
385.088	19.383	843.123	646.319
386.102	19.319	842.767	645.748
387.117	19.164	842.211	644.685
388.132	19.325	841.498	644.685
389.146	19.548	840.871	644.980
390.161	19.508	840.372	644.392
391.175	19.569	840.120	644.370
392.190	19.391	839.574	643.229
393.205	19.420	838.924	642.783
394.219	19.331	838.630	642.167
395.234	19.384	837.935	641.776
396.248	19.403	837.669	641.586
397.263	19.324	837.154	640.842
398.278	19.306	836.623	640.312
399.292	19.292	836.537	640.139
400.307	19.351	835.622	639.599
401.321	19.381	835.356	639.452
402.336	19.480	834.639	639.210
403.350	19.444	834.105	638.613
404.365	19.488	834.125	638.735
405.380	19.644	833.557	638.821
406.394	19.623	832.942	638.213
407.409	19.680	832.896	638.334
408.423	19.781	832.446	638.306
409.438	19.784	831.834	637.791
410.453	19.913	831.398	637.875
411.467	20.002	830.727	637.633
412.482	19.997	830.437	637.334
413.496	20.025	830.035	637.070
414.511	20.025	829.868	636.887
415.526	20.015	828.920	636.067
416.540	19.909	828.630	635.398
417.555	20.097	827.909	635.479
418.569	19.930	827.806	634.733
419.584	20.082	827.343	634.876
420.599	19.970	827.103	634.225
421.613	150.952	1366.633	1767.525
422.628	131.646	1445.279	1767.632
