DTS Sentinel unit serial number:	SN413079Multiplexer serial number:	ORYXHardware model number:	OX4-SRSoftware version number:	ORYX F/W v4.00 Oryx Data Collector v3.7.2.0data status	okinstallation	princeton_trtdifferential loss correction	single-endedforward channel	channel 1reverse channel	N/Adate	2019/09/13time	10:30:35forward acquisition time	60.00reverse acquisition time	0.00gamma	496.2192k internal	0.2321k external	0.2321temperature offset calibration	1.0161default loss term (dB/km)	0.3790temperature slope calibration	1.0000multiplexer offset coefficient	1.0000multiplexer slope coefficient	1.0000fibre end	0.00T internal ref (°C)	31.14T ext. ref 1 (°C)	4.55T ext. ref 2 (°C)	28.27length (m)	temperature (°C)	Stokes	anti-Stokes-747.200	800.000	-0.126	0.378
-746.185	-33.605	-0.281	-0.157
-745.171	-143.131	-0.173	0.017
-744.156	-36.763	-0.066	0.036
-743.142	-200.000	0.032	-0.245
-742.127	-10.493	-0.242	0.162
-741.112	-116.995	0.143	0.026
-740.098	-200.000	0.006	0.104
-739.083	-200.000	-0.018	0.088
-738.069	-82.720	0.298	0.097
-737.054	90.476	0.058	0.065
-736.039	39.564	-0.323	-0.293
-735.025	112.335	0.061	-0.074
-734.010	243.964	-0.099	0.167
-732.996	114.076	-0.017	-0.021
-731.981	69.730	-0.053	-0.055
-730.966	-91.199	-0.216	-0.062
-729.952	800.000	-0.052	-0.164
-728.937	381.659	0.066	0.136
-727.923	393.155	0.140	-0.294
-726.908	29.030	-0.254	-0.217
-725.894	504.039	-0.128	0.299
-724.879	-200.000	0.031	0.188
-723.864	-18.315	-0.317	0.200
-722.850	-200.000	-0.004	-0.086
-721.835	80.964	-0.116	0.126
-720.821	-110.686	-0.273	-0.057
-719.806	-93.646	0.149	-0.041
-718.791	-33.353	0.387	-0.216
-717.777	-62.647	0.209	-0.088
-716.762	46.758	-0.203	-0.190
-715.748	275.191	-0.192	-0.343
-714.733	33.987	-0.103	-0.091
-713.718	-137.974	-0.260	0.029
-712.704	-23.002	0.100	-0.061
-711.689	800.000	-0.058	0.199
-710.675	182.096	-0.061	0.091
-709.660	800.000	0.073	0.226
-708.645	-18.939	0.067	0.042
-707.631	-200.000	0.018	-0.243
-706.616	-200.000	-0.009	0.232
-705.602	-109.620	0.109	0.023
-704.587	-4.174	-0.017	-0.012
-703.572	39.044	0.191	-0.172
-702.558	-42.098	-0.160	-0.083
-701.543	317.742	0.059	-0.113
-700.529	800.000	0.062	-0.207
-699.514	-128.166	0.179	0.026
-698.499	-135.935	-0.096	0.011
-697.485	13.553	0.265	0.207
-696.470	101.517	-0.139	-0.163
-695.456	-85.288	0.223	-0.070
-694.441	15.970	0.224	-0.178
-693.426	151.280	0.208	-0.286
-692.412	-54.344	-0.180	-0.083
-691.397	737.295	-0.053	-0.144
-690.383	-200.000	-0.050	-0.383
-689.368	800.000	0.058	-0.196
-688.354	-67.859	0.216	0.085
-687.339	1.328	-0.218	-0.158
-686.324	800.000	-0.066	0.188
-685.310	-53.179	0.232	-0.107
-684.295	98.666	-0.243	-0.283
-683.281	-200.000	-0.013	-0.223
-682.266	63.022	-0.172	-0.174
-681.251	-200.000	0.026	0.198
-680.237	-98.662	-0.362	0.093
-679.222	-164.106	-0.185	0.009
-678.208	-35.162	0.328	0.180
-677.193	-51.464	0.385	0.181
-676.178	-150.677	-0.227	0.017
-675.164	-200.000	0.029	-0.245
-674.149	-200.000	0.008	0.404
-673.135	-200.000	-0.018	-0.114
-672.120	167.536	0.176	-0.252
-671.105	-71.438	0.181	-0.068
-670.091	399.786	0.113	-0.239
-669.076	4.837	0.113	0.083
-668.062	653.940	-0.020	0.051
-667.047	-181.532	-0.197	0.004
-666.032	370.351	-0.059	0.121
-665.018	-22.817	-0.083	-0.051
-664.003	-48.808	0.141	-0.068
-662.989	-179.688	-0.306	0.007
-661.974	800.000	-0.096	-0.307
-660.959	800.000	-0.097	0.380
-659.945	-3.179	-0.210	0.147
-658.930	-13.490	-0.365	-0.238
-657.916	-114.278	0.268	-0.052
-656.901	-200.000	0.011	0.060
-655.886	45.348	-0.186	-0.173
-654.872	-200.000	0.021	0.150
-653.857	800.000	0.113	0.340
-652.843	-27.848	0.114	0.067
-651.828	-200.000	-0.024	-0.106
-650.814	149.397	-0.162	-0.222
-649.799	-45.187	0.038	0.019
-648.784	74.224	-0.066	-0.070
-647.770	148.282	0.187	0.253
-646.755	-83.402	-0.150	0.048
-645.741	-10.674	0.319	-0.213
-644.726	-45.540	-0.165	0.082
-643.711	-10.110	0.096	-0.064
-642.697	-150.600	0.141	0.011
-641.682	-49.459	-0.126	0.061
-640.668	70.165	-0.154	-0.160
-639.653	-80.468	-0.245	0.082
-638.638	179.756	0.157	-0.231
-637.624	-160.060	-0.209	0.011
-636.609	142.601	-0.130	0.174
-635.595	-34.781	0.134	-0.074
-634.580	442.930	0.139	-0.306
-633.565	-41.187	-0.200	0.104
-632.551	54.675	0.068	0.066
-631.536	-112.402	0.238	0.048
-630.522	147.403	-0.235	-0.318
-629.507	72.463	-0.298	-0.312
-628.492	67.802	0.179	0.184
-627.478	2.019	-0.042	-0.031
-626.463	31.972	-0.104	0.090
-625.449	-80.337	0.130	0.044
-624.434	189.573	-0.101	0.153
-623.419	800.000	0.065	0.216
-622.405	-200.000	-0.007	-0.051
-621.390	-82.007	-0.213	-0.070
-620.376	-123.704	-0.042	-0.007
-619.361	-33.993	-0.228	-0.126
-618.346	-97.345	0.163	0.043
-617.332	-140.989	0.164	0.017
-616.317	-200.000	-0.024	0.140
-615.303	-200.000	0.007	-0.338
-614.288	-60.488	0.036	-0.016
-613.273	-60.224	-0.260	-0.111
-612.259	-48.384	-0.135	-0.065
-611.244	-82.227	0.132	0.043
-610.230	-200.000	-0.056	0.325
-609.215	-200.000	-0.038	-0.169
-608.201	-85.943	-0.098	0.030
-607.186	-127.800	-0.302	-0.044
-606.171	191.827	-0.194	-0.293
-605.157	-106.251	-0.097	-0.022
-604.142	21.094	-0.047	-0.038
-603.128	189.422	0.243	-0.366
-602.113	-200.000	-0.006	-0.369
-601.098	608.894	0.104	0.260
-600.084	-17.353	-0.094	0.060
-599.069	-59.344	0.288	-0.125
-598.055	116.480	-0.137	0.169
-597.040	-66.502	0.253	0.101
-596.025	800.000	0.097	-0.412
-595.011	800.000	-0.064	-0.180
-593.996	143.991	-0.236	0.317
-592.982	800.000	0.051	0.183
-591.967	-100.394	0.166	0.041
-590.952	70.592	0.188	-0.195
-589.938	-25.712	0.259	0.153
-588.923	-149.204	-0.277	-0.022
-587.909	800.000	0.052	-0.190
-586.894	-45.820	-0.368	0.182
-585.879	-200.000	-0.000	-0.081
-584.865	-6.803	0.082	0.056
-583.850	-110.596	-0.276	0.057
-582.836	-200.000	0.044	0.233
-581.821	-200.000	0.031	-0.439
-580.806	777.902	-0.073	0.201
-579.792	68.400	-0.080	0.083
-578.777	-53.899	0.150	0.069
-577.763	-54.542	0.055	0.025
-576.748	-103.111	0.083	0.020
-575.733	777.233	0.132	-0.361
-574.719	122.488	-0.060	0.075
-573.704	-69.960	-0.235	-0.090
-572.690	-22.833	0.280	-0.170
-571.675	54.350	0.256	0.248
-570.661	86.127	0.087	-0.096
-569.646	-149.480	-0.062	0.005
-568.631	43.822	-0.340	0.313
-567.617	800.000	0.091	-0.263
-566.602	-200.000	-0.018	-0.254
-565.588	176.693	-0.143	0.209
-564.573	453.194	0.086	-0.190
-563.558	49.804	0.227	-0.215
-562.544	172.060	-0.144	0.208
-561.529	288.018	-0.214	0.389
-560.515	7.847	-0.283	0.213
-559.500	-200.000	0.031	0.203
-558.485	350.263	0.073	0.145
-557.471	224.111	-0.131	-0.212
-556.456	-44.226	0.153	-0.077
-555.442	44.560	0.157	0.145
-554.427	-38.330	0.322	-0.171
-553.412	-200.000	-0.010	0.265
-552.398	-200.000	0.005	0.082
-551.383	800.000	-0.044	-0.130
-550.369	-63.793	0.397	-0.163
-549.354	-43.531	-0.150	-0.076
-548.339	198.527	-0.127	-0.195
-547.325	49.673	-0.186	0.176
-546.310	800.000	0.121	-0.338
-545.296	-200.000	-0.017	-0.296
-544.281	-200.000	-0.016	0.145
-543.266	800.000	0.104	0.326
-542.252	-149.459	-0.170	-0.013
-541.237	-200.000	0.040	-0.226
-540.223	5.649	0.293	-0.217
-539.208	-130.624	-0.360	-0.049
-538.193	-14.677	-0.336	-0.216
-537.179	451.364	-0.090	-0.198
-536.164	163.340	-0.093	-0.131
-535.150	101.606	0.221	-0.259
-534.135	-200.000	0.095	-0.458
-533.121	23.038	-0.169	0.139
-532.106	-19.256	-0.039	0.024
-531.091	16.616	-0.123	0.098
-530.077	-146.806	-0.256	-0.022
-529.062	-200.000	0.014	-0.080
-528.048	455.229	0.101	-0.224
-527.033	29.579	-0.095	-0.081
-526.018	-200.000	0.028	0.217
-525.004	-64.694	-0.262	-0.106
-523.989	800.000	-0.084	0.325
-522.975	-76.484	-0.379	-0.133
-521.960	676.067	0.080	0.208
-520.945	-114.738	-0.420	0.080
-519.931	-200.000	0.002	0.045
-518.916	85.311	0.239	0.263
-517.902	-124.740	0.251	-0.039
-516.887	-80.204	0.332	-0.111
-515.872	-200.000	-0.004	0.398
-514.858	45.943	0.095	-0.088
-513.843	-200.000	-0.021	0.094
-512.829	325.337	0.092	-0.176
-511.814	-92.668	-0.232	0.065
-510.799	677.523	0.078	0.203
-509.785	-73.604	-0.205	0.075
-508.770	-200.000	-0.044	-0.219
-507.756	-94.827	-0.122	-0.033
-506.741	-39.794	-0.216	-0.113
-505.726	-191.181	0.190	0.002
-504.712	387.366	-0.129	-0.267
-503.697	-21.732	-0.174	-0.106
-502.683	800.000	0.094	0.272
-501.668	800.000	0.043	-0.184
-500.653	-85.471	0.162	-0.051
-499.639	-73.826	0.215	-0.078
-498.624	-57.211	-0.123	-0.054
-497.610	-200.000	-0.031	0.308
-496.595	68.508	-0.123	0.126
-495.581	-200.000	-0.022	-0.276
-494.566	-72.666	0.195	0.072
-493.551	-200.000	-0.018	0.195
-492.537	-0.717	-0.232	0.165
-491.522	-49.372	0.075	0.036
-490.508	279.261	0.079	-0.141
-489.493	-159.024	-0.310	0.018
-488.478	800.000	-0.106	-0.295
-487.464	-200.000	0.021	0.102
-486.449	-15.475	-0.387	0.247
-485.435	133.502	0.384	0.496
-484.420	38.776	-0.217	0.194
-483.405	-200.000	-0.001	0.031
-482.391	117.578	0.230	-0.284
-481.376	-30.296	0.289	0.164
-480.362	52.401	-0.304	-0.291
-479.347	70.634	0.066	-0.069
-478.332	-144.856	0.211	-0.019
-477.318	-200.000	-0.019	-0.160
-476.303	800.000	0.059	0.197
-475.289	20.938	-0.183	0.149
-474.274	800.000	0.039	0.153
-473.259	-104.205	-0.181	-0.042
-472.245	58.898	-0.186	0.183
-471.230	800.000	0.087	-0.275
-470.216	-78.656	-0.154	0.053
-469.201	-7.837	0.019	0.013
-468.186	-81.256	-0.198	-0.065
-467.172	-14.662	0.118	0.076
-466.157	-200.000	0.002	0.050
-465.143	800.000	-0.042	-0.136
-464.128	-54.668	-0.203	0.092
-463.113	541.172	0.042	0.101
-462.099	800.000	0.133	0.417
-461.084	-173.235	0.150	-0.005
-460.070	310.313	-0.162	0.302
-459.055	21.774	-0.082	-0.067
-458.040	-200.000	-0.030	-0.159
-457.026	260.099	0.099	-0.171
-456.011	21.926	0.083	-0.068
-454.997	27.541	0.114	-0.096
-453.982	-64.155	-0.093	0.038
-452.968	21.360	-0.162	0.131
-451.953	-1.030	0.294	-0.208
-450.938	-200.000	0.037	-0.189
-449.924	80.773	0.033	0.036
-448.909	-155.291	-0.220	0.014
-447.895	398.768	-0.129	0.270
-446.880	61.226	0.125	-0.124
-445.865	-14.820	-0.195	-0.125
-444.851	-36.047	0.144	-0.078
-443.836	-200.000	0.050	-0.335
-442.822	800.000	0.105	0.430
-441.807	-200.000	0.003	0.156
-440.792	-200.000	0.058	-0.280
-439.778	-90.084	-0.108	0.031
-438.763	237.759	-0.105	-0.175
-437.749	169.466	-0.102	-0.146
-436.734	-200.000	0.028	0.251
-435.719	-112.843	-0.105	0.021
-434.705	-163.377	-0.308	-0.015
-433.690	-44.214	0.243	0.122
-432.676	-200.000	-0.040	0.296
-431.661	-189.498	0.255	-0.003
-430.646	-119.126	-0.449	0.078
-429.632	800.000	0.097	-0.319
-428.617	-200.000	-0.045	-0.245
-427.603	209.722	0.038	0.059
-426.588	-60.708	-0.226	-0.096
-425.573	720.069	-0.194	0.514
-424.559	14.673	0.226	0.176
-423.544	-142.643	0.237	0.023
-422.530	800.000	0.128	-0.376
-421.515	-28.702	-0.366	-0.210
-420.500	81.097	-0.142	-0.153
-419.486	220.188	-0.137	0.219
-418.471	800.000	-0.059	0.254
-417.457	20.585	-0.237	-0.191
-416.442	-58.929	0.284	-0.123
-415.428	481.762	0.106	0.239
-414.413	13.909	-0.247	-0.191
-413.398	46.131	0.198	0.183
-412.384	-106.803	0.155	-0.034
-411.369	72.740	0.027	0.028
-410.355	-200.000	0.004	-0.258
-409.340	-151.784	-0.152	0.011
-408.325	-200.000	-0.007	0.287
-407.311	-45.838	0.205	0.101
-406.296	-134.530	0.175	0.021
-405.282	800.000	0.064	0.233
-404.267	123.343	0.211	-0.264
-403.252	298.233	-0.114	-0.209
-402.238	-148.987	-0.128	0.010
-401.223	-66.842	-0.122	0.048
-400.209	-200.000	0.019	-0.143
-399.194	271.640	-0.121	0.213
-398.179	-169.805	0.365	0.013
-397.165	351.003	0.019	-0.037
-396.150	-106.497	0.147	-0.033
-395.136	-125.387	-0.328	-0.050
-394.121	-43.851	-0.258	-0.129
-393.106	800.000	-0.064	-0.178
-392.092	800.000	-0.033	0.120
-391.077	-118.010	0.122	-0.022
-390.063	-29.809	-0.072	0.041
-389.048	165.840	-0.236	-0.332
-388.033	-30.859	-0.204	-0.115
-387.019	-137.908	0.281	-0.031
-386.004	-35.893	0.197	0.106
-384.990	28.737	0.338	-0.285
-383.975	8.177	-0.196	-0.147
-382.960	-200.000	-0.037	0.187
-381.946	61.967	-0.184	0.183
-380.931	800.000	0.077	0.273
-379.917	-19.774	-0.153	0.094
-378.902	-39.018	0.258	0.135
-377.888	-26.914	-0.409	-0.238
-376.873	-18.214	0.137	0.085
-375.858	-84.351	0.136	-0.043
-374.844	-104.984	-0.070	0.016
-373.829	61.628	-0.231	0.229
-372.815	-46.679	0.274	-0.134
-371.800	-141.119	0.048	0.005
-370.785	-109.101	0.183	0.039
-369.771	-200.000	0.017	-0.198
-368.756	800.000	0.123	0.339
-367.742	-127.086	0.231	-0.034
-366.727	-149.539	-0.168	0.013
-365.712	266.485	0.152	0.264
-364.698	112.431	0.238	0.286
-363.683	-200.000	-0.006	0.060
-362.669	-200.000	0.018	0.102
-361.654	-200.000	-0.049	0.223
-360.639	525.765	0.159	-0.372
-359.625	0.121	-0.379	-0.269
-358.610	800.000	-0.007	-0.031
-357.596	-200.000	0.040	0.275
-356.581	20.558	-0.275	0.222
-355.566	-166.390	0.193	0.008
-354.552	-55.513	0.060	-0.027
-353.537	78.002	0.056	0.059
-352.523	-107.074	0.199	-0.044
-351.508	-48.568	0.301	0.144
-350.493	-160.259	-0.044	0.002
-349.479	-159.928	-0.185	-0.010
-348.464	30.214	-0.127	0.108
-347.450	13.275	0.090	0.070
-346.435	-116.593	-0.057	0.010
-345.420	800.000	0.042	-0.123
-344.406	62.273	-0.090	0.090
-343.391	87.180	-0.210	0.231
-342.377	340.523	0.026	0.051
-341.362	41.956	-0.154	-0.139
-340.348	800.000	0.116	0.325
-339.333	256.885	-0.148	0.253
-338.318	-200.000	-0.005	-0.241
-337.304	800.000	0.010	-0.037
-336.289	22.341	-0.343	-0.279
-335.275	-200.000	-0.015	-0.163
-334.260	-200.000	0.072	-0.482
-333.245	476.064	-0.141	-0.318
-332.231	-87.273	-0.282	0.085
-331.216	-53.511	0.075	-0.034
-330.202	-168.988	-0.192	0.007
-329.187	-200.000	-0.010	0.073
-328.172	800.000	0.100	0.398
-327.158	70.399	-0.083	0.085
-326.143	-79.554	0.046	-0.015
-325.129	-67.898	-0.130	0.051
-324.114	-200.000	-0.021	0.122
-323.099	-136.658	0.044	-0.005
-322.085	173.116	0.143	0.205
-321.070	293.265	0.137	-0.248
-320.056	79.964	0.099	0.105
-319.041	-10.118	-0.130	0.086
-318.026	800.000	0.100	-0.305
-317.012	46.042	-0.144	0.132
-315.997	-139.263	0.244	-0.026
-314.983	3.397	-0.252	0.182
-313.968	230.859	-0.108	0.176
-312.953	117.140	0.183	-0.224
-311.939	-83.522	0.202	0.064
-310.924	-34.056	0.119	-0.065
-309.910	126.060	0.211	-0.265
-308.895	44.754	0.211	0.192
-307.880	-53.544	-0.379	-0.172
-306.866	-129.104	0.229	-0.032
-305.851	100.711	-0.227	0.262
-304.837	-61.987	-0.115	-0.048
-303.822	195.220	-0.093	-0.141
-302.807	800.000	0.059	-0.179
-301.793	247.831	0.103	0.173
-300.778	-200.000	-0.051	0.323
-299.764	71.093	0.052	0.054
-298.749	-109.356	0.352	0.074
-297.735	477.907	0.088	0.198
-296.720	35.297	-0.114	0.100
-295.705	33.552	0.173	-0.149
-294.691	17.043	0.114	0.089
-293.676	-97.048	-0.238	-0.062
-292.662	-107.277	-0.145	-0.032
-291.647	-152.161	0.237	-0.017
-290.632	318.701	0.077	-0.145
-289.618	12.593	-0.090	0.069
-288.603	-99.736	0.179	-0.045
-287.589	-149.149	0.245	-0.019
-286.574	-200.000	-0.045	-0.330
-285.559	132.946	0.120	-0.154
-284.545	506.792	-0.126	0.289
-283.530	-37.312	0.452	-0.240
-282.516	-35.657	0.104	-0.056
-281.501	-117.247	0.351	0.063
-280.486	-135.883	0.130	-0.015
-279.472	-7.058	-0.101	-0.068
-278.457	-35.670	0.115	0.062
-277.443	-69.584	-0.154	0.059
-276.428	-200.000	-0.006	-0.044
-275.413	141.216	-0.037	-0.048
-274.399	-77.486	0.119	-0.041
-273.384	117.442	-0.128	-0.157
-272.370	-0.924	-0.200	-0.140
-271.355	-117.568	0.269	-0.048
-270.340	215.386	-0.064	-0.101
-269.326	-200.000	0.053	0.307
-268.311	-53.401	-0.242	0.110
-267.297	459.707	0.030	-0.065
-266.282	800.000	-0.077	0.316
-265.267	535.909	-0.083	0.196
-264.253	153.059	0.261	-0.355
-263.238	-103.346	0.140	-0.033
-262.224	-95.899	-0.112	-0.030
-261.209	309.231	0.060	0.111
-260.195	61.577	0.223	0.220
-259.180	-200.000	-0.050	0.382
-258.165	-35.413	0.323	0.174
-257.151	49.010	-0.169	-0.157
-256.136	-200.000	0.025	-0.363
-255.122	8.832	0.049	-0.037
-254.107	214.607	-0.123	0.194
-253.092	-125.928	0.193	0.029
-252.078	-200.000	0.026	-0.248
-251.063	138.481	0.091	0.119
-250.049	35.644	0.205	-0.179
-249.034	-91.717	-0.106	0.030
-248.019	80.960	-0.030	-0.032
-247.005	-53.995	-0.349	0.158
-245.990	405.460	-0.042	0.088
-244.976	-200.000	0.047	-0.226
-243.961	-92.215	0.249	-0.070
-242.946	170.702	0.042	0.059
-241.932	-56.952	0.086	-0.038
-240.917	800.000	-0.080	-0.324
-239.903	-161.321	-0.193	-0.010
-238.888	-122.807	0.235	-0.038
-237.873	-92.068	0.216	-0.061
-236.859	-200.000	0.007	-0.211
-235.844	247.157	0.196	0.328
-234.830	117.721	-0.145	0.176
-233.815	301.376	-0.148	0.271
-232.800	-21.499	0.312	-0.188
-231.786	-200.000	0.051	-0.311
-230.771	-64.693	0.334	0.134
-229.757	4.394	0.117	-0.085
-228.742	-200.000	0.031	0.236
-227.727	800.000	-0.103	0.385
-226.713	147.953	-0.149	-0.198
-225.698	800.000	0.044	0.148
-224.684	-71.950	-0.220	0.081
-223.669	800.000	0.029	-0.080
-222.655	800.000	0.088	-0.372
-221.640	800.000	-0.098	-0.299
-220.625	-112.668	-0.361	-0.071
-219.611	800.000	-0.094	0.324
-218.596	185.489	0.025	-0.037
-217.582	211.549	-0.103	0.161
-216.567	-62.043	-0.403	0.167
-215.552	-18.013	0.213	0.132
-214.538	168.390	0.184	0.260
-213.523	560.375	-0.128	0.306
-212.509	229.865	0.091	-0.146
-211.494	-110.379	-0.153	-0.031
-210.479	-156.772	0.070	-0.004
-209.465	-73.369	-0.139	-0.050
-208.450	-36.297	0.261	-0.139
-207.436	74.272	0.188	0.196
-206.421	800.000	-0.054	0.183
-205.406	-46.962	-0.207	0.100
-204.392	-142.041	0.410	-0.040
-203.377	-200.000	0.025	0.240
-202.363	219.264	-0.196	0.310
-201.348	385.489	-0.024	0.050
-200.333	-200.000	0.056	0.258
-199.319	-167.574	-0.173	-0.007
-198.304	-200.000	0.013	0.124
-197.290	-3.708	-0.125	-0.086
-196.275	199.769	-0.150	-0.228
-195.260	-74.968	0.309	0.109
-194.246	384.794	-0.178	-0.364
-193.231	-16.247	-0.356	-0.224
-192.217	13.120	0.183	0.140
-191.202	114.134	-0.049	0.059
-190.187	128.749	0.173	-0.218
-189.173	-63.049	-0.108	0.044
-188.158	278.790	0.098	-0.173
-187.144	-84.031	-0.078	0.025
-186.129	331.256	0.037	-0.071
-185.114	195.981	0.098	0.147
-184.100	180.447	-0.080	-0.116
-183.085	152.309	-0.168	0.226
-182.071	246.489	0.062	-0.104
-181.056	-115.087	-0.232	-0.043
-180.042	114.316	-0.102	-0.123
-179.027	-13.190	0.129	-0.083
-178.012	-130.646	0.362	-0.048
-176.998	-121.551	0.166	-0.027
-175.983	-200.000	-0.098	0.502
-174.969	800.000	-0.086	-0.297
-173.954	-6.386	0.353	-0.238
-172.939	343.405	0.067	-0.129
-171.925	800.000	-0.045	-0.128
-170.910	-11.276	0.261	-0.170
-169.896	666.252	0.142	-0.363
-168.881	-142.868	0.168	-0.016
-167.866	134.436	-0.089	-0.114
-166.852	466.319	-0.123	-0.272
-165.837	-200.000	0.043	0.201
-164.823	-161.552	-0.225	-0.011
-163.808	47.628	0.446	0.411
-162.793	460.482	-0.094	-0.207
-161.779	51.118	0.193	-0.180
-160.764	800.000	-0.094	-0.292
-159.750	291.482	-0.071	0.128
-158.735	113.374	0.218	0.262
-157.720	-117.977	0.268	0.047
-156.706	-200.000	0.004	0.089
-155.691	241.369	0.123	-0.203
-154.677	800.000	-0.034	0.116
-153.662	-117.273	-0.114	-0.020
-152.647	192.947	0.238	0.355
-151.633	84.033	-0.219	0.236
-150.618	148.068	0.086	0.115
-149.604	-172.006	-0.213	-0.007
-148.589	-189.543	0.062	-0.001
-147.574	-63.710	0.183	0.074
-146.560	-103.384	-0.099	-0.023
-145.545	-200.000	0.019	-0.157
-144.531	513.780	-0.041	0.095
-143.516	69.073	0.197	0.200
-142.502	248.088	-0.160	-0.267
-141.487	118.795	-0.086	-0.105
-140.472	-80.894	-0.200	0.066
-139.458	-56.596	-0.117	0.051
-138.443	30.980	0.198	-0.167
-137.429	0.108	0.122	0.086
-136.414	-200.000	-0.014	0.096
-135.399	234.624	0.047	-0.077
-134.385	89.470	-0.058	-0.064
-133.370	-52.143	0.355	-0.163
-132.356	-131.723	0.227	-0.029
-131.341	-84.893	0.174	0.054
-130.326	16.664	-0.075	-0.058
-129.312	-200.000	0.038	0.210
-128.297	-138.240	-0.102	-0.011
-127.283	21.900	0.190	0.153
-126.268	376.917	0.094	-0.190
-125.253	169.488	0.119	-0.167
-124.239	63.822	-0.161	0.159
-123.224	258.131	0.039	0.065
-122.210	21.987	-0.047	-0.038
-121.195	800.000	0.036	0.141
-120.180	-102.304	-0.219	-0.052
-119.166	43.213	-0.222	-0.200
-118.151	-35.529	0.215	-0.115
-117.137	-80.792	-0.140	-0.046
-116.122	82.788	-0.133	-0.142
-115.107	-33.093	-0.171	0.094
-114.093	167.710	-0.162	-0.226
-113.078	556.963	0.025	-0.061
-112.064	800.000	0.089	0.362
-111.049	78.133	0.230	-0.242
-110.034	-131.394	-0.266	0.035
-109.020	-118.521	0.038	-0.007
-108.005	-124.653	-0.353	0.054
-106.991	315.005	0.030	-0.055
-105.976	-33.779	0.145	-0.079
-104.962	-200.000	-0.013	0.339
-103.947	260.502	-0.108	-0.184
-102.932	770.888	0.100	0.269
-101.918	143.301	-0.102	-0.134
-100.903	264.548	0.014	0.024
-99.889	218.987	-0.082	0.129
-98.874	-200.000	0.002	0.178
-97.859	-115.387	0.217	-0.040
-96.845	-169.317	-0.164	-0.006
-95.830	344.079	-0.096	-0.185
-94.816	-104.912	0.130	-0.029
-93.801	260.722	0.159	0.271
-92.786	-14.087	0.202	0.128
-91.772	-200.000	0.006	-0.061
-90.757	-200.000	-0.007	0.035
-89.743	-200.000	-0.030	-0.407
-88.728	506.407	-0.028	0.064
-87.713	101.862	0.032	-0.037
-86.699	43.173	0.323	0.290
-85.684	-27.482	0.454	-0.260
-84.670	-200.000	0.008	-0.082
-83.655	456.501	-0.115	0.251
-82.640	213.393	-0.156	-0.243
-81.626	203.609	0.165	-0.251
-80.611	-98.092	0.206	-0.052
-79.597	168.615	-0.207	0.290
-78.582	-147.273	0.183	-0.015
-77.567	633.599	0.032	0.079
-76.553	800.000	0.036	0.155
-75.538	-103.575	0.464	-0.107
-74.524	-200.000	0.029	-0.133
-73.509	185.475	0.057	-0.083
-72.494	-95.802	0.409	-0.107
-71.480	800.000	-0.042	-0.145
-70.465	-106.093	0.091	-0.020
-69.451	-91.150	0.222	0.063
-68.436	-200.000	-0.023	-0.168
-67.422	22.573	-0.206	-0.166
-66.407	73.797	-0.205	-0.211
-65.392	-200.000	0.001	0.067
-64.378	-200.000	-0.041	-0.256
-63.363	-105.866	0.292	0.065
-62.349	-123.528	-0.155	0.024
-61.334	99.606	-0.851	-0.969
-60.319	-42.003	0.437	0.220
-59.305	800.000	-0.202	-0.811
-58.290	234.950	0.668	1.084
-57.276	800.000	0.514	1.534
-56.261	-200.000	96.775	595.287
-55.246	613.803	1399.076	3446.471
-54.232	191.400	2594.156	3842.232
-53.217	119.730	2163.973	2637.527
-52.203	43.558	1613.231	1451.098
-51.188	34.711	1348.100	1159.177
-50.173	31.512	1305.687	1103.825
-49.159	55.024	1353.825	1286.130
-48.144	56.388	1370.093	1309.706
-47.130	34.828	1329.193	1143.440
-46.115	31.444	1310.952	1107.697
-45.100	31.187	1306.029	1101.977
-44.086	31.050	1304.202	1099.587
-43.071	30.957	1301.818	1096.985
-42.057	30.939	1299.531	1094.906
-41.042	31.029	1297.842	1093.968
-40.027	31.055	1296.647	1093.068
-39.013	31.070	1294.645	1091.423
-37.998	31.119	1292.451	1089.822
-36.984	31.028	1291.248	1088.231
-35.969	31.187	1288.861	1087.104
-34.954	31.221	1287.200	1085.857
-33.940	31.304	1285.815	1085.126
-32.925	31.350	1284.407	1084.164
-31.911	31.246	1283.377	1082.644
-30.896	31.313	1281.939	1081.777
-29.881	31.222	1280.607	1080.084
-28.867	31.253	1279.467	1079.262
-27.852	31.236	1277.585	1077.530
-26.838	31.197	1276.109	1076.019
-25.823	31.191	1275.004	1075.011
-24.809	31.228	1273.532	1073.938
-23.794	31.130	1272.541	1072.500
-22.779	31.163	1271.197	1071.512
-21.765	31.191	1270.037	1070.652
-20.750	31.228	1268.169	1069.249
-19.736	31.130	1267.087	1067.733
-18.721	31.126	1266.124	1066.858
-17.706	31.034	1264.749	1065.131
-16.692	31.030	1263.234	1063.787
-15.677	31.052	1262.157	1062.961
-14.663	31.008	1261.256	1061.914
-13.648	31.065	1259.774	1060.945
-12.633	31.085	1258.866	1060.252
-11.619	31.070	1258.503	1059.818
-10.604	31.129	1257.355	1059.148
-9.590	30.947	1256.442	1057.305
-8.575	31.102	1255.224	1057.116
-7.560	31.184	1254.057	1056.553
-6.546	31.067	1253.806	1055.635
-5.531	31.105	1252.852	1055.007
-4.517	30.992	1251.665	1053.329
-3.502	30.940	1251.087	1052.506
-2.487	30.981	1250.694	1052.366
-1.473	31.035	1246.633	1049.210
-0.458	29.989	1231.199	1030.366
0.556	28.432	1213.872	992.800
1.571	24.696	1218.273	975.958
2.586	23.439	1232.824	980.577
3.600	22.337	1220.086	964.327
4.615	16.788	1148.239	878.756
5.629	8.595	1074.263	782.161
6.644	4.754	1054.752	749.420
7.659	4.531	1052.023	746.344
8.673	4.442	1050.739	744.940
9.688	4.482	1049.488	744.178
10.702	4.716	1048.691	744.668
11.717	10.326	1055.520	776.407
12.731	18.494	1066.708	823.991
13.746	21.984	1070.162	843.385
14.761	21.892	1069.977	842.724
15.775	21.123	1068.578	837.856
16.790	20.188	1066.344	831.548
17.804	19.495	1064.881	827.017
18.819	19.238	1063.886	824.940
19.834	19.113	1063.002	823.582
20.848	18.981	1062.772	822.700
21.863	18.905	1061.712	821.445
22.877	18.613	1061.314	819.669
23.892	18.578	1060.314	818.656
24.907	18.587	1059.620	818.091
25.921	18.616	1058.391	817.208
26.936	18.716	1057.037	816.565
27.950	18.620	1056.301	815.468
28.965	18.772	1054.249	814.534
29.980	19.046	1052.913	814.729
30.994	19.137	1052.189	814.525
32.009	19.076	1051.324	813.493
33.023	19.025	1050.295	812.387
34.038	18.862	1049.360	810.820
35.053	18.825	1047.854	809.410
36.067	18.709	1046.875	808.040
37.082	18.794	1046.670	808.208
38.096	18.854	1046.160	808.026
39.111	18.904	1045.264	807.495
40.126	18.713	1043.759	805.367
41.140	18.462	1042.284	802.979
42.155	18.405	1040.899	801.576
43.169	18.305	1040.002	800.346
44.184	18.364	1038.687	799.538
45.199	18.338	1038.168	798.951
46.213	18.487	1037.437	799.010
47.228	18.757	1036.267	799.295
48.242	18.765	1035.257	798.482
49.257	18.775	1034.571	797.928
50.271	18.748	1033.932	797.239
51.286	18.816	1033.473	797.131
52.301	18.893	1031.839	796.155
53.315	18.702	1030.734	794.352
54.330	18.587	1029.497	792.797
55.344	18.568	1028.706	792.028
56.359	18.653	1027.620	791.513
57.374	18.514	1027.262	790.528
58.388	18.366	1026.149	788.920
59.403	18.430	1024.762	788.080
60.417	18.281	1024.492	787.117
61.432	18.239	1024.122	786.569
62.447	18.177	1023.029	785.377
63.461	18.180	1022.318	784.773
64.476	18.106	1021.191	783.501
65.490	18.071	1020.526	782.759
66.505	18.116	1019.696	782.257
67.520	18.132	1019.606	782.192
68.534	18.184	1018.385	781.427
69.549	18.205	1017.698	780.926
70.563	18.074	1016.972	779.704
71.578	17.933	1016.277	778.460
72.593	17.937	1015.169	777.558
73.607	17.831	1014.868	776.778
74.622	17.902	1013.896	776.286
75.636	18.014	1013.389	776.337
76.651	17.964	1012.799	775.590
77.666	18.034	1012.223	775.397
78.680	18.030	1011.850	775.024
79.695	18.119	1010.807	774.561
80.709	18.361	1010.276	775.184
81.724	18.352	1009.627	774.574
82.739	18.442	1008.995	774.430
83.753	18.674	1008.594	775.098
84.768	19.077	1007.674	776.144
85.782	19.197	1007.215	776.260
86.797	19.061	1006.339	774.906
87.812	18.872	1005.285	773.172
88.826	18.835	1004.235	772.130
89.841	18.972	1003.220	771.897
90.855	19.062	1002.298	771.526
91.870	18.998	1002.037	770.968
92.884	19.082	1001.080	770.538
93.899	18.960	1000.407	769.406
94.914	19.145	999.637	769.573
95.928	19.115	998.425	768.438
96.943	19.018	997.737	767.407
97.957	18.912	996.550	765.954
98.972	18.774	995.928	764.797
99.987	18.985	995.070	765.008
101.001	18.936	994.144	764.011
102.016	18.867	993.422	763.080
103.030	18.957	992.397	762.627
104.045	18.922	991.927	762.041
105.060	18.770	990.901	760.512
106.074	18.551	989.541	758.435
107.089	18.372	988.189	756.540
108.103	18.142	987.590	755.000
109.118	18.130	986.492	754.038
110.133	18.227	985.572	753.695
111.147	18.306	984.619	753.247
112.162	18.276	984.391	752.875
113.176	18.471	983.321	752.846
114.191	18.405	983.119	752.338
115.206	18.431	981.995	751.526
116.220	18.273	981.472	750.364
117.235	18.223	980.312	749.194
118.249	18.334	979.343	748.871
119.264	18.293	978.565	748.032
120.279	18.107	977.778	746.551
121.293	18.150	976.337	745.572
122.308	18.015	975.988	744.652
123.322	18.075	974.657	743.831
124.337	18.016	974.069	743.059
125.352	17.962	973.004	741.947
126.366	17.989	971.550	740.888
127.381	18.094	970.732	740.656
128.395	18.075	970.029	739.971
129.410	18.195	969.324	739.889
130.424	18.208	968.862	739.526
131.439	18.411	967.840	739.555
132.454	18.351	967.348	738.857
133.468	18.438	966.528	738.539
134.483	18.442	965.550	737.745
135.497	18.418	964.720	736.942
136.512	18.451	964.042	736.500
137.527	18.546	963.061	736.093
138.541	18.543	962.369	735.485
139.556	18.470	962.071	734.879
140.570	18.744	961.312	735.410
141.585	18.785	960.785	735.117
142.600	19.023	959.391	735.003
143.614	19.139	958.743	734.937
144.629	19.078	958.631	734.523
145.643	18.927	957.370	732.849
146.658	18.832	955.916	731.268
147.673	18.634	955.019	729.676
148.687	18.475	954.078	728.218
149.702	18.431	953.333	727.397
150.716	18.589	952.249	727.172
151.731	18.386	952.159	726.180
152.746	18.351	951.263	725.287
153.760	18.677	950.620	726.112
154.775	18.746	950.539	726.274
155.789	18.740	949.621	725.485
156.804	18.868	948.496	725.102
157.819	18.901	948.347	725.064
158.833	19.205	947.108	725.333
159.848	19.159	946.563	724.658
160.862	18.951	945.630	723.006
161.877	18.587	944.690	720.692
162.892	18.481	943.696	719.423
163.906	18.506	942.469	718.532
164.921	18.502	941.539	717.740
165.935	18.612	940.784	717.563
166.950	18.646	940.188	717.185
167.964	18.635	939.324	716.419
168.979	18.634	938.291	715.564
169.994	18.603	937.356	714.657
171.008	18.687	936.736	714.471
172.023	18.819	936.466	714.749
173.037	19.001	935.503	714.709
174.052	18.833	934.457	713.150
175.067	18.591	933.769	711.555
176.081	18.483	933.080	710.521
177.096	18.471	932.808	710.203
178.110	18.615	932.506	710.504
179.125	18.633	931.113	709.456
180.140	18.650	931.050	709.415
181.154	18.854	930.887	710.070
182.169	19.047	930.454	710.474
183.183	18.999	929.726	709.658
184.198	18.942	929.234	708.987
185.213	18.893	928.365	708.058
186.227	19.105	927.220	707.994
187.242	19.287	926.881	708.419
188.256	19.249	926.330	707.782
189.271	19.301	925.623	707.391
190.286	18.771	925.059	704.722
191.300	18.426	923.794	702.285
192.315	18.382	922.926	701.381
193.329	18.481	922.473	701.381
194.344	18.651	921.969	701.631
195.359	18.671	921.099	700.988
196.373	18.921	920.470	701.468
197.388	19.006	920.656	701.893
198.402	19.171	920.427	702.328
199.417	19.323	919.719	702.347
200.432	19.498	918.651	702.180
201.446	19.521	918.600	702.172
202.461	19.679	918.133	702.394
203.475	19.454	917.592	701.008
204.490	19.135	916.715	698.981
205.504	19.051	915.794	697.873
206.519	19.109	914.710	697.222
207.534	19.121	914.118	696.758
208.548	19.066	914.031	696.407
209.563	19.226	913.107	696.288
210.577	19.309	912.244	695.905
211.592	19.429	911.861	696.035
212.607	19.448	911.021	695.408
213.621	19.369	909.979	694.232
214.636	19.427	909.301	693.888
215.650	19.254	909.057	692.945
216.665	19.551	908.105	693.352
217.680	19.703	907.305	693.289
218.694	19.514	907.420	692.557
219.709	19.453	906.787	691.766
220.723	19.533	905.562	691.093
221.738	19.304	905.363	689.962
222.753	19.464	904.451	689.848
223.767	19.638	903.979	690.118
224.782	19.537	903.846	689.555
225.796	19.720	902.896	689.499
226.811	19.466	902.240	687.923
227.826	19.388	901.933	687.319
228.840	19.433	900.548	686.380
229.855	19.561	899.714	686.193
230.869	19.426	899.230	685.228
231.884	19.289	898.495	684.062
232.899	19.311	897.505	683.335
233.913	19.087	896.799	681.852
234.928	19.129	896.277	681.561
235.942	19.140	895.460	680.920
236.957	19.156	894.836	680.448
237.972	19.145	894.555	680.130
238.986	19.335	893.562	680.068
240.001	19.242	893.429	679.537
241.015	19.373	892.573	679.344
242.030	19.465	892.191	679.354
243.045	19.487	891.361	678.750
244.059	19.428	891.235	678.360
245.074	19.475	890.866	678.205
246.088	19.573	889.876	677.776
247.103	19.639	889.555	677.731
248.117	19.952	889.391	678.772
249.132	20.179	888.821	679.166
250.147	20.349	888.492	679.522
251.161	20.174	887.743	678.205
252.176	20.315	887.198	678.279
253.190	20.418	886.574	678.145
254.205	20.419	886.244	677.835
255.220	20.193	885.806	676.556
256.234	20.174	884.992	675.803
257.249	20.290	884.294	675.661
258.263	20.334	883.372	675.067
259.278	20.389	882.580	674.619
260.293	20.487	881.818	674.355
261.307	20.415	881.630	673.873
262.322	20.689	881.043	674.428
263.336	20.602	880.086	673.299
264.351	20.478	879.609	672.392
265.366	20.545	878.707	671.904
266.380	20.414	878.875	671.464
267.395	20.371	877.725	670.360
268.409	20.414	876.841	669.792
269.424	20.312	875.866	668.596
270.439	20.300	875.268	668.036
271.453	20.221	874.339	666.963
272.468	20.216	874.041	666.658
273.482	20.132	873.642	665.973
274.497	20.175	872.821	665.453
275.512	20.275	872.281	665.366
276.526	20.315	871.851	665.130
277.541	20.308	871.684	664.917
278.555	20.643	870.912	665.550
279.570	20.829	870.357	665.778
280.585	20.634	869.795	664.545
281.599	20.422	868.867	662.968
282.614	20.239	867.974	661.531
283.628	20.466	867.383	661.887
284.643	20.327	866.894	660.927
285.657	20.341	866.418	660.559
286.672	20.323	865.957	660.079
287.687	20.375	865.556	659.912
288.701	20.424	864.658	659.358
289.716	20.437	864.026	658.865
290.730	20.598	863.703	659.170
291.745	20.462	863.018	658.074
292.760	20.523	862.633	657.955
293.774	20.709	861.906	658.045
294.789	20.751	860.890	657.367
295.803	20.462	859.961	655.512
296.818	20.504	859.295	655.103
297.833	20.530	859.152	655.036
298.847	20.446	858.322	654.028
299.862	20.645	857.510	654.102
300.876	20.612	857.668	654.038
301.891	20.749	856.995	653.984
302.906	20.809	856.787	653.990
303.920	20.965	856.181	654.054
304.935	21.167	855.350	654.119
305.949	20.910	855.174	652.965
306.964	20.805	854.478	651.984
307.979	20.862	853.435	651.343
308.993	21.057	852.808	651.533
310.008	21.072	852.462	651.270
311.022	20.800	852.021	649.859
312.037	20.819	850.979	649.079
313.052	20.555	850.618	647.763
314.066	20.302	850.295	646.517
315.081	20.471	849.421	646.421
316.095	20.403	848.679	645.548
317.110	20.321	848.394	644.970
318.125	20.531	847.620	645.102
319.139	20.473	847.417	644.675
320.154	20.640	846.531	644.563
321.168	20.669	846.258	644.407
322.183	20.622	845.883	643.892
323.197	20.645	845.178	643.381
324.212	20.626	845.020	643.133
325.227	20.641	844.113	642.443
326.241	20.693	843.558	642.155
327.256	20.590	843.162	641.417
328.270	20.757	842.019	641.105
329.285	20.693	841.501	640.420
330.300	20.454	841.090	639.171
331.314	20.630	840.531	639.337
332.329	20.759	840.141	639.455
333.343	20.950	839.997	639.993
334.358	20.989	839.794	639.923
335.373	20.970	839.350	639.460
336.387	20.993	838.848	639.104
337.402	21.129	838.841	639.541
338.416	21.247	838.580	639.717
339.431	21.325	838.191	639.649
340.446	21.398	837.938	639.667
341.460	21.406	837.493	639.300
342.475	21.540	837.342	639.617
343.489	21.403	836.958	638.765
344.504	21.671	836.204	639.115
345.519	21.735	836.141	639.241
346.533	21.605	834.822	637.704
347.548	21.253	834.319	635.983
348.562	20.953	834.106	634.669
349.577	21.032	832.935	634.012
350.592	21.004	832.250	633.332
351.606	20.934	831.602	632.530
352.621	21.004	831.035	632.296
353.635	21.149	830.192	632.125
354.650	21.189	829.608	631.768
355.665	21.093	829.359	631.175
356.679	21.339	828.685	631.497
357.694	21.337	827.958	630.876
358.708	21.305	827.417	630.294
359.723	21.279	826.636	629.551
360.738	21.355	825.950	629.246
361.752	21.392	825.458	628.948
362.767	21.479	825.447	629.198
363.781	21.637	825.184	629.508
364.796	21.813	824.190	629.327
365.810	21.901	824.537	629.852
366.825	22.026	823.636	629.557
367.840	21.769	823.713	628.639
368.854	21.626	822.980	627.512
369.869	21.649	822.185	626.931
370.883	21.636	821.929	626.632
371.898	21.802	821.755	627.040
372.913	21.874	821.220	626.834
373.927	21.665	820.866	625.760
374.942	21.767	819.955	625.375
375.956	21.874	820.190	625.879
376.971	21.984	819.474	625.670
377.986	22.097	818.796	625.499
379.000	22.217	818.417	625.583
380.015	22.013	818.123	624.578
381.029	21.964	817.344	623.751
382.044	21.971	816.745	623.263
383.059	22.056	816.161	623.066
384.073	22.096	815.276	622.476
385.088	21.792	814.856	621.022
386.102	21.691	814.234	620.138
387.117	21.662	813.661	619.546
388.132	21.716	812.844	619.057
389.146	21.756	812.450	618.843
390.161	21.846	812.420	619.085
391.175	21.983	811.948	619.152
392.190	21.898	810.873	617.979
393.205	21.826	810.423	617.328
394.219	21.755	810.083	616.765
395.234	21.690	809.804	616.270
396.248	21.682	809.128	615.670
397.263	21.546	808.517	614.673
398.278	21.494	808.273	614.251
399.292	21.580	807.902	614.216
400.307	21.566	807.103	613.506
401.321	21.605	806.557	613.174
402.336	21.593	806.718	613.199
403.350	21.815	806.385	613.670
404.365	22.063	805.452	613.773
405.380	22.147	805.269	613.874
406.394	22.164	804.990	613.665
407.409	22.407	804.431	614.033
408.423	22.438	804.119	613.846
409.438	22.437	803.713	613.479
410.453	22.427	803.426	613.170
411.467	22.570	802.836	613.164
412.482	22.726	802.286	613.232
413.496	22.705	802.421	613.208
414.511	22.563	802.164	612.463
415.526	22.380	801.524	611.287
416.540	22.502	800.645	610.986
417.555	22.532	800.134	610.643
418.569	22.437	800.139	610.263
419.584	22.591	799.662	610.382
420.599	22.582	799.038	609.819
421.613	163.292	1369.270	1794.837
422.628	141.844	1452.363	1794.950
