DTS Sentinel unit serial number:	SN413079Multiplexer serial number:	ORYXHardware model number:	OX4-SRSoftware version number:	ORYX F/W v4.00 Oryx Data Collector v3.7.2.0data status	okinstallation	princeton_trtdifferential loss correction	single-endedforward channel	channel 1reverse channel	N/Adate	2019/09/18time	12:34:35forward acquisition time	60.00reverse acquisition time	0.00gamma	496.2192k internal	0.2319k external	0.2319temperature offset calibration	0.9973default loss term (dB/km)	0.3790temperature slope calibration	1.0000multiplexer offset coefficient	1.0000multiplexer slope coefficient	1.0000fibre end	0.00T internal ref (°C)	32.39T ext. ref 1 (°C)	0.52T ext. ref 2 (°C)	30.26length (m)	temperature (°C)	Stokes	anti-Stokes-747.200	-64.696	-0.461	-0.189
-746.185	800.000	0.077	0.318
-745.171	239.497	-0.101	0.170
-744.156	89.574	-0.049	0.055
-743.142	59.080	-0.046	0.046
-742.127	-39.098	0.188	0.100
-741.112	800.000	-0.087	0.311
-740.098	-31.332	-0.303	-0.173
-739.083	-159.593	0.136	0.008
-738.069	-80.247	-0.444	0.150
-737.054	539.337	0.018	0.044
-736.039	-67.744	-0.349	-0.138
-735.025	105.330	-0.118	-0.141
-734.010	704.030	0.092	-0.246
-732.996	-151.952	-0.315	-0.023
-731.981	239.803	0.118	0.199
-730.966	307.481	-0.165	0.312
-729.952	800.000	-0.054	-0.213
-728.937	800.000	-0.061	0.212
-727.923	333.333	-0.074	-0.145
-726.908	-200.000	0.029	-0.166
-725.894	119.301	0.132	0.165
-724.879	271.373	0.246	-0.437
-723.864	109.340	0.205	-0.249
-722.850	800.000	-0.094	-0.351
-721.835	53.234	-0.388	-0.376
-720.821	800.000	0.033	0.133
-719.806	-22.098	-0.374	0.230
-718.791	156.426	-0.062	-0.087
-717.777	-122.833	-0.167	-0.027
-716.762	289.014	-0.063	-0.115
-715.748	800.000	-0.082	0.233
-714.733	-112.945	0.082	-0.016
-713.718	-160.443	0.184	-0.010
-712.704	-200.000	-0.040	-0.226
-711.689	-70.751	-0.170	0.065
-710.675	800.000	0.108	-0.306
-709.660	-200.000	0.000	-0.294
-708.645	-142.759	-0.229	-0.023
-707.631	46.203	-0.375	-0.351
-706.616	-76.266	-0.090	0.032
-705.602	800.000	-0.080	-0.266
-704.587	800.000	-0.089	-0.380
-703.572	-49.647	-0.148	-0.071
-702.558	800.000	0.026	-0.098
-701.543	151.699	-0.119	0.163
-700.529	509.492	-0.073	0.170
-699.514	23.085	-0.146	-0.121
-698.499	-92.755	0.151	0.043
-697.485	41.867	0.011	0.010
-696.470	-200.000	-0.044	-0.590
-695.456	-94.865	-0.202	-0.055
-694.441	-132.903	0.216	0.028
-693.426	-200.000	-0.038	0.174
-692.412	148.866	0.032	-0.043
-691.397	-104.151	-0.258	0.060
-690.383	-200.000	0.029	-0.158
-689.368	499.983	-0.073	-0.170
-688.354	-94.662	-0.410	-0.112
-687.339	109.998	-0.092	0.112
-686.324	638.299	0.106	-0.273
-685.310	-77.063	0.119	-0.042
-684.295	-200.000	-0.066	-0.373
-683.281	-13.585	-0.407	0.266
-682.266	-88.002	-0.259	-0.079
-681.251	-58.842	0.343	0.150
-680.237	-60.914	0.072	-0.031
-679.222	-53.619	0.232	-0.107
-678.208	13.559	-0.112	-0.088
-677.193	-200.000	0.043	0.252
-676.178	-50.540	0.176	0.084
-675.164	-200.000	-0.016	-0.096
-674.149	-200.000	-0.045	0.262
-673.135	-200.000	0.008	0.055
-672.120	-79.586	-0.354	-0.121
-671.105	-23.152	-0.153	-0.093
-670.091	-160.035	-0.023	-0.001
-669.076	800.000	0.076	-0.223
-668.062	52.775	0.160	-0.154
-667.047	-136.457	-0.118	-0.014
-666.032	-200.000	0.088	-0.437
-665.018	-200.000	0.003	-0.320
-664.003	-200.000	-0.025	0.241
-662.989	-200.000	-0.001	-0.113
-661.974	307.389	-0.024	0.045
-660.959	-115.489	0.103	-0.019
-659.945	309.356	0.059	0.112
-658.930	800.000	0.016	-0.058
-657.916	-200.000	0.013	-0.213
-656.901	-3.203	-0.237	-0.167
-655.886	588.653	0.033	0.081
-654.872	23.284	-0.045	0.037
-653.857	-200.000	0.010	-0.167
-652.843	236.990	0.083	-0.138
-651.828	-105.556	-0.281	0.064
-650.814	481.499	0.130	0.297
-649.799	298.672	-0.082	0.152
-648.784	31.724	-0.046	0.040
-647.770	-9.553	-0.086	0.058
-646.755	-200.000	-0.023	0.137
-645.741	145.891	0.140	0.189
-644.726	-36.792	0.284	-0.154
-643.711	179.354	-0.096	0.141
-642.697	-200.000	0.017	-0.171
-641.682	119.431	-0.380	-0.473
-640.668	800.000	-0.078	0.216
-639.653	-146.776	0.109	-0.009
-638.638	-55.595	0.239	-0.108
-637.624	-181.161	-0.375	-0.008
-636.609	30.378	-0.102	0.088
-635.595	800.000	-0.120	-0.389
-634.580	-200.000	-0.041	0.413
-633.565	-77.155	-0.561	0.197
-632.551	-200.000	-0.005	0.168
-631.536	-21.263	-0.138	-0.085
-630.522	-107.656	0.345	-0.076
-629.507	-105.040	0.196	0.045
-628.492	285.042	0.070	-0.126
-627.478	-90.471	-0.020	-0.006
-626.463	-101.609	-0.292	-0.071
-625.449	351.281	-0.219	0.437
-624.434	351.752	0.033	-0.066
-623.419	521.113	0.032	-0.076
-622.405	-46.222	0.067	0.033
-621.390	800.000	-0.083	-0.317
-620.376	-145.413	-0.379	-0.034
-619.361	482.631	0.095	0.216
-618.346	-10.861	-0.180	0.120
-617.332	-105.312	0.190	0.044
-616.317	800.000	-0.088	-0.359
-615.303	240.475	0.089	-0.149
-614.288	-113.536	-0.191	-0.038
-613.273	-58.586	-0.156	-0.068
-612.259	328.335	-0.065	-0.126
-611.244	99.793	-0.126	0.147
-610.230	-105.097	0.122	0.028
-609.215	800.000	-0.071	0.212
-608.201	-128.058	-0.469	-0.068
-607.186	-200.000	0.049	-0.292
-606.171	107.630	-0.183	0.220
-605.157	33.247	-0.075	0.066
-604.142	800.000	-0.033	-0.111
-603.128	-145.966	0.104	0.009
-602.113	-20.860	0.160	-0.098
-601.098	-69.107	-0.161	0.062
-600.084	403.375	0.082	0.174
-599.069	800.000	-0.072	0.206
-598.055	130.687	-0.162	0.209
-597.040	-120.187	-0.191	0.033
-596.025	282.984	-0.134	0.241
-595.011	800.000	-0.078	-0.225
-593.996	-146.857	-0.281	0.024
-592.982	266.633	0.159	-0.279
-591.967	-30.812	-0.055	0.031
-590.952	204.516	0.054	0.085
-589.938	800.000	0.090	0.305
-588.923	120.765	-0.238	0.297
-587.909	-117.246	0.273	0.050
-586.894	79.114	-0.080	0.086
-585.879	-200.000	0.036	-0.184
-584.865	800.000	0.050	0.208
-583.850	73.931	-0.363	-0.383
-582.836	23.496	0.381	-0.315
-581.821	-31.860	0.109	-0.061
-580.806	-200.000	-0.005	0.058
-579.792	-200.000	0.025	0.165
-578.777	-200.000	-0.033	-0.154
-577.763	-80.490	0.185	0.062
-576.748	-76.059	-0.239	-0.085
-575.733	-200.000	-0.024	-0.230
-574.719	-200.000	-0.032	-0.358
-573.704	-200.000	-0.002	-0.027
-572.690	-131.317	0.262	-0.035
-571.675	173.335	0.076	0.111
-570.661	363.444	-0.046	-0.094
-569.646	111.427	-0.093	0.112
-568.631	800.000	0.061	-0.196
-567.617	144.422	-0.249	-0.334
-566.602	-200.000	0.049	0.282
-565.588	224.897	-0.082	-0.133
-564.573	-111.386	0.153	-0.031
-563.558	800.000	-0.046	0.170
-562.544	-103.983	0.374	0.088
-561.529	508.140	0.077	0.179
-560.515	-200.000	0.021	-0.159
-559.500	769.661	-0.032	0.086
-558.485	-72.323	-0.444	-0.165
-557.471	568.746	0.067	-0.164
-556.456	34.190	0.131	0.115
-555.442	-29.200	-0.191	-0.110
-554.427	119.024	-0.206	-0.256
-553.412	-200.000	-0.005	-0.133
-552.398	-83.349	-0.139	0.045
-551.383	-200.000	0.008	-0.092
-550.369	-63.210	0.143	-0.059
-549.354	-6.102	-0.052	-0.036
-548.339	173.340	-0.117	0.170
-547.325	800.000	0.074	0.211
-546.310	659.510	0.122	0.316
-545.296	-6.199	0.091	0.063
-544.281	22.055	-0.100	-0.082
-543.266	-78.214	0.294	-0.101
-542.252	-14.736	-0.033	-0.021
-541.237	89.328	0.175	-0.196
-540.223	18.429	-0.090	0.072
-539.208	53.947	-0.029	-0.028
-538.193	459.771	-0.084	0.188
-537.179	800.000	-0.054	-0.171
-536.164	215.310	0.091	0.144
-535.150	249.584	-0.162	0.275
-534.135	316.247	0.080	0.152
-533.121	800.000	0.027	-0.108
-532.106	604.989	0.007	0.017
-531.091	99.937	0.073	0.085
-530.077	-200.000	-0.017	-0.176
-529.062	-200.000	-0.038	-0.245
-528.048	-128.968	-0.221	-0.031
-527.033	-10.618	-0.209	0.138
-526.018	-140.269	0.247	-0.026
-525.004	-3.199	0.155	-0.108
-523.989	800.000	0.037	0.134
-522.975	254.678	-0.060	0.102
-521.960	-138.575	-0.144	0.016
-520.945	-16.107	0.328	-0.209
-519.931	84.680	-0.086	-0.095
-518.916	-200.000	-0.001	-0.069
-517.902	-200.000	-0.068	-0.391
-516.887	-200.000	0.004	0.139
-515.872	-5.372	-0.017	0.012
-514.858	-34.892	0.331	-0.181
-513.843	84.706	0.216	-0.237
-512.829	490.924	-0.055	0.125
-511.814	106.325	-0.088	-0.105
-510.799	-200.000	0.014	0.083
-509.785	-40.929	0.099	0.051
-508.770	-49.635	-0.225	-0.107
-507.756	-2.989	0.126	-0.088
-506.741	-77.922	0.051	0.018
-505.726	-200.000	-0.002	0.126
-504.712	89.545	0.363	-0.405
-503.697	107.916	-0.146	0.174
-502.683	0.157	-0.205	0.146
-501.668	79.787	-0.190	0.204
-500.653	800.000	-0.079	-0.266
-499.639	180.477	0.166	-0.244
-498.624	-200.000	-0.041	-0.286
-497.610	-131.242	0.178	-0.024
-496.595	783.136	0.115	0.316
-495.581	-125.445	-0.341	0.052
-494.566	42.871	-0.143	-0.131
-493.551	-61.454	0.280	-0.118
-492.537	128.465	-0.031	0.040
-491.522	288.167	-0.076	0.137
-490.508	-200.000	-0.014	0.090
-489.493	-51.127	-0.381	0.179
-488.478	153.177	0.145	-0.199
-487.464	81.799	0.207	0.224
-486.449	-130.227	-0.058	0.008
-485.435	-68.883	-0.150	0.058
-484.420	-200.000	-0.017	0.264
-483.405	52.517	-0.076	0.073
-482.391	-80.771	0.010	-0.003
-481.376	-200.000	0.013	0.249
-480.362	-200.000	0.032	-0.392
-479.347	0.636	-0.215	-0.154
-478.332	27.879	-0.279	-0.235
-477.318	-145.188	-0.207	-0.019
-476.303	-137.196	0.396	0.045
-475.289	69.134	-0.227	0.234
-474.274	-200.000	0.022	-0.410
-473.259	5.077	0.149	0.110
-472.245	-46.798	0.182	0.089
-471.230	800.000	0.111	-0.358
-470.216	-4.784	0.397	-0.274
-469.201	800.000	0.110	-0.344
-468.186	-200.000	-0.029	-0.238
-467.172	800.000	-0.079	0.239
-466.157	800.000	0.139	0.411
-465.143	3.017	-0.108	-0.079
-464.128	292.479	0.097	-0.177
-463.113	-130.296	-0.141	0.019
-462.099	177.923	-0.063	0.092
-461.084	-68.249	-0.256	-0.099
-460.070	-106.868	-0.058	0.013
-459.055	-49.801	0.294	-0.140
-458.040	-45.500	-0.166	-0.082
-457.026	31.364	-0.184	-0.158
-456.011	55.345	-0.142	0.137
-454.997	-74.115	0.520	-0.188
-453.982	46.057	0.103	0.095
-452.968	-25.056	-0.185	0.110
-451.953	-154.693	0.132	-0.009
-450.938	45.536	-0.086	-0.079
-449.924	-126.003	0.464	-0.070
-448.909	157.994	0.121	0.167
-447.895	-200.000	0.046	0.300
-446.880	-141.285	0.306	-0.031
-445.865	-183.139	0.126	0.002
-444.851	-10.261	0.081	0.054
-443.836	124.565	-0.096	-0.121
-442.822	261.550	0.238	0.412
-441.807	38.903	0.135	0.121
-440.792	-200.000	0.038	-0.205
-439.778	29.031	0.171	-0.145
-438.763	-200.000	-0.013	0.178
-437.749	-19.820	0.243	0.150
-436.734	-52.575	-0.215	-0.099
-435.719	254.675	-0.085	-0.145
-434.705	9.106	-0.084	0.063
-433.690	798.842	-0.039	0.107
-432.676	232.332	0.215	0.353
-431.661	-189.429	0.242	-0.003
-430.646	135.502	0.071	0.092
-429.632	-178.874	0.315	0.007
-428.617	-161.792	-0.168	-0.009
-427.603	317.315	-0.106	0.200
-426.588	22.109	-0.129	-0.105
-425.573	-58.646	-0.124	0.054
-424.559	-200.000	0.043	0.274
-423.544	-98.880	-0.126	0.032
-422.530	-80.653	-0.157	-0.052
-421.515	-125.001	0.126	-0.019
-420.500	-200.000	0.009	-0.114
-419.486	800.000	-0.030	0.085
-418.471	-200.000	0.058	-0.263
-417.457	-93.497	0.071	0.020
-416.442	616.936	0.111	0.277
-415.428	-69.100	-0.145	-0.056
-414.413	312.345	-0.234	0.439
-413.398	148.858	-0.146	0.198
-412.384	-7.736	0.215	-0.145
-411.369	-200.000	0.028	-0.371
-410.355	159.397	0.102	-0.142
-409.340	-141.437	-0.269	0.027
-408.325	800.000	0.107	-0.307
-407.311	50.311	-0.186	-0.175
-406.296	-65.489	0.082	-0.033
-405.282	-111.299	-0.269	-0.055
-404.267	-33.169	0.225	-0.124
-403.252	98.667	0.061	0.070
-402.238	604.336	0.056	-0.140
-401.223	118.478	0.267	-0.329
-400.209	-88.325	-0.090	0.027
-399.194	-39.865	0.154	-0.080
-398.179	-200.000	0.010	-0.091
-397.165	-121.895	-0.154	0.025
-396.150	154.804	0.005	-0.007
-395.136	-22.601	-0.198	-0.119
-394.121	800.000	0.027	0.100
-393.106	155.455	-0.157	-0.215
-392.092	-200.000	0.004	-0.039
-391.077	47.451	0.174	0.162
-390.063	-200.000	-0.010	-0.056
-389.048	-69.129	-0.354	-0.136
-388.033	-101.500	-0.405	0.098
-387.019	-63.265	0.343	0.141
-386.004	800.000	-0.054	-0.181
-384.990	800.000	-0.011	-0.034
-383.975	477.408	0.169	0.381
-382.960	63.585	0.101	0.101
-381.946	-200.000	-0.046	0.291
-380.931	12.636	-0.177	0.136
-379.917	-51.204	0.097	-0.045
-378.902	65.872	-0.338	0.341
-377.888	-102.968	0.313	0.074
-376.873	-200.000	0.045	-0.230
-375.858	34.129	-0.250	0.217
-374.844	-150.414	0.045	-0.003
-373.829	-200.000	-0.018	-0.290
-372.815	-129.393	-0.096	0.013
-371.800	395.124	0.040	-0.083
-370.785	76.730	0.095	0.100
-369.771	0.172	-0.150	-0.107
-368.756	-180.399	-0.179	-0.004
-367.742	-41.716	0.161	0.083
-366.727	82.318	0.038	-0.041
-365.712	-72.616	-0.399	0.147
-364.698	63.412	0.091	-0.091
-363.683	-200.000	0.005	0.083
-362.669	-58.977	-0.227	0.098
-361.654	-102.161	0.202	-0.049
-360.639	-91.493	0.386	0.110
-359.625	800.000	-0.149	-0.482
-358.610	-69.282	-0.226	-0.087
-357.596	-113.915	0.322	0.062
-356.581	-10.588	-0.202	0.133
-355.566	-200.000	-0.013	0.131
-354.552	-74.861	0.285	0.102
-353.537	-85.048	0.323	-0.101
-352.523	-52.791	0.188	0.086
-351.508	-25.372	0.130	-0.077
-350.493	-91.232	-0.149	0.043
-349.479	800.000	0.071	-0.196
-348.464	800.000	0.034	0.095
-347.450	-122.889	-0.114	-0.018
-346.435	-200.000	-0.014	0.189
-345.420	-50.987	0.165	-0.077
-344.406	-106.606	0.155	0.034
-343.391	-200.000	-0.023	0.127
-342.377	14.432	-0.065	-0.051
-341.362	-103.676	-0.108	0.025
-340.348	62.401	0.057	0.057
-339.333	800.000	-0.076	0.234
-338.318	-30.054	0.104	0.059
-337.304	-200.000	-0.040	-0.184
-336.289	-200.000	-0.058	0.458
-335.275	-15.668	-0.437	-0.277
-334.260	103.993	0.194	-0.227
-333.245	-187.593	-0.254	-0.003
-332.231	4.952	-0.109	0.080
-331.216	137.710	0.025	-0.032
-330.202	-200.000	0.056	-0.260
-329.187	-115.400	0.201	0.038
-328.172	-82.943	0.509	0.163
-327.158	577.028	-0.102	0.248
-326.143	-6.663	0.307	0.208
-325.129	-200.000	0.040	-0.282
-324.114	-200.000	-0.009	0.079
-323.099	-96.999	0.203	0.053
-322.085	-200.000	-0.015	0.087
-321.070	-49.122	-0.173	0.082
-320.056	-200.000	0.024	-0.350
-319.041	-32.372	0.167	-0.093
-318.026	44.462	-0.198	0.181
-317.012	631.279	0.080	0.202
-315.997	-48.068	0.124	0.060
-314.983	-200.000	-0.009	-0.353
-313.968	-72.182	-0.388	0.143
-312.953	-27.363	-0.260	0.151
-311.939	102.705	0.138	0.161
-310.924	4.056	0.214	0.155
-309.910	800.000	-0.078	-0.257
-308.895	214.466	0.126	0.198
-307.880	-51.729	0.092	0.042
-306.866	134.972	-0.168	-0.218
-305.851	81.762	0.157	0.169
-304.837	-200.000	-0.041	-0.457
-303.822	-200.000	0.027	-0.196
-302.807	-35.218	-0.120	-0.065
-301.793	165.616	0.244	-0.343
-300.778	800.000	-0.136	-0.467
-299.764	20.476	-0.145	-0.117
-298.749	-43.482	0.219	-0.110
-297.735	-45.433	0.292	-0.144
-296.720	-200.000	0.054	0.328
-295.705	491.567	-0.122	-0.278
-294.691	140.019	-0.124	-0.163
-293.676	-114.481	0.020	0.004
-292.662	-81.194	0.211	-0.069
-291.647	78.005	-0.196	-0.208
-290.632	800.000	0.029	0.092
-289.618	-93.964	-0.269	0.074
-288.603	-200.000	0.006	-0.063
-287.589	-116.827	-0.068	-0.012
-286.574	-31.243	0.245	-0.137
-285.559	-91.369	-0.120	-0.034
-284.545	-78.599	0.247	0.084
-283.530	-65.953	0.091	0.036
-282.516	-65.055	0.134	-0.054
-281.501	85.361	0.041	-0.044
-280.486	0.141	0.037	-0.027
-279.472	111.637	-0.135	0.161
-278.457	21.543	0.034	-0.028
-277.443	-183.276	-0.205	0.004
-276.428	111.603	0.169	0.202
-275.413	800.000	-0.040	0.113
-274.399	3.353	-0.193	-0.139
-273.384	-120.599	-0.143	-0.024
-272.370	-146.865	0.182	-0.016
-271.355	800.000	0.027	0.077
-270.340	-41.770	0.194	-0.099
-269.326	-200.000	-0.024	-0.124
-268.311	-133.914	-0.157	0.019
-267.297	56.898	0.142	-0.137
-266.282	800.000	-0.058	0.168
-265.267	-200.000	0.044	0.232
-264.253	-94.308	-0.235	0.064
-263.238	330.734	-0.098	0.187
-262.224	389.306	0.032	0.065
-261.209	101.394	0.153	-0.177
-260.195	89.946	0.224	0.248
-259.180	800.000	-0.128	0.499
-258.165	375.598	-0.104	0.210
-257.151	10.059	0.177	-0.133
-256.136	-134.214	-0.404	0.049
-255.122	304.045	-0.215	-0.396
-254.107	183.335	0.097	0.142
-253.092	37.251	0.309	0.271
-252.078	-40.043	0.330	-0.170
-251.063	-42.363	0.266	-0.134
-250.049	-120.946	0.194	-0.032
-249.034	453.096	-0.142	-0.311
-248.019	-151.098	0.132	0.010
-247.005	786.015	0.028	0.076
-245.990	-27.514	-0.154	0.089
-244.976	147.534	-0.077	0.103
-243.961	-10.198	0.290	-0.191
-242.946	66.819	-0.093	0.094
-241.932	241.437	0.184	0.304
-240.917	-200.000	-0.014	0.126
-239.903	-200.000	0.001	0.024
-238.888	-120.437	-0.129	0.022
-237.873	139.780	-0.175	0.228
-236.859	-140.741	0.059	0.006
-235.844	800.000	-0.136	-0.397
-234.830	-139.231	-0.204	-0.022
-233.815	-66.293	-0.086	-0.034
-232.800	149.007	-0.270	-0.362
-231.786	-101.983	0.418	-0.100
-230.771	-88.140	-0.061	-0.018
-229.757	-117.040	0.106	0.019
-228.742	-200.000	-0.010	0.125
-227.727	38.641	-0.226	0.200
-226.713	-41.342	-0.049	0.025
-225.698	-200.000	0.001	0.305
-224.684	-87.237	0.261	-0.079
-223.669	-200.000	0.035	-0.198
-222.655	800.000	0.055	-0.170
-221.640	49.160	-0.276	-0.257
-220.625	88.975	0.128	-0.141
-219.611	-29.326	0.111	0.063
-218.596	-200.000	-0.068	0.417
-217.582	711.386	-0.099	0.261
-216.567	600.206	0.029	-0.072
-215.552	-89.382	-0.039	0.011
-214.538	-200.000	-0.035	-0.372
-213.523	-200.000	-0.016	0.083
-212.509	-5.399	0.255	0.174
-211.494	-83.318	-0.206	-0.065
-210.479	-39.698	0.106	-0.055
-209.465	-31.131	0.095	-0.053
-208.450	-62.446	-0.098	-0.041
-207.436	-76.897	0.110	-0.038
-206.421	800.000	0.089	0.317
-205.406	800.000	-0.054	0.215
-204.392	-200.000	-0.012	0.125
-203.377	-200.000	0.017	0.204
-202.363	-119.050	-0.078	0.014
-201.348	102.145	0.083	-0.096
-200.333	-173.980	0.347	0.010
-199.319	-200.000	-0.045	-0.368
-198.304	-200.000	0.002	0.248
-197.290	296.683	0.248	-0.450
-196.275	-26.708	-0.194	-0.112
-195.260	-200.000	-0.002	-0.126
-194.246	172.767	-0.150	0.215
-193.231	154.233	-0.191	0.259
-192.217	105.822	0.109	0.128
-191.202	432.966	0.092	0.198
-190.187	800.000	-0.045	0.192
-189.173	-35.093	-0.441	-0.238
-188.158	-29.418	0.097	0.055
-187.144	-22.585	-0.219	0.131
-186.129	521.219	0.194	0.452
-185.114	-146.105	0.275	0.024
-184.100	-200.000	-0.013	-0.078
-183.085	-173.861	0.242	-0.007
-182.071	-86.200	-0.208	-0.063
-181.056	-96.270	0.204	0.054
-180.042	78.511	-0.194	0.206
-179.027	103.430	0.229	-0.265
-178.012	-123.509	0.126	0.020
-176.998	-73.907	-0.364	0.131
-175.983	88.681	0.110	0.121
-174.969	-88.725	0.066	-0.019
-173.954	-200.000	-0.009	-0.161
-172.939	179.705	0.131	0.189
-171.925	368.975	-0.037	-0.073
-170.910	673.905	-0.107	-0.275
-169.896	-72.281	-0.160	0.059
-168.881	223.053	0.133	0.212
-167.866	800.000	-0.074	0.226
-166.852	-200.000	-0.027	0.282
-165.837	-112.859	-0.397	-0.078
-164.823	-111.678	0.264	0.053
-163.808	123.008	0.053	-0.066
-162.793	620.866	0.115	-0.285
-161.779	-136.736	-0.296	0.034
-160.764	96.915	0.056	0.063
-159.750	-56.809	-0.136	-0.059
-158.735	91.578	0.061	-0.067
-157.720	286.426	-0.127	0.227
-156.706	329.655	-0.174	0.332
-155.691	71.796	0.154	-0.159
-154.677	121.394	0.117	-0.144
-153.662	-53.488	0.113	-0.051
-152.647	800.000	0.101	0.352
-151.633	-200.000	-0.042	-0.227
-150.618	8.085	-0.072	0.054
-149.604	-200.000	0.068	0.380
-148.589	628.855	-0.132	0.331
-147.574	-46.797	-0.117	0.056
-146.560	-123.723	-0.250	0.039
-145.545	-200.000	0.027	-0.205
-144.531	354.663	-0.109	0.214
-143.516	122.410	-0.104	-0.128
-142.502	-200.000	0.064	0.336
-141.487	-133.742	0.349	-0.043
-140.472	11.767	0.311	-0.236
-139.458	-60.491	-0.100	-0.042
-138.443	364.398	-0.183	0.365
-137.429	-27.098	0.361	0.208
-136.414	47.709	-0.227	-0.209
-135.399	-175.333	0.148	-0.004
-134.385	-99.733	-0.154	-0.038
-133.370	212.292	-0.115	-0.179
-132.356	-200.000	-0.095	0.460
-131.341	-183.114	-0.017	-0.000
-130.326	-188.753	0.155	-0.002
-129.312	48.980	-0.161	-0.149
-128.297	-88.598	-0.403	0.119
-127.283	-187.605	-0.420	0.005
-126.268	-200.000	-0.063	0.320
-125.253	-200.000	-0.021	0.103
-124.239	-77.332	0.185	0.063
-123.224	99.482	0.152	-0.174
-122.210	39.193	-0.190	0.168
-121.195	-200.000	-0.020	0.299
-120.180	3.551	0.234	0.168
-119.166	26.180	-0.315	0.260
-118.151	274.979	0.087	0.152
-117.137	-136.556	-0.234	0.027
-116.122	-200.000	0.001	-0.114
-115.107	82.968	0.089	0.095
-114.093	-85.630	0.099	-0.030
-113.078	-200.000	-0.025	-0.447
-112.064	-138.309	-0.133	0.014
-111.049	-176.213	-0.350	0.009
-110.034	25.557	-0.205	0.168
-109.020	-200.000	0.058	0.290
-108.005	800.000	0.054	0.194
-106.991	-134.295	0.225	-0.027
-105.976	669.018	0.012	0.032
-104.962	-91.603	-0.252	-0.071
-103.947	173.687	0.166	-0.237
-102.932	800.000	0.053	-0.228
-101.918	-200.000	0.006	0.174
-100.903	-158.530	0.128	0.007
-99.889	-175.443	0.157	0.004
-98.874	-130.291	-0.151	-0.020
-97.859	23.302	0.038	-0.031
-96.845	-200.000	-0.043	0.210
-95.830	365.684	0.139	-0.276
-94.816	313.325	-0.044	0.081
-93.801	800.000	-0.060	-0.227
-92.786	-8.580	0.274	0.182
-91.772	153.265	0.375	0.505
-90.757	54.912	0.137	-0.130
-89.743	-14.136	-0.265	0.168
-88.728	105.164	-0.050	-0.058
-87.713	437.530	-0.082	-0.176
-86.699	800.000	0.044	-0.174
-85.684	-200.000	0.025	0.255
-84.670	-114.124	-0.124	0.024
-83.655	-2.423	-0.028	0.019
-82.640	-115.214	0.158	-0.029
-81.626	800.000	-0.030	-0.108
-80.611	25.577	-0.188	0.155
-79.597	78.215	-0.262	-0.276
-78.582	-36.922	0.377	-0.199
-77.567	119.822	0.042	0.052
-76.553	677.331	0.047	0.120
-75.538	11.335	-0.127	0.096
-74.524	-200.000	-0.022	-0.146
-73.509	45.600	-0.171	-0.155
-72.494	-4.327	-0.163	-0.111
-71.480	771.640	0.023	-0.061
-70.465	-10.005	0.205	-0.134
-69.451	47.714	0.323	0.297
-68.436	-200.000	-0.004	0.227
-67.422	86.609	-0.112	0.122
-66.407	-65.181	-0.334	-0.133
-65.392	-65.697	0.199	-0.079
-64.378	-200.000	0.039	0.258
-63.363	-200.000	0.014	0.103
-62.349	412.389	-0.132	0.276
-61.334	126.646	-0.886	-1.105
-60.319	-36.944	0.458	0.242
-59.305	-200.000	-0.142	-1.111
-58.290	800.000	0.341	0.956
-57.276	800.000	0.517	1.926
-56.261	-200.000	94.582	546.024
-55.246	492.472	1428.419	3223.476
-54.232	150.707	2621.083	3507.285
-53.217	110.340	2203.236	2606.242
-52.203	44.223	1645.404	1486.408
-51.188	35.800	1376.590	1191.628
-50.173	32.691	1333.643	1135.709
-49.159	53.900	1379.457	1305.014
-48.144	56.218	1395.935	1334.725
-47.130	36.171	1355.070	1175.076
-46.115	32.656	1337.896	1138.940
-45.100	32.495	1333.226	1133.953
-44.086	32.301	1331.115	1130.946
-43.071	32.092	1328.965	1127.813
-42.057	32.209	1326.475	1126.361
-41.042	32.150	1324.743	1124.493
-40.027	32.283	1322.873	1123.652
-39.013	32.279	1321.521	1122.438
-37.998	32.336	1319.373	1120.907
-36.984	32.436	1317.557	1119.917
-35.969	32.452	1315.668	1118.361
-34.954	32.387	1314.092	1116.594
-33.940	32.295	1313.092	1115.153
-32.925	32.497	1311.431	1114.896
-31.911	32.554	1309.870	1113.857
-30.896	32.473	1308.321	1112.018
-29.881	32.478	1307.027	1110.906
-28.867	32.550	1305.410	1109.911
-27.852	32.523	1303.844	1108.380
-26.838	32.508	1302.745	1107.310
-25.823	32.515	1301.203	1105.996
-24.809	32.535	1299.568	1104.678
-23.794	32.397	1298.350	1102.792
-22.779	32.424	1297.594	1102.262
-21.765	32.507	1296.181	1101.506
-20.750	32.525	1294.477	1100.120
-19.736	32.350	1293.440	1098.174
-18.721	32.316	1292.144	1096.833
-17.706	32.381	1291.438	1096.569
-16.692	32.353	1289.764	1094.937
-15.677	32.247	1289.233	1093.828
-14.663	32.443	1287.362	1093.336
-13.648	32.348	1286.407	1091.931
-12.633	32.370	1285.336	1091.107
-11.619	32.357	1284.890	1090.609
-10.604	32.329	1283.609	1089.314
-9.590	32.300	1282.198	1087.905
-8.575	32.279	1281.563	1087.205
-7.560	32.249	1281.155	1086.642
-6.546	32.246	1280.259	1085.818
-5.531	32.274	1279.039	1084.904
-4.517	32.307	1278.107	1084.261
-3.502	32.298	1277.483	1083.637
-2.487	32.311	1276.355	1082.708
-1.473	32.319	1272.528	1079.466
-0.458	31.517	1258.429	1062.913
0.556	27.006	1241.557	1027.634
1.571	23.349	1247.881	1011.933
2.586	21.820	1262.166	1014.583
3.600	20.537	1249.852	997.239
4.615	14.953	1174.484	906.834
5.629	5.333	1095.705	797.068
6.644	0.884	1073.708	758.731
7.659	0.415	1071.569	754.807
8.673	0.374	1070.710	753.927
9.688	0.407	1069.259	753.005
10.702	0.675	1067.142	752.783
11.717	5.957	1074.611	784.428
12.731	14.455	1085.774	835.254
13.746	17.358	1088.972	852.205
14.761	17.024	1087.910	849.626
15.775	16.141	1085.931	843.589
16.790	15.147	1084.019	837.064
17.804	14.576	1082.501	832.971
18.819	14.190	1081.307	830.052
19.834	13.855	1080.317	827.546
20.848	13.715	1079.195	825.916
21.863	13.377	1078.693	823.777
22.877	13.214	1077.427	821.927
23.892	13.159	1076.974	821.236
24.907	13.164	1076.264	820.650
25.921	13.451	1075.239	821.219
26.936	13.246	1074.581	819.626
27.950	13.253	1073.737	818.945
28.965	13.305	1072.171	817.934
29.980	13.301	1071.079	817.011
30.994	13.455	1070.132	816.974
32.009	13.322	1069.355	815.653
33.023	13.467	1067.973	815.243
34.038	13.307	1067.388	813.933
35.053	13.487	1066.164	813.815
36.067	13.223	1065.934	812.271
37.082	13.410	1064.708	812.184
38.096	13.383	1063.469	811.033
39.111	13.264	1063.013	810.029
40.126	13.364	1061.775	809.505
41.140	13.307	1060.604	808.261
42.155	13.188	1059.608	806.849
43.169	13.178	1058.712	806.046
44.184	13.282	1057.225	805.349
45.199	13.162	1056.356	804.035
46.213	13.177	1055.325	803.250
47.228	13.151	1055.091	802.877
48.242	13.324	1053.213	802.213
49.257	13.227	1052.390	801.048
50.271	13.231	1051.262	800.137
51.286	13.419	1050.157	800.132
52.301	13.326	1049.220	798.900
53.315	13.255	1048.532	797.961
54.330	13.176	1047.133	796.448
55.344	13.126	1046.859	795.927
56.359	13.309	1045.858	795.977
57.374	13.222	1045.466	795.186
58.388	13.184	1044.430	794.145
59.403	13.242	1043.302	793.498
60.417	13.128	1042.546	792.307
61.432	13.145	1041.509	791.527
62.447	13.120	1041.149	791.066
63.461	13.127	1040.205	790.314
64.476	13.118	1039.164	789.408
65.490	13.155	1038.486	789.002
66.505	13.223	1037.819	788.749
67.520	13.166	1037.156	787.904
68.534	13.266	1036.319	787.674
69.549	13.147	1035.296	786.260
70.563	13.179	1034.457	785.703
71.578	12.986	1034.298	784.595
72.593	13.104	1033.207	784.260
73.607	13.056	1032.408	783.356
74.622	13.044	1032.051	782.959
75.636	13.109	1031.422	782.719
76.651	13.263	1030.363	782.575
77.666	13.118	1029.835	781.422
78.680	13.130	1029.134	780.877
79.695	13.113	1028.580	780.308
80.709	13.250	1027.966	780.421
81.724	13.216	1027.103	779.532
82.739	13.198	1026.684	779.061
83.753	13.333	1025.686	778.873
84.768	13.221	1024.781	777.590
85.782	13.353	1023.584	777.231
86.797	13.286	1022.871	776.308
87.812	13.257	1021.682	775.201
88.826	13.224	1020.720	774.249
89.841	13.378	1019.585	774.040
90.855	13.307	1018.924	773.135
91.870	13.333	1018.592	772.939
92.884	13.401	1017.338	772.235
93.899	13.444	1016.341	771.611
94.914	13.456	1015.776	771.171
95.928	13.513	1015.163	770.902
96.943	13.357	1014.282	769.436
97.957	13.312	1013.218	768.353
98.972	13.419	1012.197	768.008
99.987	13.314	1011.575	766.982
101.001	13.512	1010.236	766.814
102.016	13.350	1009.665	765.566
103.030	13.369	1009.041	765.110
104.045	13.418	1008.178	764.616
105.060	13.391	1007.337	763.783
106.074	13.332	1006.073	762.487
107.089	13.288	1004.857	761.297
108.103	13.218	1004.630	760.737
109.118	13.222	1003.492	759.825
110.133	13.248	1002.745	759.310
111.147	13.338	1001.804	758.942
112.162	13.244	1001.231	758.010
113.176	13.408	1000.209	757.923
114.191	13.232	999.736	756.692
115.206	13.265	999.022	756.233
116.220	13.286	998.039	755.517
117.235	13.374	996.879	754.975
118.249	13.343	995.984	754.090
119.264	13.367	995.484	753.755
120.279	13.295	994.546	752.651
121.293	13.273	993.304	751.542
122.308	13.252	992.752	750.964
123.322	13.308	991.602	750.279
124.337	13.386	990.854	750.003
125.352	13.271	989.831	748.641
126.366	13.293	988.678	747.802
127.381	13.415	987.232	747.195
128.395	13.301	986.762	746.256
129.410	13.383	985.676	745.737
130.424	13.400	985.114	745.323
131.439	13.535	983.761	744.842
132.454	13.307	983.944	743.890
133.468	13.496	982.627	743.675
134.483	13.462	981.874	742.886
135.497	13.455	980.848	742.013
136.512	13.397	980.297	741.271
137.527	13.377	979.123	740.230
138.541	13.458	978.440	740.012
139.556	13.571	977.415	739.673
140.570	13.538	977.291	739.368
141.585	13.305	976.504	737.665
142.600	13.556	975.541	737.991
143.614	13.604	974.412	737.287
144.629	13.676	973.648	736.964
145.643	13.519	972.575	735.387
146.658	13.513	971.785	734.701
147.673	13.466	971.042	733.867
148.687	13.475	969.807	732.907
149.702	13.391	969.454	732.202
150.716	13.349	969.185	731.748
151.731	13.508	967.980	731.476
152.746	13.532	967.217	730.943
153.760	13.594	966.523	730.627
154.775	13.655	965.752	730.246
155.789	13.692	965.312	730.012
156.804	13.678	964.328	729.144
157.819	13.754	963.799	729.012
158.833	13.629	963.324	728.039
159.848	13.618	962.517	727.318
160.862	13.605	961.618	726.516
161.877	13.620	960.552	725.714
162.892	13.568	959.796	724.849
163.906	13.642	958.724	724.298
164.921	13.638	957.566	723.343
165.935	13.563	957.035	722.551
166.950	13.740	955.882	722.385
167.964	13.677	955.007	721.390
168.979	13.648	954.419	720.752
169.994	13.744	953.401	720.340
171.008	13.807	952.270	719.693
172.023	13.776	951.733	719.090
173.037	13.745	951.617	718.803
174.052	13.815	950.628	718.295
175.067	13.691	950.301	717.450
176.081	13.693	949.471	716.768
177.096	13.679	949.301	716.513
178.110	13.804	948.264	716.210
179.125	13.718	947.937	715.526
180.140	13.874	947.106	715.510
181.154	13.865	946.933	715.277
182.169	13.889	946.256	714.804
183.183	13.877	945.594	714.190
184.198	13.919	944.902	713.783
185.213	13.881	944.011	712.885
186.227	13.877	943.381	712.331
187.242	13.929	942.948	712.163
188.256	13.954	941.998	711.489
189.271	14.032	941.165	711.131
190.286	13.873	940.761	710.081
191.300	13.895	939.965	709.511
192.315	13.777	939.630	708.692
193.329	13.726	938.973	707.915
194.344	13.836	938.391	707.885
195.359	13.862	937.487	707.250
196.373	13.892	937.038	706.980
197.388	13.985	936.811	707.138
198.402	14.130	935.874	706.985
199.417	14.047	935.274	706.117
200.432	14.147	934.683	706.032
201.446	14.172	934.580	705.998
202.461	14.338	933.690	705.968
203.475	14.315	933.097	705.358
204.490	14.096	932.408	703.851
205.504	14.087	931.927	703.388
206.519	14.314	930.578	703.264
207.534	14.146	930.251	702.247
208.548	14.147	929.690	701.766
209.563	14.231	928.677	701.292
210.577	14.344	928.061	701.242
211.592	14.425	927.531	701.119
212.607	14.361	926.752	700.198
213.621	14.291	926.089	699.342
214.636	14.361	925.278	698.962
215.650	14.277	924.718	698.126
216.665	14.259	924.384	697.733
217.680	14.333	923.563	697.365
218.694	14.547	922.740	697.576
219.709	14.429	921.842	696.341
220.723	14.388	921.578	695.910
221.738	14.367	920.660	695.068
222.753	14.394	920.243	694.803
223.767	14.441	919.753	694.567
224.782	14.588	918.721	694.338
225.796	14.578	918.297	693.915
226.811	14.442	917.843	692.945
227.826	14.505	917.117	692.595
228.840	14.522	916.373	692.044
229.855	14.433	915.214	690.740
230.869	14.556	914.552	690.690
231.884	14.486	913.921	689.863
232.899	14.625	913.054	689.719
233.913	14.607	912.360	689.062
234.928	14.627	911.415	688.367
235.942	14.548	911.430	687.991
236.957	14.589	910.669	687.526
237.972	14.590	910.267	687.168
238.986	14.520	909.126	685.958
240.001	14.543	908.876	685.803
241.015	14.520	908.340	685.241
242.030	14.656	907.436	685.060
243.045	14.609	907.112	684.558
244.059	14.723	906.276	684.336
245.074	14.691	905.762	683.758
246.088	14.684	905.092	683.163
247.103	14.692	904.401	682.610
248.117	14.819	904.154	682.883
249.132	14.796	903.467	682.210
250.147	14.956	902.368	681.970
251.161	14.993	901.905	681.711
252.176	14.915	901.304	680.881
253.190	14.951	900.752	680.548
254.205	14.884	900.393	679.944
255.220	14.998	899.266	679.499
256.234	15.143	898.693	679.595
257.249	15.032	898.097	678.631
258.263	14.914	897.228	677.438
259.278	15.109	896.699	677.766
260.293	15.135	896.290	677.503
261.307	15.209	895.371	677.049
262.322	15.238	894.564	676.496
263.336	15.115	894.226	675.684
264.351	15.125	893.352	675.005
265.366	15.218	892.537	674.705
266.380	15.224	891.997	674.257
267.395	15.180	891.902	673.951
268.409	15.396	890.625	673.793
269.424	15.291	890.191	672.984
270.439	15.269	889.244	672.121
271.453	15.227	888.564	671.378
272.468	15.201	888.406	671.094
273.482	15.243	887.965	670.872
274.497	15.397	886.991	670.692
275.512	15.335	886.557	670.056
276.526	15.112	886.492	669.056
277.541	15.330	885.643	669.226
278.555	15.420	885.113	669.128
279.570	15.430	884.221	668.432
280.585	15.546	883.109	667.994
281.599	15.564	882.679	667.682
282.614	15.423	882.004	666.550
283.628	15.425	881.587	666.186
284.643	15.346	881.161	665.490
285.657	15.295	880.277	664.564
286.672	15.478	879.319	664.504
287.687	15.473	878.831	664.055
288.701	15.559	878.212	663.871
289.716	15.479	878.149	663.449
290.730	15.601	876.993	662.996
291.745	15.534	876.893	662.598
292.760	15.500	876.016	661.746
293.774	15.425	875.694	661.146
294.789	15.701	874.542	661.304
295.803	15.677	873.896	660.663
296.818	15.636	873.477	660.127
297.833	15.729	872.526	659.713
298.847	15.604	871.584	658.455
299.862	15.672	871.369	658.499
300.876	15.697	870.725	658.051
301.891	15.665	870.353	657.587
302.906	15.825	869.574	657.568
303.920	15.776	869.091	656.953
304.935	15.865	868.333	656.668
305.949	15.949	867.548	656.341
306.964	15.831	867.288	655.630
307.979	15.769	867.187	655.252
308.993	15.906	866.620	655.299
310.008	15.864	865.608	654.312
311.022	15.935	864.726	653.866
312.037	15.879	864.419	653.357
313.052	15.867	863.598	652.632
314.066	15.861	863.123	652.191
315.081	15.915	862.743	652.057
316.095	15.750	862.372	651.080
317.110	15.903	861.681	651.093
318.125	15.952	860.860	650.601
319.139	16.015	860.634	650.617
320.154	15.891	860.199	649.751
321.168	15.960	859.671	649.563
322.183	15.956	858.946	648.941
323.197	16.026	858.216	648.603
324.212	15.913	857.772	647.776
325.227	16.033	857.110	647.680
326.241	15.874	856.941	646.884
327.256	15.934	856.139	646.449
328.270	15.957	855.530	646.024
329.285	16.049	854.991	645.910
330.300	16.053	854.390	645.417
331.314	15.847	853.909	644.206
332.329	16.217	853.575	645.310
333.343	16.203	853.102	644.843
334.358	16.107	852.509	643.972
335.373	16.056	852.271	643.539
336.387	16.169	851.835	643.584
337.402	16.274	851.804	643.907
338.416	16.283	850.872	643.178
339.431	16.216	850.631	642.686
340.446	16.295	850.136	642.555
341.460	16.252	850.085	642.295
342.475	16.330	849.337	641.971
343.489	16.444	848.724	641.882
344.504	16.687	848.060	642.245
345.519	16.426	848.198	641.304
346.533	16.408	847.790	640.869
347.548	16.380	847.135	640.211
348.562	16.589	846.218	640.253
349.577	16.503	845.404	639.256
350.592	16.349	845.167	638.438
351.606	16.279	844.691	637.754
352.621	16.431	843.891	637.669
353.635	16.474	842.917	637.041
354.650	16.376	842.765	636.498
355.665	16.465	842.063	636.246
356.679	16.589	841.087	635.920
357.694	16.565	840.449	635.292
358.708	16.704	839.684	635.180
359.723	16.566	839.849	634.731
360.738	16.528	838.855	633.780
361.752	16.551	837.968	633.138
362.767	16.553	837.913	633.048
363.781	16.589	837.192	632.584
364.796	16.602	837.021	632.444
365.810	16.610	836.691	632.169
366.825	16.769	836.101	632.263
367.840	16.809	835.514	631.910
368.854	16.904	834.897	631.742
369.869	16.807	834.504	631.031
370.883	16.669	833.764	629.901
371.898	16.870	833.667	630.518
372.913	16.760	833.567	629.978
373.927	16.801	832.928	629.591
374.942	16.925	832.404	629.600
375.956	16.838	832.011	628.924
376.971	16.951	831.677	629.035
377.986	16.996	830.866	628.533
379.000	17.043	830.247	628.182
380.015	16.933	829.986	627.523
381.029	17.115	829.276	627.605
382.044	17.068	828.606	626.867
383.059	17.063	827.867	626.233
384.073	17.080	827.675	626.096
385.088	17.032	826.952	625.319
386.102	17.148	826.485	625.336
387.117	17.160	825.865	624.856
388.132	17.041	825.421	624.026
389.146	17.062	824.797	623.579
390.161	17.139	824.673	623.712
391.175	17.169	823.880	623.165
392.190	17.194	823.192	622.681
393.205	17.174	822.929	622.354
394.219	17.078	822.757	621.819
395.234	17.026	822.160	621.122
396.248	17.163	821.438	621.024
397.263	17.189	821.031	620.754
398.278	17.260	820.793	620.778
399.292	17.072	820.458	619.785
400.307	17.157	820.067	619.744
401.321	17.206	819.153	619.176
402.336	17.076	819.328	618.780
403.350	17.220	818.448	618.588
404.365	17.311	818.077	618.582
405.380	17.270	817.334	617.818
406.394	17.309	816.803	617.502
407.409	17.444	816.914	618.020
408.423	17.352	816.440	617.273
409.438	17.499	816.124	617.514
410.453	17.445	815.405	616.720
411.467	17.567	814.631	616.522
412.482	17.537	814.651	616.375
413.496	17.587	814.088	616.073
414.511	17.528	814.037	615.766
415.526	17.494	813.336	615.059
416.540	17.559	812.838	614.862
417.555	17.623	812.402	614.711
418.569	17.589	812.094	614.298
419.584	17.701	811.583	614.264
420.599	17.577	811.288	613.540
421.613	107.274	1290.436	1459.290
422.628	92.550	1360.242	1459.398
