DTS Sentinel unit serial number:	SN413079Multiplexer serial number:	ORYXHardware model number:	OX4-SRSoftware version number:	ORYX F/W v4.00 Oryx Data Collector v3.7.2.0data status	okinstallation	princeton_trtdifferential loss correction	single-endedforward channel	channel 1reverse channel	N/Adate	2019/09/11time	02:24:11forward acquisition time	60.00reverse acquisition time	0.00gamma	496.2192k internal	0.2331k external	0.2331temperature offset calibration	0.9931default loss term (dB/km)	0.3790temperature slope calibration	1.0000multiplexer offset coefficient	1.0000multiplexer slope coefficient	1.0000fibre end	0.00T internal ref (°C)	29.20T ext. ref 1 (°C)	-0.29T ext. ref 2 (°C)	23.53length (m)	temperature (°C)	Stokes	anti-Stokes-747.200	-200.000	0.018	0.209
-746.185	476.941	-0.051	0.116
-745.171	72.672	0.094	-0.099
-744.156	50.078	-0.334	-0.318
-743.142	77.203	-0.178	0.190
-742.127	-87.899	0.406	0.123
-741.112	800.000	-0.042	0.144
-740.098	-4.690	-0.312	0.217
-739.083	160.252	-0.094	0.132
-738.069	45.916	-0.200	0.186
-737.054	-200.000	0.004	-0.107
-736.039	-200.000	0.009	-0.463
-735.025	-70.366	-0.117	-0.045
-734.010	-146.655	0.117	0.010
-732.996	-8.250	0.062	0.042
-731.981	-87.144	-0.401	0.123
-730.966	-19.210	-0.122	0.076
-729.952	-133.024	-0.273	0.035
-728.937	-200.000	-0.044	0.330
-727.923	231.697	-0.055	0.091
-726.908	-165.349	-0.313	0.014
-725.894	212.622	0.074	-0.117
-724.879	-200.000	0.052	0.273
-723.864	321.837	0.074	-0.142
-722.850	126.049	-0.169	0.215
-721.835	-200.000	0.035	-0.296
-720.821	9.648	0.406	-0.309
-719.806	-200.000	0.003	-0.257
-718.791	26.349	-0.132	0.111
-717.777	-109.597	-0.313	0.066
-716.762	535.946	0.098	-0.234
-715.748	-60.813	0.057	-0.024
-714.733	-67.000	0.442	0.175
-713.718	158.502	-0.144	-0.201
-712.704	103.079	-0.208	-0.245
-711.689	-39.027	0.135	-0.072
-710.675	-200.000	0.010	-0.197
-709.660	222.773	0.082	-0.133
-708.645	-39.649	0.192	-0.101
-707.631	800.000	0.043	0.122
-706.616	-37.569	0.230	0.123
-705.602	-11.464	-0.173	0.114
-704.587	800.000	-0.070	0.257
-703.572	42.643	0.151	-0.138
-702.558	-110.112	0.207	0.043
-701.543	800.000	0.097	-0.293
-700.529	-51.616	0.334	-0.157
-699.514	800.000	-0.133	-0.421
-698.499	800.000	-0.055	-0.161
-697.485	-119.859	-0.110	-0.019
-696.470	-128.299	0.239	-0.034
-695.456	-25.118	0.122	0.073
-694.441	605.761	-0.068	-0.171
-693.426	44.110	-0.331	0.305
-692.412	174.863	0.152	-0.221
-691.397	-200.000	0.023	0.168
-690.383	87.661	-0.129	0.143
-689.368	32.479	-0.117	-0.101
-688.354	-134.236	0.382	-0.047
-687.339	-136.974	0.126	0.015
-686.324	-57.227	0.165	-0.073
-685.310	-200.000	0.031	-0.270
-684.295	229.121	-0.132	-0.216
-683.281	-163.918	-0.107	0.005
-682.266	92.867	0.147	0.167
-681.251	-19.751	-0.197	0.122
-680.237	-96.372	-0.276	-0.073
-679.222	-55.041	0.098	0.044
-678.208	-108.955	-0.164	0.035
-677.193	-8.322	-0.110	0.074
-676.178	-200.000	-0.002	-0.345
-675.164	383.210	0.102	0.211
-674.149	-3.594	-0.034	0.024
-673.135	-145.360	0.076	-0.007
-672.120	-38.104	0.105	-0.056
-671.105	288.958	0.092	-0.167
-670.091	-91.401	0.155	-0.044
-669.076	61.546	0.068	0.067
-668.062	-173.656	-0.163	0.005
-667.047	-13.784	-0.144	0.094
-666.032	359.920	-0.136	0.272
-665.018	-162.800	-0.454	0.022
-664.003	800.000	-0.044	-0.156
-662.989	-141.580	-0.221	0.022
-661.974	84.218	0.052	-0.057
-660.959	10.583	-0.117	-0.089
-659.945	-200.000	-0.026	-0.138
-658.930	34.601	-0.221	-0.194
-657.916	-200.000	-0.003	-0.128
-656.901	431.795	-0.120	-0.262
-655.886	800.000	-0.078	0.242
-654.872	214.485	-0.197	-0.312
-653.857	322.557	0.118	-0.226
-652.843	-200.000	0.005	-0.117
-651.828	-200.000	-0.036	-0.233
-650.814	800.000	0.159	-0.445
-649.799	163.801	-0.129	0.183
-648.784	2.787	-0.055	0.040
-647.770	-47.039	-0.185	-0.090
-646.755	253.257	-0.092	-0.158
-645.741	64.328	0.011	-0.011
-644.726	28.299	-0.146	-0.124
-643.711	111.788	0.102	0.124
-642.697	-8.685	0.150	-0.101
-641.682	-200.000	-0.022	-0.137
-640.668	-2.960	0.106	0.074
-639.653	42.704	-0.161	0.147
-638.638	111.800	0.012	0.015
-637.624	86.215	0.259	0.285
-636.609	-200.000	0.032	-0.140
-635.595	78.987	-0.358	0.384
-634.580	-6.236	-0.208	0.142
-633.565	-15.995	-0.183	-0.117
-632.551	800.000	0.031	-0.097
-631.536	-119.517	0.107	0.019
-630.522	-2.475	0.173	-0.121
-629.507	105.686	-0.317	0.375
-628.492	-37.394	-0.225	-0.121
-627.478	-200.000	0.071	0.377
-626.463	-200.000	-0.005	-0.075
-625.449	-12.746	0.151	-0.099
-624.434	-32.966	0.202	0.112
-623.419	800.000	0.037	0.135
-622.405	162.352	0.249	0.350
-621.390	-4.406	-0.138	-0.096
-620.376	-102.073	-0.357	0.086
-619.361	19.449	0.057	0.046
-618.346	37.095	0.279	0.248
-617.332	-25.303	-0.117	-0.069
-616.317	128.171	-0.223	-0.284
-615.303	800.000	0.105	0.291
-614.288	-60.188	-0.316	-0.135
-613.273	-161.156	-0.213	-0.011
-612.259	-200.000	0.038	-0.243
-611.244	-52.671	-0.250	0.115
-610.230	-200.000	-0.040	0.299
-609.215	-37.721	-0.133	0.071
-608.201	-4.819	0.116	-0.080
-607.186	-200.000	0.007	-0.093
-606.171	-8.393	0.226	-0.152
-605.157	-31.585	0.039	0.022
-604.142	-200.000	0.010	-0.348
-603.128	-200.000	-0.002	-0.227
-602.113	-200.000	0.057	-0.314
-601.098	800.000	0.053	-0.218
-600.084	11.205	-0.047	0.036
-599.069	181.192	-0.227	0.333
-598.055	55.769	0.220	0.214
-597.040	20.554	-0.404	0.327
-596.025	-40.797	-0.206	-0.107
-595.011	591.172	0.123	0.304
-593.996	68.987	0.072	-0.074
-592.982	-194.102	0.179	0.001
-591.967	35.479	-0.123	0.108
-590.952	800.000	0.064	-0.188
-589.938	53.755	0.209	-0.201
-588.923	-52.927	-0.198	-0.091
-587.909	-107.680	0.164	0.036
-586.894	133.393	-0.111	-0.143
-585.879	800.000	0.062	0.187
-584.865	-119.162	0.417	0.073
-583.850	116.862	-0.129	-0.158
-582.836	257.353	0.051	-0.088
-581.821	-131.155	0.200	0.027
-580.806	-200.000	0.001	0.025
-579.792	800.000	-0.051	-0.158
-578.777	3.230	0.114	0.083
-577.763	-119.994	-0.176	0.030
-576.748	-200.000	-0.044	-0.416
-575.733	394.726	-0.116	0.242
-574.719	-143.253	0.487	0.047
-573.704	-49.694	0.232	0.110
-572.690	380.014	0.101	0.207
-571.675	185.827	-0.057	0.085
-570.661	-30.502	0.179	0.101
-569.646	-200.000	0.085	-0.378
-568.631	-121.298	0.036	0.006
-567.617	-27.254	0.129	0.075
-566.602	17.052	-0.093	0.073
-565.588	-141.066	-0.125	-0.013
-564.573	800.000	0.092	-0.402
-563.558	102.467	0.080	0.094
-562.544	-126.276	0.209	-0.031
-561.529	-45.007	-0.388	-0.193
-560.515	-128.612	-0.113	-0.016
-559.500	800.000	-0.119	-0.376
-558.485	90.205	-0.031	-0.035
-557.471	-200.000	-0.003	0.020
-556.456	-163.611	-0.258	-0.012
-555.442	190.978	0.063	-0.095
-554.427	253.588	-0.209	-0.356
-553.412	-3.623	0.120	0.084
-552.398	800.000	-0.119	0.457
-551.383	-167.383	-0.099	0.004
-550.369	196.284	0.137	0.208
-549.354	-200.000	-0.016	-0.246
-548.339	-200.000	0.016	-0.292
-547.325	-142.103	-0.202	-0.020
-546.310	-78.296	-0.352	0.121
-545.296	72.949	0.232	0.242
-544.281	-200.000	-0.055	0.290
-543.266	441.372	0.039	0.085
-542.252	-200.000	0.036	-0.292
-541.237	-10.967	0.098	-0.064
-540.223	-16.464	-0.084	-0.053
-539.208	30.206	-0.144	0.123
-538.193	-21.954	0.231	0.140
-537.179	351.286	0.130	-0.256
-536.164	135.718	-0.144	0.187
-535.150	381.376	-0.181	-0.370
-534.135	-152.501	-0.135	-0.010
-533.121	-200.000	-0.012	0.075
-532.106	156.806	0.129	-0.178
-531.091	113.709	-0.073	0.089
-530.077	800.000	-0.045	-0.154
-529.062	-132.030	-0.235	-0.030
-528.048	-42.467	0.109	-0.056
-527.033	487.788	0.019	0.043
-526.018	249.002	-0.182	-0.307
-525.004	12.377	0.254	0.196
-523.989	45.387	0.292	-0.269
-522.975	-26.705	-0.160	-0.093
-521.960	116.807	-0.062	0.076
-520.945	800.000	0.102	0.344
-519.931	-141.920	-0.133	0.013
-518.916	200.929	0.144	0.221
-517.902	-190.104	-0.162	-0.002
-516.887	303.740	-0.180	0.332
-515.872	-73.931	0.112	-0.041
-514.858	406.969	-0.077	-0.163
-513.843	-43.633	-0.210	0.106
-512.829	-34.827	0.174	0.095
-511.814	-90.563	-0.301	0.087
-510.799	7.153	-0.168	-0.125
-509.785	-114.656	-0.279	-0.053
-508.770	45.641	-0.138	0.127
-507.756	10.543	-0.245	-0.186
-506.741	-134.548	-0.019	0.002
-505.726	316.849	0.076	0.144
-504.712	-200.000	-0.013	-0.141
-503.697	66.613	0.145	0.147
-502.683	114.436	-0.146	-0.178
-501.668	-115.740	0.283	0.053
-500.653	-138.038	0.167	-0.019
-499.639	-34.955	-0.172	-0.094
-498.624	128.741	-0.142	-0.181
-497.610	544.107	-0.128	0.305
-496.595	298.266	-0.164	0.301
-495.581	-18.408	0.053	-0.033
-494.566	-200.000	0.007	-0.323
-493.551	800.000	0.060	0.184
-492.537	-39.495	-0.218	-0.114
-491.522	179.661	0.068	0.099
-490.508	-117.875	0.182	0.033
-489.493	-83.713	0.233	-0.074
-488.478	-176.110	0.446	0.012
-487.464	800.000	-0.080	0.230
-486.449	75.120	-0.044	-0.046
-485.435	-122.231	-0.080	0.013
-484.420	-111.707	-0.166	-0.033
-483.405	-133.550	-0.179	-0.022
-482.391	420.346	0.025	0.053
-481.376	-200.000	0.008	0.188
-480.362	143.975	-0.204	-0.270
-479.347	800.000	0.054	-0.199
-478.332	62.488	0.226	0.224
-477.318	-200.000	0.178	-0.000
-476.303	274.998	0.073	-0.128
-475.289	175.871	-0.089	-0.128
-474.274	-123.009	-0.023	0.004
-473.259	-9.343	0.165	-0.109
-472.245	-121.656	0.249	-0.041
-471.230	-141.273	-0.312	-0.032
-470.216	63.387	-0.136	0.136
-469.201	-200.000	0.022	-0.111
-468.186	18.264	-0.224	0.178
-467.172	255.700	-0.070	0.120
-466.157	151.382	-0.173	-0.235
-465.143	800.000	0.045	-0.168
-464.128	800.000	-0.034	0.127
-463.113	154.492	0.082	0.113
-462.099	-200.000	0.002	-0.014
-461.084	-53.590	0.124	-0.056
-460.070	590.570	-0.121	0.297
-459.055	-61.705	-0.170	-0.071
-458.040	-6.006	-0.093	-0.063
-457.026	-54.533	-0.291	0.131
-456.011	800.000	-0.078	0.261
-454.997	420.231	0.100	0.213
-453.982	-157.635	0.135	0.008
-452.968	-150.567	0.115	-0.009
-451.953	-200.000	-0.034	0.206
-450.938	0.325	0.093	-0.066
-449.924	466.545	-0.100	-0.222
-448.909	-55.950	0.367	-0.163
-447.895	508.749	-0.068	-0.158
-446.880	55.961	-0.151	0.146
-445.865	-82.699	-0.272	-0.088
-444.851	112.700	0.266	0.320
-443.836	-131.812	-0.229	-0.030
-442.822	154.653	-0.117	-0.160
-441.807	-47.469	0.221	-0.107
-440.792	-125.743	0.065	0.010
-439.778	-200.000	0.054	-0.297
-438.763	220.752	-0.103	0.164
-437.749	31.256	-0.114	-0.097
-436.734	-200.000	-0.014	-0.477
-435.719	321.742	0.171	0.323
-434.705	800.000	-0.009	-0.031
-433.690	-123.844	0.393	0.062
-432.676	800.000	-0.118	-0.324
-431.661	203.252	0.121	-0.185
-430.646	12.106	0.268	0.205
-429.632	-137.604	-0.260	0.029
-428.617	-2.809	-0.029	0.020
-427.603	82.163	0.411	-0.442
-426.588	-11.130	0.328	0.215
-425.573	-29.397	0.135	-0.077
-424.559	127.163	-0.109	-0.138
-423.544	155.165	-0.046	-0.063
-422.530	-36.621	0.173	-0.092
-421.515	-63.994	0.352	0.143
-420.500	-200.000	0.000	-0.155
-419.486	-154.004	0.024	-0.002
-418.471	35.158	0.165	0.143
-417.457	1.695	0.101	0.072
-416.442	800.000	0.069	-0.245
-415.428	19.053	-0.169	-0.135
-414.413	184.887	0.091	-0.134
-413.398	87.210	0.181	-0.198
-412.384	-106.441	0.139	0.031
-411.369	-72.589	-0.121	-0.044
-410.355	-200.000	-0.026	-0.172
-409.340	-170.298	-0.242	0.008
-408.325	-156.956	0.132	-0.008
-407.311	-51.451	-0.121	0.056
-406.296	55.469	0.311	-0.299
-405.282	-31.313	0.055	-0.031
-404.267	-200.000	-0.027	-0.223
-403.252	-200.000	0.024	-0.297
-402.238	22.901	0.157	-0.128
-401.223	213.700	-0.097	-0.153
-400.209	-167.376	0.216	0.009
-399.194	171.325	-0.070	-0.100
-398.179	-200.000	0.013	-0.200
-397.165	71.405	0.289	0.298
-396.150	-198.647	0.211	0.001
-395.136	-153.365	-0.208	0.014
-394.121	-44.868	0.106	0.052
-393.106	800.000	0.035	-0.146
-392.092	5.660	-0.055	-0.041
-391.077	101.262	0.078	-0.090
-390.063	782.428	-0.028	-0.077
-389.048	800.000	-0.123	-0.351
-388.033	-200.000	-0.009	0.128
-387.019	800.000	-0.148	-0.462
-386.004	477.141	-0.022	-0.049
-384.990	-47.420	-0.166	-0.080
-383.975	-168.470	-0.161	-0.006
-382.960	-94.629	0.229	-0.062
-381.946	-95.890	0.266	-0.070
-380.931	-34.328	0.223	0.121
-379.917	644.904	-0.107	0.271
-378.902	89.080	0.155	0.171
-377.888	-76.980	0.121	-0.042
-376.873	-42.980	0.045	0.023
-375.858	-73.518	0.305	-0.110
-374.844	-117.712	0.304	0.054
-373.829	393.047	0.076	-0.157
-372.815	-200.000	-0.130	0.000
-371.800	35.690	0.409	0.357
-370.785	410.118	0.136	0.286
-369.771	-130.390	-0.128	-0.017
-368.756	-200.000	-0.011	0.135
-367.742	-32.699	0.249	0.138
-366.727	-200.000	0.006	0.043
-365.712	535.694	0.010	-0.023
-364.698	-77.307	0.133	-0.046
-363.683	28.309	0.134	-0.112
-362.669	-200.000	-0.015	-0.391
-361.654	-200.000	0.019	0.110
-360.639	44.093	-0.172	0.156
-359.625	488.377	-0.070	0.159
-358.610	-39.850	0.084	0.043
-357.596	82.162	0.123	-0.132
-356.581	-16.274	0.156	-0.098
-355.566	74.148	-0.030	0.032
-354.552	603.437	0.100	0.247
-353.537	-5.552	0.110	0.075
-352.523	29.154	0.153	0.129
-351.508	-87.394	-0.124	0.037
-350.493	84.201	-0.173	-0.188
-349.479	-200.000	-0.039	0.207
-348.464	-118.742	0.321	0.056
-347.450	652.913	0.039	0.099
-346.435	-77.909	-0.345	-0.118
-345.420	-200.000	0.027	-0.374
-344.406	-200.000	0.045	0.313
-343.391	148.493	0.177	0.237
-342.377	-140.957	0.094	-0.010
-341.362	19.415	-0.193	-0.153
-340.348	800.000	-0.044	0.182
-339.333	-200.000	-0.030	-0.339
-338.318	-21.442	0.395	-0.239
-337.304	800.000	0.012	-0.038
-336.289	-200.000	-0.032	-0.382
-335.275	-97.553	-0.275	-0.071
-334.260	-114.780	-0.356	0.067
-333.245	28.174	0.055	-0.046
-332.231	601.803	-0.094	0.230
-331.216	14.603	0.108	-0.084
-330.202	-200.000	-0.041	-0.250
-329.187	-66.713	0.262	0.103
-328.172	-83.940	-0.167	-0.053
-327.158	27.877	0.211	0.176
-326.143	800.000	0.156	0.567
-325.129	-78.583	-0.177	-0.060
-324.114	-52.578	-0.273	-0.125
-323.099	384.384	-0.105	0.214
-322.085	763.132	-0.097	-0.261
-321.070	-130.861	-0.236	-0.031
-320.056	-200.000	0.002	0.459
-319.041	-200.000	-0.005	-0.150
-318.026	-64.766	0.232	-0.093
-317.012	-29.036	0.283	0.161
-315.997	399.820	-0.035	0.072
-314.983	-200.000	-0.034	0.193
-313.968	-200.000	-0.025	0.220
-312.953	-131.647	-0.321	-0.042
-311.939	301.163	-0.171	-0.313
-310.924	69.640	-0.210	0.214
-309.910	-200.000	-0.005	-0.103
-308.895	-200.000	-0.006	0.060
-307.880	2.823	-0.134	0.097
-306.866	69.648	0.122	-0.124
-305.851	-81.962	0.373	0.121
-304.837	-74.923	-0.212	0.075
-303.822	-102.729	-0.127	0.030
-302.807	-137.633	0.380	0.042
-301.793	25.602	-0.163	0.134
-300.778	-23.236	-0.292	-0.174
-299.764	-65.102	0.380	0.152
-298.749	-200.000	0.025	-0.231
-297.735	-73.843	0.323	-0.116
-296.720	-87.462	0.378	0.113
-295.705	34.829	0.127	0.110
-294.691	16.008	0.085	-0.067
-293.676	34.426	-0.286	0.246
-292.662	203.691	0.274	-0.419
-291.647	-200.000	-0.018	-0.267
-290.632	-163.556	-0.121	-0.006
-289.618	-73.020	0.098	-0.036
-288.603	-39.417	-0.229	-0.119
-287.589	-13.386	0.227	0.145
-286.574	-122.701	-0.250	0.040
-285.559	-82.945	0.161	-0.051
-284.545	120.426	-0.092	-0.113
-283.530	-200.000	-0.011	-0.050
-282.516	800.000	0.059	0.256
-281.501	-96.303	-0.165	-0.043
-280.486	26.938	0.276	0.229
-279.472	-182.398	0.237	-0.004
-278.457	-152.193	-0.386	0.028
-277.443	184.587	-0.057	-0.084
-276.428	-153.807	-0.195	-0.013
-275.413	716.639	0.065	0.169
-274.399	-200.000	0.002	-0.166
-273.384	-20.536	-0.302	-0.183
-272.370	-9.132	0.038	-0.025
-271.355	-200.000	-0.003	0.108
-270.340	618.833	0.151	0.375
-269.326	401.174	0.114	0.237
-268.311	-165.362	-0.422	-0.018
-267.297	800.000	0.076	0.226
-266.282	300.368	-0.181	0.330
-265.267	95.388	0.157	0.177
-264.253	449.417	0.078	-0.170
-263.238	-35.679	0.224	-0.120
-262.224	-6.403	0.156	0.105
-261.209	169.388	-0.068	0.095
-260.195	-105.114	-0.234	0.053
-259.180	-137.599	-0.319	0.035
-258.165	800.000	-0.035	-0.115
-257.151	-72.871	-0.401	-0.146
-256.136	-145.586	-0.200	0.018
-255.122	81.290	0.103	-0.110
-254.107	-200.000	-0.010	-0.051
-253.092	-88.521	-0.278	0.082
-252.078	-161.233	0.390	0.020
-251.063	-200.000	-0.038	0.185
-250.049	117.526	0.194	-0.235
-249.034	71.649	0.094	0.097
-248.019	-148.433	0.094	-0.008
-247.005	216.932	-0.091	0.143
-245.990	431.428	-0.102	0.218
-244.976	493.528	-0.116	0.262
-243.961	124.586	0.134	0.167
-242.946	50.669	-0.217	0.202
-241.932	238.580	0.043	-0.070
-240.917	335.054	-0.114	0.218
-239.903	-123.066	-0.136	-0.022
-238.888	-134.912	0.242	0.029
-237.873	800.000	-0.073	0.203
-236.859	-200.000	0.019	0.176
-235.844	800.000	0.065	0.222
-234.830	-38.774	-0.169	-0.088
-233.815	-6.937	-0.079	0.053
-232.800	58.819	-0.123	0.119
-231.786	-109.332	-0.158	-0.033
-230.771	-160.258	-0.229	-0.012
-229.757	-27.953	0.293	-0.168
-228.742	231.635	-0.031	-0.050
-227.727	-58.527	-0.128	-0.055
-226.713	244.442	0.053	0.088
-225.698	-200.000	-0.005	0.121
-224.684	444.983	0.047	-0.101
-223.669	95.104	-0.045	0.051
-222.655	-78.337	-0.122	-0.041
-221.640	-200.000	0.000	-0.035
-220.625	-35.520	-0.226	0.121
-219.611	787.823	-0.027	0.074
-218.596	-200.000	-0.018	0.081
-217.582	-22.668	-0.114	-0.068
-216.567	-0.517	-0.184	-0.129
-215.552	-200.000	-0.038	0.170
-214.538	123.147	0.303	0.374
-213.523	227.676	-0.057	0.092
-212.509	13.186	0.144	0.110
-211.494	123.942	-0.173	-0.215
-210.479	10.605	0.067	0.051
-209.465	58.974	-0.113	-0.110
-208.450	-141.301	-0.200	0.020
-207.436	-68.387	-0.201	0.077
-206.421	-200.000	0.012	0.099
-205.406	143.028	0.185	-0.243
-204.392	-200.000	0.011	-0.168
-203.377	-14.668	0.132	-0.083
-202.363	-200.000	-0.037	0.212
-201.348	-165.844	0.336	0.014
-200.333	-30.048	-0.359	-0.201
-199.319	12.157	-0.127	0.096
-198.304	169.039	0.043	0.060
-197.290	88.688	0.338	-0.371
-196.275	26.766	0.071	-0.059
-195.260	-132.671	-0.155	0.020
-194.246	26.485	0.083	0.069
-193.231	-200.000	-0.014	0.483
-192.217	-115.089	-0.083	-0.015
-191.202	173.048	-0.218	-0.309
-190.187	580.823	0.100	-0.242
-189.173	494.067	-0.031	0.069
-188.158	-200.000	-0.014	-0.195
-187.144	-4.199	0.328	-0.223
-186.129	120.510	0.041	0.051
-185.114	-149.296	-0.061	-0.005
-184.100	800.000	0.124	-0.410
-183.085	36.965	-0.187	-0.163
-182.071	64.222	-0.088	0.087
-181.056	-14.276	0.284	0.180
-180.042	150.593	0.334	0.447
-179.027	-50.253	0.188	0.088
-178.012	763.659	0.042	-0.113
-176.998	-86.727	0.309	-0.093
-175.983	484.308	0.039	0.088
-174.969	-95.387	-0.285	0.075
-173.954	-187.283	0.110	0.001
-172.939	16.308	-0.066	0.051
-171.925	-78.983	0.170	0.057
-170.910	35.275	-0.063	-0.055
-169.896	-24.439	0.079	-0.046
-168.881	-49.551	-0.296	-0.139
-167.866	-170.151	0.128	-0.004
-166.852	-200.000	0.011	-0.284
-165.837	312.808	0.064	0.118
-164.823	-200.000	-0.009	-0.514
-163.808	109.841	-0.034	-0.040
-162.793	-194.876	-0.291	0.002
-161.779	22.076	0.191	0.153
-160.764	-175.043	-0.027	0.001
-159.750	-69.555	-0.149	0.056
-158.735	185.948	-0.192	0.281
-157.720	-200.000	0.045	0.270
-156.706	-150.527	0.045	0.003
-155.691	-114.682	-0.371	-0.070
-154.677	29.063	-0.165	0.138
-153.662	-200.000	0.009	0.076
-152.647	800.000	0.050	-0.201
-151.633	-200.000	0.045	-0.218
-150.618	38.372	-0.259	-0.227
-149.604	-75.938	-0.136	-0.047
-148.589	71.980	-0.146	-0.149
-147.574	-25.154	0.101	0.059
-146.560	800.000	0.022	-0.060
-145.545	-200.000	0.077	0.347
-144.531	-30.442	0.125	0.069
-143.516	800.000	0.062	0.246
-142.502	12.210	0.337	0.255
-141.487	46.696	-0.412	-0.376
-140.472	-84.840	-0.223	-0.069
-139.458	-174.135	0.331	0.009
-138.443	-12.147	0.220	0.141
-137.429	800.000	0.043	-0.169
-136.414	-29.609	0.386	0.217
-135.399	-20.810	0.113	-0.068
-134.385	-19.662	0.073	-0.044
-133.370	-25.085	0.163	-0.095
-132.356	353.621	-0.051	-0.100
-131.341	-68.424	0.441	-0.168
-130.326	-167.152	-0.190	-0.008
-129.312	800.000	0.079	0.235
-128.297	725.130	-0.082	0.215
-127.283	-200.000	0.031	-0.447
-126.268	37.029	0.079	0.068
-125.253	-82.624	-0.235	0.075
-124.239	-200.000	0.045	0.204
-123.224	-155.210	0.260	-0.017
-122.210	-76.154	0.209	-0.072
-121.195	800.000	0.090	-0.258
-120.180	800.000	-0.037	0.141
-119.166	-130.115	-0.266	-0.036
-118.151	-45.949	-0.140	-0.068
-117.137	581.955	0.063	-0.152
-116.122	598.098	0.167	-0.407
-115.107	-110.308	-0.245	-0.050
-114.093	449.176	0.118	0.255
-113.078	16.004	-0.287	-0.222
-112.064	-16.260	-0.075	0.047
-111.049	-200.000	0.008	0.342
-110.034	-88.036	-0.170	0.050
-109.020	-10.617	-0.062	-0.040
-108.005	-200.000	0.005	-0.203
-106.991	-52.497	0.265	0.120
-105.976	-2.328	-0.112	-0.077
-104.962	-57.090	-0.336	-0.145
-103.947	800.000	-0.020	0.085
-102.932	-82.148	-0.400	0.128
-101.918	429.053	0.021	0.045
-100.903	-88.223	0.248	0.073
-99.889	-95.969	-0.264	0.069
-98.874	-200.000	-0.056	0.285
-97.859	-200.000	0.032	0.215
-96.845	740.795	0.099	-0.262
-95.830	-134.307	0.183	0.022
-94.816	800.000	-0.053	-0.161
-93.801	90.721	-0.144	0.159
-92.786	-78.204	0.243	-0.082
-91.772	-75.048	-0.434	-0.152
-90.757	800.000	-0.116	-0.315
-89.743	-113.803	0.185	0.035
-88.728	12.746	0.439	0.333
-87.713	364.471	0.187	-0.370
-86.699	348.278	0.169	-0.326
-85.684	58.174	-0.227	-0.218
-84.670	28.905	0.110	-0.091
-83.655	-200.000	-0.019	0.173
-82.640	249.006	-0.079	-0.131
-81.626	-71.034	0.114	0.042
-80.611	483.022	-0.058	0.129
-79.597	43.924	0.008	0.007
-78.582	5.763	-0.175	-0.127
-77.567	152.179	-0.025	0.034
-76.553	-163.550	0.281	0.013
-75.538	-200.000	-0.033	-0.238
-74.524	-200.000	0.110	-0.528
-73.509	-200.000	-0.011	-0.084
-72.494	492.931	-0.103	0.231
-71.480	-49.872	-0.232	-0.108
-70.465	-35.405	0.341	0.182
-69.451	800.000	-0.166	0.455
-68.436	-200.000	0.001	-0.143
-67.422	54.982	-0.171	0.162
-66.407	-200.000	-0.021	-0.353
-65.392	-200.000	0.061	-0.314
-64.378	-168.542	0.128	-0.005
-63.363	-131.525	0.085	0.011
-62.349	319.506	-0.217	0.403
-61.334	114.456	-0.856	-1.022
-60.319	32.058	0.568	0.480
-59.305	800.000	-0.380	-1.075
-58.290	173.556	0.950	1.343
-57.276	800.000	0.516	1.423
-56.261	-200.000	107.043	624.618
-55.246	516.667	1514.432	3467.590
-54.232	175.867	2705.444	3845.077
-53.217	111.469	2163.926	2555.828
-52.203	41.311	1600.271	1417.287
-51.188	32.744	1336.543	1132.498
-50.173	29.620	1295.479	1079.439
-49.159	54.360	1350.007	1273.077
-48.144	54.335	1365.194	1287.196
-47.130	32.864	1319.610	1118.685
-46.115	29.389	1302.127	1083.450
-45.100	29.198	1297.007	1078.028
-44.086	29.114	1295.025	1075.848
-43.071	29.006	1292.446	1073.033
-42.057	29.002	1290.124	1071.041
-41.042	29.012	1288.591	1069.783
-40.027	28.980	1287.364	1068.538
-39.013	29.085	1285.204	1067.310
-37.998	29.054	1283.340	1065.536
-36.984	29.173	1281.405	1064.576
-35.969	29.084	1279.822	1062.709
-34.954	29.209	1277.932	1061.817
-33.940	29.172	1277.133	1060.894
-32.925	29.133	1275.705	1059.445
-31.911	29.287	1273.714	1058.634
-30.896	29.191	1272.927	1057.384
-29.881	29.355	1271.025	1056.704
-28.867	29.309	1269.351	1055.004
-27.852	29.271	1267.883	1053.529
-26.838	29.421	1266.565	1053.250
-25.823	29.267	1265.897	1051.772
-24.809	29.349	1264.223	1050.804
-23.794	29.323	1262.901	1049.518
-22.779	29.239	1262.044	1048.288
-21.765	29.209	1260.642	1046.909
-20.750	29.348	1259.243	1046.494
-19.736	29.229	1257.894	1044.655
-18.721	29.153	1256.362	1042.911
-17.706	29.169	1255.412	1042.175
-16.692	29.245	1254.305	1041.641
-15.677	29.189	1253.346	1040.489
-14.663	29.175	1251.911	1039.178
-13.648	29.217	1251.170	1038.759
-12.633	29.223	1250.020	1037.795
-11.619	29.181	1249.223	1036.857
-10.604	29.121	1248.937	1036.241
-9.590	29.133	1247.947	1035.445
-8.575	29.174	1246.739	1034.633
-7.560	29.180	1245.846	1033.886
-6.546	29.110	1245.244	1032.949
-5.531	29.159	1244.220	1032.333
-4.517	29.178	1243.294	1031.633
-3.502	29.038	1242.841	1030.430
-2.487	29.112	1241.632	1029.804
-1.473	29.113	1237.342	1026.208
-0.458	27.847	1222.679	1007.028
0.556	22.150	1205.755	970.162
1.571	18.830	1211.742	956.443
2.586	18.214	1226.620	964.624
3.600	18.039	1216.030	955.232
4.615	13.193	1143.924	872.968
5.629	4.058	1069.859	771.063
6.644	0.048	1050.050	737.096
7.659	-0.387	1047.928	733.414
8.673	-0.431	1045.978	731.766
9.688	-0.399	1044.848	731.069
10.702	-0.054	1042.985	731.380
11.717	5.653	1051.375	765.134
12.731	14.901	1064.403	820.094
13.746	19.465	1070.105	846.864
14.761	20.313	1071.115	851.755
15.775	20.327	1070.568	851.312
16.790	20.135	1069.931	849.787
17.804	20.044	1069.197	848.684
18.819	20.258	1068.594	849.180
19.834	20.365	1067.896	849.074
20.848	20.300	1068.002	848.762
21.863	20.356	1067.078	848.226
22.877	20.243	1066.521	847.157
23.892	20.225	1065.872	846.481
24.907	20.160	1065.696	845.945
25.921	20.191	1064.109	844.762
26.936	20.191	1062.580	843.477
27.950	20.243	1061.072	842.456
28.965	20.105	1059.063	840.116
29.980	20.075	1057.623	838.758
30.994	20.398	1056.632	839.456
32.009	20.291	1055.552	838.007
33.023	20.043	1054.431	835.850
34.038	20.304	1053.294	836.129
35.053	20.273	1052.920	835.608
36.067	20.399	1051.951	835.371
37.082	20.395	1051.043	834.557
38.096	20.461	1050.775	834.589
39.111	20.491	1049.916	833.976
40.126	20.515	1048.018	832.511
41.140	20.211	1046.185	829.527
42.155	19.915	1044.739	826.892
43.169	20.034	1044.097	826.879
44.184	19.984	1043.214	825.868
45.199	19.858	1042.430	824.575
46.213	19.873	1040.820	823.302
47.228	19.995	1040.129	823.262
48.242	20.165	1039.192	823.255
49.257	20.136	1038.769	822.708
50.271	20.374	1037.508	822.766
51.286	20.362	1036.729	822.016
52.301	20.309	1035.684	820.863
53.315	20.351	1034.718	820.227
54.330	20.337	1033.612	819.213
55.344	20.240	1033.567	818.646
56.359	20.354	1032.099	817.948
57.374	20.098	1031.099	815.875
58.388	20.034	1030.735	815.215
59.403	20.035	1029.858	814.453
60.417	19.909	1028.990	813.103
61.432	19.963	1028.103	812.583
62.447	20.203	1027.094	812.842
63.461	20.182	1026.382	812.106
64.476	20.159	1025.929	811.567
65.490	20.003	1024.954	809.994
66.505	20.114	1024.243	809.882
67.520	20.173	1023.397	809.415
68.534	19.893	1022.281	807.158
69.549	19.637	1021.274	805.097
70.563	19.763	1019.989	804.599
71.578	19.716	1019.975	804.300
72.593	19.563	1018.930	802.693
73.607	19.637	1018.062	802.281
74.622	19.957	1017.821	803.507
75.636	19.812	1017.387	802.418
76.651	19.958	1015.667	801.668
77.666	19.806	1015.449	800.721
78.680	19.759	1014.974	800.057
79.695	19.873	1014.125	799.843
80.709	19.997	1012.958	799.425
81.724	19.839	1012.743	798.454
82.739	20.032	1011.695	798.447
83.753	20.286	1011.136	799.108
84.768	20.487	1010.403	799.382
85.782	20.776	1009.012	799.539
86.797	20.482	1008.580	797.774
87.812	20.283	1007.412	795.870
88.826	20.544	1006.187	796.027
89.841	20.532	1005.539	795.385
90.855	20.699	1004.462	795.229
91.870	20.519	1003.647	793.690
92.884	20.427	1002.513	792.304
93.899	20.406	1001.580	791.403
94.914	20.439	1001.137	791.132
95.928	20.366	999.709	789.601
96.943	20.152	998.081	787.272
97.957	19.995	996.945	785.593
98.972	19.688	995.968	783.363
99.987	20.022	995.477	784.421
101.001	20.256	994.712	784.811
102.016	20.255	993.932	784.118
103.030	20.141	992.908	782.727
104.045	20.033	991.658	781.188
105.060	19.838	990.874	779.622
106.074	20.029	990.427	780.062
107.089	20.366	990.358	781.455
108.103	20.285	988.612	779.642
109.118	20.095	987.268	777.663
110.133	20.074	986.638	777.002
111.147	19.931	985.038	775.033
112.162	19.766	984.020	773.428
113.176	20.001	983.402	773.922
114.191	19.937	982.591	772.930
115.206	19.618	981.503	770.583
116.220	19.730	980.541	770.260
117.235	19.848	979.971	770.265
118.249	19.898	978.130	768.974
119.264	19.690	978.122	767.977
120.279	19.803	977.008	767.534
121.293	19.862	976.145	767.051
122.308	20.074	975.309	767.266
123.322	19.802	974.728	765.538
124.337	19.762	972.881	763.840
125.352	19.238	971.415	760.313
126.366	19.293	970.192	759.528
127.381	19.912	970.513	762.442
128.395	20.182	969.928	763.103
129.410	20.383	968.982	763.175
130.424	20.299	967.621	761.667
131.439	20.233	966.845	760.696
132.454	20.201	965.948	759.786
133.468	20.186	965.340	759.173
134.483	20.329	964.440	759.026
135.497	20.539	963.436	759.084
136.512	20.665	962.505	758.832
137.527	20.638	961.279	757.682
138.541	20.519	961.152	756.995
139.556	20.500	960.272	756.151
140.570	20.644	959.384	756.014
141.585	20.543	958.109	754.502
142.600	20.378	957.583	753.305
143.614	20.695	956.628	753.861
144.629	20.803	955.767	753.585
145.643	20.563	954.807	751.723
146.658	20.453	953.382	750.058
147.673	20.442	952.120	748.951
148.687	20.355	951.017	747.644
149.702	20.329	950.245	746.862
150.716	20.268	949.373	745.844
151.731	20.390	948.567	745.670
152.746	20.759	948.319	746.995
153.760	20.737	947.594	746.264
154.775	20.647	947.043	745.375
155.789	20.767	945.994	744.998
156.804	20.532	945.448	743.495
157.819	20.691	944.599	743.444
158.833	20.855	943.727	743.392
159.848	20.828	942.818	742.496
160.862	20.580	942.129	740.831
161.877	20.729	940.917	740.444
162.892	20.775	939.946	739.812
163.906	20.628	938.896	738.293
164.921	20.715	938.191	738.045
165.935	20.650	937.612	737.249
166.950	20.774	936.468	736.806
167.964	20.693	935.362	735.528
168.979	20.506	934.222	733.780
169.994	20.433	933.441	732.792
171.008	20.682	933.150	733.551
172.023	20.776	931.972	732.954
173.037	20.487	930.970	730.888
174.052	20.353	930.204	729.658
175.067	20.522	929.618	729.842
176.081	20.696	928.720	729.803
177.096	20.489	928.319	728.555
178.110	20.240	927.228	726.593
179.125	20.071	926.350	725.134
180.140	20.078	926.421	725.154
181.154	20.254	925.864	725.388
182.169	20.467	925.449	725.890
183.183	20.767	924.812	726.577
184.198	20.504	924.437	725.122
185.213	20.626	923.670	724.962
186.227	20.745	922.773	724.691
187.242	20.649	921.865	723.514
188.256	20.658	921.410	723.131
189.271	20.847	920.538	723.169
190.286	20.469	919.186	720.475
191.300	19.873	918.284	717.233
192.315	19.217	916.531	713.089
193.329	19.269	916.043	712.861
194.344	20.250	916.249	717.013
195.359	20.582	916.482	718.503
196.373	20.674	915.930	718.388
197.388	20.475	915.221	716.948
198.402	20.627	914.167	716.684
199.417	20.563	913.731	716.016
200.432	20.243	913.131	714.166
201.446	20.039	912.370	712.666
202.461	20.154	911.715	712.565
203.475	19.225	909.914	707.283
204.490	18.769	908.047	703.902
205.504	19.559	908.727	707.604
206.519	20.294	908.221	710.155
207.534	20.286	908.163	710.014
208.548	20.611	908.187	711.300
209.563	20.489	906.831	709.676
210.577	20.409	906.405	708.954
211.592	20.850	905.814	710.230
212.607	20.718	905.291	709.217
213.621	20.753	904.519	708.691
214.636	20.785	903.702	708.118
215.650	20.634	903.044	706.927
216.665	20.808	902.544	707.183
217.680	20.699	901.748	706.054
218.694	20.237	900.268	702.960
219.709	20.246	899.220	702.116
220.723	20.531	898.912	702.965
221.738	20.604	898.503	702.876
222.753	20.626	898.016	702.524
223.767	20.664	897.467	702.187
224.782	20.831	897.165	702.560
225.796	20.771	896.330	701.604
226.811	20.085	895.351	698.014
227.826	19.580	893.693	694.629
228.840	19.679	893.198	694.580
229.855	19.799	892.863	694.741
230.869	19.537	891.563	692.617
231.884	19.882	891.953	694.243
232.899	20.514	891.993	696.746
233.913	20.648	890.801	696.290
234.928	20.417	890.384	694.977
235.942	20.521	889.734	694.825
236.957	20.167	888.549	692.425
237.972	20.246	888.412	692.574
238.986	20.249	888.092	692.273
240.001	20.480	886.773	692.104
241.015	20.414	886.810	691.807
242.030	20.461	886.024	691.322
243.045	20.535	885.850	691.418
244.059	20.703	885.305	691.599
245.074	20.436	884.279	689.676
246.088	20.249	883.047	687.913
247.103	20.493	882.793	688.620
248.117	20.946	882.872	690.419
249.132	21.446	881.670	691.393
250.147	21.261	881.386	690.380
251.161	21.358	880.928	690.341
252.176	21.333	879.964	689.426
253.190	21.518	879.674	689.869
254.205	21.569	879.009	689.486
255.220	21.532	878.415	688.814
256.234	21.400	877.751	687.714
257.249	21.223	876.984	686.357
258.263	21.398	876.160	686.337
259.278	21.448	875.898	686.267
260.293	21.378	875.049	685.268
261.307	21.375	874.149	684.489
262.322	21.177	873.535	683.174
263.336	20.344	871.230	678.060
264.351	19.273	869.637	672.582
265.366	19.500	869.470	673.277
266.380	20.433	870.116	677.357
267.395	21.164	869.298	679.506
268.409	20.965	869.031	678.466
269.424	21.141	868.618	678.767
270.439	21.275	867.720	678.526
271.453	21.374	867.141	678.398
272.468	21.496	866.995	678.694
273.482	21.540	866.669	678.552
274.497	21.065	865.074	675.404
275.512	20.837	864.101	673.704
276.526	21.131	864.610	675.178
277.541	21.229	864.195	675.172
278.555	21.025	863.157	673.515
279.570	20.877	862.015	671.995
280.585	21.144	861.307	672.409
281.599	21.082	860.515	671.494
282.614	20.468	859.224	668.068
283.628	20.451	859.228	667.946
284.643	20.892	858.821	669.266
285.657	20.535	857.199	666.571
286.672	20.226	856.761	664.990
287.687	20.867	856.497	667.181
288.701	20.922	855.839	666.818
289.716	20.564	854.962	664.709
290.730	20.508	854.435	664.025
291.745	20.082	853.778	661.830
292.760	20.455	853.644	663.091
293.774	21.517	853.815	667.219
294.789	21.677	853.744	667.715
295.803	21.876	852.760	667.644
296.818	21.839	852.322	667.098
297.833	21.348	851.050	664.178
298.847	21.282	850.136	663.158
299.862	21.522	850.070	663.956
300.876	21.765	849.792	664.604
301.891	21.604	849.449	663.667
302.906	21.264	848.030	661.211
303.920	21.349	847.645	661.174
304.935	21.698	847.572	662.378
305.949	21.654	847.146	661.819
306.964	21.466	845.961	660.125
307.979	21.619	845.520	660.300
308.993	21.836	845.765	661.252
310.008	21.874	844.715	660.517
311.022	21.554	843.960	658.665
312.037	21.411	843.581	657.771
313.052	21.392	842.125	656.506
314.066	20.557	840.798	652.283
315.081	20.074	840.874	650.471
316.095	20.896	841.035	653.623
317.110	21.472	840.680	655.449
318.125	20.593	839.264	650.996
319.139	19.637	837.559	646.044
320.154	19.742	837.403	646.260
321.168	20.624	837.445	649.530
322.183	21.294	837.771	652.227
323.197	21.402	837.248	652.164
324.212	21.546	836.907	652.377
325.227	21.608	835.984	651.831
326.241	21.451	835.259	650.622
327.256	21.426	834.989	650.264
328.270	21.313	834.524	649.423
329.285	21.240	833.586	648.365
330.300	21.031	832.659	646.814
331.314	21.210	832.471	647.272
332.329	21.543	832.482	648.457
333.343	21.694	831.570	648.250
334.358	21.668	831.424	647.983
335.373	21.720	831.271	647.996
336.387	22.048	831.187	649.086
337.402	22.061	830.678	648.681
338.416	21.928	830.125	647.700
339.431	22.012	829.674	647.601
340.446	22.253	829.623	648.392
341.460	22.007	828.917	646.877
342.475	21.937	828.396	646.154
343.489	22.085	827.788	646.167
344.504	22.149	827.817	646.368
345.519	22.462	827.281	647.042
346.533	22.404	827.052	646.594
347.548	22.504	826.607	646.555
348.562	22.277	825.982	645.178
349.577	22.336	825.348	644.841
350.592	22.394	824.582	644.400
351.606	22.460	823.819	643.987
352.621	22.361	822.738	642.723
353.635	22.300	822.054	641.909
354.650	21.510	820.351	637.644
355.665	20.700	819.150	633.706
356.679	20.885	819.309	634.446
357.694	21.429	818.839	636.005
358.708	21.393	818.036	635.194
359.723	21.858	817.834	636.670
360.738	22.061	817.798	637.323
361.752	22.216	816.946	637.166
362.767	22.363	816.788	637.516
363.781	22.582	816.957	638.384
364.796	22.718	816.110	638.159
365.810	22.675	815.800	637.705
366.825	22.811	815.324	637.769
367.840	22.451	814.411	635.698
368.854	22.072	813.608	633.648
369.869	22.099	813.342	633.482
370.883	22.133	812.824	633.146
371.898	21.832	812.771	631.962
372.913	22.076	812.259	632.389
373.927	22.244	811.325	632.210
374.942	22.335	811.282	632.446
375.956	22.489	810.867	632.620
376.971	22.602	810.125	632.392
377.986	22.654	809.766	632.241
379.000	22.787	809.002	632.066
380.015	22.449	808.886	630.708
381.029	22.526	808.249	630.431
382.044	22.711	807.859	630.734
383.059	22.697	807.589	630.415
384.073	22.757	806.697	629.878
385.088	22.813	805.981	629.464
386.102	22.432	805.545	627.707
387.117	22.414	804.656	626.897
388.132	22.126	804.068	625.358
389.146	21.768	802.572	622.865
390.161	22.158	802.586	624.208
391.175	22.239	802.960	624.731
392.190	22.274	801.372	623.564
393.205	20.837	799.286	616.802
394.219	19.709	797.695	611.532
395.234	19.544	797.831	610.998
396.248	21.190	799.173	617.801
397.263	22.566	799.739	623.051
398.278	22.362	799.597	622.166
399.292	22.267	798.439	620.873
400.307	22.180	798.571	620.615
401.321	22.313	797.821	620.446
402.336	22.541	798.039	621.362
403.350	22.934	797.958	622.631
404.365	23.183	797.796	623.326
405.380	23.407	797.390	623.742
406.394	23.634	796.312	623.642
407.409	23.455	796.096	622.787
408.423	23.374	795.682	622.125
409.438	23.329	795.533	621.797
410.453	23.398	795.118	621.660
411.467	23.359	794.899	621.295
412.482	23.254	794.259	620.374
413.496	23.321	794.140	620.458
414.511	23.382	793.326	619.983
415.526	23.364	793.032	619.633
416.540	23.391	792.016	618.880
417.555	23.060	791.428	617.212
418.569	23.106	791.159	617.107
419.584	23.106	790.183	616.292
420.599	22.923	789.791	615.294
421.613	158.233	1365.057	1798.839
422.628	137.032	1448.865	1798.914
