DTS Sentinel unit serial number:	SN413079Multiplexer serial number:	ORYXHardware model number:	OX4-SRSoftware version number:	ORYX F/W v4.00 Oryx Data Collector v3.7.2.0data status	okinstallation	princeton_trtdifferential loss correction	single-endedforward channel	channel 1reverse channel	N/Adate	2019/09/13time	12:38:35forward acquisition time	60.00reverse acquisition time	0.00gamma	496.2192k internal	0.2305k external	0.2305temperature offset calibration	1.0167default loss term (dB/km)	0.3790temperature slope calibration	1.0000multiplexer offset coefficient	1.0000multiplexer slope coefficient	1.0000fibre end	0.00T internal ref (°C)	34.58T ext. ref 1 (°C)	4.61T ext. ref 2 (°C)	31.55length (m)	temperature (°C)	Stokes	anti-Stokes-747.200	34.384	-0.098	-0.087
-746.185	-112.156	0.156	-0.032
-745.171	-110.999	0.100	0.021
-744.156	-20.480	-0.449	0.281
-743.142	491.742	0.054	0.126
-742.127	6.947	-0.243	0.184
-741.112	-125.570	0.117	-0.018
-740.098	228.166	-0.151	0.250
-739.083	-10.573	0.232	-0.156
-738.069	12.174	-0.393	-0.308
-737.054	703.335	-0.133	0.357
-736.039	68.980	-0.086	-0.090
-735.025	104.213	-0.180	0.216
-734.010	-104.439	0.304	0.072
-732.996	-143.303	0.067	-0.007
-731.981	5.690	-0.145	-0.109
-730.966	-153.153	-0.477	0.034
-729.952	-134.053	-0.201	0.025
-728.937	-34.977	-0.196	-0.109
-727.923	451.326	-0.051	-0.115
-726.908	-79.898	-0.260	-0.089
-725.894	-112.496	0.313	0.064
-724.879	92.983	-0.284	-0.327
-723.864	69.730	0.075	-0.079
-722.850	-97.511	0.229	0.060
-721.835	17.439	-0.134	-0.108
-720.821	-90.322	-0.457	0.135
-719.806	-200.000	-0.018	-0.124
-718.791	-200.000	0.047	0.408
-717.777	800.000	0.058	-0.239
-716.762	-200.000	0.010	-0.244
-715.748	-200.000	-0.046	-0.210
-714.733	49.253	-0.070	0.067
-713.718	307.423	0.119	0.226
-712.704	121.755	0.124	-0.157
-711.689	-111.541	0.276	0.057
-710.675	224.560	-0.217	-0.356
-709.660	-200.000	-0.008	-0.226
-708.645	74.609	0.035	0.037
-707.631	-120.916	-0.210	-0.036
-706.616	183.911	0.134	0.202
-705.602	-70.973	0.202	-0.077
-704.587	-109.421	-0.223	0.048
-703.572	139.851	-0.141	-0.188
-702.558	-200.000	0.007	0.035
-701.543	-20.040	-0.251	0.157
-700.529	64.518	0.237	-0.242
-699.514	-97.047	0.324	0.086
-698.499	453.753	0.117	-0.264
-697.485	-200.000	-0.020	0.100
-696.470	-56.863	0.200	0.090
-695.456	-86.620	-0.180	0.056
-694.441	800.000	0.014	-0.056
-693.426	-77.143	0.369	-0.131
-692.412	-200.000	0.041	0.233
-691.397	-53.060	-0.257	-0.120
-690.383	800.000	-0.081	0.359
-689.368	-44.611	-0.200	0.101
-688.354	771.246	0.036	-0.100
-687.339	-148.652	-0.159	0.013
-686.324	-200.000	-0.014	0.249
-685.310	-75.315	0.108	-0.039
-684.295	6.493	0.139	-0.105
-683.281	315.780	0.043	0.082
-682.266	-200.000	0.020	0.182
-681.251	155.279	-0.111	0.154
-680.237	-200.000	-0.010	-0.241
-679.222	-200.000	0.000	0.035
-678.208	-200.000	0.021	-0.417
-677.193	316.400	-0.149	-0.285
-676.178	309.412	0.178	0.338
-675.164	-106.391	0.323	0.073
-674.149	800.000	-0.087	0.257
-673.135	-200.000	-0.025	0.192
-672.120	800.000	-0.140	-0.447
-671.105	-200.000	0.003	-0.080
-670.091	-200.000	0.084	-0.410
-669.076	-200.000	-0.033	-0.196
-668.062	800.000	0.068	0.240
-667.047	-3.153	-0.148	-0.105
-666.032	-106.431	0.317	-0.072
-665.018	-55.084	-0.117	0.053
-664.003	26.638	-0.307	0.260
-662.989	403.013	0.079	0.169
-661.974	-200.000	-0.029	-0.361
-660.959	25.764	-0.219	0.185
-659.945	251.416	0.132	0.228
-658.930	800.000	-0.112	-0.487
-657.916	-20.391	-0.146	0.091
-656.901	123.427	0.125	0.159
-655.886	-200.000	0.044	-0.278
-654.872	-89.139	0.362	-0.108
-653.857	-36.177	-0.129	-0.071
-652.843	573.173	0.053	0.131
-651.828	58.223	0.187	-0.186
-650.814	-200.000	0.015	-0.220
-649.799	-43.868	0.128	-0.065
-648.784	-200.000	-0.021	0.153
-647.770	59.772	-0.214	0.214
-646.755	-200.000	0.039	-0.222
-645.741	-87.108	-0.012	0.004
-644.726	-168.720	-0.095	0.004
-643.711	468.265	0.111	0.252
-642.697	800.000	-0.063	-0.202
-641.682	-200.000	0.003	0.029
-640.668	800.000	0.068	-0.225
-639.653	14.422	0.059	0.047
-638.638	-1.969	0.081	-0.058
-637.624	126.560	0.173	0.221
-636.609	-200.000	-0.034	0.153
-635.595	-120.005	0.268	-0.047
-634.580	-200.000	-0.022	-0.100
-633.565	-74.255	0.169	-0.062
-632.551	0.380	-0.159	0.115
-631.536	3.494	-0.071	-0.053
-630.522	98.632	0.094	-0.110
-629.507	-152.581	-0.197	-0.014
-628.492	-61.450	0.185	-0.079
-627.478	-1.985	0.093	0.066
-626.463	-104.617	-0.225	-0.052
-625.449	67.381	-0.010	0.011
-624.434	-200.000	-0.015	0.147
-623.419	-110.151	0.284	-0.060
-622.405	-200.000	-0.003	-0.311
-621.390	23.083	0.184	-0.153
-620.376	70.558	-0.191	-0.200
-619.361	163.132	0.158	0.224
-618.346	267.680	-0.180	0.319
-617.332	-84.217	-0.310	-0.100
-616.317	74.644	0.169	-0.180
-615.303	-195.747	-0.180	0.001
-614.288	76.018	0.242	-0.259
-613.273	51.361	-0.315	-0.303
-612.259	-107.934	-0.155	0.034
-611.244	-200.000	0.014	0.196
-610.230	-38.904	0.073	-0.039
-609.215	297.075	-0.119	-0.222
-608.201	-200.000	0.068	-0.305
-607.186	-85.263	-0.241	-0.076
-606.171	-200.000	0.051	0.237
-605.157	42.172	-0.134	0.123
-604.142	-200.000	-0.016	-0.127
-603.128	-200.000	-0.025	0.116
-602.113	-85.343	-0.090	-0.029
-601.098	43.714	0.201	-0.186
-600.084	-78.036	-0.239	-0.083
-599.069	205.511	-0.249	-0.391
-598.055	-88.739	-0.192	0.058
-597.040	-200.000	-0.009	-0.073
-596.025	-200.000	0.019	0.139
-595.011	-200.000	-0.089	-0.427
-593.996	-120.182	-0.103	-0.018
-592.982	-3.645	0.080	-0.056
-591.967	-71.191	-0.041	0.016
-590.952	-113.361	0.146	-0.029
-589.938	-200.000	-0.031	0.254
-588.923	106.250	-0.106	0.128
-587.909	31.127	0.249	0.216
-586.894	326.525	0.009	-0.018
-585.879	545.248	-0.067	-0.162
-584.865	-146.862	0.180	0.016
-583.850	-128.731	0.196	0.028
-582.836	-200.000	-0.021	0.112
-581.821	83.584	-0.190	0.210
-580.806	-81.798	0.104	0.034
-579.792	-200.000	-0.009	-0.056
-578.777	159.524	0.110	-0.155
-577.763	224.168	-0.068	-0.111
-576.748	407.622	-0.037	-0.079
-575.733	-200.000	0.005	0.080
-574.719	800.000	0.044	0.143
-573.704	88.529	-0.101	-0.114
-572.690	-102.442	0.216	-0.052
-571.675	89.807	0.040	0.045
-570.661	-192.234	-0.142	-0.001
-569.646	444.308	0.204	0.452
-568.631	-83.090	-0.094	-0.031
-567.617	-183.048	-0.344	0.006
-566.602	-50.607	0.176	0.084
-565.588	-135.178	0.272	-0.033
-564.573	-97.148	0.231	-0.061
-563.558	25.592	-0.053	-0.045
-562.544	800.000	0.126	-0.423
-561.529	-69.557	0.170	-0.066
-560.515	-119.298	0.309	-0.054
-559.500	-80.416	0.246	0.083
-558.485	-200.000	0.039	0.305
-557.471	7.205	-0.187	-0.141
-556.456	669.733	0.129	-0.338
-555.442	-200.000	0.012	0.354
-554.427	800.000	0.072	-0.224
-553.412	-15.754	0.270	-0.174
-552.398	58.368	0.028	0.028
-551.383	-38.176	0.319	0.171
-550.369	800.000	0.107	0.365
-549.354	-26.153	-0.033	0.019
-548.339	-106.065	-0.299	0.068
-547.325	-112.072	0.498	0.101
-546.310	154.145	0.041	-0.057
-545.296	231.499	0.065	-0.108
-544.281	-83.899	0.210	0.068
-543.266	16.351	-0.084	0.067
-542.252	199.590	-0.087	0.134
-541.237	-200.000	0.041	0.368
-540.223	109.095	0.154	0.186
-539.208	-200.000	0.030	-0.175
-538.193	-200.000	-0.005	-0.098
-537.179	-200.000	0.026	-0.195
-536.164	-200.000	-0.024	-0.272
-535.150	0.671	0.143	-0.103
-534.135	37.763	0.102	0.091
-533.121	-29.271	0.276	0.159
-532.106	-16.611	-0.062	-0.040
-531.091	-120.452	-0.312	0.054
-530.077	50.124	-0.264	0.252
-529.062	-200.000	-0.029	0.134
-528.048	451.775	0.105	-0.234
-527.033	-36.849	0.062	-0.034
-526.018	233.293	0.144	-0.239
-525.004	-89.215	0.211	0.063
-523.989	67.148	0.053	0.055
-522.975	302.237	0.045	0.084
-521.960	-200.000	-0.036	-0.173
-520.945	-173.954	0.323	0.010
-519.931	296.420	-0.130	0.240
-518.916	310.372	0.033	-0.062
-517.902	-83.729	-0.118	0.038
-516.887	227.183	0.048	0.078
-515.872	-161.353	-0.184	0.010
-514.858	-110.503	-0.356	-0.074
-513.843	-89.305	-0.432	-0.128
-512.829	525.114	-0.136	-0.324
-511.814	800.000	-0.037	-0.144
-510.799	-83.557	0.320	0.103
-509.785	10.476	-0.045	-0.035
-508.770	21.044	-0.183	0.150
-507.756	-142.844	-0.109	0.011
-506.741	-45.352	0.355	-0.178
-505.726	-200.000	-0.017	-0.306
-504.712	-200.000	-0.043	-0.397
-503.697	-146.880	-0.134	-0.012
-502.683	-61.297	-0.095	0.041
-501.668	9.466	-0.096	-0.073
-500.653	-43.244	0.275	0.140
-499.639	230.459	0.185	0.305
-498.624	-200.000	-0.027	0.254
-497.610	13.875	0.239	0.187
-496.595	136.978	-0.146	0.193
-495.581	179.746	-0.050	0.074
-494.566	-115.542	-0.106	-0.020
-493.551	259.933	-0.092	0.161
-492.537	-109.613	-0.200	0.043
-491.522	-200.000	-0.038	-0.324
-490.508	53.688	-0.333	-0.322
-489.493	22.365	-0.114	0.094
-488.478	236.716	-0.069	0.116
-487.464	79.333	-0.104	0.112
-486.449	31.894	-0.345	-0.300
-485.435	-74.146	0.290	-0.106
-484.420	-200.000	0.004	0.112
-483.405	-75.106	-0.132	0.048
-482.391	-200.000	0.019	-0.412
-481.376	-88.011	-0.227	0.069
-480.362	253.934	-0.141	-0.244
-479.347	-86.361	-0.093	-0.029
-478.332	334.321	0.117	0.229
-477.318	296.727	-0.151	0.280
-476.303	-107.828	-0.170	-0.037
-475.289	-138.850	-0.254	0.028
-474.274	134.402	0.153	-0.199
-473.259	288.062	0.085	0.155
-472.245	-200.000	0.007	0.143
-471.230	-200.000	-0.063	0.312
-470.216	800.000	0.107	0.399
-469.201	800.000	-0.143	0.514
-468.186	525.331	0.123	0.291
-467.172	25.911	-0.162	0.136
-466.157	-109.042	-0.369	0.079
-465.143	-200.000	0.014	-0.065
-464.128	141.668	-0.079	0.105
-463.113	1.664	-0.335	-0.243
-462.099	-180.781	0.300	-0.006
-461.084	-79.676	-0.107	-0.036
-460.070	139.645	0.077	-0.102
-459.055	-19.557	-0.110	-0.069
-458.040	-116.727	-0.554	0.102
-457.026	52.972	-0.087	0.084
-456.011	-75.907	0.064	0.023
-454.997	-144.752	0.175	-0.016
-453.982	-200.000	0.151	0.001
-452.968	432.234	-0.019	-0.041
-451.953	800.000	0.060	0.218
-450.938	-86.202	-0.075	-0.023
-449.924	289.660	-0.075	0.136
-448.909	445.972	0.154	-0.341
-447.895	800.000	-0.068	-0.248
-446.880	-200.000	-0.005	0.062
-445.865	219.928	0.061	0.098
-444.851	-119.706	0.100	-0.017
-443.836	-200.000	0.014	-0.155
-442.822	94.756	0.026	0.030
-441.807	800.000	-0.056	0.237
-440.792	378.642	-0.061	-0.126
-439.778	11.065	0.124	0.096
-438.763	-107.717	0.236	-0.052
-437.749	227.721	-0.026	-0.043
-436.734	27.927	-0.094	0.080
-435.719	-0.732	-0.212	-0.151
-434.705	800.000	0.077	0.280
-433.690	106.261	0.083	-0.099
-432.676	-7.581	-0.138	0.094
-431.661	-110.063	-0.323	-0.068
-430.646	-90.672	0.174	0.051
-429.632	-200.000	-0.037	0.224
-428.617	-200.000	0.000	-0.121
-427.603	-82.659	0.071	0.023
-426.588	-48.137	-0.304	-0.147
-425.573	-69.371	-0.070	-0.027
-424.559	32.856	0.200	-0.174
-423.544	800.000	0.073	-0.210
-422.530	800.000	-0.048	-0.153
-421.515	-112.452	-0.257	0.052
-420.500	-200.000	-0.035	0.170
-419.486	800.000	-0.073	0.207
-418.471	25.864	0.081	-0.068
-417.457	36.460	0.284	-0.252
-416.442	29.960	0.399	-0.342
-415.428	-200.000	-0.057	-0.252
-414.413	-107.892	-0.300	-0.066
-413.398	-18.882	-0.193	-0.121
-412.384	-111.778	-0.145	-0.029
-411.369	315.766	-0.164	0.312
-410.355	-200.000	0.001	0.163
-409.340	800.000	-0.076	-0.322
-408.325	-13.433	0.135	-0.088
-407.311	402.183	0.038	-0.080
-406.296	-60.154	0.207	0.089
-405.282	-47.301	-0.332	0.163
-404.267	-200.000	-0.014	0.287
-403.252	568.026	0.128	0.312
-402.238	-27.883	0.214	-0.124
-401.223	-141.155	0.080	-0.008
-400.209	264.760	-0.176	0.308
-399.194	-159.137	0.405	0.023
-398.179	49.493	0.196	-0.186
-397.165	146.024	0.030	-0.041
-396.150	112.634	0.100	-0.121
-395.136	88.170	-0.088	-0.098
-394.121	98.610	-0.291	0.337
-393.106	97.283	0.174	0.201
-392.092	-50.515	0.211	-0.100
-391.077	-135.145	-0.205	-0.025
-390.063	-191.427	-0.310	-0.003
-389.048	-71.412	0.026	0.010
-388.033	-140.344	-0.158	0.017
-387.019	800.000	0.093	0.359
-386.004	305.318	0.228	0.426
-384.990	-57.810	0.186	0.082
-383.975	-200.000	-0.002	0.083
-382.960	18.217	0.097	-0.078
-381.946	151.371	-0.193	-0.264
-380.931	118.212	-0.044	0.054
-379.917	800.000	0.005	0.016
-378.902	173.272	-0.143	-0.207
-377.888	-79.851	0.238	0.080
-376.873	-200.000	0.004	-0.094
-375.858	-22.790	-0.146	-0.088
-374.844	-86.776	-0.168	0.051
-373.829	-141.198	0.092	-0.009
-372.815	-25.341	0.149	0.088
-371.800	800.000	0.129	0.369
-370.785	59.689	0.096	-0.095
-369.771	215.544	-0.083	0.132
-368.756	56.833	-0.209	0.205
-367.742	130.210	0.062	0.080
-366.727	-39.629	0.306	-0.161
-365.712	72.650	0.270	0.282
-364.698	-200.000	0.017	-0.211
-363.683	-169.333	0.327	-0.012
-362.669	28.465	-0.311	-0.264
-361.654	-200.000	0.028	0.251
-360.639	-128.390	-0.218	0.031
-359.625	-143.856	-0.121	-0.011
-358.610	-58.047	0.202	-0.088
-357.596	355.636	-0.070	0.140
-356.581	501.839	0.157	-0.363
-355.566	-12.545	0.183	-0.120
-354.552	-200.000	0.006	-0.247
-353.537	-20.757	0.149	-0.092
-352.523	-200.000	0.008	0.086
-351.508	-148.620	0.251	-0.021
-350.493	-162.018	0.245	-0.012
-349.479	425.691	-0.063	-0.136
-348.464	-128.211	0.338	0.048
-347.450	254.263	-0.138	0.237
-346.435	209.550	0.117	0.183
-345.420	29.597	-0.314	0.268
-344.406	442.199	-0.093	-0.205
-343.391	93.552	0.236	-0.267
-342.377	53.161	0.190	-0.182
-341.362	410.138	-0.138	-0.294
-340.348	104.239	-0.166	-0.196
-339.333	-132.171	0.105	0.014
-338.318	248.226	0.238	0.403
-337.304	361.011	-0.086	-0.172
-336.289	527.618	-0.111	-0.263
-335.275	-160.641	-0.042	-0.002
-334.260	140.899	-0.189	0.250
-333.245	800.000	0.087	-0.242
-332.231	800.000	-0.031	-0.109
-331.216	800.000	-0.026	-0.101
-330.202	67.209	-0.309	-0.316
-329.187	267.981	-0.103	-0.180
-328.172	-118.748	-0.173	-0.031
-327.158	332.437	-0.103	-0.199
-326.143	368.935	0.010	0.020
-325.129	-17.686	0.365	-0.230
-324.114	156.869	-0.077	0.107
-323.099	371.217	-0.038	0.076
-322.085	205.227	-0.035	-0.054
-321.070	-200.000	0.055	0.259
-320.056	-142.563	0.269	0.026
-319.041	627.426	-0.086	-0.218
-318.026	-171.799	0.338	0.011
-317.012	800.000	-0.020	-0.064
-315.997	-10.512	0.148	-0.098
-314.983	159.031	-0.089	0.124
-313.968	-46.856	-0.436	0.213
-312.953	145.923	-0.150	-0.201
-311.939	-200.000	0.014	0.224
-310.924	37.562	-0.079	-0.070
-309.910	46.311	0.237	-0.220
-308.895	329.926	-0.074	0.143
-307.880	-85.050	-0.165	0.052
-306.866	-96.949	-0.211	-0.055
-305.851	-200.000	-0.009	0.196
-304.837	47.538	0.152	0.142
-303.822	800.000	0.053	0.189
-302.807	-200.000	0.033	-0.212
-301.793	71.107	-0.186	0.193
-300.778	604.139	0.088	0.219
-299.764	445.828	-0.072	0.159
-298.749	-152.810	0.340	-0.024
-297.735	800.000	-0.017	0.069
-296.720	643.454	0.042	-0.107
-295.705	-161.098	0.300	0.016
-294.691	-5.317	0.085	0.059
-293.676	-200.000	-0.016	0.074
-292.662	-50.522	-0.026	0.012
-291.647	7.487	0.236	0.176
-290.632	-7.403	0.059	-0.040
-289.618	-118.447	-0.243	-0.043
-288.603	28.275	-0.063	0.053
-287.589	-73.322	-0.187	-0.068
-286.574	-200.000	-0.046	-0.362
-285.559	331.128	-0.074	0.143
-284.545	800.000	0.090	-0.263
-283.530	-179.941	-0.163	-0.003
-282.516	-200.000	-0.025	-0.203
-281.501	800.000	0.053	0.170
-280.486	-96.663	-0.281	-0.074
-279.472	-134.985	0.146	0.018
-278.457	156.348	0.198	0.273
-277.443	-71.966	-0.331	0.123
-276.428	160.014	-0.034	0.047
-275.413	52.805	0.206	-0.197
-274.399	98.888	0.192	0.221
-273.384	-43.317	0.295	-0.149
-272.370	74.161	0.354	0.372
-271.355	800.000	0.038	0.146
-270.340	800.000	-0.037	-0.106
-269.326	800.000	0.070	0.215
-268.311	474.076	-0.032	0.072
-267.297	-60.128	0.208	-0.088
-266.282	-19.302	-0.119	-0.074
-265.267	115.536	0.145	-0.177
-264.253	245.749	0.111	-0.186
-263.238	-200.000	0.001	-0.098
-262.224	154.646	-0.276	-0.379
-261.209	-200.000	0.022	-0.163
-260.195	-162.853	0.135	-0.007
-259.180	-88.522	0.255	-0.076
-258.165	203.834	0.094	-0.146
-257.151	109.505	0.072	0.086
-256.136	-115.891	-0.360	-0.067
-255.122	-124.096	0.198	0.031
-254.107	-98.392	-0.297	-0.076
-253.092	-120.243	-0.503	-0.086
-252.078	-91.695	-0.089	0.025
-251.063	800.000	-0.071	0.207
-250.049	705.126	0.090	-0.237
-249.034	-13.095	0.118	0.076
-248.019	-44.821	0.168	0.083
-247.005	589.896	-0.146	-0.359
-245.990	-112.333	-0.428	0.086
-244.976	-200.000	0.262	0.001
-243.961	-200.000	0.008	0.161
-242.946	-200.000	0.014	0.086
-241.932	62.838	-0.033	-0.033
-240.917	161.014	-0.077	0.108
-239.903	800.000	0.064	0.277
-238.888	-100.999	-0.134	0.033
-237.873	263.413	-0.120	-0.207
-236.859	466.296	0.060	0.134
-235.844	-200.000	-0.089	0.453
-234.830	100.917	-0.177	-0.206
-233.815	-132.631	0.225	-0.029
-232.800	0.447	-0.204	0.145
-231.786	179.505	-0.098	0.143
-230.771	-200.000	0.030	-0.405
-229.757	-73.611	0.239	0.087
-228.742	-200.000	-0.008	0.293
-227.727	5.126	0.129	-0.095
-226.713	321.571	-0.127	0.241
-225.698	800.000	0.063	-0.213
-224.684	-52.611	-0.317	0.146
-223.669	-127.751	-0.275	-0.040
-222.655	-200.000	0.010	0.060
-221.640	-78.993	-0.142	0.048
-220.625	88.181	0.095	-0.105
-219.611	-105.366	-0.323	0.073
-218.596	350.835	-0.031	-0.062
-217.582	800.000	-0.036	0.134
-216.567	-40.833	0.413	-0.213
-215.552	-60.861	-0.285	-0.120
-214.538	-200.000	0.018	0.197
-213.523	-5.022	0.171	0.118
-212.509	-61.505	-0.148	0.062
-211.494	800.000	0.122	0.395
-210.479	71.833	0.190	0.196
-209.465	84.767	0.223	-0.243
-208.450	189.062	-0.092	0.137
-207.436	-5.314	-0.110	0.075
-206.421	80.225	-0.233	0.250
-205.406	-200.000	-0.017	-0.226
-204.392	646.093	-0.056	-0.144
-203.377	-151.140	0.315	0.024
-202.363	244.623	-0.172	-0.287
-201.348	800.000	0.063	-0.187
-200.333	800.000	-0.105	0.427
-199.319	57.689	0.083	-0.081
-198.304	589.013	0.067	-0.164
-197.290	149.278	-0.086	-0.116
-196.275	-119.772	-0.381	0.065
-195.260	-72.073	0.248	0.092
-194.246	-117.778	0.146	-0.026
-193.231	105.669	-0.094	-0.111
-192.217	-81.284	0.552	-0.181
-191.202	185.809	-0.103	-0.153
-190.187	200.246	0.159	0.243
-189.173	-69.081	-0.183	-0.070
-188.158	-200.000	0.077	0.353
-187.144	641.029	-0.075	0.190
-186.129	-144.410	-0.332	-0.031
-185.114	47.098	0.326	0.302
-184.100	81.258	-0.138	0.149
-183.085	-55.267	-0.234	0.105
-182.071	-200.000	-0.018	-0.376
-181.056	-40.461	0.312	0.161
-180.042	617.943	0.041	-0.101
-179.027	-85.185	-0.563	0.175
-178.012	800.000	-0.031	-0.102
-176.998	-147.717	0.281	-0.023
-175.983	-71.241	0.297	-0.111
-174.969	5.463	0.130	-0.095
-173.954	181.907	0.175	0.257
-172.939	-200.000	-0.063	0.464
-171.925	-62.596	0.016	-0.006
-170.910	-85.988	-0.085	-0.026
-169.896	-71.068	0.150	-0.056
-168.881	-200.000	0.013	0.090
-167.866	-28.821	0.270	0.154
-166.852	2.510	0.137	-0.099
-165.837	11.334	0.174	-0.133
-164.823	159.436	-0.147	0.204
-163.808	-200.000	0.007	-0.358
-162.793	-170.390	0.129	-0.004
-161.779	-60.564	-0.453	-0.191
-160.764	-82.352	-0.147	0.048
-159.750	108.046	-0.288	-0.341
-158.735	-117.694	0.021	-0.004
-157.720	-66.332	0.290	0.115
-156.706	-200.000	-0.003	-0.296
-155.691	165.479	-0.122	-0.172
-154.677	-52.069	-0.089	0.041
-153.662	-85.755	-0.256	0.079
-152.647	-135.059	0.377	-0.045
-151.633	91.618	-0.169	-0.189
-150.618	3.834	-0.068	-0.049
-149.604	-200.000	0.019	0.229
-148.589	192.440	0.158	0.237
-147.574	9.022	-0.015	-0.011
-146.560	14.743	-0.211	0.164
-145.545	143.488	0.118	0.156
-144.531	-200.000	-0.052	0.408
-143.516	-200.000	-0.029	0.141
-142.502	29.189	0.249	0.210
-141.487	219.742	0.184	-0.293
-140.472	73.848	-0.051	-0.054
-139.458	66.652	0.259	0.262
-138.443	-108.519	-0.404	0.086
-137.429	-121.674	-0.140	-0.023
-136.414	-103.901	0.397	0.092
-135.399	35.328	0.101	0.088
-134.385	-98.031	0.194	0.050
-133.370	-200.000	-0.011	0.065
-132.356	-165.016	-0.095	-0.004
-131.341	173.935	-0.182	-0.261
-130.326	-90.740	-0.129	-0.037
-129.312	-138.831	-0.216	0.023
-128.297	-200.000	-0.003	0.098
-127.283	-60.658	0.321	-0.135
-126.268	271.208	-0.134	0.234
-125.253	-200.000	-0.023	-0.253
-124.239	-27.107	-0.196	-0.114
-123.224	457.322	0.171	0.377
-122.210	464.865	0.028	-0.063
-121.195	27.577	0.225	-0.188
-120.180	-42.491	0.103	-0.052
-119.166	675.887	0.075	0.195
-118.151	-200.000	-0.025	0.208
-117.137	-36.958	-0.068	-0.036
-116.122	-90.257	0.215	0.062
-115.107	356.227	-0.053	-0.104
-114.093	127.192	0.086	-0.108
-113.078	800.000	0.083	-0.248
-112.064	-184.701	0.142	-0.002
-111.049	-200.000	0.027	0.169
-110.034	376.491	0.142	0.287
-109.020	-159.949	0.201	-0.011
-108.005	47.499	-0.291	0.269
-106.991	-50.095	0.209	0.098
-105.976	201.085	0.181	-0.276
-104.962	-15.729	0.387	0.245
-103.947	-75.719	-0.373	0.131
-102.932	88.958	-0.088	-0.098
-101.918	587.992	-0.026	0.064
-100.903	16.829	0.269	0.211
-99.889	29.636	-0.161	0.136
-98.874	-200.000	0.047	0.228
-97.859	-200.000	-0.003	0.231
-96.845	-75.793	0.187	-0.066
-95.830	-109.964	-0.255	-0.053
-94.816	-150.474	0.106	-0.008
-93.801	-104.087	0.435	-0.101
-92.786	577.733	-0.060	-0.146
-91.772	411.845	-0.022	0.046
-90.757	-178.097	0.149	0.004
-89.743	-200.000	0.018	-0.186
-88.728	-34.063	-0.190	-0.104
-87.713	101.451	-0.122	0.141
-86.699	458.691	0.083	-0.183
-85.684	134.839	0.195	0.251
-84.670	800.000	0.058	-0.176
-83.655	-30.174	0.077	0.043
-82.640	31.460	-0.022	0.018
-81.626	66.041	-0.172	0.173
-80.611	74.691	-0.171	-0.179
-79.597	42.150	0.129	-0.116
-78.582	167.963	0.273	-0.385
-77.567	-121.138	0.193	-0.032
-76.553	478.142	-0.084	0.189
-75.538	-115.096	-0.348	-0.065
-74.524	-200.000	-0.015	-0.135
-73.509	298.147	-0.045	-0.082
-72.494	-105.569	0.305	-0.069
-71.480	-49.621	-0.084	0.040
-70.465	800.000	0.082	-0.290
-69.451	-89.894	-0.237	-0.069
-68.436	155.843	-0.116	-0.158
-67.422	-200.000	-0.031	-0.266
-66.407	-20.525	0.219	-0.133
-65.392	541.296	-0.044	-0.104
-64.378	-41.945	0.074	-0.037
-63.363	-83.924	0.340	0.107
-62.349	150.892	0.192	-0.259
-61.334	-23.479	-1.298	-0.772
-60.319	82.769	0.427	0.460
-59.305	800.000	-0.294	-1.152
-58.290	438.790	0.513	1.109
-57.276	497.237	0.639	1.457
-56.261	-200.000	95.097	552.906
-55.246	619.657	1386.629	3453.287
-54.232	184.793	2612.706	3838.229
-53.217	120.364	2201.765	2708.605
-52.203	46.392	1649.500	1515.420
-51.188	38.161	1382.683	1219.144
-50.173	34.767	1339.975	1160.867
-49.159	55.514	1388.392	1331.558
-48.144	59.502	1406.321	1373.332
-47.130	38.399	1360.914	1201.223
-46.115	34.682	1342.869	1162.668
-45.100	34.501	1338.248	1157.526
-44.086	34.487	1335.988	1155.437
-43.071	34.373	1333.446	1152.505
-42.057	34.388	1331.330	1150.718
-41.042	34.574	1329.081	1149.851
-40.027	34.416	1327.929	1147.859
-39.013	34.538	1325.940	1146.827
-37.998	34.502	1323.944	1144.841
-36.984	34.630	1322.334	1144.166
-35.969	34.578	1320.545	1142.263
-34.954	34.592	1318.819	1140.812
-33.940	34.617	1317.347	1139.641
-32.925	34.748	1315.501	1138.781
-31.911	34.604	1314.695	1137.176
-30.896	34.666	1313.320	1136.311
-29.881	34.696	1311.901	1135.218
-28.867	34.740	1310.294	1134.045
-27.852	34.795	1308.388	1132.675
-26.838	34.745	1307.447	1131.518
-25.823	34.653	1305.844	1129.545
-24.809	34.641	1304.631	1128.379
-23.794	34.706	1303.221	1127.496
-22.779	34.568	1302.409	1125.939
-21.765	34.630	1300.851	1124.910
-20.750	34.547	1299.652	1123.342
-19.736	34.575	1298.139	1122.154
-18.721	34.549	1296.927	1120.906
-17.706	34.562	1295.693	1119.870
-16.692	34.458	1294.565	1118.246
-15.677	34.614	1292.919	1117.694
-14.663	34.512	1292.458	1116.649
-13.648	34.531	1290.969	1115.428
-12.633	34.618	1289.654	1114.757
-11.619	34.463	1289.550	1113.716
-10.604	34.359	1288.659	1112.301
-9.590	34.546	1287.379	1112.240
-8.575	34.429	1286.627	1110.867
-7.560	34.467	1285.605	1110.158
-6.546	34.555	1284.690	1109.837
-5.531	34.449	1283.786	1108.393
-4.517	34.534	1282.758	1107.960
-3.502	34.529	1282.197	1107.402
-2.487	34.478	1280.803	1105.855
-1.473	34.616	1276.706	1103.076
-0.458	33.528	1261.727	1083.870
0.556	31.972	1242.456	1042.753
1.571	27.738	1246.065	1022.033
2.586	26.141	1259.939	1024.264
3.600	24.313	1247.388	1003.694
4.615	18.235	1172.382	910.998
5.629	9.187	1095.504	805.980
6.644	4.985	1074.342	769.631
7.659	4.636	1071.447	765.767
8.673	4.427	1070.052	763.677
9.688	4.384	1068.775	762.485
10.702	5.037	1068.008	765.075
11.717	10.748	1076.167	799.014
12.731	19.200	1087.944	849.551
13.746	22.453	1091.413	868.250
14.761	22.067	1090.037	865.179
15.775	21.106	1088.742	859.344
16.790	20.121	1086.592	852.728
17.804	19.574	1084.727	848.502
18.819	19.216	1083.822	845.959
19.834	19.098	1083.351	844.938
20.848	18.965	1082.622	843.642
21.863	18.851	1081.457	842.101
22.877	18.586	1081.313	840.618
23.892	18.543	1080.196	839.465
24.907	18.567	1079.499	838.964
25.921	18.613	1078.137	838.059
26.936	18.651	1076.798	837.127
27.950	18.694	1075.325	836.118
28.965	18.624	1074.494	835.055
29.980	18.887	1072.976	835.080
30.994	19.033	1071.481	834.551
32.009	19.047	1070.929	834.115
33.023	18.953	1069.420	832.415
34.038	18.813	1068.490	830.940
35.053	18.726	1067.440	829.626
36.067	18.748	1066.690	829.078
37.082	18.752	1065.946	828.443
38.096	18.859	1065.748	828.736
39.111	18.836	1064.987	827.958
40.126	18.754	1063.054	825.986
41.140	18.405	1061.612	823.116
42.155	18.277	1060.933	821.905
43.169	18.225	1059.254	820.283
44.184	18.320	1058.194	819.845
45.199	18.207	1057.711	818.854
46.213	18.340	1056.550	818.520
47.228	18.726	1055.883	819.776
48.242	18.728	1054.902	818.949
49.257	18.610	1053.624	817.324
50.271	18.633	1053.035	816.901
51.286	18.781	1052.097	816.809
52.301	18.691	1051.135	815.559
53.315	18.508	1049.951	813.701
54.330	18.594	1048.897	813.218
55.344	18.416	1048.126	811.705
56.359	18.393	1047.343	810.919
57.374	18.400	1045.994	809.835
58.388	18.247	1045.491	808.654
59.403	18.255	1044.067	807.519
60.417	18.192	1043.566	806.763
61.432	18.200	1042.814	806.147
62.447	18.123	1042.041	805.117
63.461	18.138	1040.995	804.306
64.476	17.981	1040.127	802.827
65.490	18.130	1038.893	802.500
66.505	18.177	1038.599	802.423
67.520	18.149	1037.741	801.560
68.534	18.228	1037.396	801.593
69.549	18.034	1036.438	799.871
70.563	18.089	1035.181	799.087
71.578	17.976	1034.265	797.783
72.593	17.816	1034.016	796.773
73.607	17.914	1033.015	796.389
74.622	17.818	1032.620	795.565
75.636	17.878	1032.245	795.486
76.651	18.001	1031.254	795.226
77.666	17.974	1030.382	794.358
78.680	18.131	1029.537	794.365
79.695	18.073	1029.521	794.011
80.709	18.228	1029.097	794.337
81.724	18.203	1028.299	793.534
82.739	18.389	1027.355	793.596
83.753	18.521	1026.824	793.729
84.768	18.943	1026.157	795.093
85.782	18.934	1025.422	794.410
86.797	18.964	1024.626	793.864
87.812	18.753	1023.487	791.939
88.826	18.826	1022.504	791.442
89.841	18.970	1021.288	791.093
90.855	19.028	1020.866	790.962
91.870	18.972	1020.199	790.119
92.884	18.929	1018.935	788.875
93.899	18.889	1018.214	788.062
94.914	18.979	1017.549	787.891
95.928	18.966	1016.682	787.088
96.943	18.797	1015.652	785.448
97.957	18.811	1014.943	784.897
98.972	18.756	1014.089	783.917
99.987	18.940	1012.777	783.671
101.001	18.767	1011.716	781.993
102.016	18.776	1011.141	781.521
103.030	18.782	1010.595	781.056
104.045	18.925	1009.104	780.483
105.060	18.759	1008.639	779.302
106.074	18.445	1007.275	776.756
107.089	18.200	1006.257	774.791
108.103	18.215	1005.281	774.041
109.118	18.106	1004.216	772.658
110.133	18.099	1003.508	772.015
111.147	18.078	1002.473	771.058
112.162	18.218	1001.416	770.807
113.176	18.453	1000.776	771.302
114.191	18.290	1000.947	770.629
115.206	18.409	999.714	770.149
116.220	18.285	999.061	769.021
117.235	18.272	998.061	768.123
118.249	18.212	997.094	767.044
119.264	18.208	996.301	766.349
120.279	18.140	995.575	765.418
121.293	18.178	994.404	764.621
122.308	17.946	993.702	762.973
123.322	17.941	992.509	761.971
124.337	17.926	991.707	761.218
125.352	18.109	990.172	760.787
126.366	18.075	989.186	759.813
127.381	18.039	988.402	758.983
128.395	18.150	987.523	758.733
129.410	18.070	986.571	757.582
130.424	18.212	986.147	757.818
131.439	18.268	985.581	757.562
132.454	18.372	984.856	757.398
133.468	18.244	984.099	756.185
134.483	18.428	982.906	756.010
135.497	18.493	981.917	755.472
136.512	18.405	981.566	754.747
137.527	18.418	980.804	754.152
138.541	18.347	980.106	753.235
139.556	18.448	979.163	752.887
140.570	18.649	978.663	753.320
141.585	18.880	977.837	753.629
142.600	18.918	977.112	753.171
143.614	18.940	976.263	752.547
144.629	18.954	975.655	752.072
145.643	18.887	974.374	750.728
146.658	18.704	973.280	749.017
147.673	18.659	971.985	747.757
148.687	18.519	971.493	746.704
149.702	18.430	970.403	745.414
150.716	18.375	969.734	744.593
151.731	18.435	968.950	744.186
152.746	18.450	968.037	743.484
153.760	18.641	967.371	743.736
154.775	18.744	966.911	743.764
155.789	18.612	966.594	742.882
156.804	18.623	966.022	742.425
157.819	18.734	965.123	742.148
158.833	18.868	964.855	742.454
159.848	19.010	963.851	742.227
160.862	18.933	962.117	740.497
161.877	18.662	961.047	738.440
162.892	18.473	960.085	736.826
163.906	18.398	959.245	735.793
164.921	18.441	958.145	735.070
165.935	18.495	957.855	735.011
166.950	18.550	956.708	734.304
167.964	18.592	955.640	733.595
168.979	18.534	954.588	732.478
169.994	18.589	953.574	731.868
171.008	18.668	953.283	731.918
172.023	18.870	952.833	732.369
173.037	18.909	952.123	731.921
174.052	18.909	951.122	731.089
175.067	18.730	950.052	729.442
176.081	18.432	949.751	727.881
177.096	18.407	949.139	727.242
178.110	18.408	948.925	727.019
179.125	18.471	948.102	726.587
180.140	18.611	947.613	726.741
181.154	18.754	947.329	727.068
182.169	18.882	946.617	726.999
183.183	18.927	946.045	726.684
184.198	18.997	945.165	726.239
185.213	18.952	944.571	725.530
186.227	19.020	944.203	725.470
187.242	19.079	943.499	725.112
188.256	19.295	942.544	725.221
189.271	19.060	942.154	723.872
190.286	18.840	940.973	721.976
191.300	18.439	939.829	719.351
192.315	18.364	939.147	718.449
193.329	18.283	938.957	717.900
194.344	18.601	938.210	718.600
195.359	18.555	937.965	718.155
196.373	18.775	937.291	718.495
197.388	19.013	937.158	719.325
198.402	19.230	936.428	719.609
199.417	19.324	935.554	719.265
200.432	19.388	935.309	719.279
201.446	19.360	934.794	718.705
202.461	19.526	934.233	718.900
203.475	19.492	933.920	718.452
204.490	19.197	932.994	716.452
205.504	19.097	931.856	715.100
206.519	19.008	931.243	714.195
207.534	18.961	930.301	713.215
208.548	19.071	929.924	713.317
209.563	19.008	929.250	712.478
210.577	19.176	928.788	712.757
211.592	19.289	928.151	712.673
212.607	19.367	927.322	712.294
213.621	19.341	926.605	711.574
214.636	19.380	925.964	711.177
215.650	19.308	925.486	710.452
216.665	19.612	924.547	710.919
217.680	19.431	924.174	709.823
218.694	19.534	923.596	709.743
219.709	19.488	922.629	708.745
220.723	19.415	921.950	707.862
221.738	19.421	921.483	707.465
222.753	19.483	920.432	706.851
223.767	19.503	920.320	706.783
224.782	19.682	919.734	707.006
225.796	19.787	919.223	706.976
226.811	19.677	918.771	706.118
227.826	19.422	917.571	704.093
228.840	19.492	916.201	703.263
229.855	19.475	915.612	702.679
230.869	19.457	914.914	702.010
231.884	19.342	914.829	701.415
232.899	19.162	913.957	699.955
233.913	19.257	912.886	699.456
234.928	19.185	912.535	698.834
235.942	19.023	911.507	697.327
236.957	19.176	911.507	697.887
237.972	19.018	911.035	696.823
238.986	19.161	910.034	696.576
240.001	19.080	909.383	695.685
241.015	19.325	908.707	696.096
242.030	19.369	908.485	696.041
243.045	19.476	907.965	696.015
244.059	19.441	907.296	695.299
245.074	19.535	906.657	695.128
246.088	19.564	906.139	694.787
247.103	19.861	905.343	695.306
248.117	19.829	905.533	695.261
249.132	19.975	905.241	695.564
250.147	20.230	904.536	695.981
251.161	20.351	903.795	695.835
252.176	20.400	902.857	695.247
253.190	20.476	902.506	695.221
254.205	20.370	901.957	694.312
255.220	20.280	901.321	693.402
256.234	20.231	900.639	692.621
257.249	20.250	899.786	691.979
258.263	20.192	899.197	691.232
259.278	20.409	898.020	691.130
260.293	20.527	897.799	691.370
261.307	20.510	897.399	690.934
262.322	20.564	896.974	690.757
263.336	20.502	895.910	689.631
264.351	20.509	895.326	689.148
265.366	20.590	894.598	688.850
266.380	20.558	894.004	688.206
267.395	20.389	893.462	687.057
268.409	20.357	892.495	686.125
269.424	20.318	891.777	685.361
270.439	20.411	891.230	685.244
271.453	20.212	890.283	683.673
272.468	20.090	890.045	682.948
273.482	20.230	889.136	682.740
274.497	20.233	888.577	682.264
275.512	20.213	887.961	681.653
276.526	20.093	887.740	680.952
277.541	20.405	886.851	681.435
278.555	20.420	886.806	681.398
279.570	20.692	886.301	682.014
280.585	20.597	885.319	680.827
281.599	20.501	884.117	679.468
282.614	20.429	883.459	678.618
283.628	20.429	882.590	677.894
284.643	20.426	882.294	677.595
285.657	20.350	881.809	676.865
286.672	20.415	881.251	676.630
287.687	20.344	880.388	675.630
288.701	20.347	879.895	675.204
289.716	20.446	879.381	675.135
290.730	20.385	879.168	674.676
291.745	20.503	878.200	674.332
292.760	20.558	877.718	674.114
293.774	20.726	877.053	674.192
294.789	20.606	876.540	673.274
295.803	20.511	875.694	672.198
296.818	20.302	874.992	670.791
297.833	20.377	874.205	670.418
298.847	20.562	873.599	670.610
299.862	20.637	872.909	670.309
300.876	20.532	872.885	669.827
301.891	20.753	872.320	670.185
302.906	20.891	871.668	670.155
303.920	20.985	871.518	670.341
304.935	21.121	870.774	670.233
305.949	20.840	870.120	668.591
306.964	20.730	869.433	667.583
307.979	20.732	869.152	667.316
308.993	20.891	868.432	667.313
310.008	20.857	867.730	666.586
311.022	20.950	866.983	666.308
312.037	20.798	865.939	664.865
313.052	20.611	865.146	663.485
314.066	20.285	865.368	662.352
315.081	20.399	864.536	662.090
316.095	20.475	863.700	661.683
317.110	20.474	863.517	661.478
318.125	20.546	862.697	661.068
319.139	20.428	862.454	660.372
320.154	20.598	861.701	660.383
321.168	20.538	861.388	659.857
322.183	20.738	860.316	659.738
323.197	20.646	860.170	659.218
324.212	20.723	859.567	658.987
325.227	20.647	858.937	658.160
326.241	20.598	858.471	657.558
327.256	20.686	857.766	657.293
328.270	20.829	857.201	657.343
329.285	20.609	856.788	656.138
330.300	20.589	856.282	655.616
331.314	20.667	855.389	655.167
332.329	20.726	855.077	655.094
333.343	20.947	854.679	655.563
334.358	20.925	854.517	655.298
335.373	20.953	854.366	655.228
336.387	21.006	853.962	655.061
337.402	21.081	853.487	654.920
338.416	21.290	853.423	655.597
339.431	21.206	853.265	655.103
340.446	21.339	852.833	655.208
341.460	21.425	852.486	655.208
342.475	21.485	851.653	654.734
343.489	21.447	851.486	654.407
344.504	21.615	850.811	654.457
345.519	21.669	850.142	654.088
346.533	21.381	849.916	652.780
347.548	21.307	848.875	651.646
348.562	21.151	848.325	650.586
349.577	21.000	847.919	649.653
350.592	21.062	847.043	649.156
351.606	20.924	846.122	647.880
352.621	21.030	845.738	647.922
353.635	21.048	845.076	647.425
354.650	21.133	844.544	647.275
355.665	21.324	843.717	647.290
356.679	21.289	843.165	646.682
357.694	21.253	842.586	646.047
358.708	21.233	842.154	645.582
359.723	21.161	841.860	645.034
360.738	21.214	841.270	644.721
361.752	21.431	840.280	644.707
362.767	21.539	840.198	644.983
363.781	21.705	839.577	645.061
364.796	21.811	838.717	644.734
365.810	21.804	838.584	644.550
366.825	21.820	838.739	644.669
367.840	21.723	838.190	643.835
368.854	21.662	837.462	642.994
369.869	21.630	836.760	642.281
370.883	21.855	835.733	642.258
371.898	21.881	835.853	642.392
372.913	21.887	835.714	642.249
373.927	21.722	834.691	640.802
374.942	21.821	834.556	641.003
375.956	21.918	834.023	640.891
376.971	21.992	833.868	640.985
377.986	22.134	833.324	641.030
379.000	22.202	832.771	640.794
380.015	22.031	832.180	639.661
381.029	21.963	831.647	638.947
382.044	22.050	831.349	638.978
383.059	22.128	830.214	638.334
384.073	21.923	830.111	637.451
385.088	21.711	829.290	635.994
386.102	21.680	828.630	635.322
387.117	21.681	827.792	634.628
388.132	21.777	827.105	634.392
389.146	21.812	826.712	634.159
390.161	22.008	826.409	634.581
391.175	22.003	826.286	634.411
392.190	21.881	825.238	633.110
393.205	21.778	824.535	632.142
394.219	21.795	824.100	631.816
395.234	21.619	824.080	631.109
396.248	21.624	823.141	630.352
397.263	21.430	823.012	629.499
398.278	21.432	822.658	629.181
399.292	21.569	822.252	629.306
400.307	21.548	821.831	628.854
401.321	21.628	821.303	628.682
402.336	21.624	821.100	628.455
403.350	21.832	820.725	628.857
404.365	21.991	819.893	628.735
405.380	22.018	819.587	628.541
406.394	22.145	818.912	628.424
407.409	22.206	818.578	628.330
408.423	22.329	818.263	628.471
409.438	22.367	818.286	628.567
410.453	22.366	817.856	628.180
411.467	22.470	817.495	628.218
412.482	22.509	816.847	627.804
413.496	22.609	816.544	627.870
414.511	22.614	815.989	627.405
415.526	22.682	815.474	627.196
416.540	22.581	814.893	626.334
417.555	22.486	814.552	625.680
418.569	22.557	813.890	625.368
419.584	22.350	813.951	624.623
420.599	22.491	813.619	624.815
421.613	159.629	1370.105	1790.734
422.628	139.003	1451.214	1790.816
