DTS Sentinel unit serial number:	SN413079Multiplexer serial number:	ORYXHardware model number:	OX4-SRSoftware version number:	ORYX F/W v4.00 Oryx Data Collector v3.7.2.0data status	okinstallation	princeton_trtdifferential loss correction	single-endedforward channel	channel 1reverse channel	N/Adate	2019/09/18time	01:02:35forward acquisition time	60.00reverse acquisition time	0.00gamma	496.2192k internal	0.2341k external	0.2341temperature offset calibration	0.9983default loss term (dB/km)	0.3790temperature slope calibration	1.0000multiplexer offset coefficient	1.0000multiplexer slope coefficient	1.0000fibre end	0.00T internal ref (°C)	23.28T ext. ref 1 (°C)	0.17T ext. ref 2 (°C)	16.98length (m)	temperature (°C)	Stokes	anti-Stokes-747.200	104.110	-0.150	0.177
-746.185	-200.000	-0.034	0.239
-745.171	777.718	0.144	0.395
-744.156	800.000	-0.107	0.333
-743.142	186.077	-0.174	-0.259
-742.127	-200.000	0.029	-0.167
-741.112	-74.679	-0.166	0.060
-740.098	-200.000	-0.030	0.226
-739.083	29.987	-0.177	0.151
-738.069	-200.000	0.018	0.270
-737.054	-24.781	-0.168	-0.100
-736.039	-13.340	-0.327	-0.213
-735.025	-108.178	0.388	-0.084
-734.010	171.412	-0.131	-0.189
-732.996	19.929	-0.184	0.149
-731.981	216.196	-0.169	-0.270
-730.966	263.921	0.092	-0.160
-729.952	-42.064	-0.167	0.086
-728.937	-68.967	-0.130	-0.050
-727.923	313.399	-0.090	-0.169
-726.908	151.840	-0.178	-0.242
-725.894	-200.000	0.015	0.125
-724.879	424.845	-0.182	-0.392
-723.864	217.795	-0.161	-0.257
-722.850	-140.044	0.118	-0.012
-721.835	206.161	0.078	0.122
-720.821	429.039	0.114	-0.246
-719.806	-200.000	-0.007	-0.206
-718.791	-9.667	-0.055	-0.037
-717.777	71.817	0.224	0.233
-716.762	-200.000	-0.006	-0.140
-715.748	-76.126	0.211	-0.075
-714.733	402.558	-0.113	-0.237
-713.718	65.292	0.155	0.157
-712.704	322.841	-0.179	-0.342
-711.689	-200.000	-0.018	0.139
-710.675	-127.770	0.377	0.054
-709.660	268.851	-0.185	-0.324
-708.645	-24.195	0.158	0.094
-707.631	81.516	0.101	-0.109
-706.616	800.000	0.022	0.084
-705.602	-136.770	-0.226	-0.026
-704.587	-85.433	-0.396	0.123
-703.572	-184.996	-0.108	-0.002
-702.558	-200.000	-0.004	0.044
-701.543	-109.240	-0.165	0.035
-700.529	144.609	-0.030	-0.040
-699.514	-72.321	0.106	0.039
-698.499	-200.000	0.022	0.258
-697.485	-200.000	0.013	0.162
-696.470	84.408	-0.115	0.126
-695.456	-200.000	0.027	-0.142
-694.441	-200.000	0.002	0.054
-693.426	-200.000	0.058	0.311
-692.412	800.000	-0.039	0.122
-691.397	-9.751	-0.315	0.210
-690.383	-157.459	0.076	0.005
-689.368	77.289	-0.094	0.099
-688.354	-200.000	0.089	-0.395
-687.339	360.454	-0.040	-0.079
-686.324	-70.469	-0.240	0.091
-685.310	-58.649	0.094	0.041
-684.295	244.851	-0.121	-0.204
-683.281	-118.027	-0.078	0.014
-682.266	800.000	0.012	0.052
-681.251	103.117	-0.148	-0.173
-680.237	21.342	-0.214	-0.174
-679.222	202.448	-0.077	0.118
-678.208	-137.362	-0.567	-0.064
-677.193	13.195	-0.102	0.079
-676.178	242.297	-0.060	-0.101
-675.164	90.789	-0.090	0.101
-674.149	32.447	-0.281	-0.243
-673.135	23.613	-0.115	0.094
-672.120	39.498	0.154	-0.138
-671.105	-200.000	0.054	-0.339
-670.091	61.318	-0.173	0.172
-669.076	-99.991	0.196	-0.049
-668.062	42.552	-0.117	-0.107
-667.047	42.049	0.072	0.065
-666.032	-92.070	-0.179	0.051
-665.018	685.696	-0.117	-0.306
-664.003	38.275	-0.147	0.130
-662.989	642.361	-0.153	0.389
-661.974	58.152	0.086	0.085
-660.959	111.881	0.098	-0.119
-659.945	-99.599	-0.119	0.030
-658.930	-170.847	0.271	-0.009
-657.916	38.547	0.162	-0.144
-656.901	-121.146	0.140	0.023
-655.886	228.706	0.208	0.339
-654.872	-138.354	-0.439	0.048
-653.857	65.853	-0.396	-0.401
-652.843	-200.000	0.071	0.502
-651.828	-200.000	-0.020	-0.131
-650.814	-186.580	-0.057	0.001
-649.799	-200.000	0.007	-0.072
-648.784	281.951	0.131	0.234
-647.770	303.140	-0.053	0.098
-646.755	800.000	-0.052	0.145
-645.741	-50.016	-0.395	0.187
-644.726	-200.000	-0.011	-0.281
-643.711	-52.641	-0.354	-0.163
-642.697	4.754	0.232	0.170
-641.682	14.429	-0.186	-0.145
-640.668	-143.741	0.129	0.012
-639.653	313.413	0.127	-0.238
-638.638	191.793	0.094	-0.142
-637.624	-200.000	-0.002	-0.018
-636.609	-198.358	0.116	0.001
-635.595	-192.457	-0.221	0.002
-634.580	-200.000	-0.052	0.321
-633.565	-0.679	0.285	-0.201
-632.551	19.337	-0.247	-0.198
-631.536	800.000	0.021	0.079
-630.522	800.000	-0.030	-0.130
-629.507	-11.248	-0.298	0.196
-628.492	116.903	0.229	0.280
-627.478	-139.332	-0.190	-0.020
-626.463	68.057	0.077	0.079
-625.449	166.563	-0.104	0.147
-624.434	800.000	-0.098	-0.367
-623.419	17.299	-0.410	-0.325
-622.405	291.838	0.210	0.382
-621.390	-200.000	-0.005	-0.333
-620.376	-112.153	-0.344	0.069
-619.361	-200.000	-0.009	-0.089
-618.346	511.741	-0.124	-0.287
-617.332	-96.564	0.231	0.061
-616.317	-84.479	0.285	0.090
-615.303	9.105	-0.160	-0.121
-614.288	242.453	0.251	0.419
-613.273	-14.150	-0.030	-0.019
-612.259	23.582	-0.136	0.112
-611.244	-71.948	-0.235	-0.087
-610.230	233.795	0.085	0.140
-609.215	798.343	0.027	-0.074
-608.201	-17.141	0.157	-0.099
-607.186	23.075	-0.163	-0.133
-606.171	-24.614	0.269	-0.160
-605.157	-200.000	0.006	-0.180
-604.142	37.786	-0.043	-0.038
-603.128	-117.331	0.228	0.041
-602.113	-200.000	-0.096	-0.508
-601.098	-200.000	0.022	-0.101
-600.084	267.191	-0.022	-0.039
-599.069	-58.770	0.097	-0.042
-598.055	800.000	-0.139	-0.392
-597.040	85.399	0.150	-0.164
-596.025	-4.402	0.163	-0.112
-595.011	174.287	-0.156	0.225
-593.996	102.908	0.349	-0.407
-592.982	-29.959	-0.072	-0.041
-591.967	318.165	0.183	0.346
-590.952	1.814	0.019	0.013
-589.938	-125.642	-0.190	-0.029
-588.923	-200.000	-0.031	-0.193
-587.909	-8.379	0.143	-0.096
-586.894	9.356	-0.200	0.151
-585.879	-200.000	0.021	0.101
-584.865	-143.978	0.234	0.022
-583.850	-200.000	-0.016	-0.270
-582.836	-176.604	0.098	0.003
-581.821	800.000	-0.021	-0.066
-580.806	-56.225	0.063	0.028
-579.792	48.426	0.075	-0.070
-578.777	-11.787	-0.340	-0.222
-577.763	293.794	-0.137	-0.249
-576.748	-46.636	-0.109	-0.053
-575.733	-200.000	-0.007	0.124
-574.719	98.856	-0.062	0.071
-573.704	800.000	0.077	-0.233
-572.690	-4.873	-0.174	-0.120
-571.675	-7.465	0.189	-0.127
-570.661	-30.571	0.369	0.208
-569.646	-133.490	0.141	0.018
-568.631	1.163	-0.021	0.015
-567.617	800.000	0.163	-0.498
-566.602	185.963	-0.137	-0.203
-565.588	-200.000	-0.067	-0.335
-564.573	-142.008	-0.221	0.022
-563.558	295.234	0.052	0.095
-562.544	-55.683	0.075	0.033
-561.529	-145.162	-0.206	0.019
-560.515	265.106	0.122	0.212
-559.500	31.834	0.233	0.200
-558.485	-200.000	0.048	0.279
-557.471	82.081	-0.057	-0.061
-556.456	-200.000	-0.063	-0.337
-555.442	18.933	-0.198	0.158
-554.427	-42.662	-0.452	-0.229
-553.412	-80.093	0.258	0.086
-552.398	-200.000	0.016	-0.190
-551.383	246.830	0.108	0.182
-550.369	-21.001	-0.246	-0.150
-549.354	-200.000	0.041	-0.195
-548.339	107.087	0.081	0.095
-547.325	232.694	0.088	0.144
-546.310	53.416	0.189	-0.180
-545.296	2.171	-0.186	0.134
-544.281	-31.353	0.226	-0.127
-543.266	-200.000	-0.005	0.046
-542.252	800.000	-0.053	-0.161
-541.237	321.550	0.169	-0.319
-540.223	-63.411	-0.112	0.046
-539.208	-24.084	0.178	0.106
-538.193	-100.889	0.248	0.061
-537.179	800.000	0.031	0.107
-536.164	800.000	0.058	0.186
-535.150	326.617	0.189	-0.359
-534.135	231.639	0.091	-0.148
-533.121	800.000	-0.121	0.380
-532.106	-67.834	-0.222	0.086
-531.091	238.971	-0.173	0.285
-530.077	516.384	0.133	-0.308
-529.062	-103.705	0.225	0.052
-528.048	234.258	-0.164	0.269
-527.033	-57.030	0.274	0.120
-526.018	638.554	-0.152	0.385
-525.004	205.250	-0.147	0.227
-523.989	87.646	-0.124	-0.137
-522.975	-175.659	0.052	0.001
-521.960	-175.534	0.263	0.007
-520.945	12.491	-0.070	0.053
-519.931	3.290	-0.163	0.118
-518.916	-113.589	0.091	-0.018
-517.902	-139.762	-0.558	-0.059
-516.887	-23.095	-0.140	0.084
-515.872	-41.682	-0.139	0.071
-514.858	800.000	-0.057	-0.225
-513.843	-200.000	0.027	-0.196
-512.829	-6.812	0.149	0.101
-511.814	-200.000	-0.019	0.290
-510.799	-22.594	-0.176	-0.106
-509.785	-189.117	-0.039	-0.000
-508.770	23.870	-0.290	-0.238
-507.756	-30.472	0.203	-0.115
-506.741	228.626	-0.196	0.317
-505.726	-200.000	-0.034	0.339
-504.712	148.176	0.168	0.226
-503.697	-200.000	0.009	0.076
-502.683	36.891	0.112	-0.098
-501.668	800.000	0.030	-0.128
-500.653	21.817	-0.200	-0.162
-499.639	-200.000	0.059	0.283
-498.624	96.972	0.094	0.107
-497.610	116.638	-0.147	0.178
-496.595	-68.937	-0.173	-0.066
-495.581	-200.000	0.024	-0.140
-494.566	64.419	0.078	-0.078
-493.551	-171.242	-0.245	-0.008
-492.537	2.066	0.095	0.068
-491.522	546.387	0.042	-0.100
-490.508	-24.996	-0.243	-0.143
-489.493	15.570	-0.109	-0.085
-488.478	-200.000	0.052	-0.366
-487.464	-26.802	0.170	-0.098
-486.449	50.324	0.038	0.036
-485.435	-5.983	0.101	0.069
-484.420	109.386	0.109	-0.129
-483.405	-22.661	0.292	-0.175
-482.391	800.000	-0.055	0.176
-481.376	-71.858	0.019	-0.007
-480.362	81.071	0.050	0.054
-479.347	699.526	0.032	0.083
-478.332	-200.000	0.055	-0.260
-477.318	-68.121	0.117	0.045
-476.303	-166.098	0.111	0.005
-475.289	-200.000	-0.278	0.001
-474.274	800.000	-0.052	0.143
-473.259	253.355	0.257	0.435
-472.245	-83.330	-0.327	0.104
-471.230	800.000	-0.021	0.061
-470.216	9.226	0.197	-0.147
-469.201	40.880	-0.179	-0.160
-468.186	-16.687	0.113	-0.071
-467.172	-42.900	0.215	-0.108
-466.157	-27.098	-0.077	0.045
-465.143	-126.893	-0.394	-0.058
-464.128	-40.395	-0.115	0.059
-463.113	-19.279	-0.126	0.077
-462.099	260.381	0.059	-0.101
-461.084	-172.992	-0.193	0.006
-460.070	-200.000	0.012	0.192
-459.055	-200.000	-0.071	0.420
-458.040	246.158	-0.199	-0.332
-457.026	-120.159	0.091	-0.015
-456.011	146.647	-0.177	-0.235
-454.997	-200.000	-0.034	0.291
-453.982	-40.099	-0.274	-0.142
-452.968	566.431	0.126	0.304
-451.953	-11.755	-0.224	-0.145
-450.938	-13.750	-0.283	0.181
-449.924	122.729	0.133	-0.165
-448.909	-138.432	0.058	0.006
-447.895	-200.000	0.014	-0.138
-446.880	-71.036	0.328	0.122
-445.865	-6.733	0.219	-0.148
-444.851	-200.000	0.037	-0.339
-443.836	-49.772	-0.082	-0.039
-442.822	40.435	-0.261	-0.233
-441.807	8.614	0.058	-0.044
-440.792	-46.077	-0.405	-0.198
-439.778	33.698	0.198	-0.170
-438.763	60.928	0.086	-0.084
-437.749	-200.000	0.019	-0.222
-436.734	-118.338	0.358	-0.063
-435.719	-46.782	-0.305	-0.148
-434.705	262.967	-0.092	0.159
-433.690	-102.550	0.249	0.059
-432.676	347.834	0.271	-0.529
-431.661	-139.739	0.328	-0.034
-430.646	800.000	-0.157	0.603
-429.632	175.936	-0.064	0.092
-428.617	-50.270	0.215	0.101
-427.603	128.644	0.385	-0.486
-426.588	87.604	0.278	-0.304
-425.573	262.169	0.040	-0.068
-424.559	-11.291	-0.235	0.153
-423.544	-160.751	-0.199	0.010
-422.530	-200.000	0.016	0.177
-421.515	519.350	0.075	0.173
-420.500	-200.000	0.000	-0.038
-419.486	536.080	0.133	-0.311
-418.471	-200.000	-0.037	-0.185
-417.457	-200.000	-0.009	0.133
-416.442	800.000	-0.035	-0.116
-415.428	-6.039	0.179	-0.121
-414.413	86.794	0.135	0.147
-413.398	643.322	-0.035	0.088
-412.384	59.476	0.229	0.223
-411.369	-94.675	0.078	0.021
-410.355	-67.611	0.300	-0.116
-409.340	-200.000	0.001	0.098
-408.325	12.157	0.121	-0.092
-407.311	105.168	-0.081	0.094
-406.296	491.232	-0.165	-0.374
-405.282	197.389	-0.190	0.287
-404.267	429.520	0.114	0.244
-403.252	30.933	-0.193	0.164
-402.238	-43.925	-0.196	0.098
-401.223	-39.376	-0.224	0.116
-400.209	20.232	0.226	0.181
-399.194	33.333	-0.227	0.195
-398.179	63.036	0.107	-0.106
-397.165	-46.134	-0.167	0.081
-396.150	-110.298	0.377	0.078
-395.136	-20.713	0.137	-0.083
-394.121	-99.336	-0.140	-0.035
-393.106	-200.000	-0.025	0.139
-392.092	-12.389	-0.121	0.078
-391.077	-48.633	-0.275	-0.131
-390.063	53.603	-0.195	-0.185
-389.048	-200.000	0.005	-0.107
-388.033	-186.494	0.367	0.005
-387.019	-12.160	0.149	0.096
-386.004	129.533	0.086	0.108
-384.990	-133.569	0.260	-0.032
-383.975	-200.000	0.025	-0.131
-382.960	-200.000	-0.035	0.160
-381.946	-74.646	0.029	-0.010
-380.931	117.391	0.239	-0.291
-379.917	-111.828	0.514	-0.103
-378.902	-200.000	0.006	-0.180
-377.888	-10.959	-0.132	-0.086
-376.873	175.506	0.343	0.491
-375.858	-200.000	-0.045	0.209
-374.844	0.645	0.091	0.064
-373.829	2.041	0.142	-0.101
-372.815	-200.000	0.020	-0.094
-371.800	-38.912	0.119	0.062
-370.785	-131.905	0.553	-0.071
-369.771	-69.739	-0.114	0.043
-368.756	336.504	-0.073	0.140
-367.742	-89.518	0.149	-0.043
-366.727	384.884	0.118	0.240
-365.712	-89.024	-0.308	-0.090
-364.698	-200.000	0.013	0.147
-363.683	-88.785	-0.259	-0.076
-362.669	-104.645	-0.158	-0.036
-361.654	26.414	0.444	0.367
-360.639	800.000	0.170	0.472
-359.625	-200.000	-0.023	0.116
-358.610	-200.000	-0.053	-0.235
-357.596	-61.747	0.135	-0.056
-356.581	-25.689	-0.227	0.132
-355.566	364.216	0.085	-0.169
-354.552	-40.276	-0.227	0.117
-353.537	154.802	-0.234	0.317
-352.523	186.174	-0.115	-0.169
-351.508	-200.000	-0.033	-0.223
-350.493	-200.000	-0.010	-0.215
-349.479	143.444	0.070	-0.092
-348.464	800.000	-0.018	-0.051
-347.450	-8.832	-0.129	-0.085
-346.435	31.216	-0.116	0.098
-345.420	-200.000	-0.010	-0.224
-344.406	555.729	-0.072	-0.172
-343.391	800.000	-0.075	0.290
-342.377	12.065	-0.081	0.062
-341.362	776.134	-0.072	-0.194
-340.348	-200.000	0.001	0.109
-339.333	86.243	0.231	0.251
-338.318	-97.693	0.244	-0.062
-337.304	3.325	0.139	0.100
-336.289	5.691	-0.271	-0.198
-335.275	-112.331	0.212	0.042
-334.260	-188.515	-0.199	0.002
-333.245	-49.700	0.395	-0.185
-332.231	800.000	-0.056	0.218
-331.216	-61.952	-0.439	0.181
-330.202	702.160	-0.018	-0.047
-329.187	-21.588	0.114	0.069
-328.172	93.034	-0.112	-0.124
-327.158	743.533	0.051	-0.135
-326.143	-143.108	0.264	0.025
-325.129	-182.852	-0.302	-0.005
-324.114	-54.399	0.187	0.084
-323.099	365.181	-0.036	-0.072
-322.085	212.001	0.190	0.295
-321.070	338.360	0.161	-0.309
-320.056	800.000	0.026	0.093
-319.041	-200.000	0.006	0.093
-318.026	-20.365	0.154	-0.094
-317.012	-77.017	0.320	-0.110
-315.997	-15.047	-0.295	0.186
-314.983	800.000	0.063	-0.210
-313.968	-156.127	0.037	-0.002
-312.953	-183.466	0.086	0.001
-311.939	-66.341	-0.311	0.122
-310.924	-13.166	-0.286	0.183
-309.910	-6.383	0.067	0.045
-308.895	100.116	0.209	0.239
-307.880	109.046	-0.062	-0.074
-306.866	800.000	-0.093	-0.293
-305.851	800.000	0.065	0.177
-304.837	-144.717	0.514	0.047
-303.822	505.755	-0.033	-0.075
-302.807	-41.052	-0.187	-0.095
-301.793	-98.030	0.091	0.023
-300.778	-57.033	0.198	0.086
-299.764	-200.000	-0.009	0.126
-298.749	-200.000	0.017	0.128
-297.735	-200.000	-0.007	0.229
-296.720	-104.676	-0.057	-0.013
-295.705	-60.181	-0.185	0.078
-294.691	-172.006	0.329	0.011
-293.676	-200.000	-0.028	0.185
-292.662	-87.854	0.214	0.063
-291.647	244.754	-0.148	-0.245
-290.632	-60.248	0.028	-0.012
-289.618	162.966	-0.089	-0.123
-288.603	172.819	0.239	-0.339
-287.589	8.010	0.180	-0.133
-286.574	108.554	0.181	0.212
-285.559	576.997	-0.062	0.149
-284.545	-112.766	-0.114	0.022
-283.530	-7.083	0.047	0.031
-282.516	-1.638	-0.440	0.305
-281.501	252.923	-0.107	0.180
-280.486	313.289	-0.069	-0.128
-279.472	79.002	0.041	0.043
-278.457	-126.146	0.051	0.008
-277.443	-200.000	0.007	0.277
-276.428	-200.000	-0.019	0.169
-275.413	136.079	0.153	0.197
-274.399	28.068	0.106	-0.088
-273.384	-200.000	-0.033	0.154
-272.370	16.701	0.022	-0.017
-271.355	-11.864	0.078	-0.050
-270.340	-22.158	-0.058	0.035
-269.326	69.429	-0.269	-0.273
-268.311	-200.000	-0.021	0.122
-267.297	800.000	-0.082	0.299
-266.282	-200.000	-0.004	-0.174
-265.267	260.281	-0.014	0.023
-264.253	-63.472	0.174	-0.070
-263.238	-31.270	-0.402	-0.223
-262.224	800.000	0.022	-0.083
-261.209	82.651	0.269	0.287
-260.195	5.388	-0.326	0.237
-259.180	51.717	0.313	0.292
-258.165	-112.976	-0.293	0.057
-257.151	-43.698	0.295	-0.146
-256.136	-43.549	-0.518	0.257
-255.122	13.303	-0.270	-0.206
-254.107	240.061	0.020	-0.033
-253.092	24.857	-0.049	0.040
-252.078	433.865	0.051	0.109
-251.063	93.070	0.052	-0.058
-250.049	91.429	0.163	0.180
-249.034	-200.000	-0.061	-0.271
-248.019	-200.000	-0.084	-0.459
-247.005	-143.692	-0.346	-0.032
-245.990	-59.959	-0.216	-0.091
-244.976	-45.897	-0.117	0.057
-243.961	-200.000	-0.006	0.064
-242.946	-55.212	-0.191	-0.084
-241.932	6.691	0.069	0.050
-240.917	506.478	-0.105	0.240
-239.903	-97.609	0.462	-0.118
-238.888	-87.707	0.103	0.031
-237.873	-3.646	0.068	0.046
-236.859	-48.350	-0.251	0.119
-235.844	434.265	-0.094	0.200
-234.830	179.697	-0.164	0.235
-233.815	211.863	-0.094	0.146
-232.800	-107.121	0.264	0.057
-231.786	40.051	0.128	-0.113
-230.771	422.593	0.104	0.219
-229.757	-2.760	0.220	-0.151
-228.742	800.000	0.066	0.258
-227.727	30.366	-0.105	-0.088
-226.713	-200.000	-0.094	-0.568
-225.698	346.913	0.078	-0.151
-224.684	-73.257	0.081	0.029
-223.669	173.791	0.056	0.079
-222.655	-200.000	0.040	0.219
-221.640	-200.000	-0.044	0.216
-220.625	59.997	-0.074	-0.072
-219.611	-200.000	-0.005	-0.135
-218.596	40.878	0.074	0.066
-217.582	-104.890	-0.106	-0.024
-216.567	-32.532	-0.217	0.119
-215.552	172.674	-0.086	0.122
-214.538	-200.000	0.051	0.283
-213.523	497.734	0.073	0.165
-212.509	-26.163	-0.078	-0.045
-211.494	89.661	-0.162	0.177
-210.479	-111.014	-0.152	0.031
-209.465	-200.000	0.048	0.267
-208.450	-169.242	0.133	0.005
-207.436	146.261	-0.036	0.047
-206.421	-144.060	-0.197	0.018
-205.406	-13.832	0.124	0.079
-204.392	-156.769	-0.070	-0.004
-203.377	19.828	-0.176	-0.139
-202.363	-200.000	0.013	-0.186
-201.348	-41.163	-0.086	-0.044
-200.333	-124.987	-0.125	0.019
-199.319	311.326	-0.069	-0.127
-198.304	69.483	0.205	-0.207
-197.290	-25.826	-0.540	0.312
-196.275	130.195	-0.138	0.174
-195.260	167.126	-0.133	-0.185
-194.246	154.313	-0.159	0.215
-193.231	117.402	0.251	-0.303
-192.217	101.223	0.301	-0.344
-191.202	48.469	-0.056	-0.051
-190.187	534.305	-0.048	0.112
-189.173	1.464	0.495	0.349
-188.158	800.000	0.084	-0.284
-187.144	171.988	-0.262	-0.369
-186.129	800.000	-0.083	0.260
-185.114	-152.178	-0.092	0.007
-184.100	-63.810	-0.196	-0.079
-183.085	-200.000	-0.003	0.127
-182.071	-68.608	0.048	0.018
-181.056	67.418	0.220	-0.220
-180.042	800.000	-0.050	0.211
-179.027	-30.551	0.316	0.176
-178.012	-10.617	-0.154	0.100
-176.998	170.655	0.125	-0.175
-175.983	-200.000	-0.004	-0.156
-174.969	-142.885	-0.095	-0.009
-173.954	328.067	-0.012	0.022
-172.939	-142.337	-0.179	0.017
-171.925	-73.706	-0.230	0.082
-170.910	288.224	-0.204	0.362
-169.896	-117.190	0.089	-0.016
-168.881	208.910	-0.066	0.102
-167.866	-132.196	0.130	0.017
-166.852	-9.807	0.257	0.168
-165.837	107.573	-0.188	-0.220
-164.823	329.476	0.072	0.136
-163.808	-107.304	-0.242	0.052
-162.793	438.015	0.067	-0.143
-161.779	446.066	0.169	-0.364
-160.764	2.955	0.278	-0.198
-159.750	-176.487	0.366	-0.009
-158.735	-144.563	0.210	-0.019
-157.720	-147.652	-0.214	0.018
-156.706	-171.003	0.120	0.004
-155.691	-95.569	-0.127	-0.033
-154.677	-200.000	0.008	0.089
-153.662	290.530	-0.053	0.094
-152.647	-138.999	-0.134	-0.014
-151.633	800.000	-0.065	-0.277
-150.618	800.000	0.032	0.095
-149.604	-136.596	0.273	0.031
-148.589	-61.425	-0.224	-0.092
-147.574	236.593	-0.125	-0.202
-146.560	-88.884	-0.236	0.069
-145.545	-200.000	0.058	0.284
-144.531	483.566	0.046	-0.103
-143.516	93.268	-0.044	0.049
-142.502	643.249	-0.169	0.421
-141.487	137.318	0.173	-0.222
-140.472	-24.476	-0.139	-0.081
-139.458	61.214	0.134	0.131
-138.443	-200.000	-0.027	-0.393
-137.429	-200.000	0.050	0.241
-136.414	-73.615	0.079	-0.028
-135.399	-143.504	0.408	-0.038
-134.385	-64.330	-0.304	0.121
-133.370	-104.142	-0.118	0.027
-132.356	21.488	0.037	0.029
-131.341	800.000	0.074	-0.206
-130.326	-11.393	0.278	0.179
-129.312	-200.000	-0.009	0.222
-128.297	210.745	0.109	0.168
-127.283	-200.000	-0.007	-0.122
-126.268	-134.099	0.049	0.006
-125.253	-99.780	-0.070	0.017
-124.239	-144.015	0.370	0.034
-123.224	-200.000	-0.005	0.077
-122.210	-58.453	0.011	-0.005
-121.195	217.523	0.097	-0.152
-120.180	-120.177	-0.265	-0.044
-119.166	-138.484	0.172	-0.018
-118.151	800.000	-0.094	-0.296
-117.137	50.030	-0.223	0.206
-116.122	800.000	0.074	0.275
-115.107	-93.993	0.208	0.056
-114.093	456.586	-0.215	0.466
-113.078	463.215	0.036	-0.078
-112.064	-53.352	-0.217	-0.097
-111.049	-200.000	-0.003	0.120
-110.034	-200.000	0.023	0.254
-109.020	-8.800	0.300	-0.197
-108.005	-78.744	-0.236	-0.079
-106.991	268.667	0.137	-0.235
-105.976	103.698	-0.046	-0.053
-104.962	142.257	-0.009	-0.011
-103.947	99.893	-0.164	-0.185
-102.932	-200.000	-0.038	0.303
-101.918	-22.613	-0.173	-0.102
-100.903	-65.870	0.352	0.138
-99.889	6.769	0.227	0.165
-98.874	407.608	0.172	-0.356
-97.859	146.247	-0.147	0.192
-96.845	-17.097	-0.128	-0.079
-95.830	145.312	-0.105	0.137
-94.816	-174.572	0.433	0.012
-93.801	634.374	-0.067	-0.166
-92.786	35.576	-0.111	0.095
-91.772	401.027	-0.054	-0.111
-90.757	-71.404	0.058	-0.021
-89.743	-120.395	-0.078	0.013
-88.728	-200.000	0.000	0.278
-87.713	-92.252	-0.133	-0.037
-86.699	21.544	0.163	-0.130
-85.684	-117.270	0.275	0.049
-84.670	94.709	0.206	-0.229
-83.655	142.974	-0.281	-0.365
-82.640	-200.000	0.047	-0.306
-81.626	800.000	0.019	-0.078
-80.611	-160.826	-0.079	0.004
-79.597	140.272	-0.120	-0.155
-78.582	98.637	-0.072	-0.081
-77.567	-200.000	0.000	-0.006
-76.553	-77.911	0.209	-0.071
-75.538	174.243	0.094	0.133
-74.524	-196.683	-0.354	-0.002
-73.509	-40.930	-0.136	0.069
-72.494	8.721	0.120	-0.088
-71.480	1.161	-0.162	-0.113
-70.465	234.887	-0.208	-0.335
-69.451	276.518	-0.013	-0.022
-68.436	169.957	-0.184	0.256
-67.422	72.036	0.148	0.150
-66.407	-6.516	-0.133	-0.089
-65.392	800.000	-0.034	-0.124
-64.378	-84.720	0.163	-0.050
-63.363	-200.000	-0.040	-0.242
-62.349	11.029	0.060	-0.044
-61.334	196.241	-0.686	-1.019
-60.319	-30.881	0.816	0.450
-59.305	800.000	-0.515	-1.435
-58.290	298.993	0.763	1.371
-57.276	293.929	0.754	1.343
-56.261	-200.000	125.738	672.026
-55.246	428.429	1571.832	3312.427
-54.232	143.478	2720.683	3534.372
-53.217	96.812	2146.495	2399.389
-52.203	34.862	1582.921	1350.998
-51.188	26.486	1328.313	1083.725
-50.173	23.955	1290.975	1038.467
-49.159	52.147	1360.872	1265.136
-48.144	48.786	1372.109	1255.382
-47.130	26.611	1319.681	1077.260
-46.115	23.409	1300.866	1043.046
-45.100	23.180	1295.700	1037.521
-44.086	23.050	1293.680	1035.100
-43.071	23.114	1290.941	1033.240
-42.057	23.077	1289.015	1031.442
-41.042	23.111	1287.289	1030.222
-40.027	23.224	1285.998	1029.803
-39.013	23.154	1283.775	1027.577
-37.998	23.225	1281.884	1026.435
-36.984	23.192	1280.755	1025.299
-35.969	23.239	1278.783	1023.948
-34.954	23.282	1277.005	1022.734
-33.940	23.318	1275.367	1021.586
-32.925	23.411	1274.150	1021.107
-31.911	23.303	1273.171	1019.659
-30.896	23.301	1271.963	1018.645
-29.881	23.387	1270.835	1018.191
-28.867	23.385	1268.998	1016.668
-27.852	23.376	1267.785	1015.608
-26.838	23.402	1266.365	1014.574
-25.823	23.381	1265.482	1013.710
-24.809	23.378	1263.451	1012.027
-23.794	23.320	1262.765	1011.103
-22.779	23.366	1261.023	1009.933
-21.765	23.419	1259.636	1009.080
-20.750	23.424	1258.400	1008.083
-19.736	23.215	1257.352	1006.012
-18.721	23.323	1255.992	1005.499
-17.706	23.195	1254.860	1003.823
-16.692	23.237	1253.787	1003.168
-15.677	23.218	1253.044	1002.422
-14.663	23.224	1251.345	1001.058
-13.648	23.190	1250.480	1000.133
-12.633	23.240	1249.640	999.705
-11.619	23.284	1248.915	999.336
-10.604	23.262	1248.272	998.655
-9.590	23.218	1246.984	997.339
-8.575	23.209	1246.157	996.588
-7.560	23.201	1245.074	995.637
-6.546	23.186	1244.566	995.103
-5.531	23.317	1243.338	994.820
-4.517	23.148	1243.092	993.636
-3.502	23.223	1242.197	993.301
-2.487	23.166	1241.474	992.362
-1.473	23.127	1236.822	988.385
-0.458	21.504	1222.006	967.542
0.556	16.605	1206.408	931.388
1.571	13.260	1213.869	918.513
2.586	12.506	1230.062	926.433
3.600	12.533	1217.526	917.061
4.615	9.104	1146.315	845.321
5.629	3.102	1076.696	764.161
6.644	0.255	1060.640	738.749
7.659	0.197	1058.323	736.787
8.673	0.161	1057.517	735.987
9.688	0.067	1056.207	734.549
10.702	0.370	1053.176	733.852
11.717	3.922	1057.962	754.466
12.731	10.947	1066.804	795.147
13.746	15.782	1072.644	823.143
14.761	16.673	1074.430	828.803
15.775	16.113	1072.497	824.501
16.790	14.986	1070.668	817.521
17.804	14.339	1068.823	812.883
18.819	14.152	1067.759	811.086
19.834	13.936	1066.732	809.185
20.848	13.686	1065.888	807.254
21.863	13.448	1064.669	805.105
22.877	13.331	1064.461	804.308
23.892	13.163	1063.615	802.779
24.907	13.117	1062.976	802.005
25.921	13.267	1062.145	802.032
26.936	13.217	1061.644	801.341
27.950	13.332	1060.464	800.937
28.965	13.297	1059.243	799.772
29.980	13.412	1057.732	799.120
30.994	13.406	1056.564	798.137
32.009	13.537	1056.325	798.516
33.023	13.449	1054.978	797.003
34.038	13.455	1053.709	796.003
35.053	13.431	1053.339	795.538
36.067	13.375	1052.283	794.402
37.082	13.328	1051.674	793.647
38.096	13.319	1051.371	793.304
39.111	13.305	1050.307	792.365
40.126	13.178	1049.078	790.756
41.140	13.200	1047.963	789.955
42.155	13.199	1046.874	789.059
43.169	13.238	1045.719	788.303
44.184	13.171	1044.584	787.060
45.199	13.211	1043.921	786.679
46.213	13.224	1042.650	785.712
47.228	13.285	1041.242	784.876
48.242	13.249	1040.883	784.361
49.257	13.169	1039.485	782.863
50.271	13.236	1038.273	782.195
51.286	13.368	1037.333	782.044
52.301	13.390	1036.440	781.403
53.315	13.238	1035.689	780.052
54.330	13.256	1034.784	779.387
55.344	13.333	1033.895	779.012
56.359	13.238	1033.004	777.825
57.374	13.275	1031.971	777.151
58.388	13.253	1030.951	776.208
59.403	13.182	1030.381	775.377
60.417	13.268	1029.256	774.865
61.432	13.265	1028.635	774.316
62.447	13.171	1027.880	773.241
63.461	13.077	1027.457	772.414
64.476	13.055	1026.402	771.448
65.490	13.099	1025.797	771.133
66.505	13.158	1025.030	770.762
67.520	13.358	1023.812	770.712
68.534	13.234	1023.516	769.843
69.549	13.181	1022.971	769.116
70.563	13.185	1021.838	768.214
71.578	13.046	1021.277	767.077
72.593	13.113	1020.265	766.564
73.607	13.065	1019.815	765.934
74.622	13.134	1019.038	765.602
75.636	13.129	1018.656	765.225
76.651	12.979	1018.167	764.097
77.666	12.957	1017.855	763.693
78.680	13.061	1017.038	763.491
79.695	13.168	1016.296	763.360
80.709	13.181	1015.450	762.719
81.724	13.243	1014.589	762.292
82.739	13.215	1013.908	761.583
83.753	13.207	1013.480	761.154
84.768	13.297	1012.556	760.811
85.782	13.422	1010.995	760.142
86.797	13.336	1010.611	759.392
87.812	13.329	1009.335	758.334
88.826	13.367	1008.659	757.931
89.841	13.339	1007.708	757.022
90.855	13.388	1007.273	756.854
91.870	13.470	1005.784	756.044
92.884	13.533	1005.149	755.785
93.899	13.391	1004.510	754.591
94.914	13.386	1003.941	754.073
95.928	13.349	1002.764	752.954
96.943	13.303	1002.059	752.149
97.957	13.386	1001.477	752.024
98.972	13.389	1000.574	751.294
99.987	13.375	999.474	750.335
101.001	13.477	998.675	750.132
102.016	13.385	997.091	748.460
103.030	13.353	996.994	748.177
104.045	13.383	996.131	747.598
105.060	13.387	995.178	746.837
106.074	13.356	994.067	745.797
107.089	13.279	992.996	744.580
108.103	13.186	992.906	744.026
109.118	13.305	991.338	743.323
110.133	13.291	990.189	742.329
111.147	13.289	989.506	741.746
112.162	13.338	988.839	741.400
113.176	13.233	988.328	740.482
114.191	13.355	987.082	740.025
115.206	13.295	986.523	739.275
116.220	13.397	985.470	738.874
117.235	13.386	984.815	738.268
118.249	13.237	983.765	736.751
119.264	13.394	982.942	736.772
120.279	13.365	982.410	736.176
121.293	13.457	981.240	735.642
122.308	13.325	980.864	734.711
123.322	13.291	979.557	733.516
124.337	13.284	978.548	732.662
125.352	13.253	977.424	731.622
126.366	13.274	976.895	731.252
127.381	13.326	975.434	730.323
128.395	13.290	974.670	729.528
129.410	13.308	973.762	728.863
130.424	13.261	972.978	728.004
131.439	13.334	972.100	727.608
132.454	13.298	971.145	726.670
133.468	13.378	970.315	726.334
134.483	13.336	969.703	725.627
135.497	13.229	969.083	724.631
136.512	13.324	967.977	724.154
137.527	13.373	967.110	723.659
138.541	13.422	966.523	723.366
139.556	13.329	965.948	722.469
140.570	13.538	964.918	722.544
141.585	13.505	964.222	721.816
142.600	13.518	963.131	720.990
143.614	13.522	962.038	720.126
144.629	13.575	961.920	720.206
145.643	13.564	961.052	719.442
146.658	13.547	959.819	718.385
147.673	13.481	958.864	717.320
148.687	13.536	958.009	716.853
149.702	13.635	956.682	716.225
150.716	13.516	956.387	715.429
151.731	13.459	955.893	714.751
152.746	13.592	954.927	714.537
153.760	13.521	954.801	714.072
154.775	13.538	954.172	713.612
155.789	13.686	953.232	713.482
156.804	13.662	952.366	712.670
157.819	13.745	951.972	712.668
158.833	13.685	951.290	711.836
159.848	13.774	950.455	711.531
160.862	13.598	949.570	710.050
161.877	13.549	948.547	709.014
162.892	13.580	947.565	708.348
163.906	13.547	946.947	707.683
164.921	13.545	946.225	707.073
165.935	13.715	944.832	706.694
166.950	13.659	944.363	706.040
167.964	13.790	943.405	705.820
168.979	13.606	942.724	704.466
169.994	13.683	941.561	703.862
171.008	13.794	940.643	703.585
172.023	13.908	939.970	703.500
173.037	13.923	939.226	702.944
174.052	13.907	939.012	702.657
175.067	13.794	938.241	701.538
176.081	13.658	937.824	700.589
177.096	13.616	937.477	700.091
178.110	13.726	936.599	699.840
179.125	13.845	935.692	699.600
180.140	13.949	934.977	699.441
181.154	13.804	935.001	698.786
182.169	13.855	934.517	698.579
183.183	13.993	933.484	698.325
184.198	13.900	932.951	697.474
185.213	13.930	932.147	696.936
186.227	13.898	931.750	696.444
187.242	13.905	930.960	695.822
188.256	13.961	930.453	695.614
189.271	14.008	929.601	695.112
190.286	13.885	928.941	694.046
191.300	13.767	928.080	692.845
192.315	13.831	927.232	692.418
193.329	13.760	927.137	691.989
194.344	13.960	926.070	691.966
195.359	13.857	925.892	691.341
196.373	14.018	925.318	691.524
197.388	14.022	924.741	691.048
198.402	14.058	924.305	690.812
199.417	14.139	923.640	690.591
200.432	14.204	922.933	690.269
201.446	14.190	922.392	689.744
202.461	14.224	922.097	689.604
203.475	14.342	921.125	689.304
204.490	14.216	920.649	688.367
205.504	14.154	919.692	687.334
206.519	14.108	919.124	686.659
207.534	14.107	918.497	686.126
208.548	14.200	917.593	685.774
209.563	14.214	917.156	685.444
210.577	14.271	916.270	684.955
211.592	14.238	915.470	684.160
212.607	14.321	914.631	683.812
213.621	14.263	914.201	683.195
214.636	14.425	913.384	683.188
215.650	14.269	913.015	682.212
216.665	14.420	912.042	682.043
217.680	14.420	911.446	681.536
218.694	14.425	910.893	681.082
219.709	14.420	910.597	680.778
220.723	14.400	909.580	679.880
221.738	14.457	908.752	679.431
222.753	14.449	908.293	678.995
223.767	14.442	907.822	678.554
224.782	14.468	906.959	677.957
225.796	14.534	906.808	678.048
226.811	14.621	905.605	677.443
227.826	14.555	905.198	676.811
228.840	14.549	904.123	675.925
229.855	14.582	903.371	675.436
230.869	14.592	902.454	674.731
231.884	14.409	901.855	673.485
232.899	14.547	901.495	673.711
233.913	14.614	900.555	673.219
234.928	14.537	899.996	672.434
235.942	14.656	899.616	672.570
236.957	14.571	899.243	671.888
237.972	14.409	899.195	671.140
238.986	14.461	898.094	670.469
240.001	14.634	896.977	670.269
241.015	14.670	896.518	670.011
242.030	14.681	895.699	669.387
243.045	14.704	895.048	668.934
244.059	14.745	894.719	668.789
245.074	14.786	894.445	668.691
246.088	14.646	893.494	667.361
247.103	14.730	892.692	667.037
248.117	14.816	892.321	667.048
249.132	14.728	891.925	666.339
250.147	14.861	891.001	666.119
251.161	14.878	890.506	665.757
252.176	14.830	890.203	665.280
253.190	15.052	888.890	665.124
254.205	14.979	888.703	664.636
255.220	14.970	887.783	663.855
256.234	15.069	887.176	663.735
257.249	15.022	886.757	663.173
258.263	14.896	886.328	662.298
259.278	15.099	885.010	662.056
260.293	15.201	884.256	661.837
261.307	15.190	883.838	661.422
262.322	15.264	882.974	661.010
263.336	15.150	882.772	660.350
264.351	15.281	881.996	660.227
265.366	15.268	881.182	659.508
266.380	15.242	880.735	659.012
267.395	15.255	879.906	658.385
268.409	15.240	878.932	657.536
269.424	15.246	878.380	657.088
270.439	15.279	877.651	656.616
271.453	15.241	876.796	655.770
272.468	15.418	876.245	655.990
273.482	15.277	875.931	655.149
274.497	15.262	875.171	654.461
275.512	15.457	874.673	654.791
276.526	15.368	874.179	654.019
277.541	15.407	873.796	653.824
278.555	15.312	873.110	652.883
279.570	15.440	872.617	652.954
280.585	15.509	872.075	652.760
281.599	15.498	870.805	651.711
282.614	15.418	870.368	651.015
283.628	15.414	869.831	650.541
284.643	15.494	869.351	650.434
285.657	15.516	868.364	649.722
286.672	15.271	868.008	648.452
287.687	15.527	867.288	648.844
288.701	15.624	866.590	648.642
289.716	15.555	866.032	647.897
290.730	15.652	865.345	647.701
291.745	15.478	865.206	646.869
292.760	15.648	864.287	646.779
293.774	15.635	863.529	646.106
294.789	15.629	863.053	645.669
295.803	15.639	862.180	644.998
296.818	15.534	861.914	644.338
297.833	15.653	861.073	644.107
298.847	15.595	860.264	643.224
299.862	15.691	859.733	643.136
300.876	15.656	859.674	642.903
301.891	15.919	858.718	643.135
302.906	15.836	858.300	642.450
303.920	15.918	857.947	642.438
304.935	15.974	857.083	641.952
305.949	15.802	856.504	640.804
306.964	15.901	855.594	640.442
307.979	15.857	855.107	639.854
308.993	15.876	854.807	639.647
310.008	15.838	854.518	639.230
311.022	16.088	853.340	639.239
312.037	16.004	852.878	638.518
313.052	15.866	852.576	637.712
314.066	15.911	851.847	637.281
315.081	15.777	851.722	636.624
316.095	15.834	850.904	636.173
317.110	15.919	850.358	636.030
318.125	15.865	849.614	635.213
319.139	15.956	848.987	635.030
320.154	16.050	848.541	634.994
321.168	16.072	848.076	634.673
322.183	15.976	847.403	633.751
323.197	16.152	847.179	634.193
324.212	16.042	846.729	633.385
325.227	16.007	846.054	632.690
326.241	16.179	845.033	632.519
327.256	16.057	844.655	631.723
328.270	16.006	844.448	631.320
329.285	15.944	843.903	630.626
330.300	16.153	843.025	630.695
331.314	16.029	842.718	629.943
332.329	16.105	842.061	629.681
333.343	16.021	842.005	629.270
334.358	16.272	841.376	629.683
335.373	16.333	840.579	629.256
336.387	16.191	840.376	628.518
337.402	16.226	840.614	628.771
338.416	16.268	839.971	628.393
339.431	16.302	839.600	628.185
340.446	16.428	838.847	628.035
341.460	16.257	839.195	627.604
342.475	16.297	838.384	627.092
343.489	16.378	837.782	626.884
344.504	16.563	837.310	627.164
345.519	16.468	836.731	626.322
346.533	16.430	836.186	625.718
347.548	16.465	835.707	625.433
348.562	16.405	835.281	624.839
349.577	16.479	834.502	624.472
350.592	16.487	833.598	623.769
351.606	16.335	833.419	623.020
352.621	16.497	832.778	623.085
353.635	16.406	832.383	622.399
354.650	16.446	831.194	621.601
355.665	16.518	830.870	621.567
356.679	16.568	830.365	621.320
357.694	16.499	829.555	620.406
358.708	16.567	829.046	620.217
359.723	16.611	828.149	619.652
360.738	16.651	827.993	619.630
361.752	16.574	827.289	618.767
362.767	16.663	826.642	618.552
363.781	16.758	825.912	618.296
364.796	16.851	825.423	618.216
365.810	16.724	825.442	617.713
366.825	16.827	824.867	617.604
367.840	16.707	825.047	617.247
368.854	16.645	824.445	616.513
369.869	16.780	823.886	616.534
370.883	16.921	823.350	616.589
371.898	16.926	822.979	616.275
372.913	16.846	822.429	615.520
373.927	16.985	821.926	615.591
374.942	16.884	821.527	614.874
375.956	16.883	821.114	614.507
376.971	16.986	820.549	614.403
377.986	17.070	819.992	614.236
379.000	17.202	819.537	614.318
380.015	16.984	819.160	613.191
381.029	17.065	818.786	613.151
382.044	17.012	818.138	612.419
383.059	17.098	817.448	612.159
384.073	17.090	817.155	611.855
385.088	17.152	816.215	611.321
386.102	17.239	815.482	611.031
387.117	16.986	815.272	609.912
388.132	17.081	814.811	609.853
389.146	17.233	813.862	609.634
390.161	17.235	814.111	609.774
391.175	17.187	813.308	608.947
392.190	17.261	812.517	608.565
393.205	17.035	812.359	607.583
394.219	17.089	812.248	607.641
395.234	17.198	811.461	607.389
396.248	17.225	811.340	607.339
397.263	17.085	810.770	606.359
398.278	17.145	810.317	606.182
399.292	17.228	809.819	606.050
400.307	17.056	809.260	604.966
401.321	17.203	809.065	605.290
402.336	17.244	808.257	604.777
403.350	17.159	807.892	604.148
404.365	17.382	807.564	604.644
405.380	17.293	806.992	603.844
406.394	17.354	806.482	603.627
407.409	17.470	806.061	603.671
408.423	17.352	806.013	603.163
409.438	17.520	805.367	603.219
410.453	17.522	805.113	602.984
411.467	17.525	804.382	602.395
412.482	17.570	803.893	602.134
413.496	17.658	803.616	602.183
414.511	17.618	803.393	601.822
415.526	17.600	802.618	601.123
416.540	17.590	802.366	600.847
417.555	17.720	801.955	600.946
418.569	17.632	801.707	600.396
419.584	17.794	800.917	600.319
420.599	17.588	800.695	599.376
421.613	113.930	1299.226	1487.194
422.628	98.213	1371.845	1487.259
