DTS Sentinel unit serial number:	SN413079Multiplexer serial number:	ORYXHardware model number:	OX4-SRSoftware version number:	ORYX F/W v4.00 Oryx Data Collector v3.7.2.0data status	okinstallation	princeton_trtdifferential loss correction	single-endedforward channel	channel 1reverse channel	N/Adate	2019/09/19time	05:46:35forward acquisition time	60.00reverse acquisition time	0.00gamma	496.2192k internal	0.2343k external	0.2343temperature offset calibration	1.0022default loss term (dB/km)	0.3790temperature slope calibration	1.0000multiplexer offset coefficient	1.0000multiplexer slope coefficient	1.0000fibre end	0.00T internal ref (°C)	19.25T ext. ref 1 (°C)	0.59T ext. ref 2 (°C)	12.96length (m)	temperature (°C)	Stokes	anti-Stokes-747.200	583.071	-0.081	0.200
-746.185	-200.000	-0.019	0.183
-745.171	-173.951	0.036	0.001
-744.156	-148.976	-0.275	0.022
-743.142	-200.000	-0.018	0.247
-742.127	-200.000	0.017	0.192
-741.112	-200.000	-0.052	0.374
-740.098	164.814	0.244	-0.345
-739.083	800.000	0.059	0.184
-738.069	-200.000	0.032	0.621
-737.054	253.072	0.223	0.382
-736.039	-200.000	0.043	0.221
-735.025	-200.000	-0.010	-0.151
-734.010	41.857	-0.226	-0.206
-732.996	-52.894	-0.247	-0.114
-731.981	158.008	-0.184	0.256
-730.966	-101.739	-0.047	-0.011
-729.952	497.550	-0.012	-0.028
-728.937	-86.523	-0.040	-0.012
-727.923	-154.675	-0.108	0.007
-726.908	800.000	-0.045	0.165
-725.894	800.000	-0.077	0.226
-724.879	94.459	-0.065	0.074
-723.864	-32.161	0.413	0.231
-722.850	4.708	-0.251	0.185
-721.835	274.053	-0.079	0.139
-720.821	-200.000	-0.023	0.247
-719.806	-66.674	-0.343	-0.136
-718.791	-200.000	0.000	0.027
-717.777	-11.355	-0.023	0.015
-716.762	800.000	0.036	-0.128
-715.748	669.407	-0.077	0.199
-714.733	800.000	-0.016	-0.059
-713.718	109.060	0.175	0.209
-712.704	316.438	-0.093	0.176
-711.689	25.960	0.176	0.146
-710.675	-42.176	-0.126	0.065
-709.660	-200.000	0.003	-0.296
-708.645	-101.581	0.240	0.058
-707.631	800.000	0.072	-0.257
-706.616	528.231	0.009	0.022
-705.602	-128.686	0.124	0.017
-704.587	-200.000	0.017	-0.197
-703.572	660.557	0.131	-0.336
-702.558	129.032	-0.066	-0.085
-701.543	496.231	0.089	-0.204
-700.529	-34.387	0.251	-0.138
-699.514	103.967	0.209	0.245
-698.499	-200.000	-0.019	-0.084
-697.485	-90.010	-0.111	-0.032
-696.470	-163.074	0.126	-0.006
-695.456	63.301	0.203	-0.203
-694.441	-34.784	-0.101	-0.055
-693.426	191.636	-0.223	0.335
-692.412	-30.543	-0.254	0.144
-691.397	415.099	-0.066	-0.140
-690.383	-58.544	-0.170	0.074
-689.368	-12.183	0.219	0.143
-688.354	-200.000	-0.000	0.128
-687.339	-87.367	-0.181	0.055
-686.324	-74.379	-0.229	0.083
-685.310	95.827	0.133	0.152
-684.295	58.671	0.125	0.122
-683.281	-137.030	0.068	-0.008
-682.266	-200.000	-0.005	0.155
-681.251	124.375	-0.233	0.292
-680.237	-75.831	-0.327	0.116
-679.222	-95.751	-0.381	0.102
-678.208	11.308	0.164	-0.126
-677.193	261.342	-0.185	0.321
-676.178	407.670	0.094	0.198
-675.164	245.630	0.037	0.063
-674.149	73.629	0.313	-0.327
-673.135	800.000	0.091	-0.309
-672.120	53.369	-0.111	0.106
-671.105	-112.222	0.113	-0.023
-670.091	256.084	-0.068	-0.116
-669.076	-52.100	0.262	-0.121
-668.062	-141.802	-0.250	0.025
-667.047	337.619	-0.096	-0.186
-666.032	143.517	0.221	0.294
-665.018	800.000	-0.044	-0.178
-664.003	-200.000	-0.014	-0.109
-662.989	415.073	-0.017	0.035
-661.974	-99.258	0.386	0.097
-660.959	-200.000	-0.063	-0.339
-659.945	-200.000	0.044	0.363
-658.930	272.770	0.239	0.421
-657.916	-200.000	-0.010	0.088
-656.901	136.696	-0.172	-0.224
-655.886	-130.528	0.054	-0.007
-654.872	50.335	0.100	-0.094
-653.857	-200.000	0.005	-0.044
-652.843	-130.049	-0.438	-0.060
-651.828	800.000	-0.089	0.351
-650.814	-200.000	0.009	0.072
-649.799	413.378	0.043	-0.091
-648.784	800.000	0.114	-0.352
-647.770	-170.030	0.268	0.010
-646.755	-149.606	-0.241	0.019
-645.741	-48.581	0.310	-0.149
-644.726	-54.393	0.115	0.052
-643.711	800.000	-0.105	-0.348
-642.697	158.017	-0.069	0.096
-641.682	-200.000	0.005	0.042
-640.668	-167.963	0.139	-0.005
-639.653	87.910	-0.039	-0.043
-638.638	616.856	-0.025	-0.062
-637.624	-101.926	-0.156	-0.038
-636.609	-189.378	-0.285	-0.003
-635.595	10.063	0.225	-0.170
-634.580	-200.000	-0.007	-0.062
-633.565	-57.396	-0.089	0.039
-632.551	40.756	0.317	-0.285
-631.536	-200.000	-0.012	-0.241
-630.522	-86.580	0.213	0.065
-629.507	194.030	0.174	0.263
-628.492	12.510	0.111	-0.086
-627.478	-200.000	-0.029	-0.183
-626.463	202.241	-0.083	-0.128
-625.449	-93.485	-0.176	-0.049
-624.434	48.096	0.188	0.175
-623.419	102.125	-0.279	0.325
-622.405	-109.241	-0.505	0.107
-621.390	-143.144	0.269	-0.026
-620.376	40.088	-0.395	0.354
-619.361	-87.391	0.235	0.071
-618.346	-86.077	-0.569	-0.175
-617.332	-135.608	0.116	0.014
-616.317	800.000	0.019	-0.054
-615.303	-200.000	0.011	-0.050
-614.288	-23.855	-0.137	-0.082
-613.273	-74.665	-0.137	0.049
-612.259	-19.072	-0.084	0.052
-611.244	-23.183	-0.036	-0.022
-610.230	208.862	-0.095	-0.148
-609.215	-120.480	-0.429	-0.073
-608.201	-129.727	0.149	-0.020
-607.186	-200.000	0.008	-0.076
-606.171	-36.745	0.214	0.114
-605.157	-200.000	-0.047	-0.251
-604.142	261.321	-0.151	0.260
-603.128	160.534	0.097	-0.135
-602.113	18.965	-0.141	0.113
-601.098	126.823	-0.276	-0.349
-600.084	-200.000	-0.026	-0.157
-599.069	-82.932	0.031	0.010
-598.055	-3.691	0.331	-0.229
-597.040	800.000	-0.127	0.359
-596.025	800.000	-0.100	-0.329
-595.011	-21.734	0.058	-0.035
-593.996	3.223	-0.208	0.151
-592.982	-130.785	0.318	0.042
-591.967	-2.952	-0.232	0.161
-590.952	194.895	0.105	-0.159
-589.938	-149.572	0.197	-0.016
-588.923	-125.293	-0.155	-0.024
-587.909	-13.923	0.171	0.110
-586.894	159.818	0.149	-0.207
-585.879	800.000	0.015	-0.056
-584.865	-31.250	0.195	0.109
-583.850	0.961	0.322	0.230
-582.836	-6.550	-0.172	-0.116
-581.821	800.000	-0.078	-0.292
-580.806	9.480	-0.282	-0.212
-579.792	73.684	-0.232	0.242
-578.777	-138.261	-0.577	-0.064
-577.763	-121.540	0.450	-0.074
-576.748	85.606	0.128	0.140
-575.733	37.091	-0.361	0.318
-574.719	69.588	-0.085	0.087
-573.704	201.845	-0.088	0.135
-572.690	614.729	-0.077	0.192
-571.675	-200.000	-0.035	0.192
-570.661	-165.304	0.078	-0.003
-569.646	-110.496	0.337	-0.069
-568.631	234.986	-0.174	0.285
-567.617	-11.459	0.320	0.209
-566.602	43.068	0.142	0.129
-565.588	439.764	-0.188	0.409
-564.573	95.390	0.225	0.255
-563.558	-200.000	-0.023	0.143
-562.544	179.200	-0.193	0.280
-561.529	-200.000	-0.047	-0.270
-560.515	-161.086	-0.491	-0.026
-559.500	16.387	-0.076	0.060
-558.485	-200.000	-0.066	-0.302
-557.471	464.667	-0.103	-0.228
-556.456	26.768	0.081	0.067
-555.442	-124.522	0.115	0.018
-554.427	100.599	0.190	-0.220
-553.412	151.450	0.306	0.414
-552.398	394.842	-0.041	-0.085
-551.383	800.000	0.109	0.339
-550.369	-148.751	0.326	0.026
-549.354	-200.000	-0.014	0.157
-548.339	-200.000	-0.014	0.187
-547.325	139.246	-0.290	0.380
-546.310	-60.454	0.218	-0.092
-545.296	59.293	-0.185	0.181
-544.281	-133.525	-0.235	-0.029
-543.266	663.479	-0.035	-0.090
-542.252	-176.968	0.285	-0.007
-541.237	-200.000	0.063	-0.443
-540.223	-200.000	-0.003	0.130
-539.208	-115.979	0.100	0.019
-538.193	253.102	0.014	-0.024
-537.179	36.150	0.087	0.076
-536.164	-200.000	0.009	-0.429
-535.150	-200.000	-0.004	0.105
-534.135	264.592	0.133	0.230
-533.121	155.196	-0.227	0.311
-532.106	-52.762	-0.117	-0.053
-531.091	800.000	-0.052	-0.164
-530.077	-176.565	-0.082	0.002
-529.062	-83.758	0.496	-0.157
-528.048	-200.000	-0.131	-0.586
-527.033	-100.612	-0.120	-0.029
-526.018	800.000	-0.109	0.418
-525.004	174.958	0.166	0.239
-523.989	21.263	0.146	-0.118
-522.975	-18.329	0.129	-0.080
-521.960	800.000	-0.059	-0.204
-520.945	-200.000	-0.005	0.031
-519.931	214.022	-0.071	0.111
-518.916	-22.242	-0.116	0.070
-517.902	-118.499	-0.149	-0.026
-516.887	46.226	-0.221	0.203
-515.872	88.695	0.348	0.384
-514.858	-200.000	-0.011	0.131
-513.843	-200.000	-0.062	-0.277
-512.829	67.312	-0.196	-0.199
-511.814	-49.248	-0.239	0.114
-510.799	-110.467	0.088	-0.018
-509.785	800.000	-0.097	0.268
-508.770	-122.175	-0.282	0.046
-507.756	-45.593	0.092	-0.045
-506.741	398.741	0.070	0.145
-505.726	800.000	0.090	-0.248
-504.712	-132.137	-0.159	0.020
-503.697	-83.107	-0.043	-0.014
-502.683	-200.000	0.032	0.150
-501.668	-200.000	0.011	-0.282
-500.653	-47.175	-0.050	0.024
-499.639	800.000	0.076	0.289
-498.624	124.840	0.299	0.373
-497.610	-127.627	-0.303	-0.044
-496.595	34.644	-0.207	-0.179
-495.581	145.522	-0.186	-0.246
-494.566	65.395	-0.246	0.247
-493.551	-128.157	0.205	0.029
-492.537	-200.000	-0.034	-0.533
-491.522	65.571	0.159	0.160
-490.508	800.000	0.055	-0.188
-489.493	800.000	-0.061	-0.188
-488.478	194.345	0.043	-0.065
-487.464	-40.680	0.263	-0.135
-486.449	-200.000	0.015	-0.287
-485.435	-56.092	-0.196	0.086
-484.420	800.000	0.027	-0.107
-483.405	-170.484	0.288	-0.010
-482.391	-41.689	-0.138	-0.070
-481.376	192.750	0.039	0.058
-480.362	37.105	-0.291	0.255
-479.347	28.296	0.090	-0.076
-478.332	-200.000	-0.031	-0.144
-477.318	-109.663	-0.279	-0.058
-476.303	800.000	0.067	0.185
-475.289	-33.193	-0.156	0.086
-474.274	-137.738	-0.157	0.017
-473.259	-123.750	0.215	-0.034
-472.245	-200.000	-0.643	-0.001
-471.230	-200.000	0.052	0.266
-470.216	-22.763	-0.364	0.218
-469.201	-67.167	-0.132	-0.052
-468.186	-200.000	-0.012	-0.149
-467.172	71.685	0.122	0.126
-466.157	85.343	0.155	0.168
-465.143	57.986	0.201	0.194
-464.128	800.000	-0.039	0.130
-463.113	191.960	0.061	0.090
-462.099	-38.110	0.181	-0.095
-461.084	164.440	0.294	-0.411
-460.070	-149.840	-0.058	-0.005
-459.055	800.000	0.060	0.223
-458.040	-200.000	0.216	-0.001
-457.026	-106.788	-0.219	-0.048
-456.011	231.593	0.072	-0.117
-454.997	301.927	-0.078	0.143
-453.982	140.514	0.119	0.156
-452.968	-40.270	-0.132	-0.068
-451.953	171.356	0.249	-0.353
-450.938	-79.936	0.198	-0.066
-449.924	-200.000	0.012	0.063
-448.909	800.000	0.027	-0.105
-447.895	543.641	-0.125	0.296
-446.880	-133.618	0.070	-0.009
-445.865	-152.255	0.304	-0.022
-444.851	-36.838	-0.100	-0.053
-443.836	-200.000	0.025	-0.291
-442.822	-200.000	0.033	-0.185
-441.807	52.125	-0.091	-0.086
-440.792	-137.771	0.290	-0.032
-439.778	-200.000	0.003	-0.165
-438.763	100.502	-0.330	0.380
-437.749	-200.000	-0.019	-0.412
-436.734	800.000	-0.012	-0.042
-435.719	-84.690	0.284	0.088
-434.705	54.592	0.137	0.131
-433.690	-150.894	-0.192	0.014
-432.676	-200.000	-0.017	-0.140
-431.661	3.358	0.206	-0.148
-430.646	-17.555	0.048	0.030
-429.632	-1.994	-0.229	-0.159
-428.617	-124.656	0.231	0.035
-427.603	-120.788	0.215	-0.036
-426.588	-128.591	0.216	-0.030
-425.573	336.194	0.095	0.183
-424.559	-66.823	0.038	-0.015
-423.544	249.321	-0.071	0.120
-422.530	15.436	-0.127	-0.098
-421.515	-200.000	0.262	-0.001
-420.500	415.590	-0.091	-0.191
-419.486	425.461	-0.171	-0.365
-418.471	392.597	0.153	0.314
-417.457	-200.000	0.063	-0.434
-416.442	-55.332	0.200	0.089
-415.428	-77.925	0.226	0.077
-414.413	800.000	0.075	-0.256
-413.398	-200.000	0.008	-0.061
-412.384	489.747	-0.102	-0.231
-411.369	800.000	-0.102	0.308
-410.355	-147.601	-0.080	-0.007
-409.340	222.843	-0.172	-0.274
-408.325	580.260	0.064	0.156
-407.311	719.810	-0.052	-0.136
-406.296	-120.721	0.209	-0.035
-405.282	46.873	-0.009	0.008
-404.267	-34.561	-0.203	-0.110
-403.252	-31.774	0.018	0.010
-402.238	-200.000	-0.013	0.309
-401.223	-72.285	-0.458	0.168
-400.209	-200.000	0.049	0.269
-399.194	-90.401	0.152	-0.043
-398.179	-153.695	-0.407	0.028
-397.165	-200.000	0.009	-0.076
-396.150	-93.353	-0.295	-0.081
-395.136	-45.173	0.358	-0.176
-394.121	-161.333	-0.322	-0.016
-393.106	800.000	-0.101	-0.303
-392.092	-200.000	0.003	-0.050
-391.077	33.804	0.265	-0.228
-390.063	800.000	-0.075	0.268
-389.048	18.956	-0.094	0.074
-388.033	-200.000	-0.018	-0.082
-387.019	97.119	-0.115	0.130
-386.004	-200.000	0.015	0.123
-384.990	-5.224	-0.339	0.230
-383.975	-200.000	0.043	0.211
-382.960	-117.795	-0.112	-0.020
-381.946	386.496	-0.126	-0.257
-380.931	-86.638	-0.167	0.051
-379.917	-200.000	0.020	0.163
-378.902	-58.192	-0.080	0.034
-377.888	-52.761	0.212	0.096
-376.873	148.839	-0.183	0.244
-375.858	-200.000	-0.069	-0.312
-374.844	-109.581	0.092	-0.019
-373.829	87.865	-0.169	0.185
-372.815	-154.055	0.409	-0.027
-371.800	-14.765	-0.203	-0.128
-370.785	-122.131	0.379	-0.061
-369.771	-200.000	0.006	-0.050
-368.756	800.000	-0.045	-0.163
-367.742	-173.541	0.315	-0.009
-366.727	-200.000	-0.001	-0.207
-365.712	250.428	-0.099	0.167
-364.698	-85.934	0.315	-0.096
-363.683	-23.084	0.320	0.190
-362.669	800.000	-0.071	0.307
-361.654	-49.130	0.153	-0.072
-360.639	-200.000	-0.053	0.380
-359.625	730.098	-0.061	0.160
-358.610	226.635	-0.071	0.113
-357.596	-200.000	0.006	0.070
-356.581	266.319	-0.136	-0.234
-355.566	-200.000	0.009	0.135
-354.552	203.753	0.176	0.269
-353.537	-26.632	0.156	0.090
-352.523	-200.000	-0.011	0.141
-351.508	-61.053	0.141	-0.059
-350.493	48.849	-0.164	-0.152
-349.479	194.260	-0.225	-0.336
-348.464	-200.000	-0.005	0.200
-347.450	-94.551	-0.377	0.101
-346.435	780.467	-0.038	-0.102
-345.420	-148.638	0.296	0.024
-344.406	-200.000	0.044	0.284
-343.391	-42.392	-0.181	0.091
-342.377	393.982	0.082	0.168
-341.362	-200.000	0.049	-0.212
-340.348	-200.000	-0.012	-0.134
-339.333	-58.400	0.229	-0.098
-338.318	45.681	-0.191	0.174
-337.304	-160.699	0.202	0.011
-336.289	-200.000	-0.015	0.148
-335.275	-156.555	0.231	0.014
-334.260	-30.566	0.081	0.045
-333.245	-200.000	-0.034	0.174
-332.231	16.159	0.269	0.209
-331.216	224.883	-0.133	0.212
-330.202	16.520	0.339	-0.264
-329.187	189.466	-0.109	0.161
-328.172	85.491	-0.256	-0.277
-327.158	800.000	0.027	0.090
-326.143	726.193	-0.022	-0.058
-325.129	51.582	0.212	-0.199
-324.114	800.000	0.022	-0.073
-323.099	800.000	0.030	-0.085
-322.085	-11.948	0.170	-0.110
-321.070	-97.396	-0.355	-0.091
-320.056	601.434	0.132	-0.324
-319.041	153.612	-0.144	-0.195
-318.026	508.072	-0.107	0.245
-317.012	-74.752	-0.095	0.034
-315.997	800.000	-0.079	-0.324
-314.983	-34.642	-0.311	0.168
-313.968	-60.251	0.186	-0.078
-312.953	-200.000	0.006	0.184
-311.939	-156.543	0.232	0.014
-310.924	-200.000	-0.017	-0.253
-309.910	-146.557	0.237	-0.020
-308.895	23.688	-0.216	0.175
-307.880	-6.087	-0.439	-0.296
-306.866	36.047	0.145	0.125
-305.851	631.704	0.054	0.134
-304.837	-125.113	-0.069	-0.010
-303.822	4.211	0.144	-0.104
-302.807	-133.800	-0.312	-0.038
-301.793	-88.395	-0.045	-0.013
-300.778	175.768	0.150	0.215
-299.764	634.026	0.075	-0.187
-298.749	156.748	-0.152	0.207
-297.735	116.035	0.135	0.162
-296.720	502.727	-0.244	-0.554
-295.705	-200.000	-0.059	-0.307
-294.691	3.408	-0.206	-0.147
-293.676	800.000	-0.077	-0.229
-292.662	-18.477	0.181	-0.111
-291.647	-87.616	-0.211	-0.063
-290.632	-156.754	-0.215	-0.013
-289.618	-58.772	0.179	0.076
-288.603	-46.776	-0.079	0.038
-287.589	-77.073	0.288	-0.099
-286.574	-118.696	-0.279	0.048
-285.559	188.163	0.178	-0.262
-284.545	-200.000	-0.069	0.332
-283.530	-136.630	0.178	-0.020
-282.516	416.855	-0.181	-0.380
-281.501	676.503	-0.016	0.041
-280.486	103.236	-0.098	0.113
-279.472	800.000	0.073	0.313
-278.457	86.911	0.218	-0.237
-277.443	-68.348	-0.192	-0.073
-276.428	-102.129	0.254	-0.060
-275.413	0.007	-0.123	-0.086
-274.399	-168.463	0.146	-0.005
-273.384	-83.563	0.127	-0.040
-272.370	171.070	-0.144	0.204
-271.355	21.064	0.163	0.130
-270.340	355.983	0.093	0.181
-269.326	-200.000	0.056	-0.316
-268.311	-200.000	-0.018	-0.142
-267.297	32.859	-0.170	0.145
-266.282	315.989	0.165	-0.305
-265.267	243.132	0.085	0.140
-264.253	-126.524	0.276	-0.040
-263.238	257.663	0.186	0.315
-262.224	-7.661	0.152	0.101
-261.209	-14.226	-0.107	0.068
-260.195	-118.212	0.126	-0.022
-259.180	8.660	-0.359	0.265
-258.165	-200.000	-0.021	-0.263
-257.151	150.023	-0.158	-0.210
-256.136	186.120	0.191	-0.279
-255.122	-200.000	0.096	-0.461
-254.107	-200.000	0.012	0.281
-253.092	4.906	0.136	-0.098
-252.078	-95.278	0.225	0.060
-251.063	151.294	-0.053	0.070
-250.049	-134.820	0.156	-0.019
-249.034	52.039	0.229	-0.214
-248.019	119.324	-0.084	-0.102
-247.005	-84.378	-0.078	-0.024
-245.990	-85.238	-0.466	-0.143
-244.976	53.401	-0.093	-0.088
-243.961	-200.000	-0.047	0.364
-242.946	104.105	-0.161	0.186
-241.932	15.376	-0.087	0.067
-240.917	153.253	-0.164	0.220
-239.903	20.113	-0.067	0.053
-238.888	358.246	-0.108	0.211
-237.873	71.367	0.009	0.009
-236.859	32.691	0.228	-0.193
-235.844	45.564	-0.215	-0.195
-234.830	-200.000	0.037	-0.312
-233.815	305.493	0.153	0.279
-232.800	49.635	0.183	0.169
-231.786	-140.818	-0.383	0.039
-230.771	800.000	-0.030	0.121
-229.757	18.860	0.431	-0.338
-228.742	-200.000	-0.005	-0.092
-227.727	-101.028	-0.217	0.052
-226.713	-161.148	0.289	0.015
-225.698	-200.000	0.019	-0.111
-224.684	-60.420	0.291	0.121
-223.669	-73.693	-0.179	0.064
-222.655	-23.410	-0.106	0.063
-221.640	157.540	-0.187	-0.253
-220.625	111.225	0.197	0.232
-219.611	-200.000	0.014	0.120
-218.596	-89.588	0.121	0.035
-217.582	-200.000	0.026	-0.224
-216.567	-59.272	-0.063	-0.027
-215.552	22.395	0.334	0.268
-214.538	692.287	-0.098	0.252
-213.523	-71.121	0.205	-0.076
-212.509	86.064	-0.150	0.162
-211.494	522.172	0.082	0.189
-210.479	51.229	0.230	-0.214
-209.465	109.264	0.269	-0.316
-208.450	1.678	0.253	-0.178
-207.436	282.510	0.038	-0.067
-206.421	-95.117	0.213	0.056
-205.406	737.747	0.117	0.309
-204.392	75.919	-0.187	-0.194
-203.377	-123.935	-0.133	-0.020
-202.363	2.368	-0.200	-0.142
-201.348	-156.974	0.339	-0.020
-200.333	112.776	-0.031	-0.037
-199.319	-200.000	-0.006	0.234
-198.304	17.619	0.248	-0.193
-197.290	-43.862	0.230	-0.113
-196.275	-44.244	-0.277	0.136
-195.260	223.126	-0.138	0.217
-194.246	-45.484	0.127	0.062
-193.231	-71.151	-0.072	-0.027
-192.217	-68.647	-0.162	-0.061
-191.202	271.749	-0.068	-0.117
-190.187	-35.091	-0.237	-0.127
-189.173	199.021	-0.079	0.118
-188.158	28.678	0.133	0.111
-187.144	-144.663	-0.273	0.025
-186.129	800.000	-0.047	-0.140
-185.114	75.814	-0.092	-0.095
-184.100	-103.601	-0.339	0.078
-183.085	77.238	0.190	-0.198
-182.071	-80.084	-0.342	-0.112
-181.056	-59.662	0.077	0.032
-180.042	289.891	0.060	-0.106
-179.027	800.000	0.073	0.251
-178.012	-59.961	-0.080	-0.033
-176.998	28.896	0.305	-0.253
-175.983	-156.478	0.235	0.014
-174.969	-63.984	0.151	-0.060
-173.954	800.000	-0.029	-0.120
-172.939	35.976	0.229	0.197
-171.925	140.983	0.097	0.126
-170.910	800.000	-0.073	0.205
-169.896	-56.748	-0.250	0.108
-168.881	32.170	-0.400	0.338
-167.866	-76.007	-0.132	-0.046
-166.852	-49.946	0.262	0.122
-165.837	-74.025	0.222	-0.079
-164.823	-15.829	-0.161	0.100
-163.808	800.000	0.137	0.455
-162.793	-156.143	0.323	0.020
-161.779	-20.500	-0.149	0.090
-160.764	99.721	0.187	0.212
-159.750	-173.604	0.240	-0.007
-158.735	-71.919	-0.470	-0.171
-157.720	-109.044	0.166	-0.035
-156.706	333.964	0.031	-0.058
-155.691	374.563	-0.103	0.204
-154.677	48.768	-0.058	0.053
-153.662	-8.862	-0.140	0.092
-152.647	-200.000	-0.004	0.053
-151.633	583.807	-0.039	-0.094
-150.618	-119.304	0.240	-0.041
-149.604	-102.958	0.227	-0.053
-148.589	-200.000	0.060	0.290
-147.574	-27.326	0.186	0.106
-146.560	800.000	0.086	0.243
-145.545	-51.220	0.314	-0.144
-144.531	800.000	-0.131	-0.371
-143.516	-105.708	-0.187	-0.041
-142.502	-76.531	0.377	0.129
-141.487	-200.000	-0.032	0.156
-140.472	-49.526	-0.052	0.024
-139.458	616.184	-0.099	0.242
-138.443	415.512	-0.016	0.033
-137.429	40.651	-0.087	-0.077
-136.414	-200.000	0.021	-0.162
-135.399	-200.000	-0.002	0.074
-134.385	153.877	-0.213	-0.285
-133.370	-200.000	-0.013	0.180
-132.356	-101.548	0.070	-0.017
-131.341	-200.000	-0.024	-0.239
-130.326	239.812	0.064	-0.104
-129.312	394.308	0.171	0.349
-128.297	-54.928	-0.332	0.146
-127.283	-200.000	-0.000	0.171
-126.268	178.228	-0.011	0.016
-125.253	328.180	0.191	0.358
-124.239	-80.994	-0.421	0.136
-123.224	800.000	-0.066	0.258
-122.210	-162.467	-0.194	0.009
-121.195	-142.427	0.223	-0.021
-120.180	-200.000	0.012	0.096
-119.166	-27.991	0.037	0.021
-118.151	-19.136	0.238	-0.145
-117.137	-200.000	0.002	0.232
-116.122	80.543	0.207	0.218
-115.107	-164.479	0.236	0.010
-114.093	-200.000	0.067	-0.397
-113.078	210.222	-0.130	0.200
-112.064	-90.545	0.115	-0.032
-111.049	31.875	-0.179	-0.151
-110.034	36.867	0.169	-0.146
-109.020	274.030	0.051	0.088
-108.005	-185.401	0.247	-0.004
-106.991	-40.885	-0.322	0.163
-105.976	199.604	-0.086	-0.129
-104.962	206.871	0.149	0.226
-103.947	-83.073	-0.179	-0.056
-102.932	800.000	0.063	-0.185
-101.918	-200.000	0.056	-0.257
-100.903	-200.000	0.004	-0.163
-99.889	-117.364	0.451	-0.080
-98.874	-47.595	-0.160	0.076
-97.859	221.841	-0.054	0.085
-96.845	-119.990	0.244	0.041
-95.830	182.979	0.098	0.141
-94.816	189.167	-0.222	0.324
-93.801	-142.746	0.560	-0.053
-92.786	-200.000	0.001	0.045
-91.772	405.058	-0.070	0.143
-90.757	68.997	0.252	0.253
-89.743	14.429	-0.153	-0.116
-88.728	512.538	0.074	0.168
-87.713	-28.168	0.253	0.143
-86.699	18.004	0.166	0.129
-85.684	-3.695	-0.477	0.323
-84.670	800.000	0.054	-0.188
-83.655	175.590	-0.106	-0.150
-82.640	719.856	-0.062	-0.162
-81.626	293.052	0.115	0.205
-80.611	-137.135	0.181	-0.020
-79.597	-200.000	0.055	0.300
-78.582	182.950	0.209	-0.301
-77.567	375.449	0.039	-0.078
-76.553	-37.399	0.446	0.232
-75.538	-32.777	-0.177	0.096
-74.524	-89.828	0.072	0.021
-73.509	-200.000	-0.060	0.425
-72.494	800.000	-0.089	0.274
-71.480	800.000	0.032	-0.097
-70.465	103.048	0.265	-0.303
-69.451	59.102	0.295	-0.283
-68.436	6.534	0.199	-0.144
-67.422	-172.598	-0.561	-0.017
-66.407	15.917	0.346	-0.266
-65.392	-197.821	0.225	-0.001
-64.378	518.362	0.063	-0.144
-63.363	28.152	-0.102	0.084
-62.349	178.159	0.163	0.232
-61.334	5.538	-1.458	-1.050
-60.319	45.144	0.995	0.894
-59.305	478.324	-0.615	-1.358
-58.290	233.742	0.923	1.481
-57.276	207.112	0.780	1.185
-56.261	-200.000	136.241	622.841
-55.246	341.453	1637.082	3118.313
-54.232	137.747	2770.204	3535.982
-53.217	81.929	2152.958	2272.848
-52.203	29.834	1589.695	1319.707
-51.188	22.283	1343.048	1069.194
-50.173	20.359	1307.935	1029.802
-49.159	46.557	1383.139	1250.782
-48.144	42.090	1391.862	1231.242
-47.130	22.257	1340.345	1066.717
-46.115	19.434	1321.171	1034.514
-45.100	19.293	1315.969	1029.555
-44.086	19.128	1313.502	1026.600
-43.071	19.134	1311.365	1024.924
-42.057	19.094	1309.837	1023.456
-41.042	19.150	1307.596	1021.995
-40.027	19.225	1305.967	1021.126
-39.013	19.124	1304.031	1018.974
-37.998	19.164	1302.604	1018.055
-36.984	19.235	1300.352	1016.674
-35.969	19.213	1298.872	1015.349
-34.954	19.211	1297.462	1014.191
-33.940	19.290	1295.900	1013.393
-32.925	19.289	1294.469	1012.230
-31.911	19.412	1293.100	1011.838
-30.896	19.365	1291.419	1010.207
-29.881	19.394	1290.442	1009.578
-28.867	19.403	1288.372	1007.971
-27.852	19.324	1287.821	1007.034
-26.838	19.368	1286.075	1005.886
-25.823	19.409	1284.705	1005.017
-24.809	19.309	1283.663	1003.578
-23.794	19.257	1282.597	1002.402
-22.779	19.377	1280.830	1001.680
-21.765	19.285	1280.026	1000.473
-20.750	19.370	1278.135	999.452
-19.736	19.106	1277.429	997.330
-18.721	19.173	1276.075	996.623
-17.706	19.161	1274.998	995.670
-16.692	19.294	1273.176	994.976
-15.677	19.263	1272.514	994.241
-14.663	19.160	1271.555	992.859
-13.648	19.132	1270.221	991.618
-12.633	19.244	1268.950	991.228
-11.619	19.228	1268.641	990.856
-10.604	19.255	1267.711	990.245
-9.590	19.142	1267.154	989.118
-8.575	19.239	1265.697	988.499
-7.560	19.171	1264.927	987.471
-6.546	19.176	1264.053	986.778
-5.531	19.175	1263.175	986.050
-4.517	19.155	1262.555	985.409
-3.502	19.288	1261.298	985.149
-2.487	19.245	1260.927	984.577
-1.473	19.051	1256.233	979.764
-0.458	17.480	1240.970	958.982
0.556	13.130	1225.994	922.495
1.571	9.670	1233.773	908.790
2.586	9.054	1250.080	917.200
3.600	9.245	1237.054	908.646
4.615	6.900	1165.936	843.820
5.629	2.578	1098.144	772.919
6.644	0.707	1083.323	753.106
7.659	0.607	1081.129	751.015
8.673	0.564	1080.058	749.991
9.688	0.493	1079.204	748.978
10.702	0.683	1076.169	747.747
11.717	3.247	1078.252	761.828
12.731	9.183	1086.403	797.043
13.746	14.835	1094.232	830.889
14.761	17.101	1096.437	843.761
15.775	16.428	1095.310	839.481
16.790	15.459	1093.323	833.074
17.804	14.823	1091.542	828.494
18.819	14.496	1090.393	825.927
19.834	14.276	1089.645	824.198
20.848	14.014	1089.097	822.415
21.863	13.832	1087.482	820.222
22.877	13.659	1087.238	819.113
23.892	13.634	1086.423	818.303
24.907	13.803	1085.028	818.014
25.921	13.741	1084.705	817.392
26.936	13.671	1083.744	816.250
27.950	13.723	1083.214	816.035
28.965	13.849	1081.388	815.208
29.980	13.924	1080.040	814.484
30.994	13.759	1079.289	813.039
32.009	13.940	1078.364	813.154
33.023	13.889	1076.647	811.543
34.038	13.863	1076.105	810.934
35.053	13.858	1075.293	810.227
36.067	13.809	1074.612	809.401
37.082	13.765	1074.165	808.778
38.096	13.842	1072.815	808.063
39.111	13.777	1072.313	807.301
40.126	13.754	1071.063	806.173
41.140	13.698	1069.530	804.677
42.155	13.687	1068.825	804.025
43.169	13.599	1067.498	802.529
44.184	13.674	1066.478	802.053
45.199	13.613	1065.739	801.129
46.213	13.729	1063.879	800.222
47.228	13.714	1063.646	799.904
48.242	13.691	1062.105	798.563
49.257	13.754	1061.153	798.081
50.271	13.742	1060.527	797.481
51.286	13.724	1059.524	796.569
52.301	13.784	1058.302	795.867
53.315	13.744	1057.702	795.155
54.330	13.689	1056.742	794.099
55.344	13.599	1055.853	792.931
56.359	13.730	1054.638	792.575
57.374	13.717	1053.621	791.676
58.388	13.635	1052.755	790.567
59.403	13.649	1051.713	789.780
60.417	13.782	1050.828	789.679
61.432	13.643	1050.314	788.563
62.447	13.644	1049.295	787.732
63.461	13.503	1048.921	786.713
64.476	13.463	1047.830	785.633
65.490	13.612	1046.982	785.634
66.505	13.505	1046.610	784.777
67.520	13.703	1045.567	784.866
68.534	13.599	1045.111	783.960
69.549	13.584	1044.437	783.315
70.563	13.748	1043.346	783.201
71.578	13.610	1042.644	781.953
72.593	13.524	1041.674	780.751
73.607	13.541	1041.337	780.510
74.622	13.618	1040.627	780.270
75.636	13.557	1039.744	779.252
76.651	13.553	1039.409	778.912
77.666	13.524	1038.503	778.029
78.680	13.602	1037.747	777.760
79.695	13.581	1037.045	777.069
80.709	13.657	1036.351	776.836
81.724	13.616	1035.605	776.013
82.739	13.662	1035.155	775.826
83.753	13.640	1034.179	774.923
84.768	13.711	1033.015	774.313
85.782	13.891	1031.962	774.292
86.797	13.794	1031.111	773.137
87.812	13.701	1030.604	772.253
88.826	13.746	1029.545	771.602
89.841	13.660	1029.088	770.793
90.855	13.821	1027.793	770.501
91.870	13.750	1027.136	769.611
92.884	13.823	1026.356	769.297
93.899	13.748	1025.462	768.209
94.914	13.849	1024.245	767.695
95.928	13.890	1023.507	767.265
96.943	13.841	1022.788	766.431
97.957	13.844	1021.941	765.742
98.972	13.852	1020.676	764.765
99.987	13.879	1019.732	764.114
101.001	13.761	1019.321	763.195
102.016	13.722	1018.247	762.146
103.030	13.831	1017.658	762.138
104.045	13.979	1016.504	761.886
105.060	13.767	1015.818	760.332
106.074	13.768	1014.936	759.608
107.089	13.732	1013.772	758.506
108.103	13.803	1013.035	758.214
109.118	13.767	1011.895	757.127
110.133	13.708	1011.624	756.588
111.147	13.791	1010.572	756.114
112.162	13.768	1009.654	755.255
113.176	13.786	1008.797	754.629
114.191	13.937	1007.901	754.577
115.206	13.843	1007.097	753.483
116.220	13.776	1006.117	752.379
117.235	13.750	1005.092	751.427
118.249	13.781	1004.808	751.288
119.264	13.815	1003.291	750.241
120.279	13.832	1002.974	750.016
121.293	13.825	1001.994	749.183
122.308	13.830	1001.062	748.446
123.322	13.773	1000.433	747.651
124.337	13.635	999.243	746.072
125.352	13.718	998.017	745.465
126.366	13.582	996.836	743.909
127.381	13.702	996.032	743.779
128.395	13.609	995.441	742.854
129.410	13.772	994.105	742.521
130.424	13.773	993.469	741.987
131.439	13.741	992.634	741.152
132.454	13.877	991.382	740.759
133.468	13.693	990.774	739.422
134.483	13.775	989.913	739.079
135.497	13.794	989.007	738.421
136.512	13.740	987.871	737.265
137.527	13.704	987.413	736.700
138.541	13.742	986.470	736.102
139.556	13.892	985.927	736.296
140.570	13.949	984.849	735.678
141.585	13.925	984.105	734.948
142.600	13.901	983.449	734.290
143.614	13.990	982.172	733.661
144.629	13.970	981.746	733.194
145.643	13.997	980.823	732.558
146.658	13.871	979.585	731.011
147.673	13.913	978.753	730.513
148.687	14.038	977.554	730.102
149.702	13.971	976.886	729.242
150.716	13.929	976.573	728.763
151.731	13.902	975.597	727.849
152.746	13.912	974.827	727.254
153.760	13.921	974.261	726.809
154.775	14.115	973.604	727.103
155.789	13.996	973.112	726.149
156.804	14.013	972.199	725.481
157.819	14.038	971.647	725.111
158.833	14.126	971.179	725.084
159.848	14.151	969.998	724.245
160.862	14.163	969.241	723.666
161.877	14.189	968.068	722.839
162.892	14.155	967.185	721.969
163.906	14.224	966.077	721.378
164.921	14.133	965.641	720.593
165.935	14.137	964.900	719.997
166.950	14.096	964.240	719.260
167.964	14.174	962.711	718.396
168.979	14.133	961.997	717.623
169.994	14.185	960.775	716.870
171.008	14.246	960.590	716.933
172.023	14.174	959.923	716.059
173.037	14.235	958.765	715.396
174.052	14.298	958.027	715.053
175.067	14.221	957.139	713.994
176.081	14.378	956.648	714.239
177.096	14.306	956.135	713.483
178.110	14.277	955.790	713.039
179.125	14.230	955.242	712.367
180.140	14.362	954.577	712.371
181.154	14.412	954.292	712.310
182.169	14.305	953.801	711.423
183.183	14.450	952.947	711.343
184.198	14.348	952.456	710.477
185.213	14.409	951.775	710.167
186.227	14.371	951.218	709.528
187.242	14.472	950.498	709.358
188.256	14.610	949.568	709.188
189.271	14.367	949.007	707.674
190.286	14.490	948.258	707.572
191.300	14.330	947.160	706.013
192.315	14.200	946.963	705.253
193.329	14.298	946.072	704.944
194.344	14.499	945.351	705.192
195.359	14.332	944.796	704.010
196.373	14.410	944.123	703.775
197.388	14.563	943.233	703.697
198.402	14.594	942.880	703.503
199.417	14.527	942.293	702.719
200.432	14.586	941.818	702.552
201.446	14.666	941.492	702.581
202.461	14.585	940.956	701.778
203.475	14.581	940.433	701.308
204.490	14.687	939.188	700.765
205.504	14.622	938.569	699.969
206.519	14.740	937.878	699.883
207.534	14.582	937.027	698.527
208.548	14.692	936.547	698.567
209.563	14.743	935.733	698.113
210.577	14.665	935.271	697.379
211.592	14.753	934.480	697.096
212.607	14.934	933.581	697.117
213.621	14.756	932.983	695.869
214.636	14.800	932.211	695.413
215.650	14.794	931.449	694.759
216.665	14.862	930.386	694.188
217.680	14.894	929.943	693.927
218.694	14.921	929.470	693.627
219.709	14.854	928.603	692.640
220.723	15.025	928.101	692.909
221.738	14.894	927.223	691.654
222.753	15.060	926.400	691.665
223.767	14.920	926.430	691.047
224.782	15.010	925.544	690.695
225.796	15.103	924.810	690.470
226.811	15.099	923.794	689.633
227.826	14.934	923.513	688.686
228.840	15.028	922.417	688.191
229.855	15.133	921.812	688.111
230.869	15.026	921.670	687.506
231.884	15.054	920.554	686.727
232.899	14.944	920.149	685.913
233.913	14.936	919.421	685.277
234.928	14.866	918.894	684.536
235.942	15.090	917.974	684.709
236.957	14.996	917.304	683.762
237.972	15.064	916.801	683.603
238.986	15.010	916.078	682.783
240.001	15.103	915.329	682.547
241.015	15.181	914.413	682.120
242.030	15.070	914.449	681.635
243.045	15.010	913.978	680.979
244.059	15.138	912.858	680.603
245.074	15.139	911.980	679.895
246.088	15.118	911.550	679.428
247.103	15.270	910.974	679.553
248.117	15.254	910.492	679.069
249.132	15.323	909.595	678.618
250.147	15.279	909.143	678.045
251.161	15.366	908.376	677.765
252.176	15.486	907.504	677.538
253.190	15.366	907.126	676.711
254.205	15.555	906.052	676.610
255.220	15.531	905.648	676.155
256.234	15.485	905.287	675.641
257.249	15.428	904.407	674.692
258.263	15.450	903.748	674.230
259.278	15.532	902.796	673.790
260.293	15.605	902.085	673.492
261.307	15.570	901.909	673.162
262.322	15.559	901.284	672.589
263.336	15.670	900.273	672.221
264.351	15.649	899.465	671.474
265.366	15.756	899.156	671.610
266.380	15.738	898.887	671.279
267.395	15.674	897.773	670.132
268.409	15.719	896.872	669.580
269.424	15.737	896.240	669.119
270.439	15.565	895.599	667.898
271.453	15.684	894.693	667.635
272.468	15.682	894.239	667.230
273.482	15.700	894.137	667.167
274.497	15.802	893.029	666.685
275.512	15.826	892.494	666.322
276.526	15.811	892.484	666.195
277.541	15.828	892.032	665.865
278.555	15.848	891.203	665.270
279.570	15.980	890.157	664.951
280.585	15.972	889.110	664.077
281.599	15.865	888.765	663.341
282.614	15.831	887.725	662.369
283.628	15.961	887.300	662.508
284.643	15.869	886.898	661.787
285.657	16.037	886.005	661.722
286.672	15.978	885.913	661.361
287.687	15.894	884.548	659.953
288.701	16.032	883.898	659.953
289.716	16.014	883.438	659.480
290.730	16.085	883.128	659.467
291.745	16.125	881.985	658.713
292.760	15.959	881.905	657.945
293.774	16.085	881.230	657.877
294.789	16.102	880.693	657.485
295.803	16.127	879.845	656.889
296.818	16.240	879.234	656.815
297.833	16.159	878.371	655.797
298.847	16.184	877.677	655.318
299.862	16.201	876.905	654.750
300.876	16.215	876.901	654.741
301.891	16.193	876.249	654.113
302.906	16.157	875.308	653.214
303.920	16.281	875.003	653.409
304.935	16.473	874.142	653.449
305.949	16.296	873.486	652.219
306.964	16.456	873.358	652.682
307.979	16.365	872.708	651.787
308.993	16.362	871.708	650.972
310.008	16.422	871.500	650.991
311.022	16.249	871.149	650.003
312.037	16.380	870.366	649.866
313.052	16.319	869.723	649.093
314.066	16.278	869.655	648.830
315.081	16.465	868.788	648.840
316.095	16.437	868.213	648.246
317.110	16.302	867.256	646.957
318.125	16.518	866.714	647.324
319.139	16.416	866.531	646.741
320.154	16.343	866.132	646.104
321.168	16.289	865.788	645.584
322.183	16.441	865.092	645.590
323.197	16.535	864.313	645.309
324.212	16.443	863.681	644.429
325.227	16.522	863.107	644.245
326.241	16.406	862.938	643.619
327.256	16.500	861.883	643.134
328.270	16.379	861.341	642.213
329.285	16.683	860.496	642.680
330.300	16.515	860.043	641.649
331.314	16.522	859.738	641.389
332.329	16.540	859.270	641.052
333.343	16.624	858.808	640.967
334.358	16.637	858.346	640.617
335.373	16.800	857.434	640.496
336.387	16.800	857.557	640.531
337.402	16.694	857.562	640.076
338.416	16.798	856.974	639.974
339.431	16.848	856.304	639.605
340.446	16.733	856.135	638.990
341.460	16.840	855.437	638.814
342.475	16.776	855.320	638.429
343.489	16.936	854.767	638.562
344.504	16.827	854.437	637.851
345.519	16.832	853.881	637.396
346.533	16.876	853.236	637.026
347.548	16.915	852.486	636.555
348.562	16.967	851.829	636.201
349.577	16.928	851.317	635.618
350.592	16.912	850.807	635.122
351.606	16.794	850.260	634.214
352.621	16.951	849.477	634.161
353.635	16.998	848.722	633.717
354.650	17.061	848.121	633.447
355.665	17.002	847.536	632.735
356.679	16.971	847.044	632.195
357.694	16.975	846.824	631.989
358.708	17.036	845.828	631.417
359.723	17.030	845.317	630.958
360.738	17.092	844.569	630.573
361.752	17.134	843.764	630.076
362.767	17.070	843.770	629.784
363.781	17.222	842.767	629.545
364.796	17.316	842.085	629.327
365.810	17.193	842.174	628.884
366.825	17.302	841.998	629.100
367.840	17.226	841.097	628.088
368.854	17.240	841.021	628.030
369.869	17.227	840.160	627.283
370.883	17.255	839.921	627.149
371.898	17.270	839.725	627.005
372.913	17.210	839.448	626.520
373.927	17.431	838.398	626.494
374.942	17.270	838.428	625.872
375.956	17.470	838.010	626.237
376.971	17.342	837.314	625.193
377.986	17.450	836.936	625.252
379.000	17.610	836.147	625.194
380.015	17.536	835.873	624.662
381.029	17.718	834.889	624.539
382.044	17.650	834.534	623.968
383.059	17.533	834.361	623.355
384.073	17.530	833.564	622.695
385.088	17.680	832.693	622.537
386.102	17.675	832.348	622.207
387.117	17.580	831.909	621.477
388.132	17.555	831.238	620.828
389.146	17.637	830.616	620.607
390.161	17.537	830.328	619.973
391.175	17.617	829.851	619.853
392.190	17.599	829.504	619.475
393.205	17.545	828.587	618.539
394.219	17.501	828.493	618.253
395.234	17.724	827.607	618.346
396.248	17.537	827.677	617.664
397.263	17.675	826.889	617.522
398.278	17.794	826.442	617.565
399.292	17.759	825.899	616.977
400.307	17.697	825.823	616.641
401.321	17.600	825.153	615.736
402.336	17.806	824.330	615.812
403.350	17.817	824.140	615.656
404.365	17.568	824.209	614.756
405.380	17.766	823.444	614.842
406.394	18.055	822.520	615.137
407.409	18.012	822.228	614.710
408.423	17.894	822.224	614.227
409.438	17.979	821.641	614.046
410.453	17.859	821.376	613.362
411.467	18.036	820.832	613.537
412.482	17.899	820.287	612.582
413.496	17.782	820.243	612.075
414.511	18.117	819.428	612.615
415.526	18.091	819.019	612.162
416.540	17.988	819.060	611.771
417.555	18.111	818.138	611.466
418.569	18.193	817.707	611.384
419.584	17.991	817.457	610.422
420.599	18.160	816.846	610.515
421.613	116.152	1301.324	1493.186
422.628	100.708	1371.848	1493.234
