DTS Sentinel unit serial number:	SN413079Multiplexer serial number:	ORYXHardware model number:	OX4-SRSoftware version number:	ORYX F/W v4.00 Oryx Data Collector v3.7.2.0data status	okinstallation	princeton_trtdifferential loss correction	single-endedforward channel	channel 1reverse channel	N/Adate	2019/09/16time	11:14:35forward acquisition time	60.00reverse acquisition time	0.00gamma	496.2192k internal	0.2299k external	0.2299temperature offset calibration	0.9969default loss term (dB/km)	0.3790temperature slope calibration	1.0000multiplexer offset coefficient	1.0000multiplexer slope coefficient	1.0000fibre end	0.00T internal ref (°C)	37.17T ext. ref 1 (°C)	12.84T ext. ref 2 (°C)	33.20length (m)	temperature (°C)	Stokes	anti-Stokes-747.200	25.523	-0.224	-0.190
-746.185	8.948	0.158	0.122
-745.171	203.128	-0.112	0.177
-744.156	528.291	0.164	0.394
-743.142	-32.875	-0.075	-0.043
-742.127	202.280	0.123	-0.193
-741.112	152.147	-0.104	-0.144
-740.098	-121.544	-0.233	-0.040
-739.083	-200.000	0.002	0.009
-738.069	-105.096	-0.312	-0.073
-737.054	800.000	-0.020	0.077
-736.039	800.000	0.026	-0.112
-735.025	800.000	0.129	0.435
-734.010	-60.107	-0.122	-0.053
-732.996	800.000	0.094	-0.365
-731.981	406.137	-0.113	-0.244
-730.966	-99.759	0.220	-0.056
-729.952	-200.000	-0.050	-0.300
-728.937	477.126	0.179	-0.414
-727.923	800.000	0.048	-0.209
-726.908	236.026	-0.129	-0.217
-725.894	221.396	-0.121	-0.198
-724.879	-58.797	0.053	-0.023
-723.864	11.127	0.092	-0.072
-722.850	65.040	-0.202	-0.208
-721.835	-39.236	-0.390	0.209
-720.821	-47.148	0.131	-0.065
-719.806	363.176	0.157	0.321
-718.791	-97.360	-0.063	-0.017
-717.777	-95.661	-0.103	0.028
-716.762	-32.782	0.201	0.114
-715.748	427.356	-0.141	0.310
-714.733	203.515	-0.065	0.102
-713.718	51.842	0.097	-0.094
-712.704	142.280	-0.077	-0.105
-711.689	-58.831	-0.162	0.071
-710.675	-174.959	-0.220	-0.006
-709.660	390.482	-0.247	-0.522
-708.645	424.063	-0.034	0.075
-707.631	159.390	0.094	-0.133
-706.616	7.919	-0.023	-0.017
-705.602	-84.896	-0.076	-0.024
-704.587	289.020	-0.035	0.065
-703.572	-69.770	-0.259	-0.101
-702.558	627.524	-0.036	-0.092
-701.543	-200.000	-0.160	-0.000
-700.529	-200.000	0.027	-0.136
-699.514	800.000	-0.072	-0.247
-698.499	-65.796	0.077	-0.031
-697.485	117.790	-0.094	-0.117
-696.470	98.508	-0.043	-0.051
-695.456	51.918	-0.247	0.239
-694.441	32.343	-0.285	-0.251
-693.426	-200.000	-0.019	-0.238
-692.412	-59.234	0.046	-0.020
-691.397	-13.215	-0.277	-0.183
-690.383	-22.925	0.392	0.241
-689.368	114.059	-0.194	0.240
-688.354	612.913	0.084	0.215
-687.339	-144.752	-0.088	0.008
-686.324	4.710	0.310	-0.232
-685.310	44.262	0.166	-0.155
-684.295	437.809	0.093	-0.206
-683.281	-200.000	-0.025	0.159
-682.266	-200.000	0.002	0.181
-681.251	-200.000	-0.042	0.196
-680.237	173.799	0.112	-0.165
-679.222	-39.348	-0.061	0.033
-678.208	288.015	-0.068	-0.126
-677.193	269.074	-0.040	-0.071
-676.178	-144.281	-0.251	-0.024
-675.164	4.381	-0.123	-0.092
-674.149	83.186	0.148	0.164
-673.135	-63.756	-0.216	0.090
-672.120	-25.693	0.188	0.113
-671.105	-66.624	0.123	0.050
-670.091	-53.573	-0.062	-0.029
-669.076	-51.025	-0.161	0.077
-668.062	-127.099	-0.261	0.039
-667.047	207.857	0.057	-0.090
-666.032	-37.837	-0.108	-0.059
-665.018	-137.035	0.164	0.019
-664.003	-200.000	0.021	0.098
-662.989	-200.000	-0.267	-0.001
-661.974	-200.000	0.010	-0.160
-660.959	-200.000	-0.012	0.151
-659.945	278.050	-0.073	0.133
-658.930	800.000	0.035	0.113
-657.916	355.428	0.045	-0.091
-656.901	154.060	-0.084	-0.117
-655.886	3.271	-0.120	0.089
-654.872	-200.000	0.021	-0.194
-653.857	52.090	0.164	-0.159
-652.843	-146.125	-0.491	0.044
-651.828	800.000	0.032	0.121
-650.814	-86.193	-0.152	0.048
-649.799	384.115	0.072	0.152
-648.784	-161.760	-0.048	0.002
-647.770	-80.281	0.248	-0.084
-646.755	800.000	-0.034	-0.116
-645.741	-134.755	-0.214	-0.026
-644.726	500.181	0.111	0.261
-643.711	-200.000	-0.006	-0.074
-642.697	-146.579	-0.308	-0.027
-641.682	101.972	-0.051	-0.060
-640.668	727.958	0.039	0.105
-639.653	-200.000	-0.016	-0.100
-638.638	54.755	-0.178	-0.175
-637.624	-45.134	0.241	-0.122
-636.609	-174.661	0.455	-0.013
-635.595	-79.375	-0.182	0.063
-634.580	330.859	0.103	-0.203
-633.565	-76.835	-0.219	0.078
-632.551	-92.120	-0.362	-0.104
-631.536	800.000	0.074	-0.306
-630.522	-33.863	0.071	0.040
-629.507	-148.888	0.156	-0.013
-628.492	-200.000	0.004	-0.069
-627.478	35.738	-0.121	0.108
-626.463	800.000	0.043	0.169
-625.449	-200.000	-0.020	-0.311
-624.434	-93.029	0.104	-0.029
-623.419	6.994	0.029	0.022
-622.405	-167.528	-0.192	-0.008
-621.390	800.000	-0.055	-0.184
-620.376	-200.000	0.023	0.315
-619.361	15.719	0.254	0.203
-618.346	165.845	0.200	-0.288
-617.332	-200.000	-0.034	-0.270
-616.317	-200.000	-0.063	0.369
-615.303	-118.768	-0.104	-0.019
-614.288	-99.452	-0.195	0.050
-613.273	-38.917	-0.126	-0.067
-612.259	6.402	0.296	0.223
-611.244	-64.294	-0.225	-0.093
-610.230	800.000	-0.062	-0.176
-609.215	-190.127	-0.319	-0.004
-608.201	0.074	-0.117	0.084
-607.186	-116.530	-0.137	0.026
-606.171	800.000	-0.128	0.383
-605.157	-200.000	0.016	-0.094
-604.142	352.195	-0.061	0.122
-603.128	447.338	0.101	-0.225
-602.113	-45.271	-0.273	0.138
-601.098	-33.283	-0.298	-0.167
-600.084	68.789	0.069	-0.072
-599.069	-200.000	-0.011	0.273
-598.055	-200.000	0.012	-0.141
-597.040	35.010	-0.508	-0.451
-596.025	6.069	-0.077	-0.058
-595.011	27.910	0.126	0.108
-593.996	463.113	0.047	0.107
-592.982	-108.484	-0.089	-0.019
-591.967	309.916	0.028	0.053
-590.952	-67.668	-0.138	0.055
-589.938	609.315	0.082	-0.208
-588.923	387.249	0.053	-0.110
-587.909	133.614	0.233	-0.306
-586.894	51.748	0.066	0.064
-585.879	-16.427	0.068	-0.044
-584.865	73.371	-0.077	-0.082
-583.850	-40.736	0.053	0.028
-582.836	-137.075	0.394	0.046
-581.821	295.625	0.123	0.228
-580.806	-80.393	0.296	-0.100
-579.792	38.464	0.277	0.250
-578.777	563.287	-0.131	-0.323
-577.763	-200.000	0.006	0.034
-576.748	136.365	-0.036	-0.048
-575.733	-71.101	0.172	-0.065
-574.719	469.625	-0.137	0.312
-573.704	356.711	-0.115	0.232
-572.690	-75.255	0.252	-0.091
-571.675	311.433	0.109	-0.208
-570.661	800.000	0.083	-0.260
-569.646	-200.000	0.004	0.109
-568.631	-49.750	-0.113	-0.055
-567.617	-22.564	0.401	-0.246
-566.602	332.651	0.091	0.179
-565.588	311.810	-0.163	-0.309
-564.573	-7.124	-0.110	0.076
-563.558	27.336	0.154	-0.131
-562.544	310.968	0.059	0.112
-561.529	-200.000	0.026	0.158
-560.515	278.059	0.194	-0.350
-559.500	-145.433	0.238	-0.022
-558.485	800.000	-0.100	0.336
-557.471	-3.512	0.167	-0.118
-556.456	-140.445	-0.325	0.034
-555.442	683.788	0.071	0.188
-554.427	-200.000	0.055	0.266
-553.412	-53.933	0.298	0.137
-552.398	-54.645	-0.352	-0.161
-551.383	-200.000	0.064	0.473
-550.369	631.348	0.069	0.176
-549.354	-191.960	-0.188	-0.002
-548.339	-200.000	-0.060	-0.327
-547.325	8.335	0.173	-0.132
-546.310	-8.777	0.150	-0.102
-545.296	313.113	-0.154	-0.293
-544.281	-200.000	-0.007	0.067
-543.266	-7.715	-0.166	-0.113
-542.252	800.000	0.079	-0.272
-541.237	86.760	-0.313	0.350
-540.223	-47.340	-0.071	-0.035
-539.208	249.334	0.109	-0.188
-538.193	-200.000	-0.048	-0.356
-537.179	35.798	0.119	-0.106
-536.164	-200.000	0.012	-0.218
-535.150	93.373	0.204	-0.234
-534.135	-181.129	0.119	-0.002
-533.121	-95.448	-0.318	-0.086
-532.106	159.293	-0.066	0.093
-531.091	74.005	-0.215	0.229
-530.077	-200.000	-0.017	-0.168
-529.062	-200.000	0.011	0.200
-528.048	-62.686	-0.101	-0.042
-527.033	-52.456	0.218	-0.102
-526.018	800.000	-0.110	0.318
-525.004	400.652	0.071	0.151
-523.989	61.352	-0.089	0.090
-522.975	219.927	-0.093	0.151
-521.960	-122.316	0.264	-0.044
-520.945	145.911	0.161	0.219
-519.931	-34.070	-0.352	-0.196
-518.916	-111.411	0.175	-0.036
-517.902	239.841	0.141	0.237
-516.887	44.330	-0.092	-0.086
-515.872	-200.000	-0.011	-0.081
-514.858	-200.000	-0.062	0.291
-513.843	220.038	-0.097	-0.157
-512.829	-7.546	0.160	-0.110
-511.814	134.910	-0.135	-0.178
-510.799	162.855	0.046	-0.066
-509.785	-200.000	-0.026	0.245
-508.770	83.986	0.099	-0.109
-507.756	78.436	0.285	-0.308
-506.741	-155.987	-0.235	0.015
-505.726	-122.951	0.132	0.021
-504.712	85.438	0.039	0.043
-503.697	69.953	-0.200	-0.209
-502.683	513.288	-0.071	0.168
-501.668	-50.035	0.188	0.090
-500.653	-100.833	0.075	0.019
-499.639	-63.391	0.278	0.116
-498.624	22.889	0.159	0.131
-497.610	-120.112	-0.075	0.013
-496.595	-76.083	0.225	-0.080
-495.581	-86.950	0.110	-0.034
-494.566	800.000	0.098	0.382
-493.551	93.837	-0.035	-0.040
-492.537	301.721	-0.121	-0.225
-491.522	-178.419	-0.169	0.004
-490.508	800.000	0.035	-0.129
-489.493	-200.000	-0.003	0.310
-488.478	106.780	0.119	0.143
-487.464	-39.671	0.187	-0.099
-486.449	-200.000	0.003	-0.344
-485.435	-200.000	-0.032	0.167
-484.420	-200.000	0.021	0.164
-483.405	30.393	0.146	0.126
-482.391	-1.842	-0.168	0.120
-481.376	-76.240	-0.299	-0.106
-480.362	581.938	-0.118	0.293
-479.347	-144.180	0.047	0.004
-478.332	-108.353	0.057	-0.012
-477.318	154.536	0.104	-0.145
-476.303	-173.812	0.092	0.003
-475.289	-100.786	-0.143	0.035
-474.274	800.000	-0.035	-0.102
-473.259	298.804	-0.115	-0.213
-472.245	-137.684	-0.138	-0.016
-471.230	209.095	0.152	0.241
-470.216	91.295	0.144	0.163
-469.201	-200.000	0.012	0.127
-468.186	-82.293	0.326	-0.107
-467.172	-200.000	-0.064	-0.346
-466.157	-200.000	-0.035	0.484
-465.143	-38.985	0.237	0.126
-464.128	141.487	-0.077	0.102
-463.113	-185.444	0.248	0.004
-462.099	-77.704	0.076	-0.027
-461.084	800.000	-0.129	0.488
-460.070	-34.901	-0.351	-0.194
-459.055	179.257	-0.169	0.249
-458.040	-127.165	0.378	-0.056
-457.026	-19.192	0.410	0.257
-456.011	-200.000	0.012	-0.455
-454.997	35.076	0.039	0.035
-453.982	-113.039	-0.134	0.027
-452.968	-76.912	0.221	0.078
-451.953	36.397	0.237	0.211
-450.938	-70.057	-0.389	0.149
-449.924	-85.116	-0.265	0.084
-448.909	373.505	0.108	0.222
-447.895	-200.000	0.024	-0.239
-446.880	-100.365	-0.279	0.070
-445.865	124.359	0.169	-0.214
-444.851	-200.000	-0.016	-0.196
-443.836	-79.529	0.351	0.120
-442.822	97.481	-0.236	-0.273
-441.807	469.779	0.048	-0.108
-440.792	-87.332	0.192	-0.059
-439.778	85.420	0.354	-0.392
-438.763	24.406	0.145	-0.121
-437.749	-18.232	-0.233	-0.147
-436.734	800.000	0.043	0.185
-435.719	-200.000	-0.017	0.158
-434.705	-200.000	-0.030	-0.297
-433.690	-16.039	-0.069	-0.044
-432.676	99.315	0.236	0.275
-431.661	442.359	0.073	0.161
-430.646	800.000	0.066	0.197
-429.632	-55.143	-0.381	0.173
-428.617	-200.000	-0.007	0.164
-427.603	-72.364	-0.136	-0.051
-426.588	800.000	-0.067	0.193
-425.573	800.000	-0.062	-0.241
-424.559	-136.621	-0.296	-0.034
-423.544	429.513	0.046	0.101
-422.530	-40.543	-0.240	0.125
-421.515	500.483	0.048	-0.111
-420.500	800.000	0.085	-0.345
-419.486	-71.456	-0.138	-0.052
-418.471	-19.257	0.110	0.069
-417.457	121.110	-0.039	0.050
-416.442	-95.198	-0.298	0.081
-415.428	-66.834	0.068	-0.027
-414.413	-158.942	-0.241	0.014
-413.398	-27.241	-0.415	-0.243
-412.384	60.643	-0.240	-0.240
-411.369	-102.956	-0.218	-0.052
-410.355	183.654	0.269	0.400
-409.340	99.752	-0.221	-0.258
-408.325	-89.547	-0.120	-0.035
-407.311	-200.000	-0.090	-0.476
-406.296	-200.000	0.039	-0.262
-405.282	47.146	-0.252	-0.236
-404.267	-49.624	0.146	0.070
-403.252	160.960	0.047	-0.066
-402.238	-200.000	-0.029	0.168
-401.223	240.769	-0.010	0.016
-400.209	-58.475	0.135	0.059
-399.194	-153.132	-0.237	0.017
-398.179	800.000	0.045	0.158
-397.165	-108.136	-0.130	0.028
-396.150	-41.071	-0.161	-0.083
-395.136	-83.281	0.500	-0.162
-394.121	-93.913	0.764	0.211
-393.106	-107.749	-0.288	0.063
-392.092	261.378	0.076	0.132
-391.077	-105.511	-0.268	-0.061
-390.063	-200.000	0.020	0.348
-389.048	336.584	-0.134	0.262
-388.033	-200.000	0.031	-0.209
-387.019	105.502	0.102	-0.121
-386.004	800.000	-0.025	-0.079
-384.990	207.084	-0.214	0.336
-383.975	59.477	0.085	0.085
-382.960	414.435	0.064	-0.138
-381.946	210.134	-0.120	0.189
-380.931	753.441	0.057	0.154
-379.917	800.000	0.087	0.281
-378.902	-200.000	0.012	0.257
-377.888	217.037	-0.182	0.292
-376.873	-80.908	0.180	0.060
-375.858	-169.889	0.067	-0.002
-374.844	-200.000	0.005	-0.036
-373.829	164.466	0.020	0.028
-372.815	481.132	0.133	-0.304
-371.800	-22.510	0.204	0.124
-370.785	-10.414	-0.129	0.086
-369.771	-69.224	-0.029	0.011
-368.756	220.831	-0.138	0.223
-367.742	-200.000	-0.031	-0.205
-366.727	-0.460	0.055	-0.039
-365.712	-157.091	0.468	-0.029
-364.698	-200.000	-0.008	-0.256
-363.683	438.282	-0.142	0.310
-362.669	80.843	0.126	0.137
-361.654	-88.638	-0.259	0.078
-360.639	-175.478	0.474	-0.013
-359.625	-200.000	0.050	0.403
-358.610	-200.000	0.011	0.059
-357.596	45.509	0.182	-0.169
-356.581	73.716	-0.099	-0.104
-355.566	307.727	0.094	-0.177
-354.552	800.000	0.116	0.467
-353.537	-80.768	0.169	0.056
-352.523	-119.928	-0.310	0.054
-351.508	10.639	-0.258	-0.198
-350.493	-200.000	-0.002	0.379
-349.479	29.079	-0.206	0.175
-348.464	800.000	-0.039	0.156
-347.450	-200.000	-0.003	-0.285
-346.435	-96.173	0.178	-0.047
-345.420	-200.000	-0.025	-0.242
-344.406	140.176	-0.195	-0.258
-343.391	19.583	-0.261	-0.211
-342.377	169.987	0.064	-0.092
-341.362	145.542	0.173	0.233
-340.348	-200.000	-0.004	-0.111
-339.333	-165.018	-0.080	-0.004
-338.318	800.000	0.035	-0.111
-337.304	-59.958	0.101	-0.043
-336.289	272.487	-0.061	-0.108
-335.275	-158.618	0.319	-0.018
-334.260	115.162	-0.066	0.081
-333.245	156.967	-0.062	0.086
-332.231	-200.000	-0.007	-0.218
-331.216	-200.000	0.001	-0.407
-330.202	-200.000	-0.004	-0.353
-329.187	78.889	-0.301	-0.323
-328.172	-200.000	0.013	-0.077
-327.158	-140.392	-0.298	-0.031
-326.143	800.000	0.052	-0.166
-325.129	-200.000	-0.007	-0.049
-324.114	27.050	0.176	-0.148
-323.099	-200.000	-0.005	0.162
-322.085	-136.868	0.239	-0.028
-321.070	393.974	0.040	-0.083
-320.056	296.451	-0.124	0.228
-319.041	-61.073	0.113	0.048
-318.026	-91.066	0.149	0.043
-317.012	-81.624	0.209	-0.069
-315.997	-111.644	0.216	-0.044
-314.983	-78.824	-0.188	-0.064
-313.968	106.266	-0.268	0.318
-312.953	49.110	-0.166	-0.157
-311.939	649.369	-0.132	0.338
-310.924	212.045	0.117	0.184
-309.910	280.242	-0.133	-0.239
-308.895	-6.132	0.115	-0.079
-307.880	-77.860	0.152	0.052
-306.866	-200.000	-0.044	-0.258
-305.851	800.000	0.014	0.062
-304.837	-20.920	0.160	0.098
-303.822	-18.579	0.228	-0.143
-302.807	-109.881	-0.500	0.105
-301.793	-200.000	-0.034	0.310
-300.778	43.683	-0.221	0.203
-299.764	195.199	0.077	-0.118
-298.749	-20.840	0.166	0.102
-297.735	52.619	0.164	-0.157
-296.720	551.208	-0.077	0.184
-295.705	-200.000	-0.046	-0.320
-294.691	-200.000	0.055	-0.265
-293.676	-200.000	-0.001	0.150
-292.662	-137.854	-0.241	-0.027
-291.647	-77.846	0.339	0.117
-290.632	651.681	-0.096	-0.246
-289.618	800.000	0.055	0.160
-288.603	119.151	0.234	-0.290
-287.589	86.950	-0.337	-0.374
-286.574	496.404	-0.127	0.292
-285.559	172.382	-0.089	0.129
-284.545	800.000	0.045	-0.182
-283.530	800.000	-0.024	0.086
-282.516	105.406	0.416	-0.492
-281.501	-111.538	-0.118	0.024
-280.486	-39.254	-0.284	0.149
-279.472	-26.378	-0.197	0.116
-278.457	-38.544	0.304	0.161
-277.443	-74.943	0.242	0.087
-276.428	-73.860	-0.187	0.068
-275.413	-54.610	-0.051	0.023
-274.399	359.114	0.067	-0.134
-273.384	800.000	0.069	-0.263
-272.370	-200.000	-0.048	0.402
-271.355	-50.938	-0.053	0.025
-270.340	153.834	0.195	-0.267
-269.326	-200.000	0.029	0.141
-268.311	-200.000	-0.026	0.161
-267.297	-200.000	-0.001	-0.009
-266.282	102.021	-0.153	-0.179
-265.267	-25.372	-0.161	-0.095
-264.253	-200.000	0.029	-0.337
-263.238	-200.000	-0.003	-0.130
-262.224	-150.496	0.176	0.013
-261.209	-6.060	0.026	-0.018
-260.195	-200.000	-0.002	0.153
-259.180	214.432	0.135	0.214
-258.165	33.103	0.240	-0.208
-257.151	-42.943	0.227	-0.115
-256.136	-71.482	0.253	0.095
-255.122	-67.287	-0.292	0.115
-254.107	-45.264	-0.126	-0.063
-253.092	-200.000	0.027	-0.252
-252.078	20.451	0.204	0.165
-251.063	118.997	-0.188	-0.233
-250.049	-100.201	0.280	-0.070
-249.034	-63.463	0.269	0.111
-248.019	-58.376	-0.147	0.064
-247.005	100.275	0.058	-0.067
-245.990	781.973	0.164	0.448
-244.976	-161.257	-0.173	0.009
-243.961	409.759	-0.154	-0.326
-242.946	338.415	0.064	-0.124
-241.932	743.002	0.040	-0.109
-240.917	490.095	0.066	0.150
-239.903	-200.000	-0.021	0.115
-238.888	391.917	-0.076	0.159
-237.873	779.312	0.054	-0.148
-236.859	246.223	0.064	0.108
-235.844	99.497	0.253	-0.292
-234.830	-200.000	0.020	-0.267
-233.815	26.648	-0.121	0.101
-232.800	800.000	-0.078	-0.284
-231.786	117.775	-0.134	0.165
-230.771	295.844	0.058	0.106
-229.757	800.000	-0.025	0.095
-228.742	-136.779	-0.105	-0.012
-227.727	157.206	0.158	0.219
-226.713	-151.905	0.149	-0.011
-225.698	1.496	-0.161	-0.116
-224.684	-166.445	-0.250	-0.010
-223.669	-200.000	0.006	0.240
-222.655	-16.936	0.211	-0.133
-221.640	772.914	-0.057	-0.155
-220.625	-9.719	-0.387	-0.258
-219.611	800.000	0.037	0.122
-218.596	-200.000	0.028	-0.249
-217.582	-135.520	0.322	-0.038
-216.567	-105.821	0.210	0.047
-215.552	53.007	0.518	0.495
-214.538	-29.803	-0.254	0.145
-213.523	800.000	-0.036	0.105
-212.509	250.886	-0.115	0.195
-211.494	-200.000	-0.024	0.172
-210.479	567.383	0.048	-0.117
-209.465	-175.207	-0.232	-0.006
-208.450	-158.141	0.290	0.017
-207.436	-78.119	-0.233	-0.080
-206.421	-128.913	-0.252	0.035
-205.406	-85.672	-0.311	0.097
-204.392	39.803	-0.126	0.113
-203.377	36.406	0.236	-0.208
-202.363	-58.446	0.107	0.046
-201.348	800.000	0.020	-0.074
-200.333	-144.931	-0.206	-0.019
-199.319	27.069	-0.196	-0.165
-198.304	107.247	0.089	0.106
-197.290	800.000	-0.063	-0.235
-196.275	-128.327	0.238	-0.034
-195.260	-179.845	0.140	-0.003
-194.246	800.000	0.066	0.223
-193.231	800.000	0.021	0.069
-192.217	-6.213	-0.188	0.128
-191.202	393.264	-0.147	0.305
-190.187	306.802	-0.114	-0.211
-189.173	22.986	0.287	0.235
-188.158	800.000	0.035	0.122
-187.144	101.065	0.200	0.232
-186.129	145.137	-0.235	-0.313
-185.114	-99.213	-0.265	-0.067
-184.100	-99.175	0.118	-0.030
-183.085	234.306	-0.104	-0.172
-182.071	580.742	-0.106	0.259
-181.056	-200.000	-0.008	-0.107
-180.042	95.169	-0.089	-0.102
-179.027	56.411	-0.116	-0.112
-178.012	375.955	-0.076	0.155
-176.998	531.689	-0.026	-0.063
-175.983	-42.540	-0.324	-0.165
-174.969	105.573	-0.118	-0.139
-173.954	-29.232	0.084	-0.048
-172.939	619.432	-0.013	0.033
-171.925	-200.000	0.003	0.217
-170.910	-200.000	0.001	0.039
-169.896	75.146	-0.059	0.062
-168.881	38.199	0.112	-0.099
-167.866	479.119	-0.025	0.057
-166.852	-83.877	-0.341	-0.108
-165.837	160.533	-0.087	0.122
-164.823	594.473	0.108	0.267
-163.808	490.793	-0.066	-0.151
-162.793	264.789	0.270	0.470
-161.779	-76.957	-0.262	0.091
-160.764	239.695	-0.178	0.296
-159.750	9.984	-0.006	0.004
-158.735	-2.944	-0.096	-0.067
-157.720	-200.000	0.033	-0.209
-156.706	-104.565	0.235	-0.054
-155.691	266.119	0.098	-0.170
-154.677	140.276	0.160	-0.211
-153.662	-200.000	0.079	0.401
-152.647	151.358	-0.143	0.195
-151.633	800.000	-0.005	0.020
-150.618	-160.931	0.271	0.014
-149.604	-128.835	0.115	-0.016
-148.589	759.808	-0.041	0.110
-147.574	315.720	0.114	0.214
-146.560	-1.275	-0.121	0.085
-145.545	-200.000	-0.047	0.268
-144.531	-32.453	-0.169	0.094
-143.516	-61.018	0.300	0.126
-142.502	-59.414	-0.138	-0.059
-141.487	-43.001	-0.278	-0.140
-140.472	594.023	-0.104	-0.257
-139.458	280.577	-0.044	0.078
-138.443	17.714	0.117	0.093
-137.429	800.000	0.099	-0.342
-136.414	-17.712	0.237	0.148
-135.399	53.374	-0.104	0.099
-134.385	244.707	-0.070	0.118
-133.370	-122.606	-0.440	0.071
-132.356	800.000	-0.018	0.063
-131.341	-6.593	0.225	-0.152
-130.326	242.762	0.093	-0.156
-129.312	-82.970	-0.268	-0.086
-128.297	497.567	-0.148	0.338
-127.283	99.550	-0.095	0.109
-126.268	-200.000	0.022	0.109
-125.253	-75.210	0.302	0.107
-124.239	-28.912	0.367	-0.210
-123.224	32.992	0.054	-0.046
-122.210	627.064	0.076	0.192
-121.195	800.000	0.072	0.267
-120.180	12.150	0.283	0.217
-119.166	-200.000	-0.021	0.126
-118.151	-200.000	0.026	0.198
-117.137	264.488	-0.050	-0.087
-116.122	-200.000	-0.002	0.164
-115.107	319.240	0.175	-0.330
-114.093	-56.276	-0.344	0.152
-113.078	47.735	-0.106	-0.098
-112.064	-200.000	-0.021	0.106
-111.049	-200.000	0.009	0.189
-110.034	-12.418	-0.194	-0.126
-109.020	-200.000	-0.052	-0.327
-108.005	-106.694	0.158	-0.035
-106.991	-200.000	-0.027	-0.441
-105.976	-125.486	0.370	-0.056
-104.962	800.000	0.028	0.078
-103.947	-105.294	0.036	0.008
-102.932	-101.715	-0.200	-0.048
-101.918	712.558	0.106	0.280
-100.903	-169.468	-0.071	-0.003
-99.889	65.116	0.154	-0.155
-98.874	401.910	0.073	0.154
-97.859	9.228	-0.303	-0.228
-96.845	15.644	0.298	-0.233
-95.830	69.009	0.138	-0.141
-94.816	88.748	0.143	-0.158
-93.801	-200.000	-0.012	-0.057
-92.786	147.692	-0.185	0.248
-91.772	129.891	-0.069	-0.088
-90.757	-13.314	0.089	0.058
-89.743	-49.335	-0.117	0.055
-88.728	800.000	-0.036	-0.115
-87.713	75.257	0.217	0.227
-86.699	282.409	-0.057	0.102
-85.684	6.193	0.274	-0.202
-84.670	56.844	0.063	0.061
-83.655	800.000	-0.065	-0.229
-82.640	8.139	-0.273	0.203
-81.626	-112.757	-0.136	0.027
-80.611	22.072	-0.288	-0.234
-79.597	-97.808	0.459	-0.118
-78.582	800.000	0.082	0.235
-77.567	-76.605	0.198	-0.069
-76.553	118.219	0.077	0.095
-75.538	-82.723	0.085	0.027
-74.524	110.625	0.269	-0.321
-73.509	127.308	-0.074	-0.093
-72.494	-200.000	-0.031	-0.176
-71.480	-131.524	-0.175	0.023
-70.465	515.631	-0.118	0.273
-69.451	-100.134	0.387	0.096
-68.436	-50.270	0.125	0.059
-67.422	440.846	-0.089	0.194
-66.407	35.450	0.191	-0.166
-65.392	-30.181	-0.090	-0.051
-64.378	669.638	-0.012	-0.031
-63.363	5.330	0.083	-0.061
-62.349	-131.717	0.259	0.034
-61.334	26.731	-1.067	-0.888
-60.319	-200.000	0.011	0.288
-59.305	-200.000	-0.070	-0.672
-58.290	569.480	0.404	0.976
-57.276	653.447	0.657	1.673
-56.261	-200.000	87.394	496.387
-55.246	429.316	1421.909	3053.337
-54.232	140.266	2646.120	3467.367
-53.217	108.186	2253.932	2669.689
-52.203	47.762	1687.509	1564.376
-51.188	40.510	1414.595	1265.269
-50.173	37.211	1370.765	1205.574
-49.159	55.735	1414.107	1360.833
-48.144	60.225	1432.957	1407.228
-47.130	41.061	1390.463	1246.942
-46.115	37.263	1372.774	1207.473
-45.100	37.023	1368.420	1202.110
-44.086	36.941	1365.525	1199.007
-43.071	37.034	1363.016	1197.332
-42.057	36.928	1361.308	1195.133
-41.042	37.071	1359.147	1194.067
-40.027	37.205	1357.328	1193.246
-39.013	37.145	1355.104	1190.877
-37.998	37.131	1353.626	1189.442
-36.984	37.232	1351.473	1188.122
-35.969	37.261	1349.256	1186.302
-34.954	37.218	1347.669	1184.598
-33.940	37.166	1346.453	1183.167
-32.925	37.255	1345.084	1182.457
-31.911	37.386	1343.602	1181.905
-30.896	37.289	1341.687	1179.582
-29.881	37.223	1340.816	1178.370
-28.867	37.300	1339.075	1177.263
-27.852	37.318	1337.722	1176.132
-26.838	37.381	1335.730	1174.715
-25.823	37.358	1334.581	1173.522
-24.809	37.321	1333.272	1172.098
-23.794	37.191	1331.944	1170.101
-22.779	37.286	1330.320	1169.203
-21.765	37.367	1328.946	1168.431
-20.750	37.085	1328.261	1166.088
-19.736	37.122	1326.310	1164.556
-18.721	37.099	1325.153	1163.353
-17.706	37.033	1323.762	1161.690
-16.692	37.058	1322.868	1161.009
-15.677	37.099	1321.766	1160.242
-14.663	37.112	1320.222	1158.917
-13.648	37.176	1318.522	1157.760
-12.633	37.103	1318.122	1156.927
-11.619	37.006	1317.938	1156.143
-10.604	37.137	1316.237	1155.387
-9.590	37.009	1315.566	1153.989
-8.575	37.038	1314.234	1152.946
-7.560	36.989	1313.789	1152.219
-6.546	37.099	1312.642	1151.819
-5.531	37.080	1311.437	1150.607
-4.517	37.072	1310.459	1149.654
-3.502	37.162	1309.295	1149.120
-2.487	36.943	1309.043	1147.556
-1.473	37.188	1304.830	1145.265
-0.458	35.961	1289.814	1124.879
0.556	30.870	1269.799	1082.971
1.571	26.710	1274.030	1062.157
2.586	25.253	1288.852	1065.773
3.600	24.297	1278.037	1051.106
4.615	21.129	1207.044	974.962
5.629	15.846	1132.781	887.125
6.644	12.966	1112.562	856.285
7.659	12.892	1109.477	853.453
8.673	12.816	1108.190	851.991
9.688	12.676	1106.783	850.116
10.702	13.073	1105.208	850.876
11.717	16.278	1109.768	870.868
12.731	20.116	1114.337	894.218
13.746	19.455	1112.307	889.107
14.761	17.806	1109.293	878.136
15.775	16.638	1106.973	870.221
16.790	15.566	1105.070	863.140
17.804	14.842	1102.942	857.692
18.819	14.333	1101.657	854.007
19.834	14.081	1100.915	852.062
20.848	13.757	1100.068	849.672
21.863	13.588	1098.881	847.816
22.877	13.373	1098.503	846.349
23.892	13.296	1097.875	845.398
24.907	13.355	1096.463	844.539
25.921	13.426	1095.831	844.340
26.936	13.410	1094.778	843.369
27.950	13.442	1093.471	842.451
28.965	13.518	1091.793	841.469
29.980	13.565	1090.290	840.478
30.994	13.631	1088.708	839.517
32.009	13.713	1087.544	838.961
33.023	13.593	1086.684	837.615
34.038	13.581	1085.004	836.188
35.053	13.526	1084.698	835.600
36.067	13.604	1083.479	834.980
37.082	13.428	1083.285	833.867
38.096	13.611	1081.842	833.607
39.111	13.538	1081.341	832.776
40.126	13.488	1079.947	831.379
41.140	13.333	1078.511	829.422
42.155	13.360	1077.159	828.446
43.169	13.306	1076.043	827.242
44.184	13.302	1075.024	826.369
45.199	13.332	1073.909	825.586
46.213	13.339	1072.780	824.680
47.228	13.391	1071.761	824.082
48.242	13.540	1070.274	823.607
49.257	13.374	1069.786	822.336
50.271	13.487	1068.660	821.960
51.286	13.456	1067.890	821.138
52.301	13.437	1067.281	820.505
53.315	13.406	1065.758	819.107
54.330	13.436	1064.611	818.302
55.344	13.433	1064.140	817.851
56.359	13.493	1062.772	817.022
57.374	13.398	1061.922	815.831
58.388	13.300	1061.065	814.615
59.403	13.296	1060.198	813.859
60.417	13.288	1059.497	813.211
61.432	13.319	1058.603	812.606
62.447	13.247	1057.777	811.543
63.461	13.143	1057.410	810.680
64.476	13.163	1056.315	809.866
65.490	13.362	1055.105	809.844
66.505	13.296	1054.699	809.137
67.520	13.221	1054.042	808.192
68.534	13.413	1052.812	808.116
69.549	13.316	1052.326	807.201
70.563	13.281	1051.504	806.327
71.578	13.388	1049.948	805.584
72.593	13.247	1049.748	804.670
73.607	13.128	1049.188	803.591
74.622	13.212	1048.537	803.432
75.636	13.248	1047.561	802.787
76.651	13.183	1047.071	802.025
77.666	13.169	1046.947	801.790
78.680	13.112	1046.417	801.037
79.695	13.324	1045.254	801.104
80.709	13.359	1044.346	800.508
81.724	13.268	1044.358	800.005
82.739	13.481	1042.779	799.752
83.753	13.542	1042.076	799.439
84.768	13.472	1041.361	798.481
85.782	13.615	1040.389	798.351
86.797	13.633	1039.402	797.612
87.812	13.509	1038.458	796.223
88.826	13.449	1037.576	795.187
89.841	13.610	1036.695	795.213
90.855	13.507	1035.687	793.874
91.870	13.543	1035.487	793.825
92.884	13.539	1034.087	792.660
93.899	13.544	1033.154	791.899
94.914	13.581	1032.210	791.282
95.928	13.749	1031.317	791.332
96.943	13.611	1030.769	790.183
97.957	13.623	1029.446	789.154
98.972	13.571	1028.552	788.150
99.987	13.636	1027.837	787.846
101.001	13.423	1026.896	786.042
102.016	13.472	1025.842	785.400
103.030	13.579	1025.257	785.388
104.045	13.659	1024.166	784.863
105.060	13.494	1023.529	783.525
106.074	13.456	1022.449	782.448
107.089	13.354	1021.672	781.302
108.103	13.347	1020.474	780.284
109.118	13.391	1019.675	779.812
110.133	13.493	1018.458	779.291
111.147	13.375	1017.531	777.960
112.162	13.558	1016.903	778.271
113.176	13.453	1016.340	777.278
114.191	13.525	1015.356	776.794
115.206	13.391	1014.695	775.589
116.220	13.500	1013.525	775.136
117.235	13.459	1012.736	774.272
118.249	13.568	1011.713	773.933
119.264	13.436	1010.942	772.656
120.279	13.498	1010.079	772.218
121.293	13.374	1009.753	771.324
122.308	13.352	1008.758	770.392
123.322	13.355	1007.624	769.473
124.337	13.479	1006.122	768.833
125.352	13.444	1005.378	768.034
126.366	13.356	1004.299	766.733
127.381	13.468	1003.220	766.360
128.395	13.516	1002.348	765.851
129.410	13.492	1001.480	765.007
130.424	13.515	1000.581	764.359
131.439	13.522	999.925	763.821
132.454	13.517	999.377	763.316
133.468	13.653	998.287	763.038
134.483	13.543	997.548	761.903
135.497	13.574	996.779	761.391
136.512	13.558	995.856	760.542
137.527	13.586	994.726	759.741
138.541	13.693	994.002	759.611
139.556	13.586	993.521	758.685
140.570	13.565	992.831	757.998
141.585	13.718	991.775	757.821
142.600	13.770	990.484	757.007
143.614	13.857	989.612	756.670
144.629	13.880	988.969	756.216
145.643	13.750	988.374	755.102
146.658	13.846	986.787	754.257
147.673	13.794	986.018	753.368
148.687	13.593	985.310	751.848
149.702	13.600	984.454	751.160
150.716	13.485	983.977	750.210
151.731	13.679	982.610	749.979
152.746	13.667	982.138	749.495
153.760	13.540	981.857	748.642
154.775	13.660	980.829	748.335
155.789	13.733	979.975	747.947
156.804	13.837	979.168	747.735
157.819	13.919	978.310	747.379
158.833	13.793	978.103	746.589
159.848	13.974	977.087	746.563
160.862	13.735	976.492	744.969
161.877	13.733	975.292	743.977
162.892	13.600	974.544	742.743
163.906	13.816	973.245	742.656
164.921	13.654	972.701	741.448
165.935	13.759	971.724	741.108
166.950	13.738	971.191	740.542
167.964	13.705	970.032	739.446
168.979	13.724	969.441	739.015
169.994	13.753	968.469	738.336
171.008	13.837	967.573	737.961
172.023	13.732	966.940	736.948
173.037	13.900	966.281	737.128
174.052	13.833	965.520	736.183
175.067	13.743	964.977	735.305
176.081	13.771	964.298	734.847
177.096	13.867	963.555	734.642
178.110	13.836	962.931	733.963
179.125	13.868	962.327	733.577
180.140	13.787	961.855	732.798
181.154	13.828	961.596	732.717
182.169	13.854	960.995	732.309
183.183	14.042	959.975	732.291
184.198	13.983	959.402	731.531
185.213	14.024	958.775	731.170
186.227	14.134	957.973	730.978
187.242	14.061	957.441	730.185
188.256	14.096	956.870	729.837
189.271	14.163	955.863	729.298
190.286	13.962	955.063	727.742
191.300	13.922	954.357	726.970
192.315	13.859	953.473	725.954
193.329	13.855	953.146	725.623
194.344	13.848	952.885	725.330
195.359	13.958	951.812	724.928
196.373	14.094	951.247	725.028
197.388	14.211	951.151	725.399
198.402	14.215	950.177	724.612
199.417	14.239	949.622	724.229
200.432	14.279	949.041	723.895
201.446	14.289	948.570	723.514
202.461	14.429	947.952	723.586
203.475	14.305	947.527	722.659
204.490	14.312	946.437	721.796
205.504	14.342	945.740	721.330
206.519	14.214	945.094	720.220
207.534	14.332	944.011	719.840
208.548	14.246	943.349	718.901
209.563	14.312	942.988	718.846
210.577	14.309	942.378	718.305
211.592	14.355	941.611	717.856
212.607	14.528	940.565	717.738
213.621	14.518	939.737	717.003
214.636	14.562	938.989	716.556
215.650	14.584	938.629	716.311
216.665	14.539	937.855	715.466
217.680	14.511	937.389	714.926
218.694	14.573	936.252	714.259
219.709	14.565	935.803	713.821
220.723	14.478	935.346	713.036
221.738	14.538	934.571	712.641
222.753	14.619	933.738	712.286
223.767	14.531	933.481	711.652
224.782	14.706	932.893	711.886
225.796	14.540	932.572	710.873
226.811	14.739	931.387	710.753
227.826	14.559	930.913	709.565
228.840	14.563	929.924	708.764
229.855	14.621	929.092	708.313
230.869	14.722	928.502	708.230
231.884	14.606	927.493	706.904
232.899	14.568	926.939	706.259
233.913	14.572	926.429	705.826
234.928	14.622	925.278	705.097
235.942	14.644	924.798	704.762
236.957	14.598	924.425	704.221
237.972	14.504	924.033	703.462
238.986	14.475	923.616	702.961
240.001	14.780	922.418	703.272
241.015	14.692	921.720	702.307
242.030	14.674	921.391	701.919
243.045	14.713	920.797	701.567
244.059	14.534	920.295	700.373
245.074	14.799	919.131	700.534
246.088	14.849	918.499	700.199
247.103	14.857	918.122	699.883
248.117	14.824	917.490	699.205
249.132	15.018	916.683	699.336
250.147	14.987	916.369	698.904
251.161	15.087	915.366	698.496
252.176	14.985	915.272	697.937
253.190	15.010	914.364	697.287
254.205	15.128	913.856	697.330
255.220	15.058	912.920	696.262
256.234	15.094	912.441	695.987
257.249	15.147	911.491	695.418
258.263	15.249	910.768	695.231
259.278	15.196	910.063	694.411
260.293	15.250	909.387	694.057
261.307	15.286	909.154	693.968
262.322	15.249	908.470	693.231
263.336	15.273	907.454	692.492
264.351	15.315	906.910	692.188
265.366	15.426	905.849	691.775
266.380	15.483	905.256	691.498
267.395	15.249	904.909	690.207
268.409	15.244	904.133	689.533
269.424	15.305	903.403	689.167
270.439	15.431	902.387	688.846
271.453	15.233	901.776	687.509
272.468	15.380	901.018	687.473
273.482	15.347	900.650	686.995
274.497	15.423	899.865	686.645
275.512	15.240	899.611	685.641
276.526	15.374	899.006	685.667
277.541	15.481	898.524	685.679
278.555	15.506	897.696	685.085
279.570	15.624	897.070	685.032
280.585	15.449	896.586	683.887
281.599	15.538	895.498	683.357
282.614	15.587	894.781	682.951
283.628	15.505	894.364	682.239
284.643	15.553	893.298	681.561
285.657	15.570	893.166	681.468
286.672	15.579	892.493	680.929
287.687	15.495	891.812	680.011
288.701	15.580	891.319	679.920
289.716	15.585	890.952	679.597
290.730	15.632	889.888	678.918
291.745	15.705	889.343	678.734
292.760	15.545	889.130	677.865
293.774	15.656	888.355	677.665
294.789	15.631	887.756	677.045
295.803	15.702	886.542	676.345
296.818	15.703	886.176	676.010
297.833	15.744	885.270	675.424
298.847	15.597	884.877	674.473
299.862	15.732	884.108	674.370
300.876	15.851	883.458	674.292
301.891	15.909	882.802	673.963
302.906	15.873	882.550	673.566
303.920	15.886	881.977	673.123
304.935	15.998	881.634	673.250
305.949	15.858	880.830	672.015
306.964	15.808	880.432	671.454
307.979	15.825	879.827	671.001
308.993	15.886	879.307	670.786
310.008	16.080	878.218	670.671
311.022	16.001	877.628	669.846
312.037	16.086	877.195	669.794
313.052	15.967	876.425	668.674
314.066	15.877	876.075	667.989
315.081	15.810	875.932	667.555
316.095	15.824	875.333	667.098
317.110	15.819	874.482	666.371
318.125	16.018	873.464	666.321
319.139	15.921	873.345	665.786
320.154	15.962	872.672	665.378
321.168	16.103	872.234	665.544
322.183	15.879	871.958	664.387
323.197	15.950	871.305	664.114
324.212	16.094	870.338	663.882
325.227	16.032	869.852	663.210
326.241	16.093	868.963	662.713
327.256	15.988	868.892	662.187
328.270	16.077	868.408	662.112
329.285	16.000	867.503	661.057
330.300	16.059	867.238	661.029
331.314	16.200	866.449	660.922
332.329	16.160	865.864	660.261
333.343	16.265	865.539	660.366
334.358	16.207	865.002	659.673
335.373	16.214	864.571	659.312
336.387	16.221	864.300	659.076
337.402	16.297	864.044	659.116
338.416	16.318	863.697	658.875
339.431	16.235	863.606	658.424
340.446	16.322	862.836	658.118
341.460	16.323	862.472	657.787
342.475	16.364	862.026	657.546
343.489	16.431	861.856	657.618
344.504	16.525	861.136	657.380
345.519	16.493	860.766	656.913
346.533	16.472	860.132	656.288
347.548	16.506	859.365	655.779
348.562	16.571	858.756	655.509
349.577	16.332	858.517	654.341
350.592	16.343	857.638	653.654
351.606	16.434	857.165	653.590
352.621	16.368	856.283	652.602
353.635	16.436	855.490	652.205
354.650	16.455	855.051	651.886
355.665	16.461	854.568	651.482
356.679	16.578	853.799	651.288
357.694	16.518	853.466	650.748
358.708	16.660	852.041	650.149
359.723	16.727	851.754	650.128
360.738	16.531	851.772	649.332
361.752	16.514	850.928	648.564
362.767	16.662	850.096	648.441
363.781	16.720	849.626	648.250
364.796	16.768	849.417	648.215
365.810	16.986	848.662	648.413
366.825	16.912	848.624	648.045
367.840	16.817	847.756	646.963
368.854	16.956	847.280	647.071
369.869	16.859	846.819	646.293
370.883	16.921	846.538	646.258
371.898	16.826	846.517	645.821
372.913	16.896	845.530	645.278
373.927	16.914	845.013	644.894
374.942	16.953	844.567	644.648
375.956	16.869	844.655	644.336
376.971	16.969	843.932	644.109
377.986	17.150	843.139	644.133
379.000	17.255	842.714	644.147
380.015	17.042	842.560	643.168
381.029	17.279	841.316	643.058
382.044	17.089	841.215	642.205
383.059	17.041	840.500	641.419
384.073	17.119	839.935	641.228
385.088	17.075	839.330	640.543
386.102	17.107	838.913	640.287
387.117	17.141	838.157	639.785
388.132	17.120	837.324	639.009
389.146	17.161	837.132	638.964
390.161	17.122	836.956	638.625
391.175	17.160	835.922	637.924
392.190	17.173	835.564	637.639
393.205	17.184	834.997	637.195
394.219	17.122	834.884	636.820
395.234	17.179	834.255	636.494
396.248	17.171	833.840	636.092
397.263	17.123	833.286	635.436
398.278	16.994	833.126	634.773
399.292	17.110	832.513	634.682
400.307	17.123	832.119	634.376
401.321	17.028	831.935	633.826
402.336	17.112	831.143	633.477
403.350	17.214	830.859	633.586
404.365	17.211	830.437	633.198
405.380	17.329	829.453	632.830
406.394	17.256	829.186	632.299
407.409	17.393	828.645	632.340
408.423	17.444	828.207	632.140
409.438	17.536	827.902	632.190
410.453	17.416	827.706	631.540
411.467	17.538	827.246	631.586
412.482	17.611	826.487	631.220
413.496	17.702	826.027	631.152
414.511	17.648	825.948	630.834
415.526	17.643	825.613	630.505
416.540	17.570	824.958	629.680
417.555	17.650	824.196	629.338
418.569	17.642	824.050	629.142
419.584	17.709	823.485	628.901
420.599	17.803	823.059	628.864
421.613	98.980	1280.661	1419.375
422.628	85.378	1347.335	1419.483
