DTS Sentinel unit serial number:	SN413079Multiplexer serial number:	ORYXHardware model number:	OX4-SRSoftware version number:	ORYX F/W v4.00 Oryx Data Collector v3.7.2.0data status	okinstallation	princeton_trtdifferential loss correction	single-endedforward channel	channel 1reverse channel	N/Adate	2019/09/14time	19:10:35forward acquisition time	60.00reverse acquisition time	0.00gamma	496.2192k internal	0.2310k external	0.2310temperature offset calibration	1.0026default loss term (dB/km)	0.3790temperature slope calibration	1.0000multiplexer offset coefficient	1.0000multiplexer slope coefficient	1.0000fibre end	0.00T internal ref (°C)	35.31T ext. ref 1 (°C)	4.86T ext. ref 2 (°C)	29.25length (m)	temperature (°C)	Stokes	anti-Stokes-747.200	-91.360	-0.279	0.081
-746.185	183.109	0.071	-0.107
-745.171	691.389	-0.097	0.259
-744.156	-200.000	-0.045	0.377
-743.142	-200.000	-0.000	-0.139
-742.127	167.043	0.109	-0.157
-741.112	-23.191	-0.211	-0.129
-740.098	40.543	-0.084	0.077
-739.083	-180.146	-0.239	0.005
-738.069	-200.000	0.000	0.075
-737.054	800.000	0.090	-0.282
-736.039	-89.948	-0.261	0.077
-735.025	121.583	-0.115	0.146
-734.010	490.248	-0.094	-0.219
-732.996	62.187	-0.045	-0.046
-731.981	42.366	0.135	-0.124
-730.966	-40.247	-0.440	0.232
-729.952	-94.555	-0.361	-0.100
-728.937	3.618	-0.189	-0.140
-727.923	307.582	-0.134	-0.254
-726.908	88.816	0.059	0.066
-725.894	-200.000	-0.036	0.358
-724.879	457.631	0.041	-0.093
-723.864	-200.000	0.077	-0.347
-722.850	60.041	-0.462	0.464
-721.835	-107.970	0.126	0.028
-720.821	-48.625	0.088	-0.043
-719.806	800.000	0.098	0.311
-718.791	-144.543	-0.284	0.027
-717.777	-98.651	0.096	0.025
-716.762	-22.780	-0.188	0.115
-715.748	-82.532	-0.269	-0.089
-714.733	-48.050	-0.166	0.081
-713.718	-55.723	-0.356	0.161
-712.704	800.000	0.075	0.306
-711.689	-200.000	-0.001	-0.098
-710.675	79.823	-0.166	-0.180
-709.660	-14.344	0.364	0.238
-708.645	-200.000	-0.027	0.239
-707.631	-200.000	0.021	0.303
-706.616	-66.669	0.072	-0.029
-705.602	800.000	-0.097	-0.297
-704.587	-122.556	-0.320	0.053
-703.572	-200.000	0.029	0.229
-702.558	70.065	0.233	0.244
-701.543	-65.671	0.052	-0.021
-700.529	-124.756	0.230	0.036
-699.514	-40.745	0.244	-0.128
-698.499	731.734	0.060	-0.162
-697.485	-200.000	0.058	-0.277
-696.470	-158.934	-0.300	-0.017
-695.456	-59.990	-0.180	-0.078
-694.441	-38.900	-0.136	-0.073
-693.426	-200.000	0.008	0.052
-692.412	24.981	-0.091	-0.076
-691.397	-14.738	0.523	0.341
-690.383	800.000	0.077	0.253
-689.368	99.005	0.064	-0.075
-688.354	-46.045	-0.236	-0.118
-687.339	628.707	0.103	0.263
-686.324	484.901	0.036	-0.083
-685.310	800.000	0.040	0.128
-684.295	-131.977	-0.126	-0.017
-683.281	-48.888	0.272	0.132
-682.266	44.230	-0.233	-0.216
-681.251	-135.471	-0.074	-0.009
-680.237	131.700	-0.113	0.147
-679.222	77.538	0.258	-0.278
-678.208	-130.830	-0.487	0.066
-677.193	501.717	-0.086	0.201
-676.178	285.513	-0.111	-0.204
-675.164	0.525	-0.159	-0.115
-674.149	-153.550	0.090	-0.006
-673.135	51.201	0.126	-0.121
-672.120	-27.374	-0.298	-0.176
-671.105	-200.000	-0.020	-0.149
-670.091	32.645	0.036	-0.031
-669.076	-200.000	-0.015	-0.156
-668.062	-24.942	0.329	-0.198
-667.047	-200.000	-0.005	0.145
-666.032	-101.621	-0.354	0.087
-665.018	800.000	0.043	0.125
-664.003	-118.118	0.263	-0.048
-662.989	85.473	0.342	-0.381
-661.974	304.237	0.066	-0.125
-660.959	31.711	0.146	0.128
-659.945	-32.968	-0.167	0.094
-658.930	-200.000	-0.067	0.474
-657.916	-77.364	0.420	-0.148
-656.901	-200.000	-0.063	-0.293
-655.886	40.046	-0.297	-0.270
-654.872	-200.000	-0.021	0.115
-653.857	-140.016	-0.310	0.033
-652.843	-200.000	-0.005	0.369
-651.828	-45.761	0.294	0.147
-650.814	511.282	-0.116	0.273
-649.799	89.383	0.148	0.167
-648.784	-200.000	-0.000	-0.185
-647.770	-200.000	-0.017	-0.130
-646.755	-200.000	-0.002	-0.114
-645.741	-200.000	0.040	-0.181
-644.726	772.338	0.111	0.306
-643.711	195.651	-0.139	-0.214
-642.697	-63.035	0.192	-0.080
-641.682	54.482	-0.124	-0.121
-640.668	126.566	0.095	-0.122
-639.653	-200.000	0.008	-0.126
-638.638	67.996	-0.264	-0.273
-637.624	-200.000	0.028	-0.227
-636.609	-123.340	0.110	0.018
-635.595	464.921	0.086	-0.194
-634.580	-73.602	-0.148	-0.054
-633.565	372.008	0.082	-0.169
-632.551	262.174	-0.155	-0.272
-631.536	-166.004	0.095	-0.004
-630.522	-200.000	0.046	-0.208
-629.507	-30.586	0.069	-0.039
-628.492	20.702	-0.151	-0.123
-627.478	-118.292	-0.457	0.082
-626.463	-111.620	-0.198	0.041
-625.449	37.710	0.061	-0.055
-624.434	-200.000	-0.019	-0.209
-623.419	800.000	0.095	0.269
-622.405	-76.602	0.129	0.046
-621.390	15.930	0.082	-0.065
-620.376	69.066	0.119	-0.123
-619.361	271.664	-0.086	0.153
-618.346	-85.804	-0.158	-0.049
-617.332	13.046	-0.288	0.225
-616.317	-200.000	0.003	-0.060
-615.303	-5.738	0.192	0.133
-614.288	524.204	-0.115	0.273
-613.273	6.915	0.416	0.313
-612.259	328.243	-0.146	-0.284
-611.244	-108.459	0.237	-0.051
-610.230	-200.000	-0.015	0.270
-609.215	447.482	0.052	0.116
-608.201	-200.000	0.022	-0.147
-607.186	39.885	-0.098	0.088
-606.171	-64.368	-0.214	-0.088
-605.157	354.497	0.069	-0.138
-604.142	315.405	0.037	-0.071
-603.128	248.708	0.130	0.222
-602.113	52.262	-0.041	0.039
-601.098	96.171	0.308	-0.356
-600.084	46.716	-0.165	-0.155
-599.069	-25.127	-0.195	0.117
-598.055	564.429	-0.097	0.237
-597.040	40.297	0.176	-0.159
-596.025	-71.137	0.115	-0.044
-595.011	-79.754	-0.088	-0.030
-593.996	-200.000	-0.018	-0.240
-592.982	50.044	-0.060	-0.057
-591.967	-200.000	-0.022	-0.179
-590.952	22.201	-0.263	-0.217
-589.938	800.000	-0.032	0.131
-588.923	-65.682	0.042	-0.017
-587.909	-92.505	0.161	-0.046
-586.894	46.996	-0.058	0.055
-585.879	-40.274	0.133	-0.070
-584.865	262.133	0.132	0.230
-583.850	-200.000	-0.040	0.230
-582.836	99.056	0.103	0.120
-581.821	-195.555	0.343	-0.003
-580.806	-200.000	-0.063	0.323
-579.792	800.000	-0.039	0.138
-578.777	-200.000	0.008	-0.044
-577.763	-66.415	-0.153	-0.061
-576.748	-200.000	-0.002	-0.095
-575.733	-103.218	0.122	-0.029
-574.719	-106.634	-0.207	-0.046
-573.704	-18.902	-0.210	0.132
-572.690	15.692	-0.322	0.255
-571.675	-200.000	-0.013	0.240
-570.661	719.043	-0.071	-0.190
-569.646	-93.627	0.301	-0.084
-568.631	-164.155	-0.413	-0.019
-567.617	-13.027	-0.260	-0.171
-566.602	-93.475	0.210	0.059
-565.588	-200.000	0.035	0.281
-564.573	30.153	-0.087	0.075
-563.558	-200.000	0.015	0.197
-562.544	27.734	0.115	-0.098
-561.529	85.370	-0.186	-0.206
-560.515	-200.000	-0.020	-0.231
-559.500	800.000	-0.045	0.125
-558.485	-21.420	0.105	0.064
-557.471	-84.330	0.208	-0.066
-556.456	594.756	0.092	-0.231
-555.442	-67.992	-0.409	-0.161
-554.427	-47.132	0.218	0.107
-553.412	19.171	-0.155	0.125
-552.398	-200.000	-0.043	-0.225
-551.383	153.162	0.230	0.317
-550.369	146.601	0.129	-0.175
-549.354	-81.121	-0.191	0.064
-548.339	-69.328	-0.233	-0.090
-547.325	435.329	-0.152	-0.332
-546.310	89.225	-0.159	-0.179
-545.296	-22.793	-0.113	-0.069
-544.281	330.587	-0.145	-0.282
-543.266	-200.000	0.016	0.286
-542.252	-200.000	0.017	-0.191
-541.237	323.983	-0.110	-0.212
-540.223	73.849	-0.137	0.144
-539.208	375.485	-0.085	-0.174
-538.193	79.730	0.207	-0.224
-537.179	-42.704	0.165	0.085
-536.164	-75.376	-0.058	0.021
-535.150	182.024	-0.125	0.185
-534.135	137.974	0.046	0.061
-533.121	-200.000	0.002	0.060
-532.106	249.164	-0.160	0.273
-531.091	178.922	-0.122	-0.179
-530.077	110.060	-0.114	-0.137
-529.062	-71.741	-0.256	0.096
-528.048	283.455	-0.071	-0.128
-527.033	-162.129	0.115	0.006
-526.018	490.720	-0.072	0.167
-525.004	-199.414	0.168	0.001
-523.989	464.863	-0.122	-0.275
-522.975	-42.709	-0.067	-0.034
-521.960	75.007	0.108	0.114
-520.945	-114.876	-0.330	0.063
-519.931	-100.995	-0.172	-0.042
-518.916	-200.000	0.037	-0.244
-517.902	513.132	0.064	0.149
-516.887	-136.225	0.163	0.019
-515.872	30.010	0.192	0.165
-514.858	800.000	0.047	-0.150
-513.843	-134.396	0.078	-0.010
-512.829	37.348	0.251	0.224
-511.814	-164.225	0.236	-0.011
-510.799	-104.632	0.462	-0.107
-509.785	-70.564	0.211	-0.080
-508.770	-81.047	-0.194	-0.064
-507.756	50.015	-0.239	0.227
-506.741	-103.071	-0.103	0.025
-505.726	-51.318	0.152	-0.071
-504.712	780.240	-0.026	0.073
-503.697	-42.404	-0.103	-0.053
-502.683	36.900	0.069	-0.061
-501.668	-200.000	0.011	-0.321
-500.653	-163.830	0.158	0.007
-499.639	167.767	-0.103	0.148
-498.624	-46.759	0.138	0.068
-497.610	-62.052	-0.067	0.028
-496.595	-200.000	0.053	0.265
-495.581	-152.597	0.197	-0.014
-494.566	-146.155	-0.065	0.006
-493.551	-98.572	0.106	0.027
-492.537	-35.359	0.181	-0.099
-491.522	-200.000	-0.016	0.075
-490.508	-103.690	0.281	0.066
-489.493	-200.000	0.013	-0.232
-488.478	30.370	0.220	-0.189
-487.464	-34.659	-0.260	-0.143
-486.449	-24.012	-0.169	0.101
-485.435	-22.532	0.089	-0.054
-484.420	-85.361	0.236	0.074
-483.405	256.371	-0.179	0.309
-482.391	-27.284	0.082	0.048
-481.376	-22.340	0.222	-0.135
-480.362	156.225	-0.112	-0.156
-479.347	-200.000	0.028	0.155
-478.332	246.301	-0.232	-0.394
-477.318	-200.000	0.066	-0.297
-476.303	800.000	0.019	-0.077
-475.289	-128.169	0.126	-0.018
-474.274	-200.000	0.005	0.162
-473.259	78.450	0.115	0.124
-472.245	14.418	-0.288	-0.226
-471.230	-200.000	0.041	0.304
-470.216	-78.448	-0.185	0.064
-469.201	-125.119	0.126	-0.019
-468.186	17.005	-0.191	-0.152
-467.172	-122.726	-0.226	0.037
-466.157	202.024	0.178	-0.275
-465.143	582.750	0.037	-0.092
-464.128	800.000	-0.039	0.141
-463.113	-98.876	-0.095	0.024
-462.099	-119.786	-0.480	0.083
-461.084	-179.911	0.204	-0.004
-460.070	-200.000	-0.017	0.201
-459.055	-24.216	0.214	-0.128
-458.040	-200.000	-0.036	0.410
-457.026	-72.096	0.029	0.011
-456.011	682.503	0.070	-0.184
-454.997	14.765	-0.259	-0.203
-453.982	-129.173	0.441	-0.062
-452.968	-200.000	-0.018	-0.203
-451.953	113.572	-0.191	-0.233
-450.938	-200.000	-0.002	0.228
-449.924	-165.753	0.123	0.005
-448.909	-14.800	0.162	0.104
-447.895	-169.093	-0.052	-0.002
-446.880	-141.704	-0.145	0.015
-445.865	16.678	0.126	-0.100
-444.851	800.000	0.094	0.383
-443.836	-7.504	-0.083	-0.056
-442.822	800.000	0.035	0.121
-441.807	-101.504	0.262	-0.064
-440.792	-60.343	0.149	-0.064
-439.778	-92.276	0.356	-0.101
-438.763	316.012	-0.096	-0.182
-437.749	-200.000	0.043	-0.193
-436.734	-200.000	0.014	-0.151
-435.719	-200.000	0.000	-0.044
-434.705	383.219	-0.049	0.102
-433.690	311.657	0.071	0.133
-432.676	-15.636	-0.159	0.102
-431.661	800.000	0.050	-0.180
-430.646	325.809	-0.105	-0.202
-429.632	564.337	-0.052	-0.127
-428.617	324.863	0.146	0.280
-427.603	71.959	0.116	-0.121
-426.588	107.871	-0.297	-0.355
-425.573	794.022	0.137	-0.377
-424.559	-200.000	0.028	0.239
-423.544	-70.918	-0.193	0.073
-422.530	-56.273	0.054	0.024
-421.515	-96.853	-0.073	-0.019
-420.500	286.128	0.054	0.098
-419.486	-88.902	-0.420	0.125
-418.471	-51.343	-0.191	-0.090
-417.457	-159.433	-0.417	-0.023
-416.442	-81.391	-0.386	-0.128
-415.428	-64.098	0.232	0.095
-414.413	51.361	0.071	0.068
-413.398	-90.730	0.142	-0.041
-412.384	772.799	-0.050	-0.136
-411.369	-200.000	-0.019	0.268
-410.355	215.440	-0.118	-0.188
-409.340	6.797	0.139	-0.104
-408.325	-139.274	0.331	0.036
-407.311	49.841	-0.230	0.217
-406.296	-152.390	0.079	-0.006
-405.282	83.765	-0.094	-0.103
-404.267	-108.334	-0.261	0.056
-403.252	-10.080	0.059	-0.039
-402.238	125.060	0.233	0.295
-401.223	-181.911	-0.210	-0.004
-400.209	261.184	-0.075	0.130
-399.194	33.800	-0.206	-0.180
-398.179	-200.000	0.061	0.289
-397.165	-119.589	0.056	-0.010
-396.150	800.000	-0.097	-0.315
-395.136	-160.785	-0.149	-0.008
-394.121	800.000	-0.125	-0.363
-393.106	800.000	0.065	0.196
-392.092	411.366	0.031	-0.066
-391.077	-200.000	-0.025	0.155
-390.063	-142.357	0.156	-0.015
-389.048	-77.066	0.308	0.108
-388.033	76.128	-0.131	0.139
-387.019	476.780	-0.056	0.127
-386.004	42.279	-0.076	-0.069
-384.990	44.513	0.186	0.171
-383.975	800.000	-0.010	-0.041
-382.960	95.295	-0.112	-0.127
-381.946	-37.799	0.200	-0.107
-380.931	-200.000	0.051	0.377
-379.917	237.698	0.093	0.155
-378.902	-47.792	0.301	-0.146
-377.888	547.384	-0.129	-0.308
-376.873	371.138	0.116	-0.235
-375.858	-144.800	0.276	0.025
-374.844	800.000	-0.025	0.111
-373.829	-0.728	0.059	-0.042
-372.815	-200.000	-0.105	0.472
-371.800	-189.701	-0.084	-0.001
-370.785	-95.235	0.409	-0.110
-369.771	-86.748	-0.559	0.171
-368.756	-48.865	0.222	0.107
-367.742	31.309	-0.243	0.209
-366.727	800.000	0.039	-0.169
-365.712	-158.899	-0.064	-0.004
-364.698	283.270	0.095	0.170
-363.683	-200.000	-0.022	0.193
-362.669	-58.710	-0.185	0.080
-361.654	-200.000	-0.009	0.327
-360.639	443.766	-0.021	0.047
-359.625	39.617	0.110	-0.098
-358.610	800.000	-0.033	-0.132
-357.596	-108.990	-0.234	-0.050
-356.581	193.799	0.239	-0.362
-355.566	115.380	0.127	0.155
-354.552	-200.000	0.052	0.290
-353.537	179.625	-0.105	0.154
-352.523	-99.850	0.204	0.051
-351.508	-119.666	-0.061	-0.011
-350.493	800.000	0.048	-0.134
-349.479	-80.254	-0.282	0.094
-348.464	-27.750	0.209	-0.121
-347.450	-53.088	0.047	0.021
-346.435	40.609	-0.057	-0.051
-345.420	190.175	0.082	-0.123
-344.406	-99.324	-0.113	0.029
-343.391	-3.481	0.345	0.240
-342.377	406.370	-0.098	0.207
-341.362	-185.913	-0.135	-0.002
-340.348	588.588	-0.141	0.346
-339.333	800.000	-0.073	0.268
-338.318	-77.546	0.202	0.070
-337.304	-123.509	0.256	-0.041
-336.289	-27.288	0.337	-0.196
-335.275	-75.300	0.283	-0.101
-334.260	-200.000	-0.004	0.303
-333.245	54.292	-0.260	-0.250
-332.231	-200.000	-0.024	0.301
-331.216	-43.966	-0.166	-0.083
-330.202	85.210	0.151	-0.165
-329.187	-200.000	-0.041	0.210
-328.172	47.744	-0.124	0.115
-327.158	32.461	0.276	0.238
-326.143	-46.425	0.437	-0.215
-325.129	-88.729	0.289	-0.086
-324.114	-32.782	-0.324	-0.180
-323.099	245.848	0.121	-0.203
-322.085	-165.918	-0.538	0.023
-321.070	-200.000	0.049	0.338
-320.056	-120.424	-0.214	0.036
-319.041	-56.121	0.204	0.091
-318.026	-85.930	0.078	0.024
-317.012	-50.621	0.168	-0.079
-315.997	-111.764	0.051	0.010
-314.983	25.112	-0.183	-0.152
-313.968	26.731	0.064	-0.054
-312.953	-130.624	-0.337	-0.045
-311.939	-192.674	-0.211	-0.002
-310.924	245.698	-0.123	-0.207
-309.910	-200.000	-0.003	-0.182
-308.895	-2.495	0.408	-0.286
-307.880	-51.293	0.143	-0.067
-306.866	347.644	0.061	0.119
-305.851	103.874	0.115	-0.135
-304.837	-139.880	-0.438	0.046
-303.822	-200.000	-0.007	0.054
-302.807	464.712	-0.039	-0.086
-301.793	-25.763	0.164	0.096
-300.778	800.000	-0.057	0.207
-299.764	-200.000	0.069	0.369
-298.749	237.422	0.128	0.213
-297.735	800.000	-0.123	0.403
-296.720	156.131	0.098	0.135
-295.705	574.215	0.078	0.189
-294.691	-88.842	0.378	0.112
-293.676	-11.652	0.072	0.047
-292.662	-200.000	0.010	0.091
-291.647	204.874	-0.048	-0.074
-290.632	392.591	0.176	0.365
-289.618	-126.482	-0.351	-0.052
-288.603	-139.116	-0.148	-0.016
-287.589	33.129	-0.182	-0.157
-286.574	-52.234	-0.211	-0.098
-285.559	112.344	-0.073	-0.088
-284.545	175.787	0.148	0.215
-283.530	-200.000	-0.064	-0.280
-282.516	800.000	-0.096	0.283
-281.501	-200.000	0.012	0.111
-280.486	206.251	-0.232	0.360
-279.472	37.870	-0.148	-0.131
-278.457	112.898	-0.157	-0.190
-277.443	-65.057	0.152	-0.061
-276.428	-21.441	-0.184	-0.112
-275.413	412.232	-0.088	0.186
-274.399	-107.529	-0.249	-0.054
-273.384	-82.717	0.297	0.096
-272.370	-200.000	0.025	-0.124
-271.355	20.383	-0.125	-0.101
-270.340	-27.430	0.327	0.190
-269.326	800.000	0.065	-0.226
-268.311	-52.578	-0.188	-0.086
-267.297	185.424	-0.192	-0.284
-266.282	-68.878	-0.250	0.096
-265.267	-143.669	0.108	0.010
-264.253	-200.000	-0.021	-0.175
-263.238	-200.000	-0.045	0.317
-262.224	-200.000	-0.035	0.422
-261.209	800.000	0.037	0.144
-260.195	-198.454	0.092	0.001
-259.180	91.909	0.145	-0.163
-258.165	800.000	0.031	-0.110
-257.151	397.063	-0.135	0.281
-256.136	-200.000	-0.036	-0.213
-255.122	-200.000	-0.016	0.657
-254.107	-62.029	-0.118	0.049
-253.092	-101.939	0.293	-0.070
-252.078	-200.000	0.018	0.150
-251.063	-50.474	0.207	0.097
-250.049	-0.460	0.227	-0.161
-249.034	-200.000	-0.008	-0.154
-248.019	-114.862	-0.194	0.037
-247.005	-54.636	-0.207	-0.093
-245.990	-197.046	-0.080	-0.001
-244.976	5.054	-0.213	-0.156
-243.961	-200.000	-0.054	-0.317
-242.946	252.942	0.187	-0.318
-241.932	-31.583	-0.049	-0.028
-240.917	582.905	0.073	-0.178
-239.903	-26.065	0.327	-0.192
-238.888	751.039	0.096	-0.258
-237.873	-108.363	0.110	-0.024
-236.859	-162.143	0.321	0.016
-235.844	-200.000	0.042	-0.307
-234.830	-200.000	-0.043	-0.194
-233.815	-63.259	0.168	0.069
-232.800	218.147	0.160	0.254
-231.786	18.042	-0.083	-0.066
-230.771	-31.419	-0.270	-0.151
-229.757	-93.274	0.415	-0.115
-228.742	59.722	-0.184	-0.181
-227.727	97.721	-0.339	0.387
-226.713	800.000	-0.086	0.328
-225.698	-73.829	0.218	-0.079
-224.684	800.000	-0.082	0.296
-223.669	178.866	-0.100	-0.145
-222.655	-68.660	0.149	0.057
-221.640	-68.838	0.096	-0.037
-220.625	-127.641	0.239	-0.034
-219.611	-73.974	0.106	-0.038
-218.596	-200.000	0.010	-0.080
-217.582	-200.000	-0.019	-0.199
-216.567	-200.000	-0.076	0.344
-215.552	-43.189	-0.377	-0.190
-214.538	-121.735	-0.400	0.066
-213.523	-153.147	-0.240	-0.017
-212.509	180.656	0.173	0.253
-211.494	217.410	-0.125	-0.198
-210.479	-200.000	-0.086	-0.392
-209.465	800.000	-0.017	0.059
-208.450	-200.000	0.024	-0.231
-207.436	-154.002	0.196	0.013
-206.421	-134.139	0.126	0.015
-205.406	-171.905	0.213	0.007
-204.392	-134.944	-0.234	0.028
-203.377	-43.515	0.054	-0.027
-202.363	105.810	-0.070	-0.082
-201.348	59.518	0.234	0.229
-200.333	-94.032	0.106	-0.029
-199.319	107.755	0.101	0.120
-198.304	-39.176	-0.070	-0.036
-197.290	341.259	-0.089	-0.174
-196.275	312.259	-0.123	0.230
-195.260	800.000	0.015	-0.045
-194.246	270.610	-0.207	-0.362
-193.231	800.000	0.032	-0.099
-192.217	-200.000	-0.033	0.329
-191.202	99.313	0.246	0.283
-190.187	800.000	-0.071	0.199
-189.173	-66.134	-0.156	-0.062
-188.158	-42.018	0.210	0.107
-187.144	79.699	-0.222	0.236
-186.129	-106.635	0.161	0.036
-185.114	-116.705	0.392	-0.072
-184.100	-57.336	0.022	0.010
-183.085	272.656	0.164	-0.288
-182.071	31.506	-0.289	0.247
-181.056	600.320	-0.042	0.102
-180.042	243.033	-0.051	0.085
-179.027	688.061	0.022	-0.057
-178.012	-200.000	0.021	-0.112
-176.998	16.053	-0.092	-0.072
-175.983	-200.000	0.005	-0.175
-174.969	148.643	0.031	-0.042
-173.954	-55.739	-0.157	0.070
-172.939	73.932	-0.042	-0.044
-171.925	-48.605	0.099	-0.047
-170.910	-42.897	-0.248	-0.125
-169.896	-179.300	0.196	-0.004
-168.881	-200.000	-0.021	-0.221
-167.866	-200.000	-0.009	-0.149
-166.852	-134.902	-0.122	-0.015
-165.837	419.867	0.071	0.150
-164.823	800.000	0.046	-0.152
-163.808	3.676	-0.160	-0.116
-162.793	800.000	-0.113	0.414
-161.779	-11.683	0.234	0.153
-160.764	-200.000	-0.039	0.514
-159.750	-200.000	-0.001	0.034
-158.735	-2.444	0.083	-0.058
-157.720	-42.645	-0.056	0.028
-156.706	-127.639	0.203	-0.029
-155.691	539.608	-0.017	0.041
-154.677	-172.605	0.121	0.004
-153.662	195.122	-0.042	-0.064
-152.647	-200.000	0.005	0.285
-151.633	72.052	0.303	0.313
-150.618	-60.650	0.335	-0.141
-149.604	-125.829	-0.252	-0.038
-148.589	252.233	-0.084	0.142
-147.574	-6.865	0.094	0.064
-146.560	479.080	0.072	-0.162
-145.545	4.511	-0.305	0.222
-144.531	-74.092	0.291	0.105
-143.516	109.115	-0.164	0.195
-142.502	-103.361	-0.073	-0.017
-141.487	108.704	-0.030	0.036
-140.472	-200.000	-0.008	0.397
-139.458	42.427	-0.193	0.174
-138.443	-81.025	-0.100	0.033
-137.429	-124.951	0.344	-0.053
-136.414	80.208	-0.126	0.135
-135.399	-142.575	-0.209	-0.020
-134.385	89.168	0.038	0.042
-133.370	-7.268	-0.055	-0.037
-132.356	-200.000	-0.166	-0.001
-131.341	-200.000	0.023	-0.372
-130.326	2.240	0.185	0.133
-129.312	-200.000	-0.010	-0.271
-128.297	-200.000	0.001	-0.078
-127.283	617.814	-0.062	0.153
-126.268	-200.000	0.000	0.056
-125.253	-91.840	-0.216	0.061
-124.239	490.017	0.158	0.357
-123.224	326.540	-0.059	-0.111
-122.210	-35.541	-0.467	0.251
-121.195	800.000	-0.055	0.174
-120.180	108.040	-0.185	-0.218
-119.166	-200.000	-0.008	0.151
-118.151	28.673	0.091	0.077
-117.137	230.923	-0.143	0.232
-116.122	113.705	0.086	0.103
-115.107	800.000	-0.095	0.304
-114.093	-50.424	0.361	0.169
-113.078	800.000	-0.025	-0.070
-112.064	-8.439	0.210	0.140
-111.049	289.146	-0.042	0.075
-110.034	-200.000	0.001	0.064
-109.020	80.538	-0.291	-0.311
-108.005	-124.095	-0.107	0.017
-106.991	-80.790	-0.206	-0.068
-105.976	-14.040	-0.225	-0.144
-104.962	-130.085	0.233	0.031
-103.947	151.387	-0.066	0.089
-102.932	-54.824	0.103	0.046
-101.918	191.623	0.042	-0.063
-100.903	241.264	0.133	-0.219
-99.889	-123.219	-0.266	0.042
-98.874	800.000	0.054	-0.177
-97.859	-188.031	0.158	0.002
-96.845	-145.659	-0.111	-0.010
-95.830	107.895	0.056	0.066
-94.816	268.293	0.130	-0.226
-93.801	800.000	0.099	-0.280
-92.786	490.623	-0.191	0.432
-91.772	-22.019	-0.273	0.164
-90.757	-131.242	-0.241	-0.032
-89.743	-145.666	-0.276	0.024
-88.728	156.053	-0.044	0.059
-87.713	-49.218	0.166	0.079
-86.699	395.339	0.083	-0.171
-85.684	234.508	0.080	-0.130
-84.670	-200.000	0.049	0.233
-83.655	-200.000	0.022	0.209
-82.640	101.020	0.131	-0.150
-81.626	-114.040	-0.342	-0.066
-80.611	107.936	0.276	0.325
-79.597	800.000	-0.129	-0.379
-78.582	422.121	-0.112	-0.237
-77.567	19.329	0.174	-0.138
-76.553	33.724	0.094	-0.081
-75.538	-200.000	-0.047	-0.355
-74.524	-200.000	0.028	-0.251
-73.509	-129.248	-0.221	-0.031
-72.494	-200.000	0.000	-0.266
-71.480	-41.727	0.175	0.089
-70.465	-200.000	0.047	-0.221
-69.451	-200.000	-0.025	-0.214
-68.436	717.551	0.049	-0.130
-67.422	127.969	-0.101	0.127
-66.407	-174.628	0.169	-0.005
-65.392	800.000	-0.069	0.218
-64.378	-200.000	0.021	-0.332
-63.363	800.000	-0.102	0.433
-62.349	-128.879	0.184	0.026
-61.334	5.575	-0.847	-0.618
-60.319	-200.000	0.011	0.343
-59.305	-200.000	-0.160	-0.817
-58.290	24.372	0.630	0.515
-57.276	-200.000	0.250	1.444
-56.261	-200.000	96.363	581.051
-55.246	665.408	1380.120	3523.700
-54.232	189.952	2586.847	3837.928
-53.217	125.552	2167.542	2704.652
-52.203	47.272	1625.044	1496.033
-51.188	38.708	1361.789	1201.432
-50.173	35.485	1318.704	1144.205
-49.159	57.697	1368.115	1322.330
-48.144	62.424	1386.384	1368.548
-47.130	39.163	1340.168	1184.915
-46.115	35.471	1322.330	1147.085
-45.100	35.272	1317.296	1141.486
-44.086	35.111	1315.612	1139.027
-43.071	35.078	1312.936	1136.466
-42.057	35.027	1311.367	1134.760
-41.042	35.170	1308.984	1133.501
-40.027	35.141	1307.802	1132.261
-39.013	35.180	1305.868	1130.774
-37.998	35.243	1303.941	1129.430
-36.984	35.335	1302.059	1128.297
-35.969	35.317	1300.432	1126.737
-34.954	35.417	1298.335	1125.458
-33.940	35.425	1297.193	1124.474
-32.925	35.374	1295.922	1123.030
-31.911	35.466	1294.669	1122.434
-30.896	35.435	1293.061	1120.813
-29.881	35.421	1291.668	1119.483
-28.867	35.437	1290.535	1118.550
-27.852	35.394	1288.979	1116.906
-26.838	35.345	1287.486	1115.281
-25.823	35.405	1286.394	1114.642
-24.809	35.392	1284.944	1113.264
-23.794	35.448	1283.179	1112.018
-22.779	35.415	1281.866	1110.643
-21.765	35.380	1280.732	1109.413
-20.750	35.282	1279.854	1108.044
-19.736	35.265	1278.308	1106.564
-18.721	35.257	1276.741	1105.116
-17.706	35.259	1276.043	1104.482
-16.692	35.341	1274.500	1103.572
-15.677	35.276	1273.765	1102.519
-14.663	35.217	1272.775	1101.278
-13.648	35.288	1271.707	1100.721
-12.633	35.188	1270.805	1099.318
-11.619	35.216	1269.967	1098.710
-10.604	35.202	1268.962	1097.717
-9.590	35.329	1267.872	1097.460
-8.575	35.221	1266.794	1095.867
-7.560	35.209	1266.207	1095.243
-6.546	35.275	1265.114	1094.636
-5.531	35.196	1264.403	1093.526
-4.517	35.239	1263.442	1092.895
-3.502	35.183	1262.533	1091.745
-2.487	35.281	1261.131	1091.047
-1.473	35.261	1257.265	1087.547
-0.458	33.585	1241.880	1064.793
0.556	28.940	1223.463	1022.157
1.571	24.809	1227.825	1002.615
2.586	23.696	1242.914	1008.527
3.600	22.809	1231.957	994.553
4.615	17.299	1159.672	906.810
5.629	8.678	1084.274	804.611
6.644	4.971	1063.503	770.822
7.659	4.776	1060.752	767.798
8.673	4.848	1059.800	767.397
9.688	4.845	1058.442	766.329
10.702	4.962	1057.061	765.837
11.717	9.517	1062.910	792.467
12.731	16.956	1073.769	837.349
13.746	19.788	1076.207	853.170
14.761	18.870	1074.785	847.443
15.775	17.864	1072.525	840.630
16.790	16.565	1070.962	832.942
17.804	15.959	1068.618	828.063
18.819	15.602	1067.657	825.495
19.834	15.380	1066.816	823.681
20.848	15.201	1066.010	822.106
21.863	15.024	1065.336	820.648
22.877	14.868	1064.564	819.216
23.892	14.912	1063.805	818.775
24.907	14.851	1063.091	817.854
25.921	14.802	1062.357	816.978
26.936	14.800	1060.655	815.585
27.950	15.023	1058.931	815.275
28.965	14.908	1058.289	814.150
29.980	15.100	1056.154	813.369
30.994	15.012	1055.527	812.385
32.009	15.228	1054.237	812.367
33.023	15.143	1053.376	811.221
34.038	15.013	1052.003	809.462
35.053	15.001	1051.651	809.062
36.067	14.917	1050.645	807.813
37.082	15.049	1049.195	807.262
38.096	15.119	1048.681	807.132
39.111	15.031	1047.993	806.105
40.126	15.012	1046.728	804.972
41.140	14.848	1045.237	802.966
42.155	14.732	1044.258	801.587
43.169	14.696	1043.383	800.671
44.184	14.725	1042.072	799.731
45.199	14.717	1041.079	798.861
46.213	14.785	1040.259	798.488
47.228	14.944	1039.301	798.438
48.242	14.999	1038.028	797.653
49.257	14.910	1037.391	796.668
50.271	15.034	1036.447	796.466
51.286	15.063	1035.495	795.800
52.301	14.991	1034.530	794.645
53.315	14.886	1033.718	793.455
54.330	14.920	1032.618	792.702
55.344	14.866	1031.417	791.453
56.359	14.865	1030.820	790.920
57.374	14.876	1030.063	790.323
58.388	14.807	1028.645	788.838
59.403	14.828	1027.630	788.087
60.417	14.787	1027.156	787.463
61.432	14.637	1026.244	785.988
62.447	14.717	1025.309	785.577
63.461	14.626	1024.916	784.776
64.476	14.655	1023.986	784.132
65.490	14.593	1023.310	783.257
66.505	14.712	1022.537	783.154
67.520	14.688	1021.925	782.501
68.534	14.665	1021.059	781.663
69.549	14.652	1020.251	780.915
70.563	14.612	1019.568	780.136
71.578	14.524	1018.606	778.918
72.593	14.516	1017.774	778.175
73.607	14.532	1016.946	777.548
74.622	14.541	1016.576	777.239
75.636	14.509	1016.333	776.834
76.651	14.672	1015.061	776.554
77.666	14.594	1014.652	775.810
78.680	14.553	1013.829	774.920
79.695	14.510	1013.234	774.198
80.709	14.677	1012.800	774.570
81.724	14.673	1012.205	774.029
82.739	14.912	1011.412	774.460
83.753	15.011	1010.860	774.429
84.768	15.067	1009.635	773.680
85.782	15.141	1009.019	773.482
86.797	15.024	1008.200	772.244
87.812	15.054	1007.072	771.452
88.826	14.971	1006.227	770.352
89.841	15.033	1005.378	769.923
90.855	15.142	1004.582	769.743
91.870	15.137	1004.201	769.360
92.884	15.210	1002.591	768.395
93.899	15.142	1001.869	767.461
94.914	15.062	1001.534	766.772
95.928	15.185	1000.224	766.263
96.943	15.063	999.654	765.201
97.957	15.007	998.684	764.134
98.972	15.064	997.827	763.669
99.987	15.104	996.897	763.072
101.001	15.036	996.095	762.083
102.016	15.152	994.904	761.633
103.030	15.089	994.259	760.782
104.045	15.146	993.182	760.151
105.060	15.052	992.670	759.269
106.074	14.908	991.789	757.871
107.089	14.920	989.861	756.387
108.103	14.748	989.488	755.256
109.118	14.770	988.914	754.850
110.133	14.677	988.051	753.704
111.147	14.728	987.288	753.290
112.162	14.824	986.268	752.876
113.176	14.903	985.493	752.572
114.191	14.824	984.784	751.608
115.206	14.839	984.025	751.031
116.220	14.907	983.010	750.493
117.235	14.829	982.258	749.505
118.249	14.775	981.487	748.610
119.264	15.063	979.947	748.653
120.279	14.799	979.863	747.346
121.293	14.785	978.871	746.457
122.308	14.647	978.149	745.227
123.322	14.723	976.954	744.589
124.337	14.710	976.015	743.750
125.352	14.748	974.939	743.035
126.366	14.727	973.497	741.774
127.381	14.677	972.806	740.961
128.395	14.637	972.374	740.388
129.410	14.715	971.367	739.902
130.424	14.860	970.358	739.710
131.439	14.857	969.548	739.012
132.454	15.020	968.651	738.984
133.468	14.912	968.505	738.329
134.483	14.966	967.172	737.489
135.497	14.994	966.306	736.887
136.512	15.092	965.367	736.534
137.527	15.012	964.626	735.555
138.541	14.963	964.185	734.937
139.556	14.933	963.522	734.236
140.570	15.051	962.769	734.111
141.585	15.183	961.887	733.952
142.600	15.273	960.729	733.401
143.614	15.280	960.007	732.813
144.629	15.264	959.516	732.305
145.643	15.191	958.270	730.971
146.658	15.033	957.421	729.567
147.673	15.083	956.036	728.665
148.687	14.950	955.661	727.740
149.702	14.963	954.595	726.920
150.716	14.960	953.723	726.176
151.731	15.016	952.913	725.739
152.746	15.030	952.216	725.203
153.760	15.054	951.838	724.954
154.775	15.115	951.478	724.880
155.789	15.168	950.966	724.656
156.804	15.201	950.161	724.123
157.819	15.258	949.583	723.862
158.833	15.294	948.634	723.232
159.848	15.336	948.192	723.009
160.862	15.153	947.387	721.546
161.877	15.079	945.945	720.064
162.892	15.150	944.932	719.535
163.906	14.975	944.326	718.259
164.921	15.114	943.251	717.974
165.935	15.174	942.608	717.678
166.950	15.198	941.524	716.890
167.964	15.188	940.940	716.342
168.979	15.082	940.038	715.138
169.994	15.122	939.028	714.477
171.008	15.214	938.541	714.436
172.023	15.319	937.725	714.199
173.037	15.281	937.490	713.793
174.052	15.298	936.135	712.771
175.067	15.153	935.689	711.755
176.081	15.160	935.085	711.262
177.096	15.146	934.752	710.883
178.110	15.277	933.633	710.527
179.125	15.120	933.090	709.386
180.140	15.117	932.779	709.072
181.154	15.108	932.658	708.880
182.169	15.331	931.876	709.165
183.183	15.340	931.581	708.918
184.198	15.383	930.537	708.240
185.213	15.329	929.822	707.405
186.227	15.517	928.950	707.475
187.242	15.526	928.779	707.319
188.256	15.525	927.976	706.640
189.271	15.706	926.855	706.485
190.286	15.473	926.050	704.829
191.300	15.251	925.132	703.136
192.315	15.022	925.043	702.048
193.329	15.151	924.584	702.179
194.344	15.342	923.451	702.054
195.359	15.395	923.035	701.896
196.373	15.475	922.547	701.798
197.388	15.677	922.136	702.268
198.402	15.718	921.722	702.062
199.417	15.679	921.363	701.564
200.432	15.693	920.855	701.174
201.446	15.760	920.195	700.888
202.461	15.839	919.875	700.909
203.475	15.692	919.417	699.890
204.490	15.811	917.890	699.160
205.504	15.599	917.562	697.966
206.519	15.585	916.935	697.371
207.534	15.535	916.328	696.641
208.548	15.590	915.530	696.199
209.563	15.688	914.690	695.902
210.577	15.671	914.132	695.349
211.592	15.857	913.439	695.527
212.607	15.998	912.598	695.408
213.621	15.881	912.024	694.425
214.636	15.845	911.446	693.775
215.650	15.769	910.742	692.866
216.665	15.871	910.063	692.709
217.680	15.917	909.380	692.315
218.694	15.791	908.631	691.164
219.709	15.851	908.542	691.283
220.723	15.889	906.934	690.155
221.738	15.954	906.322	689.895
222.753	16.022	905.915	689.802
223.767	15.900	905.382	688.836
224.782	16.004	904.874	688.815
225.796	16.166	904.543	689.161
226.811	16.185	903.585	688.450
227.826	15.935	903.091	686.992
228.840	15.985	902.323	686.550
229.855	16.026	901.180	685.789
230.869	16.030	900.614	685.311
231.884	15.854	900.226	684.243
232.899	16.058	899.374	684.362
233.913	15.791	898.564	682.601
234.928	15.889	898.149	682.623
235.942	15.857	897.570	681.991
236.957	15.877	896.729	681.373
237.972	15.837	896.316	680.839
238.986	15.860	895.622	680.343
240.001	15.953	894.780	680.022
241.015	15.999	894.324	679.799
242.030	15.988	894.158	679.568
243.045	15.978	892.999	678.585
244.059	16.100	892.718	678.804
245.074	16.149	891.722	678.185
246.088	16.147	891.318	677.808
247.103	16.244	890.506	677.522
248.117	16.192	890.686	677.388
249.132	16.454	889.589	677.545
250.147	16.453	889.207	677.189
251.161	16.470	888.813	676.897
252.176	16.642	887.923	676.848
253.190	16.632	887.099	676.120
254.205	16.708	886.557	675.950
255.220	16.696	885.871	675.320
256.234	16.641	885.387	674.673
257.249	16.638	884.351	673.812
258.263	16.607	884.025	673.381
259.278	16.670	883.091	672.859
260.293	16.706	882.645	672.603
261.307	16.642	882.364	672.074
262.322	16.828	881.480	672.081
263.336	16.892	880.812	671.766
264.351	16.932	879.963	671.217
265.366	16.788	879.189	669.997
266.380	16.806	878.750	669.675
267.395	16.765	878.137	668.986
268.409	16.810	877.405	668.546
269.424	16.787	876.317	667.569
270.439	16.776	875.660	666.964
271.453	16.721	875.105	666.267
272.468	16.715	874.609	665.805
273.482	16.657	874.418	665.374
274.497	16.743	873.672	665.085
275.512	16.703	872.987	664.350
276.526	16.693	872.450	663.842
277.541	16.596	872.241	663.246
278.555	16.969	871.597	664.156
279.570	16.968	870.965	663.613
280.585	17.106	870.162	663.480
281.599	17.005	869.038	662.169
282.614	16.834	868.539	661.066
283.628	16.915	867.489	660.523
284.643	16.905	867.530	660.458
285.657	16.909	866.694	659.776
286.672	16.941	865.802	659.164
287.687	16.980	865.376	658.934
288.701	16.875	865.040	658.213
289.716	16.886	864.480	657.771
290.730	16.911	863.915	657.377
291.745	17.006	863.466	657.348
292.760	17.004	862.936	656.878
293.774	17.053	862.268	656.501
294.789	17.159	861.594	656.337
295.803	17.037	860.372	654.881
296.818	16.987	859.682	654.106
297.833	16.935	859.348	653.591
298.847	17.106	858.586	653.612
299.862	17.147	858.248	653.455
300.876	17.195	857.887	653.307
301.891	17.410	856.695	653.166
302.906	17.272	856.433	652.381
303.920	17.313	855.811	652.007
304.935	17.436	855.688	652.327
305.949	17.275	854.950	651.090
306.964	17.270	854.418	650.606
307.979	17.451	853.481	650.526
308.993	17.303	853.116	649.624
310.008	17.538	852.237	649.795
311.022	17.314	852.346	648.965
312.037	17.210	851.701	648.023
313.052	17.266	851.030	647.666
314.066	17.112	850.393	646.539
315.081	17.149	849.865	646.219
316.095	17.255	848.911	645.840
317.110	17.304	848.411	645.590
318.125	17.389	847.904	645.470
319.139	17.154	847.793	644.436
320.154	17.367	846.855	644.474
321.168	17.284	846.499	643.830
322.183	17.314	846.033	643.535
323.197	17.369	845.751	643.470
324.212	17.412	844.909	642.935
325.227	17.356	844.523	642.371
326.241	17.351	843.602	641.596
327.256	17.362	843.004	641.128
328.270	17.356	842.739	640.844
329.285	17.379	841.864	640.208
330.300	17.182	841.650	639.249
331.314	17.323	841.299	639.455
332.329	17.520	840.609	639.614
333.343	17.524	839.607	638.812
334.358	17.537	839.777	638.933
335.373	17.528	839.157	638.370
336.387	17.522	839.293	638.394
337.402	17.575	838.795	638.157
338.416	17.765	838.405	638.516
339.431	17.661	838.267	637.967
340.446	17.810	837.652	637.997
341.460	17.827	837.205	637.666
342.475	17.934	836.928	637.796
343.489	17.756	836.714	636.914
344.504	18.103	835.710	637.388
345.519	18.009	835.564	636.867
346.533	17.973	834.872	636.152
347.548	17.935	834.315	635.529
348.562	17.786	833.668	634.424
349.577	17.724	833.259	633.828
350.592	17.888	832.308	633.659
351.606	17.744	831.784	632.667
352.621	17.661	831.354	631.978
353.635	17.750	830.696	631.752
354.650	17.911	829.655	631.498
355.665	17.750	829.586	630.796
356.679	18.063	828.497	631.068
357.694	17.780	828.187	629.729
358.708	17.873	827.538	629.523
359.723	17.853	827.242	629.169
360.738	17.898	826.651	628.828
361.752	17.986	826.087	628.668
362.767	18.069	825.481	628.458
363.781	18.122	825.093	628.302
364.796	18.209	824.217	627.900
365.810	18.297	824.090	628.070
366.825	18.224	823.710	627.455
367.840	18.281	823.321	627.313
368.854	18.148	822.636	626.248
369.869	18.213	822.320	626.191
370.883	18.208	821.498	625.489
371.898	18.373	821.249	625.849
372.913	18.333	821.335	625.713
373.927	18.271	820.547	624.829
374.942	18.261	820.200	624.474
375.956	18.481	819.631	624.789
376.971	18.555	819.167	624.649
377.986	18.439	819.130	624.142
379.000	18.492	818.326	623.666
380.015	18.507	818.150	623.534
381.029	18.529	817.123	622.776
382.044	18.615	816.546	622.591
383.059	18.673	815.902	622.257
384.073	18.493	815.439	621.195
385.088	18.384	814.694	620.179
386.102	18.334	814.579	619.854
387.117	18.283	813.899	619.098
388.132	18.418	813.336	619.104
389.146	18.427	812.672	618.577
390.161	18.602	811.972	618.621
391.175	18.418	812.212	618.084
392.190	18.528	811.182	617.643
393.205	18.537	810.778	617.313
394.219	18.464	810.398	616.705
395.234	18.470	809.992	616.365
396.248	18.421	809.679	615.896
397.263	18.499	808.897	615.523
398.278	18.339	808.673	614.727
399.292	18.503	808.332	615.001
400.307	18.401	807.790	614.167
401.321	18.319	807.731	613.777
402.336	18.325	807.065	613.234
403.350	18.483	806.607	613.398
404.365	18.731	805.793	613.612
405.380	18.740	805.383	613.277
406.394	18.786	805.168	613.223
407.409	18.888	804.639	613.131
408.423	18.897	804.392	612.921
409.438	18.986	804.138	612.991
410.453	18.812	803.835	612.084
411.467	19.091	802.861	612.281
412.482	18.919	802.751	611.531
413.496	19.062	802.559	611.842
414.511	18.883	802.238	610.905
415.526	18.950	801.341	610.406
416.540	19.044	801.296	610.652
417.555	19.167	800.546	610.463
418.569	19.006	799.939	609.373
419.584	19.101	799.743	609.507
420.599	19.046	799.158	608.812
421.613	155.251	1369.678	1790.286
422.628	134.551	1452.851	1790.381
