DTS Sentinel unit serial number:	SN413079Multiplexer serial number:	ORYXHardware model number:	OX4-SRSoftware version number:	ORYX F/W v4.00 Oryx Data Collector v3.7.2.0data status	okinstallation	princeton_trtdifferential loss correction	single-endedforward channel	channel 1reverse channel	N/Adate	2019/09/12time	01:32:11forward acquisition time	60.00reverse acquisition time	0.00gamma	496.2192k internal	0.2320k external	0.2320temperature offset calibration	1.0078default loss term (dB/km)	0.3790temperature slope calibration	1.0000multiplexer offset coefficient	1.0000multiplexer slope coefficient	1.0000fibre end	0.00T internal ref (°C)	32.94T ext. ref 1 (°C)	2.09T ext. ref 2 (°C)	27.63length (m)	temperature (°C)	Stokes	anti-Stokes-747.200	-7.529	0.253	0.173
-746.185	150.645	0.326	0.448
-745.171	48.899	0.064	-0.061
-744.156	77.410	0.215	0.232
-743.142	-200.000	0.033	0.471
-742.127	-200.000	0.057	0.330
-741.112	800.000	-0.020	-0.061
-740.098	-200.000	0.019	-0.103
-739.083	-33.608	-0.271	-0.151
-738.069	-55.528	-0.318	0.144
-737.054	-111.327	-0.178	0.037
-736.039	-128.129	-0.182	0.026
-735.025	-124.864	-0.075	-0.012
-734.010	-200.000	-0.077	-0.418
-732.996	0.731	0.070	-0.051
-731.981	-200.000	-0.024	0.274
-730.966	365.756	-0.091	0.184
-729.952	-91.709	-0.015	0.004
-728.937	-111.951	-0.294	0.060
-727.923	-200.000	0.069	-0.363
-726.908	-154.845	-0.597	-0.040
-725.894	-200.000	-0.018	0.343
-724.879	-171.733	-0.095	-0.003
-723.864	89.704	0.384	0.433
-722.850	128.582	-0.242	0.312
-721.835	-109.405	-0.202	0.043
-720.821	-127.129	0.120	0.018
-719.806	564.840	0.026	0.064
-718.791	800.000	0.095	-0.322
-717.777	-68.627	0.382	0.149
-716.762	-39.064	-0.272	0.145
-715.748	244.637	-0.108	0.184
-714.733	345.729	0.072	-0.144
-713.718	-132.747	-0.301	0.039
-712.704	-90.413	-0.312	-0.091
-711.689	22.273	-0.132	-0.109
-710.675	-116.306	0.211	-0.039
-709.660	-89.117	-0.139	0.041
-708.645	131.225	-0.239	0.310
-707.631	-121.397	-0.173	-0.029
-706.616	-174.165	-0.218	-0.006
-705.602	-99.795	-0.189	-0.048
-704.587	320.605	0.039	-0.074
-703.572	442.088	-0.076	-0.169
-702.558	4.901	-0.099	-0.074
-701.543	526.182	0.127	-0.302
-700.529	179.384	-0.074	-0.110
-699.514	-51.023	-0.038	-0.018
-698.499	-132.302	-0.136	-0.018
-697.485	-74.239	0.109	0.040
-696.470	-138.592	-0.377	0.042
-695.456	-200.000	0.004	0.047
-694.441	70.475	-0.207	-0.216
-693.426	23.101	0.107	0.089
-692.412	800.000	0.103	0.375
-691.397	-74.746	-0.242	-0.088
-690.383	202.840	-0.309	-0.481
-689.368	800.000	0.082	0.319
-688.354	800.000	-0.074	0.316
-687.339	-132.010	-0.209	0.027
-686.324	31.500	-0.266	0.231
-685.310	-59.906	0.102	0.044
-684.295	222.763	-0.232	-0.377
-683.281	-75.792	0.283	-0.101
-682.266	9.133	-0.058	-0.044
-681.251	46.231	-0.067	0.062
-680.237	90.246	0.214	0.241
-679.222	-200.000	-0.076	0.467
-678.208	-59.715	-0.084	0.037
-677.193	-200.000	-0.007	-0.079
-676.178	-200.000	-0.032	-0.175
-675.164	800.000	-0.020	0.060
-674.149	313.961	0.070	-0.133
-673.135	-65.956	0.240	0.097
-672.120	-24.870	0.134	-0.080
-671.105	319.226	0.150	0.287
-670.091	-103.050	-0.277	0.066
-669.076	800.000	-0.067	0.209
-668.062	21.508	0.191	-0.156
-667.047	-82.480	-0.117	-0.038
-666.032	136.564	0.152	-0.201
-665.018	70.893	-0.210	-0.219
-664.003	568.032	-0.040	-0.099
-662.989	-134.012	0.369	-0.046
-661.974	102.931	-0.061	-0.071
-660.959	-118.219	-0.325	0.058
-659.945	31.133	-0.136	-0.118
-658.930	-52.903	-0.253	-0.117
-657.916	-22.418	-0.165	0.101
-656.901	265.429	-0.116	-0.203
-655.886	106.814	-0.046	-0.055
-654.872	-4.522	0.100	0.069
-653.857	-200.000	-0.027	0.208
-652.843	-200.000	0.011	-0.211
-651.828	-200.000	0.057	0.318
-650.814	-160.409	-0.360	-0.019
-649.799	66.249	-0.275	-0.281
-648.784	-96.666	0.306	0.081
-647.770	-144.291	-0.261	0.024
-646.755	-76.696	0.226	-0.080
-645.741	-200.000	-0.028	0.128
-644.726	144.804	-0.086	-0.116
-643.711	-41.027	0.299	0.156
-642.697	-88.496	-0.172	-0.052
-641.682	126.267	0.188	-0.240
-640.668	-46.280	0.317	0.157
-639.653	-200.000	0.017	0.201
-638.638	181.252	-0.204	-0.302
-637.624	-95.922	-0.057	0.015
-636.609	800.000	0.061	-0.177
-635.595	-200.000	0.002	-0.115
-634.580	-44.267	-0.165	0.083
-633.565	-158.569	-0.222	0.013
-632.551	26.833	-0.068	0.057
-631.536	-172.258	-0.162	-0.005
-630.522	-200.000	-0.010	-0.061
-629.507	-200.000	-0.002	-0.037
-628.492	800.000	0.042	-0.170
-627.478	-39.158	0.108	0.057
-626.463	-134.090	-0.059	0.007
-625.449	24.189	0.090	-0.075
-624.434	210.756	-0.130	0.205
-623.419	-63.387	-0.256	-0.106
-622.405	82.749	0.211	0.231
-621.390	-200.000	-0.048	0.470
-620.376	436.602	0.055	-0.121
-619.361	14.243	-0.120	-0.094
-618.346	188.198	0.170	0.255
-617.332	-200.000	0.043	0.318
-616.317	34.889	-0.085	0.075
-615.303	800.000	0.086	0.312
-614.288	276.788	-0.074	0.132
-613.273	712.294	-0.062	0.164
-612.259	-132.690	-0.307	-0.040
-611.244	-16.908	-0.159	-0.101
-610.230	-128.463	-0.123	-0.018
-609.215	-98.988	-0.501	0.128
-608.201	152.414	-0.112	-0.154
-607.186	-4.016	-0.066	0.046
-606.171	660.097	0.076	0.198
-605.157	-91.580	0.197	0.056
-604.142	513.622	0.097	-0.229
-603.128	-72.522	-0.268	-0.099
-602.113	46.720	0.143	-0.134
-601.098	800.000	0.074	0.213
-600.084	-200.000	0.047	0.249
-599.069	800.000	0.031	-0.090
-598.055	-138.776	-0.295	0.032
-597.040	800.000	0.092	-0.403
-596.025	-63.430	0.214	-0.088
-595.011	-200.000	0.021	0.156
-593.996	-200.000	-0.002	-0.308
-592.982	8.824	0.217	-0.164
-591.967	-159.138	-0.233	0.013
-590.952	72.814	-0.167	-0.175
-589.938	106.341	-0.049	0.058
-588.923	800.000	0.050	0.152
-587.909	-200.000	0.018	0.131
-586.894	-200.000	0.034	-0.356
-585.879	-200.000	-0.041	0.254
-584.865	-152.855	-0.083	0.006
-583.850	-146.038	-0.259	0.023
-582.836	-77.170	-0.207	0.072
-581.821	-120.088	0.071	-0.012
-580.806	3.849	-0.218	-0.160
-579.792	-200.000	-0.036	0.157
-578.777	43.532	-0.150	0.137
-577.763	-39.555	-0.152	0.080
-576.748	-54.014	0.024	0.011
-575.733	800.000	-0.122	0.368
-574.719	-200.000	0.022	0.164
-573.704	-200.000	-0.060	-0.334
-572.690	252.770	0.188	-0.322
-571.675	800.000	0.082	0.319
-570.661	-200.000	0.011	0.101
-569.646	-54.533	-0.126	-0.057
-568.631	-113.864	-0.047	-0.009
-567.617	-133.750	0.229	0.029
-566.602	-95.434	-0.122	0.033
-565.588	15.767	-0.036	0.029
-564.573	748.529	0.089	-0.241
-563.558	-38.046	-0.185	-0.099
-562.544	-130.635	-0.190	-0.026
-561.529	-159.539	-0.204	0.011
-560.515	541.106	0.027	0.065
-559.500	800.000	-0.016	0.067
-558.485	335.527	0.048	-0.094
-557.471	169.220	0.118	-0.169
-556.456	-162.007	0.127	-0.006
-555.442	60.352	0.169	-0.168
-554.427	-142.399	-0.095	-0.009
-553.412	-39.269	0.343	-0.181
-552.398	232.224	0.104	-0.172
-551.383	69.556	-0.235	-0.243
-550.369	-54.700	0.057	0.026
-549.354	171.388	0.192	-0.277
-548.339	-66.568	-0.170	-0.068
-547.325	377.307	0.106	0.218
-546.310	-160.166	0.317	-0.017
-545.296	80.303	0.163	0.176
-544.281	676.089	-0.076	-0.199
-543.266	-94.972	-0.245	0.067
-542.252	-119.274	-0.131	0.023
-541.237	-56.931	0.319	0.141
-540.223	50.098	-0.050	0.048
-539.208	-120.967	-0.337	-0.057
-538.193	-52.796	0.134	-0.062
-537.179	-28.825	-0.239	-0.138
-536.164	-122.356	0.418	0.068
-535.150	-200.000	0.045	0.212
-534.135	-200.000	0.017	0.229
-533.121	650.444	0.057	-0.146
-532.106	-200.000	0.051	-0.382
-531.091	232.217	-0.103	0.169
-530.077	-128.510	-0.362	0.052
-529.062	-83.344	0.130	0.042
-528.048	253.125	0.122	-0.208
-527.033	-177.063	0.090	-0.002
-526.018	-185.154	-0.193	-0.003
-525.004	329.890	0.023	0.045
-523.989	157.939	0.040	0.055
-522.975	-37.748	0.304	-0.162
-521.960	-35.836	0.096	0.052
-520.945	-38.889	-0.271	-0.143
-519.931	800.000	0.037	0.106
-518.916	-102.716	-0.150	0.036
-517.902	302.673	-0.164	-0.304
-516.887	250.667	0.134	0.227
-515.872	-75.123	0.071	0.026
-514.858	-200.000	-0.042	0.238
-513.843	-20.635	-0.120	0.074
-512.829	-135.959	0.234	0.028
-511.814	-54.177	0.289	-0.132
-510.799	-200.000	0.054	-0.242
-509.785	157.783	-0.036	-0.050
-508.770	-99.733	-0.282	-0.071
-507.756	61.767	0.161	0.160
-506.741	-200.000	-0.020	-0.215
-505.726	89.771	0.145	-0.163
-504.712	-200.000	-0.034	0.155
-503.697	800.000	-0.029	-0.109
-502.683	800.000	0.064	-0.186
-501.668	5.732	0.103	-0.076
-500.653	-85.703	0.208	-0.065
-499.639	-13.851	0.090	-0.058
-498.624	-200.000	0.008	0.278
-497.610	354.219	0.105	-0.208
-496.595	-19.636	0.066	-0.041
-495.581	434.286	-0.133	0.290
-494.566	401.125	-0.018	0.039
-493.551	-2.173	0.114	-0.080
-492.537	800.000	0.067	-0.252
-491.522	623.785	0.111	0.279
-490.508	188.795	-0.169	0.253
-489.493	800.000	-0.079	0.326
-488.478	176.280	0.115	0.168
-487.464	-107.382	-0.120	0.026
-486.449	-200.000	-0.019	0.093
-485.435	-142.446	0.421	0.041
-484.420	652.276	0.111	-0.285
-483.405	22.304	-0.111	-0.091
-482.391	-129.915	-0.456	0.063
-481.376	-158.971	0.325	-0.018
-480.362	99.744	0.296	0.343
-479.347	-144.454	0.160	0.015
-478.332	-107.913	0.053	-0.011
-477.318	800.000	0.038	-0.137
-476.303	-56.647	0.369	0.163
-475.289	-58.717	-0.063	0.027
-474.274	425.970	0.161	-0.348
-473.259	-177.430	-0.089	0.002
-472.245	800.000	0.102	-0.320
-471.230	800.000	0.030	-0.107
-470.216	-200.000	0.065	0.393
-469.201	-23.231	0.231	-0.139
-468.186	-112.310	0.288	0.058
-467.172	-87.893	0.075	0.023
-466.157	-181.172	-0.260	0.005
-465.143	800.000	-0.119	0.363
-464.128	-155.391	-0.253	-0.016
-463.113	-36.871	0.037	0.020
-462.099	-110.418	0.156	-0.032
-461.084	800.000	-0.042	0.184
-460.070	183.185	0.053	0.078
-459.055	-200.000	-0.013	0.089
-458.040	-33.999	0.148	-0.081
-457.026	4.059	0.308	-0.225
-456.011	-152.013	-0.218	0.016
-454.997	153.212	0.155	-0.212
-453.982	-51.486	0.190	-0.089
-452.968	-128.034	-0.291	-0.042
-451.953	5.698	-0.267	-0.198
-450.938	-30.416	-0.088	-0.050
-449.924	-200.000	0.003	-0.016
-448.909	57.052	0.070	-0.069
-447.895	800.000	-0.041	0.134
-446.880	189.218	0.176	0.263
-445.865	800.000	-0.165	-0.471
-444.851	76.174	0.165	0.175
-443.836	-162.047	0.213	-0.011
-442.822	-120.911	-0.277	0.047
-441.807	426.340	0.143	0.308
-440.792	800.000	-0.068	-0.273
-439.778	-157.036	-0.149	-0.009
-438.763	800.000	0.018	-0.050
-437.749	800.000	0.036	-0.132
-436.734	55.929	-0.144	0.139
-435.719	3.496	-0.090	0.066
-434.705	109.324	-0.239	-0.286
-433.690	-48.094	0.323	0.156
-432.676	-153.469	-0.235	0.016
-431.661	800.000	0.067	0.193
-430.646	-119.451	-0.209	-0.036
-429.632	-200.000	0.007	0.112
-428.617	-124.003	-0.262	0.041
-427.603	-90.699	0.128	-0.037
-426.588	-143.339	-0.132	0.013
-425.573	120.040	-0.060	-0.074
-424.559	-10.869	-0.172	0.113
-423.544	-200.000	-0.022	0.382
-422.530	-200.000	-0.001	-0.133
-421.515	36.807	-0.193	-0.170
-420.500	-37.706	-0.298	0.158
-419.486	489.609	-0.079	-0.181
-418.471	642.992	-0.031	0.080
-417.457	-200.000	0.009	-0.353
-416.442	-73.208	-0.085	0.031
-415.428	59.879	-0.123	-0.121
-414.413	-41.323	-0.160	0.082
-413.398	-75.674	0.232	-0.082
-412.384	309.492	-0.107	0.200
-411.369	-168.262	0.248	-0.010
-410.355	83.226	-0.399	-0.434
-409.340	-114.112	-0.226	-0.044
-408.325	-22.126	-0.056	0.034
-407.311	-140.262	-0.154	-0.016
-406.296	-91.626	-0.317	-0.090
-405.282	798.774	0.049	-0.136
-404.267	36.406	0.051	-0.045
-403.252	-1.244	-0.188	-0.132
-402.238	-86.052	-0.397	0.122
-401.223	30.425	0.260	-0.221
-400.209	-143.568	0.368	-0.035
-399.194	-92.020	-0.294	-0.083
-398.179	-200.000	0.015	-0.188
-397.165	-200.000	0.024	-0.158
-396.150	-200.000	-0.021	0.202
-395.136	341.274	-0.091	0.178
-394.121	11.096	-0.184	-0.141
-393.106	800.000	0.061	0.203
-392.092	800.000	0.051	-0.162
-391.077	-100.638	-0.146	-0.036
-390.063	29.089	-0.200	-0.169
-389.048	800.000	0.031	-0.125
-388.033	46.565	-0.077	-0.071
-387.019	84.851	0.086	0.094
-386.004	407.574	0.228	0.481
-384.990	274.685	-0.132	-0.233
-383.975	-200.000	0.031	0.165
-382.960	-17.243	0.180	-0.113
-381.946	216.549	0.128	0.203
-380.931	14.620	-0.098	-0.076
-379.917	123.739	0.160	0.200
-378.902	-133.974	-0.191	0.024
-377.888	-121.975	-0.184	-0.030
-376.873	190.863	0.022	-0.033
-375.858	172.300	-0.038	-0.054
-374.844	-20.669	-0.034	0.021
-373.829	58.748	0.104	0.101
-372.815	-200.000	0.021	0.167
-371.800	-200.000	0.048	-0.308
-370.785	-60.384	0.253	-0.107
-369.771	-20.364	-0.407	-0.249
-368.756	-7.220	-0.075	-0.051
-367.742	-49.875	0.274	0.130
-366.727	-144.775	0.302	-0.028
-365.712	-92.815	0.286	-0.080
-364.698	-158.081	-0.242	-0.014
-363.683	-139.682	0.178	-0.019
-362.669	-200.000	-0.041	0.262
-361.654	-200.000	-0.041	0.431
-360.639	283.833	0.133	0.238
-359.625	-48.993	-0.362	0.173
-358.610	800.000	0.002	0.007
-357.596	800.000	-0.013	-0.054
-356.581	-200.000	0.032	0.140
-355.566	800.000	-0.053	0.201
-354.552	-4.413	0.264	0.182
-353.537	106.927	-0.282	-0.334
-352.523	-34.481	-0.281	-0.153
-351.508	-99.432	0.331	-0.083
-350.493	3.192	-0.234	-0.170
-349.479	-200.000	0.045	-0.209
-348.464	-123.348	-0.260	-0.041
-347.450	153.569	0.215	-0.294
-346.435	-24.269	0.060	0.035
-345.420	162.501	-0.005	-0.008
-344.406	368.715	-0.085	0.172
-343.391	-76.094	0.503	-0.177
-342.377	220.584	-0.019	-0.030
-341.362	123.061	-0.068	0.085
-340.348	-200.000	0.017	-0.143
-339.333	-10.051	0.116	0.077
-338.318	-200.000	0.003	0.012
-337.304	505.104	0.082	-0.189
-336.289	-6.162	-0.116	-0.079
-335.275	-87.355	-0.239	0.072
-334.260	292.957	-0.115	-0.208
-333.245	800.000	0.030	-0.119
-332.231	23.540	0.330	0.270
-331.216	117.013	-0.045	-0.054
-330.202	71.380	0.237	0.244
-329.187	119.159	-0.048	0.060
-328.172	-171.275	0.197	-0.007
-327.158	23.381	0.092	-0.075
-326.143	755.220	0.118	-0.318
-325.129	100.599	0.069	0.080
-324.114	-175.056	-0.211	-0.006
-323.099	191.839	-0.047	0.070
-322.085	-44.140	-0.319	-0.159
-321.070	-200.000	0.002	0.016
-320.056	800.000	0.052	-0.165
-319.041	-45.168	0.308	-0.152
-318.026	49.137	0.060	-0.056
-317.012	-61.624	-0.336	-0.140
-315.997	-27.268	-0.305	-0.177
-314.983	-200.000	-0.041	-0.200
-313.968	-69.491	0.286	-0.109
-312.953	-200.000	0.039	-0.210
-311.939	-35.345	0.083	-0.045
-310.924	-200.000	-0.067	0.361
-309.910	-12.467	0.260	0.169
-308.895	-190.304	-0.133	0.001
-307.880	23.690	0.109	0.089
-306.866	-75.343	-0.075	-0.027
-305.851	-147.372	-0.145	-0.012
-304.837	161.821	-0.145	-0.202
-303.822	105.618	0.306	0.360
-302.807	800.000	0.067	-0.196
-301.793	143.504	-0.145	0.192
-300.778	456.943	0.131	0.289
-299.764	-15.139	-0.159	0.101
-298.749	94.337	-0.142	0.161
-297.735	363.343	-0.124	-0.248
-296.720	104.268	-0.067	-0.079
-295.705	800.000	0.090	0.268
-294.691	106.646	0.284	-0.334
-293.676	-200.000	0.031	0.357
-292.662	-101.693	0.046	-0.011
-291.647	-200.000	0.051	-0.344
-290.632	-200.000	-0.062	-0.323
-289.618	235.558	-0.149	-0.245
-288.603	7.826	0.135	-0.101
-287.589	228.682	-0.061	0.099
-286.574	-5.115	-0.080	0.054
-285.559	-200.000	0.003	0.383
-284.545	30.512	0.288	-0.244
-283.530	80.540	0.070	0.075
-282.516	73.826	-0.078	-0.081
-281.501	58.332	0.041	0.040
-280.486	-58.972	-0.200	0.086
-279.472	-45.377	0.242	0.119
-278.457	662.520	-0.019	0.048
-277.443	-200.000	0.021	0.220
-276.428	499.984	-0.078	0.178
-275.413	-44.117	0.247	0.123
-274.399	-160.508	-0.458	0.024
-273.384	-200.000	0.417	0.001
-272.370	34.726	0.290	0.251
-271.355	475.738	0.068	-0.152
-270.340	422.415	0.072	0.153
-269.326	3.117	-0.076	-0.055
-268.311	-149.457	0.189	-0.015
-267.297	800.000	-0.044	-0.150
-266.282	-71.272	-0.243	0.090
-265.267	-2.462	0.196	0.136
-264.253	107.403	0.150	0.176
-263.238	-200.000	0.009	0.250
-262.224	800.000	-0.045	0.132
-261.209	36.869	0.104	-0.091
-260.195	-200.000	0.029	0.145
-259.180	-19.151	-0.075	-0.046
-258.165	232.042	0.125	0.204
-257.151	17.956	0.188	-0.149
-256.136	-200.000	0.017	-0.199
-255.122	-93.360	-0.117	-0.032
-254.107	4.660	0.417	0.303
-253.092	-74.627	-0.261	0.093
-252.078	-200.000	-0.001	-0.054
-251.063	-86.188	-0.294	0.090
-250.049	306.001	0.037	0.069
-249.034	800.000	0.058	0.182
-248.019	800.000	0.008	-0.029
-247.005	-101.772	0.087	-0.021
-245.990	-156.186	-0.141	-0.009
-244.976	800.000	0.018	-0.070
-243.961	175.431	-0.158	-0.227
-242.946	60.575	-0.044	0.043
-241.932	220.852	0.258	-0.411
-240.917	-200.000	-0.044	-0.345
-239.903	308.222	0.106	-0.197
-238.888	10.049	0.201	-0.151
-237.873	-9.426	0.029	-0.019
-236.859	266.090	0.074	-0.128
-235.844	229.121	0.206	-0.333
-234.830	800.000	0.079	0.307
-233.815	343.205	0.083	0.162
-232.800	29.292	0.061	-0.051
-231.786	112.923	-0.090	-0.108
-230.771	203.864	-0.139	-0.213
-229.757	187.205	0.098	-0.145
-228.742	18.237	0.031	-0.025
-227.727	-36.301	0.124	-0.066
-226.713	-116.423	-0.189	-0.035
-225.698	7.915	-0.099	0.073
-224.684	-200.000	-0.003	0.174
-223.669	-200.000	0.008	-0.133
-222.655	144.703	0.191	0.253
-221.640	-95.593	0.311	0.083
-220.625	800.000	0.039	0.127
-219.611	88.861	-0.055	0.061
-218.596	-122.784	0.261	0.042
-217.582	-0.314	0.252	-0.177
-216.567	262.694	-0.185	-0.317
-215.552	-17.565	0.319	0.199
-214.538	367.576	-0.054	-0.107
-213.523	-7.239	0.143	0.096
-212.509	349.431	-0.068	0.133
-211.494	800.000	0.077	0.275
-210.479	-62.793	-0.146	0.060
-209.465	156.275	0.090	-0.122
-208.450	-67.529	-0.118	-0.046
-207.436	37.540	0.196	0.172
-206.421	-135.155	-0.075	0.009
-205.406	-200.000	-0.030	0.137
-204.392	95.844	0.016	0.018
-203.377	24.295	-0.363	-0.297
-202.363	-111.156	0.075	0.015
-201.348	-200.000	-0.006	0.145
-200.333	335.341	-0.093	-0.179
-199.319	229.163	0.063	-0.102
-198.304	165.339	0.094	-0.132
-197.290	-200.000	0.002	0.146
-196.275	645.242	-0.181	0.458
-195.260	-200.000	0.020	-0.120
-194.246	76.591	-0.297	0.312
-193.231	115.819	0.219	0.265
-192.217	-200.000	-0.010	0.316
-191.202	-200.000	-0.030	0.214
-190.187	-55.682	-0.304	-0.134
-189.173	-109.601	0.060	0.013
-188.158	121.630	-0.108	-0.134
-187.144	40.226	-0.186	0.165
-186.129	-36.056	-0.141	0.075
-185.114	38.502	0.293	0.258
-184.100	74.253	-0.157	-0.163
-183.085	-125.175	0.052	-0.008
-182.071	-120.777	-0.485	-0.081
-181.056	68.642	-0.177	-0.179
-180.042	108.674	0.096	0.114
-179.027	55.012	0.181	0.173
-178.012	-20.632	-0.297	-0.181
-176.998	-2.366	-0.086	-0.060
-175.983	-200.000	-0.017	-0.230
-174.969	-83.888	-0.324	-0.102
-173.954	-153.034	0.234	0.016
-172.939	-35.669	0.134	0.072
-171.925	800.000	-0.062	0.174
-170.910	-200.000	-0.025	-0.185
-169.896	53.772	0.223	-0.211
-168.881	-107.177	0.116	-0.025
-167.866	47.512	0.179	0.165
-166.852	-51.842	-0.369	0.170
-165.837	335.362	-0.049	0.093
-164.823	436.697	0.097	0.210
-163.808	-13.141	0.174	0.112
-162.793	217.838	-0.211	0.332
-161.779	59.454	0.205	-0.200
-160.764	-70.422	0.281	0.105
-159.750	228.231	0.163	0.263
-158.735	-60.138	0.176	0.074
-157.720	85.767	-0.143	-0.155
-156.706	72.097	0.111	0.115
-155.691	-21.335	-0.259	-0.156
-154.677	60.326	-0.166	0.162
-153.662	800.000	0.029	-0.088
-152.647	-152.033	-0.093	-0.007
-151.633	484.549	0.144	-0.323
-150.618	-115.206	0.295	0.055
-149.604	-200.000	-0.004	-0.113
-148.589	-200.000	0.076	0.331
-147.574	743.992	0.160	0.424
-146.560	-70.371	-0.174	0.065
-145.545	-117.131	0.228	0.041
-144.531	-193.093	-0.291	-0.003
-143.516	101.406	-0.193	-0.222
-142.502	402.634	-0.075	0.155
-141.487	800.000	-0.061	-0.251
-140.472	388.174	-0.171	-0.350
-139.458	-161.809	-0.187	-0.009
-138.443	-108.198	0.482	0.103
-137.429	-72.443	0.135	0.049
-136.414	13.519	-0.245	0.187
-135.399	41.445	0.318	0.284
-134.385	-200.000	0.073	0.316
-133.370	141.578	-0.125	0.163
-132.356	-156.209	-0.133	0.008
-131.341	636.753	-0.136	0.341
-130.326	385.953	0.062	-0.127
-129.312	83.687	-0.238	0.256
-128.297	105.414	-0.130	0.151
-127.283	-117.739	-0.279	-0.050
-126.268	-8.443	-0.172	0.114
-125.253	578.173	0.095	0.228
-124.239	-200.000	-0.023	-0.130
-123.224	356.540	-0.116	0.229
-122.210	114.943	0.107	0.128
-121.195	-200.000	-0.143	-0.000
-120.180	206.793	0.162	0.248
-119.166	-86.999	-0.154	-0.046
-118.151	-200.000	-0.018	0.162
-117.137	72.207	-0.047	0.048
-116.122	-68.216	0.084	-0.032
-115.107	-57.346	0.303	0.131
-114.093	108.082	-0.098	-0.116
-113.078	-200.000	0.021	-0.109
-112.064	-76.975	-0.315	-0.109
-111.049	131.521	0.097	-0.123
-110.034	800.000	-0.089	0.307
-109.020	6.115	-0.256	-0.187
-108.005	321.572	-0.118	-0.221
-106.991	-200.000	0.008	0.198
-105.976	93.185	0.143	0.159
-104.962	-96.970	0.251	-0.065
-103.947	-200.000	-0.073	-0.366
-102.932	-200.000	0.010	-0.247
-101.918	-16.150	0.261	0.164
-100.903	-200.000	0.027	0.280
-99.889	103.366	-0.142	0.164
-98.874	-84.431	0.263	0.082
-97.859	69.497	-0.094	-0.095
-96.845	800.000	-0.078	-0.312
-95.830	-63.282	-0.150	0.061
-94.816	75.509	-0.222	0.231
-93.801	187.555	0.106	-0.156
-92.786	-23.315	0.303	0.179
-91.772	64.846	0.262	-0.261
-90.757	-54.512	-0.424	-0.189
-89.743	-123.309	-0.164	0.026
-88.728	438.488	0.054	-0.116
-87.713	-29.860	0.045	-0.025
-86.699	85.219	-0.231	-0.249
-85.684	-200.000	-0.034	-0.163
-84.670	-122.231	0.164	-0.026
-83.655	60.313	0.083	-0.081
-82.640	-4.802	-0.177	-0.121
-81.626	266.868	-0.079	0.136
-80.611	-200.000	-0.008	0.038
-79.597	135.124	-0.215	0.276
-78.582	768.735	-0.106	0.285
-77.567	462.432	-0.159	-0.350
-76.553	67.915	-0.083	-0.084
-75.538	-161.011	-0.124	-0.006
-74.524	141.143	-0.014	-0.018
-73.509	-200.000	-0.066	-0.527
-72.494	-33.551	0.455	0.248
-71.480	-39.355	-0.110	-0.057
-70.465	-80.405	0.062	0.020
-69.451	6.271	0.186	0.136
-68.436	-142.674	-0.301	-0.029
-67.422	-200.000	-0.004	0.192
-66.407	221.267	0.124	-0.196
-65.392	-112.913	-0.088	0.017
-64.378	800.000	0.057	0.166
-63.363	70.681	0.141	-0.144
-62.349	-200.000	0.037	0.252
-61.334	41.351	-1.086	-0.967
-60.319	112.970	0.542	0.647
-59.305	-200.000	-0.116	-1.065
-58.290	184.668	0.556	0.811
-57.276	581.029	0.719	1.734
-56.261	-200.000	96.785	580.871
-55.246	559.180	1377.617	3273.041
-54.232	160.395	2552.367	3504.206
-53.217	112.641	2141.935	2552.149
-52.203	44.509	1605.010	1451.273
-51.188	36.540	1342.724	1166.230
-50.173	33.213	1301.042	1110.493
-49.159	55.226	1348.119	1282.593
-48.144	57.443	1364.460	1311.313
-47.130	36.557	1323.437	1149.397
-46.115	33.159	1305.573	1113.865
-45.100	32.812	1301.294	1108.132
-44.086	32.787	1298.880	1105.883
-43.071	32.710	1296.606	1103.455
-42.057	32.814	1294.247	1102.011
-41.042	32.889	1292.479	1100.896
-40.027	32.886	1291.169	1099.721
-39.013	32.922	1289.453	1098.425
-37.998	32.909	1287.565	1096.697
-36.984	32.858	1286.267	1095.256
-35.969	32.935	1284.310	1093.993
-34.954	32.996	1282.430	1092.696
-33.940	33.016	1281.088	1091.626
-32.925	33.024	1280.135	1090.819
-31.911	32.934	1278.143	1088.557
-30.896	32.922	1277.382	1087.799
-29.881	33.003	1275.681	1086.774
-28.867	33.059	1274.091	1085.698
-27.852	33.171	1272.488	1084.928
-26.838	33.161	1271.106	1083.653
-25.823	33.037	1269.939	1081.903
-24.809	33.072	1268.352	1080.711
-23.794	32.919	1267.708	1079.242
-22.779	33.097	1265.491	1078.324
-21.765	33.017	1264.806	1077.244
-20.750	32.907	1263.588	1075.541
-19.736	33.009	1262.354	1075.024
-18.721	32.839	1261.125	1072.972
-17.706	32.867	1260.340	1072.419
-16.692	32.841	1259.148	1071.216
-15.677	32.915	1257.503	1070.190
-14.663	32.965	1256.595	1069.658
-13.648	33.019	1255.397	1068.904
-12.633	32.844	1254.708	1067.284
-11.619	32.870	1253.948	1066.740
-10.604	32.815	1252.907	1065.505
-9.590	32.828	1251.891	1064.672
-8.575	32.777	1251.057	1063.632
-7.560	32.837	1250.447	1063.407
-6.546	32.884	1249.380	1062.723
-5.531	32.826	1248.602	1061.695
-4.517	32.897	1247.384	1061.014
-3.502	32.922	1246.619	1060.464
-2.487	32.833	1245.713	1059.149
-1.473	32.804	1241.784	1055.606
-0.458	31.435	1227.263	1035.640
0.556	28.498	1210.047	998.718
1.571	25.210	1216.244	985.711
2.586	24.404	1231.423	993.439
3.600	23.888	1221.170	982.234
4.615	17.533	1147.996	890.184
5.629	7.187	1070.097	779.042
6.644	2.373	1049.915	741.008
7.659	2.109	1046.855	737.510
8.673	1.945	1045.715	735.849
9.688	1.913	1044.307	734.640
10.702	2.521	1042.788	736.431
11.717	9.156	1052.992	775.702
12.731	19.508	1066.999	836.370
13.746	24.305	1073.080	864.376
14.761	25.183	1074.258	869.507
15.775	25.284	1073.469	869.282
16.790	25.062	1072.628	867.448
17.804	25.026	1071.960	866.658
18.819	25.184	1071.502	866.974
19.834	25.160	1071.659	866.909
20.848	25.262	1070.865	866.682
21.863	25.328	1070.694	866.782
22.877	25.185	1069.665	865.188
23.892	25.116	1069.007	864.244
24.907	25.128	1068.621	863.915
25.921	25.264	1067.117	863.277
26.936	25.057	1066.203	861.466
27.950	25.254	1064.113	860.644
28.965	25.079	1062.413	858.357
29.980	25.071	1061.020	857.114
30.994	25.338	1060.323	857.752
32.009	25.362	1058.950	856.681
33.023	25.135	1057.793	854.585
34.038	25.175	1057.164	854.196
35.053	25.293	1056.642	854.257
36.067	25.412	1055.271	853.638
37.082	25.409	1054.950	853.290
38.096	25.400	1055.107	853.300
39.111	25.624	1053.856	853.275
40.126	25.395	1052.485	851.006
41.140	25.046	1050.730	847.860
42.155	24.851	1049.520	845.886
43.169	24.871	1048.329	844.948
44.184	24.889	1047.672	844.426
45.199	24.702	1047.102	843.013
46.213	24.831	1045.924	842.596
47.228	25.087	1045.149	843.101
48.242	25.165	1044.548	842.909
49.257	25.152	1043.970	842.304
50.271	25.339	1042.874	842.226
51.286	25.313	1042.383	841.633
52.301	25.293	1041.602	840.831
53.315	25.250	1040.354	839.548
54.330	25.335	1039.252	838.983
55.344	25.149	1038.906	837.759
56.359	25.117	1037.975	836.788
57.374	25.033	1036.787	835.365
58.388	25.054	1035.852	834.633
59.403	24.852	1035.187	833.083
60.417	24.856	1034.139	832.185
61.432	24.856	1034.185	832.147
62.447	24.997	1033.345	832.057
63.461	24.969	1032.992	831.565
64.476	25.030	1031.657	830.701
65.490	24.828	1031.014	829.174
66.505	24.979	1030.250	829.183
67.520	24.993	1029.435	828.519
68.534	24.669	1028.274	826.016
69.549	24.511	1026.632	823.893
70.563	24.457	1026.111	823.153
71.578	24.436	1025.375	822.396
72.593	24.347	1024.070	820.863
73.607	24.454	1023.928	821.172
74.622	24.807	1023.890	822.692
75.636	24.799	1022.872	821.766
76.651	24.672	1021.934	820.354
77.666	24.565	1021.233	819.231
78.680	24.662	1020.523	819.031
79.695	24.653	1020.119	818.592
80.709	24.694	1019.361	818.102
81.724	24.745	1018.452	817.531
82.739	24.967	1017.641	817.821
83.753	25.208	1017.438	818.689
84.768	25.441	1016.621	819.018
85.782	25.642	1015.521	818.975
86.797	25.420	1014.531	817.097
87.812	25.285	1013.591	815.652
88.826	25.431	1012.813	815.617
89.841	25.504	1012.151	815.344
90.855	25.418	1011.231	814.142
91.870	25.426	1010.303	813.358
92.884	25.292	1009.322	811.890
93.899	25.269	1007.914	810.581
94.914	25.396	1007.227	810.530
95.928	25.368	1006.160	809.475
96.943	25.012	1005.246	807.066
97.957	24.835	1003.627	804.895
98.972	24.843	1002.772	804.175
99.987	24.896	1002.249	803.925
101.001	25.213	1001.208	804.436
102.016	25.132	1000.769	803.649
103.030	25.144	999.608	802.701
104.045	25.039	998.282	801.096
105.060	24.814	998.027	799.815
106.074	24.936	997.172	799.603
107.089	25.267	996.861	800.759
108.103	25.045	996.010	799.018
109.118	24.904	994.320	796.962
110.133	24.916	993.499	796.289
111.147	24.802	992.026	794.529
112.162	24.734	991.277	793.561
113.176	24.835	990.541	793.349
114.191	24.817	989.563	792.415
115.206	24.491	988.409	789.977
116.220	24.522	987.810	789.564
117.235	24.723	986.806	789.583
118.249	24.554	986.577	788.583
119.264	24.546	985.393	787.530
120.279	24.554	985.161	787.312
121.293	24.741	984.017	787.149
122.308	24.655	983.200	786.050
123.322	24.474	982.260	784.431
124.337	24.323	981.015	782.705
125.352	23.973	978.970	779.472
126.366	23.914	978.246	778.569
127.381	24.688	978.290	781.923
128.395	25.092	977.960	783.353
129.410	25.207	976.938	782.966
130.424	25.162	976.150	782.071
131.439	25.122	975.544	781.343
132.454	25.110	974.609	780.473
133.468	25.058	973.743	779.485
134.483	25.123	973.392	779.417
135.497	25.360	972.328	779.523
136.512	25.485	971.188	779.084
137.527	25.360	970.252	777.722
138.541	25.427	970.078	777.805
139.556	25.445	969.022	776.966
140.570	25.529	968.483	776.826
141.585	25.606	967.209	776.070
142.600	25.249	966.753	774.096
143.614	25.589	966.093	774.965
144.629	25.752	964.928	774.661
145.643	25.562	963.898	772.951
146.658	25.346	962.643	770.949
147.673	25.170	961.805	769.451
148.687	25.251	960.546	768.725
149.702	25.081	959.579	767.157
150.716	25.156	958.719	766.722
151.731	25.316	958.432	767.109
152.746	25.511	957.525	767.146
153.760	25.486	957.163	766.680
154.775	25.585	956.479	766.487
155.789	25.535	955.913	765.755
156.804	25.560	954.721	764.837
157.819	25.600	954.012	764.373
158.833	25.811	953.435	764.736
159.848	25.642	952.287	763.033
160.862	25.544	951.233	761.707
161.877	25.688	949.952	761.219
162.892	25.585	949.517	760.372
163.906	25.486	948.277	758.892
164.921	25.565	947.261	758.347
165.935	25.492	946.558	757.407
166.950	25.538	945.581	756.751
167.964	25.655	944.790	756.545
168.979	25.408	943.493	754.399
169.994	25.478	942.809	754.082
171.008	25.570	942.479	754.135
172.023	25.518	941.395	752.986
173.037	25.431	940.373	751.735
174.052	25.247	939.386	750.113
175.067	25.408	938.787	750.239
176.081	25.430	938.437	749.984
177.096	25.300	937.756	748.834
178.110	25.016	936.784	746.805
179.125	24.845	935.742	745.196
180.140	25.024	935.407	745.609
181.154	25.166	935.155	745.932
182.169	25.359	935.477	746.928
183.183	25.496	934.964	747.023
184.198	25.557	933.643	746.154
185.213	25.380	933.158	744.967
186.227	25.527	932.679	745.126
187.242	25.504	931.999	744.421
188.256	25.656	931.032	744.214
189.271	25.712	930.286	743.780
190.286	25.294	929.299	741.200
191.300	24.775	927.444	737.515
192.315	23.925	926.222	732.977
193.329	23.759	925.886	731.964
194.344	24.816	926.339	736.612
195.359	25.321	926.704	738.917
196.373	25.544	925.599	738.883
197.388	25.399	924.852	737.628
198.402	25.472	924.648	737.700
199.417	25.450	923.386	736.539
200.432	25.205	922.721	734.939
201.446	25.152	921.731	733.866
202.461	25.155	921.376	733.534
203.475	24.283	919.498	728.412
204.490	23.314	918.642	723.712
205.504	24.317	919.104	728.111
206.519	25.065	918.929	730.959
207.534	25.129	918.462	730.782
208.548	25.533	918.419	732.330
209.563	25.329	917.051	730.344
210.577	25.276	916.773	729.843
211.592	25.679	916.305	731.042
212.607	25.663	915.216	730.044
213.621	25.637	914.714	729.474
214.636	25.716	914.057	729.205
215.650	25.566	913.355	727.974
216.665	25.666	913.066	728.086
217.680	25.559	911.911	726.666
218.694	25.231	910.728	724.337
219.709	25.136	910.018	723.323
220.723	25.449	909.686	724.257
221.738	25.377	909.349	723.636
222.753	25.418	908.407	722.988
223.767	25.544	908.140	723.217
224.782	25.851	907.813	724.127
225.796	25.702	907.543	723.247
226.811	25.176	905.350	719.328
227.826	24.439	904.790	715.866
228.840	24.576	904.145	715.839
229.855	24.726	903.237	715.658
230.869	24.383	902.046	713.279
231.884	24.690	902.553	714.844
232.899	25.448	902.331	717.635
233.913	25.331	901.726	716.622
234.928	25.378	901.439	716.520
235.942	25.363	900.464	715.620
236.957	24.923	900.009	713.445
237.972	24.999	899.007	712.889
238.986	25.149	898.604	713.104
240.001	25.104	898.165	712.514
241.015	25.072	897.772	712.013
242.030	25.478	896.797	712.786
243.045	25.525	896.367	712.567
244.059	25.628	895.798	712.460
245.074	25.358	895.201	710.852
246.088	25.166	893.782	708.905
247.103	25.452	893.841	710.019
248.117	25.905	893.837	711.740
249.132	26.191	893.617	712.634
250.147	26.167	893.279	712.206
251.161	26.347	892.468	712.206
252.176	26.469	891.474	711.827
253.190	26.386	891.490	711.451
254.205	26.431	891.489	711.566
255.220	26.470	890.463	710.837
256.234	26.327	889.712	709.613
257.249	26.190	888.889	708.356
258.263	26.324	888.148	708.227
259.278	26.417	887.544	708.049
260.293	26.499	886.767	707.686
261.307	26.414	886.424	707.015
262.322	26.129	885.479	705.088
263.336	25.223	883.564	699.966
264.351	24.349	881.773	695.082
265.366	24.519	881.403	695.391
266.380	25.544	882.052	699.835
267.395	25.951	881.970	701.291
268.409	25.816	881.272	700.147
269.424	26.214	880.586	701.086
270.439	25.901	880.309	699.590
271.453	26.258	879.550	700.310
272.468	26.389	879.059	700.363
273.482	26.473	878.610	700.271
274.497	26.181	877.072	697.851
275.512	25.744	876.529	695.671
276.526	26.108	876.741	697.183
277.541	26.316	876.096	697.411
278.555	26.046	875.202	695.598
279.570	25.998	874.283	694.622
280.585	26.001	874.056	694.390
281.599	26.018	872.995	693.554
282.614	25.443	872.057	690.537
283.628	25.379	871.921	690.120
284.643	25.736	871.672	691.233
285.657	25.436	870.246	688.893
286.672	25.104	869.401	686.892
287.687	25.636	869.433	688.892
288.701	25.827	868.392	688.737
289.716	25.391	867.838	686.572
290.730	25.441	867.329	686.298
291.745	25.119	866.061	684.006
292.760	25.406	866.284	685.216
293.774	26.481	866.570	689.482
294.789	26.712	866.641	690.356
295.803	26.691	866.075	689.766
296.818	26.766	864.937	689.083
297.833	26.293	863.710	686.250
298.847	26.259	862.929	685.439
299.862	26.478	863.096	686.341
300.876	26.723	862.692	686.887
301.891	26.795	861.766	686.361
302.906	26.291	861.219	683.960
303.920	26.509	860.822	684.409
304.935	26.794	860.518	685.181
305.949	26.712	860.121	684.494
306.964	26.469	859.022	682.644
307.979	26.398	859.001	682.299
308.993	26.703	859.044	683.425
310.008	26.837	857.830	682.902
311.022	26.650	857.106	681.561
312.037	26.468	856.564	680.386
313.052	26.130	855.727	678.391
314.066	25.271	853.901	673.660
315.081	24.936	853.413	671.958
316.095	25.861	853.708	675.602
317.110	26.385	853.236	677.133
318.125	25.378	852.294	672.556
319.139	24.518	850.326	667.729
320.154	24.563	850.105	667.662
321.168	25.266	850.975	670.916
322.183	26.111	850.539	673.668
323.197	26.224	850.449	673.961
324.212	26.436	849.880	674.241
325.227	26.406	849.426	673.710
326.241	26.377	848.649	672.924
327.256	26.299	847.730	671.848
328.270	26.101	847.563	670.920
329.285	25.977	846.492	669.553
330.300	25.799	845.368	667.945
331.314	25.961	845.443	668.544
332.329	26.443	845.401	670.239
333.343	26.551	845.190	670.411
334.358	26.554	844.675	669.955
335.373	26.672	844.494	670.189
336.387	26.994	844.338	671.196
337.402	27.152	843.813	671.303
338.416	27.038	843.430	670.517
339.431	27.126	843.356	670.724
340.446	27.339	842.918	671.103
341.460	27.028	842.423	669.503
342.475	26.782	841.695	667.958
343.489	27.006	841.532	668.594
344.504	27.318	840.813	669.114
345.519	27.433	840.808	669.471
346.533	27.421	840.303	668.967
347.548	27.310	839.888	668.171
348.562	27.236	839.566	667.583
349.577	27.299	838.391	666.821
350.592	27.271	837.902	666.271
351.606	27.211	837.326	665.535
352.621	27.261	836.551	665.041
353.635	27.070	835.671	663.584
354.650	26.570	833.712	660.148
355.665	25.579	832.506	655.523
356.679	26.022	832.292	656.913
357.694	26.420	832.071	658.130
358.708	26.376	831.458	657.424
359.723	26.891	831.314	659.125
360.738	27.069	831.150	659.581
361.752	27.059	830.954	659.331
362.767	27.424	830.778	660.460
363.781	27.695	830.067	660.816
364.796	27.691	829.760	660.500
365.810	27.772	829.269	660.342
366.825	27.818	828.544	659.875
367.840	27.349	827.999	657.686
368.854	26.968	827.466	655.829
369.869	26.947	826.929	655.268
370.883	27.166	826.345	655.537
371.898	27.008	826.054	654.681
372.913	27.076	825.793	654.662
373.927	27.283	824.923	654.659
374.942	27.364	824.826	654.814
375.956	27.347	824.805	654.680
376.971	27.577	823.944	654.764
377.986	27.723	823.902	655.196
379.000	27.709	823.013	654.381
380.015	27.671	822.167	653.516
381.029	27.696	821.811	653.264
382.044	27.870	820.921	653.120
383.059	27.607	820.962	652.155
384.073	27.744	820.701	652.378
385.088	27.607	819.946	651.234
386.102	27.385	819.095	649.705
387.117	27.443	818.162	649.116
388.132	27.109	817.072	647.003
389.146	26.685	816.214	644.758
390.161	27.152	816.026	646.215
391.175	27.430	816.212	647.294
392.190	27.073	815.135	645.113
393.205	25.677	812.994	638.415
394.219	24.154	811.322	631.647
395.234	24.057	811.239	631.186
396.248	25.779	812.382	638.128
397.263	27.313	813.323	644.244
398.278	27.300	812.688	643.639
399.292	26.879	812.352	641.827
400.307	26.902	811.579	641.241
401.321	27.064	811.040	641.331
402.336	27.427	811.544	642.956
403.350	27.993	811.121	644.559
404.365	28.081	811.035	644.745
405.380	28.352	810.805	645.459
406.394	28.343	810.448	645.087
407.409	28.296	809.715	644.281
408.423	28.260	809.504	643.929
409.438	28.573	808.876	644.473
410.453	28.409	808.599	643.617
411.467	28.431	807.763	642.972
412.482	28.328	807.772	642.562
413.496	28.432	807.303	642.498
414.511	28.504	806.616	642.147
415.526	28.385	806.264	641.392
416.540	28.240	805.700	640.377
417.555	27.934	805.071	638.752
418.569	28.048	804.573	638.700
419.584	28.078	804.094	638.366
420.599	27.911	803.351	637.137
421.613	111.306	1284.338	1456.273
422.628	96.147	1354.424	1456.367
