DTS Sentinel unit serial number:	SN413079Multiplexer serial number:	ORYXHardware model number:	OX4-SRSoftware version number:	ORYX F/W v4.00 Oryx Data Collector v3.7.2.0data status	okinstallation	princeton_trtdifferential loss correction	single-endedforward channel	channel 1reverse channel	N/Adate	2019/09/12time	12:12:11forward acquisition time	60.00reverse acquisition time	0.00gamma	496.2192k internal	0.2292k external	0.2292temperature offset calibration	1.0048default loss term (dB/km)	0.3790temperature slope calibration	1.0000multiplexer offset coefficient	1.0000multiplexer slope coefficient	1.0000fibre end	0.00T internal ref (°C)	40.61T ext. ref 1 (°C)	2.05T ext. ref 2 (°C)	35.89length (m)	temperature (°C)	Stokes	anti-Stokes-747.200	-156.960	0.338	-0.021
-746.185	800.000	-0.083	-0.308
-745.171	-130.506	0.248	0.034
-744.156	33.160	-0.242	0.215
-743.142	-33.092	-0.060	-0.034
-742.127	-29.900	-0.113	0.066
-741.112	55.993	-0.052	0.052
-740.098	-65.571	-0.203	-0.083
-739.083	-4.625	-0.053	-0.037
-738.069	800.000	0.188	0.534
-737.054	-112.679	-0.225	0.046
-736.039	-96.173	-0.208	0.056
-735.025	-200.000	0.054	-0.292
-734.010	-47.694	-0.439	-0.218
-732.996	249.455	-0.107	0.185
-731.981	800.000	-0.111	-0.372
-730.966	41.139	-0.201	-0.186
-729.952	62.435	-0.388	-0.396
-728.937	49.187	0.024	0.023
-727.923	-99.777	-0.256	-0.065
-726.908	101.727	-0.256	0.305
-725.894	-200.000	-0.003	-0.442
-724.879	-124.108	-0.240	0.039
-723.864	-89.744	-0.167	-0.050
-722.850	800.000	0.011	-0.036
-721.835	542.248	-0.169	0.413
-720.821	343.792	-0.128	0.257
-719.806	-176.729	0.073	0.002
-718.791	-41.770	-0.289	-0.152
-717.777	-66.094	0.319	0.130
-716.762	-200.000	-0.008	0.045
-715.748	-35.963	-0.196	0.109
-714.733	-92.455	-0.200	0.057
-713.718	-51.612	-0.228	0.109
-712.704	-19.760	-0.102	-0.064
-711.689	-200.000	-0.024	-0.166
-710.675	-200.000	-0.271	-0.001
-709.660	107.117	-0.154	-0.187
-708.645	-200.000	-0.004	0.095
-707.631	-167.057	-0.142	0.006
-706.616	-136.860	-0.357	-0.042
-705.602	-200.000	-0.004	-0.225
-704.587	-115.276	-0.188	-0.036
-703.572	-200.000	-0.023	-0.212
-702.558	-74.289	-0.371	0.137
-701.543	-200.000	-0.028	-0.295
-700.529	214.525	0.150	0.242
-699.514	800.000	0.090	-0.336
-698.499	-56.338	0.223	0.101
-697.485	1.301	0.174	-0.127
-696.470	177.928	-0.040	0.060
-695.456	-43.302	-0.176	-0.091
-694.441	-109.088	0.213	-0.046
-693.426	84.622	-0.326	-0.364
-692.412	-144.552	-0.302	0.029
-691.397	454.961	-0.108	0.244
-690.383	-122.277	0.107	-0.018
-689.368	-15.434	-0.135	-0.088
-688.354	-68.168	-0.070	0.028
-687.339	-200.000	-0.034	0.379
-686.324	800.000	-0.155	-0.447
-685.310	1.032	-0.265	-0.194
-684.295	-77.226	0.048	-0.017
-683.281	-114.185	-0.048	0.009
-682.266	-107.520	-0.208	-0.047
-681.251	-157.961	-0.214	0.013
-680.237	86.530	0.047	-0.052
-679.222	-33.803	-0.067	-0.038
-678.208	-109.607	-0.290	0.062
-677.193	73.372	-0.090	0.096
-676.178	-139.376	-0.071	0.008
-675.164	-21.984	0.244	-0.152
-674.149	162.080	-0.049	-0.070
-673.135	41.731	-0.272	0.252
-672.120	73.626	-0.104	-0.111
-671.105	800.000	-0.074	0.238
-670.091	658.162	0.098	0.258
-669.076	-66.190	0.166	-0.068
-668.062	267.272	0.051	0.091
-667.047	-200.000	-0.021	0.123
-666.032	23.838	-0.141	-0.119
-665.018	-200.000	-0.017	0.128
-664.003	-86.022	-0.375	-0.118
-662.989	-137.691	-0.106	0.012
-661.974	132.440	0.089	0.117
-660.959	302.519	0.027	0.050
-659.945	72.213	0.255	-0.271
-658.930	-200.000	0.022	-0.448
-657.916	800.000	0.070	-0.219
-656.901	-5.942	-0.067	-0.047
-655.886	-200.000	0.008	-0.334
-654.872	-100.590	0.043	-0.011
-653.857	-200.000	0.000	-0.063
-652.843	21.262	-0.245	-0.203
-651.828	-200.000	-0.035	-0.327
-650.814	-92.950	0.107	-0.031
-649.799	-74.638	0.449	0.165
-648.784	135.077	-0.176	0.233
-647.770	-200.000	-0.001	0.060
-646.755	797.965	0.086	-0.241
-645.741	101.946	-0.372	-0.443
-644.726	-159.333	0.143	-0.008
-643.711	-200.000	0.021	-0.355
-642.697	-66.902	-0.270	-0.109
-641.682	88.184	-0.024	-0.027
-640.668	-200.000	-0.006	-0.134
-639.653	-175.886	0.256	-0.007
-638.638	-200.000	0.047	-0.210
-637.624	67.880	0.311	0.324
-636.609	-36.652	-0.340	0.186
-635.595	-124.160	-0.139	0.022
-634.580	-29.349	-0.199	-0.116
-633.565	-149.600	-0.480	0.039
-632.551	-100.359	0.126	-0.032
-631.536	-200.000	-0.010	-0.200
-630.522	800.000	0.061	-0.178
-629.507	-96.780	0.081	-0.022
-628.492	-36.440	-0.222	-0.122
-627.478	-99.655	-0.322	0.082
-626.463	158.930	0.181	-0.256
-625.449	-57.713	-0.293	-0.131
-624.434	-125.771	0.038	-0.006
-623.419	90.193	-0.191	0.218
-622.405	43.105	0.308	-0.286
-621.390	177.541	0.256	-0.380
-620.376	42.602	-0.075	0.069
-619.361	186.564	-0.038	0.058
-618.346	-97.761	0.061	-0.016
-617.332	192.881	-0.027	-0.042
-616.317	-200.000	0.028	0.182
-615.303	-23.874	0.279	0.170
-614.288	418.024	0.060	0.132
-613.273	-41.376	0.144	-0.075
-612.259	-60.413	0.289	0.125
-611.244	-14.736	-0.155	0.101
-610.230	-119.202	0.390	0.069
-609.215	249.604	-0.155	0.267
-608.201	-121.546	0.238	-0.040
-607.186	266.553	0.070	-0.125
-606.171	-114.132	0.128	-0.025
-605.157	-8.290	0.172	-0.118
-604.142	-48.256	-0.216	-0.106
-603.128	800.000	0.108	-0.358
-602.113	-126.796	0.240	-0.036
-601.098	-14.514	-0.184	-0.121
-600.084	41.412	-0.050	0.046
-599.069	167.597	0.059	-0.085
-598.055	367.108	-0.144	0.296
-597.040	515.726	-0.091	-0.217
-596.025	-200.000	0.032	-0.189
-595.011	-200.000	0.008	-0.143
-593.996	-28.176	-0.036	0.021
-592.982	-40.976	0.121	-0.064
-591.967	-124.160	0.143	0.023
-590.952	738.011	0.112	-0.306
-589.938	-86.900	-0.197	-0.061
-588.923	10.753	-0.141	-0.109
-587.909	86.811	-0.097	-0.109
-586.894	131.217	0.057	-0.075
-585.879	-106.876	-0.443	-0.100
-584.865	800.000	-0.041	0.174
-583.850	-200.000	0.235	0.000
-582.836	-65.087	-0.263	-0.108
-581.821	80.879	-0.036	-0.040
-580.806	-0.071	0.015	-0.011
-579.792	800.000	-0.060	0.188
-578.777	397.571	0.095	-0.202
-577.763	31.437	-0.237	0.207
-576.748	79.855	-0.236	-0.258
-575.733	-148.560	0.259	0.021
-574.719	-66.952	-0.259	0.104
-573.704	800.000	0.100	0.423
-572.690	-177.296	-0.454	-0.011
-571.675	-50.430	0.162	0.078
-570.661	77.191	-0.235	0.254
-569.646	91.731	0.292	0.334
-568.631	25.391	0.203	-0.171
-567.617	152.757	-0.048	0.067
-566.602	-200.000	-0.028	0.201
-565.588	197.465	-0.200	-0.310
-564.573	-151.189	0.240	0.018
-563.558	43.054	-0.263	-0.244
-562.544	162.700	0.118	0.168
-561.529	45.332	-0.191	-0.179
-560.515	800.000	-0.058	-0.190
-559.500	-37.940	0.123	0.066
-558.485	221.276	-0.129	0.211
-557.471	115.395	0.037	-0.046
-556.456	47.639	0.218	-0.207
-555.442	-19.663	-0.144	-0.090
-554.427	410.958	0.039	0.085
-553.412	-32.024	0.099	-0.057
-552.398	-132.956	0.171	-0.022
-551.383	-200.000	-0.026	0.188
-550.369	542.450	0.064	-0.156
-549.354	-24.457	-0.375	-0.227
-548.339	-200.000	-0.050	-0.232
-547.325	-179.697	-0.136	-0.003
-546.310	-45.664	-0.101	-0.051
-545.296	-200.000	0.003	-0.178
-544.281	-48.780	-0.190	0.093
-543.266	-84.285	0.264	-0.085
-542.252	-29.214	-0.140	-0.081
-541.237	-200.000	-0.052	0.283
-540.223	-129.279	0.311	0.044
-539.208	357.685	0.064	-0.130
-538.193	-200.000	0.012	0.343
-537.179	-42.284	-0.324	-0.168
-536.164	-200.000	0.032	-0.176
-535.150	-26.144	-0.093	0.055
-534.135	-200.000	-0.031	0.244
-533.121	-200.000	0.041	-0.216
-532.106	800.000	-0.004	0.015
-531.091	-73.677	0.323	0.119
-530.077	209.119	0.053	-0.085
-529.062	-108.611	-0.049	0.011
-528.048	-130.333	0.286	0.039
-527.033	-200.000	-0.001	0.055
-526.018	388.176	0.073	0.154
-525.004	89.029	0.156	-0.177
-523.989	86.912	0.226	-0.253
-522.975	60.303	-0.087	0.087
-521.960	-150.911	-0.110	-0.008
-520.945	-37.676	0.169	0.091
-519.931	744.239	0.066	-0.180
-518.916	-72.869	0.170	0.063
-517.902	-8.145	-0.296	0.202
-516.887	580.886	0.129	-0.321
-515.872	-73.427	0.125	-0.046
-514.858	800.000	-0.156	-0.551
-513.843	-28.046	-0.280	0.164
-512.829	-18.428	-0.165	0.105
-511.814	-140.420	-0.206	-0.022
-510.799	29.389	-0.128	0.110
-509.785	800.000	-0.063	-0.201
-508.770	-147.911	-0.204	-0.017
-507.756	-25.435	-0.224	0.134
-506.741	-200.000	0.035	0.181
-505.726	-78.065	0.245	-0.085
-504.712	485.444	0.139	-0.320
-503.697	99.638	0.103	-0.121
-502.683	-166.319	0.121	0.005
-501.668	12.221	0.128	-0.100
-500.653	140.101	0.023	-0.030
-499.639	-23.518	-0.152	0.093
-498.624	-32.515	0.281	0.159
-497.610	-75.605	0.100	-0.036
-496.595	-73.164	-0.153	0.057
-495.581	-121.579	0.066	-0.011
-494.566	86.701	-0.086	-0.096
-493.551	800.000	-0.036	-0.146
-492.537	-147.923	0.149	0.013
-491.522	50.131	-0.067	0.064
-490.508	800.000	0.105	-0.326
-489.493	-188.640	0.402	-0.005
-488.478	-200.000	0.024	-0.158
-487.464	57.091	-0.058	-0.057
-486.449	-118.650	0.145	-0.026
-485.435	-20.447	-0.231	0.144
-484.420	-200.000	0.002	-0.088
-483.405	-200.000	0.015	0.079
-482.391	800.000	0.033	0.103
-481.376	-26.044	0.236	-0.141
-480.362	106.565	-0.096	-0.116
-479.347	-143.670	0.032	-0.003
-478.332	75.047	0.230	0.245
-477.318	-200.000	-0.022	0.641
-476.303	-138.482	0.216	0.024
-475.289	-41.311	0.155	0.081
-474.274	773.945	0.089	-0.246
-473.259	184.517	-0.147	-0.220
-472.245	-122.452	0.048	0.008
-471.230	278.546	0.270	0.487
-470.216	-200.000	0.007	0.114
-469.201	-8.289	0.109	0.074
-468.186	-88.573	-0.205	0.062
-467.172	-200.000	0.011	-0.141
-466.157	-59.143	-0.235	0.103
-465.143	-80.322	-0.267	-0.090
-464.128	12.633	-0.048	0.038
-463.113	-123.716	0.154	0.025
-462.099	-5.132	-0.381	-0.266
-461.084	185.430	-0.013	0.019
-460.070	-92.695	-0.321	0.091
-459.055	29.705	-0.360	-0.310
-458.040	-38.736	-0.067	-0.036
-457.026	26.169	0.413	0.349
-456.011	520.659	-0.139	0.331
-454.997	800.000	-0.066	-0.279
-453.982	800.000	0.066	-0.218
-452.968	-52.821	0.104	0.049
-451.953	36.736	-0.240	-0.214
-450.938	-73.576	0.333	-0.123
-449.924	-11.056	0.083	0.055
-448.909	-136.176	0.100	0.012
-447.895	253.216	0.085	-0.146
-446.880	800.000	-0.042	0.167
-445.865	507.020	0.094	0.220
-444.851	-200.000	0.039	-0.304
-443.836	54.870	-0.153	-0.150
-442.822	-88.432	-0.283	0.085
-441.807	58.449	-0.144	-0.143
-440.792	-129.012	-0.297	0.042
-439.778	800.000	-0.019	-0.053
-438.763	-127.040	-0.133	0.020
-437.749	62.231	0.157	-0.159
-436.734	9.126	-0.098	0.075
-435.719	800.000	-0.082	-0.261
-434.705	30.832	-0.121	-0.105
-433.690	800.000	0.045	-0.179
-432.676	-44.424	-0.311	0.157
-431.661	-37.138	-0.051	0.027
-430.646	179.882	0.054	-0.081
-429.632	-0.690	-0.108	0.077
-428.617	-200.000	-0.048	-0.243
-427.603	44.802	0.299	0.278
-426.588	-132.164	0.156	-0.020
-425.573	16.331	-0.358	0.285
-424.559	339.747	-0.102	0.202
-423.544	-169.506	-0.377	0.014
-422.530	-200.000	-0.001	-0.050
-421.515	-159.823	-0.158	-0.009
-420.500	-8.552	0.119	0.081
-419.486	-6.022	-0.192	0.133
-418.471	183.681	-0.139	0.207
-417.457	-200.000	-0.018	0.259
-416.442	96.714	0.193	-0.223
-415.428	-200.000	0.046	0.291
-414.413	48.811	-0.093	0.088
-413.398	-200.000	0.004	-0.154
-412.384	-78.453	0.386	0.134
-411.369	-123.201	0.174	-0.028
-410.355	66.269	-0.065	-0.066
-409.340	74.705	0.155	-0.165
-408.325	49.231	-0.208	-0.198
-407.311	12.113	-0.123	-0.095
-406.296	-144.075	0.038	0.004
-405.282	-61.197	-0.256	-0.109
-404.267	-170.538	0.089	0.003
-403.252	-128.691	0.231	0.033
-402.238	-27.183	-0.264	0.156
-401.223	169.463	0.018	-0.026
-400.209	800.000	-0.025	0.089
-399.194	9.172	0.148	0.113
-398.179	-200.000	-0.065	-0.320
-397.165	-166.469	-0.463	0.020
-396.150	-200.000	-0.004	0.337
-395.136	-150.696	-0.407	0.031
-394.121	-128.145	-0.188	-0.027
-393.106	-25.659	0.229	0.136
-392.092	-44.845	0.130	0.065
-391.077	800.000	-0.057	-0.238
-390.063	-200.000	-0.048	-0.378
-389.048	211.075	-0.112	0.178
-388.033	-48.366	0.156	-0.076
-387.019	-200.000	-0.004	0.076
-386.004	-45.036	-0.317	0.159
-384.990	-157.259	-0.117	-0.007
-383.975	218.414	-0.148	0.239
-382.960	-111.053	-0.103	0.021
-381.946	358.655	-0.111	0.224
-380.931	377.008	-0.110	-0.226
-379.917	-35.626	0.111	0.061
-378.902	-200.000	0.035	0.213
-377.888	-200.000	0.018	-0.087
-376.873	-92.817	-0.194	-0.055
-375.858	-170.614	0.255	0.009
-374.844	-53.993	0.281	-0.129
-373.829	21.633	-0.178	0.146
-372.815	-111.718	-0.104	-0.021
-371.800	-143.419	0.089	0.009
-370.785	0.367	-0.254	-0.183
-369.771	-93.008	-0.234	0.066
-368.756	-101.314	0.365	-0.090
-367.742	800.000	0.121	0.371
-366.727	-161.349	0.221	0.012
-365.712	-200.000	-0.083	0.536
-364.698	-90.803	-0.020	0.006
-363.683	-60.545	0.328	-0.141
-362.669	39.687	0.040	0.036
-361.654	-74.107	-0.041	-0.015
-360.639	-25.991	0.193	0.114
-359.625	-79.103	-0.318	0.109
-358.610	-200.000	-0.023	-0.208
-357.596	-49.784	0.041	-0.020
-356.581	237.279	0.155	-0.258
-355.566	31.362	0.237	0.205
-354.552	720.030	0.007	-0.018
-353.537	-9.402	0.335	-0.225
-352.523	-200.000	-0.036	-0.212
-351.508	-101.934	-0.012	0.003
-350.493	145.260	0.065	0.088
-349.479	800.000	0.053	-0.154
-348.464	-82.456	-0.343	0.112
-347.450	-153.069	-0.168	0.012
-346.435	35.354	0.044	-0.039
-345.420	-200.000	-0.023	0.124
-344.406	-168.001	0.176	0.007
-343.391	-200.000	-0.010	0.123
-342.377	-200.000	0.037	0.271
-341.362	38.169	0.009	0.008
-340.348	-200.000	-0.052	-0.292
-339.333	111.569	-0.062	-0.076
-338.318	-67.837	-0.341	0.134
-337.304	-200.000	-0.029	-0.152
-336.289	48.932	0.084	0.079
-335.275	800.000	-0.077	0.254
-334.260	-36.420	0.415	0.225
-333.245	-200.000	-0.026	0.146
-332.231	235.658	-0.080	-0.133
-331.216	-200.000	0.034	-0.378
-330.202	94.611	0.163	-0.186
-329.187	72.072	-0.060	-0.062
-328.172	-38.490	-0.246	-0.131
-327.158	13.238	0.290	-0.226
-326.143	-131.755	-0.327	0.043
-325.129	207.621	0.145	0.227
-324.114	-4.074	-0.128	0.089
-323.099	-200.000	0.094	-0.472
-322.085	-39.262	0.194	-0.103
-321.070	-200.000	0.018	0.367
-320.056	402.999	0.221	-0.469
-319.041	-149.605	0.424	-0.034
-318.026	800.000	0.055	0.212
-317.012	-200.000	-0.023	0.372
-315.997	-35.260	0.191	0.105
-314.983	-158.670	-0.085	0.005
-313.968	-5.767	-0.110	-0.076
-312.953	67.183	-0.111	0.114
-311.939	-42.690	0.229	0.117
-310.924	-200.000	0.013	-0.126
-309.910	466.291	0.088	0.199
-308.895	-178.528	-0.377	0.009
-307.880	-159.237	0.336	-0.019
-306.866	-66.401	-0.181	-0.073
-305.851	6.720	-0.172	0.128
-304.837	800.000	0.114	-0.490
-303.822	376.796	0.036	-0.074
-302.807	-51.532	-0.204	0.096
-301.793	800.000	-0.074	-0.284
-300.778	321.708	-0.102	0.195
-299.764	119.464	-0.143	-0.177
-298.749	-17.421	0.243	-0.154
-297.735	-31.276	0.154	0.087
-296.720	268.519	0.115	-0.202
-295.705	800.000	0.057	-0.230
-294.691	-81.785	-0.077	-0.025
-293.676	88.933	0.085	0.095
-292.662	-102.498	-0.138	0.033
-291.647	-6.627	0.078	0.054
-290.632	-200.000	-0.002	0.163
-289.618	800.000	0.068	0.229
-288.603	26.559	0.060	0.051
-287.589	228.855	0.121	0.199
-286.574	-200.000	0.010	0.207
-285.559	-200.000	-0.004	0.090
-284.545	800.000	-0.052	0.162
-283.530	-79.115	0.423	0.144
-282.516	-27.309	0.146	-0.085
-281.501	253.333	0.140	0.241
-280.486	-24.628	-0.107	-0.064
-279.472	-17.290	0.122	-0.077
-278.457	84.049	0.078	0.086
-277.443	2.085	-0.140	0.102
-276.428	81.800	0.152	-0.166
-275.413	157.452	0.069	0.096
-274.399	199.483	-0.217	0.334
-273.384	-200.000	0.006	0.084
-272.370	-71.900	0.198	0.074
-271.355	-200.000	0.028	-0.399
-270.340	-86.166	-0.270	0.084
-269.326	5.386	-0.135	-0.100
-268.311	-200.000	-0.006	-0.158
-267.297	-24.476	-0.066	0.040
-266.282	0.918	-0.060	0.043
-265.267	-200.000	0.022	-0.113
-264.253	-173.866	0.285	0.008
-263.238	-142.000	0.237	-0.024
-262.224	117.025	0.070	0.087
-261.209	267.440	-0.127	0.224
-260.195	27.138	0.158	-0.134
-259.180	-200.000	0.006	0.169
-258.165	-200.000	0.055	0.269
-257.151	-131.254	-0.182	-0.024
-256.136	-162.839	-0.140	0.007
-255.122	800.000	0.058	0.197
-254.107	235.767	0.092	-0.153
-253.092	-27.244	0.137	0.080
-252.078	635.788	-0.118	0.302
-251.063	800.000	0.061	0.214
-250.049	126.265	0.172	-0.218
-249.034	-200.000	0.016	-0.115
-248.019	-10.819	-0.120	0.080
-247.005	-200.000	0.041	0.275
-245.990	529.834	-0.037	-0.087
-244.976	-116.558	0.100	-0.018
-243.961	800.000	-0.009	0.032
-242.946	800.000	-0.063	0.182
-241.932	93.002	-0.096	0.109
-240.917	143.667	0.035	-0.047
-239.903	590.413	0.037	-0.092
-238.888	106.106	-0.165	-0.196
-237.873	-99.930	0.235	0.059
-236.859	145.071	-0.230	0.309
-235.844	-32.674	-0.340	-0.190
-234.830	800.000	-0.103	0.392
-233.815	-13.116	-0.191	-0.125
-232.800	-200.000	-0.046	0.211
-231.786	-200.000	-0.016	-0.351
-230.771	800.000	0.056	-0.191
-229.757	-116.660	0.313	-0.058
-228.742	87.921	-0.128	-0.142
-227.727	-200.000	-0.005	0.096
-226.713	247.512	-0.035	-0.060
-225.698	278.269	-0.076	-0.136
-224.684	-200.000	0.063	0.368
-223.669	20.570	0.133	0.108
-222.655	-200.000	-0.025	0.220
-221.640	204.507	0.140	-0.218
-220.625	45.834	0.110	0.102
-219.611	353.162	-0.144	-0.286
-218.596	99.988	0.383	-0.445
-217.582	-200.000	0.000	0.211
-216.567	-200.000	-0.010	-0.119
-215.552	467.737	0.222	-0.498
-214.538	-112.738	-0.091	0.018
-213.523	-52.087	0.205	-0.096
-212.509	800.000	-0.079	-0.246
-211.494	-98.206	-0.158	-0.041
-210.479	-200.000	-0.016	-0.161
-209.465	421.675	0.165	-0.355
-208.450	107.128	-0.173	0.206
-207.436	168.115	0.104	0.148
-206.421	-200.000	0.029	0.239
-205.406	800.000	0.075	-0.277
-204.392	40.130	0.118	0.106
-203.377	-200.000	0.063	0.359
-202.363	618.750	-0.039	0.098
-201.348	334.907	0.065	0.127
-200.333	621.271	0.053	-0.134
-199.319	241.200	0.020	-0.033
-198.304	2.608	-0.232	-0.168
-197.290	523.354	-0.158	0.373
-196.275	53.241	-0.123	-0.118
-195.260	552.196	0.026	-0.062
-194.246	800.000	0.032	0.129
-193.231	800.000	-0.041	0.158
-192.217	-1.890	-0.234	0.165
-191.202	-19.783	-0.264	-0.163
-190.187	21.755	0.324	0.265
-189.173	161.358	-0.163	0.229
-188.158	-200.000	0.010	-0.435
-187.144	-120.453	0.021	-0.004
-186.129	52.830	-0.058	0.056
-185.114	-68.179	0.155	-0.061
-184.100	589.266	0.006	0.016
-183.085	-200.000	-0.085	0.409
-182.071	37.305	0.298	0.265
-181.056	-200.000	-0.005	-0.116
-180.042	-27.983	0.156	-0.091
-179.027	53.229	0.176	-0.169
-178.012	-200.000	-0.030	0.229
-176.998	-79.388	0.501	0.170
-175.983	426.496	-0.198	0.427
-174.969	-102.695	-0.180	0.043
-173.954	374.977	0.052	0.106
-172.939	800.000	0.032	0.092
-171.925	-53.603	-0.218	0.100
-170.910	-200.000	-0.016	0.173
-169.896	-62.729	0.410	0.170
-168.881	-6.169	-0.142	-0.097
-167.866	-127.016	-0.122	-0.018
-166.852	91.417	-0.057	-0.064
-165.837	179.450	0.080	-0.117
-164.823	-200.000	0.075	0.383
-163.808	-200.000	0.035	0.180
-162.793	685.374	-0.058	0.153
-161.779	65.174	-0.281	0.284
-160.764	9.888	0.199	0.151
-159.750	-22.360	0.087	0.053
-158.735	-114.466	0.209	0.040
-157.720	800.000	-0.100	-0.305
-156.706	-157.034	-0.304	0.019
-155.691	-118.342	0.019	-0.003
-154.677	573.436	-0.067	-0.162
-153.662	-182.049	0.289	0.005
-152.647	791.535	-0.050	-0.138
-151.633	-200.000	-0.086	-0.464
-150.618	-200.000	-0.009	0.242
-149.604	800.000	0.048	-0.198
-148.589	-11.830	0.215	-0.141
-147.574	105.585	-0.161	-0.191
-146.560	-200.000	-0.028	0.181
-145.545	-200.000	0.043	-0.189
-144.531	329.177	-0.105	0.201
-143.516	318.115	-0.123	0.233
-142.502	-200.000	0.001	0.021
-141.487	16.286	0.121	0.095
-140.472	800.000	-0.030	0.094
-139.458	-109.195	0.256	-0.054
-138.443	-18.858	-0.264	0.164
-137.429	-200.000	-0.018	0.129
-136.414	71.209	0.100	0.104
-135.399	-38.113	-0.147	-0.078
-134.385	-102.036	-0.390	-0.094
-133.370	235.594	0.167	-0.276
-132.356	800.000	0.034	0.101
-131.341	553.346	-0.126	-0.302
-130.326	-200.000	0.029	-0.171
-129.312	-30.415	0.230	-0.130
-128.297	-43.446	-0.222	-0.112
-127.283	84.259	0.057	-0.063
-126.268	436.551	-0.181	0.393
-125.253	240.409	-0.202	-0.337
-124.239	135.042	0.077	-0.100
-123.224	-25.939	-0.078	0.046
-122.210	800.000	0.060	0.244
-121.195	-40.227	-0.152	-0.079
-120.180	-15.360	0.113	0.072
-119.166	-30.730	-0.136	0.077
-118.151	294.811	0.116	0.212
-117.137	800.000	0.082	0.289
-116.122	-36.401	-0.030	-0.016
-115.107	-200.000	0.024	0.206
-114.093	448.866	-0.063	-0.138
-113.078	-91.837	-0.146	-0.041
-112.064	91.312	0.134	0.150
-111.049	612.796	-0.062	0.154
-110.034	-200.000	-0.003	0.016
-109.020	-200.000	-0.029	0.272
-108.005	98.795	0.202	0.233
-106.991	-119.704	-0.383	0.066
-105.976	-23.165	-0.348	0.209
-104.962	582.473	-0.045	0.111
-103.947	-147.002	-0.159	-0.014
-102.932	-200.000	-0.004	-0.287
-101.918	54.620	0.053	0.051
-100.903	-79.939	0.078	-0.026
-99.889	800.000	0.014	-0.041
-98.874	71.896	0.163	-0.169
-97.859	-48.040	-0.231	-0.111
-96.845	28.519	-0.255	-0.215
-95.830	800.000	-0.039	-0.124
-94.816	3.768	0.106	0.077
-93.801	-77.209	-0.285	-0.099
-92.786	177.578	0.076	-0.110
-91.772	145.740	-0.182	0.243
-90.757	-73.185	-0.270	0.099
-89.743	800.000	0.030	-0.124
-88.728	-200.000	-0.069	-0.317
-87.713	-90.754	-0.474	-0.136
-86.699	-200.000	0.039	-0.188
-85.684	453.361	-0.154	-0.341
-84.670	79.604	-0.030	0.032
-83.655	-200.000	-0.019	-0.197
-82.640	-29.389	-0.333	0.190
-81.626	-148.257	-0.237	0.019
-80.611	-25.904	0.071	0.042
-79.597	-186.409	0.260	0.004
-78.582	230.138	0.105	-0.172
-77.567	-74.884	-0.185	-0.066
-76.553	295.245	0.191	-0.349
-75.538	-200.000	-0.011	0.146
-74.524	-113.120	-0.235	0.046
-73.509	800.000	-0.024	0.103
-72.494	331.238	0.204	0.392
-71.480	-200.000	0.022	-0.264
-70.465	769.968	0.074	0.201
-69.451	800.000	0.092	0.299
-68.436	-111.192	0.322	-0.066
-67.422	-97.593	0.164	-0.042
-66.407	-80.276	-0.358	-0.119
-65.392	123.321	0.040	0.050
-64.378	-200.000	0.013	-0.121
-63.363	-4.358	-0.048	0.033
-62.349	-200.000	-0.053	-0.401
-61.334	800.000	-0.403	-1.147
-60.319	31.082	0.308	0.263
-59.305	800.000	-0.176	-0.633
-58.290	196.169	0.481	0.730
-57.276	800.000	0.425	1.279
-56.261	-200.000	76.051	508.584
-55.246	511.448	1337.277	3101.562
-54.232	144.432	2573.435	3423.303
-53.217	116.522	2236.863	2732.690
-52.203	52.380	1679.925	1596.807
-51.188	44.251	1403.232	1282.691
-50.173	40.745	1357.270	1219.151
-49.159	59.012	1392.456	1364.306
-48.144	65.539	1411.027	1422.823
-47.130	44.773	1373.929	1258.929
-46.115	40.664	1357.161	1218.362
-45.100	40.514	1352.532	1213.240
-44.086	40.424	1350.014	1210.380
-43.071	40.410	1347.656	1208.135
-42.057	40.426	1345.363	1206.130
-41.042	40.373	1343.582	1204.161
-40.027	40.547	1341.884	1203.650
-39.013	40.450	1340.392	1201.674
-37.998	40.485	1338.604	1200.234
-36.984	40.630	1336.631	1199.298
-35.969	40.592	1334.779	1197.355
-34.954	40.665	1332.871	1196.036
-33.940	40.726	1331.351	1194.996
-32.925	40.736	1330.180	1193.957
-31.911	40.793	1328.734	1192.954
-30.896	40.761	1327.214	1191.351
-29.881	40.737	1325.868	1189.947
-28.867	40.731	1324.418	1188.565
-27.852	40.650	1323.071	1186.827
-26.838	40.740	1321.601	1185.998
-25.823	40.672	1320.330	1184.403
-24.809	40.698	1319.001	1183.321
-23.794	40.613	1317.435	1181.362
-22.779	40.768	1315.843	1180.809
-21.765	40.708	1314.534	1179.228
-20.750	40.615	1313.350	1177.572
-19.736	40.520	1312.194	1175.921
-18.721	40.525	1310.786	1174.644
-17.706	40.547	1309.800	1173.845
-16.692	40.578	1308.577	1172.885
-15.677	40.599	1307.402	1171.906
-14.663	40.583	1306.219	1170.707
-13.648	40.575	1304.928	1169.459
-12.633	40.534	1304.210	1168.524
-11.619	40.466	1303.248	1167.215
-10.604	40.634	1302.160	1167.182
-9.590	40.595	1301.209	1166.054
-8.575	40.529	1300.080	1164.610
-7.560	40.554	1299.128	1163.858
-6.546	40.492	1298.586	1162.960
-5.531	40.464	1297.757	1162.012
-4.517	40.574	1296.578	1161.555
-3.502	40.487	1296.124	1160.593
-2.487	40.489	1295.265	1159.787
-1.473	40.591	1290.803	1156.342
-0.458	39.544	1275.606	1136.643
0.556	35.525	1254.786	1091.660
1.571	31.111	1257.537	1068.741
2.586	29.764	1272.395	1073.457
3.600	28.222	1261.332	1055.151
4.615	20.444	1183.933	948.044
5.629	8.251	1099.844	818.444
6.644	2.577	1075.551	771.776
7.659	2.001	1073.245	767.159
8.673	1.843	1071.526	765.069
9.688	1.791	1069.992	763.644
10.702	2.188	1068.997	764.851
11.717	9.096	1079.731	807.302
12.731	20.345	1095.503	876.113
13.746	25.202	1101.288	905.237
14.761	25.401	1101.309	906.177
15.775	25.527	1100.642	906.185
16.790	25.283	1099.619	904.033
17.804	25.214	1099.057	903.145
18.819	25.215	1099.139	903.135
19.834	25.362	1098.429	903.214
20.848	25.374	1098.403	903.170
21.863	25.377	1097.540	902.396
22.877	25.302	1096.732	901.277
23.892	25.293	1096.036	900.580
24.907	25.193	1095.631	899.666
25.921	25.426	1093.971	899.388
26.936	25.234	1092.831	897.413
27.950	25.203	1091.170	895.816
28.965	25.035	1089.624	893.629
29.980	25.161	1087.795	892.677
30.994	25.435	1086.838	893.174
32.009	25.333	1085.629	891.592
33.023	25.218	1084.618	890.115
34.038	25.188	1084.136	889.494
35.053	25.277	1083.572	889.391
36.067	25.313	1082.985	889.009
37.082	25.327	1082.164	888.327
38.096	25.588	1081.336	888.856
39.111	25.639	1080.620	888.442
40.126	25.501	1078.997	886.351
41.140	25.013	1077.378	882.538
42.155	24.946	1075.741	880.789
43.169	24.956	1074.998	880.155
44.184	24.995	1073.951	879.410
45.199	24.893	1072.883	877.956
46.213	25.015	1071.780	877.576
47.228	24.925	1072.097	877.315
48.242	25.338	1070.476	877.932
49.257	25.222	1069.742	876.684
50.271	25.354	1069.309	876.894
51.286	25.452	1068.307	876.475
52.301	25.312	1067.567	875.107
53.315	25.317	1066.407	874.104
54.330	25.258	1065.795	873.237
55.344	25.214	1064.985	872.281
56.359	25.164	1064.296	871.398
57.374	25.014	1063.114	869.626
58.388	25.004	1062.391	868.909
59.403	24.839	1061.696	867.466
60.417	24.950	1060.214	866.712
61.432	24.939	1060.158	866.540
62.447	24.999	1059.206	865.971
63.461	25.161	1058.598	866.182
64.476	25.004	1057.557	864.493
65.490	24.928	1056.490	863.178
66.505	25.004	1056.300	863.316
67.520	25.053	1055.452	862.781
68.534	24.883	1054.122	860.798
69.549	24.605	1053.186	858.623
70.563	24.507	1052.753	857.725
71.578	24.471	1051.541	856.488
72.593	24.371	1050.768	855.302
73.607	24.430	1050.097	854.962
74.622	24.748	1049.644	856.041
75.636	24.896	1049.004	856.153
76.651	24.808	1048.187	854.990
77.666	24.650	1046.866	853.083
78.680	24.820	1046.467	853.491
79.695	24.686	1046.343	852.679
80.709	24.751	1045.836	852.499
81.724	24.903	1044.670	852.198
82.739	25.029	1043.610	851.854
83.753	25.289	1043.473	852.903
84.768	25.560	1043.157	853.856
85.782	25.722	1042.165	853.737
86.797	25.670	1040.725	852.235
87.812	25.393	1039.928	850.198
88.826	25.548	1039.104	850.183
89.841	25.561	1038.430	849.615
90.855	25.608	1037.080	848.658
91.870	25.544	1036.337	847.673
92.884	25.289	1035.465	845.683
93.899	25.400	1033.792	844.764
94.914	25.625	1032.889	845.008
95.928	25.447	1032.013	843.380
96.943	24.974	1031.386	840.579
97.957	24.870	1030.089	838.956
98.972	24.690	1028.830	837.016
99.987	24.945	1028.274	837.682
101.001	25.209	1027.543	838.244
102.016	25.148	1026.636	837.147
103.030	25.063	1025.863	836.045
104.045	25.029	1024.201	834.458
105.060	24.860	1023.515	833.040
106.074	25.097	1022.905	833.571
107.089	25.217	1022.238	833.511
108.103	25.324	1021.245	833.125
109.118	25.008	1020.068	830.626
110.133	25.098	1019.162	830.230
111.147	24.911	1017.846	828.222
112.162	24.786	1016.922	826.819
113.176	25.029	1016.243	827.317
114.191	24.775	1015.591	825.540
115.206	24.516	1014.271	823.198
116.220	24.566	1013.380	822.634
117.235	24.735	1012.710	822.795
118.249	24.797	1011.774	822.245
119.264	24.612	1011.040	820.726
120.279	24.581	1010.538	820.104
121.293	24.708	1009.847	820.057
122.308	24.752	1008.912	819.426
123.322	24.805	1007.242	818.239
124.337	24.549	1006.031	816.011
125.352	24.120	1004.608	812.830
126.366	23.936	1003.838	811.296
127.381	24.768	1004.042	815.182
128.395	25.040	1003.658	816.037
129.410	25.208	1002.167	815.515
130.424	25.269	1001.278	814.998
131.439	25.257	1000.806	814.487
132.454	25.211	999.533	813.171
133.468	25.257	998.746	812.664
134.483	25.320	997.976	812.251
135.497	25.551	997.420	812.773
136.512	25.389	996.977	811.608
137.527	25.608	995.630	811.428
138.541	25.594	995.000	810.779
139.556	25.463	994.404	809.634
140.570	25.581	993.618	809.450
141.585	25.654	992.119	808.488
142.600	25.587	991.370	807.502
143.614	25.764	991.045	807.961
144.629	25.719	990.260	807.050
145.643	25.673	988.734	805.526
146.658	25.562	987.103	803.631
147.673	25.481	986.466	802.680
148.687	25.256	985.409	800.745
149.702	25.291	984.105	799.770
150.716	25.245	983.429	798.945
151.731	25.412	982.655	798.988
152.746	25.641	982.074	799.463
153.760	25.748	981.633	799.508
154.775	25.750	980.968	798.905
155.789	25.703	980.152	797.964
156.804	25.626	979.192	796.771
157.819	25.605	978.356	795.925
158.833	25.720	977.945	796.027
159.848	25.799	976.794	795.370
160.862	25.695	975.343	793.660
161.877	25.642	974.553	792.712
162.892	25.771	973.180	792.096
163.906	25.667	972.465	790.985
164.921	25.569	971.661	789.829
165.935	25.754	970.595	789.704
166.950	25.703	969.896	788.846
167.964	25.713	968.874	787.985
168.979	25.573	967.850	786.474
169.994	25.546	966.975	785.572
171.008	25.621	966.777	785.672
172.023	25.753	965.888	785.456
173.037	25.414	964.901	783.105
174.052	25.331	963.489	781.530
175.067	25.208	963.713	781.106
176.081	25.536	962.997	781.882
177.096	25.359	962.313	780.488
178.110	25.135	960.776	778.200
179.125	24.896	960.149	776.587
180.140	25.012	960.081	776.967
181.154	25.270	959.676	777.687
182.169	25.488	959.549	778.462
183.183	25.631	959.174	778.705
184.198	25.536	958.117	777.368
185.213	25.481	957.463	776.534
186.227	25.595	956.784	776.405
187.242	25.684	955.435	775.623
188.256	25.865	955.112	776.076
189.271	25.712	954.338	774.717
190.286	25.464	953.135	772.606
191.300	24.816	952.156	768.961
192.315	23.976	950.191	763.701
193.329	23.882	949.708	762.841
194.344	24.836	950.358	767.390
195.359	25.381	950.013	769.378
196.373	25.634	949.524	770.001
197.388	25.574	948.864	769.137
198.402	25.479	948.652	768.491
199.417	25.639	947.371	768.070
200.432	25.326	946.974	766.344
201.446	25.104	946.243	764.736
202.461	25.184	945.577	764.472
203.475	24.260	944.045	759.234
204.490	23.523	942.322	754.649
205.504	24.579	942.749	759.413
206.519	25.047	942.664	761.268
207.534	25.289	942.112	761.780
208.548	25.703	941.968	763.355
209.563	25.339	941.206	761.125
210.577	25.336	940.133	760.178
211.592	25.752	940.021	761.780
212.607	25.785	939.283	761.254
213.621	25.623	938.816	760.123
214.636	25.720	937.804	759.646
215.650	25.549	937.056	758.254
216.665	25.708	936.867	758.705
217.680	25.715	936.072	758.020
218.694	25.255	934.877	755.050
219.709	25.124	934.131	753.832
220.723	25.395	934.143	754.914
221.738	25.492	933.204	754.496
222.753	25.570	932.462	754.157
223.767	25.631	932.011	753.980
224.782	25.741	932.064	754.416
225.796	25.796	931.044	753.756
226.811	25.312	929.691	750.570
227.826	24.523	928.192	745.997
228.840	24.773	927.905	746.746
229.855	24.742	927.199	745.981
230.869	24.332	926.739	743.837
231.884	24.787	926.494	745.472
232.899	25.594	926.579	748.836
233.913	25.499	925.491	747.492
234.928	25.452	925.054	746.880
235.942	25.434	924.168	746.025
236.957	24.966	923.546	743.512
237.972	25.091	923.028	743.550
238.986	25.113	922.722	743.328
240.001	25.221	921.626	742.825
241.015	25.372	921.285	743.111
242.030	25.486	920.892	743.198
243.045	25.621	920.583	743.441
244.059	25.683	919.791	742.991
245.074	25.643	918.856	742.008
246.088	25.247	917.970	739.592
247.103	25.603	917.391	740.526
248.117	25.818	918.411	742.170
249.132	26.190	917.856	743.187
250.147	26.419	917.015	743.384
251.161	26.553	916.714	743.623
252.176	26.457	915.835	742.451
253.190	26.426	915.611	742.075
254.205	26.545	915.274	742.227
255.220	26.651	914.103	741.646
256.234	26.443	913.479	740.223
257.249	26.338	912.587	739.004
258.263	26.416	912.274	739.002
259.278	26.444	911.384	738.331
260.293	26.538	911.035	738.368
261.307	26.253	910.564	736.759
262.322	26.169	909.869	735.786
263.336	25.495	907.570	731.124
264.351	24.482	905.351	725.159
265.366	24.639	905.160	725.578
266.380	25.630	906.127	730.314
267.395	26.118	905.644	731.839
268.409	25.819	905.133	730.150
269.424	26.265	904.404	731.304
270.439	26.208	903.921	730.619
271.453	26.372	903.290	730.705
272.468	26.401	902.969	730.500
273.482	26.510	902.275	730.311
274.497	26.077	901.446	727.832
275.512	25.765	900.071	725.399
276.526	26.153	900.471	727.220
277.541	26.355	900.209	727.758
278.555	26.125	899.096	725.868
279.570	25.958	898.305	724.496
280.585	26.078	897.969	724.643
281.599	26.130	897.005	724.010
282.614	25.454	895.603	720.105
283.628	25.372	895.325	719.489
284.643	25.871	895.340	721.437
285.657	25.550	893.942	718.962
286.672	25.224	892.978	716.822
287.687	25.683	893.013	718.620
288.701	25.744	892.594	718.464
289.716	25.459	891.657	716.510
290.730	25.322	891.029	715.393
291.745	25.281	889.882	714.248
292.760	25.394	890.051	714.770
293.774	26.452	890.537	719.306
294.789	26.793	890.085	720.234
295.803	26.803	889.310	719.583
296.818	26.799	888.645	718.963
297.833	26.353	887.574	716.267
298.847	26.112	886.916	714.717
299.862	26.577	886.655	716.283
300.876	26.819	886.336	716.921
301.891	26.721	885.403	715.715
302.906	26.256	884.420	713.024
303.920	26.415	884.223	713.429
304.935	26.955	883.833	715.180
305.949	26.849	883.427	714.369
306.964	26.426	882.980	712.280
307.979	26.490	882.131	711.783
308.993	26.859	881.910	712.991
310.008	26.875	881.475	712.640
311.022	26.554	880.511	710.539
312.037	26.599	879.604	709.920
313.052	26.167	879.323	707.939
314.066	25.349	877.651	703.324
315.081	25.135	876.568	701.560
316.095	25.806	876.976	704.447
317.110	26.418	877.159	706.925
318.125	25.572	875.600	702.305
319.139	24.549	873.697	696.728
320.154	24.551	873.636	696.627
321.168	25.465	873.825	700.277
322.183	26.172	873.843	702.985
323.197	26.257	873.541	703.010
324.212	26.428	873.350	703.459
325.227	26.509	872.875	703.330
326.241	26.469	871.790	702.238
327.256	26.299	871.226	701.062
328.270	26.254	870.626	700.343
329.285	25.858	869.821	698.099
330.300	25.725	868.718	696.637
331.314	26.100	868.631	697.956
332.329	26.531	868.645	699.574
333.343	26.684	868.176	699.723
334.358	26.606	867.986	699.205
335.373	26.742	867.458	699.245
336.387	26.949	867.805	700.261
337.402	27.082	867.255	700.270
338.416	26.996	866.839	699.540
339.431	27.099	866.667	699.734
340.446	27.376	866.016	700.212
341.460	27.103	865.830	698.952
342.475	27.036	865.160	698.090
343.489	26.998	864.726	697.533
344.504	27.264	864.747	698.508
345.519	27.494	864.097	698.805
346.533	27.475	863.584	698.256
347.548	27.416	863.363	697.788
348.562	27.375	862.546	696.911
349.577	27.418	861.662	696.299
350.592	27.334	861.016	695.394
351.606	27.341	860.595	695.018
352.621	27.136	859.741	693.485
353.635	27.134	858.921	692.757
354.650	26.547	857.126	689.014
355.665	25.510	855.634	683.809
356.679	25.983	855.491	685.434
357.694	26.483	855.249	687.079
358.708	26.297	854.832	685.975
359.723	26.674	854.787	687.309
360.738	27.016	854.301	688.154
361.752	27.054	853.991	687.988
362.767	27.459	853.431	689.010
363.781	27.643	853.495	689.696
364.796	27.794	852.850	689.685
365.810	27.749	852.404	689.092
366.825	27.851	851.579	688.752
367.840	27.527	851.181	687.147
368.854	27.151	850.298	684.956
369.869	27.065	849.722	684.106
370.883	27.234	849.039	684.132
371.898	27.215	848.646	683.682
372.913	27.158	848.545	683.327
373.927	27.341	848.208	683.682
374.942	27.515	847.741	683.900
375.956	27.473	847.524	683.504
376.971	27.647	846.714	683.445
377.986	27.774	846.753	683.891
379.000	27.889	845.636	683.358
380.015	27.740	844.896	682.145
381.029	27.595	844.666	681.354
382.044	27.857	844.228	681.921
383.059	27.722	843.813	681.019
384.073	27.910	843.163	681.136
385.088	27.834	842.189	680.007
386.102	27.553	841.392	678.259
387.117	27.600	840.861	677.944
388.132	27.079	839.959	675.220
389.146	26.611	839.075	672.714
390.161	26.845	839.299	673.701
391.175	27.447	838.726	675.414
392.190	27.273	837.429	673.667
393.205	25.829	835.239	666.508
394.219	24.290	833.620	659.469
395.234	24.243	833.153	658.870
396.248	25.686	835.007	665.616
397.263	27.305	836.049	672.377
398.278	27.208	835.388	671.429
399.292	27.044	834.908	670.378
400.307	26.960	834.472	669.659
401.321	27.027	834.093	669.543
402.336	27.591	833.645	671.200
403.350	27.894	834.066	672.596
404.365	28.128	833.477	672.924
405.380	28.498	833.348	674.119
406.394	28.575	832.508	673.663
407.409	28.391	832.150	672.640
408.423	28.356	831.692	672.082
409.438	28.645	831.276	672.745
410.453	28.522	831.132	672.119
411.467	28.459	830.393	671.228
412.482	28.530	830.156	671.241
413.496	28.423	830.172	670.801
414.511	28.390	829.404	670.002
415.526	28.447	828.735	669.608
416.540	28.184	828.356	668.283
417.555	28.044	827.509	667.029
418.569	28.184	826.994	667.067
419.584	28.285	826.332	666.840
420.599	27.902	825.774	664.936
421.613	94.925	1265.195	1375.268
422.628	81.957	1329.242	1375.352
