DTS Sentinel unit serial number:	SN413079Multiplexer serial number:	ORYXHardware model number:	OX4-SRSoftware version number:	ORYX F/W v4.00 Oryx Data Collector v3.7.2.0data status	okinstallation	princeton_trtdifferential loss correction	single-endedforward channel	channel 1reverse channel	N/Adate	2019/09/18time	04:30:35forward acquisition time	60.00reverse acquisition time	0.00gamma	496.2192k internal	0.2339k external	0.2339temperature offset calibration	0.9980default loss term (dB/km)	0.3790temperature slope calibration	1.0000multiplexer offset coefficient	1.0000multiplexer slope coefficient	1.0000fibre end	0.00T internal ref (°C)	23.41T ext. ref 1 (°C)	0.19T ext. ref 2 (°C)	17.58length (m)	temperature (°C)	Stokes	anti-Stokes-747.200	-72.833	0.055	0.020
-746.185	374.822	0.190	0.389
-745.171	398.589	0.189	0.397
-744.156	72.822	-0.322	0.337
-743.142	-114.769	0.293	0.056
-742.127	366.556	0.141	0.286
-741.112	718.644	0.067	-0.178
-740.098	16.349	-0.140	-0.111
-739.083	-116.631	-0.261	0.048
-738.069	27.942	0.078	-0.066
-737.054	-109.499	0.211	-0.045
-736.039	-77.818	-0.145	-0.050
-735.025	277.754	0.133	0.237
-734.010	542.415	-0.107	-0.255
-732.996	-200.000	-0.055	-0.427
-731.981	263.263	0.221	-0.385
-730.966	134.968	-0.118	0.154
-729.952	-88.905	0.294	-0.087
-728.937	-95.983	-0.190	0.051
-727.923	-121.291	-0.127	-0.021
-726.908	-55.358	0.090	-0.040
-725.894	-30.176	-0.133	0.076
-724.879	42.308	-0.108	0.099
-723.864	-37.586	0.341	-0.182
-722.850	780.915	0.068	0.186
-721.835	610.807	-0.154	-0.385
-720.821	-181.614	-0.203	-0.004
-719.806	-14.160	-0.244	0.158
-718.791	800.000	-0.074	0.209
-717.777	-14.684	-0.219	0.141
-716.762	-82.818	-0.348	0.113
-715.748	800.000	-0.081	-0.295
-714.733	-23.236	0.067	0.041
-713.718	800.000	0.050	-0.170
-712.704	-200.000	0.027	-0.233
-711.689	39.919	-0.171	-0.154
-710.675	-165.156	0.183	-0.008
-709.660	-200.000	-0.010	0.271
-708.645	800.000	-0.108	-0.323
-707.631	-112.859	0.400	-0.080
-706.616	96.820	0.191	-0.219
-705.602	-200.000	0.083	0.000
-704.587	53.610	-0.084	0.081
-703.572	-134.030	0.072	-0.009
-702.558	-111.554	0.134	-0.027
-701.543	-53.804	0.235	-0.107
-700.529	-112.996	-0.276	-0.055
-699.514	-200.000	-0.007	-0.417
-698.499	-96.585	0.509	-0.134
-697.485	-77.640	0.219	-0.076
-696.470	800.000	-0.078	0.340
-695.456	251.641	0.215	0.366
-694.441	-21.440	-0.077	0.047
-693.426	174.155	-0.119	0.172
-692.412	-36.326	0.340	-0.183
-691.397	178.315	0.234	-0.342
-690.383	-200.000	-0.004	-0.527
-689.368	-74.968	0.005	0.002
-688.354	12.951	-0.214	0.165
-687.339	-87.389	0.238	-0.072
-686.324	41.325	-0.199	0.180
-685.310	551.436	-0.024	-0.057
-684.295	170.738	0.099	-0.141
-683.281	-200.000	-0.041	0.204
-682.266	495.974	0.062	-0.144
-681.251	122.461	0.206	0.258
-680.237	91.358	0.102	-0.114
-679.222	-38.004	0.101	-0.054
-678.208	800.000	-0.038	0.153
-677.193	-20.313	-0.245	-0.151
-676.178	32.298	0.240	-0.207
-675.164	748.691	-0.209	-0.564
-674.149	-53.540	-0.190	0.087
-673.135	-200.000	-0.026	-0.163
-672.120	438.477	0.095	-0.208
-671.105	-147.488	-0.201	-0.017
-670.091	-15.686	-0.078	0.050
-669.076	112.560	-0.199	-0.240
-668.062	74.853	-0.196	0.207
-667.047	-200.000	0.030	-0.245
-666.032	-65.113	0.164	0.066
-665.018	800.000	-0.052	0.164
-664.003	800.000	-0.095	0.380
-662.989	-200.000	0.024	-0.190
-661.974	104.348	0.088	0.104
-660.959	-200.000	0.009	-0.233
-659.945	-21.985	0.192	0.116
-658.930	800.000	0.042	0.118
-657.916	356.218	0.065	0.129
-656.901	-90.938	0.082	-0.024
-655.886	-169.207	0.022	-0.001
-654.872	-136.660	-0.322	0.037
-653.857	294.059	-0.069	0.127
-652.843	-141.382	-0.046	0.005
-651.828	83.516	-0.201	-0.219
-650.814	686.820	0.052	-0.137
-649.799	-189.630	-0.136	-0.002
-648.784	188.155	0.107	0.160
-647.770	800.000	-0.085	0.306
-646.755	-48.307	0.220	0.106
-645.741	-156.285	-0.371	0.023
-644.726	-200.000	0.019	0.188
-643.711	187.184	0.125	0.186
-642.697	338.282	-0.135	-0.262
-641.682	688.404	-0.055	-0.143
-640.668	35.963	-0.184	-0.162
-639.653	-5.164	-0.178	-0.123
-638.638	117.163	-0.089	-0.109
-637.624	41.676	-0.156	-0.141
-636.609	-9.088	-0.061	0.041
-635.595	800.000	0.053	-0.147
-634.580	18.132	0.176	0.141
-633.565	629.972	0.211	-0.532
-632.551	173.949	-0.135	-0.195
-631.536	-69.116	0.096	0.037
-630.522	260.736	-0.113	0.195
-629.507	-52.122	-0.051	-0.024
-628.492	-99.283	0.131	-0.033
-627.478	-80.791	-0.170	-0.057
-626.463	-73.086	-0.180	0.066
-625.449	-200.000	-0.230	-0.001
-624.434	220.502	0.262	0.420
-623.419	7.256	-0.349	-0.260
-622.405	24.668	0.193	0.160
-621.390	-200.000	-0.011	-0.158
-620.376	-101.810	0.203	0.049
-619.361	-27.663	-0.214	0.124
-618.346	-200.000	0.026	-0.224
-617.332	-7.174	0.149	0.101
-616.317	-57.694	0.329	0.144
-615.303	-200.000	0.060	0.313
-614.288	-67.354	0.159	0.062
-613.273	-51.237	0.120	0.056
-612.259	-100.847	0.253	0.062
-611.244	-200.000	0.008	0.183
-610.230	-26.602	-0.249	0.145
-609.215	72.594	-0.142	0.148
-608.201	17.192	0.128	0.101
-607.186	-64.673	0.343	-0.139
-606.171	159.253	-0.187	0.259
-605.157	-177.478	-0.119	-0.003
-604.142	-77.693	-0.121	0.042
-603.128	-41.951	0.157	-0.080
-602.113	-37.453	-0.081	0.043
-601.098	197.702	-0.097	-0.148
-600.084	62.932	0.172	-0.172
-599.069	93.338	0.142	0.160
-598.055	-200.000	0.002	0.093
-597.040	-50.335	-0.218	-0.103
-596.025	-200.000	-0.033	-0.375
-595.011	800.000	-0.034	-0.127
-593.996	800.000	0.057	-0.221
-592.982	25.384	-0.115	0.095
-591.967	-112.904	0.110	-0.022
-590.952	-132.430	-0.211	-0.027
-589.938	-200.000	-0.007	-0.093
-588.923	-47.471	0.125	0.060
-587.909	-200.000	-0.022	-0.161
-586.894	369.249	-0.082	-0.166
-585.879	-78.243	-0.195	0.067
-584.865	-175.139	-0.346	0.010
-583.850	1.000	-0.101	-0.072
-582.836	-35.363	0.096	-0.052
-581.821	-200.000	-0.052	0.295
-580.806	657.721	-0.099	0.255
-579.792	-27.207	-0.178	0.103
-578.777	-93.451	-0.283	0.078
-577.763	-119.089	-0.171	0.030
-576.748	-200.000	0.005	-0.124
-575.733	-136.286	0.205	-0.024
-574.719	800.000	-0.040	-0.171
-573.704	-200.000	0.034	-0.344
-572.690	-200.000	-0.011	0.371
-571.675	-200.000	-0.034	-0.231
-570.661	-82.183	-0.189	-0.061
-569.646	34.912	-0.126	-0.110
-568.631	-89.757	0.353	-0.103
-567.617	55.087	-0.065	-0.063
-566.602	183.722	0.197	-0.290
-565.588	-128.959	-0.193	-0.027
-564.573	-200.000	-0.020	0.214
-563.558	364.381	0.186	-0.372
-562.544	-200.000	0.020	0.180
-561.529	323.270	0.044	-0.084
-560.515	-52.811	-0.593	-0.272
-559.500	-57.586	0.180	0.079
-558.485	-200.000	-0.061	-0.424
-557.471	-200.000	-0.069	-0.403
-556.456	235.190	-0.134	0.220
-555.442	-80.768	-0.039	0.013
-554.427	436.229	-0.115	-0.249
-553.412	-136.811	0.316	-0.036
-552.398	-2.451	0.203	-0.142
-551.383	-79.825	0.294	0.098
-550.369	-200.000	0.001	0.124
-549.354	-200.000	0.026	0.385
-548.339	-200.000	0.024	-0.109
-547.325	-200.000	-0.055	-0.290
-546.310	-69.366	-0.146	0.056
-545.296	-66.076	0.095	0.038
-544.281	46.094	-0.026	0.024
-543.266	-76.727	0.147	0.051
-542.252	-200.000	-0.094	-0.414
-541.237	28.231	0.183	-0.154
-540.223	193.886	-0.168	0.254
-539.208	800.000	-0.092	0.276
-538.193	-47.043	0.134	0.065
-537.179	-116.532	0.124	-0.023
-536.164	204.442	0.023	-0.035
-535.150	330.591	-0.095	-0.182
-534.135	-106.992	-0.332	0.073
-533.121	-92.796	-0.093	0.026
-532.106	-98.998	-0.494	-0.125
-531.091	229.069	-0.137	0.222
-530.077	637.234	-0.208	-0.525
-529.062	-200.000	-0.035	-0.194
-528.048	22.227	0.052	0.043
-527.033	111.187	-0.111	-0.133
-526.018	-137.531	-0.097	0.011
-525.004	-78.474	0.140	0.048
-523.989	-200.000	0.001	0.124
-522.975	335.891	-0.057	-0.111
-521.960	800.000	0.125	0.470
-520.945	-98.077	-0.418	-0.107
-519.931	55.816	0.137	0.132
-518.916	-95.439	-0.373	-0.100
-517.902	69.894	0.151	-0.155
-516.887	-8.170	-0.356	-0.238
-515.872	80.588	-0.065	-0.070
-514.858	283.990	0.207	0.370
-513.843	-200.000	-0.024	0.145
-512.829	25.672	0.058	0.048
-511.814	118.149	-0.006	0.007
-510.799	800.000	-0.053	-0.173
-509.785	-95.712	0.202	-0.054
-508.770	-24.284	0.117	-0.069
-507.756	-173.700	0.158	-0.005
-506.741	102.279	-0.035	-0.040
-505.726	-70.050	0.097	-0.037
-504.712	95.746	-0.128	0.145
-503.697	300.445	-0.036	0.066
-502.683	-193.269	0.198	0.002
-501.668	15.504	-0.106	0.083
-500.653	-200.000	-0.010	0.266
-499.639	61.841	-0.144	0.142
-498.624	-28.613	0.071	0.041
-497.610	191.974	-0.072	-0.107
-496.595	800.000	0.092	-0.398
-495.581	-160.241	-0.270	0.014
-494.566	-9.993	-0.094	0.062
-493.551	44.016	-0.147	-0.134
-492.537	-4.938	-0.183	0.125
-491.522	-160.127	-0.147	-0.008
-490.508	-20.467	-0.121	0.074
-489.493	-65.027	-0.409	0.164
-488.478	-133.237	-0.135	0.017
-487.464	-88.190	-0.112	-0.033
-486.449	-142.884	0.297	0.029
-485.435	-106.213	-0.186	-0.042
-484.420	-200.000	-0.035	0.328
-483.405	-13.568	0.439	-0.282
-482.391	34.865	0.140	-0.122
-481.376	-0.627	0.569	-0.401
-480.362	341.270	0.217	-0.422
-479.347	-114.605	-0.364	0.069
-478.332	800.000	-0.040	0.149
-477.318	365.697	0.079	-0.159
-476.303	-11.005	-0.110	-0.072
-475.289	-167.448	-0.207	0.008
-474.274	454.010	0.124	0.272
-473.259	1.020	-0.177	0.126
-472.245	309.840	-0.063	0.117
-471.230	682.474	0.120	0.310
-470.216	13.779	-0.210	-0.162
-469.201	358.446	-0.127	0.251
-468.186	-200.000	0.003	0.040
-467.172	84.922	-0.199	-0.216
-466.157	800.000	0.071	0.297
-465.143	-137.364	0.220	0.025
-464.128	-86.081	-0.269	-0.082
-463.113	411.747	-0.058	-0.123
-462.099	-3.649	0.181	0.125
-461.084	800.000	0.021	-0.076
-460.070	-200.000	0.044	0.246
-459.055	-166.763	0.067	0.003
-458.040	800.000	0.015	0.049
-457.026	-35.835	-0.151	0.081
-456.011	-157.032	0.158	-0.010
-454.997	495.839	-0.079	-0.180
-453.982	-44.655	-0.177	-0.088
-452.968	-200.000	0.016	0.275
-451.953	-154.115	0.220	-0.015
-450.938	-70.949	-0.136	0.051
-449.924	800.000	0.034	-0.109
-448.909	733.154	0.086	0.228
-447.895	-56.156	-0.113	-0.050
-446.880	-135.052	0.115	0.014
-445.865	29.577	-0.148	0.125
-444.851	-200.000	-0.005	0.175
-443.836	-6.471	-0.166	-0.112
-442.822	-85.218	0.161	0.050
-441.807	582.368	-0.090	-0.219
-440.792	-7.926	0.187	0.125
-439.778	-200.000	0.003	-0.046
-438.763	800.000	0.069	-0.238
-437.749	-90.386	0.182	-0.052
-436.734	-127.137	-0.114	-0.017
-435.719	-200.000	0.004	-0.021
-434.705	222.938	0.060	0.095
-433.690	-200.000	-0.004	0.117
-432.676	666.479	0.082	0.209
-431.661	19.987	0.332	0.265
-430.646	-16.783	0.038	0.024
-429.632	-69.464	0.021	-0.008
-428.617	1.963	0.017	-0.012
-427.603	385.296	0.104	0.212
-426.588	-200.000	0.062	-0.344
-425.573	326.575	0.034	0.065
-424.559	-200.000	-0.008	-0.157
-423.544	185.558	0.205	-0.301
-422.530	-26.185	0.251	-0.146
-421.515	-95.327	-0.141	0.038
-420.500	69.885	0.171	-0.175
-419.486	72.382	-0.108	-0.112
-418.471	344.431	-0.116	0.225
-417.457	800.000	-0.135	0.391
-416.442	-146.754	-0.171	0.015
-415.428	-141.396	-0.221	-0.022
-414.413	619.258	0.077	-0.192
-413.398	800.000	-0.022	-0.063
-412.384	592.820	0.100	0.244
-411.369	-200.000	-0.034	-0.280
-410.355	-200.000	-0.011	0.118
-409.340	800.000	0.047	0.145
-408.325	299.700	-0.097	0.176
-407.311	-200.000	-0.011	0.198
-406.296	148.301	0.148	-0.198
-405.282	229.477	0.108	-0.174
-404.267	288.520	0.071	-0.127
-403.252	-55.385	-0.409	-0.182
-402.238	-67.676	0.026	0.010
-401.223	0.959	-0.176	-0.125
-400.209	238.465	0.083	-0.136
-399.194	-26.903	-0.132	-0.076
-398.179	-14.384	0.148	0.094
-397.165	159.693	-0.119	0.165
-396.150	116.595	0.187	-0.227
-395.136	213.785	0.165	0.259
-394.121	-118.784	0.175	0.031
-393.106	-200.000	-0.034	0.257
-392.092	40.490	-0.302	-0.270
-391.077	-150.767	0.414	-0.031
-390.063	-200.000	-0.074	0.000
-389.048	783.773	-0.117	-0.316
-388.033	800.000	-0.085	-0.358
-387.019	800.000	0.040	0.169
-386.004	526.506	-0.069	0.160
-384.990	-75.958	-0.125	0.044
-383.975	20.785	0.211	-0.169
-382.960	-26.822	0.129	0.075
-381.946	800.000	0.138	0.475
-380.931	-2.953	-0.133	0.092
-379.917	-45.624	-0.163	-0.080
-378.902	608.734	0.036	-0.088
-377.888	52.560	0.016	-0.015
-376.873	-200.000	0.034	-0.397
-375.858	800.000	0.128	-0.401
-374.844	-200.000	0.013	-0.118
-373.829	473.605	0.090	0.201
-372.815	492.325	-0.017	0.038
-371.800	114.066	0.188	0.226
-370.785	139.345	0.090	0.117
-369.771	-44.606	0.107	0.053
-368.756	-81.617	-0.074	0.024
-367.742	-200.000	-0.027	0.201
-366.727	197.905	-0.080	-0.122
-365.712	-53.668	-0.341	-0.154
-364.698	-125.972	0.027	-0.004
-363.683	150.853	-0.083	-0.111
-362.669	-53.075	0.027	-0.012
-361.654	-87.713	-0.302	-0.090
-360.639	800.000	-0.109	0.335
-359.625	14.387	0.324	-0.250
-358.610	-16.707	-0.119	-0.074
-357.596	-73.222	0.109	0.039
-356.581	-111.440	0.065	-0.013
-355.566	-101.719	0.169	0.040
-354.552	134.412	0.128	0.164
-353.537	-148.202	-0.168	0.014
-352.523	-200.000	0.044	0.517
-351.508	430.407	0.035	-0.074
-350.493	800.000	-0.088	-0.377
-349.479	-200.000	-0.021	0.091
-348.464	87.994	0.217	-0.238
-347.450	-112.015	0.275	0.055
-346.435	579.190	0.067	-0.162
-345.420	-200.000	0.017	-0.169
-344.406	-100.110	-0.012	-0.003
-343.391	339.595	-0.110	-0.211
-342.377	-19.642	-0.329	0.201
-341.362	-165.494	0.353	-0.015
-340.348	11.923	-0.192	-0.146
-339.333	-169.275	-0.153	0.006
-338.318	-200.000	0.001	-0.194
-337.304	477.231	-0.139	0.310
-336.289	-200.000	0.037	0.193
-335.275	196.226	-0.073	0.110
-334.260	800.000	-0.068	-0.208
-333.245	-22.003	0.322	-0.193
-332.231	-117.415	-0.262	0.047
-331.216	143.317	-0.050	-0.066
-330.202	-119.925	-0.154	-0.026
-329.187	13.979	0.131	0.101
-328.172	-117.821	-0.163	-0.029
-327.158	-103.439	-0.324	0.075
-326.143	-14.807	0.323	0.204
-325.129	-167.982	0.164	-0.006
-324.114	-22.608	0.128	0.076
-323.099	-200.000	0.006	0.167
-322.085	-135.577	-0.398	0.047
-321.070	-60.458	0.057	0.024
-320.056	170.207	-0.162	0.228
-319.041	776.828	-0.069	0.187
-318.026	10.576	0.242	0.182
-317.012	53.173	-0.097	0.091
-315.997	207.819	0.120	0.186
-314.983	518.398	-0.024	-0.056
-313.968	-101.934	0.299	-0.071
-312.953	-200.000	0.021	0.308
-311.939	103.682	0.255	0.295
-310.924	800.000	-0.058	-0.175
-309.910	-200.000	-0.059	-0.416
-308.895	289.710	-0.155	0.278
-307.880	800.000	0.015	0.047
-306.866	-75.540	-0.153	0.054
-305.851	-41.687	-0.080	-0.041
-304.837	800.000	-0.030	0.087
-303.822	-152.535	-0.146	-0.010
-302.807	-92.122	-0.369	-0.103
-301.793	-170.460	0.355	-0.012
-300.778	-200.000	-0.004	-0.127
-299.764	-12.514	-0.246	-0.158
-298.749	-171.686	0.084	0.003
-297.735	800.000	0.067	-0.282
-296.720	153.924	0.279	-0.378
-295.705	59.113	0.153	-0.148
-294.691	109.746	0.127	-0.151
-293.676	-28.474	-0.133	-0.075
-292.662	83.542	0.205	0.221
-291.647	115.287	-0.298	-0.359
-290.632	337.719	0.101	-0.193
-289.618	-57.695	-0.169	0.073
-288.603	-77.441	-0.488	0.167
-287.589	-122.456	0.200	-0.032
-286.574	-45.546	-0.317	0.155
-285.559	103.748	-0.083	-0.096
-284.545	800.000	-0.014	-0.043
-283.530	-200.000	-0.012	-0.197
-282.516	136.805	0.258	-0.332
-281.501	800.000	-0.027	-0.086
-280.486	125.566	0.115	0.143
-279.472	-200.000	0.063	0.356
-278.457	138.246	0.211	-0.272
-277.443	-200.000	-0.004	0.185
-276.428	800.000	-0.043	0.176
-275.413	-5.192	-0.378	0.256
-274.399	-200.000	0.003	-0.103
-273.384	249.474	0.048	0.080
-272.370	800.000	-0.070	0.190
-271.355	30.752	0.226	-0.190
-270.340	-18.466	-0.311	-0.191
-269.326	286.156	-0.029	-0.051
-268.311	-200.000	0.015	0.108
-267.297	-200.000	0.011	0.367
-266.282	26.006	0.161	0.133
-265.267	800.000	0.022	0.068
-264.253	-18.849	0.326	-0.200
-263.238	-200.000	0.028	-0.180
-262.224	-105.461	0.118	-0.026
-261.209	800.000	-0.062	-0.232
-260.195	800.000	-0.095	0.263
-259.180	762.213	-0.052	0.140
-258.165	3.348	0.067	-0.048
-257.151	81.155	0.124	0.132
-256.136	-60.817	0.471	0.196
-255.122	-67.211	-0.419	-0.162
-254.107	-38.364	0.377	0.196
-253.092	-200.000	0.065	0.374
-252.078	800.000	-0.087	0.267
-251.063	-200.000	-0.002	0.127
-250.049	800.000	-0.048	0.132
-249.034	-144.386	0.126	0.012
-248.019	-200.000	0.018	-0.249
-247.005	75.763	0.080	0.083
-245.990	-23.739	0.211	0.124
-244.976	-200.000	0.060	0.413
-243.961	-18.876	0.160	0.098
-242.946	45.021	-0.094	-0.085
-241.932	-134.931	0.180	0.021
-240.917	-90.432	-0.173	-0.049
-239.903	125.818	0.233	0.289
-238.888	-69.111	0.294	-0.111
-237.873	595.150	0.075	-0.182
-236.859	-200.000	-0.088	0.000
-235.844	-129.748	-0.137	0.018
-234.830	53.700	-0.206	-0.194
-233.815	-146.696	0.184	-0.016
-232.800	150.278	-0.032	-0.043
-231.786	-18.750	-0.053	-0.033
-230.771	-126.465	-0.034	0.005
-229.757	49.251	0.242	0.223
-228.742	82.458	0.174	0.185
-227.727	-69.289	-0.148	-0.056
-226.713	-200.000	0.009	-0.336
-225.698	-130.187	0.117	0.016
-224.684	-36.616	0.172	0.091
-223.669	-29.988	0.323	-0.181
-222.655	43.689	0.331	-0.297
-221.640	39.714	0.229	0.202
-220.625	18.511	0.181	-0.143
-219.611	-38.320	0.095	0.050
-218.596	31.945	-0.303	-0.256
-217.582	800.000	-0.034	0.113
-216.567	-103.914	0.250	-0.057
-215.552	28.047	0.163	-0.135
-214.538	14.607	-0.222	0.171
-213.523	524.703	-0.059	-0.135
-212.509	126.540	0.166	-0.207
-211.494	76.684	0.141	-0.147
-210.479	9.804	0.235	-0.175
-209.465	104.789	0.142	0.164
-208.450	-179.410	-0.100	0.002
-207.436	-200.000	-0.026	-0.166
-206.421	-101.028	0.223	0.054
-205.406	93.476	-0.263	0.293
-204.392	31.132	0.053	0.045
-203.377	-108.045	-0.111	0.024
-202.363	-54.419	0.218	0.097
-201.348	-83.762	0.267	0.084
-200.333	-109.527	-0.288	0.060
-199.319	31.727	0.052	0.044
-198.304	-200.000	-0.015	0.145
-197.290	800.000	-0.062	-0.225
-196.275	-0.608	-0.199	-0.139
-195.260	280.195	0.167	0.293
-194.246	-32.585	-0.163	-0.089
-193.231	-75.350	0.489	-0.171
-192.217	-68.935	0.122	-0.046
-191.202	-134.654	-0.396	-0.047
-190.187	-200.000	0.024	0.188
-189.173	-99.773	0.228	0.056
-188.158	-39.239	-0.150	0.077
-187.144	0.133	-0.125	0.088
-186.129	-200.000	0.033	-0.200
-185.114	124.000	0.057	0.070
-184.100	128.313	-0.271	0.338
-183.085	23.068	-0.181	-0.146
-182.071	54.129	-0.060	-0.056
-181.056	800.000	0.134	-0.403
-180.042	391.814	0.043	-0.087
-179.027	-83.595	-0.247	0.077
-178.012	-12.205	0.143	0.092
-176.998	-183.267	0.117	-0.002
-175.983	-200.000	0.071	-0.357
-174.969	10.518	0.315	0.235
-173.954	223.056	-0.087	0.137
-172.939	-153.691	-0.116	-0.008
-171.925	-115.675	0.152	0.028
-170.910	430.898	0.051	-0.107
-169.896	379.645	0.081	0.163
-168.881	800.000	-0.051	-0.170
-167.866	-200.000	0.006	-0.241
-166.852	790.411	-0.168	0.454
-165.837	94.959	-0.157	-0.175
-164.823	415.903	-0.158	0.329
-163.808	-83.273	0.102	-0.032
-162.793	370.280	0.089	0.177
-161.779	-115.209	-0.093	0.017
-160.764	-50.800	-0.293	-0.135
-159.750	327.809	0.060	-0.113
-158.735	-9.786	-0.207	-0.135
-157.720	71.641	0.187	0.191
-156.706	-200.000	0.037	0.231
-155.691	-200.000	0.005	0.171
-154.677	-200.000	-0.053	-0.403
-153.662	15.998	0.343	0.265
-152.647	-26.890	0.326	0.186
-151.633	-38.935	-0.126	0.065
-150.618	-56.964	0.108	0.047
-149.604	-21.462	-0.095	-0.057
-148.589	329.378	0.046	-0.087
-147.574	88.107	-0.050	-0.055
-146.560	298.040	-0.128	0.230
-145.545	-136.620	0.135	-0.015
-144.531	393.327	-0.044	0.091
-143.516	800.000	0.150	0.422
-142.502	-51.820	0.152	0.069
-141.487	-116.492	-0.268	0.049
-140.472	348.481	0.024	0.046
-139.458	57.355	0.156	-0.149
-138.443	800.000	0.038	-0.159
-137.429	427.865	0.094	-0.200
-136.414	475.174	-0.083	0.184
-135.399	27.271	-0.278	-0.229
-134.385	-45.670	-0.188	-0.091
-133.370	-200.000	-0.016	0.108
-132.356	-166.956	0.105	0.004
-131.341	-173.319	-0.206	-0.006
-130.326	-165.804	0.326	0.014
-129.312	-111.000	0.228	-0.046
-128.297	-136.619	0.315	-0.036
-127.283	-19.935	0.276	-0.167
-126.268	-52.983	-0.332	-0.150
-125.253	-200.000	0.008	-0.179
-124.239	-200.000	0.049	0.288
-123.224	800.000	-0.028	0.104
-122.210	165.572	0.051	-0.070
-121.195	800.000	-0.096	-0.282
-120.180	-200.000	0.010	0.200
-119.166	-43.543	-0.340	-0.168
-118.151	800.000	-0.085	-0.323
-117.137	-104.826	-0.261	0.059
-116.122	222.921	-0.068	-0.108
-115.107	-108.566	-0.250	-0.053
-114.093	399.123	-0.044	0.090
-113.078	800.000	-0.068	0.255
-112.064	-200.000	0.038	0.402
-111.049	-163.530	0.389	0.018
-110.034	-140.770	-0.377	0.038
-109.020	621.267	-0.015	0.038
-108.005	800.000	0.088	0.263
-106.991	-200.000	0.009	0.301
-105.976	-87.476	-0.117	0.035
-104.962	-200.000	-0.016	0.100
-103.947	-129.831	-0.095	-0.013
-102.932	21.760	0.147	-0.117
-101.918	-128.182	-0.369	0.052
-100.903	206.481	0.155	-0.235
-99.889	-117.605	-0.205	-0.036
-98.874	800.000	0.084	-0.328
-97.859	269.385	0.128	-0.220
-96.845	800.000	0.065	-0.238
-95.830	306.626	-0.023	-0.043
-94.816	-200.000	-0.020	0.278
-93.801	-200.000	0.025	0.361
-92.786	47.922	-0.256	0.234
-91.772	248.955	0.104	-0.172
-90.757	800.000	-0.098	-0.396
-89.743	-82.232	0.334	-0.106
-88.728	23.683	0.235	-0.189
-87.713	252.434	-0.170	0.283
-86.699	-189.160	-0.324	-0.004
-85.684	58.927	-0.111	0.107
-84.670	83.378	0.401	0.427
-83.655	78.088	0.027	0.028
-82.640	-33.797	0.261	0.140
-81.626	-51.562	0.302	0.138
-80.611	-9.041	0.204	-0.134
-79.597	-102.865	-0.115	0.027
-78.582	131.318	0.102	0.128
-77.567	677.154	-0.030	-0.076
-76.553	55.283	0.108	-0.102
-75.538	318.160	-0.106	0.197
-74.524	-70.965	0.182	-0.067
-73.509	204.263	-0.114	-0.173
-72.494	175.646	-0.099	-0.141
-71.480	157.838	-0.228	0.308
-70.465	-108.597	0.163	0.034
-69.451	19.719	-0.103	-0.081
-68.436	15.133	0.170	-0.130
-67.422	45.067	-0.082	0.073
-66.407	89.113	0.119	0.129
-65.392	-200.000	-0.009	0.300
-64.378	-68.720	-0.229	-0.086
-63.363	-24.275	0.205	0.119
-62.349	800.000	0.036	0.116
-61.334	47.813	-1.040	-0.949
-60.319	-32.156	1.243	0.679
-59.305	800.000	-0.337	-1.241
-58.290	313.804	0.958	1.760
-57.276	750.634	0.694	1.829
-56.261	-200.000	124.874	645.963
-55.246	412.209	1563.733	3243.520
-54.232	143.064	2720.798	3533.454
-53.217	95.806	2162.437	2410.509
-52.203	35.000	1595.279	1363.732
-51.188	26.642	1338.685	1094.097
-50.173	24.158	1301.632	1049.161
-49.159	51.325	1370.376	1270.181
-48.144	48.512	1382.797	1264.613
-47.130	26.766	1329.946	1087.526
-46.115	23.470	1311.056	1052.504
-45.100	23.298	1306.291	1047.625
-44.086	23.389	1303.101	1045.557
-43.071	23.253	1301.230	1043.213
-42.057	23.164	1299.177	1041.002
-41.042	23.373	1297.200	1040.604
-40.027	23.262	1296.293	1039.186
-39.013	23.370	1293.822	1037.794
-37.998	23.267	1292.312	1035.940
-36.984	23.362	1290.743	1035.195
-35.969	23.408	1288.990	1034.019
-34.954	23.428	1287.139	1032.611
-33.940	23.403	1286.145	1031.625
-32.925	23.387	1285.179	1030.718
-31.911	23.514	1283.147	1029.782
-30.896	23.470	1282.330	1028.830
-29.881	23.475	1280.754	1027.554
-28.867	23.542	1279.217	1026.670
-27.852	23.494	1278.398	1025.695
-26.838	23.642	1276.211	1024.755
-25.823	23.578	1275.314	1023.623
-24.809	23.485	1273.848	1021.871
-23.794	23.439	1272.868	1020.781
-22.779	23.552	1270.774	1019.709
-21.765	23.407	1269.942	1018.164
-20.750	23.464	1268.662	1017.430
-19.736	23.384	1267.373	1015.893
-18.721	23.389	1266.415	1015.115
-17.706	23.402	1265.228	1014.198
-16.692	23.392	1263.843	1012.990
-15.677	23.450	1262.415	1012.134
-14.663	23.209	1262.163	1010.518
-13.648	23.417	1260.038	1009.962
-12.633	23.402	1259.724	1009.588
-11.619	23.249	1259.029	1008.116
-10.604	23.421	1258.250	1008.432
-9.590	23.332	1256.727	1006.668
-8.575	23.262	1256.320	1005.903
-7.560	23.380	1255.708	1006.044
-6.546	23.325	1254.712	1004.895
-5.531	23.330	1253.808	1004.159
-4.517	23.396	1252.886	1003.753
-3.502	23.201	1252.267	1002.115
-2.487	23.281	1251.717	1002.086
-1.473	23.355	1246.855	998.567
-0.458	21.808	1231.942	977.967
0.556	16.984	1216.641	942.499
1.571	13.588	1224.469	929.463
2.586	12.899	1239.853	937.141
3.600	13.012	1227.975	928.719
4.615	9.554	1155.590	855.555
5.629	3.269	1084.866	771.703
6.644	0.362	1068.142	745.381
7.659	0.238	1065.677	742.979
8.673	0.149	1064.634	741.752
9.688	0.011	1063.667	740.332
10.702	0.320	1060.940	739.883
11.717	4.181	1066.052	762.401
12.731	11.183	1075.112	803.449
13.746	15.709	1081.000	830.171
14.761	16.788	1081.416	835.741
15.775	16.124	1080.014	831.314
16.790	15.135	1077.774	824.645
17.804	14.459	1076.174	820.026
18.819	14.049	1075.419	817.360
19.834	13.927	1073.954	815.575
20.848	13.711	1073.493	814.095
21.863	13.420	1072.538	811.872
22.877	13.192	1071.936	810.224
23.892	13.264	1071.091	809.870
24.907	13.187	1070.232	808.771
25.921	13.128	1069.727	808.027
26.936	13.280	1068.855	808.040
27.950	13.345	1067.712	807.424
28.965	13.403	1066.510	806.725
29.980	13.455	1065.351	806.028
30.994	13.445	1064.162	805.011
32.009	13.477	1063.388	804.512
33.023	13.397	1062.038	803.026
34.038	13.474	1061.937	803.254
35.053	13.364	1060.575	801.618
36.067	13.311	1059.691	800.627
37.082	13.317	1058.887	799.977
38.096	13.430	1058.059	799.824
39.111	13.301	1057.539	798.740
40.126	13.393	1056.079	798.010
41.140	13.297	1054.635	796.385
42.155	13.189	1054.017	795.330
43.169	13.198	1052.808	794.388
44.184	13.127	1051.812	793.225
45.199	13.119	1051.050	792.544
46.213	13.198	1049.694	791.830
47.228	13.269	1048.675	791.330
48.242	13.156	1047.658	789.954
49.257	13.168	1046.779	789.278
50.271	13.374	1045.353	789.112
51.286	13.229	1045.010	788.093
52.301	13.306	1043.984	787.619
53.315	13.303	1042.738	786.595
54.330	13.228	1041.977	785.594
55.344	13.235	1040.994	784.817
56.359	13.303	1039.843	784.202
57.374	13.193	1039.156	783.091
58.388	13.208	1038.551	782.639
59.403	13.091	1038.025	781.618
60.417	13.184	1037.007	781.221
61.432	13.098	1036.227	780.160
62.447	13.069	1035.402	779.330
63.461	13.024	1034.546	778.409
64.476	13.108	1033.571	778.001
65.490	13.094	1032.562	777.107
66.505	13.179	1031.908	776.944
67.520	13.131	1031.411	776.275
68.534	13.329	1030.270	776.281
69.549	13.148	1029.904	775.082
70.563	13.185	1028.761	774.327
71.578	13.204	1027.865	773.673
72.593	13.243	1027.073	773.195
73.607	13.095	1026.941	772.333
74.622	13.122	1025.965	771.656
75.636	13.068	1025.513	770.998
76.651	13.079	1024.967	770.567
77.666	13.206	1024.056	770.410
78.680	13.156	1023.311	769.546
79.695	13.146	1022.685	768.960
80.709	13.130	1022.017	768.317
81.724	13.141	1021.401	767.836
82.739	13.173	1020.558	767.283
83.753	13.392	1020.084	767.876
84.768	13.386	1019.221	767.128
85.782	13.263	1018.284	765.788
86.797	13.339	1017.309	765.340
87.812	13.320	1016.395	764.497
88.826	13.386	1015.122	763.776
89.841	13.308	1014.744	763.060
90.855	13.365	1013.523	762.341
91.870	13.280	1013.088	761.552
92.884	13.301	1012.317	761.005
93.899	13.463	1011.142	760.799
94.914	13.443	1010.221	759.946
95.928	13.462	1009.613	759.510
96.943	13.448	1008.662	758.662
97.957	13.302	1008.058	757.471
98.972	13.357	1007.047	756.897
99.987	13.479	1006.291	756.820
101.001	13.378	1005.566	755.747
102.016	13.407	1004.409	754.943
103.030	13.453	1003.807	754.631
104.045	13.412	1003.058	753.816
105.060	13.282	1002.330	752.610
106.074	13.307	1001.472	752.013
107.089	13.373	1000.574	751.572
108.103	13.212	999.707	750.120
109.118	13.286	998.414	749.421
110.133	13.224	997.549	748.425
111.147	13.295	996.436	747.847
112.162	13.237	995.807	747.046
113.176	13.268	994.991	746.506
114.191	13.314	994.786	746.496
115.206	13.461	993.776	746.331
116.220	13.267	993.216	744.971
117.235	13.387	992.051	744.574
118.249	13.241	991.283	743.272
119.264	13.359	989.948	742.735
120.279	13.292	989.412	741.971
121.293	13.228	988.960	741.278
122.308	13.215	987.965	740.409
123.322	13.287	986.864	739.837
124.337	13.316	985.675	739.013
125.352	13.237	985.039	738.116
126.366	13.364	983.757	737.657
127.381	13.292	982.625	736.424
128.395	13.308	981.873	735.865
129.410	13.223	981.101	734.843
130.424	13.261	980.056	734.165
131.439	13.509	979.075	734.466
132.454	13.438	978.428	733.599
133.468	13.499	977.354	733.000
134.483	13.434	976.545	732.039
135.497	13.375	976.158	731.426
136.512	13.401	975.160	730.728
137.527	13.319	974.570	729.856
138.541	13.368	973.480	729.193
139.556	13.431	972.736	728.848
140.570	13.428	972.835	728.847
141.585	13.458	971.616	728.002
142.600	13.548	970.638	727.598
143.614	13.416	970.292	726.694
144.629	13.505	969.001	726.052
145.643	13.681	967.674	725.764
146.658	13.523	966.732	724.305
147.673	13.479	965.850	723.386
148.687	13.413	965.061	722.442
149.702	13.495	963.809	721.800
150.716	13.497	963.567	721.564
151.731	13.332	963.197	720.503
152.746	13.544	962.184	720.603
153.760	13.595	961.907	720.555
154.775	13.656	960.790	719.920
155.789	13.542	960.401	719.070
156.804	13.731	959.312	719.012
157.819	13.758	959.220	718.995
158.833	13.756	958.461	718.355
159.848	13.705	957.229	717.145
160.862	13.720	956.636	716.703
161.877	13.606	955.605	715.374
162.892	13.519	954.699	714.258
163.906	13.552	954.115	713.899
164.921	13.626	953.105	713.402
165.935	13.625	952.433	712.828
166.950	13.487	951.438	711.431
167.964	13.662	950.790	711.632
168.979	13.637	949.763	710.696
169.994	13.569	948.967	709.743
171.008	13.762	947.910	709.715
172.023	13.747	947.292	709.125
173.037	13.577	946.879	708.029
174.052	13.878	945.829	708.465
175.067	13.850	945.104	707.740
176.081	13.728	944.710	706.864
177.096	13.596	944.450	706.044
178.110	13.728	943.713	705.993
179.125	13.809	943.161	705.860
180.140	13.813	942.570	705.375
181.154	13.698	942.156	704.511
182.169	13.831	941.714	704.683
183.183	14.008	940.701	704.616
184.198	13.852	940.358	703.636
185.213	13.813	939.245	702.574
186.227	14.020	938.596	702.902
187.242	13.940	938.149	702.168
188.256	13.948	937.520	701.669
189.271	13.976	936.640	701.066
190.286	13.892	936.003	700.172
191.300	13.854	935.273	699.404
192.315	13.778	934.540	698.473
193.329	13.809	934.227	698.308
194.344	13.956	933.705	698.474
195.359	13.910	933.011	697.701
196.373	13.871	932.496	697.092
197.388	14.050	931.951	697.371
198.402	14.192	930.791	697.036
199.417	14.018	930.960	696.375
200.432	14.219	930.216	696.598
201.446	14.225	929.683	696.161
202.461	14.300	929.103	695.977
203.475	14.215	928.529	695.132
204.490	14.215	927.443	694.258
205.504	14.121	927.113	693.558
206.519	14.110	926.747	693.174
207.534	14.212	925.377	692.515
208.548	14.196	924.554	691.769
209.563	14.097	924.477	691.240
210.577	14.199	923.697	691.018
211.592	14.266	922.904	690.641
212.607	14.403	922.258	690.664
213.621	14.361	921.467	689.839
214.636	14.344	920.718	689.146
215.650	14.288	920.141	688.420
216.665	14.243	919.560	687.739
217.680	14.479	918.364	687.757
218.694	14.476	917.916	687.349
219.709	14.412	917.275	686.548
220.723	14.433	916.715	686.152
221.738	14.408	916.308	685.684
222.753	14.352	915.289	684.632
223.767	14.447	915.040	684.776
224.782	14.451	914.544	684.360
225.796	14.515	913.827	684.024
226.811	14.524	913.261	683.576
227.826	14.507	912.026	682.521
228.840	14.596	911.393	682.354
229.855	14.581	910.451	681.525
230.869	14.509	909.634	680.561
231.884	14.539	909.377	680.428
232.899	14.468	908.485	679.411
233.913	14.501	907.709	678.905
234.928	14.547	907.278	678.711
235.942	14.464	906.532	677.756
236.957	14.559	906.187	677.823
237.972	14.578	905.422	677.270
238.986	14.547	904.819	676.634
240.001	14.553	904.093	676.054
241.015	14.536	903.799	675.704
242.030	14.507	903.382	675.218
243.045	14.610	902.511	674.922
244.059	14.514	902.422	674.406
245.074	14.586	901.253	673.766
246.088	14.825	900.707	674.262
247.103	14.722	899.923	673.201
248.117	14.702	899.457	672.713
249.132	14.903	898.479	672.727
250.147	14.883	897.930	672.177
251.161	14.987	897.519	672.229
252.176	14.856	896.922	671.198
253.190	14.966	896.046	670.921
254.205	14.982	895.162	670.265
255.220	15.017	894.720	670.013
256.234	14.960	894.368	669.464
257.249	15.020	893.381	668.907
258.263	14.990	892.425	668.011
259.278	14.930	891.795	667.243
260.293	15.032	891.519	667.381
261.307	15.157	890.798	667.282
262.322	15.114	890.438	666.783
263.336	15.208	889.839	666.647
264.351	15.136	888.969	665.653
265.366	15.179	888.328	665.283
266.380	15.162	887.652	664.651
267.395	15.316	886.928	664.658
268.409	15.223	885.986	663.529
269.424	15.133	885.682	662.887
270.439	15.279	884.407	662.449
271.453	15.226	883.961	661.846
272.468	15.290	883.396	661.617
273.482	15.189	883.228	661.036
274.497	15.158	882.447	660.268
275.512	15.306	881.857	660.351
276.526	15.197	881.635	659.700
277.541	15.262	881.327	659.665
278.555	15.338	880.405	659.215
279.570	15.445	879.679	659.032
280.585	15.422	878.896	658.298
281.599	15.286	878.183	657.175
282.614	15.323	877.606	656.828
283.628	15.497	876.595	656.695
284.643	15.368	876.207	655.843
285.657	15.445	875.485	655.545
286.672	15.402	874.916	654.891
287.687	15.398	874.048	654.169
288.701	15.487	873.797	654.268
289.716	15.590	872.806	653.871
290.730	15.623	872.415	653.648
291.745	15.670	871.811	653.320
292.760	15.706	871.156	652.910
293.774	15.693	870.454	652.277
294.789	15.613	869.885	651.482
295.803	15.701	868.933	651.054
296.818	15.662	868.531	650.543
297.833	15.647	867.991	650.023
298.847	15.747	867.152	649.724
299.862	15.655	866.778	649.030
300.876	15.707	866.341	648.848
301.891	15.849	865.696	648.855
302.906	15.774	865.313	648.220
303.920	15.812	864.578	647.759
304.935	15.797	864.367	647.486
305.949	15.864	863.454	647.002
306.964	15.845	862.563	646.204
307.979	16.038	861.999	646.465
308.993	15.858	861.904	645.647
310.008	15.882	861.413	645.313
311.022	15.878	860.734	644.731
312.037	15.879	860.179	644.264
313.052	15.963	859.081	643.706
314.066	15.680	859.088	642.571
315.081	15.899	858.088	642.602
316.095	15.904	857.729	642.298
317.110	15.899	857.116	641.762
318.125	15.923	856.657	641.454
319.139	15.771	856.478	640.683
320.154	15.946	855.652	640.675
321.168	15.979	855.412	640.563
322.183	16.118	854.352	640.241
323.197	16.079	853.627	639.493
324.212	16.026	853.529	639.160
325.227	16.038	852.731	638.552
326.241	16.019	852.606	638.329
327.256	16.010	851.870	637.688
328.270	16.026	851.184	637.179
329.285	16.037	850.512	636.660
330.300	16.043	849.788	636.084
331.314	15.877	849.766	635.385
332.329	16.121	849.056	635.721
333.343	16.246	848.834	635.968
334.358	16.173	848.170	635.141
335.373	16.065	848.072	634.605
336.387	16.199	847.652	634.736
337.402	16.129	847.661	634.425
338.416	16.258	846.907	634.288
339.431	16.215	846.827	634.010
340.446	16.377	845.707	633.723
341.460	16.481	845.242	633.710
342.475	16.460	845.113	633.479
343.489	16.506	844.555	633.175
344.504	16.398	844.554	632.716
345.519	16.338	843.737	631.822
346.533	16.359	843.177	631.427
347.548	16.392	842.654	631.101
348.562	16.380	842.095	630.581
349.577	16.480	841.339	630.333
350.592	16.447	840.545	629.560
351.606	16.261	840.282	628.614
352.621	16.350	839.946	628.638
353.635	16.558	838.624	628.367
354.650	16.548	838.323	628.048
355.665	16.653	837.494	627.760
356.679	16.523	837.017	626.864
357.694	16.507	836.438	626.319
358.708	16.434	836.183	625.800
359.723	16.643	835.287	625.848
360.738	16.630	834.474	625.135
361.752	16.456	834.106	624.162
362.767	16.561	833.653	624.156
363.781	16.784	833.010	624.441
364.796	16.857	832.322	624.136
365.810	16.745	832.224	623.598
366.825	16.759	832.095	623.496
367.840	16.753	831.707	623.129
368.854	16.971	830.741	623.150
369.869	16.814	830.553	622.378
370.883	16.688	830.072	621.498
371.898	16.766	829.665	621.427
372.913	16.790	829.849	621.597
373.927	16.952	828.807	621.355
374.942	16.935	828.172	620.764
375.956	16.828	827.483	619.801
376.971	16.920	827.839	620.348
377.986	17.022	826.746	619.847
379.000	17.060	826.337	619.622
380.015	17.152	825.740	619.457
381.029	17.126	824.914	618.688
382.044	17.071	824.381	618.035
383.059	17.188	824.295	618.339
384.073	17.056	823.597	617.283
385.088	16.967	822.883	616.368
386.102	16.998	822.529	616.161
387.117	17.050	821.765	615.722
388.132	17.012	821.273	615.161
389.146	16.982	821.044	614.826
390.161	17.126	820.334	614.763
391.175	17.192	819.697	614.470
392.190	17.195	819.379	614.187
393.205	17.148	818.873	613.586
394.219	17.082	818.684	613.149
395.234	17.187	818.009	612.967
396.248	17.064	817.711	612.248
397.263	17.140	817.618	612.397
398.278	17.114	817.089	611.853
399.292	17.165	816.476	611.525
400.307	17.165	815.856	611.007
401.321	17.324	815.460	611.227
402.336	17.321	814.826	610.686
403.350	17.164	814.774	610.030
404.365	17.296	814.448	610.207
405.380	17.355	813.601	609.727
406.394	17.336	813.094	609.229
407.409	17.429	812.848	609.322
408.423	17.298	812.653	608.653
409.438	17.351	812.325	608.542
410.453	17.486	811.295	608.199
411.467	17.644	810.595	608.185
412.482	17.628	810.167	607.754
413.496	17.514	810.272	607.370
414.511	17.566	809.954	607.265
415.526	17.589	809.511	606.959
416.540	17.573	808.930	606.414
417.555	17.546	808.358	605.837
418.569	17.701	808.037	606.092
419.584	17.641	807.426	605.367
420.599	17.635	807.085	605.036
421.613	113.408	1299.253	1486.402
422.628	97.917	1370.912	1486.413
