DTS Sentinel unit serial number:	SN413079Multiplexer serial number:	ORYXHardware model number:	OX4-SRSoftware version number:	ORYX F/W v4.00 Oryx Data Collector v3.7.2.0data status	okinstallation	princeton_trtdifferential loss correction	single-endedforward channel	channel 1reverse channel	N/Adate	2019/09/16time	04:50:35forward acquisition time	60.00reverse acquisition time	0.00gamma	496.2192k internal	0.2332k external	0.2332temperature offset calibration	0.9984default loss term (dB/km)	0.3790temperature slope calibration	1.0000multiplexer offset coefficient	1.0000multiplexer slope coefficient	1.0000fibre end	0.00T internal ref (°C)	27.16T ext. ref 1 (°C)	10.94T ext. ref 2 (°C)	21.60length (m)	temperature (°C)	Stokes	anti-Stokes-747.200	-200.000	-0.030	0.190
-746.185	-72.082	0.277	0.103
-745.171	-56.173	-0.267	0.120
-744.156	-6.950	-0.345	0.236
-743.142	-134.784	0.280	-0.034
-742.127	-200.000	-0.004	0.092
-741.112	37.478	0.127	-0.113
-740.098	-200.000	-0.039	-0.397
-739.083	281.650	0.101	-0.183
-738.069	41.203	-0.361	0.328
-737.054	-182.410	-0.100	0.002
-736.039	-138.679	-0.314	0.035
-735.025	-7.995	-0.245	-0.166
-734.010	24.167	-0.261	-0.217
-732.996	-200.000	-0.019	-0.332
-731.981	-61.576	0.146	-0.062
-730.966	-200.000	-0.003	0.069
-729.952	-111.272	-0.222	0.046
-728.937	33.487	-0.159	0.139
-727.923	-37.502	-0.124	0.067
-726.908	-49.588	-0.168	-0.080
-725.894	67.290	-0.082	-0.084
-724.879	390.241	0.059	0.123
-723.864	-56.673	-0.286	0.127
-722.850	-38.479	-0.254	0.135
-721.835	-3.102	-0.045	-0.032
-720.821	26.773	-0.120	-0.101
-719.806	-200.000	0.006	-0.299
-718.791	800.000	0.047	0.133
-717.777	-200.000	0.028	-0.142
-716.762	95.014	0.127	0.145
-715.748	800.000	-0.083	0.259
-714.733	-200.000	-0.049	0.239
-713.718	105.103	-0.151	0.179
-712.704	-200.000	-0.052	0.343
-711.689	-86.861	-0.209	-0.064
-710.675	-159.495	-0.113	0.006
-709.660	800.000	-0.066	-0.196
-708.645	92.798	0.188	0.213
-707.631	-200.000	-0.023	0.201
-706.616	-200.000	-0.017	0.170
-705.602	-53.503	0.218	-0.100
-704.587	-200.000	-0.127	-0.564
-703.572	-116.488	0.098	-0.018
-702.558	-200.000	0.031	0.190
-701.543	-88.087	0.309	-0.093
-700.529	-164.843	0.298	-0.013
-699.514	800.000	-0.044	-0.153
-698.499	-20.413	0.224	-0.138
-697.485	2.141	-0.222	-0.161
-696.470	593.520	-0.093	-0.231
-695.456	-200.000	-0.064	-0.281
-694.441	-116.263	-0.120	-0.022
-693.426	239.324	-0.024	0.041
-692.412	800.000	0.084	-0.330
-691.397	-167.281	0.382	-0.015
-690.383	-47.740	0.457	0.222
-689.368	224.184	-0.034	0.055
-688.354	-200.000	0.051	-0.371
-687.339	-108.453	-0.145	0.031
-686.324	-161.421	-0.563	0.029
-685.310	800.000	0.054	0.225
-684.295	-151.937	0.232	0.017
-683.281	28.695	0.065	0.055
-682.266	605.630	-0.085	-0.211
-681.251	-124.560	0.183	0.029
-680.237	800.000	-0.046	0.190
-679.222	800.000	0.113	0.326
-678.208	58.164	-0.253	0.249
-677.193	-83.112	-0.284	-0.092
-676.178	800.000	-0.094	-0.271
-675.164	175.512	-0.057	0.083
-674.149	140.339	-0.083	0.109
-673.135	64.989	0.180	-0.182
-672.120	-200.000	0.002	0.110
-671.105	-87.344	0.187	-0.057
-670.091	-200.000	0.001	-0.106
-669.076	-141.344	0.101	-0.010
-668.062	240.349	-0.077	-0.129
-667.047	-146.078	-0.050	0.004
-666.032	153.002	-0.309	0.423
-665.018	-200.000	0.011	0.172
-664.003	72.042	-0.052	0.054
-662.989	-200.000	0.027	-0.157
-661.974	-163.376	-0.340	-0.016
-660.959	-8.021	0.059	-0.040
-659.945	-200.000	-0.001	-0.086
-658.930	153.800	0.194	-0.266
-657.916	-153.647	-0.205	-0.014
-656.901	-61.908	-0.156	-0.065
-655.886	-103.845	-0.207	-0.049
-654.872	107.404	0.113	-0.134
-653.857	86.310	0.028	-0.031
-652.843	53.399	-0.174	-0.168
-651.828	118.677	0.096	-0.119
-650.814	380.133	-0.094	-0.194
-649.799	-66.567	-0.213	-0.085
-648.784	800.000	-0.133	-0.418
-647.770	-200.000	-0.080	0.408
-646.755	800.000	-0.097	0.339
-645.741	800.000	0.026	0.077
-644.726	728.098	0.057	0.153
-643.711	-22.816	0.344	0.208
-642.697	-200.000	0.005	0.108
-641.682	518.928	-0.076	0.178
-640.668	800.000	0.077	-0.227
-639.653	40.226	-0.271	-0.244
-638.638	144.913	0.102	0.137
-637.624	-200.000	0.168	-0.001
-636.609	-200.000	0.008	-0.193
-635.595	800.000	0.053	-0.205
-634.580	621.775	0.061	-0.153
-633.565	72.094	-0.143	-0.149
-632.551	282.815	-0.075	-0.135
-631.536	78.722	0.316	0.338
-630.522	-26.846	-0.165	0.096
-629.507	-200.000	-0.031	-0.255
-628.492	433.408	0.081	0.175
-627.478	396.545	-0.050	0.104
-626.463	-200.000	0.029	-0.489
-625.449	-200.000	0.003	-0.083
-624.434	158.066	0.040	-0.055
-623.419	800.000	-0.086	0.250
-622.405	-200.000	-0.030	0.144
-621.390	302.987	-0.169	0.313
-620.376	63.386	-0.121	0.122
-619.361	-75.937	0.327	0.116
-618.346	-167.125	0.210	0.009
-617.332	-87.481	-0.234	-0.071
-616.317	-1.841	0.259	0.183
-615.303	-35.738	-0.336	0.182
-614.288	-200.000	-0.014	0.112
-613.273	-82.488	0.028	0.009
-612.259	-32.020	-0.216	0.121
-611.244	-200.000	0.029	-0.179
-610.230	80.985	0.322	0.347
-609.215	89.663	0.050	-0.055
-608.201	-78.633	-0.235	-0.080
-607.186	50.924	-0.186	-0.176
-606.171	-36.241	-0.345	0.186
-605.157	-200.000	0.032	0.181
-604.142	-154.567	-0.059	0.004
-603.128	-200.000	0.037	-0.282
-602.113	63.314	-0.103	-0.104
-601.098	-122.684	-0.243	0.039
-600.084	-43.267	0.269	-0.136
-599.069	-128.562	-0.482	-0.068
-598.055	234.023	-0.156	0.257
-597.040	621.881	-0.074	0.185
-596.025	106.455	0.038	-0.045
-595.011	144.397	-0.297	-0.397
-593.996	-200.000	-0.019	0.198
-592.982	-200.000	-0.011	-0.209
-591.967	20.571	0.270	-0.219
-590.952	-108.573	-0.282	-0.060
-589.938	702.575	-0.014	0.038
-588.923	-150.915	-0.231	-0.017
-587.909	267.923	-0.146	-0.255
-586.894	800.000	-0.094	-0.284
-585.879	-38.168	-0.206	-0.109
-584.865	320.711	0.032	0.060
-583.850	-155.852	-0.055	-0.003
-582.836	-0.583	-0.135	0.096
-581.821	-200.000	-0.037	0.250
-580.806	-167.169	-0.225	0.009
-579.792	-130.588	-0.283	0.038
-578.777	-32.985	0.090	-0.050
-577.763	800.000	0.046	-0.159
-576.748	-186.484	0.431	-0.006
-575.733	15.694	-0.210	0.165
-574.719	-76.059	-0.068	0.024
-573.704	-178.817	-0.520	0.012
-572.690	34.594	0.227	-0.198
-571.675	-22.770	0.219	-0.132
-570.661	800.000	-0.024	0.093
-569.646	-77.687	-0.202	0.070
-568.631	183.419	0.078	-0.115
-567.617	81.823	0.225	-0.244
-566.602	-25.177	0.181	0.107
-565.588	614.158	-0.131	0.327
-564.573	-34.310	-0.073	-0.040
-563.558	-60.136	-0.290	-0.124
-562.544	82.673	0.150	-0.163
-561.529	-57.130	-0.166	-0.073
-560.515	86.544	0.253	-0.279
-559.500	21.605	-0.163	-0.133
-558.485	150.123	0.110	0.149
-557.471	-200.000	0.008	-0.235
-556.456	591.815	0.029	-0.073
-555.442	143.785	0.134	-0.178
-554.427	-70.266	0.190	-0.072
-553.412	-200.000	0.001	-0.151
-552.398	174.394	0.095	-0.138
-551.383	125.083	-0.147	0.185
-550.369	-93.778	-0.231	0.063
-549.354	-3.690	0.021	0.015
-548.339	75.100	0.254	-0.267
-547.325	-200.000	0.017	-0.263
-546.310	-33.028	-0.359	0.199
-545.296	800.000	-0.068	0.198
-544.281	800.000	0.013	0.044
-543.266	-162.701	0.204	-0.010
-542.252	-200.000	0.002	-0.102
-541.237	-122.259	0.120	-0.020
-540.223	-200.000	-0.082	-0.435
-539.208	1.856	-0.421	-0.303
-538.193	121.630	-0.079	0.098
-537.179	-200.000	0.045	0.275
-536.164	92.042	0.050	-0.057
-535.150	-200.000	-0.036	-0.173
-534.135	340.477	-0.049	-0.096
-533.121	-200.000	0.028	0.202
-532.106	-74.418	0.133	0.048
-531.091	800.000	0.044	-0.136
-530.077	71.221	-0.292	-0.303
-529.062	-32.744	-0.435	0.241
-528.048	87.127	0.218	0.240
-527.033	13.066	-0.143	0.110
-526.018	-57.649	0.438	0.192
-525.004	-45.852	0.105	-0.052
-523.989	-19.723	0.143	-0.088
-522.975	321.616	-0.087	-0.165
-521.960	-200.000	-0.013	-0.102
-520.945	138.220	-0.058	0.075
-519.931	137.895	-0.173	-0.227
-518.916	-117.557	-0.106	0.019
-517.902	94.559	-0.105	-0.119
-516.887	-68.125	0.209	0.081
-515.872	35.321	0.275	-0.241
-514.858	-22.084	0.298	-0.180
-513.843	-169.446	-0.400	-0.015
-512.829	19.154	-0.216	0.172
-511.814	5.692	-0.132	0.098
-510.799	357.287	-0.136	0.270
-509.785	52.449	-0.173	0.165
-508.770	80.216	-0.311	0.333
-507.756	43.264	0.040	0.036
-506.741	63.000	0.266	0.266
-505.726	-123.134	-0.249	0.040
-504.712	-200.000	-0.049	-0.444
-503.697	-184.435	0.159	-0.003
-502.683	-33.581	-0.151	-0.083
-501.668	89.190	0.127	0.141
-500.653	312.439	-0.197	0.368
-499.639	-70.245	-0.089	-0.034
-498.624	-109.823	0.477	0.100
-497.610	198.587	-0.083	-0.127
-496.595	1.392	0.205	-0.147
-495.581	-153.677	0.229	0.016
-494.566	5.212	0.059	0.043
-493.551	24.944	0.235	-0.195
-492.537	-68.888	-0.051	-0.020
-491.522	800.000	-0.044	-0.183
-490.508	-200.000	0.018	-0.175
-489.493	96.609	-0.095	0.109
-488.478	-200.000	-0.019	-0.107
-487.464	150.325	0.149	0.201
-486.449	152.344	-0.134	0.182
-485.435	-4.781	0.279	0.191
-484.420	23.340	0.181	-0.148
-483.405	190.653	0.187	-0.280
-482.391	6.672	0.124	0.092
-481.376	-123.919	-0.040	-0.006
-480.362	-27.615	-0.132	-0.076
-479.347	140.266	0.125	0.164
-478.332	-200.000	-0.030	0.403
-477.318	-26.758	-0.408	0.238
-476.303	-6.174	-0.286	0.194
-475.289	218.607	-0.028	-0.044
-474.274	-200.000	-0.014	0.079
-473.259	-118.824	0.136	-0.024
-472.245	97.825	0.103	-0.117
-471.230	-129.661	0.204	0.028
-470.216	-106.000	0.367	0.082
-469.201	60.799	-0.388	0.383
-468.186	428.447	-0.153	-0.328
-467.172	28.235	-0.080	-0.067
-466.157	29.239	0.204	0.172
-465.143	403.346	0.067	0.141
-464.128	-164.488	-0.375	0.017
-463.113	800.000	-0.198	0.557
-462.099	759.314	0.162	-0.437
-461.084	-176.873	0.120	-0.003
-460.070	349.258	0.105	0.206
-459.055	-200.000	0.012	-0.088
-458.040	-200.000	-0.002	0.029
-457.026	-135.809	0.109	0.013
-456.011	-134.914	-0.096	-0.011
-454.997	-62.419	-0.083	0.034
-453.982	-47.648	0.182	-0.088
-452.968	348.310	-0.107	0.211
-451.953	800.000	-0.083	0.266
-450.938	426.963	-0.281	-0.602
-449.924	800.000	-0.123	0.361
-448.909	-41.909	-0.391	-0.199
-447.895	515.973	0.109	-0.253
-446.880	126.389	0.068	-0.086
-445.865	194.934	0.110	0.166
-444.851	85.140	-0.184	-0.200
-443.836	-147.395	-0.292	0.025
-442.822	446.975	0.067	0.147
-441.807	764.680	-0.044	-0.120
-440.792	-114.025	0.111	0.021
-439.778	-200.000	0.073	-0.375
-438.763	-14.094	-0.238	-0.152
-437.749	-106.540	-0.227	-0.050
-436.734	-200.000	-0.031	0.147
-435.719	-116.779	-0.135	-0.025
-434.705	-158.911	-0.230	0.013
-433.690	-200.000	0.008	0.155
-432.676	472.038	0.099	0.222
-431.661	-200.000	0.024	-0.489
-430.646	-11.130	0.120	-0.078
-429.632	-200.000	-0.024	0.319
-428.617	-168.273	-0.381	-0.015
-427.603	-77.305	0.311	0.107
-426.588	800.000	0.042	-0.173
-425.573	-76.191	0.209	0.073
-424.559	-196.266	0.226	-0.002
-423.544	-140.590	-0.672	0.069
-422.530	800.000	0.145	0.417
-421.515	-37.814	0.323	0.171
-420.500	-24.294	-0.131	-0.078
-419.486	-196.496	0.142	-0.001
-418.471	800.000	0.060	-0.258
-417.457	-90.430	-0.198	-0.057
-416.442	-160.280	0.284	-0.015
-415.428	195.953	0.190	0.287
-414.413	-117.814	-0.410	-0.073
-413.398	-28.292	-0.146	-0.084
-412.384	-148.000	-0.192	0.016
-411.369	-200.000	0.025	0.370
-410.355	471.093	-0.082	-0.184
-409.340	-47.286	0.181	0.088
-408.325	396.175	-0.210	-0.435
-407.311	-114.555	-0.211	0.040
-406.296	175.072	0.112	0.161
-405.282	-200.000	-0.038	-0.174
-404.267	-184.373	0.159	-0.003
-403.252	575.004	-0.021	-0.052
-402.238	751.699	0.107	-0.286
-401.223	64.864	-0.084	-0.084
-400.209	-81.728	-0.290	-0.094
-399.194	71.641	0.077	0.079
-398.179	-200.000	0.040	0.325
-397.165	-200.000	-0.021	-0.169
-396.150	-49.986	-0.212	0.100
-395.136	31.168	0.278	-0.236
-394.121	418.652	-0.041	0.087
-393.106	-20.648	0.208	0.127
-392.092	-87.969	-0.128	-0.038
-391.077	123.067	0.096	0.119
-390.063	-95.490	-0.177	0.047
-389.048	-200.000	0.031	0.246
-388.033	45.939	0.065	0.060
-387.019	124.647	-0.169	-0.211
-386.004	-23.376	-0.331	-0.197
-384.990	-13.217	-0.025	-0.016
-383.975	-43.680	0.362	0.181
-382.960	-149.350	-0.221	-0.017
-381.946	-22.406	0.230	0.138
-380.931	14.714	0.273	-0.212
-379.917	-8.162	0.025	0.016
-378.902	-200.000	0.009	-0.049
-377.888	619.377	0.070	-0.174
-376.873	-36.704	-0.083	0.044
-375.858	51.514	-0.048	0.046
-374.844	307.040	-0.129	-0.239
-373.829	211.837	-0.180	0.281
-372.815	264.030	-0.124	-0.214
-371.800	800.000	0.086	0.286
-370.785	-6.540	-0.206	0.139
-369.771	-200.000	-0.005	0.343
-368.756	200.344	0.081	-0.124
-367.742	345.558	-0.088	0.172
-366.727	-200.000	0.025	-0.264
-365.712	209.998	-0.010	-0.016
-364.698	-200.000	0.028	-0.256
-363.683	-200.000	-0.008	0.036
-362.669	800.000	-0.065	-0.280
-361.654	-200.000	0.021	-0.272
-360.639	-200.000	-0.011	0.134
-359.625	381.664	0.104	0.212
-358.610	-200.000	-0.021	0.370
-357.596	-88.089	0.221	-0.066
-356.581	-113.717	-0.209	-0.040
-355.566	-200.000	0.021	-0.150
-354.552	450.044	0.048	-0.105
-353.537	219.539	-0.140	-0.223
-352.523	-200.000	-0.029	-0.195
-351.508	277.782	0.223	-0.393
-350.493	213.094	-0.106	-0.166
-349.479	16.008	-0.258	0.202
-348.464	389.689	-0.024	-0.050
-347.450	37.689	0.264	0.232
-346.435	16.492	-0.130	0.102
-345.420	800.000	0.038	-0.129
-344.406	237.389	0.293	-0.481
-343.391	-74.762	0.071	0.025
-342.377	144.206	-0.038	-0.051
-341.362	-20.903	-0.043	-0.026
-340.348	108.917	0.162	0.191
-339.333	-185.198	0.459	0.007
-338.318	222.794	-0.129	-0.205
-337.304	113.850	-0.250	0.301
-336.289	-87.333	0.337	-0.101
-335.275	457.210	0.068	0.149
-334.260	552.860	0.109	0.260
-333.245	96.625	0.214	-0.242
-332.231	-103.134	-0.183	-0.043
-331.216	63.609	-0.209	-0.207
-330.202	-4.641	0.225	-0.154
-329.187	277.385	0.176	0.311
-328.172	-32.343	0.215	0.119
-327.158	-200.000	-0.025	-0.151
-326.143	-97.621	0.325	-0.083
-325.129	-200.000	0.004	0.138
-324.114	-59.665	0.230	0.098
-323.099	-200.000	0.032	-0.257
-322.085	185.070	0.057	0.083
-321.070	-200.000	-0.020	0.122
-320.056	-147.907	-0.107	-0.009
-319.041	-52.631	0.255	0.116
-318.026	-106.658	0.326	0.072
-317.012	-94.620	-0.234	0.063
-315.997	800.000	-0.053	-0.168
-314.983	-200.000	-0.061	-0.390
-313.968	-200.000	0.240	0.000
-312.953	92.374	0.088	-0.098
-311.939	-200.000	0.008	-0.094
-310.924	7.206	-0.173	-0.128
-309.910	-200.000	-0.005	0.242
-308.895	196.166	0.090	-0.135
-307.880	184.380	-0.063	0.092
-306.866	-144.467	0.257	0.024
-305.851	-200.000	-0.004	-0.109
-304.837	8.532	-0.076	0.056
-303.822	611.681	-0.057	-0.141
-302.807	-187.857	0.155	-0.002
-301.793	-71.464	0.062	0.023
-300.778	-11.304	0.239	0.155
-299.764	-200.000	0.043	-0.251
-298.749	-47.067	0.251	-0.121
-297.735	-200.000	0.024	-0.149
-296.720	112.738	0.113	0.135
-295.705	-200.000	-0.041	0.187
-294.691	49.945	-0.087	0.081
-293.676	146.906	0.101	-0.134
-292.662	131.478	0.302	0.383
-291.647	-1.830	0.102	-0.071
-290.632	800.000	-0.099	0.302
-289.618	40.890	0.207	-0.185
-288.603	-200.000	-0.014	-0.083
-287.589	-47.393	-0.332	-0.159
-286.574	14.534	-0.041	0.032
-285.559	10.194	0.165	0.124
-284.545	800.000	0.060	-0.234
-283.530	-25.381	-0.175	-0.102
-282.516	53.267	0.069	0.066
-281.501	800.000	-0.024	-0.065
-280.486	-78.739	-0.037	-0.013
-279.472	-142.504	0.413	0.040
-278.457	193.586	-0.198	-0.296
-277.443	800.000	-0.022	0.077
-276.428	2.268	0.178	-0.127
-275.413	-200.000	0.005	-0.081
-274.399	800.000	0.099	0.335
-273.384	-200.000	-0.004	-0.201
-272.370	-105.519	-0.411	0.092
-271.355	125.343	0.339	0.423
-270.340	-200.000	-0.018	-0.167
-269.326	-63.012	-0.320	0.131
-268.311	43.466	0.295	0.266
-267.297	455.937	0.089	0.196
-266.282	-35.696	-0.289	0.154
-265.267	-200.000	0.008	0.086
-264.253	800.000	-0.033	0.121
-263.238	89.791	0.217	0.239
-262.224	-88.910	-0.074	-0.022
-261.209	-75.454	0.127	-0.045
-260.195	248.243	0.219	0.366
-259.180	-200.000	-0.013	0.382
-258.165	-200.000	0.014	-0.254
-257.151	-130.968	-0.020	0.003
-256.136	-97.507	0.256	-0.066
-255.122	30.194	-0.252	-0.212
-254.107	-66.426	0.247	-0.097
-253.092	-30.079	-0.105	-0.059
-252.078	-134.704	0.156	-0.019
-251.063	266.588	-0.131	0.226
-250.049	67.824	-0.206	-0.208
-249.034	-178.952	0.170	0.004
-248.019	441.812	0.015	-0.033
-247.005	-138.711	-0.079	-0.009
-245.990	47.237	-0.131	0.120
-244.976	-119.792	0.230	0.039
-243.961	-97.018	-0.243	-0.063
-242.946	-114.630	-0.172	-0.032
-241.932	-14.468	0.463	0.294
-240.917	-107.215	0.187	0.041
-239.903	-2.557	0.086	0.060
-238.888	-49.397	-0.129	-0.061
-237.873	173.626	0.283	0.402
-236.859	-140.637	0.196	0.020
-235.844	-150.054	-0.614	-0.047
-234.830	-37.404	-0.150	-0.079
-233.815	356.378	-0.076	0.149
-232.800	-200.000	0.051	-0.348
-231.786	-130.313	0.263	0.035
-230.771	-200.000	0.003	-0.112
-229.757	800.000	0.039	-0.152
-228.742	148.984	0.196	0.262
-227.727	311.717	0.109	0.201
-226.713	291.344	-0.037	-0.066
-225.698	613.615	0.147	0.363
-224.684	-3.709	0.030	-0.021
-223.669	34.878	-0.127	-0.110
-222.655	-200.000	0.003	0.169
-221.640	-200.000	0.002	0.208
-220.625	80.604	0.199	-0.211
-219.611	433.356	-0.137	0.294
-218.596	67.603	0.138	0.139
-217.582	266.695	0.090	-0.155
-216.567	146.414	0.144	-0.191
-215.552	116.656	0.119	-0.143
-214.538	-24.394	0.232	-0.136
-213.523	-86.185	0.126	-0.038
-212.509	-200.000	-0.054	0.248
-211.494	114.944	-0.126	-0.151
-210.479	-200.000	0.006	0.267
-209.465	-107.712	0.094	0.020
-208.450	-200.000	0.011	0.117
-207.436	-80.252	0.029	-0.010
-206.421	461.628	0.115	0.253
-205.406	-19.021	0.150	0.092
-204.392	472.220	-0.069	0.153
-203.377	106.084	0.093	0.108
-202.363	-95.486	0.050	-0.013
-201.348	458.442	-0.071	-0.155
-200.333	-115.340	-0.391	0.073
-199.319	-109.347	-0.231	-0.048
-198.304	-200.000	0.096	0.422
-197.290	-160.954	-0.151	0.008
-196.275	514.040	-0.110	-0.252
-195.260	340.219	-0.059	-0.113
-194.246	190.718	0.177	-0.262
-193.231	-20.982	0.339	0.204
-192.217	138.471	-0.141	-0.183
-191.202	800.000	0.012	0.037
-190.187	194.595	-0.014	-0.022
-189.173	414.273	0.131	-0.275
-188.158	-200.000	0.105	0.455
-187.144	705.770	0.047	-0.121
-186.129	-182.696	0.279	0.005
-185.114	-115.607	0.196	-0.036
-184.100	800.000	-0.037	-0.115
-183.085	56.691	0.204	-0.196
-182.071	-200.000	0.013	0.132
-181.056	-200.000	0.007	0.144
-180.042	738.371	0.052	-0.137
-179.027	-200.000	0.023	-0.139
-178.012	-187.632	-0.144	0.002
-176.998	800.000	-0.015	-0.042
-175.983	-174.969	0.500	0.014
-174.969	-200.000	-0.026	0.306
-173.954	-200.000	0.009	0.198
-172.939	190.951	-0.143	-0.211
-171.925	800.000	0.046	-0.153
-170.910	-127.839	-0.337	0.048
-169.896	204.641	-0.111	0.170
-168.881	-64.388	0.082	-0.033
-167.866	72.958	-0.304	-0.312
-166.852	46.965	-0.126	0.116
-165.837	259.888	0.028	-0.048
-164.823	37.206	0.122	-0.106
-163.808	-167.339	-0.309	-0.012
-162.793	-100.574	-0.141	-0.034
-161.779	215.024	-0.040	-0.062
-160.764	443.338	0.020	-0.044
-159.750	800.000	0.058	-0.185
-158.735	-57.124	0.104	-0.045
-157.720	61.722	-0.208	0.203
-156.706	13.619	0.088	0.067
-155.691	281.953	-0.125	0.221
-154.677	229.973	-0.130	0.208
-153.662	-200.000	0.045	-0.320
-152.647	-200.000	0.053	-0.475
-151.633	244.493	-0.052	0.085
-150.618	-6.925	0.313	0.209
-149.604	-200.000	0.005	0.033
-148.589	500.131	-0.146	-0.330
-147.574	-26.026	-0.391	-0.226
-146.560	-72.941	0.216	0.078
-145.545	-200.000	-0.063	0.279
-144.531	-20.440	0.086	0.052
-143.516	137.835	-0.148	-0.190
-142.502	-200.000	0.003	-0.100
-141.487	-76.899	0.303	-0.104
-140.472	236.500	-0.067	0.109
-139.458	-65.839	0.039	-0.015
-138.443	-130.964	0.177	-0.023
-137.429	205.613	0.202	0.309
-136.414	-19.171	-0.038	-0.023
-135.399	-200.000	-0.001	-0.074
-134.385	800.000	0.035	0.136
-133.370	101.183	0.131	0.149
-132.356	-83.621	-0.172	0.054
-131.341	-133.549	0.065	0.008
-130.326	-200.000	0.007	0.313
-129.312	284.712	0.141	0.249
-128.297	224.556	0.067	0.107
-127.283	-163.932	-0.121	-0.006
-126.268	155.707	0.151	0.204
-125.253	40.024	0.093	0.082
-124.239	180.788	0.230	0.331
-123.224	-135.817	0.063	0.007
-122.210	-75.031	0.050	0.017
-121.195	800.000	-0.085	0.248
-120.180	-121.350	-0.147	0.024
-119.166	-85.395	-0.026	0.008
-118.151	-152.477	0.309	-0.022
-117.137	290.134	0.058	-0.104
-116.122	-40.789	-0.133	0.068
-115.107	-200.000	-0.008	-0.159
-114.093	-54.611	0.103	0.046
-113.078	-149.015	-0.134	-0.011
-112.064	200.465	0.191	0.287
-111.049	800.000	-0.057	0.158
-110.034	-29.221	0.095	0.053
-109.020	162.079	0.186	0.255
-108.005	800.000	0.089	-0.305
-106.991	-115.298	0.186	0.035
-105.976	-200.000	-0.037	0.215
-104.962	-55.031	-0.102	-0.045
-103.947	-200.000	-0.001	0.192
-102.932	175.347	0.180	0.256
-101.918	156.917	0.139	0.188
-100.903	30.171	-0.097	0.081
-99.889	-148.124	-0.163	-0.013
-98.874	800.000	0.080	0.338
-97.859	800.000	0.067	0.203
-96.845	648.205	-0.109	0.273
-95.830	-78.623	0.153	-0.051
-94.816	-62.028	-0.254	-0.104
-93.801	-130.700	-0.245	0.032
-92.786	-95.134	-0.263	-0.070
-91.772	-74.545	0.274	-0.097
-90.757	-200.000	-0.038	-0.365
-89.743	-200.000	-0.006	0.035
-88.728	-25.971	0.144	0.083
-87.713	-200.000	0.035	-0.409
-86.699	38.388	-0.248	-0.216
-85.684	-143.639	0.342	0.032
-84.670	-162.741	-0.490	-0.024
-83.655	127.074	-0.064	0.079
-82.640	539.670	0.068	0.158
-81.626	27.210	-0.206	-0.169
-80.611	261.648	-0.084	-0.143
-79.597	-129.441	0.273	-0.037
-78.582	321.485	-0.078	0.145
-77.567	-73.650	0.204	0.073
-76.553	-200.000	-0.027	-0.156
-75.538	-200.000	0.049	-0.211
-74.524	597.964	-0.127	0.308
-73.509	88.623	0.115	0.125
-72.494	92.430	0.174	-0.192
-71.480	424.684	0.059	-0.125
-70.465	800.000	-0.015	-0.064
-69.451	-200.000	-0.052	-0.359
-68.436	459.413	0.191	-0.417
-67.422	225.954	0.153	-0.242
-66.407	-200.000	0.048	-0.208
-65.392	535.375	-0.102	-0.236
-64.378	525.089	-0.102	-0.234
-63.363	-133.079	-0.204	-0.025
-62.349	800.000	-0.070	0.269
-61.334	25.127	-0.958	-0.779
-60.319	100.694	0.535	0.609
-59.305	482.861	-0.474	-1.055
-58.290	279.276	0.630	1.101
-57.276	306.831	0.805	1.467
-56.261	-200.000	114.958	646.073
-55.246	468.812	1510.529	3319.929
-54.232	146.638	2678.740	3523.707
-53.217	103.054	2153.200	2469.794
-52.203	38.521	1597.552	1394.460
-51.188	30.335	1342.154	1122.235
-50.173	27.562	1304.254	1074.187
-49.159	54.871	1360.433	1285.405
-48.144	53.327	1374.109	1289.019
-47.130	30.610	1330.124	1113.648
-46.115	27.299	1311.543	1078.454
-45.100	27.002	1306.538	1072.542
-44.086	26.979	1304.459	1070.661
-43.071	26.963	1301.786	1068.331
-42.057	26.920	1300.221	1066.751
-41.042	26.976	1298.041	1065.249
-40.027	27.082	1296.332	1064.422
-39.013	26.975	1294.856	1062.540
-37.998	27.058	1292.831	1061.324
-36.984	27.166	1291.454	1060.780
-35.969	27.170	1289.124	1058.850
-34.954	27.127	1287.952	1057.596
-33.940	27.202	1286.527	1056.819
-32.925	27.172	1285.267	1055.568
-31.911	27.236	1283.210	1054.208
-30.896	27.332	1281.679	1053.465
-29.881	27.296	1280.721	1052.426
-28.867	27.280	1278.975	1050.858
-27.852	27.316	1277.487	1049.802
-26.838	27.211	1276.614	1048.438
-25.823	27.220	1275.454	1047.495
-24.809	27.205	1273.909	1046.096
-23.794	27.139	1272.406	1044.439
-22.779	27.174	1271.265	1043.665
-21.765	27.249	1270.202	1043.179
-20.750	27.244	1268.897	1042.037
-19.736	27.201	1267.693	1040.761
-18.721	27.080	1266.423	1038.985
-17.706	27.210	1265.282	1038.753
-16.692	27.137	1263.832	1037.107
-15.677	27.198	1263.123	1036.826
-14.663	27.195	1261.786	1035.673
-13.648	26.995	1261.133	1033.959
-12.633	27.100	1259.680	1033.323
-11.619	27.105	1258.893	1032.662
-10.604	27.135	1257.958	1032.027
-9.590	27.117	1257.020	1031.111
-8.575	27.114	1255.915	1030.147
-7.560	26.994	1255.280	1028.910
-6.546	27.054	1254.347	1028.443
-5.531	27.132	1253.133	1027.848
-4.517	27.071	1252.689	1027.095
-3.502	27.111	1251.796	1026.550
-2.487	27.128	1250.280	1025.360
-1.473	27.104	1245.855	1021.559
-0.458	25.482	1232.072	1001.188
0.556	20.846	1215.497	965.116
1.571	17.435	1221.643	950.880
2.586	16.624	1237.039	958.192
3.600	16.847	1225.479	950.403
4.615	15.464	1159.582	891.872
5.629	12.487	1093.541	826.068
6.644	11.053	1077.116	806.490
7.659	10.916	1075.051	804.196
8.673	10.804	1074.025	802.803
9.688	10.967	1072.220	802.187
10.702	11.103	1069.886	801.041
11.717	12.641	1071.946	810.085
12.731	15.831	1075.608	828.508
13.746	17.574	1077.579	838.541
14.761	17.658	1076.683	838.186
15.775	16.640	1075.195	831.950
16.790	15.709	1072.597	825.296
17.804	14.880	1071.368	820.214
18.819	14.400	1069.853	816.630
19.834	14.174	1068.989	814.794
20.848	13.912	1068.652	813.182
21.863	13.688	1067.777	811.348
22.877	13.570	1066.803	809.960
23.892	13.454	1066.171	808.840
24.907	13.557	1065.410	808.691
25.921	13.496	1064.221	807.422
26.936	13.640	1062.689	806.889
27.950	13.784	1061.476	806.597
28.965	13.793	1060.328	805.696
29.980	13.788	1058.530	804.236
30.994	13.866	1056.904	803.305
32.009	13.831	1056.353	802.647
33.023	13.845	1055.242	801.798
34.038	13.771	1054.558	800.851
35.053	13.661	1053.600	799.523
36.067	13.648	1052.804	798.786
37.082	13.728	1051.879	798.396
38.096	13.716	1050.996	797.597
39.111	13.704	1050.194	796.862
40.126	13.653	1049.019	795.655
41.140	13.404	1047.753	793.431
42.155	13.470	1046.919	793.044
43.169	13.456	1045.615	791.918
44.184	13.413	1044.754	790.992
45.199	13.581	1043.676	790.909
46.213	13.443	1042.599	789.364
47.228	13.624	1041.470	789.302
48.242	13.731	1039.947	788.589
49.257	13.593	1039.717	787.686
50.271	13.638	1038.751	787.100
51.286	13.732	1037.711	786.689
52.301	13.663	1036.966	785.726
53.315	13.755	1035.625	785.075
54.330	13.681	1034.539	783.833
55.344	13.601	1033.343	782.480
56.359	13.545	1032.886	781.801
57.374	13.621	1031.877	781.324
58.388	13.516	1030.939	780.053
59.403	13.371	1030.360	778.862
60.417	13.589	1029.205	778.947
61.432	13.498	1028.443	777.870
62.447	13.425	1027.824	776.992
63.461	13.413	1027.086	776.307
64.476	13.490	1025.795	775.626
65.490	13.496	1025.048	775.019
66.505	13.488	1024.560	774.545
67.520	13.557	1023.393	773.917
68.534	13.425	1023.007	772.942
69.549	13.429	1022.701	772.660
70.563	13.408	1021.587	771.652
71.578	13.479	1020.470	771.068
72.593	13.393	1019.658	769.987
73.607	13.353	1019.114	769.324
74.622	13.355	1018.654	768.915
75.636	13.411	1017.885	768.529
76.651	13.314	1017.447	767.680
77.666	13.405	1016.752	767.511
78.680	13.508	1016.159	767.469
79.695	13.365	1015.767	766.443
80.709	13.385	1015.029	765.914
81.724	13.506	1014.095	765.699
82.739	13.593	1013.266	765.405
83.753	13.637	1012.945	765.300
84.768	13.786	1011.805	765.057
85.782	13.767	1010.808	764.149
86.797	13.650	1009.934	762.880
87.812	13.544	1009.269	761.825
88.826	13.618	1007.760	760.957
89.841	13.679	1007.234	760.772
90.855	13.873	1005.826	760.531
91.870	13.813	1005.071	759.619
92.884	13.820	1004.441	759.107
93.899	13.725	1003.790	758.115
94.914	13.840	1002.824	757.842
95.928	13.866	1001.833	757.148
96.943	13.852	1000.730	756.181
97.957	13.742	1000.349	755.324
98.972	13.787	999.213	754.607
99.987	13.844	998.362	754.156
101.001	13.812	997.583	753.353
102.016	13.857	996.542	752.706
103.030	13.845	995.746	751.984
104.045	13.870	995.201	751.621
105.060	13.765	994.198	750.321
106.074	13.648	993.355	749.092
107.089	13.672	991.956	748.076
108.103	13.658	990.997	747.222
109.118	13.527	990.263	746.015
110.133	13.456	989.537	745.082
111.147	13.635	988.235	744.838
112.162	13.587	988.031	744.405
113.176	13.572	987.013	743.503
114.191	13.623	986.581	743.343
115.206	13.645	985.065	742.233
116.220	13.835	984.433	742.542
117.235	13.765	983.210	741.240
118.249	13.652	982.537	740.165
119.264	13.612	982.195	739.663
120.279	13.751	981.074	739.373
121.293	13.643	980.393	738.309
122.308	13.622	979.639	737.583
123.322	13.612	978.112	736.324
124.337	13.537	977.459	735.434
125.352	13.587	976.507	734.874
126.366	13.596	975.272	733.923
127.381	13.488	974.600	732.873
128.395	13.479	973.605	732.021
129.410	13.706	972.737	732.305
130.424	13.774	971.573	731.666
131.439	13.693	971.169	730.940
132.454	13.642	970.446	730.103
133.468	13.748	969.140	729.523
134.483	13.794	968.586	729.242
135.497	13.708	967.523	728.003
136.512	13.706	966.690	727.303
137.527	13.626	966.296	726.589
138.541	13.656	965.517	726.072
139.556	13.835	965.029	726.425
140.570	13.816	963.925	725.446
141.585	13.898	962.795	724.889
142.600	13.886	962.218	724.337
143.614	14.016	961.209	724.080
144.629	14.110	960.203	723.666
145.643	13.982	959.499	722.519
146.658	13.914	958.545	721.440
147.673	13.806	957.886	720.409
148.687	13.698	957.088	719.277
149.702	13.838	956.105	719.082
150.716	13.863	955.171	718.423
151.731	13.789	954.949	717.873
152.746	13.878	953.909	717.411
153.760	13.852	953.317	716.791
154.775	13.893	953.094	716.738
155.789	13.890	952.251	716.027
156.804	13.904	951.492	715.456
157.819	13.983	950.552	715.022
158.833	14.103	949.763	714.885
159.848	14.185	948.678	714.356
160.862	14.098	948.260	713.605
161.877	14.071	946.750	712.289
162.892	13.830	946.118	710.719
163.906	13.887	945.013	710.070
164.921	13.882	944.594	709.672
165.935	13.978	943.479	709.179
166.950	14.051	942.611	708.777
167.964	13.906	942.102	707.711
168.979	13.909	940.788	706.674
169.994	13.840	940.051	705.767
171.008	13.984	939.164	705.648
172.023	14.070	938.433	705.402
173.037	14.088	937.857	704.982
174.052	14.139	937.728	705.038
175.067	13.980	936.840	703.637
176.081	14.074	936.299	703.566
177.096	14.060	935.586	702.910
178.110	14.046	934.840	702.229
179.125	13.987	934.774	701.865
180.140	14.043	934.260	701.655
181.154	14.241	933.293	701.702
182.169	14.313	932.781	701.558
183.183	14.203	932.328	700.692
184.198	14.246	931.641	700.292
185.213	14.312	930.838	699.906
186.227	14.296	929.914	699.082
187.242	14.190	929.816	698.501
188.256	14.381	928.808	698.482
189.271	14.269	927.943	697.301
190.286	14.062	927.487	696.032
191.300	14.132	926.657	695.638
192.315	14.025	926.087	694.705
193.329	14.092	925.513	694.490
194.344	14.098	924.819	693.933
195.359	14.024	924.362	693.218
196.373	14.309	923.771	693.905
197.388	14.468	923.129	694.022
198.402	14.374	922.820	693.339
199.417	14.401	922.262	692.967
200.432	14.644	921.257	693.163
201.446	14.553	920.820	692.393
202.461	14.618	920.644	692.470
203.475	14.580	919.732	691.566
204.490	14.524	918.889	690.637
205.504	14.567	918.408	690.392
206.519	14.529	917.197	689.264
207.534	14.381	916.754	688.260
208.548	14.566	915.885	688.310
209.563	14.459	915.689	687.661
210.577	14.548	914.753	687.264
211.592	14.644	914.348	687.294
212.607	14.564	913.838	686.519
213.621	14.753	913.056	686.649
214.636	14.707	912.137	685.708
215.650	14.726	911.778	685.457
216.665	14.735	910.737	684.650
217.680	14.712	910.157	684.059
218.694	14.765	909.507	683.727
219.709	14.693	908.806	682.844
220.723	14.770	907.984	682.482
221.738	14.818	907.295	682.097
222.753	14.743	906.971	681.487
223.767	14.824	906.187	681.168
224.782	14.797	905.502	680.483
225.796	14.886	905.407	680.716
226.811	14.818	904.654	679.812
227.826	14.762	903.988	679.025
228.840	14.689	903.098	677.999
229.855	14.870	901.941	677.805
230.869	14.946	901.193	677.489
231.884	14.888	900.687	676.816
232.899	14.821	899.913	675.903
233.913	14.703	899.445	675.014
234.928	14.786	898.538	674.606
235.942	14.709	898.442	674.166
236.957	14.845	897.428	673.894
237.972	14.769	897.000	673.208
238.986	14.873	896.431	673.138
240.001	14.850	895.751	672.477
241.015	14.946	894.882	672.149
242.030	14.927	894.710	671.885
243.045	14.950	893.828	671.253
244.059	15.017	893.156	670.959
245.074	14.956	892.963	670.512
246.088	14.940	892.193	669.809
247.103	15.072	891.440	669.712
248.117	15.180	890.921	669.693
249.132	15.162	890.437	669.199
250.147	15.284	889.707	669.078
251.161	15.283	889.044	668.519
252.176	15.197	888.476	667.690
253.190	15.347	887.668	667.618
254.205	15.328	887.330	667.232
255.220	15.410	886.551	666.913
256.234	15.328	886.064	666.160
257.249	15.383	885.297	665.745
258.263	15.420	884.732	665.405
259.278	15.444	883.700	664.668
260.293	15.387	883.539	664.261
261.307	15.490	882.862	664.101
262.322	15.585	882.220	663.935
263.336	15.720	881.365	663.764
264.351	15.510	880.837	662.481
265.366	15.642	880.057	662.355
266.380	15.577	879.531	661.647
267.395	15.528	878.749	660.804
268.409	15.579	877.730	660.180
269.424	15.540	877.485	659.786
270.439	15.537	876.308	658.828
271.453	15.514	875.906	658.378
272.468	15.564	875.264	658.033
273.482	15.565	875.025	657.801
274.497	15.593	874.285	657.295
275.512	15.582	873.689	656.746
276.526	15.647	873.287	656.639
277.541	15.644	872.839	656.234
278.555	15.722	872.101	655.925
279.570	15.735	871.339	655.344
280.585	15.844	870.363	654.977
281.599	15.779	869.611	654.099
282.614	15.789	869.077	653.678
283.628	15.809	868.458	653.231
284.643	15.771	868.116	652.769
285.657	15.782	867.202	652.068
286.672	15.779	866.526	651.489
287.687	15.669	866.729	651.158
288.701	15.756	865.621	650.607
289.716	15.739	865.188	650.157
290.730	15.976	864.258	650.316
291.745	15.879	863.831	649.562
292.760	15.940	863.180	649.252
293.774	16.089	862.619	649.345
294.789	16.051	862.249	648.863
295.803	15.935	861.371	647.700
296.818	15.992	860.398	647.128
297.833	16.052	860.005	647.008
298.847	15.908	859.340	645.898
299.862	15.931	858.647	645.407
300.876	16.106	858.304	645.761
301.891	16.143	857.322	645.107
302.906	16.144	857.236	644.992
303.920	16.176	856.856	644.768
304.935	16.104	856.361	644.064
305.949	16.237	855.477	643.848
306.964	16.164	855.052	643.197
307.979	16.180	854.134	642.507
308.993	16.229	854.212	642.697
310.008	16.201	853.301	641.849
311.022	16.158	852.901	641.326
312.037	16.047	852.482	640.533
313.052	16.051	851.420	639.693
314.066	16.087	850.845	639.343
315.081	16.177	850.591	639.435
316.095	16.165	849.470	638.492
317.110	16.172	848.981	638.093
318.125	16.157	848.353	637.509
319.139	16.209	847.962	637.355
320.154	16.130	847.629	636.748
321.168	16.152	846.913	636.239
322.183	16.191	846.445	635.976
323.197	16.150	845.924	635.375
324.212	16.245	845.535	635.384
325.227	16.329	844.749	635.054
326.241	16.364	843.994	634.559
327.256	16.233	843.622	633.733
328.270	16.385	842.799	633.629
329.285	16.306	842.228	632.846
330.300	16.293	841.701	632.347
331.314	16.316	841.286	632.065
332.329	16.351	841.080	631.987
333.343	16.295	840.683	631.421
334.358	16.555	840.130	631.923
335.373	16.539	839.617	631.419
336.387	16.379	839.532	630.702
337.402	16.498	839.328	630.937
338.416	16.489	839.183	630.738
339.431	16.708	838.277	630.821
340.446	16.607	838.182	630.315
341.460	16.639	837.984	630.232
342.475	16.809	837.008	630.071
343.489	16.802	836.706	629.762
344.504	16.801	836.000	629.173
345.519	16.760	835.818	628.826
346.533	16.822	835.219	628.551
347.548	16.689	834.915	627.773
348.562	16.627	834.204	626.954
349.577	16.694	833.779	626.827
350.592	16.604	833.077	625.913
351.606	16.631	832.296	625.370
352.621	16.688	831.297	624.773
353.635	16.837	830.727	624.839
354.650	16.697	830.594	624.169
355.665	16.772	829.587	623.631
356.679	16.793	829.071	623.267
357.694	16.879	828.398	623.021
358.708	16.986	827.330	622.554
359.723	16.912	827.129	622.079
360.738	16.868	826.735	621.566
361.752	16.872	826.251	621.160
362.767	17.026	825.497	621.103
363.781	16.965	825.470	620.806
364.796	17.049	824.703	620.478
365.810	17.089	824.372	620.323
366.825	17.203	823.909	620.333
367.840	17.063	823.599	619.537
368.854	17.061	822.786	618.861
369.869	17.139	822.371	618.778
370.883	17.084	821.924	618.189
371.898	17.043	822.018	618.054
372.913	17.198	821.441	618.131
373.927	17.087	821.211	617.500
374.942	17.215	820.142	617.103
375.956	17.183	819.736	616.629
376.971	17.307	819.446	616.805
377.986	17.255	819.082	616.288
379.000	17.328	818.971	616.414
380.015	17.380	818.100	615.893
381.029	17.429	817.437	615.516
382.044	17.255	816.817	614.366
383.059	17.384	816.249	614.352
384.073	17.261	815.556	613.333
385.088	17.376	815.140	613.378
386.102	17.265	814.737	612.623
387.117	17.275	814.226	612.217
388.132	17.236	813.490	611.472
389.146	17.451	812.538	611.475
390.161	17.383	812.550	611.184
391.175	17.433	811.913	610.832
392.190	17.338	811.323	609.992
393.205	17.355	811.311	609.991
394.219	17.490	810.716	609.973
395.234	17.378	810.520	609.369
396.248	17.410	809.897	608.963
397.263	17.334	809.606	608.419
398.278	17.347	809.059	608.000
399.292	17.222	808.731	607.251
400.307	17.370	807.876	607.085
401.321	17.349	807.575	606.730
402.336	17.419	807.296	606.717
403.350	17.562	806.608	606.656
404.365	17.510	806.607	606.416
405.380	17.604	805.678	605.998
406.394	17.670	805.246	605.854
407.409	17.619	804.876	605.341
408.423	17.620	804.618	605.096
409.438	17.669	804.259	604.946
410.453	17.918	803.843	605.463
411.467	17.786	803.339	604.561
412.482	17.856	802.865	604.398
413.496	17.933	802.250	604.157
414.511	17.803	802.074	603.511
415.526	17.739	801.778	603.009
416.540	17.868	801.236	603.003
417.555	17.965	800.911	603.046
418.569	17.875	800.052	602.031
419.584	17.850	799.951	601.812
420.599	18.027	799.168	601.795
421.613	111.757	1294.489	1476.040
422.628	96.258	1366.640	1476.130
