DTS Sentinel unit serial number:	SN413079Multiplexer serial number:	ORYXHardware model number:	OX4-SRSoftware version number:	ORYX F/W v4.00 Oryx Data Collector v3.7.2.0data status	okinstallation	princeton_trtdifferential loss correction	single-endedforward channel	channel 1reverse channel	N/Adate	2019/09/10time	21:08:11forward acquisition time	60.00reverse acquisition time	0.00gamma	496.2192k internal	0.2329k external	0.2329temperature offset calibration	0.9935default loss term (dB/km)	0.3790temperature slope calibration	1.0000multiplexer offset coefficient	1.0000multiplexer slope coefficient	1.0000fibre end	0.00T internal ref (°C)	31.50T ext. ref 1 (°C)	-0.32T ext. ref 2 (°C)	24.58length (m)	temperature (°C)	Stokes	anti-Stokes-747.200	800.000	-0.043	0.152
-746.185	133.971	-0.177	0.231
-745.171	-60.633	0.044	-0.019
-744.156	309.182	-0.109	-0.206
-743.142	-139.966	0.045	-0.005
-742.127	49.807	-0.274	0.260
-741.112	315.568	0.021	0.040
-740.098	-200.000	0.045	0.352
-739.083	-74.971	-0.157	-0.057
-738.069	-200.000	0.016	0.154
-737.054	79.474	-0.189	0.204
-736.039	118.734	-0.071	0.088
-735.025	-200.000	0.009	0.061
-734.010	29.171	0.186	-0.159
-732.996	-200.000	-0.021	-0.152
-731.981	-18.104	-0.250	0.158
-730.966	390.218	0.051	-0.106
-729.952	-195.670	-0.197	-0.001
-728.937	-125.680	-0.421	-0.064
-727.923	367.222	-0.140	-0.284
-726.908	123.230	-0.218	-0.275
-725.894	-173.965	0.184	-0.005
-724.879	-44.290	-0.165	-0.083
-723.864	31.107	-0.135	-0.116
-722.850	-111.392	0.157	0.032
-721.835	-67.907	-0.169	0.067
-720.821	24.524	-0.139	-0.115
-719.806	75.811	-0.235	-0.250
-718.791	800.000	-0.166	-0.531
-717.777	-200.000	-0.009	0.073
-716.762	-167.037	0.234	0.010
-715.748	272.447	-0.109	-0.194
-714.733	65.363	-0.247	-0.252
-713.718	122.430	0.113	-0.142
-712.704	206.103	0.061	-0.095
-711.689	-31.667	0.160	-0.091
-710.675	800.000	0.061	-0.173
-709.660	-95.685	-0.124	0.033
-708.645	-0.289	-0.161	0.115
-707.631	-77.962	-0.089	0.031
-706.616	-200.000	0.012	-0.097
-705.602	255.026	0.130	-0.225
-704.587	6.400	0.084	-0.063
-703.572	-200.000	-0.079	-0.381
-702.558	-191.336	-0.157	0.002
-701.543	-3.787	0.197	0.138
-700.529	800.000	0.073	-0.214
-699.514	103.368	0.182	-0.215
-698.499	-200.000	0.012	0.089
-697.485	20.052	-0.054	-0.044
-696.470	-30.532	-0.178	-0.102
-695.456	-153.896	0.323	-0.022
-694.441	-181.379	-0.089	0.002
-693.426	95.257	0.256	-0.294
-692.412	257.001	-0.108	-0.186
-691.397	30.297	0.140	0.120
-690.383	57.845	0.194	-0.191
-689.368	104.115	-0.257	0.304
-688.354	800.000	0.083	-0.310
-687.339	47.672	0.086	0.081
-686.324	116.458	0.077	0.095
-685.310	-186.509	-0.494	-0.007
-684.295	-163.252	0.261	0.013
-683.281	-40.831	-0.055	0.029
-682.266	-124.798	-0.316	-0.049
-681.251	-26.193	-0.253	0.149
-680.237	130.398	-0.150	-0.193
-679.222	315.841	0.203	-0.384
-678.208	-131.397	-0.255	-0.034
-677.193	-116.830	-0.327	-0.060
-676.178	-32.074	0.188	0.106
-675.164	49.793	0.154	0.146
-674.149	97.970	-0.089	-0.103
-673.135	-99.852	-0.066	-0.017
-672.120	357.195	0.141	-0.283
-671.105	-83.457	-0.207	-0.067
-670.091	-57.117	-0.284	-0.126
-669.076	-94.234	0.010	-0.003
-668.062	381.537	0.082	0.170
-667.047	-93.105	-0.335	-0.094
-666.032	-45.765	-0.221	-0.110
-665.018	-101.296	-0.406	-0.100
-664.003	-149.930	-0.377	-0.030
-662.989	-200.000	-0.037	-0.229
-661.974	-200.000	0.005	-0.049
-660.959	-87.793	-0.319	-0.096
-659.945	-56.893	-0.168	-0.075
-658.930	81.084	0.159	0.172
-657.916	172.696	-0.026	-0.037
-656.901	-200.000	-0.074	-0.339
-655.886	-102.860	-0.317	-0.076
-654.872	-63.177	0.080	-0.033
-653.857	-200.000	0.020	-0.156
-652.843	504.406	-0.070	-0.163
-651.828	-200.000	-0.053	-0.259
-650.814	311.339	0.109	-0.205
-649.799	98.314	0.058	-0.067
-648.784	-200.000	-0.037	-0.257
-647.770	64.186	0.304	-0.307
-646.755	-150.967	-0.452	-0.034
-645.741	-200.000	0.005	0.128
-644.726	48.132	-0.055	-0.052
-643.711	-53.098	-0.165	0.076
-642.697	-200.000	-0.026	-0.282
-641.682	-8.567	0.243	-0.164
-640.668	-69.057	-0.243	-0.094
-639.653	-157.391	-0.025	-0.002
-638.638	-200.000	-0.017	0.094
-637.624	-200.000	0.009	-0.256
-636.609	-50.396	-0.475	-0.225
-635.595	-200.000	0.025	-0.150
-634.580	30.003	-0.261	-0.223
-633.565	-200.000	-0.121	0.001
-632.551	800.000	-0.038	-0.135
-631.536	-200.000	-0.113	0.509
-630.522	-56.499	-0.534	-0.238
-629.507	509.147	-0.113	-0.264
-628.492	-39.307	-0.289	-0.152
-627.478	440.717	0.170	-0.373
-626.463	-50.677	0.194	0.092
-625.449	-200.000	-0.051	0.225
-624.434	-105.161	-0.164	-0.038
-623.419	92.208	0.090	0.101
-622.405	69.728	-0.137	0.141
-621.390	438.563	-0.074	0.161
-620.376	-54.401	0.104	-0.047
-619.361	-34.593	0.210	0.115
-618.346	-95.268	-0.342	-0.092
-617.332	-88.139	-0.151	0.045
-616.317	-82.566	-0.122	-0.040
-615.303	-123.059	0.391	0.063
-614.288	-1.004	0.325	0.230
-613.273	142.977	-0.282	-0.376
-612.259	-43.546	-0.215	-0.109
-611.244	-136.339	-0.378	0.044
-610.230	164.119	0.048	0.068
-609.215	-200.000	0.022	-0.168
-608.201	340.437	-0.089	-0.173
-607.186	384.016	-0.130	-0.268
-606.171	-80.647	-0.294	-0.098
-605.157	87.397	-0.105	0.116
-604.142	283.718	-0.129	0.232
-603.128	106.870	-0.172	-0.205
-602.113	352.100	0.099	-0.196
-601.098	-8.792	-0.233	-0.156
-600.084	-193.594	0.161	0.001
-599.069	-91.258	-0.198	0.057
-598.055	107.436	-0.164	-0.196
-597.040	32.070	0.193	-0.167
-596.025	-62.550	-0.144	-0.060
-595.011	-72.040	-0.109	-0.040
-593.996	-2.534	0.172	-0.120
-592.982	800.000	-0.059	0.219
-591.967	-148.968	0.298	0.024
-590.952	-200.000	0.100	0.000
-589.938	-28.098	0.252	0.146
-588.923	-200.000	0.002	0.012
-587.909	-129.677	0.121	0.017
-586.894	-62.927	-0.312	-0.129
-585.879	-200.000	-0.002	-0.174
-584.865	-200.000	-0.039	0.345
-583.850	-132.402	0.127	-0.016
-582.836	363.874	0.281	-0.565
-581.821	-77.869	-0.188	-0.065
-580.806	-35.323	-0.117	-0.064
-579.792	-200.000	-0.038	-0.222
-578.777	73.447	0.151	-0.158
-577.763	5.104	-0.212	-0.156
-576.748	-148.803	-0.291	-0.024
-575.733	364.974	-0.165	-0.332
-574.719	-14.234	-0.202	-0.130
-573.704	-21.180	-0.212	0.130
-572.690	-82.440	-0.082	-0.027
-571.675	-39.591	0.230	-0.121
-570.661	-200.000	0.002	0.232
-569.646	-200.000	-0.151	-0.001
-568.631	-11.735	0.124	0.082
-567.617	-200.000	0.056	0.354
-566.602	-74.793	-0.203	-0.073
-565.588	-13.457	0.234	-0.152
-564.573	800.000	-0.115	0.414
-563.558	-200.000	-0.056	-0.253
-562.544	-200.000	0.006	0.133
-561.529	-125.761	-0.100	0.015
-560.515	36.969	0.342	0.303
-559.500	423.427	0.085	-0.184
-558.485	166.972	-0.125	-0.177
-557.471	20.979	0.229	0.186
-556.456	286.025	-0.063	-0.113
-555.442	800.000	0.065	0.267
-554.427	-200.000	-0.008	0.071
-553.412	800.000	-0.071	0.263
-552.398	-200.000	-0.057	-0.359
-551.383	800.000	-0.052	0.198
-550.369	-78.747	0.434	0.148
-549.354	44.345	-0.274	-0.252
-548.339	800.000	0.047	-0.186
-547.325	112.736	0.188	0.228
-546.310	-64.283	-0.156	-0.063
-545.296	-163.154	0.233	-0.011
-544.281	416.736	-0.033	0.071
-543.266	124.346	-0.120	-0.150
-542.252	-200.000	0.019	-0.430
-541.237	-57.328	0.129	0.057
-540.223	-72.544	-0.233	-0.086
-539.208	-0.244	0.116	0.082
-538.193	-9.514	-0.291	-0.194
-537.179	66.121	-0.221	-0.224
-536.164	-200.000	-0.017	0.182
-535.150	800.000	-0.096	0.333
-534.135	679.259	-0.101	0.264
-533.121	-180.011	-0.256	-0.005
-532.106	-200.000	-0.010	0.108
-531.091	122.874	0.031	0.038
-530.077	247.134	-0.164	-0.277
-529.062	-200.000	0.013	0.518
-528.048	-153.702	0.175	-0.012
-527.033	-117.865	0.346	0.062
-526.018	-200.000	-0.010	0.176
-525.004	800.000	0.036	-0.156
-523.989	468.987	0.119	-0.266
-522.975	52.580	-0.093	-0.089
-521.960	-4.951	-0.354	-0.243
-520.945	-66.177	-0.282	-0.112
-519.931	-53.712	0.114	0.052
-518.916	14.376	-0.119	-0.093
-517.902	98.469	-0.064	0.074
-516.887	-1.643	0.148	-0.104
-515.872	99.107	-0.210	0.242
-514.858	-164.364	0.217	-0.010
-513.843	96.457	-0.150	-0.171
-512.829	-200.000	0.034	0.446
-511.814	-158.493	-0.177	0.010
-510.799	420.703	-0.206	-0.441
-509.785	114.632	0.261	0.317
-508.770	245.928	-0.108	-0.182
-507.756	-200.000	-0.044	0.278
-506.741	575.838	0.086	-0.210
-505.726	-147.095	0.256	-0.022
-504.712	-2.711	0.217	-0.151
-503.697	7.229	-0.317	-0.236
-502.683	-66.826	-0.265	-0.105
-501.668	-142.655	0.060	-0.006
-500.653	-29.066	0.106	-0.061
-499.639	437.768	-0.103	-0.223
-498.624	-200.000	-0.027	0.153
-497.610	242.256	0.108	0.180
-496.595	-60.328	-0.245	0.104
-495.581	15.016	0.124	-0.097
-494.566	-167.251	-0.234	-0.009
-493.551	-129.899	0.340	0.047
-492.537	-200.000	0.306	-0.001
-491.522	-5.519	0.224	-0.154
-490.508	-200.000	0.001	0.026
-489.493	219.427	-0.136	-0.218
-488.478	-118.872	0.164	-0.029
-487.464	398.944	-0.138	0.288
-486.449	-200.000	-0.005	0.170
-485.435	-200.000	0.004	-0.069
-484.420	33.631	-0.238	0.206
-483.405	26.645	0.143	-0.119
-482.391	-200.000	0.011	-0.329
-481.376	-81.593	0.053	0.017
-480.362	-200.000	0.026	0.204
-479.347	-200.000	0.070	-0.310
-478.332	266.800	0.226	0.393
-477.318	606.634	-0.021	0.053
-476.303	773.762	-0.159	0.432
-475.289	-200.000	-0.024	0.274
-474.274	-104.817	-0.243	-0.056
-473.259	-200.000	0.055	-0.428
-472.245	47.470	0.167	-0.155
-471.230	14.681	0.098	-0.076
-470.216	-142.495	0.066	0.006
-469.201	175.230	-0.150	0.216
-468.186	171.569	0.111	-0.159
-467.172	151.819	-0.045	-0.062
-466.157	-200.000	-0.055	-0.292
-465.143	-59.269	-0.192	-0.083
-464.128	-180.918	-0.160	-0.003
-463.113	-85.547	0.248	0.077
-462.099	-166.755	-0.225	0.009
-461.084	77.861	-0.075	0.080
-460.070	-109.019	-0.181	0.038
-459.055	800.000	-0.029	-0.092
-458.040	-200.000	-0.044	0.200
-457.026	800.000	-0.050	0.150
-456.011	800.000	-0.119	-0.351
-454.997	-72.612	-0.308	0.113
-453.982	800.000	-0.154	0.460
-452.968	313.063	0.071	0.133
-451.953	-62.972	0.352	0.145
-450.938	17.462	-0.181	-0.143
-449.924	-78.839	0.298	-0.101
-448.909	8.700	0.152	-0.114
-447.895	-38.012	-0.322	0.170
-446.880	-200.000	-0.060	0.361
-445.865	-48.498	0.035	0.017
-444.851	-191.305	0.217	0.002
-443.836	126.978	-0.110	0.139
-442.822	65.247	-0.085	-0.086
-441.807	14.229	0.179	0.139
-440.792	-176.299	0.142	0.004
-439.778	800.000	-0.056	0.159
-438.763	141.808	-0.004	-0.005
-437.749	-159.539	0.257	-0.014
-436.734	-200.000	0.028	-0.168
-435.719	-48.008	0.032	-0.015
-434.705	-14.530	-0.373	-0.239
-433.690	-200.000	0.011	0.060
-432.676	-28.834	0.395	-0.226
-431.661	642.906	-0.037	-0.094
-430.646	154.571	0.164	0.224
-429.632	-64.974	0.244	0.098
-428.617	-200.000	-0.041	-0.359
-427.603	-105.775	-0.054	0.012
-426.588	-88.150	0.187	0.056
-425.573	-60.036	0.142	-0.060
-424.559	119.381	-0.238	0.293
-423.544	497.630	0.053	0.121
-422.530	98.978	-0.070	0.081
-421.515	-93.552	0.044	-0.012
-420.500	626.314	-0.053	-0.134
-419.486	-144.163	0.173	0.016
-418.471	94.390	-0.248	-0.280
-417.457	124.728	0.185	0.231
-416.442	800.000	0.118	-0.348
-415.428	217.994	-0.212	-0.337
-414.413	-37.039	-0.272	-0.145
-413.398	-99.918	-0.289	0.072
-412.384	22.920	-0.159	0.129
-411.369	-81.306	0.353	-0.116
-410.355	-103.315	-0.089	0.021
-409.340	-79.282	-0.034	-0.012
-408.325	40.033	-0.245	-0.219
-407.311	-147.354	0.352	0.030
-406.296	-56.158	0.246	-0.109
-405.282	-94.589	0.142	-0.038
-404.267	88.870	-0.065	-0.072
-403.252	3.381	0.218	0.158
-402.238	-118.860	0.165	-0.029
-401.223	-147.308	0.331	0.028
-400.209	32.462	0.179	-0.154
-399.194	-95.265	0.086	0.023
-398.179	-200.000	-0.013	0.149
-397.165	-200.000	-0.043	-0.295
-396.150	-60.266	0.128	0.054
-395.136	158.811	0.133	-0.184
-394.121	800.000	-0.090	0.264
-393.106	77.389	-0.075	0.079
-392.092	521.778	0.064	-0.149
-391.077	551.781	-0.175	-0.418
-390.063	704.643	-0.083	-0.218
-389.048	-200.000	0.038	0.178
-388.033	715.558	-0.079	-0.209
-387.019	256.936	-0.073	-0.124
-386.004	-200.000	-0.024	0.136
-384.990	6.876	-0.272	0.201
-383.975	-88.804	0.236	-0.069
-382.960	-17.877	0.158	-0.098
-381.946	800.000	0.038	-0.163
-380.931	800.000	0.052	-0.154
-379.917	33.026	0.016	-0.014
-378.902	-120.976	-0.245	0.041
-377.888	-51.162	-0.269	0.125
-376.873	221.368	0.124	0.198
-375.858	-200.000	0.003	-0.227
-374.844	248.623	0.182	0.306
-373.829	-200.000	-0.019	0.211
-372.815	141.411	0.087	-0.114
-371.800	-49.355	0.357	-0.169
-370.785	403.708	-0.073	0.152
-369.771	-200.000	0.013	0.260
-368.756	-67.251	-0.151	-0.059
-367.742	800.000	-0.077	0.254
-366.727	86.467	0.110	0.120
-365.712	23.921	0.114	0.093
-364.698	-125.031	-0.108	0.017
-363.683	-200.000	-0.010	-0.061
-362.669	-149.655	0.174	-0.014
-361.654	-123.328	0.288	-0.046
-360.639	-102.139	0.138	-0.033
-359.625	147.266	-0.150	0.200
-358.610	-99.190	0.207	0.052
-357.596	-80.033	-0.334	0.111
-356.581	-166.046	0.212	0.009
-355.566	-113.399	0.456	0.089
-354.552	785.187	-0.046	-0.124
-353.537	142.250	-0.035	0.047
-352.523	800.000	-0.106	-0.337
-351.508	-83.835	0.101	-0.032
-350.493	124.304	-0.166	0.206
-349.479	-77.848	0.178	-0.061
-348.464	1.055	-0.115	-0.082
-347.450	800.000	0.035	0.121
-346.435	-200.000	0.028	-0.217
-345.420	64.398	-0.250	0.250
-344.406	-60.324	0.126	-0.053
-343.391	-1.494	-0.432	0.302
-342.377	-200.000	-0.017	0.102
-341.362	800.000	-0.040	-0.163
-340.348	-20.583	0.213	-0.130
-339.333	174.718	0.127	0.183
-338.318	-103.170	-0.056	0.013
-337.304	388.496	-0.106	0.217
-336.289	-192.050	0.057	-0.001
-335.275	60.615	0.178	-0.175
-334.260	800.000	-0.034	-0.103
-333.245	616.212	-0.067	-0.167
-332.231	800.000	0.045	-0.141
-331.216	-200.000	-0.011	-0.085
-330.202	-76.390	0.258	0.090
-329.187	-75.894	0.252	-0.089
-328.172	74.322	0.126	0.131
-327.158	73.672	-0.365	0.379
-326.143	-59.195	0.056	0.024
-325.129	585.143	-0.084	0.206
-324.114	-200.000	0.013	0.198
-323.099	-200.000	0.020	0.202
-322.085	-26.467	0.139	-0.081
-321.070	-200.000	0.009	-0.100
-320.056	190.833	-0.257	0.383
-319.041	27.336	-0.151	-0.126
-318.026	-27.641	0.442	0.254
-317.012	191.498	-0.035	-0.053
-315.997	23.553	0.236	0.192
-314.983	-51.660	0.215	-0.099
-313.968	800.000	-0.075	-0.216
-312.953	-200.000	0.040	-0.186
-311.939	198.627	0.062	-0.093
-310.924	-200.000	0.045	-0.282
-309.910	-28.162	-0.053	0.030
-308.895	112.968	0.049	0.059
-307.880	77.007	-0.131	0.138
-306.866	-17.896	-0.011	0.007
-305.851	357.484	-0.111	-0.220
-304.837	-200.000	0.036	0.163
-303.822	-200.000	-0.023	0.148
-302.807	-28.585	-0.055	0.031
-301.793	-185.556	0.273	-0.004
-300.778	-200.000	-0.019	-0.131
-299.764	-47.491	0.152	0.073
-298.749	800.000	0.112	0.314
-297.735	1.519	0.289	0.206
-296.720	43.412	-0.155	0.140
-295.705	-136.322	-0.153	-0.018
-294.691	349.411	0.050	0.098
-293.676	800.000	0.107	-0.322
-292.662	15.160	-0.343	0.266
-291.647	-99.588	-0.271	0.067
-290.632	29.364	0.246	0.207
-289.618	135.763	0.183	0.235
-288.603	-99.659	-0.364	0.090
-287.589	209.263	0.059	0.091
-286.574	10.273	0.193	0.145
-285.559	66.708	-0.346	0.348
-284.545	235.245	0.214	-0.349
-283.530	800.000	0.107	-0.327
-282.516	13.614	0.123	0.095
-281.501	62.619	0.195	-0.193
-280.486	-2.700	-0.031	0.021
-279.472	-200.000	0.049	-0.271
-278.457	551.521	0.076	0.180
-277.443	-104.177	-0.255	0.059
-276.428	-200.000	-0.007	-0.155
-275.413	87.548	-0.189	0.207
-274.399	120.936	0.270	0.332
-273.384	219.876	-0.103	0.164
-272.370	-92.777	0.218	0.060
-271.355	-106.632	-0.335	0.074
-270.340	6.230	0.193	-0.142
-269.326	-163.870	0.474	-0.022
-268.311	-96.229	-0.332	-0.087
-267.297	338.756	0.065	0.124
-266.282	39.038	0.086	-0.076
-265.267	-83.312	0.183	0.058
-264.253	-40.560	-0.154	-0.079
-263.238	96.144	0.108	-0.122
-262.224	518.293	0.080	-0.186
-261.209	406.040	-0.100	0.209
-260.195	262.400	-0.026	-0.045
-259.180	-118.386	-0.164	0.029
-258.165	800.000	0.113	0.323
-257.151	-114.943	-0.367	-0.069
-256.136	-140.717	-0.299	-0.031
-255.122	-97.703	-0.190	0.049
-254.107	-142.090	-0.118	0.012
-253.092	800.000	-0.019	-0.055
-252.078	-122.696	-0.020	0.003
-251.063	-29.969	-0.264	0.149
-250.049	162.816	0.109	-0.151
-249.034	-15.146	-0.409	-0.259
-248.019	-100.090	-0.220	0.054
-247.005	131.269	0.189	0.240
-245.990	-200.000	0.014	-0.216
-244.976	-59.608	-0.150	-0.064
-243.961	114.758	0.165	-0.199
-242.946	800.000	0.032	-0.112
-241.932	458.277	0.094	0.207
-240.917	-148.301	-0.228	-0.019
-239.903	230.981	0.091	-0.148
-238.888	487.356	-0.162	-0.366
-237.873	800.000	-0.033	-0.099
-236.859	-72.331	-0.377	-0.138
-235.844	64.956	-0.030	0.030
-234.830	579.466	-0.032	-0.078
-233.815	3.529	0.094	0.068
-232.800	48.328	0.288	0.266
-231.786	800.000	-0.086	0.302
-230.771	800.000	0.022	0.077
-229.757	-154.508	0.317	-0.021
-228.742	-142.812	0.293	-0.028
-227.727	-150.259	-0.208	0.016
-226.713	800.000	0.047	0.161
-225.698	-36.775	-0.064	-0.034
-224.684	-132.654	0.186	0.023
-223.669	14.614	-0.047	-0.036
-222.655	-55.625	0.328	-0.145
-221.640	22.580	-0.084	0.068
-220.625	-188.974	0.452	0.005
-219.611	153.230	0.128	-0.172
-218.596	636.584	0.128	-0.320
-217.582	49.485	-0.228	0.212
-216.567	-37.306	-0.366	0.193
-215.552	25.648	0.150	-0.123
-214.538	-200.000	0.075	0.440
-213.523	-155.541	0.112	-0.007
-212.509	-10.149	-0.062	0.040
-211.494	32.922	0.192	0.164
-210.479	-101.389	0.252	-0.060
-209.465	800.000	0.054	0.153
-208.450	-54.771	0.225	-0.100
-207.436	-125.905	-0.280	0.042
-206.421	357.945	-0.140	-0.276
-205.406	-127.317	0.334	-0.048
-204.392	800.000	-0.008	0.033
-203.377	340.173	-0.151	0.290
-202.363	491.457	-0.185	0.418
-201.348	-13.426	0.253	0.162
-200.333	32.415	0.010	-0.008
-199.319	-63.473	0.178	-0.072
-198.304	62.393	0.068	0.067
-197.290	-200.000	-0.012	0.149
-196.275	800.000	-0.115	0.369
-195.260	-194.569	-0.205	0.002
-194.246	162.357	-0.308	0.426
-193.231	368.427	0.132	-0.263
-192.217	-35.755	-0.269	-0.144
-191.202	51.787	0.283	-0.266
-190.187	491.933	0.126	-0.286
-189.173	222.582	0.107	0.170
-188.158	-172.520	-0.297	0.009
-187.144	3.848	0.195	0.140
-186.129	-27.927	0.305	0.174
-185.114	-80.661	0.147	0.048
-184.100	-29.874	0.036	-0.020
-183.085	352.977	-0.138	0.269
-182.071	173.839	0.065	0.092
-181.056	-200.000	0.001	0.114
-180.042	-200.000	0.003	0.122
-179.027	189.939	0.208	0.308
-178.012	281.794	-0.058	0.102
-176.998	135.287	-0.194	-0.248
-175.983	800.000	-0.050	0.149
-174.969	-170.313	0.106	0.004
-173.954	-193.104	-0.096	-0.001
-172.939	599.616	0.051	0.125
-171.925	-73.535	0.291	-0.104
-170.910	-32.271	-0.154	-0.085
-169.896	24.623	0.147	0.120
-168.881	-17.282	0.286	0.178
-167.866	-83.269	0.157	-0.050
-166.852	283.627	0.101	0.178
-165.837	229.845	0.144	-0.231
-164.823	359.775	0.086	0.170
-163.808	-54.639	0.303	-0.135
-162.793	-26.371	-0.299	-0.173
-161.779	-200.000	0.044	-0.507
-160.764	28.563	0.132	-0.110
-159.750	-162.463	0.214	0.010
-158.735	-38.083	0.142	0.074
-157.720	-12.599	0.109	-0.070
-156.706	193.863	-0.115	0.172
-155.691	-6.437	0.157	0.105
-154.677	-43.222	0.011	-0.006
-153.662	-90.734	-0.182	-0.052
-152.647	-138.130	0.101	-0.011
-151.633	-104.809	-0.244	0.055
-150.618	800.000	-0.060	-0.249
-149.604	-110.398	0.268	0.055
-148.589	-200.000	0.024	-0.311
-147.574	-30.315	-0.058	-0.032
-146.560	258.253	0.064	-0.109
-145.545	-200.000	-0.052	-0.232
-144.531	108.712	0.229	-0.269
-143.516	53.302	-0.063	0.060
-142.502	-13.098	-0.148	0.095
-141.487	-101.033	0.155	-0.037
-140.472	-4.814	0.269	-0.182
-139.458	129.110	0.155	-0.195
-138.443	128.510	-0.177	-0.222
-137.429	-104.917	0.288	-0.065
-136.414	800.000	-0.065	-0.191
-135.399	175.857	0.066	-0.094
-134.385	-200.000	0.002	-0.162
-133.370	-200.000	0.013	0.135
-132.356	-41.992	-0.101	-0.051
-131.341	-128.218	0.310	-0.044
-130.326	-43.929	-0.300	-0.149
-129.312	-200.000	-0.007	-0.042
-128.297	624.283	-0.164	0.407
-127.283	800.000	-0.070	0.198
-126.268	511.764	-0.162	0.371
-125.253	31.623	0.328	-0.277
-124.239	-200.000	0.038	0.263
-123.224	-118.698	-0.183	-0.032
-122.210	234.687	0.099	0.160
-121.195	-42.711	0.235	0.117
-120.180	-182.252	-0.427	0.008
-119.166	361.381	-0.093	-0.183
-118.151	-68.313	-0.244	0.093
-117.137	-118.879	-0.336	-0.058
-116.122	239.097	0.152	-0.249
-115.107	800.000	-0.114	0.389
-114.093	-76.266	0.315	-0.109
-113.078	-50.339	0.075	-0.035
-112.064	654.135	-0.099	0.249
-111.049	800.000	0.076	0.271
-110.034	-105.333	0.358	-0.080
-109.020	80.288	0.166	-0.175
-108.005	-156.050	0.245	0.015
-106.991	800.000	0.111	0.432
-105.976	-200.000	0.036	-0.217
-104.962	-34.808	0.184	-0.099
-103.947	-200.000	0.008	0.094
-102.932	-63.163	-0.185	0.075
-101.918	28.614	0.025	0.021
-100.903	-24.385	-0.139	-0.081
-99.889	33.945	-0.104	-0.089
-98.874	-200.000	0.029	0.207
-97.859	800.000	0.079	0.338
-96.845	-200.000	0.005	0.029
-95.830	-11.791	-0.146	0.094
-94.816	499.926	-0.123	0.278
-93.801	800.000	-0.077	-0.242
-92.786	800.000	0.042	-0.179
-91.772	19.937	-0.159	-0.126
-90.757	-109.575	-0.412	-0.085
-89.743	218.321	0.158	-0.247
-88.728	377.550	0.144	0.290
-87.713	-198.016	-0.276	0.002
-86.699	800.000	-0.024	0.080
-85.684	329.938	-0.080	0.152
-84.670	158.262	0.282	-0.384
-83.655	44.988	-0.251	0.227
-82.640	-48.224	0.068	-0.032
-81.626	110.597	-0.301	0.355
-80.611	257.679	-0.148	0.249
-79.597	227.241	-0.146	0.233
-78.582	116.668	0.211	0.254
-77.567	-1.012	-0.126	-0.088
-76.553	-59.681	-0.120	0.050
-75.538	14.067	-0.151	0.115
-74.524	146.992	0.188	0.249
-73.509	-200.000	0.004	-0.072
-72.494	414.189	-0.099	0.207
-71.480	345.877	0.035	-0.068
-70.465	800.000	0.116	-0.320
-69.451	98.290	-0.089	-0.100
-68.436	-0.128	0.207	-0.145
-67.422	-200.000	0.003	-0.093
-66.407	25.851	0.091	-0.074
-65.392	-136.798	-0.203	-0.023
-64.378	67.414	0.042	-0.042
-63.363	-24.746	0.362	-0.211
-62.349	-146.833	0.215	0.018
-61.334	84.544	-0.742	-0.797
-60.319	2.298	0.620	0.440
-59.305	800.000	-0.351	-1.120
-58.290	145.320	0.688	0.903
-57.276	353.946	0.694	1.351
-56.261	-200.000	97.440	606.606
-55.246	599.792	1400.487	3408.096
-54.232	192.817	2594.229	3842.428
-53.217	117.747	2144.017	2588.149
-52.203	43.520	1598.684	1433.111
-51.188	34.991	1336.998	1147.610
-50.173	31.894	1295.010	1093.499
-49.159	54.108	1344.313	1267.604
-48.144	56.247	1360.578	1295.585
-47.130	35.159	1318.793	1132.799
-46.115	31.722	1300.975	1097.358
-45.100	31.558	1295.979	1092.141
-44.086	31.408	1293.733	1089.331
-43.071	31.355	1291.357	1086.977
-42.057	31.287	1289.573	1085.039
-41.042	31.285	1287.840	1083.525
-40.027	31.409	1286.281	1082.891
-39.013	31.385	1284.368	1081.101
-37.998	31.412	1282.056	1079.266
-36.984	31.550	1280.122	1078.389
-35.969	31.506	1278.778	1076.963
-34.954	31.590	1277.149	1076.031
-33.940	31.666	1275.667	1075.173
-32.925	31.639	1274.730	1074.187
-31.911	31.592	1273.085	1072.490
-30.896	31.519	1272.156	1071.243
-29.881	31.600	1270.354	1070.152
-28.867	31.628	1268.500	1068.704
-27.852	31.669	1267.138	1067.746
-26.838	31.609	1265.852	1066.280
-25.823	31.672	1264.391	1065.367
-24.809	31.648	1263.542	1064.472
-23.794	31.580	1262.215	1062.926
-22.779	31.593	1261.004	1061.936
-21.765	31.568	1259.495	1060.482
-20.750	31.542	1258.096	1059.117
-19.736	31.462	1256.665	1057.416
-18.721	31.437	1255.451	1056.211
-17.706	31.463	1254.631	1055.630
-16.692	31.418	1253.125	1054.066
-15.677	31.407	1252.092	1053.092
-14.663	31.350	1251.395	1052.145
-13.648	31.423	1249.868	1051.225
-12.633	31.533	1248.813	1050.918
-11.619	31.506	1247.990	1050.031
-10.604	31.483	1247.208	1049.200
-9.590	31.367	1246.589	1047.988
-8.575	31.347	1245.485	1046.909
-7.560	31.433	1243.940	1046.051
-6.546	31.359	1243.692	1045.387
-5.531	31.277	1243.008	1044.309
-4.517	31.394	1241.445	1043.611
-3.502	31.404	1241.018	1043.264
-2.487	31.401	1240.095	1042.428
-1.473	31.277	1236.403	1038.594
-0.458	29.791	1220.898	1017.366
0.556	23.849	1202.519	977.561
1.571	20.059	1207.581	960.620
2.586	19.287	1222.072	967.723
3.600	19.005	1211.510	957.705
4.615	13.684	1140.319	873.392
5.629	4.368	1064.940	769.570
6.644	-0.005	1044.153	733.193
7.659	-0.468	1042.278	729.557
8.673	-0.354	1040.557	728.841
9.688	-0.443	1039.463	727.579
10.702	-0.065	1037.733	728.132
11.717	5.686	1045.989	761.885
12.731	14.756	1058.706	815.547
13.746	18.716	1062.977	838.136
14.761	19.057	1063.106	839.826
15.775	19.034	1062.345	839.039
16.790	18.710	1061.599	836.799
17.804	18.568	1061.181	835.702
18.819	18.669	1060.997	835.977
19.834	18.608	1060.651	835.332
20.848	18.675	1059.801	834.916
21.863	18.681	1059.183	834.385
22.877	18.576	1059.013	833.667
23.892	18.567	1058.181	832.895
24.907	18.619	1057.210	832.308
25.921	18.632	1056.135	831.451
26.936	18.647	1054.472	830.139
27.950	18.603	1052.845	828.574
28.965	18.434	1050.988	826.224
29.980	18.577	1049.310	825.520
30.994	18.817	1048.338	825.835
32.009	18.676	1047.225	824.210
33.023	18.577	1045.856	822.582
34.038	18.678	1045.051	822.362
35.053	18.716	1044.511	822.047
36.067	18.770	1043.356	821.324
37.082	18.767	1042.770	820.774
38.096	18.880	1042.053	820.676
39.111	18.883	1041.705	820.343
40.126	18.836	1039.982	818.692
41.140	18.654	1038.015	816.204
42.155	18.311	1036.815	813.560
43.169	18.424	1035.861	813.274
44.184	18.601	1034.670	813.107
45.199	18.302	1033.917	811.026
46.213	18.385	1032.923	810.567
47.228	18.547	1031.463	810.119
48.242	18.626	1030.614	809.752
49.257	18.589	1029.739	808.820
50.271	18.879	1028.506	809.143
51.286	18.713	1028.130	807.996
52.301	18.704	1026.979	806.979
53.315	18.752	1025.787	806.193
54.330	18.714	1025.018	805.339
55.344	18.785	1024.164	804.931
56.359	18.721	1023.275	803.860
57.374	18.584	1022.071	802.202
58.388	18.620	1021.778	802.071
59.403	18.461	1020.812	800.500
60.417	18.505	1019.212	799.376
61.432	18.561	1018.630	799.112
62.447	18.596	1018.164	798.838
63.461	18.614	1017.791	798.561
64.476	18.647	1016.235	797.422
65.490	18.465	1015.404	795.853
66.505	18.576	1014.674	795.725
67.520	18.497	1014.084	794.828
68.534	18.248	1012.966	792.729
69.549	18.110	1011.894	791.179
70.563	18.099	1011.056	790.401
71.578	18.231	1009.954	790.080
72.593	18.097	1008.786	788.479
73.607	18.256	1008.944	789.265
74.622	18.580	1007.903	789.873
75.636	18.406	1007.456	788.652
76.651	18.245	1006.761	787.299
77.666	18.264	1005.933	786.671
78.680	18.403	1005.396	786.820
79.695	18.405	1004.829	786.314
80.709	18.450	1004.025	785.820
81.724	18.436	1002.965	784.857
82.739	18.546	1002.060	784.585
83.753	18.744	1001.614	785.072
84.768	18.993	1000.642	785.376
85.782	18.994	999.804	784.653
86.797	18.890	998.448	783.048
87.812	18.851	997.379	781.961
88.826	18.912	996.476	781.459
89.841	18.974	995.475	780.890
90.855	18.956	994.744	780.163
91.870	18.897	993.627	778.950
92.884	18.788	992.516	777.521
93.899	18.716	991.773	776.541
94.914	18.932	990.932	776.793
95.928	18.780	989.441	774.867
96.943	18.594	988.361	773.116
97.957	18.362	987.602	771.410
98.972	18.139	986.091	769.159
99.987	18.485	985.342	770.059
101.001	18.671	984.818	770.418
102.016	18.731	983.837	769.852
103.030	18.528	983.338	768.481
104.045	18.367	982.002	766.650
105.060	18.472	980.338	765.750
106.074	18.432	980.117	765.334
107.089	18.885	979.159	766.539
108.103	18.729	978.427	765.201
109.118	18.582	977.227	763.543
110.133	18.635	976.231	762.933
111.147	18.560	974.636	761.284
112.162	18.287	973.948	759.466
113.176	18.519	973.323	759.944
114.191	18.366	972.216	758.335
115.206	18.290	970.711	756.754
116.220	18.242	970.449	756.274
117.235	18.361	969.347	755.873
118.249	18.335	968.369	754.929
119.264	18.211	967.734	753.820
120.279	18.269	967.182	753.577
121.293	18.413	966.237	753.410
122.308	18.433	965.070	752.522
123.322	18.514	964.062	752.023
124.337	18.245	962.548	749.600
125.352	17.836	961.165	746.664
126.366	17.891	959.741	745.732
127.381	18.583	959.297	748.343
128.395	18.734	959.140	748.813
129.410	18.779	958.476	748.424
130.424	18.746	956.961	747.032
131.439	18.813	956.030	746.531
132.454	18.731	954.977	745.285
133.468	18.613	954.265	744.151
134.483	18.717	953.136	743.657
135.497	19.002	952.525	744.345
136.512	19.070	951.206	743.543
137.527	19.000	950.558	742.671
138.541	18.975	950.218	742.230
139.556	18.998	949.089	741.382
140.570	19.004	948.673	741.018
141.585	18.955	946.887	739.345
142.600	18.785	946.480	738.233
143.614	19.021	945.664	738.543
144.629	19.087	944.942	738.199
145.643	19.034	943.184	736.534
146.658	19.094	941.904	735.725
147.673	18.855	941.121	734.028
148.687	18.751	940.093	732.716
149.702	18.812	939.386	732.363
150.716	18.910	938.165	731.760
151.731	18.858	937.633	731.059
152.746	19.066	937.215	731.556
153.760	19.219	936.041	731.223
154.775	19.143	935.777	730.629
155.789	19.136	934.794	729.769
156.804	19.194	933.513	728.948
157.819	19.151	932.632	728.015
158.833	19.257	932.363	728.189
159.848	19.204	931.121	726.928
160.862	19.028	930.531	725.661
161.877	19.131	929.314	725.083
162.892	19.168	928.513	724.551
163.906	19.170	927.332	723.572
164.921	19.081	926.927	722.818
165.935	19.093	925.836	721.953
166.950	19.082	924.793	721.030
167.964	19.121	924.312	720.756
168.979	18.979	923.056	719.120
169.994	19.058	921.940	718.515
171.008	19.288	921.312	718.920
172.023	19.178	920.351	717.650
173.037	18.966	919.140	715.760
174.052	18.834	918.563	714.698
175.067	18.905	918.172	714.628
176.081	19.053	918.063	715.092
177.096	18.932	916.828	713.566
178.110	18.782	915.750	712.041
179.125	18.533	915.190	710.513
180.140	18.703	914.584	710.682
181.154	18.809	914.141	710.715
182.169	19.066	914.032	711.628
183.183	19.156	913.750	711.718
184.198	19.146	912.624	710.735
185.213	19.136	911.628	709.856
186.227	19.120	911.525	709.649
187.242	19.149	910.440	708.860
188.256	19.220	909.672	708.490
189.271	19.280	909.213	708.316
190.286	18.942	907.936	705.872
191.300	18.531	906.794	703.235
192.315	17.806	905.319	699.062
193.329	17.796	904.878	698.619
194.344	18.542	905.248	701.897
195.359	19.014	905.066	703.623
196.373	19.100	904.308	703.323
197.388	18.920	903.809	702.138
198.402	18.928	902.814	701.339
199.417	18.921	902.222	700.785
200.432	18.668	901.123	698.841
201.446	18.505	900.586	697.701
202.461	18.472	899.961	697.018
203.475	17.648	898.388	692.392
204.490	17.279	896.856	689.655
205.504	18.090	897.412	693.311
206.519	18.647	897.125	695.285
207.534	18.861	896.482	695.592
208.548	19.210	896.672	697.092
209.563	18.819	895.636	694.645
210.577	18.929	894.672	694.277
211.592	19.096	894.710	694.921
212.607	19.070	893.428	693.757
213.621	19.076	893.353	693.663
214.636	19.280	892.531	693.785
215.650	19.199	891.359	692.487
216.665	19.258	891.222	692.557
217.680	19.087	890.286	691.079
218.694	18.780	888.738	688.588
219.709	18.759	888.086	687.939
220.723	18.880	887.808	688.145
221.738	18.931	887.426	687.991
222.753	18.974	886.839	687.650
223.767	19.136	886.237	687.766
224.782	19.258	886.173	688.146
225.796	19.299	885.024	687.353
226.811	18.719	883.257	683.614
227.826	18.073	882.797	680.624
228.840	18.401	881.812	681.111
229.855	18.357	881.225	680.423
230.869	17.985	880.306	678.173
231.884	18.463	879.968	679.750
232.899	19.241	879.490	682.406
233.913	19.115	879.272	681.676
234.928	19.277	878.459	681.625
235.942	19.097	877.912	680.432
236.957	18.813	877.224	678.716
237.972	18.904	876.593	678.527
238.986	19.100	875.634	678.495
240.001	19.002	875.197	677.710
241.015	19.021	874.678	677.323
242.030	19.104	874.324	677.317
243.045	19.224	873.518	677.105
244.059	19.453	872.909	677.472
245.074	19.067	872.155	675.311
246.088	18.815	870.897	673.288
247.103	18.906	870.784	673.500
248.117	19.416	870.750	675.413
249.132	19.666	869.885	675.657
250.147	19.543	869.742	675.008
251.161	19.801	869.142	675.491
252.176	19.787	868.463	674.845
253.190	19.770	868.114	674.449
254.205	19.918	867.222	674.274
255.220	19.924	866.555	673.720
256.234	19.724	865.856	672.339
257.249	19.661	865.020	671.384
258.263	19.738	864.375	671.122
259.278	19.919	863.335	670.957
260.293	19.940	862.725	670.504
261.307	19.868	861.936	669.553
262.322	19.622	860.958	667.786
263.336	18.832	859.216	663.326
264.351	17.927	857.428	658.397
265.366	17.995	857.298	658.503
266.380	19.061	857.891	663.009
267.395	19.421	857.913	664.354
268.409	19.464	856.702	663.524
269.424	19.700	855.800	663.673
270.439	19.637	855.689	663.287
271.453	19.739	855.186	663.230
272.468	19.915	854.990	663.691
273.482	19.951	854.277	663.217
274.497	19.562	852.895	660.598
275.512	19.305	852.039	658.895
276.526	19.641	852.470	660.455
277.541	19.575	851.880	659.687
278.555	19.503	850.522	658.304
279.570	19.353	849.543	656.916
280.585	19.509	849.095	657.106
281.599	19.605	847.748	656.371
282.614	19.056	846.825	653.510
283.628	19.187	846.357	653.590
284.643	19.437	846.316	654.449
285.657	18.981	845.463	652.003
286.672	18.782	844.466	650.423
287.687	19.409	844.275	652.593
288.701	19.384	843.519	651.856
289.716	19.009	842.824	649.845
290.730	19.062	842.303	649.586
291.745	18.860	841.142	647.870
292.760	19.078	841.167	648.656
293.774	19.913	841.432	651.946
294.789	20.265	840.992	652.875
295.803	20.297	841.036	652.969
296.818	20.355	839.772	652.151
297.833	19.862	838.675	649.391
298.847	19.750	837.803	648.237
299.862	19.988	837.626	648.937
300.876	20.436	836.893	649.985
301.891	20.132	836.245	648.289
302.906	19.743	835.213	645.977
303.920	19.874	835.123	646.342
304.935	20.122	834.833	646.986
305.949	20.177	834.008	646.493
306.964	19.993	833.411	645.288
307.979	20.094	833.163	645.415
308.993	20.358	832.844	646.095
310.008	20.278	832.243	645.274
311.022	19.980	831.369	643.432
312.037	19.932	830.635	642.630
313.052	19.871	829.942	641.809
314.066	19.105	828.784	638.019
315.081	18.754	827.808	635.909
316.095	19.535	828.438	639.231
317.110	20.051	827.644	640.470
318.125	19.170	826.569	636.329
319.139	18.282	825.114	631.873
320.154	18.374	824.802	631.918
321.168	19.056	825.449	634.877
322.183	19.702	825.181	636.995
323.197	19.835	824.619	636.994
324.212	20.118	824.267	637.706
325.227	20.096	823.521	636.993
326.241	20.087	822.690	636.260
327.256	19.977	822.225	635.441
328.270	19.909	821.602	634.654
329.285	19.816	820.647	633.522
330.300	19.525	819.805	631.751
331.314	19.801	819.833	632.725
332.329	20.093	819.480	633.463
333.343	20.273	818.973	633.674
334.358	20.279	818.348	633.157
335.373	20.298	818.065	632.952
336.387	20.530	818.101	633.766
337.402	20.528	817.826	633.492
338.416	20.458	817.312	632.781
339.431	20.475	816.996	632.543
340.446	20.640	816.538	632.733
341.460	20.566	816.130	632.092
342.475	20.396	815.243	630.731
343.489	20.466	815.160	630.868
344.504	20.768	814.891	631.696
345.519	20.674	814.966	631.358
346.533	20.909	814.217	631.577
347.548	20.887	813.774	631.095
348.562	20.885	813.447	630.779
349.577	20.762	812.744	629.734
350.592	20.821	812.107	629.397
351.606	20.806	811.379	628.725
352.621	20.838	810.205	627.873
353.635	20.650	809.770	626.803
354.650	20.074	808.237	623.491
355.665	19.226	806.720	619.218
356.679	19.550	806.469	620.133
357.694	19.911	806.011	621.020
358.708	20.027	805.333	620.859
359.723	20.259	805.801	621.997
360.738	20.620	805.144	622.730
361.752	20.673	804.729	622.542
362.767	20.930	804.248	623.035
363.781	21.062	803.807	623.107
364.796	21.259	803.441	623.473
365.810	21.199	802.955	622.827
366.825	20.920	803.021	621.828
367.840	20.946	802.057	621.117
368.854	20.632	801.066	619.181
369.869	20.566	801.044	618.873
370.883	20.560	800.667	618.503
371.898	20.493	799.877	617.602
372.913	20.549	799.593	617.526
373.927	20.760	798.854	617.648
374.942	20.902	798.731	618.004
375.956	20.936	798.159	617.628
376.971	20.987	798.139	617.738
377.986	21.219	797.458	617.977
379.000	21.045	797.079	617.013
380.015	20.929	796.429	616.047
381.029	21.066	795.830	616.011
382.044	21.065	795.345	615.578
383.059	21.271	794.675	615.730
384.073	21.213	794.322	615.198
385.088	21.218	793.651	614.643
386.102	21.048	793.187	613.630
387.117	20.984	792.417	612.755
388.132	20.649	791.716	610.984
389.146	20.332	790.588	608.945
390.161	20.572	790.391	609.581
391.175	20.852	790.620	610.687
392.190	20.649	789.205	608.829
393.205	19.575	787.143	603.434
394.219	18.241	785.614	597.554
395.234	18.299	785.544	597.650
396.248	19.547	786.992	603.060
397.263	20.893	787.545	608.132
398.278	20.980	787.492	608.339
399.292	20.786	786.462	606.814
400.307	20.792	786.477	606.793
401.321	20.769	785.849	606.176
402.336	21.092	785.543	607.009
403.350	21.406	785.533	608.039
404.365	21.520	785.158	608.093
405.380	21.764	784.644	608.487
406.394	21.879	784.132	608.437
407.409	21.702	783.794	607.505
408.423	21.692	783.391	607.104
409.438	21.767	782.979	606.992
410.453	21.776	782.818	606.846
411.467	21.816	781.829	606.164
412.482	21.760	781.737	605.845
413.496	21.897	781.162	605.818
414.511	21.882	780.991	605.581
415.526	21.871	780.262	604.924
416.540	21.769	779.808	604.168
417.555	21.543	778.872	602.611
418.569	21.555	778.490	602.301
419.584	21.634	778.075	602.200
420.599	21.277	777.602	600.554
421.613	158.405	1361.021	1795.556
422.628	136.851	1446.035	1795.652
