DTS Sentinel unit serial number:	SN413079Multiplexer serial number:	ORYXHardware model number:	OX4-SRSoftware version number:	ORYX F/W v4.00 Oryx Data Collector v3.7.2.0data status	okinstallation	princeton_trtdifferential loss correction	single-endedforward channel	channel 1reverse channel	N/Adate	2019/09/12time	19:14:34forward acquisition time	15.00reverse acquisition time	0.00gamma	496.2192k internal	0.2320k external	0.2320temperature offset calibration	1.0128default loss term (dB/km)	0.3790temperature slope calibration	1.0000multiplexer offset coefficient	1.0000multiplexer slope coefficient	1.0000fibre end	0.00T internal ref (°C)	32.50T ext. ref 1 (°C)	3.22T ext. ref 2 (°C)	27.09length (m)	temperature (°C)	Stokes	anti-Stokes-747.200	-25.252	-0.281	0.168
-746.185	-39.398	-0.180	-0.095
-745.171	-24.324	0.439	-0.265
-744.156	-36.390	-0.444	-0.242
-743.142	529.416	-0.200	-0.478
-742.127	-152.635	0.603	0.044
-741.112	-147.997	0.557	-0.047
-740.098	170.311	-0.519	0.751
-739.083	800.000	-0.009	-0.028
-738.069	344.787	-0.462	-0.916
-737.054	134.777	0.682	-0.895
-736.039	-187.737	0.122	-0.002
-735.025	-79.259	0.158	0.054
-734.010	-70.908	-0.586	0.223
-732.996	66.400	-0.404	0.415
-731.981	-144.177	0.455	-0.043
-730.966	-18.465	0.092	-0.058
-729.952	7.514	-0.399	-0.302
-728.937	381.211	-0.297	-0.616
-727.923	5.161	0.630	0.469
-726.908	-200.000	0.021	0.452
-725.894	208.996	-0.167	-0.264
-724.879	-139.138	-0.159	-0.017
-723.864	101.360	-0.020	-0.024
-722.850	24.226	0.565	-0.471
-721.835	-114.812	1.099	-0.212
-720.821	-63.302	-0.937	-0.390
-719.806	-200.000	0.023	-0.379
-718.791	-61.293	-0.241	-0.102
-717.777	518.135	0.213	0.503
-716.762	114.297	0.182	0.224
-715.748	-52.675	0.092	-0.043
-714.733	-19.279	-0.320	-0.200
-713.718	65.001	-0.436	-0.444
-712.704	-119.586	0.475	0.083
-711.689	-200.000	-0.012	0.230
-710.675	381.402	0.108	-0.223
-709.660	-70.917	0.245	0.093
-708.645	-173.166	-0.279	-0.009
-707.631	-155.156	-1.622	-0.107
-706.616	-2.782	0.429	-0.303
-705.602	-95.043	0.514	0.140
-704.587	-200.000	0.026	-0.332
-703.572	800.000	0.070	0.284
-702.558	-30.206	0.323	0.185
-701.543	-47.632	-0.580	0.284
-700.529	59.912	-0.392	0.391
-699.514	-57.399	0.903	0.401
-698.499	-145.062	-0.412	-0.038
-697.485	101.774	-0.081	0.095
-696.470	-117.245	0.343	0.063
-695.456	-36.318	0.659	0.359
-694.441	-40.353	0.820	0.430
-693.426	-200.000	-0.064	0.480
-692.412	-35.277	-0.091	-0.050
-691.397	-179.574	-0.796	-0.018
-690.383	-200.000	-0.104	0.560
-689.368	115.430	0.628	0.774
-688.354	32.866	0.038	-0.033
-687.339	460.589	0.504	-1.133
-686.324	-9.590	-0.863	-0.580
-685.310	-123.056	0.220	-0.036
-684.295	-200.000	-0.221	-1.225
-683.281	325.142	-0.255	0.492
-682.266	260.793	0.481	-0.839
-681.251	149.341	0.624	0.852
-680.237	-26.205	0.396	0.235
-679.222	79.517	0.393	0.425
-678.208	39.999	0.863	-0.782
-677.193	-133.765	-0.332	-0.042
-676.178	434.873	-0.226	0.496
-675.164	47.302	-0.632	0.594
-674.149	166.303	0.530	-0.757
-673.135	-100.027	-0.240	0.060
-672.120	-75.448	0.445	-0.160
-671.105	141.847	0.353	-0.472
-670.091	-70.623	-0.356	-0.136
-669.076	-200.000	0.055	-0.419
-668.062	84.383	0.323	-0.356
-667.047	54.117	0.286	0.277
-666.032	138.560	-0.220	-0.291
-665.018	121.088	-0.297	0.372
-664.003	-41.732	-0.346	0.179
-662.989	-64.252	0.296	0.121
-661.974	103.516	-0.396	-0.469
-660.959	63.639	0.195	0.198
-659.945	284.031	-0.372	0.673
-658.930	344.528	0.278	0.549
-657.916	408.597	0.072	-0.154
-656.901	-43.861	-0.319	0.162
-655.886	-156.305	0.779	0.049
-654.872	-200.000	-0.105	0.600
-653.857	-168.190	-0.500	-0.020
-652.843	-63.871	1.152	-0.475
-651.828	8.473	-0.392	-0.297
-650.814	8.347	0.515	0.390
-649.799	-200.000	0.008	0.119
-648.784	-135.668	-0.600	-0.072
-647.770	800.000	0.316	-1.221
-646.755	233.745	0.392	0.650
-645.741	-113.499	0.815	0.161
-644.726	314.806	0.052	0.098
-643.711	30.931	-0.397	0.343
-642.697	156.674	0.106	0.147
-641.682	231.642	0.428	0.706
-640.668	76.475	-0.482	-0.514
-639.653	91.945	-0.315	-0.357
-638.638	-200.000	-0.033	-0.203
-637.624	-62.199	-0.800	0.336
-636.609	-16.753	0.352	-0.224
-635.595	-37.847	0.772	-0.413
-634.580	-200.000	0.003	-0.212
-633.565	-44.980	0.864	0.433
-632.551	-200.000	0.031	-0.453
-631.536	-95.261	0.414	-0.112
-630.522	800.000	-0.078	0.319
-629.507	-106.329	-0.280	-0.063
-628.492	-136.739	0.581	0.067
-627.478	115.276	0.449	-0.552
-626.463	-198.809	-0.627	0.003
-625.449	-99.844	0.117	-0.030
-624.434	109.688	0.350	-0.423
-623.419	-156.697	-1.094	-0.068
-622.405	-189.417	0.259	0.003
-621.390	-200.000	0.021	0.283
-620.376	-200.000	0.055	-0.415
-619.361	177.782	0.176	-0.259
-618.346	-197.721	-0.915	0.006
-617.332	-139.739	-0.492	0.053
-616.317	-159.342	0.617	-0.035
-615.303	117.918	0.323	0.401
-614.288	-80.885	0.892	-0.298
-613.273	249.164	-0.212	0.362
-612.259	800.000	-0.117	0.376
-611.244	-158.805	-0.291	0.017
-610.230	40.039	0.055	-0.050
-609.215	-109.469	0.888	0.189
-608.201	-200.000	-0.041	0.526
-607.186	-112.919	-1.386	0.276
-606.171	-200.000	0.012	0.442
-605.157	-147.260	0.475	0.041
-604.142	-34.765	0.231	0.127
-603.128	-200.000	0.017	-0.191
-602.113	-71.031	-0.634	-0.240
-601.098	-114.633	-0.440	-0.085
-600.084	258.849	0.170	-0.294
-599.069	-102.613	-0.544	0.131
-598.055	-112.761	0.364	0.073
-597.040	311.702	-0.362	-0.682
-596.025	800.000	-0.077	-0.271
-595.011	-142.197	-0.788	0.078
-593.996	9.588	-0.471	-0.359
-592.982	-141.945	-0.013	-0.001
-591.967	-200.000	0.112	-0.672
-590.952	-87.255	-0.631	-0.192
-589.938	593.472	-0.155	0.385
-588.923	-200.000	0.061	-0.673
-587.909	-36.210	0.540	-0.293
-586.894	-125.921	-0.330	-0.050
-585.879	-74.688	0.952	0.344
-584.865	482.335	0.213	-0.487
-583.850	-141.090	0.910	-0.093
-582.836	85.269	0.646	0.712
-581.821	-200.000	-0.016	0.691
-580.806	104.079	0.315	0.372
-579.792	716.872	-0.061	-0.161
-578.777	-110.113	0.104	-0.022
-577.763	794.772	0.253	-0.701
-576.748	-35.930	1.064	-0.578
-575.733	-110.996	0.213	-0.044
-574.719	-200.000	0.113	-0.613
-573.704	68.542	0.412	0.424
-572.690	233.266	0.506	0.836
-571.675	-200.000	0.095	-0.690
-570.661	-20.368	-0.560	0.346
-569.646	-39.687	-0.193	-0.102
-568.631	644.298	-0.212	-0.543
-567.617	-200.000	-0.085	-0.642
-566.602	26.614	-1.004	-0.844
-565.588	-18.562	-0.823	-0.516
-564.573	-200.000	-0.063	0.278
-563.558	30.154	-1.278	-1.095
-562.544	-200.000	-0.012	-0.357
-561.529	-64.194	1.212	-0.496
-560.515	-1.830	0.863	0.609
-559.500	-200.000	0.032	0.503
-558.485	350.069	-0.181	0.359
-557.471	-36.918	0.575	0.309
-556.456	16.621	-0.611	0.484
-555.442	251.367	0.192	-0.327
-554.427	88.221	-0.335	-0.373
-553.412	-200.000	0.038	-0.364
-552.398	-118.505	-0.626	-0.111
-551.383	-200.000	-0.054	-0.441
-550.369	482.682	-0.486	-1.108
-549.354	0.200	-0.332	0.237
-548.339	38.829	0.443	-0.397
-547.325	170.327	-0.187	0.268
-546.310	-200.000	-0.021	0.193
-545.296	643.198	-0.251	0.643
-544.281	-92.087	-0.653	0.185
-543.266	-132.006	-1.397	0.183
-542.252	-56.469	0.242	0.108
-541.237	294.316	-0.147	-0.270
-540.223	-123.760	0.451	-0.071
-539.208	275.337	-0.157	-0.279
-538.193	-200.000	-0.151	0.922
-537.179	234.882	0.086	0.142
-536.164	-102.487	0.734	0.176
-535.150	-168.514	0.286	0.011
-534.135	34.565	-0.298	-0.261
-533.121	-79.654	-0.676	-0.229
-532.106	-27.637	-0.350	-0.204
-531.091	60.142	0.308	0.306
-530.077	-200.000	-0.021	-0.576
-529.062	93.881	-1.147	1.303
-528.048	-87.734	-0.927	0.280
-527.033	-154.931	0.573	0.038
-526.018	-127.025	-0.583	-0.086
-525.004	492.313	-0.282	-0.648
-523.989	112.634	0.444	-0.539
-522.975	289.133	-0.049	-0.089
-521.960	202.488	0.044	0.068
-520.945	55.824	0.585	-0.569
-519.931	-200.000	0.021	0.296
-518.916	-111.636	-0.353	0.072
-517.902	153.584	0.470	-0.645
-516.887	-67.041	-0.613	0.242
-515.872	460.719	0.342	-0.763
-514.858	-200.000	0.034	-0.350
-513.843	-26.027	-0.336	0.198
-512.829	800.000	0.353	-1.280
-511.814	-200.000	0.011	-0.251
-510.799	246.559	0.195	-0.330
-509.785	800.000	0.230	0.773
-508.770	548.914	-0.210	0.505
-507.756	479.442	-0.237	0.538
-506.741	434.057	-0.227	0.493
-505.726	245.429	0.290	0.490
-504.712	-200.000	0.039	-0.396
-503.697	-200.000	-0.105	-0.567
-502.683	199.129	0.452	0.693
-501.668	-98.005	-0.527	-0.136
-500.653	167.243	0.541	0.769
-499.639	-19.928	0.589	0.364
-498.624	-94.038	0.569	-0.156
-497.610	-2.639	-0.359	0.252
-496.595	-120.722	-0.733	0.124
-495.581	77.163	-0.047	0.050
-494.566	187.749	-0.150	-0.224
-493.551	97.140	-0.145	-0.166
-492.537	-200.000	0.055	0.467
-491.522	-77.381	-0.643	0.224
-490.508	-118.932	0.649	-0.114
-489.493	800.000	0.128	-0.409
-488.478	-200.000	-0.020	0.766
-487.464	488.908	-0.194	0.443
-486.449	164.813	-0.228	-0.322
-485.435	41.413	0.600	-0.544
-484.420	-128.613	0.042	-0.006
-483.405	33.201	-0.162	-0.141
-482.391	121.354	0.171	-0.214
-481.376	422.789	0.208	0.447
-480.362	-189.574	0.619	0.007
-479.347	115.936	0.209	0.256
-478.332	680.433	0.339	-0.883
-477.318	-200.000	-0.008	-0.166
-476.303	-15.112	0.669	0.429
-475.289	96.633	-0.276	0.317
-474.274	48.173	-0.314	-0.294
-473.259	413.628	-0.215	0.459
-472.245	-34.413	0.847	0.464
-471.230	42.478	0.818	0.745
-470.216	-200.000	-0.097	-0.541
-469.201	-52.535	-0.410	-0.189
-468.186	-82.571	-0.850	-0.276
-467.172	41.500	0.336	-0.304
-466.157	-200.000	0.000	0.112
-465.143	-3.551	-1.019	-0.709
-464.128	252.358	0.247	0.421
-463.113	240.078	0.459	0.765
-462.099	-200.000	-0.005	0.164
-461.084	61.908	0.493	0.491
-460.070	-200.000	0.022	-0.643
-459.055	29.553	-0.271	-0.231
-458.040	-115.218	0.195	-0.037
-457.026	154.780	-0.266	0.365
-456.011	-5.944	-0.184	0.126
-454.997	72.632	-0.645	0.672
-453.982	221.402	-0.071	0.114
-452.968	-200.000	0.093	-0.937
-451.953	97.890	0.412	-0.474
-450.938	800.000	-0.271	-1.147
-449.924	365.234	0.294	0.592
-448.909	-102.916	0.217	0.051
-447.895	-38.971	1.496	-0.787
-446.880	117.522	-0.387	-0.476
-445.865	249.059	-0.249	-0.421
-444.851	44.235	-0.374	-0.343
-443.836	219.968	-0.342	-0.547
-442.822	126.499	0.678	0.857
-441.807	-200.000	0.033	-0.717
-440.792	212.665	0.419	-0.660
-439.778	-30.244	0.519	-0.294
-438.763	34.016	0.337	-0.294
-437.749	800.000	-0.149	-0.427
-436.734	-81.379	0.262	-0.086
-435.719	-200.000	0.129	0.630
-434.705	-61.029	0.358	-0.151
-433.690	-131.958	-0.811	0.106
-432.676	185.151	0.433	-0.642
-431.661	96.417	-0.214	-0.244
-430.646	734.627	0.051	0.136
-429.632	98.726	0.674	-0.777
-428.617	-70.214	-0.750	-0.285
-427.603	-51.840	0.672	0.313
-426.588	245.740	0.244	0.410
-425.573	800.000	-0.167	-0.494
-424.559	-145.564	0.239	0.021
-423.544	-106.910	0.364	-0.080
-422.530	241.158	-0.348	0.580
-421.515	58.899	-0.422	0.414
-420.500	59.468	0.287	0.282
-419.486	51.152	-0.437	0.414
-418.471	-9.646	-0.436	-0.290
-417.457	360.558	-0.332	0.664
-416.442	-200.000	-0.019	-0.096
-415.428	111.525	-0.266	0.320
-414.413	173.583	0.537	-0.773
-413.398	361.179	0.240	0.481
-412.384	27.767	0.280	-0.236
-411.369	-31.918	0.496	0.277
-410.355	-11.938	0.316	0.206
-409.340	-40.647	-1.366	0.707
-408.325	-94.811	0.203	-0.055
-407.311	498.537	0.480	1.104
-406.296	-58.156	0.772	0.336
-405.282	-88.591	0.393	-0.117
-404.267	-73.947	0.340	0.123
-403.252	-200.000	-0.001	-0.836
-402.238	30.771	0.497	0.425
-401.223	-3.433	0.641	0.445
-400.209	12.343	-0.428	-0.329
-399.194	800.000	-0.127	-0.352
-398.179	178.114	0.114	-0.165
-397.165	77.136	0.636	0.674
-396.150	-76.984	-0.366	-0.128
-395.136	-81.254	-0.843	0.277
-394.121	90.849	-0.447	0.500
-393.106	109.152	-0.368	0.439
-392.092	-200.000	-0.096	-0.470
-391.077	163.404	-0.201	-0.282
-390.063	-200.000	0.022	0.158
-389.048	55.269	0.464	0.447
-388.033	48.394	0.119	0.111
-387.019	800.000	-0.116	0.329
-386.004	-74.435	-0.304	-0.109
-384.990	-200.000	0.034	-0.507
-383.975	9.810	-0.421	0.318
-382.960	-61.843	0.549	0.229
-381.946	-130.625	-0.176	0.024
-380.931	31.100	0.471	-0.403
-379.917	-97.713	-0.728	0.188
-378.902	-89.900	0.645	0.188
-377.888	-200.000	-0.012	-0.264
-376.873	-96.349	-0.694	0.183
-375.858	292.605	-0.184	-0.334
-374.844	-16.481	0.666	-0.421
-373.829	-33.349	-0.190	0.105
-372.815	-56.970	-0.510	-0.224
-371.800	130.073	0.319	0.407
-370.785	800.000	-0.137	0.567
-369.771	95.645	0.467	-0.531
-368.756	111.783	0.100	-0.120
-367.742	526.628	-0.191	0.449
-366.727	-128.792	0.543	-0.076
-365.712	-111.090	-0.684	0.140
-364.698	234.526	0.118	-0.193
-363.683	66.662	0.268	-0.272
-362.669	700.680	0.256	-0.672
-361.654	329.069	0.087	0.166
-360.639	592.064	-0.387	0.951
-359.625	-80.177	-0.957	0.319
-358.610	608.092	-0.238	-0.592
-357.596	800.000	0.154	0.485
-356.581	-200.000	0.032	0.592
-355.566	265.716	0.465	-0.807
-354.552	-83.585	0.685	0.218
-353.537	117.133	-0.176	0.215
-352.523	339.891	-0.169	-0.327
-351.508	73.682	0.350	-0.365
-350.493	324.244	0.166	0.316
-349.479	-118.821	0.278	-0.049
-348.464	-200.000	0.039	0.301
-347.450	-200.000	0.003	-0.118
-346.435	-137.413	-0.794	-0.089
-345.420	-26.068	0.743	0.435
-344.406	800.000	0.062	0.246
-343.391	482.115	0.095	-0.216
-342.377	-29.824	-0.268	-0.152
-341.362	-72.386	0.187	0.069
-340.348	101.794	-0.577	-0.670
-339.333	70.148	0.404	0.415
-338.318	-6.862	0.154	-0.104
-337.304	198.629	-0.324	-0.493
-336.289	-81.222	1.257	0.413
-335.275	647.506	-0.209	0.531
-334.260	137.152	-0.298	0.387
-333.245	-200.000	-0.016	0.629
-332.231	-82.226	0.969	-0.314
-331.216	514.435	-0.213	-0.494
-330.202	21.898	-0.223	0.181
-329.187	53.744	0.172	0.164
-328.172	-112.538	0.428	-0.085
-327.158	-200.000	-0.063	0.468
-326.143	-96.117	-0.997	0.263
-325.129	737.500	-0.094	-0.251
-324.114	36.959	-0.184	-0.162
-323.099	-153.075	-0.437	-0.031
-322.085	-4.204	0.309	-0.213
-321.070	93.623	-0.383	-0.432
-320.056	-142.777	-0.446	-0.043
-319.041	-20.463	0.232	0.142
-318.026	-200.000	-0.077	-1.216
-317.012	-180.040	0.699	-0.015
-315.997	-121.030	-0.662	-0.110
-314.983	800.000	0.302	-0.830
-313.968	-200.000	0.063	-0.391
-312.953	-141.800	1.026	0.102
-311.939	-109.163	-1.068	0.226
-310.924	100.382	0.522	-0.603
-309.910	249.865	0.124	0.209
-308.895	290.257	-0.114	0.207
-307.880	-200.000	-0.006	-0.220
-306.866	-200.000	0.094	-0.444
-305.851	260.691	-0.437	0.752
-304.837	-127.989	-0.714	0.102
-303.822	800.000	0.210	0.680
-302.807	-200.000	-0.101	1.039
-301.793	100.421	-0.317	0.365
-300.778	-166.334	-0.810	-0.034
-299.764	46.875	0.666	-0.615
-298.749	-183.525	0.586	0.010
-297.735	-200.000	0.002	-0.177
-296.720	18.828	0.105	0.083
-295.705	127.925	0.458	-0.579
-294.691	53.292	-0.593	0.564
-293.676	-71.544	-0.865	0.321
-292.662	-116.862	0.658	-0.120
-291.647	-200.000	0.090	0.576
-290.632	22.479	-0.496	0.403
-289.618	322.390	-0.340	0.643
-288.603	81.672	0.844	-0.907
-287.589	-200.000	0.115	0.723
-286.574	800.000	0.215	0.716
-285.559	-97.206	-0.279	0.072
-284.545	-200.000	0.095	-0.590
-283.530	-200.000	0.066	0.414
-282.516	800.000	0.216	-0.674
-281.501	-165.713	-0.344	-0.015
-280.486	-200.000	-0.075	-0.422
-279.472	450.425	-0.134	0.294
-278.457	-33.132	0.432	0.238
-277.443	52.011	0.466	-0.441
-276.428	-44.901	-0.966	-0.478
-275.413	-91.540	0.071	-0.020
-274.399	-165.108	-0.194	-0.009
-273.384	800.000	0.183	0.792
-272.370	49.334	-0.251	0.234
-271.355	156.772	0.268	-0.367
-270.340	-200.000	-0.008	-0.133
-269.326	-48.785	-0.534	-0.254
-268.311	-126.852	-0.504	-0.074
-267.297	170.367	0.300	-0.426
-266.282	13.562	-0.092	-0.071
-265.267	203.417	-0.477	-0.732
-264.253	378.352	-0.356	-0.724
-263.238	78.409	0.296	-0.313
-262.224	-31.135	0.869	0.486
-261.209	78.676	-0.214	-0.227
-260.195	800.000	-0.107	0.415
-259.180	40.601	-0.399	0.357
-258.165	-23.755	0.448	0.266
-257.151	800.000	0.144	0.459
-256.136	-4.549	-0.558	-0.382
-255.122	211.692	0.182	0.284
-254.107	-72.637	0.079	0.029
-253.092	-200.000	-0.063	0.470
-252.078	400.078	-0.376	0.782
-251.063	-200.000	0.081	0.499
-250.049	-200.000	-0.038	-0.175
-249.034	128.481	-0.387	-0.489
-248.019	800.000	-0.349	-1.117
-247.005	-200.000	0.245	1.424
-245.990	-135.400	-0.764	-0.090
-244.976	95.413	-0.327	-0.370
-243.961	-200.000	0.030	-0.212
-242.946	-133.409	-0.815	0.102
-241.932	78.918	0.150	-0.159
-240.917	264.873	-0.485	0.837
-239.903	-200.000	-0.056	0.612
-238.888	258.919	0.212	-0.362
-237.873	136.250	0.351	0.454
-236.859	-24.020	0.789	0.467
-235.844	-49.510	0.756	0.357
-234.830	-200.000	0.021	-0.558
-233.815	165.445	0.542	-0.759
-232.800	-79.791	-1.017	-0.339
-231.786	-158.517	-0.440	0.025
-230.771	196.588	-0.268	-0.405
-229.757	-55.915	0.851	-0.376
-228.742	800.000	-0.102	-0.300
-227.727	-200.000	-0.029	0.709
-226.713	-200.000	-0.044	0.481
-225.698	-91.290	-0.571	0.162
-224.684	-200.000	0.087	-0.600
-223.669	164.479	-0.040	-0.056
-222.655	-94.061	0.287	-0.078
-221.640	-94.287	-0.263	0.071
-220.625	94.480	0.530	-0.597
-219.611	507.479	-0.095	0.218
-218.596	-200.000	-0.021	1.080
-217.582	-200.000	0.038	0.227
-216.567	-200.000	0.082	-0.571
-215.552	-41.442	0.668	0.341
-214.538	-89.298	-0.073	-0.021
-213.523	378.647	-0.219	0.445
-212.509	800.000	0.190	0.671
-211.494	800.000	0.136	0.574
-210.479	171.688	-0.219	-0.312
-209.465	800.000	0.101	-0.391
-208.450	-67.640	-0.508	0.197
-207.436	-50.734	-0.603	-0.281
-206.421	-104.697	0.445	0.101
-205.406	-43.120	-1.116	-0.560
-204.392	334.193	0.132	0.253
-203.377	-67.238	0.566	-0.221
-202.363	39.241	-0.440	-0.390
-201.348	37.686	0.808	0.710
-200.333	-200.000	0.627	0.003
-199.319	-67.269	0.392	-0.153
-198.304	-128.755	-0.168	-0.023
-197.290	-200.000	0.189	0.899
-196.275	86.915	0.364	-0.398
-195.260	-200.000	-0.069	-0.421
-194.246	733.326	0.234	-0.620
-193.231	-59.902	0.678	-0.287
-192.217	-119.861	-0.571	-0.097
-191.202	-143.562	0.961	0.091
-190.187	800.000	0.036	-0.113
-189.173	-88.614	0.533	0.157
-188.158	16.768	-0.718	0.562
-187.144	-200.000	-0.017	-0.273
-186.129	-63.582	0.095	0.038
-185.114	567.635	-0.063	0.151
-184.100	-39.887	-0.414	0.214
-183.085	-119.397	-0.258	-0.044
-182.071	-14.118	-0.359	0.229
-181.056	800.000	-0.134	0.370
-180.042	-36.780	-0.760	-0.404
-179.027	380.430	0.116	0.236
-178.012	35.014	-0.529	0.458
-176.998	800.000	0.109	-0.417
-175.983	800.000	0.201	-0.779
-174.969	800.000	-0.246	0.785
-173.954	-148.938	-0.567	-0.045
-172.939	88.391	-0.566	0.621
-171.925	-87.398	-0.109	0.033
-170.910	-27.158	-0.578	-0.333
-169.896	54.326	0.820	0.781
-168.881	-113.042	-0.282	0.055
-167.866	150.194	-0.440	0.590
-166.852	52.706	0.700	-0.661
-165.837	-200.000	0.086	0.420
-164.823	662.702	0.109	0.278
-163.808	8.817	-0.325	0.242
-162.793	-200.000	-0.013	0.135
-161.779	56.569	-0.509	-0.490
-160.764	-200.000	0.027	-0.499
-159.750	332.849	0.491	-0.937
-158.735	678.996	-0.161	0.413
-157.720	130.332	0.262	0.331
-156.706	401.491	0.457	0.947
-155.691	-94.656	0.353	0.095
-154.677	-128.845	-0.753	0.105
-153.662	-200.000	0.288	1.313
-152.647	122.072	0.022	-0.027
-151.633	-200.000	0.120	-0.854
-150.618	119.452	-0.643	-0.786
-149.604	800.000	0.175	0.505
-148.589	800.000	-0.118	0.391
-147.574	-200.000	0.021	-0.220
-146.560	-112.243	-0.356	-0.070
-145.545	-107.365	-0.211	-0.046
-144.531	-30.766	-0.293	0.164
-143.516	-8.222	0.759	-0.505
-142.502	-80.675	-0.547	-0.180
-141.487	35.821	-0.495	0.430
-140.472	-96.305	0.587	0.154
-139.458	-172.645	-0.429	-0.013
-138.443	269.186	0.164	0.284
-137.429	571.728	-0.369	-0.887
-136.414	9.140	0.499	0.372
-135.399	417.644	0.207	-0.437
-134.385	-57.258	-0.450	-0.195
-133.370	385.828	0.079	-0.161
-132.356	-37.252	0.330	-0.174
-131.341	-103.673	0.605	-0.140
-130.326	-131.727	-0.268	0.035
-129.312	-200.000	0.040	0.789
-128.297	800.000	0.052	0.185
-127.283	-132.357	-0.197	-0.025
-126.268	-200.000	0.073	0.353
-125.253	-200.000	0.015	0.513
-124.239	128.352	0.545	-0.685
-123.224	21.335	0.699	0.561
-122.210	269.369	0.217	-0.376
-121.195	268.555	0.202	-0.349
-120.180	-200.000	0.008	-0.062
-119.166	-86.760	0.178	-0.054
-118.151	-163.643	0.342	0.016
-117.137	-200.000	-0.071	-0.314
-116.122	-53.997	-0.089	0.040
-115.107	-131.556	0.280	-0.036
-114.093	-200.000	0.051	0.989
-113.078	-142.782	0.657	-0.063
-112.064	345.423	-0.172	-0.333
-111.049	-0.351	0.264	-0.185
-110.034	22.221	-0.229	0.184
-109.020	800.000	0.245	-0.691
-108.005	782.791	0.074	0.201
-106.991	-80.803	0.182	-0.060
-105.976	-200.000	0.018	-0.480
-104.962	800.000	0.055	0.150
-103.947	-200.000	-0.065	0.941
-102.932	-200.000	-0.022	0.224
-101.918	-105.989	-0.230	-0.051
-100.903	5.260	-0.268	-0.195
-99.889	-3.013	-0.738	0.508
-98.874	-6.249	-0.413	0.278
-97.859	-107.512	0.885	-0.191
-96.845	6.704	-0.192	-0.141
-95.830	6.162	-0.572	0.418
-94.816	151.751	-0.394	-0.530
-93.801	-117.511	0.460	0.082
-92.786	-200.000	0.034	0.394
-91.772	-200.000	-0.134	0.817
-90.757	174.898	-0.140	0.200
-89.743	74.067	0.165	0.171
-88.728	-191.668	-0.346	0.003
-87.713	800.000	0.231	0.709
-86.699	114.217	-0.180	0.216
-85.684	-200.000	-0.072	-0.355
-84.670	-200.000	0.061	-0.481
-83.655	329.866	0.122	0.232
-82.640	108.443	-0.732	-0.861
-81.626	800.000	-0.204	-0.628
-80.611	-135.272	-0.306	-0.036
-79.597	-108.605	0.395	-0.083
-78.582	-65.497	0.387	-0.153
-77.567	170.680	0.348	0.492
-76.553	800.000	-0.240	0.701
-75.538	-200.000	-0.105	0.975
-74.524	800.000	-0.252	-0.768
-73.509	193.641	0.358	-0.534
-72.494	-86.190	0.528	0.160
-71.480	80.230	-0.226	-0.240
-70.465	-200.000	0.274	-1.196
-69.451	-82.247	-0.245	0.078
-68.436	800.000	-0.171	0.548
-67.422	39.215	0.027	0.024
-66.407	12.149	0.383	-0.290
-65.392	-200.000	0.112	0.501
-64.378	-38.359	-0.161	0.084
-63.363	77.179	-0.682	-0.713
-62.349	445.158	0.065	-0.140
-61.334	-12.721	-1.373	-0.881
-60.319	257.835	0.288	-0.488
-59.305	300.419	-0.068	-0.124
-58.290	-41.617	1.039	0.525
-57.276	263.557	0.889	1.521
-56.261	-200.000	94.983	591.856
-55.246	676.725	1352.960	3460.226
-54.232	204.560	2516.065	3839.547
-53.217	119.715	2121.897	2587.251
-52.203	44.556	1592.022	1439.720
-51.188	35.937	1333.340	1154.346
-50.173	33.091	1291.169	1101.240
-49.159	55.859	1342.136	1280.493
-48.144	56.894	1357.955	1301.675
-47.130	36.261	1315.872	1140.959
-46.115	32.604	1299.688	1105.476
-45.100	32.412	1293.968	1099.444
-44.086	32.523	1291.481	1097.931
-43.071	32.258	1289.375	1094.557
-42.057	32.398	1287.365	1093.624
-41.042	32.509	1285.680	1092.789
-40.027	32.343	1284.019	1090.372
-39.013	32.388	1281.919	1088.808
-37.998	32.263	1281.642	1087.808
-36.984	32.520	1278.918	1086.936
-35.969	32.596	1276.298	1085.102
-34.954	32.666	1274.579	1084.001
-33.940	32.845	1273.270	1083.872
-32.925	32.600	1272.032	1081.370
-31.911	32.322	1270.900	1078.767
-30.896	32.531	1269.509	1078.743
-29.881	32.440	1268.261	1077.121
-28.867	32.702	1267.418	1077.857
-27.852	32.859	1264.907	1076.577
-26.838	32.865	1263.609	1075.460
-25.823	32.471	1263.133	1072.773
-24.809	32.475	1261.621	1071.466
-23.794	32.538	1260.733	1071.027
-22.779	32.596	1258.611	1069.514
-21.765	32.525	1257.731	1068.323
-20.750	32.538	1256.011	1066.890
-19.736	32.587	1253.919	1065.346
-18.721	32.506	1253.513	1064.505
-17.706	32.307	1253.291	1063.148
-16.692	32.502	1251.735	1062.884
-15.677	32.253	1250.618	1060.492
-14.663	32.362	1249.565	1060.166
-13.648	32.221	1248.305	1058.265
-12.633	32.332	1247.703	1058.338
-11.619	32.372	1246.322	1057.349
-10.604	32.748	1244.492	1057.866
-9.590	32.489	1245.193	1056.964
-8.575	32.424	1243.254	1054.914
-7.560	32.501	1242.581	1054.730
-6.546	32.647	1241.305	1054.421
-5.531	32.247	1241.407	1052.230
-4.517	32.616	1239.469	1052.606
-3.502	32.351	1239.946	1051.486
-2.487	32.430	1238.072	1050.298
-1.473	32.562	1234.119	1047.635
-0.458	30.829	1218.720	1024.994
0.556	28.296	1201.990	986.066
1.571	24.480	1205.411	968.135
2.586	23.530	1220.076	974.612
3.600	23.310	1207.762	963.494
4.615	17.278	1136.623	875.682
5.629	7.741	1061.821	771.879
6.644	3.491	1042.415	737.418
7.659	3.193	1038.892	733.439
8.673	2.963	1038.292	731.857
9.688	3.234	1036.064	731.512
10.702	3.202	1035.342	730.783
11.717	9.916	1043.418	768.461
12.731	19.402	1058.213	824.867
13.746	24.161	1062.035	850.552
14.761	24.525	1063.052	853.034
15.775	24.372	1063.002	852.187
16.790	24.108	1059.852	848.328
17.804	23.796	1060.038	846.914
18.819	23.756	1060.201	846.777
19.834	24.045	1058.910	847.049
20.848	23.857	1059.348	846.427
21.863	24.025	1058.132	846.180
22.877	23.890	1057.374	844.857
23.892	23.843	1056.916	844.196
24.907	23.305	1057.114	841.722
25.921	23.550	1055.560	841.574
26.936	23.413	1053.877	839.510
27.950	23.640	1052.886	839.717
28.965	23.332	1050.948	836.644
29.980	23.732	1048.274	836.324
30.994	24.217	1047.947	838.275
32.009	23.812	1047.904	836.261
33.023	23.874	1046.425	835.296
34.038	23.779	1044.961	833.607
35.053	23.782	1044.319	833.034
36.067	23.798	1042.387	831.496
37.082	23.634	1042.960	831.109
38.096	23.692	1042.388	830.853
39.111	24.180	1041.032	831.977
40.126	23.599	1040.470	828.744
41.140	23.170	1039.932	826.238
42.155	23.083	1038.481	824.605
43.169	23.402	1035.997	824.044
44.184	23.281	1035.180	822.759
45.199	23.070	1034.398	821.085
46.213	23.125	1034.008	820.961
47.228	23.716	1034.947	824.377
48.242	23.938	1032.576	823.443
49.257	23.956	1032.268	823.206
50.271	23.670	1032.325	821.857
51.286	24.377	1030.128	823.300
52.301	23.903	1030.168	821.072
53.315	23.929	1028.581	819.855
54.330	23.717	1027.931	818.284
55.344	23.974	1026.726	818.437
56.359	23.746	1026.053	816.777
57.374	23.398	1025.469	814.644
58.388	23.370	1025.680	814.612
59.403	23.185	1024.183	812.498
60.417	23.103	1023.119	811.208
61.432	23.612	1021.595	812.257
62.447	23.386	1021.751	811.274
63.461	23.550	1019.978	810.546
64.476	23.461	1018.808	809.137
65.490	23.174	1019.079	807.973
66.505	23.180	1018.636	807.575
67.520	23.229	1017.943	807.179
68.534	23.098	1017.447	806.117
69.549	22.669	1016.057	802.991
70.563	22.586	1015.572	802.158
71.578	22.831	1013.610	801.652
72.593	22.468	1012.552	799.094
73.607	22.613	1012.464	799.613
74.622	22.392	1012.170	798.310
75.636	22.887	1010.912	799.489
76.651	22.815	1010.821	799.020
77.666	23.416	1009.503	800.620
78.680	22.820	1009.156	797.586
79.695	22.949	1009.040	798.002
80.709	22.976	1009.013	798.032
81.724	23.102	1007.349	797.216
82.739	22.906	1007.707	796.544
83.753	23.542	1007.654	799.297
84.768	24.386	1005.786	801.542
85.782	24.307	1005.156	800.612
86.797	23.953	1004.541	798.462
87.812	23.932	1003.230	797.257
88.826	24.218	1002.888	798.194
89.841	23.975	1002.602	796.806
90.855	24.444	999.774	796.584
91.870	24.448	999.345	796.191
92.884	24.404	998.372	795.149
93.899	23.721	998.990	792.526
94.914	24.086	997.731	793.081
95.928	23.793	996.723	790.905
96.943	23.747	995.607	789.745
97.957	23.766	994.706	789.045
98.972	23.798	993.197	787.921
99.987	23.862	992.624	787.678
101.001	24.130	991.340	787.778
102.016	23.672	991.778	786.027
103.030	24.178	990.306	787.026
104.045	24.228	989.423	786.477
105.060	23.921	988.452	784.281
106.074	23.506	988.610	782.509
107.089	23.494	986.874	781.010
108.103	23.590	985.234	780.068
109.118	22.887	984.997	776.721
110.133	22.938	983.133	775.405
111.147	23.038	982.187	775.027
112.162	23.155	980.988	774.525
113.176	23.310	980.097	774.429
114.191	23.375	979.626	774.276
115.206	23.171	979.211	772.988
116.220	23.180	977.679	771.749
117.235	23.437	976.936	772.213
118.249	22.929	975.965	769.167
119.264	22.738	975.892	768.210
120.279	22.940	974.495	767.920
121.293	22.774	974.377	767.035
122.308	22.693	972.968	765.507
123.322	22.512	972.858	764.568
124.337	22.623	970.981	763.508
125.352	22.627	970.485	763.065
126.366	22.859	969.062	762.882
127.381	22.823	968.916	762.547
128.395	23.235	969.032	764.350
129.410	23.178	968.512	763.624
130.424	23.023	966.989	761.687
131.439	23.485	966.359	763.114
132.454	23.616	965.228	762.715
133.468	23.658	964.091	761.930
134.483	23.659	962.368	760.507
135.497	23.663	962.354	760.446
136.512	23.424	962.702	759.627
137.527	23.254	962.013	758.291
138.541	23.522	960.627	758.277
139.556	23.700	959.174	757.820
140.570	24.053	958.312	758.578
141.585	23.903	959.138	758.526
142.600	24.449	956.473	758.672
143.614	24.203	957.514	758.384
144.629	24.667	955.383	758.599
145.643	23.674	955.854	754.685
146.658	23.526	953.652	752.255
147.673	23.926	952.107	752.662
148.687	23.590	951.348	750.574
149.702	23.369	950.978	749.280
150.716	23.452	949.808	748.644
151.731	23.750	949.812	749.840
152.746	23.647	948.526	748.322
153.760	23.560	948.840	748.138
154.775	24.095	947.207	749.035
155.789	24.026	946.821	748.372
156.804	24.199	944.969	747.569
157.819	24.075	945.038	747.038
158.833	24.054	944.421	746.397
159.848	24.441	943.533	747.248
160.862	24.052	942.945	745.089
161.877	23.594	941.786	742.191
162.892	23.488	940.849	740.945
163.906	23.926	938.569	740.909
164.921	23.573	938.068	738.979
165.935	23.589	938.090	738.998
166.950	23.521	936.829	737.656
167.964	23.647	936.987	738.238
168.979	23.539	935.311	736.403
169.994	23.763	934.379	736.536
171.008	23.728	934.539	736.449
172.023	23.890	933.957	736.598
173.037	24.063	933.277	736.713
174.052	24.071	931.383	735.185
175.067	23.483	930.460	731.964
176.081	23.341	929.896	730.871
177.096	22.983	930.209	729.575
178.110	23.225	928.182	728.916
179.125	22.987	927.830	727.595
180.140	23.127	927.978	728.223
181.154	23.843	927.036	730.363
182.169	23.976	927.377	731.113
183.183	23.918	926.671	730.256
184.198	23.802	926.375	729.478
185.213	23.635	926.152	728.555
186.227	23.870	925.546	728.977
187.242	23.871	923.892	727.613
188.256	23.974	924.626	728.549
189.271	23.945	923.404	727.402
190.286	23.442	921.823	724.038
191.300	23.582	920.418	723.444
192.315	22.810	919.700	719.670
193.329	23.140	918.917	720.335
194.344	23.582	918.043	721.387
195.359	23.912	917.577	722.295
196.373	23.712	918.556	722.190
197.388	24.174	918.483	723.945
198.402	24.191	918.324	723.825
199.417	24.266	917.871	723.708
200.432	24.764	916.402	724.506
201.446	24.563	916.140	723.417
202.461	24.088	916.100	721.398
203.475	24.206	914.066	720.212
204.490	23.830	913.822	718.435
205.504	23.903	912.016	717.247
206.519	23.780	912.203	716.834
207.534	24.244	910.548	717.339
208.548	23.975	911.296	716.779
209.563	24.048	910.298	716.225
210.577	24.133	908.778	715.307
211.592	24.333	908.593	715.901
212.607	24.299	909.045	716.056
213.621	24.277	908.304	715.323
214.636	24.305	907.264	714.553
215.650	24.099	906.103	712.750
216.665	24.310	905.635	713.164
217.680	24.360	905.204	712.960
218.694	24.553	903.714	712.493
219.709	23.764	904.034	709.532
220.723	23.647	903.738	708.773
221.738	23.848	901.855	708.034
222.753	23.767	900.704	706.746
223.767	24.090	901.436	708.542
224.782	24.564	901.154	710.143
225.796	24.791	899.916	710.004
226.811	24.238	899.780	707.641
227.826	23.713	898.360	704.376
228.840	23.633	898.208	703.879
229.855	23.754	897.109	703.433
230.869	23.456	897.090	702.180
231.884	23.454	896.822	701.898
232.899	23.729	895.986	702.268
233.913	23.776	895.345	701.892
234.928	23.317	894.469	699.331
235.942	23.235	893.985	698.567
236.957	23.288	892.699	697.708
237.972	23.268	892.553	697.453
238.986	23.697	891.204	698.025
240.001	23.142	892.078	696.461
241.015	23.335	890.953	696.282
242.030	23.513	890.786	696.788
243.045	23.731	890.088	697.037
244.059	24.017	888.565	696.902
245.074	23.926	889.130	696.928
246.088	24.063	888.588	696.976
247.103	24.637	887.574	698.363
248.117	24.726	887.477	698.575
249.132	24.840	887.551	699.016
250.147	25.357	886.853	700.420
251.161	25.113	886.637	699.239
252.176	25.329	886.255	699.718
253.190	24.900	886.212	697.948
254.205	25.253	884.599	697.989
255.220	24.969	883.560	696.003
256.234	25.045	883.557	696.237
257.249	24.717	883.532	694.879
258.263	24.993	881.746	694.484
259.278	24.631	882.426	693.552
260.293	24.702	881.668	693.173
261.307	24.826	880.046	692.314
262.322	24.707	880.260	691.960
263.336	24.960	879.188	692.034
264.351	24.653	877.559	689.507
265.366	24.582	877.174	688.871
266.380	25.033	876.769	690.227
267.395	25.133	875.979	689.931
268.409	24.628	876.762	688.540
269.424	25.083	874.772	688.667
270.439	24.819	874.386	687.287
271.453	24.983	872.995	686.761
272.468	24.723	873.152	685.826
273.482	24.887	872.624	685.979
274.497	24.879	872.253	685.598
275.512	24.689	872.345	684.882
276.526	24.505	871.368	683.351
277.541	24.848	871.328	684.570
278.555	25.007	870.788	684.692
279.570	25.098	870.320	684.611
280.585	24.903	869.311	683.012
281.599	24.858	868.016	681.765
282.614	24.528	866.735	679.443
283.628	24.321	866.931	678.749
284.643	25.017	866.165	680.735
285.657	24.479	865.514	678.120
286.672	24.435	865.252	677.688
287.687	24.940	864.830	679.212
288.701	25.001	863.291	678.174
289.716	24.737	863.150	677.006
290.730	24.798	862.850	676.939
291.745	24.731	862.089	676.031
292.760	25.127	861.206	676.773
293.774	25.121	861.558	676.968
294.789	25.282	860.374	676.584
295.803	24.987	860.378	675.416
296.818	24.897	858.577	673.601
297.833	25.023	858.080	673.627
298.847	24.990	857.814	673.236
299.862	24.820	857.657	672.414
300.876	25.110	857.263	673.134
301.891	25.109	857.487	673.247
302.906	25.341	855.562	672.544
303.920	25.267	857.333	673.598
304.935	25.641	855.566	673.552
305.949	25.167	855.232	671.454
306.964	25.117	854.105	670.322
307.979	24.916	853.063	668.694
308.993	25.244	852.738	669.605
310.008	25.500	852.259	670.125
311.022	25.122	851.732	668.242
312.037	24.988	851.092	667.184
313.052	24.688	850.035	665.179
314.066	24.694	849.575	664.782
315.081	24.495	849.353	663.812
316.095	24.829	848.101	664.014
317.110	24.749	848.729	664.147
318.125	24.464	847.454	662.033
319.139	24.328	845.581	660.010
320.154	24.218	846.020	659.885
321.168	24.814	845.024	661.255
322.183	24.958	844.623	661.415
323.197	24.513	845.211	660.171
324.212	24.521	844.927	659.921
325.227	24.298	843.992	658.310
326.241	24.396	842.968	657.813
327.256	24.593	841.979	657.711
328.270	24.057	842.267	655.901
329.285	24.100	841.221	655.187
330.300	24.378	840.862	655.872
331.314	24.724	839.247	655.824
332.329	25.012	839.682	657.163
333.343	25.146	839.622	657.549
334.358	24.622	840.091	655.936
335.373	25.175	838.506	656.665
336.387	24.777	839.921	656.253
337.402	25.360	838.714	657.390
338.416	25.480	838.899	657.912
339.431	25.507	838.705	657.802
340.446	25.556	838.204	657.531
341.460	25.568	837.699	657.118
342.475	25.847	836.755	657.340
343.489	25.937	837.022	657.820
344.504	25.937	836.509	657.358
345.519	25.979	836.859	657.727
346.533	26.116	836.068	657.548
347.548	25.560	835.221	654.799
348.562	25.328	834.383	653.239
349.577	25.299	833.263	652.199
350.592	25.085	833.435	651.498
351.606	25.084	831.226	649.711
352.621	24.853	831.524	649.049
353.635	25.155	830.893	649.594
354.650	24.984	829.499	647.826
355.665	25.193	828.907	648.064
356.679	25.208	828.575	647.801
357.694	25.538	827.351	647.975
358.708	24.941	827.357	645.771
359.723	24.895	826.489	644.869
360.738	25.309	825.704	645.690
361.752	25.094	826.001	645.091
362.767	25.434	825.828	646.123
363.781	25.884	824.442	646.597
364.796	26.096	824.738	647.533
365.810	25.979	824.444	646.826
366.825	26.079	824.088	646.847
367.840	26.118	823.178	646.215
368.854	25.160	822.789	642.423
369.869	25.611	821.483	642.956
370.883	25.751	820.440	642.584
371.898	25.679	821.337	642.973
372.913	25.600	821.534	642.786
373.927	25.500	819.870	641.072
374.942	25.608	820.274	641.716
375.956	25.727	819.318	641.337
376.971	25.684	819.219	641.048
377.986	26.136	818.181	641.787
379.000	25.946	818.624	641.403
380.015	26.124	817.408	641.026
381.029	26.346	816.333	640.913
382.044	26.089	816.575	640.133
383.059	26.160	816.077	639.938
384.073	26.099	815.495	639.209
385.088	26.217	813.781	638.226
386.102	25.780	812.717	635.795
387.117	25.205	812.919	633.866
388.132	25.254	812.134	633.367
389.146	25.331	811.231	632.879
390.161	25.742	811.582	634.547
391.175	26.077	811.191	635.365
392.190	25.567	811.448	633.711
393.205	25.127	810.214	631.144
394.219	24.980	808.545	629.274
395.234	24.575	808.385	627.670
396.248	25.014	808.371	629.146
397.263	25.178	808.217	629.546
398.278	24.919	807.258	627.834
399.292	24.889	806.569	627.139
400.307	24.674	807.069	626.719
401.321	25.087	805.383	626.799
402.336	25.455	805.908	628.438
403.350	25.626	805.722	628.833
404.365	26.246	806.151	631.282
405.380	26.468	805.177	631.236
406.394	26.195	805.467	630.457
407.409	26.579	804.736	631.168
408.423	26.550	804.357	630.712
409.438	26.270	803.972	629.380
410.453	26.546	803.197	629.679
411.467	25.982	803.568	627.950
412.482	26.103	802.621	627.573
413.496	25.785	803.173	626.842
414.511	26.233	801.983	627.416
415.526	26.451	800.809	627.197
416.540	26.400	800.610	626.809
417.555	25.987	800.238	625.032
418.569	26.322	800.069	626.006
419.584	26.203	798.997	624.698
420.599	26.395	799.232	625.494
421.613	161.151	1370.517	1793.187
422.628	139.886	1453.721	1793.231
