DTS Sentinel unit serial number:	SN413079Multiplexer serial number:	ORYXHardware model number:	OX4-SRSoftware version number:	ORYX F/W v4.00 Oryx Data Collector v3.7.2.0data status	okinstallation	princeton_trtdifferential loss correction	single-endedforward channel	channel 1reverse channel	N/Adate	2019/09/17time	05:38:35forward acquisition time	60.00reverse acquisition time	0.00gamma	496.2192k internal	0.2324k external	0.2324temperature offset calibration	0.9966default loss term (dB/km)	0.3790temperature slope calibration	1.0000multiplexer offset coefficient	1.0000multiplexer slope coefficient	1.0000fibre end	0.00T internal ref (°C)	29.12T ext. ref 1 (°C)	0.14T ext. ref 2 (°C)	22.93length (m)	temperature (°C)	Stokes	anti-Stokes-747.200	184.483	-0.110	0.165
-746.185	-200.000	-0.042	0.376
-745.171	350.813	-0.147	0.294
-744.156	289.126	0.126	0.231
-743.142	-125.375	0.220	0.034
-742.127	613.310	0.173	0.438
-741.112	75.882	-0.063	-0.067
-740.098	24.662	-0.216	0.180
-739.083	-33.557	-0.120	-0.067
-738.069	24.090	-0.115	-0.096
-737.054	-200.000	-0.015	-0.126
-736.039	-87.982	-0.172	0.052
-735.025	-200.000	-0.024	0.322
-734.010	-110.851	0.287	0.060
-732.996	800.000	0.058	-0.168
-731.981	-90.268	0.087	-0.025
-730.966	-168.691	-0.352	0.013
-729.952	143.997	-0.100	0.135
-728.937	0.887	-0.405	-0.293
-727.923	160.704	-0.098	0.138
-726.908	-50.314	-0.299	0.143
-725.894	-191.835	0.060	-0.001
-724.879	-200.000	0.016	-0.268
-723.864	-11.696	-0.313	0.208
-722.850	-115.944	-0.164	-0.031
-721.835	383.189	-0.172	-0.357
-720.821	800.000	0.022	0.095
-719.806	-82.249	0.073	-0.024
-718.791	-64.170	-0.331	0.136
-717.777	613.082	0.113	-0.285
-716.762	273.931	-0.037	0.065
-715.748	-96.638	0.360	-0.096
-714.733	800.000	0.050	0.162
-713.718	159.568	0.051	-0.072
-712.704	169.995	-0.026	-0.037
-711.689	53.886	-0.150	0.145
-710.675	66.367	0.096	0.098
-709.660	746.589	-0.164	-0.444
-708.645	-191.669	-0.530	0.005
-707.631	-73.073	0.210	-0.078
-706.616	-121.463	0.075	-0.013
-705.602	-31.755	-0.189	-0.107
-704.587	-50.085	-0.271	-0.129
-703.572	19.230	0.363	0.294
-702.558	263.855	-0.088	0.155
-701.543	-200.000	-0.006	0.060
-700.529	800.000	0.057	-0.194
-699.514	589.263	-0.037	-0.092
-698.499	25.845	-0.302	0.254
-697.485	27.626	-0.214	0.181
-696.470	10.839	-0.141	0.108
-695.456	-10.223	0.081	0.054
-694.441	161.682	-0.129	0.182
-693.426	180.948	0.089	0.132
-692.412	-85.738	-0.086	-0.027
-691.397	-200.000	0.029	0.212
-690.383	-75.732	0.134	-0.048
-689.368	-24.540	0.182	-0.109
-688.354	11.308	-0.373	-0.288
-687.339	78.599	0.058	-0.062
-686.324	-200.000	0.027	0.322
-685.310	-173.402	0.438	0.013
-684.295	-52.155	-0.442	-0.207
-683.281	383.433	-0.067	-0.139
-682.266	-133.018	-0.048	0.006
-681.251	800.000	-0.047	-0.138
-680.237	37.493	-0.202	0.180
-679.222	317.052	0.067	-0.127
-678.208	-163.858	0.255	0.012
-677.193	-95.287	-0.330	0.089
-676.178	523.573	0.091	0.216
-675.164	-200.000	0.007	-0.034
-674.149	-135.251	-0.136	0.016
-673.135	329.064	-0.046	0.090
-672.120	-2.391	0.057	0.040
-671.105	0.244	0.119	-0.085
-670.091	-154.804	-0.109	0.007
-669.076	-200.000	0.016	-0.277
-668.062	637.280	0.054	0.137
-667.047	-19.065	-0.139	0.087
-666.032	800.000	-0.083	-0.329
-665.018	-66.310	0.195	-0.078
-664.003	-49.306	0.354	0.170
-662.989	-62.061	0.279	0.117
-661.974	-64.608	-0.247	0.101
-660.959	-74.903	-0.158	-0.057
-659.945	-200.000	0.017	0.141
-658.930	589.989	0.114	-0.282
-657.916	-77.382	0.359	-0.125
-656.901	-8.968	-0.258	0.174
-655.886	-51.875	0.159	0.075
-654.872	-200.000	-0.021	0.295
-653.857	-155.980	-0.136	-0.009
-652.843	-200.000	0.000	0.085
-651.828	5.763	-0.321	-0.239
-650.814	-38.777	0.107	-0.057
-649.799	41.595	-0.149	-0.136
-648.784	194.565	-0.154	0.234
-647.770	155.086	-0.117	-0.162
-646.755	-200.000	0.001	-0.020
-645.741	76.259	0.173	0.185
-644.726	507.029	-0.073	-0.171
-643.711	-43.997	-0.122	-0.062
-642.697	-165.502	-0.095	-0.004
-641.682	-107.957	-0.184	-0.040
-640.668	-101.758	-0.061	-0.015
-639.653	-200.000	-0.004	0.193
-638.638	48.084	-0.337	0.317
-637.624	353.984	-0.132	0.263
-636.609	358.222	0.264	0.530
-635.595	4.142	-0.092	-0.068
-634.580	84.529	0.136	0.150
-633.565	45.823	0.438	0.407
-632.551	269.327	-0.132	-0.234
-631.536	-68.482	-0.324	-0.126
-630.522	-200.000	0.044	-0.200
-629.507	800.000	0.009	-0.034
-628.492	-109.034	-0.220	0.047
-627.478	-115.754	0.184	-0.035
-626.463	-38.119	-0.075	-0.040
-625.449	108.920	0.177	-0.212
-624.434	-118.393	0.102	-0.018
-623.419	703.153	-0.041	0.108
-622.405	-52.699	-0.152	-0.070
-621.390	-200.000	-0.051	-0.231
-620.376	137.964	0.212	0.278
-619.361	154.033	-0.105	0.144
-618.346	394.585	0.220	-0.461
-617.332	655.142	-0.134	-0.346
-616.317	92.206	-0.062	0.071
-615.303	-145.802	-0.234	0.021
-614.288	-111.535	0.196	-0.040
-613.273	140.762	0.207	-0.274
-612.259	-81.989	-0.246	-0.081
-611.244	-200.000	0.014	0.096
-610.230	-8.648	0.090	0.061
-609.215	-200.000	-0.060	-0.298
-608.201	499.199	0.106	0.244
-607.186	14.959	0.056	-0.044
-606.171	-125.147	-0.106	0.016
-605.157	800.000	0.022	-0.064
-604.142	338.705	0.074	0.146
-603.128	-200.000	0.030	-0.337
-602.113	-104.827	-0.113	0.026
-601.098	-106.814	-0.306	0.068
-600.084	-200.000	-0.058	-0.374
-599.069	-3.385	-0.080	-0.056
-598.055	-42.872	-0.200	0.102
-597.040	-149.953	0.245	-0.019
-596.025	6.347	-0.162	0.120
-595.011	-200.000	-0.013	0.128
-593.996	-7.557	0.100	-0.068
-592.982	-75.831	0.156	0.055
-591.967	-104.161	-0.261	0.061
-590.952	205.374	-0.151	-0.235
-589.938	-107.809	-0.331	0.072
-588.923	36.304	0.144	0.128
-587.909	42.004	0.173	0.157
-586.894	-39.838	-0.171	0.090
-585.879	156.551	-0.250	-0.346
-584.865	19.538	0.212	-0.171
-583.850	-200.000	-0.049	-0.363
-582.836	139.854	-0.050	0.066
-581.821	-98.704	-0.095	-0.024
-580.806	156.377	0.028	0.039
-579.792	26.569	-0.193	-0.162
-578.777	-200.000	0.007	-0.127
-577.763	800.000	-0.017	0.074
-576.748	178.031	-0.054	-0.079
-575.733	-51.360	0.130	0.061
-574.719	-24.254	0.191	-0.115
-573.704	-124.434	-0.387	-0.060
-572.690	-39.972	0.221	-0.115
-571.675	-200.000	-0.022	0.249
-570.661	-200.000	-0.030	-0.153
-569.646	-31.544	0.168	0.095
-568.631	81.722	-0.185	0.200
-567.617	7.366	-0.172	-0.129
-566.602	-27.174	-0.179	-0.104
-565.588	-27.109	0.128	-0.075
-564.573	800.000	0.035	0.118
-563.558	-42.436	-0.122	-0.063
-562.544	661.301	-0.075	0.193
-561.529	-34.951	0.323	-0.177
-560.515	212.400	0.134	-0.211
-559.500	342.011	-0.057	-0.111
-558.485	-9.149	-0.112	-0.075
-557.471	800.000	-0.027	0.077
-556.456	-200.000	0.022	0.379
-555.442	107.083	0.140	0.167
-554.427	-200.000	-0.029	-0.278
-553.412	47.321	-0.099	-0.093
-552.398	107.639	-0.064	-0.077
-551.383	-99.199	-0.210	0.053
-550.369	-200.000	0.005	0.070
-549.354	420.556	-0.072	-0.154
-548.339	383.837	0.129	-0.267
-547.325	-160.672	-0.457	-0.024
-546.310	-38.318	0.060	-0.032
-545.296	-110.806	0.288	0.059
-544.281	49.866	0.268	0.253
-543.266	271.357	0.156	-0.275
-542.252	328.371	0.182	0.350
-541.237	773.532	0.049	-0.133
-540.223	190.615	0.048	0.072
-539.208	800.000	-0.065	-0.215
-538.193	-30.797	-0.099	-0.056
-537.179	800.000	-0.044	0.156
-536.164	461.448	0.104	-0.233
-535.150	442.474	0.056	0.124
-534.135	-81.210	-0.145	0.048
-533.121	-70.781	0.333	-0.126
-532.106	30.796	-0.140	0.120
-531.091	-46.133	0.328	-0.162
-530.077	22.113	0.180	-0.147
-529.062	-21.938	-0.050	0.030
-528.048	-200.000	0.006	0.178
-527.033	225.316	0.110	0.179
-526.018	-132.926	-0.122	-0.015
-525.004	-200.000	-0.034	-0.212
-523.989	-114.203	0.165	-0.032
-522.975	-46.065	0.208	0.102
-521.960	71.185	-0.072	-0.075
-520.945	-46.044	-0.148	0.073
-519.931	-29.247	-0.119	0.068
-518.916	782.709	-0.072	0.197
-517.902	85.684	-0.155	-0.171
-516.887	344.593	-0.082	0.161
-515.872	-10.905	0.076	0.050
-514.858	-200.000	0.032	-0.252
-513.843	205.586	0.101	-0.157
-512.829	21.036	-0.273	0.221
-511.814	-200.000	-0.050	-0.248
-510.799	261.484	-0.071	-0.122
-509.785	238.853	-0.009	-0.016
-508.770	170.919	0.163	-0.234
-507.756	147.802	0.257	0.347
-506.741	800.000	-0.022	-0.071
-505.726	-67.614	0.243	-0.095
-504.712	517.276	0.080	-0.187
-503.697	800.000	0.067	-0.274
-502.683	155.396	-0.141	-0.194
-501.668	-12.739	0.293	0.191
-500.653	7.191	0.097	0.072
-499.639	-61.571	-0.111	0.046
-498.624	341.688	0.145	0.284
-497.610	158.679	-0.173	-0.241
-496.595	526.063	0.120	-0.284
-495.581	-121.306	-0.176	-0.029
-494.566	110.472	-0.066	-0.079
-493.551	800.000	0.031	0.119
-492.537	-61.132	-0.267	-0.113
-491.522	-133.364	0.078	0.010
-490.508	191.049	0.082	0.124
-489.493	800.000	0.060	0.205
-488.478	383.568	0.058	-0.120
-487.464	111.203	-0.251	-0.303
-486.449	800.000	0.073	-0.234
-485.435	-170.498	0.263	0.009
-484.420	695.457	-0.096	-0.253
-483.405	175.028	-0.216	0.312
-482.391	162.354	0.123	0.172
-481.376	-79.740	0.141	0.047
-480.362	-89.359	-0.187	-0.055
-479.347	-82.753	0.005	0.002
-478.332	244.006	0.046	0.077
-477.318	-200.000	0.006	0.074
-476.303	204.064	0.094	0.146
-475.289	112.113	0.060	-0.072
-474.274	-200.000	-0.035	-0.168
-473.259	71.812	-0.158	0.164
-472.245	-30.624	-0.216	-0.122
-471.230	182.560	-0.105	0.155
-470.216	-200.000	-0.072	-0.335
-469.201	-190.995	-0.404	-0.004
-468.186	50.118	-0.157	-0.148
-467.172	-65.813	-0.155	-0.062
-466.157	537.251	0.089	-0.211
-465.143	-200.000	-0.007	-0.094
-464.128	-144.396	-0.183	-0.017
-463.113	-85.761	0.190	0.059
-462.099	800.000	-0.067	-0.220
-461.084	-200.000	-0.038	-0.258
-460.070	800.000	-0.128	0.428
-459.055	800.000	-0.041	0.155
-458.040	36.250	-0.198	-0.174
-457.026	-200.000	-0.004	0.147
-456.011	-200.000	0.041	-0.518
-454.997	16.682	-0.197	0.156
-453.982	-200.000	-0.062	0.290
-452.968	50.763	0.284	0.269
-451.953	-181.638	-0.177	0.003
-450.938	-104.278	-0.130	-0.030
-449.924	-59.801	0.150	0.064
-448.909	732.791	0.011	0.028
-447.895	355.816	0.072	-0.142
-446.880	159.414	-0.103	0.143
-445.865	-200.000	0.025	-0.132
-444.851	-24.276	0.177	-0.106
-443.836	-92.522	-0.314	-0.088
-442.822	-127.647	0.221	0.032
-441.807	-24.370	-0.246	-0.147
-440.792	-200.000	-0.008	-0.224
-439.778	-109.728	0.078	-0.016
-438.763	-200.000	0.022	-0.227
-437.749	33.794	-0.042	-0.037
-436.734	14.562	0.248	-0.193
-435.719	800.000	0.051	-0.153
-434.705	293.409	0.143	-0.261
-433.690	46.003	0.403	0.372
-432.676	-200.000	0.015	-0.066
-431.661	-200.000	0.036	-0.356
-430.646	575.166	-0.063	-0.154
-429.632	117.805	-0.109	0.134
-428.617	800.000	-0.058	-0.214
-427.603	-200.000	0.073	-0.619
-426.588	-38.636	-0.168	-0.088
-425.573	-84.909	0.180	0.056
-424.559	293.582	0.102	0.186
-423.544	-200.000	-0.011	0.148
-422.530	394.528	0.054	-0.113
-421.515	380.278	-0.053	-0.109
-420.500	-174.895	0.211	0.006
-419.486	-46.575	-0.031	0.015
-418.471	-200.000	0.009	0.144
-417.457	603.127	-0.185	0.458
-416.442	800.000	0.055	0.192
-415.428	-63.791	-0.440	0.180
-414.413	-200.000	-0.026	0.466
-413.398	-200.000	0.018	0.117
-412.384	-200.000	-0.010	0.046
-411.369	405.604	0.058	0.121
-410.355	-200.000	0.016	0.112
-409.340	-37.753	0.100	0.053
-408.325	-41.150	-0.123	0.063
-407.311	1.174	0.317	-0.227
-406.296	-102.267	-0.106	-0.025
-405.282	-41.033	-0.134	0.069
-404.267	224.591	0.242	-0.390
-403.252	-44.822	0.340	-0.169
-402.238	-121.044	-0.211	-0.035
-401.223	-200.000	-0.010	0.291
-400.209	-147.883	-0.232	0.019
-399.194	-88.053	0.015	0.004
-398.179	-200.000	0.010	0.285
-397.165	-188.674	-0.375	0.005
-396.150	258.241	-0.130	0.223
-395.136	297.808	0.087	0.159
-394.121	-106.137	-0.163	0.036
-393.106	-63.908	-0.350	0.143
-392.092	800.000	-0.078	0.278
-391.077	-200.000	-0.002	-0.088
-390.063	161.393	-0.143	-0.199
-389.048	-48.993	0.186	0.089
-388.033	800.000	-0.084	0.282
-387.019	61.086	0.168	-0.166
-386.004	-138.351	0.122	-0.013
-384.990	71.660	-0.345	0.357
-383.975	18.091	0.064	0.051
-382.960	195.422	-0.169	0.256
-381.946	800.000	-0.042	-0.176
-380.931	37.208	-0.092	-0.081
-379.917	206.886	-0.056	0.087
-378.902	157.189	0.138	-0.190
-377.888	-3.474	0.136	-0.094
-376.873	14.155	-0.194	-0.150
-375.858	-126.611	-0.310	0.046
-374.844	392.960	0.124	-0.258
-373.829	-134.085	0.185	-0.023
-372.815	45.972	0.461	-0.424
-371.800	320.777	-0.261	0.494
-370.785	66.462	-0.072	0.072
-369.771	320.437	0.135	0.254
-368.756	-200.000	-0.020	0.327
-367.742	-143.400	0.132	0.013
-366.727	60.061	0.394	-0.387
-365.712	19.637	-0.111	-0.089
-364.698	800.000	-0.032	0.094
-363.683	158.792	-0.199	0.275
-362.669	-69.400	0.216	0.083
-361.654	449.533	0.167	-0.367
-360.639	-0.974	0.095	-0.067
-359.625	478.729	0.140	-0.316
-358.610	191.039	-0.035	-0.052
-357.596	-200.000	-0.020	0.152
-356.581	800.000	0.118	-0.330
-355.566	-39.215	0.259	-0.135
-354.552	376.710	-0.103	-0.209
-353.537	-200.000	0.022	0.223
-352.523	-200.000	0.064	0.346
-351.508	800.000	0.160	0.510
-350.493	800.000	-0.011	0.043
-349.479	29.616	-0.233	-0.197
-348.464	69.927	0.110	0.113
-347.450	-31.350	-0.178	-0.100
-346.435	-64.954	0.135	-0.054
-345.420	38.557	0.182	-0.162
-344.406	-95.224	-0.108	-0.029
-343.391	58.470	0.115	0.112
-342.377	32.720	0.397	0.341
-341.362	23.898	0.215	-0.176
-340.348	-200.000	-0.016	-0.154
-339.333	332.851	-0.053	-0.101
-338.318	-107.321	-0.230	0.050
-337.304	-200.000	0.018	0.190
-336.289	-200.000	-0.026	0.133
-335.275	800.000	-0.043	0.124
-334.260	102.476	-0.155	0.180
-333.245	84.710	-0.116	0.127
-332.231	27.900	0.060	-0.050
-331.216	-24.883	-0.269	-0.158
-330.202	23.644	0.138	-0.113
-329.187	58.334	-0.078	-0.075
-328.172	4.130	-0.117	-0.085
-327.158	-200.000	0.025	0.172
-326.143	-132.390	-0.307	-0.039
-325.129	800.000	-0.068	0.190
-324.114	383.337	-0.109	0.223
-323.099	800.000	-0.116	-0.387
-322.085	-18.146	0.082	-0.051
-321.070	-125.207	-0.103	-0.016
-320.056	-200.000	0.067	-0.581
-319.041	28.073	-0.071	-0.059
-318.026	83.765	-0.158	0.171
-317.012	-51.482	-0.155	0.072
-315.997	146.662	0.081	-0.108
-314.983	-200.000	-0.024	0.165
-313.968	-200.000	0.055	0.411
-312.953	-200.000	0.015	0.199
-311.939	-102.465	0.436	0.104
-310.924	-81.754	-0.490	0.159
-309.910	-200.000	-0.005	-0.137
-308.895	800.000	0.137	-0.492
-307.880	-200.000	0.051	-0.247
-306.866	190.580	-0.229	-0.342
-305.851	-44.801	0.410	0.203
-304.837	-14.244	-0.076	0.049
-303.822	252.529	0.159	0.268
-302.807	75.112	0.061	0.063
-301.793	-36.028	-0.079	-0.042
-300.778	800.000	-0.107	0.427
-299.764	-81.554	-0.216	-0.071
-298.749	-200.000	0.015	0.178
-297.735	800.000	-0.069	0.199
-296.720	-98.500	0.110	0.028
-295.705	293.574	0.065	0.117
-294.691	-200.000	0.013	0.232
-293.676	421.086	-0.101	0.214
-292.662	-113.371	0.042	0.008
-291.647	-142.541	0.247	0.024
-290.632	-200.000	0.004	0.033
-289.618	800.000	0.101	-0.370
-288.603	800.000	0.041	0.115
-287.589	-124.554	0.252	-0.039
-286.574	-103.665	0.161	-0.037
-285.559	-153.358	-0.349	-0.024
-284.545	52.206	-0.099	-0.094
-283.530	-143.560	0.131	0.012
-282.516	-115.963	0.060	-0.011
-281.501	-155.204	-0.062	-0.004
-280.486	173.820	-0.083	-0.119
-279.472	3.643	-0.179	-0.130
-278.457	347.701	-0.065	-0.126
-277.443	14.324	0.119	-0.092
-276.428	53.731	-0.149	-0.142
-275.413	-200.000	0.010	0.101
-274.399	-151.129	0.291	0.022
-273.384	-111.163	0.171	-0.035
-272.370	123.839	0.210	-0.261
-271.355	121.375	-0.135	-0.167
-270.340	-200.000	-0.015	-0.335
-269.326	196.038	-0.204	-0.308
-268.311	-1.509	-0.206	0.144
-267.297	240.125	-0.061	-0.100
-266.282	-200.000	-0.059	-0.259
-265.267	-200.000	-0.021	-0.140
-264.253	335.723	0.105	0.201
-263.238	-30.047	-0.103	-0.058
-262.224	18.962	-0.064	-0.051
-261.209	20.398	0.104	0.084
-260.195	-104.788	-0.176	-0.040
-259.180	23.070	0.266	0.216
-258.165	-132.994	0.273	0.034
-257.151	573.600	0.056	0.134
-256.136	-133.914	0.264	0.032
-255.122	149.350	0.086	-0.116
-254.107	63.812	-0.077	-0.077
-253.092	-27.600	0.356	0.205
-252.078	-200.000	0.034	0.182
-251.063	-27.236	0.272	-0.157
-250.049	292.758	0.184	0.332
-249.034	377.820	0.076	0.154
-248.019	-88.650	0.231	0.068
-247.005	-200.000	0.029	0.288
-245.990	-72.516	0.075	-0.027
-244.976	116.876	-0.076	-0.093
-243.961	-200.000	0.048	-0.225
-242.946	-68.148	0.276	-0.106
-241.932	-84.568	-0.217	0.068
-240.917	-125.190	-0.183	0.028
-239.903	-9.604	0.051	-0.034
-238.888	-29.670	-0.100	-0.056
-237.873	-149.442	0.271	-0.021
-236.859	337.901	-0.135	0.260
-235.844	800.000	-0.036	0.102
-234.830	189.749	0.075	0.111
-233.815	-84.378	0.390	0.122
-232.800	800.000	-0.140	0.507
-231.786	104.725	-0.185	0.216
-230.771	-200.000	-0.001	-0.050
-229.757	128.512	0.042	0.053
-228.742	-127.064	-0.153	-0.022
-227.727	-130.049	-0.229	-0.031
-226.713	-142.066	0.559	-0.055
-225.698	33.892	-0.240	-0.207
-224.684	74.490	-0.042	0.044
-223.669	-200.000	-0.027	-0.382
-222.655	-200.000	-0.017	-0.146
-221.640	-135.086	0.159	-0.019
-220.625	49.002	-0.137	-0.127
-219.611	-144.203	-0.098	0.009
-218.596	386.306	-0.152	0.311
-217.582	268.174	-0.103	0.178
-216.567	-76.448	0.269	0.093
-215.552	-200.000	0.026	0.190
-214.538	800.000	0.120	0.437
-213.523	365.412	0.049	-0.097
-212.509	90.029	0.141	0.156
-211.494	512.615	-0.087	0.200
-210.479	-133.080	0.479	0.060
-209.465	-84.354	0.214	0.067
-208.450	-13.410	-0.030	0.019
-207.436	-12.759	-0.155	-0.100
-206.421	124.062	0.048	0.059
-205.406	800.000	-0.004	0.013
-204.392	142.577	-0.090	0.118
-203.377	643.768	0.091	0.231
-202.363	357.532	-0.095	-0.188
-201.348	-99.289	0.342	0.085
-200.333	800.000	0.033	0.121
-199.319	172.417	0.165	0.235
-198.304	692.941	-0.057	-0.146
-197.290	800.000	-0.047	-0.177
-196.275	-200.000	0.066	0.445
-195.260	-80.523	0.307	0.101
-194.246	-195.889	-0.169	0.001
-193.231	-156.135	-0.056	0.004
-192.217	-41.931	0.274	0.139
-191.202	800.000	-0.108	0.316
-190.187	386.059	-0.060	0.123
-189.173	339.397	-0.138	-0.265
-188.158	-187.767	-0.310	-0.004
-187.144	-39.253	0.210	-0.109
-186.129	287.316	0.141	0.251
-185.114	-57.998	0.256	-0.110
-184.100	-200.000	-0.032	0.242
-183.085	-107.191	0.462	-0.101
-182.071	-131.489	-0.166	0.022
-181.056	51.735	0.079	0.074
-180.042	-107.693	-0.311	-0.067
-179.027	2.041	-0.107	-0.077
-178.012	14.336	0.162	-0.125
-176.998	-200.000	0.062	-0.304
-175.983	800.000	-0.035	-0.123
-174.969	184.601	0.273	-0.400
-173.954	-200.000	-0.026	0.120
-172.939	800.000	-0.009	0.035
-171.925	-83.884	0.032	0.010
-170.910	-47.836	-0.096	-0.046
-169.896	-200.000	0.063	-0.386
-168.881	-69.229	-0.159	-0.060
-167.866	-69.575	-0.322	0.122
-166.852	89.119	-0.122	-0.134
-165.837	-48.192	0.183	-0.087
-164.823	63.728	0.230	-0.228
-163.808	-200.000	-0.011	0.131
-162.793	-200.000	0.032	0.268
-161.779	1.529	-0.133	0.095
-160.764	86.405	-0.143	-0.156
-159.750	800.000	0.068	0.291
-158.735	54.097	-0.279	0.265
-157.720	-5.743	0.203	-0.137
-156.706	163.455	-0.138	-0.192
-155.691	-87.545	-0.077	0.023
-154.677	-30.542	-0.191	0.107
-153.662	-66.161	-0.096	0.038
-152.647	10.542	-0.298	0.224
-151.633	-39.029	0.265	0.138
-150.618	-53.357	0.072	0.033
-149.604	88.853	0.123	-0.135
-148.589	-156.283	0.193	-0.012
-147.574	294.089	0.119	0.215
-146.560	108.996	0.360	0.425
-145.545	-200.000	0.016	0.205
-144.531	-35.027	0.295	0.158
-143.516	-17.670	0.239	-0.148
-142.502	800.000	0.107	-0.457
-141.487	-70.203	0.274	-0.103
-140.472	196.051	0.132	0.198
-139.458	-85.478	-0.215	-0.066
-138.443	-200.000	-0.014	-0.073
-137.429	39.259	0.211	0.186
-136.414	-200.000	-0.041	0.220
-135.399	-62.425	0.575	-0.236
-134.385	115.835	0.249	-0.300
-133.370	185.796	0.185	-0.271
-132.356	800.000	-0.059	0.211
-131.341	-200.000	0.022	-0.151
-130.326	607.709	0.049	0.122
-129.312	-37.401	0.101	-0.053
-128.297	-143.104	0.254	0.024
-127.283	-61.942	0.286	0.118
-126.268	-10.202	0.291	-0.190
-125.253	387.805	-0.113	0.231
-124.239	-105.739	0.203	-0.045
-123.224	-156.564	0.371	0.023
-122.210	-200.000	0.014	-0.211
-121.195	6.741	-0.265	0.194
-120.180	430.990	-0.094	-0.201
-119.166	-26.867	0.396	-0.228
-118.151	-172.900	-0.338	0.010
-117.137	-191.647	0.273	0.003
-116.122	-114.556	0.066	0.012
-115.107	-137.881	0.139	0.015
-114.093	-200.000	0.060	-0.348
-113.078	-95.596	-0.230	-0.061
-112.064	-199.953	-0.263	0.001
-111.049	-107.406	0.388	-0.084
-110.034	800.000	0.067	-0.254
-109.020	195.469	0.261	-0.390
-108.005	-99.743	-0.241	-0.059
-106.991	55.288	0.181	0.172
-105.976	-200.000	0.107	0.463
-104.962	-200.000	-0.033	0.223
-103.947	151.022	-0.154	0.206
-102.932	800.000	0.044	0.185
-101.918	-200.000	0.009	0.283
-100.903	-200.000	-0.016	0.167
-99.889	-200.000	0.030	0.241
-98.874	800.000	-0.037	0.139
-97.859	-200.000	0.006	0.089
-96.845	94.871	0.088	-0.098
-95.830	-144.198	-0.047	-0.004
-94.816	0.552	0.141	0.099
-93.801	-154.250	-0.479	-0.032
-92.786	208.390	-0.120	-0.184
-91.772	-200.000	0.100	-0.447
-90.757	448.334	0.030	0.066
-89.743	-200.000	-0.005	-0.141
-88.728	140.035	-0.116	-0.150
-87.713	133.506	0.039	0.050
-86.699	-200.000	-0.008	0.342
-85.684	615.674	-0.111	0.273
-84.670	-51.343	0.401	0.185
-83.655	-50.896	-0.252	-0.116
-82.640	-163.094	0.444	-0.021
-81.626	295.624	-0.079	0.143
-80.611	21.864	0.208	-0.167
-79.597	185.890	0.085	0.125
-78.582	15.696	0.016	0.012
-77.567	-200.000	-0.047	0.224
-76.553	-200.000	-0.001	0.203
-75.538	-159.477	-0.221	-0.012
-74.524	-65.224	-0.280	0.111
-73.509	-200.000	-0.038	0.188
-72.494	-49.384	-0.258	0.121
-71.480	662.619	-0.014	0.036
-70.465	800.000	-0.130	-0.534
-69.451	89.490	0.089	0.097
-68.436	-1.859	0.201	0.139
-67.422	-123.775	0.132	-0.021
-66.407	62.668	-0.307	-0.301
-65.392	-107.899	-0.053	-0.011
-64.378	-200.000	0.044	0.324
-63.363	141.620	-0.196	0.255
-62.349	26.029	0.308	0.252
-61.334	9.260	-1.058	-0.786
-60.319	36.469	0.685	0.594
-59.305	115.099	-0.791	-0.949
-58.290	198.315	0.765	1.150
-57.276	800.000	0.336	1.192
-56.261	-200.000	110.428	608.135
-55.246	442.267	1507.100	3242.569
-54.232	144.273	2684.291	3519.768
-53.217	105.156	2160.423	2505.093
-52.203	40.569	1607.366	1422.670
-51.188	32.590	1349.466	1146.057
-50.173	29.399	1309.883	1093.514
-49.159	54.758	1364.714	1293.314
-48.144	54.525	1379.714	1306.070
-47.130	32.661	1334.512	1133.603
-46.115	29.222	1316.508	1097.816
-45.100	29.171	1311.627	1093.399
-44.086	29.062	1309.001	1090.524
-43.071	28.951	1307.408	1088.496
-42.057	28.917	1304.879	1086.144
-41.042	29.104	1302.844	1085.512
-40.027	28.988	1301.720	1083.847
-39.013	28.966	1299.701	1081.997
-37.998	28.962	1298.033	1080.540
-36.984	29.094	1296.110	1079.672
-35.969	29.086	1294.232	1078.017
-34.954	29.188	1292.869	1077.435
-33.940	29.179	1291.397	1076.115
-32.925	29.194	1289.842	1074.863
-31.911	29.245	1288.247	1073.789
-30.896	29.297	1286.723	1072.778
-29.881	29.256	1285.426	1071.417
-28.867	29.271	1284.313	1070.535
-27.852	29.271	1282.746	1069.183
-26.838	29.299	1281.265	1068.068
-25.823	29.164	1280.300	1066.442
-24.809	29.166	1278.649	1065.033
-23.794	29.167	1277.569	1064.100
-22.779	29.214	1276.157	1063.153
-21.765	29.347	1274.556	1062.544
-20.750	29.251	1272.896	1060.564
-19.736	29.039	1272.599	1059.053
-18.721	29.008	1271.502	1057.920
-17.706	29.203	1269.962	1057.716
-16.692	29.201	1268.592	1056.521
-15.677	29.036	1268.012	1055.050
-14.663	29.120	1266.568	1054.290
-13.648	28.917	1266.059	1052.660
-12.633	29.128	1264.451	1052.488
-11.619	28.970	1264.328	1051.445
-10.604	29.027	1263.378	1050.938
-9.590	29.027	1262.603	1050.253
-8.575	29.066	1261.364	1049.398
-7.560	29.105	1260.334	1048.723
-6.546	29.017	1259.623	1047.589
-5.531	29.005	1258.734	1046.739
-4.517	29.035	1257.780	1046.077
-3.502	29.149	1257.039	1046.064
-2.487	29.090	1255.882	1044.726
-1.473	28.998	1251.852	1040.815
-0.458	27.452	1236.345	1019.232
0.556	22.042	1218.804	979.610
1.571	18.055	1225.185	962.245
2.586	16.981	1240.329	967.930
3.600	16.890	1228.371	958.000
4.615	12.507	1156.164	878.245
5.629	4.430	1081.158	780.718
6.644	0.447	1061.511	746.776
7.659	0.080	1059.464	743.457
8.673	0.070	1058.439	742.622
9.688	-0.037	1056.829	740.898
10.702	0.260	1055.389	741.286
11.717	5.145	1061.428	769.592
12.731	13.361	1072.064	818.006
13.746	17.062	1076.620	839.755
14.761	17.010	1075.865	838.837
15.775	16.060	1073.391	832.143
16.790	14.974	1071.726	825.424
17.804	14.302	1070.042	820.743
18.819	13.984	1068.963	818.277
19.834	13.776	1067.846	816.329
20.848	13.378	1067.531	814.059
21.863	13.311	1066.108	812.569
22.877	13.088	1065.720	811.108
23.892	13.089	1064.613	810.199
24.907	12.989	1064.137	809.276
25.921	13.043	1063.578	809.042
26.936	13.216	1062.280	808.828
27.950	13.183	1061.129	807.720
28.965	13.139	1060.503	806.956
29.980	13.333	1059.116	806.777
30.994	13.271	1058.274	805.760
32.009	13.346	1056.892	805.006
33.023	13.385	1056.013	804.450
34.038	13.251	1054.954	802.922
35.053	13.292	1054.297	802.553
36.067	13.365	1053.371	802.130
37.082	13.334	1053.003	801.629
38.096	13.363	1051.810	800.791
39.111	13.368	1050.999	800.124
40.126	13.205	1049.848	798.392
41.140	13.113	1048.598	796.924
42.155	13.023	1047.742	795.769
43.169	12.959	1047.062	794.877
44.184	13.086	1045.665	794.358
45.199	12.975	1044.932	793.195
46.213	13.059	1043.800	792.670
47.228	13.174	1042.708	792.321
48.242	13.148	1041.284	791.045
49.257	13.096	1040.444	790.088
50.271	13.158	1039.528	789.620
51.286	13.283	1038.305	789.218
52.301	13.230	1037.620	788.375
53.315	13.171	1036.840	787.427
54.330	13.159	1035.471	786.263
55.344	13.058	1034.926	785.301
56.359	13.082	1034.146	784.752
57.374	13.160	1032.900	784.108
58.388	13.042	1032.404	783.103
59.403	13.082	1031.327	782.407
60.417	13.016	1030.414	781.332
61.432	13.112	1029.370	780.923
62.447	13.033	1028.718	779.988
63.461	13.009	1028.054	779.301
64.476	12.856	1027.479	778.073
65.490	12.954	1026.877	778.013
66.505	13.018	1025.794	777.426
67.520	13.101	1025.244	777.330
68.534	13.149	1024.023	776.560
69.549	12.970	1023.610	775.336
70.563	12.973	1023.148	774.933
71.578	13.052	1021.905	774.293
72.593	12.992	1021.138	773.364
73.607	12.984	1020.812	773.007
74.622	12.905	1019.929	771.903
75.636	12.998	1018.950	771.527
76.651	12.995	1018.509	771.113
77.666	12.897	1018.192	770.347
78.680	12.991	1017.443	770.152
79.695	12.960	1016.582	769.287
80.709	12.951	1016.051	768.776
81.724	13.245	1015.004	769.281
82.739	13.098	1014.550	768.188
83.753	13.056	1014.393	767.803
84.768	13.305	1012.717	767.623
85.782	13.282	1011.832	766.780
86.797	13.154	1011.115	765.575
87.812	13.209	1010.024	764.933
88.826	13.270	1009.045	764.409
89.841	13.197	1008.377	763.496
90.855	13.070	1008.017	762.571
91.870	13.250	1007.058	762.609
92.884	13.358	1005.562	761.906
93.899	13.252	1005.348	761.185
94.914	13.203	1004.484	760.239
95.928	13.348	1003.241	759.896
96.943	13.269	1002.310	758.764
97.957	13.189	1001.777	757.924
98.972	13.267	1001.214	757.792
99.987	13.257	1000.144	756.869
101.001	13.228	999.328	756.050
102.016	13.382	998.180	755.819
103.030	13.288	997.415	754.742
104.045	13.232	997.125	754.202
105.060	13.328	995.727	753.516
106.074	13.149	995.257	752.275
107.089	13.066	994.320	751.125
108.103	13.184	993.209	750.757
109.118	13.090	991.926	749.290
110.133	13.113	991.218	748.796
111.147	13.108	990.379	748.075
112.162	13.049	989.901	747.378
113.176	13.179	988.642	746.948
114.191	13.260	988.174	746.895
115.206	13.351	987.149	746.465
116.220	13.179	986.733	745.309
117.235	13.259	985.345	744.556
118.249	13.264	984.546	743.906
119.264	13.231	983.852	743.169
120.279	13.225	983.116	742.520
121.293	13.136	982.431	741.538
122.308	13.142	981.939	741.130
123.322	13.070	981.198	740.179
124.337	13.158	979.419	739.168
125.352	13.204	978.284	738.449
126.366	13.155	977.046	737.234
127.381	13.142	976.107	736.399
128.395	13.265	975.225	736.219
129.410	13.161	974.535	735.169
130.424	13.106	973.848	734.341
131.439	13.129	973.381	734.026
132.454	13.303	972.209	733.851
133.468	13.237	971.592	733.027
134.483	13.205	970.783	732.211
135.497	13.171	969.839	731.284
136.512	13.268	968.850	730.901
137.527	13.209	968.204	730.086
138.541	13.389	967.081	729.972
139.556	13.310	966.905	729.425
140.570	13.300	966.451	728.974
141.585	13.388	965.212	728.362
142.600	13.480	964.618	728.255
143.614	13.448	963.908	727.515
144.629	13.436	962.602	726.411
145.643	13.283	962.265	725.418
146.658	13.441	960.396	724.639
147.673	13.246	960.160	723.544
148.687	13.224	959.324	722.754
149.702	13.239	958.493	722.129
150.716	13.407	957.502	722.050
151.731	13.407	956.447	721.191
152.746	13.437	956.058	720.966
153.760	13.234	955.691	719.741
154.775	13.284	955.533	719.776
155.789	13.393	954.033	719.057
156.804	13.492	953.266	718.846
157.819	13.492	952.813	718.439
158.833	13.517	952.061	717.915
159.848	13.626	951.045	717.559
160.862	13.472	950.711	716.579
161.877	13.413	949.155	715.088
162.892	13.303	948.556	714.097
163.906	13.495	947.444	714.023
164.921	13.366	947.054	713.110
165.935	13.528	945.755	712.769
166.950	13.616	944.502	712.137
167.964	13.496	943.840	711.060
168.979	13.619	942.774	710.722
169.994	13.533	942.459	710.051
171.008	13.575	941.311	709.304
172.023	13.563	940.964	708.930
173.037	13.636	940.076	708.507
174.052	13.574	939.328	707.620
175.067	13.616	938.321	706.977
176.081	13.566	937.854	706.350
177.096	13.593	937.697	706.284
178.110	13.449	937.114	705.166
179.125	13.509	936.593	704.971
180.140	13.669	936.238	705.320
181.154	13.446	936.048	704.167
182.169	13.610	935.349	704.276
183.183	13.644	934.765	703.916
184.198	13.761	933.416	703.337
185.213	13.711	932.840	702.628
186.227	13.881	931.798	702.501
187.242	13.801	931.662	701.997
188.256	13.900	930.777	701.687
189.271	13.916	929.765	700.930
190.286	13.692	929.238	699.523
191.300	13.697	928.405	698.858
192.315	13.533	928.083	697.863
193.329	13.567	927.799	697.728
194.344	13.748	926.618	697.540
195.359	13.843	926.240	697.591
196.373	13.853	925.530	697.038
197.388	13.757	925.448	696.512
198.402	13.910	924.414	696.315
199.417	13.898	924.124	695.984
200.432	13.984	923.549	695.850
201.446	14.003	922.971	695.431
202.461	14.043	922.636	695.284
203.475	13.941	922.090	694.387
204.490	14.097	921.116	694.244
205.504	14.100	919.937	693.306
206.519	13.963	919.797	692.568
207.534	13.970	919.189	692.077
208.548	13.999	918.061	691.288
209.563	13.902	917.638	690.506
210.577	14.062	916.847	690.512
211.592	14.135	916.274	690.324
212.607	14.138	915.154	689.432
213.621	14.109	914.457	688.726
214.636	14.209	913.993	688.727
215.650	14.241	913.382	688.337
216.665	14.238	912.842	687.857
217.680	14.261	912.078	687.316
218.694	14.105	911.488	686.169
219.709	14.281	910.597	686.162
220.723	14.252	910.252	685.720
221.738	14.247	908.976	684.678
222.753	14.347	908.434	684.621
223.767	14.362	908.047	684.332
224.782	14.320	907.309	683.542
225.796	14.330	907.168	683.415
226.811	14.518	906.120	683.336
227.826	14.299	905.393	681.830
228.840	14.498	904.185	681.676
229.855	14.366	903.434	680.511
230.869	14.322	903.129	680.040
231.884	14.385	902.193	679.531
232.899	14.377	901.406	678.847
233.913	14.316	900.814	678.091
234.928	14.296	900.106	677.417
235.942	14.384	899.701	677.409
236.957	14.178	899.536	676.387
237.972	14.340	898.914	676.519
238.986	14.311	898.018	675.666
240.001	14.318	897.601	675.324
241.015	14.407	896.978	675.155
242.030	14.376	896.008	674.239
243.045	14.312	896.106	673.993
244.059	14.447	894.991	673.643
245.074	14.633	894.071	673.639
246.088	14.502	893.762	672.821
247.103	14.667	892.913	672.784
248.117	14.667	892.779	672.624
249.132	14.616	892.184	671.911
250.147	14.739	891.437	671.785
251.161	14.778	890.800	671.401
252.176	14.704	890.126	670.536
253.190	14.719	889.755	670.259
254.205	14.672	889.136	669.545
255.220	14.890	887.927	669.449
256.234	14.830	887.852	669.094
257.249	14.755	886.939	668.046
258.263	14.689	886.684	667.529
259.278	14.862	885.653	667.385
260.293	15.055	884.593	667.298
261.307	15.044	884.098	666.819
262.322	15.057	883.607	666.444
263.336	15.050	883.029	665.922
264.351	15.010	882.311	665.159
265.366	15.154	881.588	665.130
266.380	15.054	880.897	664.152
267.395	15.078	880.469	663.867
268.409	15.096	879.372	663.053
269.424	15.034	879.015	662.480
270.439	15.042	878.187	661.826
271.453	14.907	877.686	660.857
272.468	15.053	877.179	660.992
273.482	15.002	876.561	660.268
274.497	14.981	876.015	659.717
275.512	14.903	875.188	658.729
276.526	15.151	874.827	659.374
277.541	15.189	874.249	659.030
278.555	15.065	874.118	658.383
279.570	15.274	873.027	658.324
280.585	15.211	872.648	657.732
281.599	15.307	871.285	657.024
282.614	15.221	870.806	656.268
283.628	15.245	870.172	655.826
284.643	15.157	869.719	655.082
285.657	15.264	869.268	655.105
286.672	15.394	868.040	654.628
287.687	15.210	867.718	653.608
288.701	15.283	867.197	653.444
289.716	15.369	866.929	653.520
290.730	15.253	866.563	652.733
291.745	15.445	865.550	652.659
292.760	15.507	864.865	652.326
293.774	15.490	864.350	651.813
294.789	15.377	863.835	650.929
295.803	15.449	863.088	650.587
296.818	15.404	862.383	649.823
297.833	15.452	861.693	649.431
298.847	15.483	861.136	649.076
299.862	15.417	860.487	648.272
300.876	15.441	860.120	648.031
301.891	15.586	859.410	648.001
302.906	15.457	859.161	647.258
303.920	15.613	858.416	647.238
304.935	15.670	857.815	646.948
305.949	15.724	856.889	646.401
306.964	15.683	856.444	645.849
307.979	15.733	856.351	645.913
308.993	15.619	855.868	645.057
310.008	15.666	854.867	644.423
311.022	15.712	854.243	644.072
312.037	15.536	854.073	643.213
313.052	15.675	853.244	643.064
314.066	15.511	852.511	641.830
315.081	15.610	852.101	641.840
316.095	15.683	851.454	641.575
317.110	15.751	850.787	641.277
318.125	15.670	850.573	640.750
319.139	15.699	850.314	640.609
320.154	15.735	849.519	640.088
321.168	15.840	848.810	639.899
322.183	15.724	848.343	639.049
323.197	15.833	847.937	639.098
324.212	15.705	847.446	638.186
325.227	15.779	846.712	637.858
326.241	15.800	846.142	637.451
327.256	15.867	845.383	637.077
328.270	15.776	844.874	636.294
329.285	15.730	844.456	635.747
330.300	15.909	843.598	635.723
331.314	15.908	843.165	635.335
332.329	15.757	842.788	634.425
333.343	15.899	842.461	634.657
334.358	15.970	841.936	634.475
335.373	15.925	841.584	633.982
336.387	16.002	841.093	633.847
337.402	15.964	841.399	633.878
338.416	16.069	840.369	633.440
339.431	15.903	840.540	632.890
340.446	16.091	839.911	633.067
341.460	16.241	839.107	632.965
342.475	16.136	838.899	632.360
343.489	16.299	838.142	632.344
344.504	16.130	838.111	631.631
345.519	16.257	837.422	631.532
346.533	16.398	836.312	631.166
347.548	16.257	836.090	630.416
348.562	16.049	835.843	629.399
349.577	16.095	835.271	629.081
350.592	16.183	834.776	628.981
351.606	16.022	833.801	627.592
352.621	16.251	833.208	627.944
353.635	16.173	832.690	627.206
354.650	16.287	832.118	627.143
355.665	16.270	831.479	626.545
356.679	16.332	830.906	626.288
357.694	16.408	829.919	625.768
358.708	16.471	829.197	625.401
359.723	16.401	829.047	624.975
360.738	16.347	828.454	624.272
361.752	16.393	827.822	623.910
362.767	16.333	827.577	623.451
363.781	16.420	826.765	623.104
364.796	16.575	826.125	623.139
365.810	16.469	825.922	622.540
366.825	16.769	825.119	622.983
367.840	16.650	824.811	622.257
368.854	16.591	824.429	621.697
369.869	16.577	824.257	621.461
370.883	16.467	823.621	620.521
371.898	16.716	823.077	620.972
372.913	16.723	822.849	620.770
373.927	16.703	822.240	620.183
374.942	16.638	821.889	619.624
375.956	16.628	821.614	619.326
376.971	16.833	821.116	619.644
377.986	16.792	820.675	619.108
379.000	16.909	820.168	619.097
380.015	16.894	819.643	618.590
381.029	16.914	818.960	618.096
382.044	16.930	818.370	617.652
383.059	16.970	817.291	616.929
384.073	16.930	817.302	616.736
385.088	16.823	816.672	615.820
386.102	16.881	816.383	615.756
387.117	16.841	815.472	614.869
388.132	16.720	815.152	614.135
389.146	16.900	814.535	614.267
390.161	17.019	813.650	613.978
391.175	16.932	813.680	613.632
392.190	16.806	813.266	612.811
393.205	16.852	812.576	612.400
394.219	16.808	812.224	611.923
395.234	17.059	811.724	612.397
396.248	16.850	811.363	611.318
397.263	16.908	810.889	611.115
398.278	16.917	810.380	610.708
399.292	17.005	809.799	610.535
400.307	17.030	809.398	610.267
401.321	16.945	809.150	609.721
402.336	16.940	808.536	609.185
403.350	17.074	808.374	609.493
404.365	17.009	808.339	609.177
405.380	17.103	807.394	608.750
406.394	17.182	806.810	608.537
407.409	17.192	806.815	608.522
408.423	17.201	805.721	607.675
409.438	17.409	805.664	608.322
410.453	17.401	804.970	607.716
411.467	17.292	804.829	607.167
412.482	17.389	804.392	607.130
413.496	17.365	803.975	606.676
414.511	17.170	804.116	606.036
415.526	17.268	803.434	605.816
416.540	17.154	803.204	605.183
417.555	17.377	802.323	605.257
418.569	17.425	802.225	605.303
419.584	17.392	801.485	604.573
420.599	17.454	800.942	604.329
421.613	109.523	1293.725	1471.959
422.628	94.259	1365.530	1472.044
