DTS Sentinel unit serial number:	SN413079Multiplexer serial number:	ORYXHardware model number:	OX4-SRSoftware version number:	ORYX F/W v4.00 Oryx Data Collector v3.7.2.0data status	okinstallation	princeton_trtdifferential loss correction	single-endedforward channel	channel 1reverse channel	N/Adate	2019/09/13time	00:38:35forward acquisition time	60.00reverse acquisition time	0.00gamma	496.2192k internal	0.2328k external	0.2328temperature offset calibration	1.0143default loss term (dB/km)	0.3790temperature slope calibration	1.0000multiplexer offset coefficient	1.0000multiplexer slope coefficient	1.0000fibre end	0.00T internal ref (°C)	28.28T ext. ref 1 (°C)	3.68T ext. ref 2 (°C)	22.85length (m)	temperature (°C)	Stokes	anti-Stokes-747.200	42.828	-0.053	-0.049
-746.185	-15.867	-0.347	0.223
-745.171	-200.000	-0.048	-0.358
-744.156	-168.725	-0.095	-0.004
-743.142	-72.000	0.313	-0.117
-742.127	192.658	-0.191	0.291
-741.112	-173.628	0.124	-0.004
-740.098	40.075	-0.086	-0.078
-739.083	-85.998	0.405	0.126
-738.069	-55.834	-0.450	-0.203
-737.054	-200.000	-0.003	0.179
-736.039	-118.361	-0.256	0.046
-735.025	-49.484	0.171	0.082
-734.010	-153.098	-0.148	-0.010
-732.996	12.881	0.078	0.061
-731.981	194.842	-0.034	0.052
-730.966	800.000	-0.139	0.448
-729.952	667.973	-0.120	-0.313
-728.937	-0.188	0.307	0.220
-727.923	800.000	-0.119	0.347
-726.908	-25.540	-0.147	0.087
-725.894	20.975	-0.297	0.243
-724.879	44.197	-0.271	0.250
-723.864	-38.769	0.243	-0.129
-722.850	-16.743	-0.413	-0.263
-721.835	-14.400	-0.501	-0.325
-720.821	364.935	-0.065	-0.131
-719.806	362.475	-0.087	-0.175
-718.791	-200.000	-0.035	-0.192
-717.777	-4.387	0.226	-0.157
-716.762	187.988	0.147	-0.221
-715.748	45.697	-0.242	-0.225
-714.733	194.430	0.187	-0.285
-713.718	272.511	-0.121	0.215
-712.704	-134.183	0.114	-0.014
-711.689	-96.301	-0.202	0.054
-710.675	-200.000	-0.022	0.289
-709.660	118.999	0.141	0.176
-708.645	-200.000	0.009	-0.228
-707.631	-200.000	0.004	0.287
-706.616	800.000	-0.054	-0.177
-705.602	11.356	-0.157	-0.121
-704.587	-200.000	0.027	-0.221
-703.572	206.529	-0.035	-0.054
-702.558	172.151	0.012	-0.018
-701.543	-200.000	-0.081	-0.390
-700.529	407.740	0.066	0.141
-699.514	800.000	-0.029	0.124
-698.499	431.013	0.079	0.171
-697.485	25.159	-0.099	-0.083
-696.470	102.175	0.039	-0.045
-695.456	-200.000	-0.025	0.153
-694.441	242.399	-0.144	-0.242
-693.426	106.961	0.059	0.070
-692.412	-122.416	0.139	-0.023
-691.397	800.000	-0.075	-0.268
-690.383	-17.768	0.302	-0.190
-689.368	-33.525	-0.149	0.083
-688.354	84.812	-0.282	0.311
-687.339	-191.530	0.416	-0.004
-686.324	305.488	-0.054	0.101
-685.310	20.055	-0.235	-0.191
-684.295	-136.919	-0.237	-0.027
-683.281	-200.000	0.015	0.204
-682.266	800.000	-0.132	0.374
-681.251	-31.377	0.236	0.134
-680.237	72.543	-0.141	-0.148
-679.222	-50.181	0.245	0.117
-678.208	-17.065	0.127	-0.081
-677.193	-109.977	-0.120	-0.025
-676.178	-75.308	0.149	-0.053
-675.164	82.174	-0.202	0.220
-674.149	-145.424	-0.120	-0.011
-673.135	-47.146	0.017	-0.009
-672.120	-118.016	0.395	-0.071
-671.105	-122.059	0.250	-0.041
-670.091	595.831	0.105	-0.261
-669.076	-24.398	-0.169	0.101
-668.062	573.613	-0.079	0.194
-667.047	426.820	0.041	-0.088
-666.032	-200.000	0.004	-0.086
-665.018	461.268	-0.149	0.333
-664.003	-200.000	0.044	0.231
-662.989	-163.920	0.164	0.008
-661.974	98.768	0.154	0.179
-660.959	490.905	0.091	0.208
-659.945	-143.509	-0.137	-0.013
-658.930	-200.000	0.015	0.070
-657.916	-14.887	-0.185	0.119
-656.901	202.611	-0.133	-0.206
-655.886	-63.123	0.222	0.092
-654.872	564.861	0.089	0.217
-653.857	-159.271	0.063	0.004
-652.843	-20.352	-0.262	0.162
-651.828	-17.687	0.170	0.107
-650.814	67.838	0.160	-0.164
-649.799	-55.637	0.278	0.125
-648.784	-200.000	0.030	-0.195
-647.770	121.815	-0.180	0.225
-646.755	176.341	0.176	0.257
-645.741	134.246	0.039	-0.051
-644.726	260.086	0.084	-0.146
-643.711	-200.000	-0.026	0.143
-642.697	-200.000	-0.030	0.174
-641.682	-30.936	-0.300	-0.170
-640.668	-10.442	0.314	0.209
-639.653	-107.292	-0.200	-0.044
-638.638	708.824	-0.047	-0.125
-637.624	5.429	0.175	0.129
-636.609	-150.774	-0.366	0.028
-635.595	-91.929	-0.248	-0.070
-634.580	41.061	0.147	0.134
-633.565	196.390	-0.036	-0.055
-632.551	4.896	-0.105	0.078
-631.536	171.198	-0.154	-0.221
-630.522	800.000	-0.013	-0.052
-629.507	-151.203	-0.182	-0.014
-628.492	-168.455	-0.363	0.014
-627.478	-200.000	-0.029	0.259
-626.463	45.222	0.228	-0.211
-625.449	-30.043	-0.160	-0.091
-624.434	-200.000	-0.030	-0.344
-623.419	33.150	0.038	-0.033
-622.405	-58.878	-0.193	0.084
-621.390	800.000	0.066	-0.274
-620.376	68.731	0.148	0.152
-619.361	199.045	0.101	-0.155
-618.346	-200.000	0.024	-0.174
-617.332	151.041	0.101	0.137
-616.317	0.098	0.035	-0.025
-615.303	55.232	-0.036	0.035
-614.288	-200.000	0.003	-0.136
-613.273	97.048	0.089	0.102
-612.259	-200.000	0.001	-0.042
-611.244	24.940	-0.243	0.202
-610.230	-78.110	-0.285	-0.098
-609.215	172.702	-0.164	0.237
-608.201	102.578	0.156	-0.183
-607.186	-37.253	-0.375	-0.201
-606.171	368.357	0.035	0.070
-605.157	448.156	-0.128	-0.283
-604.142	126.237	-0.100	0.127
-603.128	-200.000	0.018	-0.089
-602.113	-99.863	-0.267	-0.067
-601.098	557.805	-0.113	-0.272
-600.084	-52.286	-0.265	-0.123
-599.069	-200.000	0.033	-0.169
-598.055	-200.000	-0.012	-0.063
-597.040	-200.000	-0.029	-0.437
-596.025	800.000	-0.058	-0.229
-595.011	-165.396	0.217	-0.010
-593.996	-200.000	-0.014	0.154
-592.982	-169.594	-0.155	0.006
-591.967	-94.159	-0.039	0.011
-590.952	-101.721	-0.117	0.028
-589.938	-50.715	0.339	0.160
-588.923	-200.000	-0.029	0.479
-587.909	-63.883	0.204	-0.084
-586.894	-39.274	0.222	0.117
-585.879	800.000	0.038	0.137
-584.865	-152.559	-0.378	-0.027
-583.850	26.505	-0.104	-0.087
-582.836	-119.314	0.230	-0.040
-581.821	-200.000	-0.032	-0.480
-580.806	-50.345	0.171	0.081
-579.792	47.526	0.119	0.111
-578.777	-36.948	0.276	-0.148
-577.763	800.000	-0.050	-0.139
-576.748	-200.000	-0.029	-0.293
-575.733	-87.985	0.278	-0.084
-574.719	-184.360	-0.273	-0.004
-573.704	-156.132	0.031	-0.002
-572.690	800.000	-0.040	0.120
-571.675	28.699	0.330	-0.280
-570.661	800.000	-0.043	-0.169
-569.646	-53.455	-0.170	0.078
-568.631	25.986	0.374	-0.312
-567.617	-147.135	-0.255	0.022
-566.602	795.590	-0.112	-0.310
-565.588	-54.707	0.262	-0.118
-564.573	800.000	-0.040	0.162
-563.558	-40.433	-0.216	-0.112
-562.544	-169.574	-0.123	-0.004
-561.529	-137.146	-0.062	-0.007
-560.515	-101.776	-0.570	0.138
-559.500	33.136	0.215	-0.186
-558.485	-12.503	-0.219	-0.143
-557.471	-49.482	-0.216	0.103
-556.456	-200.000	-0.013	-0.063
-555.442	47.156	-0.200	-0.186
-554.427	-97.955	0.166	0.043
-553.412	800.000	0.076	-0.219
-552.398	-200.000	-0.011	-0.185
-551.383	-200.000	0.007	0.085
-550.369	158.615	-0.113	0.157
-549.354	-200.000	-0.011	-0.125
-548.339	643.213	-0.034	0.086
-547.325	-107.562	-0.266	0.058
-546.310	416.099	0.187	-0.398
-545.296	800.000	-0.066	-0.212
-544.281	-194.444	-0.281	-0.002
-543.266	-200.000	0.016	-0.157
-542.252	800.000	0.072	-0.204
-541.237	-41.241	-0.088	0.045
-540.223	192.998	-0.070	0.106
-539.208	-78.648	-0.483	0.165
-538.193	-100.818	-0.238	-0.059
-537.179	379.868	0.080	0.164
-536.164	800.000	0.047	-0.144
-535.150	800.000	0.078	-0.243
-534.135	609.715	-0.113	-0.282
-533.121	95.970	0.162	-0.185
-532.106	-200.000	-0.061	-0.338
-531.091	104.172	-0.047	0.055
-530.077	317.989	-0.065	-0.122
-529.062	800.000	0.051	-0.159
-528.048	-94.340	0.325	0.089
-527.033	-131.163	-0.313	-0.042
-526.018	-80.136	0.247	0.083
-525.004	8.967	-0.196	0.148
-523.989	792.311	-0.019	-0.051
-522.975	523.370	0.064	0.151
-521.960	685.701	0.094	0.245
-520.945	-34.589	0.193	0.106
-519.931	800.000	0.030	-0.093
-518.916	193.316	-0.143	-0.216
-517.902	800.000	0.070	0.209
-516.887	261.745	0.302	0.523
-515.872	-114.704	0.276	-0.053
-514.858	456.872	0.069	-0.152
-513.843	119.159	-0.238	-0.293
-512.829	800.000	0.090	0.370
-511.814	-117.646	-0.472	0.085
-510.799	183.963	0.046	-0.068
-509.785	-34.010	-0.103	-0.056
-508.770	-30.979	0.233	0.131
-507.756	-111.918	0.112	0.023
-506.741	35.865	0.119	-0.104
-505.726	259.749	-0.246	0.424
-504.712	-118.727	0.082	-0.014
-503.697	-45.684	0.082	0.040
-502.683	-111.795	0.198	0.040
-501.668	-79.075	0.204	0.069
-500.653	-19.770	-0.461	0.285
-499.639	-180.381	-0.121	0.003
-498.624	-200.000	0.013	0.243
-497.610	-200.000	-0.025	0.431
-496.595	-200.000	-0.145	-0.000
-495.581	-65.823	0.241	0.096
-494.566	800.000	0.067	-0.249
-493.551	-5.503	-0.192	-0.132
-492.537	800.000	0.032	0.128
-491.522	192.002	-0.105	0.158
-490.508	149.965	-0.101	-0.137
-489.493	718.421	0.072	0.192
-488.478	-90.666	0.171	0.049
-487.464	-13.068	-0.322	0.209
-486.449	800.000	-0.041	0.172
-485.435	800.000	-0.105	-0.323
-484.420	800.000	0.144	0.431
-483.405	800.000	0.091	0.250
-482.391	-200.000	-0.081	0.468
-481.376	45.212	-0.150	0.138
-480.362	116.122	0.286	-0.350
-479.347	-200.000	0.026	-0.385
-478.332	800.000	0.058	0.174
-477.318	-141.022	-0.279	-0.029
-476.303	259.564	0.076	-0.131
-475.289	800.000	-0.063	0.200
-474.274	-200.000	-0.006	0.243
-473.259	180.464	-0.087	-0.128
-472.245	-68.159	-0.095	-0.037
-471.230	-8.864	0.234	-0.157
-470.216	102.971	0.148	0.173
-469.201	-140.637	0.046	0.005
-468.186	-133.087	0.277	-0.035
-467.172	-200.000	0.059	-0.333
-466.157	-130.245	-0.135	-0.018
-465.143	-57.694	0.074	-0.032
-464.128	52.147	0.317	0.302
-463.113	800.000	-0.083	0.235
-462.099	-200.000	0.011	0.155
-461.084	-126.121	-0.152	0.023
-460.070	-55.840	-0.300	-0.133
-459.055	-23.101	-0.263	-0.158
-458.040	-159.552	0.381	0.021
-457.026	-200.000	0.009	0.198
-456.011	-200.000	0.014	0.172
-454.997	-200.000	-0.010	0.366
-453.982	-200.000	-0.015	0.093
-452.968	-200.000	0.090	0.408
-451.953	207.457	0.138	0.214
-450.938	-172.408	0.479	-0.015
-449.924	-200.000	0.002	-0.268
-448.909	88.044	-0.130	-0.144
-447.895	-70.385	-0.445	-0.168
-446.880	-200.000	0.021	0.106
-445.865	800.000	0.113	-0.385
-444.851	-105.596	-0.236	0.053
-443.836	62.459	-0.151	0.150
-442.822	-111.581	0.219	-0.044
-441.807	-28.470	-0.084	0.048
-440.792	-10.584	0.203	0.134
-439.778	-11.856	-0.453	0.296
-438.763	64.727	-0.055	0.055
-437.749	-31.074	0.326	0.183
-436.734	-93.995	0.082	-0.022
-435.719	264.999	-0.155	-0.269
-434.705	-47.146	0.193	0.094
-433.690	-200.000	-0.026	0.186
-432.676	408.594	-0.125	-0.264
-431.661	-14.475	-0.287	0.184
-430.646	290.330	-0.190	-0.343
-429.632	23.200	0.103	-0.084
-428.617	168.169	-0.097	-0.137
-427.603	-200.000	-0.000	-0.269
-426.588	405.319	-0.075	-0.157
-425.573	-200.000	0.007	-0.195
-424.559	19.074	0.187	-0.149
-423.544	-200.000	-0.013	-0.073
-422.530	-19.064	-0.182	-0.112
-421.515	-200.000	-0.022	0.204
-420.500	800.000	0.048	-0.137
-419.486	-31.188	0.179	-0.101
-418.471	65.778	0.293	0.296
-417.457	800.000	0.059	0.175
-416.442	378.585	-0.060	0.122
-415.428	800.000	-0.104	-0.349
-414.413	-85.501	-0.167	-0.052
-413.398	-108.322	0.152	-0.033
-412.384	31.262	-0.174	-0.148
-411.369	-41.197	-0.235	-0.121
-410.355	-67.313	0.176	-0.069
-409.340	85.897	-0.198	-0.216
-408.325	-200.000	-0.018	0.260
-407.311	800.000	0.126	-0.398
-406.296	-200.000	0.032	-0.146
-405.282	293.019	0.115	0.208
-404.267	-132.825	0.141	-0.018
-403.252	192.581	-0.074	0.111
-402.238	-200.000	-0.041	-0.246
-401.223	31.939	-0.197	-0.168
-400.209	-200.000	0.098	-0.484
-399.194	-136.278	-0.197	0.023
-398.179	94.179	0.175	0.198
-397.165	75.012	-0.142	-0.149
-396.150	-97.001	0.243	0.063
-395.136	-85.179	-0.142	-0.044
-394.121	-39.436	0.030	-0.016
-393.106	-75.338	-0.110	-0.039
-392.092	170.734	-0.081	0.115
-391.077	-38.039	0.163	0.086
-390.063	-41.602	0.149	-0.076
-389.048	-71.540	-0.135	0.050
-388.033	-105.743	0.185	0.042
-387.019	-66.906	0.088	0.035
-386.004	337.504	0.096	-0.186
-384.990	180.176	0.088	-0.128
-383.975	5.636	-0.085	-0.062
-382.960	19.053	-0.100	-0.080
-381.946	7.744	0.146	-0.109
-380.931	211.645	-0.100	0.156
-379.917	-54.430	0.134	0.060
-378.902	336.378	0.171	-0.329
-377.888	-139.955	-0.245	0.026
-376.873	800.000	0.085	0.257
-375.858	-85.746	-0.069	-0.021
-374.844	-76.992	0.048	-0.017
-373.829	118.345	-0.013	-0.016
-372.815	-189.387	0.182	-0.002
-371.800	-200.000	-0.002	0.234
-370.785	-51.420	0.210	0.097
-369.771	607.820	0.170	-0.420
-368.756	195.996	-0.111	-0.168
-367.742	-153.890	-0.168	0.011
-366.727	94.047	0.101	-0.113
-365.712	-200.000	-0.007	0.200
-364.698	139.410	-0.031	-0.041
-363.683	80.272	-0.085	-0.090
-362.669	-66.374	0.241	-0.095
-361.654	360.799	-0.059	0.116
-360.639	74.424	-0.150	0.156
-359.625	18.888	0.260	0.207
-358.610	-200.000	0.062	0.516
-357.596	-4.277	-0.116	0.080
-356.581	116.395	0.160	0.194
-355.566	-174.427	-0.131	-0.004
-354.552	800.000	0.078	0.267
-353.537	558.342	-0.017	-0.040
-352.523	160.464	-0.103	0.143
-351.508	133.393	0.134	0.171
-350.493	106.850	0.217	-0.256
-349.479	-200.000	0.019	0.201
-348.464	174.913	-0.126	-0.181
-347.450	-35.441	0.179	0.097
-346.435	-132.794	-0.186	-0.024
-345.420	-200.000	-0.086	-0.386
-344.406	503.535	-0.084	0.192
-343.391	599.177	-0.049	-0.121
-342.377	96.402	-0.130	0.147
-341.362	-200.000	0.015	0.195
-340.348	-5.277	-0.025	-0.017
-339.333	800.000	0.092	0.261
-338.318	421.529	-0.109	-0.231
-337.304	241.551	0.037	-0.062
-336.289	98.957	0.109	0.125
-335.275	-200.000	-0.056	-0.316
-334.260	800.000	-0.117	0.376
-333.245	-150.304	0.196	0.015
-332.231	-200.000	-0.002	-0.177
-331.216	-145.640	0.178	-0.016
-330.202	-200.000	-0.026	0.172
-329.187	-78.133	0.210	-0.071
-328.172	238.474	0.030	0.049
-327.158	80.565	0.258	0.276
-326.143	103.480	-0.052	0.061
-325.129	-200.000	-0.040	0.228
-324.114	-104.304	0.177	-0.041
-323.099	16.855	0.043	-0.034
-322.085	-55.570	0.169	0.075
-321.070	800.000	0.046	0.131
-320.056	29.494	0.025	0.021
-319.041	-121.878	-0.148	0.024
-318.026	48.408	0.157	0.145
-317.012	142.704	-0.114	-0.150
-315.997	-200.000	0.011	-0.294
-314.983	131.539	0.087	-0.111
-313.968	-200.000	0.007	-0.429
-312.953	800.000	0.074	0.304
-311.939	-200.000	0.016	-0.175
-310.924	-200.000	0.036	-0.240
-309.910	165.242	0.168	0.236
-308.895	-200.000	-0.039	0.269
-307.880	708.786	0.072	0.189
-306.866	59.655	0.056	-0.055
-305.851	800.000	-0.033	-0.117
-304.837	10.950	-0.351	0.265
-303.822	800.000	-0.049	-0.137
-302.807	800.000	0.088	-0.279
-301.793	154.474	0.206	0.281
-300.778	-200.000	-0.031	0.162
-299.764	190.913	0.090	-0.134
-298.749	-200.000	-0.043	0.377
-297.735	47.468	-0.088	0.081
-296.720	-32.346	-0.040	0.022
-295.705	-178.993	-0.132	0.003
-294.691	-19.042	0.108	-0.067
-293.676	800.000	0.074	-0.298
-292.662	800.000	-0.114	-0.323
-291.647	192.222	-0.066	0.098
-290.632	749.375	0.197	0.525
-289.618	-54.864	-0.321	0.143
-288.603	-200.000	0.008	0.072
-287.589	-4.408	0.306	-0.210
-286.574	-148.937	-0.437	0.035
-285.559	-80.787	0.274	0.090
-284.545	-200.000	-0.013	-0.145
-283.530	58.400	-0.083	0.081
-282.516	144.210	-0.202	-0.267
-281.501	800.000	0.077	-0.232
-280.486	-142.002	0.199	0.020
-279.472	135.203	0.117	-0.151
-278.457	-165.400	-0.124	-0.005
-277.443	-121.504	-0.442	-0.073
-276.428	118.483	0.091	-0.111
-275.413	-132.326	-0.222	-0.028
-274.399	-43.948	0.084	0.042
-273.384	53.555	-0.068	0.065
-272.370	199.465	-0.160	0.242
-271.355	354.634	0.138	-0.271
-270.340	112.393	-0.150	-0.180
-269.326	-139.140	0.062	0.007
-268.311	-57.137	0.038	-0.016
-267.297	-45.421	0.133	0.065
-266.282	467.400	-0.194	0.430
-265.267	186.731	0.121	0.178
-264.253	-108.884	-0.135	0.029
-263.238	13.255	-0.283	-0.216
-262.224	27.266	0.093	0.077
-261.209	232.902	0.086	0.139
-260.195	110.501	0.100	-0.118
-259.180	-62.805	0.063	0.026
-258.165	82.762	0.125	-0.134
-257.151	-3.560	0.127	0.088
-256.136	23.362	-0.179	0.146
-255.122	-109.372	-0.168	0.035
-254.107	-158.843	-0.430	-0.024
-253.092	134.305	0.172	0.220
-252.078	-1.448	0.210	-0.147
-251.063	100.989	0.195	0.224
-250.049	-147.538	-0.196	-0.016
-249.034	704.069	-0.031	-0.082
-248.019	400.484	0.060	-0.125
-247.005	-49.007	-0.171	-0.081
-245.990	78.389	0.100	-0.106
-244.976	657.499	-0.088	-0.224
-243.961	493.670	0.080	-0.181
-242.946	-200.000	-0.066	-0.424
-241.932	-84.706	0.167	-0.052
-240.917	800.000	-0.035	0.152
-239.903	-29.662	0.065	0.037
-238.888	145.479	-0.185	-0.245
-237.873	336.390	-0.023	0.044
-236.859	-200.000	-0.182	0.000
-235.844	113.601	-0.080	-0.096
-234.830	52.750	0.146	0.138
-233.815	128.583	-0.241	0.304
-232.800	137.648	-0.222	0.287
-231.786	18.514	0.404	0.319
-230.771	-63.132	0.148	0.060
-229.757	40.017	0.077	-0.069
-228.742	-52.686	0.356	-0.162
-227.727	307.722	-0.058	-0.108
-226.713	152.223	-0.214	0.288
-225.698	52.176	0.120	-0.113
-224.684	181.019	-0.227	-0.330
-223.669	-52.067	-0.452	-0.207
-222.655	-200.000	-0.006	0.207
-221.640	-43.119	0.152	-0.076
-220.625	-18.359	-0.141	0.087
-219.611	-200.000	0.010	-0.301
-218.596	-81.996	-0.041	0.013
-217.582	-168.085	0.235	0.009
-216.567	-96.123	-0.155	0.041
-215.552	236.087	0.027	0.045
-214.538	132.331	-0.172	-0.219
-213.523	-26.379	-0.137	0.079
-212.509	235.243	0.127	0.207
-211.494	25.927	-0.114	-0.094
-210.479	-200.000	0.014	0.277
-209.465	105.670	-0.136	-0.159
-208.450	-129.302	-0.124	-0.017
-207.436	-23.237	0.276	0.164
-206.421	127.734	0.198	-0.248
-205.406	-117.243	-0.126	0.023
-204.392	23.775	-0.159	0.129
-203.377	-24.718	0.032	-0.019
-202.363	-35.128	0.154	0.083
-201.348	-13.474	0.298	0.190
-200.333	299.210	-0.167	-0.304
-199.319	-127.502	0.371	0.053
-198.304	-200.000	-0.014	0.126
-197.290	511.562	0.035	0.081
-196.275	-42.505	-0.095	-0.048
-195.260	72.239	0.259	-0.266
-194.246	800.000	-0.076	-0.227
-193.231	465.595	0.076	-0.169
-192.217	-200.000	0.072	0.341
-191.202	377.955	-0.141	0.284
-190.187	-99.835	0.164	0.041
-189.173	-84.094	0.659	0.206
-188.158	244.547	0.117	0.193
-187.144	-4.654	-0.097	0.066
-186.129	800.000	-0.080	0.237
-185.114	-200.000	-0.032	0.355
-184.100	-200.000	0.002	0.216
-183.085	-200.000	0.018	-0.282
-182.071	-51.053	-0.191	0.088
-181.056	91.109	0.417	0.461
-180.042	-200.000	0.002	0.091
-179.027	192.702	0.366	0.545
-178.012	188.567	0.089	0.132
-176.998	-129.039	-0.201	0.028
-175.983	800.000	0.108	0.466
-174.969	170.947	0.218	0.307
-173.954	-43.233	0.143	0.071
-172.939	92.655	-0.110	-0.122
-171.925	-96.440	-0.342	0.089
-170.910	64.741	0.194	0.193
-169.896	-82.815	-0.097	-0.031
-168.881	-65.722	0.216	0.085
-167.866	57.908	-0.211	-0.204
-166.852	-200.000	-0.015	-0.139
-165.837	-68.405	0.119	-0.045
-164.823	-68.426	0.134	0.051
-163.808	-50.425	0.313	-0.145
-162.793	37.916	0.151	-0.132
-161.779	800.000	0.093	-0.399
-160.764	-64.854	0.137	0.055
-159.750	-50.167	0.334	0.156
-158.735	-158.993	-0.128	-0.007
-157.720	-200.000	0.006	-0.070
-156.706	5.917	-0.212	-0.155
-155.691	51.488	0.110	-0.103
-154.677	73.721	-0.200	-0.206
-153.662	228.528	0.166	-0.266
-152.647	-88.624	-0.178	0.052
-151.633	220.410	0.117	-0.185
-150.618	85.531	0.216	0.233
-149.604	-178.666	0.123	0.003
-148.589	-109.032	0.176	-0.037
-147.574	92.256	0.139	-0.155
-146.560	30.084	-0.180	-0.151
-145.545	104.226	-0.330	0.382
-144.531	-103.367	-0.312	0.072
-143.516	-97.930	0.104	-0.026
-142.502	-19.694	-0.234	-0.143
-141.487	3.241	0.166	0.119
-140.472	73.037	0.331	0.340
-139.458	-63.992	-0.151	0.061
-138.443	277.995	0.184	0.322
-137.429	250.566	-0.046	0.077
-136.414	-71.485	0.130	0.048
-135.399	-22.555	0.181	0.108
-134.385	68.723	-0.225	0.227
-133.370	-200.000	-0.004	-0.231
-132.356	-134.282	0.270	-0.033
-131.341	-68.251	0.248	-0.095
-130.326	50.636	0.208	0.194
-129.312	399.990	0.147	-0.304
-128.297	259.062	-0.101	0.171
-127.283	-140.263	0.088	-0.009
-126.268	287.238	0.129	0.230
-125.253	204.605	-0.112	-0.171
-124.239	-18.782	-0.193	-0.118
-123.224	-104.613	0.234	0.053
-122.210	-200.000	0.034	0.167
-121.195	-200.000	0.038	0.266
-120.180	-126.316	-0.320	0.047
-119.166	346.576	0.088	0.171
-118.151	-17.290	0.069	-0.043
-117.137	-3.813	0.216	-0.147
-116.122	192.642	-0.070	-0.103
-115.107	-129.523	-0.161	-0.022
-114.093	800.000	0.089	0.329
-113.078	227.890	-0.159	-0.255
-112.064	-200.000	0.015	0.160
-111.049	-29.267	-0.123	-0.069
-110.034	-91.145	0.157	0.044
-109.020	800.000	0.083	-0.321
-108.005	-10.043	-0.264	0.172
-106.991	-37.193	-0.203	0.107
-105.976	4.582	-0.038	-0.027
-104.962	50.252	-0.055	0.051
-103.947	-153.560	0.182	-0.012
-102.932	800.000	0.025	-0.089
-101.918	129.165	0.179	-0.224
-100.903	675.716	-0.048	0.123
-99.889	800.000	-0.147	0.417
-98.874	800.000	-0.046	-0.150
-97.859	800.000	-0.028	-0.116
-96.845	-200.000	-0.015	0.158
-95.830	-200.000	0.031	0.242
-94.816	521.496	-0.103	0.237
-93.801	-200.000	0.023	0.120
-92.786	-138.581	-0.286	0.031
-91.772	-200.000	0.008	0.092
-90.757	34.185	-0.087	0.075
-89.743	-82.333	0.075	0.024
-88.728	-17.154	-0.085	0.053
-87.713	95.152	-0.129	-0.144
-86.699	-69.059	0.133	0.050
-85.684	800.000	0.051	-0.187
-84.670	-119.997	0.402	0.068
-83.655	31.150	-0.154	0.130
-82.640	-107.589	0.126	0.027
-81.626	-200.000	-0.033	0.198
-80.611	-200.000	-0.014	0.238
-79.597	267.302	0.200	0.344
-78.582	4.522	0.187	-0.134
-77.567	93.121	0.252	0.280
-76.553	-27.973	-0.282	0.160
-75.538	-135.737	0.289	-0.034
-74.524	800.000	0.051	-0.151
-73.509	-200.000	0.003	-0.068
-72.494	-0.828	0.108	-0.075
-71.480	-26.532	-0.378	-0.217
-70.465	-66.154	-0.071	-0.028
-69.451	-128.558	0.267	0.037
-68.436	800.000	-0.060	0.246
-67.422	180.704	0.051	-0.074
-66.407	32.747	0.154	-0.131
-65.392	34.741	0.429	-0.368
-64.378	105.897	0.110	-0.128
-63.363	43.810	-0.072	-0.064
-62.349	180.310	-0.182	0.261
-61.334	47.032	-0.983	-0.897
-60.319	-9.522	0.643	0.421
-59.305	800.000	-0.334	-1.059
-58.290	306.672	0.577	1.053
-57.276	392.844	0.783	1.597
-56.261	-200.000	113.677	635.798
-55.246	520.824	1518.652	3493.308
-54.232	178.354	2685.246	3844.728
-53.217	109.794	2148.240	2526.349
-52.203	39.689	1596.774	1404.518
-51.188	31.672	1342.507	1132.572
-50.173	28.685	1304.043	1082.497
-49.159	55.063	1360.509	1288.844
-48.144	54.175	1374.841	1297.037
-47.130	31.797	1329.911	1122.516
-46.115	28.410	1312.402	1087.632
-45.100	28.072	1307.840	1081.808
-44.086	28.190	1304.933	1080.056
-43.071	28.055	1302.893	1077.529
-42.057	28.059	1300.489	1075.522
-41.042	28.151	1299.020	1074.803
-40.027	28.143	1297.578	1073.523
-39.013	28.051	1295.893	1071.544
-37.998	28.107	1293.770	1070.074
-36.984	28.283	1291.662	1069.320
-35.969	28.176	1290.513	1067.704
-34.954	28.280	1288.511	1066.606
-33.940	28.254	1287.382	1065.479
-32.925	28.386	1285.673	1064.788
-31.911	28.407	1284.293	1063.726
-30.896	28.419	1282.978	1062.663
-29.881	28.321	1281.637	1060.943
-28.867	28.447	1280.066	1060.334
-27.852	28.492	1278.437	1059.200
-26.838	28.505	1277.204	1058.213
-25.823	28.370	1276.179	1056.538
-24.809	28.269	1275.164	1055.075
-23.794	28.330	1273.546	1054.046
-22.779	28.371	1271.956	1052.923
-21.765	28.341	1270.508	1051.512
-20.750	28.263	1269.990	1050.595
-19.736	28.265	1268.209	1049.090
-18.721	28.174	1267.073	1047.591
-17.706	28.317	1265.903	1047.399
-16.692	28.410	1264.562	1046.780
-15.677	28.242	1264.142	1045.430
-14.663	28.194	1262.706	1043.926
-13.648	28.261	1261.686	1043.423
-12.633	28.285	1260.475	1042.517
-11.619	28.241	1259.842	1041.701
-10.604	28.207	1259.189	1040.926
-9.590	28.198	1258.340	1040.133
-8.575	28.328	1257.122	1039.825
-7.560	28.197	1256.353	1038.400
-6.546	28.218	1255.006	1037.367
-5.531	28.186	1254.468	1036.697
-4.517	28.215	1253.758	1036.236
-3.502	28.181	1253.097	1035.454
-2.487	28.122	1252.412	1034.514
-1.473	28.085	1247.723	1030.394
-0.458	26.525	1232.948	1009.459
0.556	24.391	1215.522	970.999
1.571	20.531	1220.263	953.570
2.586	19.533	1234.391	958.980
3.600	19.404	1222.824	949.202
4.615	14.923	1151.727	870.656
5.629	7.339	1079.589	778.915
6.644	3.968	1061.289	749.343
7.659	3.723	1058.651	746.230
8.673	3.501	1057.292	744.137
9.688	3.530	1055.952	743.267
10.702	3.829	1054.055	743.303
11.717	8.831	1060.804	772.151
12.731	16.900	1072.446	819.720
13.746	21.850	1078.081	847.949
14.761	22.714	1079.615	853.263
15.775	22.047	1077.603	848.376
16.790	21.284	1075.904	843.282
17.804	20.630	1074.983	839.329
18.819	20.527	1073.524	837.619
19.834	20.609	1073.101	837.610
20.848	20.648	1072.727	837.434
21.863	20.402	1071.986	835.597
22.877	20.182	1071.619	834.176
23.892	20.174	1070.621	833.288
24.907	20.143	1069.206	831.964
25.921	20.006	1068.523	830.701
26.936	20.034	1067.364	829.860
27.950	20.084	1065.987	828.958
28.965	20.155	1064.761	828.268
29.980	20.340	1063.183	827.854
30.994	20.461	1062.284	827.652
32.009	20.639	1060.948	827.386
33.023	20.436	1060.129	825.712
34.038	20.370	1058.893	824.362
35.053	20.173	1058.419	822.987
36.067	20.065	1057.345	821.564
37.082	20.213	1056.737	821.720
38.096	20.341	1056.060	821.730
39.111	20.351	1055.646	821.382
40.126	20.247	1053.744	819.338
41.140	19.854	1052.531	816.467
42.155	19.641	1050.714	813.980
43.169	19.597	1049.779	812.976
44.184	19.581	1049.054	812.270
45.199	19.685	1048.163	811.998
46.213	19.902	1047.090	812.110
47.228	20.234	1046.609	813.224
48.242	20.320	1045.932	813.030
49.257	20.084	1045.208	811.290
50.271	20.306	1044.768	811.912
51.286	20.376	1043.719	811.354
52.301	20.246	1042.665	809.859
53.315	20.220	1041.472	808.735
54.330	19.949	1040.682	806.787
55.344	19.984	1039.416	805.898
56.359	19.980	1038.702	805.256
57.374	19.771	1037.946	803.625
58.388	19.678	1037.105	802.472
59.403	19.595	1036.218	801.333
60.417	19.627	1034.898	800.386
61.432	19.600	1034.823	800.132
62.447	19.431	1033.698	798.409
63.461	19.510	1032.613	797.868
64.476	19.372	1031.812	796.539
65.490	19.224	1030.991	795.151
66.505	19.354	1030.368	795.203
67.520	19.459	1029.836	795.207
68.534	19.393	1029.154	794.306
69.549	19.317	1028.057	793.037
70.563	19.297	1027.101	792.138
71.578	19.011	1026.368	790.190
72.593	18.980	1025.425	789.249
73.607	18.947	1024.977	788.682
74.622	19.124	1023.924	788.616
75.636	19.090	1023.596	788.136
76.651	19.254	1022.782	788.193
77.666	19.257	1021.959	787.499
78.680	19.263	1021.634	787.209
79.695	19.347	1021.082	787.099
80.709	19.394	1020.911	787.111
81.724	19.566	1019.720	786.908
82.739	19.705	1019.157	787.032
83.753	20.231	1018.203	788.621
84.768	20.549	1018.105	789.921
85.782	20.743	1017.483	790.249
86.797	20.730	1016.040	789.001
87.812	20.425	1015.321	786.990
88.826	20.327	1014.664	785.964
89.841	20.552	1013.686	786.159
90.855	20.600	1012.651	785.503
91.870	20.593	1012.197	785.049
92.884	20.711	1011.159	784.706
93.899	20.488	1010.235	782.916
94.914	20.610	1009.484	782.811
95.928	20.677	1008.066	781.943
96.943	20.374	1007.289	779.912
97.957	20.238	1006.344	778.502
98.972	20.435	1005.262	778.480
99.987	20.590	1004.497	778.509
101.001	20.439	1003.740	777.178
102.016	20.408	1002.853	776.285
103.030	20.469	1002.385	776.129
104.045	20.439	1001.478	775.221
105.060	20.244	1000.779	773.744
106.074	19.936	999.059	770.972
107.089	19.646	998.219	768.968
108.103	19.513	997.102	767.445
109.118	19.402	996.155	766.159
110.133	19.349	994.847	764.846
111.147	19.430	993.698	764.256
112.162	19.529	993.488	764.466
113.176	19.516	993.377	764.255
114.191	19.735	992.005	764.097
115.206	19.734	991.307	763.489
116.220	19.460	990.314	761.446
117.235	19.537	989.197	760.860
118.249	19.452	988.411	759.815
119.264	19.281	987.484	758.281
120.279	19.104	987.228	757.241
121.293	19.273	985.863	756.867
122.308	19.175	984.699	755.478
123.322	18.971	984.078	754.042
124.337	19.070	982.862	753.477
125.352	19.033	981.843	752.467
126.366	19.143	980.677	751.986
127.381	19.105	980.111	751.322
128.395	19.272	979.329	751.384
129.410	19.312	978.649	750.967
130.424	19.358	977.861	750.498
131.439	19.501	977.417	750.712
132.454	19.574	977.027	750.664
133.468	19.705	975.909	750.306
134.483	19.763	974.685	749.553
135.497	19.715	973.911	748.681
136.512	19.788	972.744	748.033
137.527	19.760	972.316	747.516
138.541	19.643	972.162	746.827
139.556	19.703	971.693	746.660
140.570	19.973	971.107	747.311
141.585	20.247	970.083	747.636
142.600	20.377	969.291	747.521
143.614	20.301	969.238	747.086
144.629	20.632	967.918	747.423
145.643	20.452	966.592	745.562
146.658	20.018	965.619	742.887
147.673	19.895	964.373	741.332
148.687	19.808	963.014	739.850
149.702	19.666	962.256	738.598
150.716	19.710	961.627	738.237
151.731	19.752	961.276	738.082
152.746	19.763	960.502	737.467
153.760	19.869	959.772	737.296
154.775	20.077	959.262	737.723
155.789	20.162	958.377	737.338
156.804	20.126	957.632	736.546
157.819	20.157	957.340	736.390
158.833	20.412	956.792	736.984
159.848	20.570	955.837	736.855
160.862	20.301	954.370	734.518
161.877	19.943	952.979	731.869
162.892	19.574	952.175	729.628
163.906	19.646	950.661	728.706
164.921	19.777	950.116	728.777
165.935	19.861	949.663	728.720
166.950	19.886	948.596	727.944
167.964	19.891	947.777	727.270
168.979	19.589	946.823	725.205
169.994	19.754	945.973	725.184
171.008	19.947	945.351	725.449
172.023	20.032	945.378	725.762
173.037	20.392	944.603	726.612
174.052	20.179	943.177	724.559
175.067	19.727	942.247	721.893
176.081	19.532	941.288	720.283
177.096	19.470	941.081	719.799
178.110	19.527	940.431	719.477
179.125	19.758	939.630	719.762
180.140	19.827	939.069	719.556
181.154	20.133	939.515	721.110
182.169	20.171	939.199	720.961
183.183	20.148	938.633	720.367
184.198	20.262	937.416	719.840
185.213	20.379	936.965	719.916
186.227	20.272	936.587	719.117
187.242	20.367	935.682	718.754
188.256	20.600	935.046	719.166
189.271	20.613	934.573	718.792
190.286	20.036	933.347	715.403
191.300	19.585	931.979	712.432
192.315	19.383	931.342	711.049
193.329	19.523	930.734	711.097
194.344	19.650	930.272	711.204
195.359	19.967	929.411	711.785
196.373	20.018	929.356	711.890
197.388	20.241	929.390	712.770
198.402	20.437	928.906	713.143
199.417	20.540	928.659	713.311
200.432	20.744	928.203	713.735
201.446	21.061	926.919	713.980
202.461	20.950	927.261	713.728
203.475	20.835	926.184	712.365
204.490	20.398	925.219	709.776
205.504	20.415	924.045	708.879
206.519	20.129	923.496	707.229
207.534	20.165	922.574	706.605
208.548	20.230	921.937	706.324
209.563	20.259	921.405	705.969
210.577	20.332	921.117	705.983
211.592	20.588	920.984	706.860
212.607	20.883	919.839	707.116
213.621	20.621	919.163	705.470
214.636	20.517	918.732	704.656
215.650	20.631	917.540	704.142
216.665	20.755	916.922	704.107
217.680	20.821	916.517	703.999
218.694	20.915	915.923	703.860
219.709	20.742	915.720	702.946
220.723	20.711	914.449	701.780
221.738	20.595	913.957	700.874
222.753	20.658	913.300	700.562
223.767	20.760	913.122	700.773
224.782	20.979	912.965	701.473
225.796	20.999	911.967	700.725
226.811	20.884	910.957	699.424
227.826	20.635	910.093	697.703
228.840	20.472	909.556	696.574
229.855	20.540	908.789	696.197
230.869	20.487	907.828	695.186
231.884	20.415	907.052	694.245
232.899	20.343	906.287	693.308
233.913	20.299	905.822	692.716
234.928	20.124	904.775	691.159
235.942	20.108	904.373	690.725
236.957	20.151	903.987	690.539
237.972	20.285	903.221	690.427
238.986	20.101	902.661	689.208
240.001	20.068	902.292	688.734
241.015	20.218	901.657	688.783
242.030	20.297	901.452	688.879
243.045	20.418	900.509	688.578
244.059	20.438	900.051	688.246
245.074	20.471	899.278	687.724
246.088	20.437	899.322	687.563
247.103	20.795	898.464	688.260
248.117	21.013	898.648	689.201
249.132	21.372	898.484	690.432
250.147	21.744	897.433	691.032
251.161	21.750	897.264	690.865
252.176	21.714	896.947	690.416
253.190	21.754	895.927	689.728
254.205	21.904	895.330	689.799
255.220	21.740	895.000	688.837
256.234	21.846	893.963	688.395
257.249	21.701	893.243	687.210
258.263	21.668	892.203	686.222
259.278	21.639	891.874	685.792
260.293	21.585	891.771	685.441
261.307	21.683	891.496	685.554
262.322	21.834	890.535	685.343
263.336	21.786	890.109	684.767
264.351	21.742	889.223	683.856
265.366	21.786	888.825	683.660
266.380	21.812	887.987	683.057
267.395	21.711	887.304	682.077
268.409	21.662	885.923	680.765
269.424	21.661	885.188	680.135
270.439	21.659	884.549	679.576
271.453	21.446	883.634	677.987
272.468	21.336	883.520	677.413
273.482	21.371	882.711	676.868
274.497	21.426	882.395	676.779
275.512	21.296	881.680	675.667
276.526	21.381	881.487	675.791
277.541	21.481	880.901	675.666
278.555	21.821	880.414	676.546
279.570	21.892	880.431	676.772
280.585	21.838	879.501	675.790
281.599	21.564	878.156	673.644
282.614	21.460	877.028	672.318
283.628	21.519	876.363	671.976
284.643	21.477	876.466	671.832
285.657	21.560	875.648	671.465
286.672	21.580	874.661	670.724
287.687	21.584	874.658	670.679
288.701	21.463	874.020	669.665
289.716	21.530	873.777	669.679
290.730	21.614	872.818	669.205
291.745	21.744	872.028	669.037
292.760	21.791	871.789	668.973
293.774	21.911	871.837	669.408
294.789	21.909	870.658	668.436
295.803	21.559	869.695	666.304
296.818	21.532	869.153	665.730
297.833	21.457	868.612	664.970
298.847	21.698	867.350	664.860
299.862	21.714	867.332	664.849
300.876	21.839	866.963	664.980
301.891	22.049	866.630	665.462
302.906	22.117	866.170	665.309
303.920	22.341	865.576	665.641
304.935	22.361	865.650	665.714
305.949	22.274	864.264	664.261
306.964	21.881	863.431	662.078
307.979	21.865	862.880	661.539
308.993	22.260	862.402	662.600
310.008	22.045	861.912	661.358
311.022	21.935	861.396	660.488
312.037	21.814	860.495	659.282
313.052	21.444	860.104	657.535
314.066	21.357	859.164	656.429
315.081	21.394	858.705	656.161
316.095	21.373	858.298	655.713
317.110	21.439	857.406	655.221
318.125	21.228	856.854	653.951
319.139	21.399	856.380	654.172
320.154	21.426	855.693	653.690
321.168	21.543	855.513	653.932
322.183	21.641	854.762	653.666
323.197	21.480	854.867	653.088
324.212	21.492	854.110	652.495
325.227	21.582	853.094	651.998
326.241	21.550	852.369	651.267
327.256	21.430	852.204	650.637
328.270	21.359	851.324	649.643
329.285	21.369	850.819	649.237
330.300	21.408	850.402	649.004
331.314	21.418	850.000	648.679
332.329	21.648	849.717	649.260
333.343	21.870	849.385	649.770
334.358	21.918	848.680	649.351
335.373	21.911	848.590	649.200
336.387	21.866	848.491	648.898
337.402	22.136	848.185	649.606
338.416	22.246	848.074	649.871
339.431	22.481	847.737	650.423
340.446	22.629	847.278	650.558
341.460	22.503	846.877	649.728
342.475	22.650	846.662	650.048
343.489	22.705	846.010	649.692
344.504	22.851	846.009	650.172
345.519	22.965	845.324	650.006
346.533	22.615	844.822	648.275
347.548	22.493	843.560	646.804
348.562	22.226	842.922	645.278
349.577	22.098	841.982	644.030
350.592	21.867	841.301	642.607
351.606	21.805	840.880	642.000
352.621	21.933	840.012	641.749
353.635	22.038	839.751	641.878
354.650	22.084	838.946	641.372
355.665	22.079	838.428	640.904
356.679	22.287	837.986	641.266
357.694	22.439	837.001	641.009
358.708	22.224	836.584	639.849
359.723	22.214	836.006	639.317
360.738	22.249	835.538	639.030
361.752	22.234	835.327	638.755
362.767	22.661	834.721	639.788
363.781	22.830	834.129	639.888
364.796	23.016	833.469	639.997
365.810	22.955	833.836	640.003
366.825	23.009	833.262	639.702
367.840	22.920	832.962	639.093
368.854	22.838	831.627	637.715
369.869	22.606	831.365	636.622
370.883	22.463	831.245	635.955
371.898	22.871	830.853	637.072
372.913	23.021	830.493	637.282
373.927	22.764	829.670	635.665
374.942	22.681	829.552	635.222
375.956	23.035	829.156	636.133
376.971	23.199	828.484	636.153
377.986	23.084	828.445	635.653
379.000	23.347	827.314	635.675
380.015	23.285	827.077	635.211
381.029	23.031	826.511	633.811
382.044	23.040	825.894	633.312
383.059	23.213	825.226	633.363
384.073	22.987	824.460	631.914
385.088	22.693	823.766	630.276
386.102	22.518	822.906	628.936
387.117	22.697	822.183	628.966
388.132	22.477	821.405	627.533
389.146	22.739	820.978	628.083
390.161	23.001	820.780	628.809
391.175	23.151	820.766	629.276
392.190	22.865	819.957	627.585
393.205	22.668	818.954	626.060
394.219	22.545	818.876	625.509
395.234	22.456	818.373	624.752
396.248	22.455	817.707	624.186
397.263	22.362	817.484	623.633
398.278	22.147	817.002	622.446
399.292	22.088	816.585	621.865
400.307	22.344	815.692	622.035
401.321	22.407	815.519	622.069
402.336	22.453	815.418	622.100
403.350	22.742	815.009	622.756
404.365	22.910	814.822	623.148
405.380	23.195	814.592	623.924
406.394	23.331	813.805	623.744
407.409	23.442	813.412	623.779
408.423	23.405	813.298	623.506
409.438	23.641	813.029	624.075
410.453	23.542	812.450	623.227
411.467	23.436	812.290	622.676
412.482	23.618	811.910	622.968
413.496	23.692	811.477	622.842
414.511	23.513	811.259	621.991
415.526	23.512	810.461	621.322
416.540	23.355	809.878	620.267
417.555	23.515	809.249	620.293
418.569	23.487	808.793	619.791
419.584	23.396	808.140	618.915
420.599	23.443	807.934	618.870
421.613	163.731	1372.288	1798.663
422.628	142.493	1454.499	1798.768
