DTS Sentinel unit serial number:	SN413079Multiplexer serial number:	ORYXHardware model number:	OX4-SRSoftware version number:	ORYX F/W v4.00 Oryx Data Collector v3.7.2.0data status	okinstallation	princeton_trtdifferential loss correction	single-endedforward channel	channel 1reverse channel	N/Adate	2019/09/15time	18:30:35forward acquisition time	60.00reverse acquisition time	0.00gamma	496.2192k internal	0.2289k external	0.2289temperature offset calibration	0.9935default loss term (dB/km)	0.3790temperature slope calibration	1.0000multiplexer offset coefficient	1.0000multiplexer slope coefficient	1.0000fibre end	0.00T internal ref (°C)	44.06T ext. ref 1 (°C)	6.75T ext. ref 2 (°C)	37.50length (m)	temperature (°C)	Stokes	anti-Stokes-747.200	800.000	-0.090	-0.257
-746.185	-129.113	0.189	-0.027
-745.171	800.000	0.052	0.207
-744.156	101.636	-0.218	0.260
-743.142	94.804	0.154	0.179
-742.127	23.184	-0.426	0.359
-741.112	-146.154	-0.220	-0.020
-740.098	171.994	-0.060	0.088
-739.083	-80.750	-0.233	-0.079
-738.069	-200.000	0.013	0.146
-737.054	31.134	0.047	-0.042
-736.039	328.694	-0.022	0.043
-735.025	115.959	-0.079	-0.099
-734.010	-110.882	-0.298	-0.063
-732.996	-200.000	-0.005	0.144
-731.981	-87.201	-0.596	0.186
-730.966	-46.612	-0.257	-0.129
-729.952	800.000	-0.052	-0.174
-728.937	-157.771	-0.365	0.022
-727.923	302.987	-0.043	-0.082
-726.908	37.893	-0.014	-0.013
-725.894	-132.330	-0.210	-0.028
-724.879	-139.217	0.168	-0.018
-723.864	800.000	0.076	0.244
-722.850	-129.050	-0.327	0.047
-721.835	-200.000	-0.035	-0.208
-720.821	-60.470	-0.399	-0.174
-719.806	-42.706	-0.210	0.109
-718.791	-108.123	0.182	0.040
-717.777	196.545	0.186	-0.290
-716.762	-200.000	-0.020	0.225
-715.748	-200.000	0.003	-0.240
-714.733	-200.000	-0.022	-0.184
-713.718	39.232	0.203	-0.186
-712.704	-126.252	0.087	-0.013
-711.689	800.000	-0.110	0.397
-710.675	48.024	0.234	-0.224
-709.660	-50.569	0.203	-0.098
-708.645	-200.000	-0.038	0.431
-707.631	-200.000	0.005	-0.073
-706.616	230.876	-0.168	-0.281
-705.602	30.549	0.149	-0.131
-704.587	4.163	0.077	-0.057
-703.572	-47.985	-0.154	-0.076
-702.558	349.523	0.213	0.430
-701.543	-10.187	0.273	0.185
-700.529	-200.000	-0.030	-0.260
-699.514	55.810	0.044	0.044
-698.499	-200.000	-0.018	-0.358
-697.485	800.000	0.022	-0.080
-696.470	800.000	0.139	-0.422
-695.456	-200.000	-0.021	-0.177
-694.441	-160.040	-0.193	-0.011
-693.426	-200.000	-0.005	-0.220
-692.412	-200.000	-0.040	0.191
-691.397	77.917	0.294	-0.320
-690.383	-64.927	-0.110	0.045
-689.368	-67.683	-0.213	0.085
-688.354	569.706	0.024	0.059
-687.339	-68.992	-0.319	0.126
-686.324	-35.680	-0.154	0.086
-685.310	692.921	-0.094	0.252
-684.295	215.318	-0.152	-0.247
-683.281	-200.000	0.031	-0.346
-682.266	800.000	0.048	-0.138
-681.251	2.450	0.205	-0.152
-680.237	120.280	-0.091	0.115
-679.222	-70.027	-0.103	0.040
-678.208	262.806	0.079	-0.140
-677.193	132.719	0.084	-0.110
-676.178	22.567	-0.338	-0.283
-675.164	-53.466	0.040	0.019
-674.149	63.033	0.231	0.237
-673.135	-200.000	0.011	-0.307
-672.120	-16.999	-0.130	0.084
-671.105	-54.590	-0.256	-0.118
-670.091	166.875	0.124	0.180
-669.076	-134.227	0.489	-0.061
-668.062	138.016	-0.167	-0.224
-667.047	170.491	-0.094	0.137
-666.032	47.586	0.203	-0.194
-665.018	-200.000	-0.012	0.303
-664.003	112.809	0.202	-0.250
-662.989	-116.486	-0.193	0.036
-661.974	-200.000	0.002	0.049
-660.959	191.981	0.096	0.147
-659.945	73.050	-0.171	-0.182
-658.930	71.181	0.046	-0.049
-657.916	60.216	0.154	0.156
-656.901	-112.174	-0.221	0.045
-655.886	800.000	-0.070	0.261
-654.872	-85.803	-0.318	-0.101
-653.857	-200.000	-0.021	-0.284
-652.843	-146.240	-0.204	-0.018
-651.828	-102.376	-0.177	-0.043
-650.814	-132.903	-0.131	-0.017
-649.799	800.000	0.019	0.077
-648.784	-92.631	-0.118	-0.034
-647.770	-125.601	-0.135	0.021
-646.755	-64.079	0.470	-0.196
-645.741	-81.289	-0.222	0.075
-644.726	-60.287	-0.243	-0.106
-643.711	211.957	-0.065	0.105
-642.697	406.921	0.013	0.029
-641.682	-178.203	0.263	-0.006
-640.668	800.000	-0.022	0.075
-639.653	132.896	0.212	0.279
-638.638	548.556	0.149	-0.364
-637.624	-58.589	-0.194	-0.086
-636.609	97.912	0.152	0.178
-635.595	-115.929	0.169	-0.032
-634.580	-126.596	0.212	-0.032
-633.565	800.000	0.010	-0.033
-632.551	-200.000	-0.016	-0.075
-631.536	408.960	-0.156	-0.336
-630.522	-45.424	-0.221	-0.112
-629.507	-200.000	-0.016	-0.264
-628.492	-97.168	-0.182	0.049
-627.478	359.419	-0.028	-0.058
-626.463	50.748	0.290	-0.280
-625.449	800.000	0.036	0.107
-624.434	321.651	-0.104	0.202
-623.419	-10.743	0.066	0.044
-622.405	-200.000	0.008	0.066
-621.390	141.060	-0.164	0.221
-620.376	-105.490	0.156	-0.036
-619.361	43.762	-0.122	-0.114
-618.346	-200.000	-0.014	0.299
-617.332	-104.363	-0.234	-0.055
-616.317	800.000	-0.042	0.153
-615.303	13.303	0.151	0.119
-614.288	800.000	-0.028	0.111
-613.273	-52.118	0.302	-0.143
-612.259	-79.693	-0.275	0.094
-611.244	26.092	-0.238	-0.203
-610.230	-81.792	0.074	-0.025
-609.215	394.382	0.246	-0.523
-608.201	159.168	0.092	-0.130
-607.186	185.088	0.168	0.254
-606.171	98.102	0.309	0.362
-605.157	-28.295	0.173	0.102
-604.142	-200.000	-0.001	0.236
-603.128	121.766	-0.087	-0.110
-602.113	-27.153	-0.406	0.241
-601.098	800.000	-0.008	0.037
-600.084	-200.000	0.046	-0.226
-599.069	113.141	0.120	-0.148
-598.055	220.665	-0.099	-0.162
-597.040	278.980	0.159	-0.289
-596.025	-34.657	-0.348	0.194
-595.011	101.128	-0.114	0.135
-593.996	-169.380	0.269	-0.010
-592.982	82.816	-0.123	-0.136
-591.967	-200.000	0.006	0.083
-590.952	-7.913	0.121	-0.083
-589.938	-194.139	-0.162	0.001
-588.923	244.569	0.135	-0.231
-587.909	800.000	0.051	-0.161
-586.894	-200.000	-0.013	0.066
-585.879	43.738	-0.181	-0.169
-584.865	34.224	0.237	0.210
-583.850	-109.848	0.268	0.057
-582.836	35.824	-0.128	-0.115
-581.821	-62.191	0.460	-0.195
-580.806	-200.000	-0.029	-0.368
-579.792	-200.000	-0.041	-0.500
-578.777	-10.203	0.179	-0.121
-577.763	-1.555	0.063	-0.046
-576.748	103.416	-0.331	-0.396
-575.733	-4.462	0.270	-0.190
-574.719	5.120	0.193	-0.145
-573.704	182.539	0.124	-0.186
-572.690	-200.000	-0.014	-0.116
-571.675	-68.220	-0.107	0.042
-570.661	-200.000	0.029	-0.143
-569.646	252.038	0.203	-0.352
-568.631	-200.000	0.007	-0.034
-567.617	-194.598	-0.127	-0.001
-566.602	800.000	-0.068	-0.268
-565.588	703.331	-0.085	-0.229
-564.573	149.147	-0.095	-0.131
-563.558	-100.745	0.355	-0.089
-562.544	-200.000	-0.046	-0.271
-561.529	-117.400	0.181	0.033
-560.515	800.000	0.081	0.315
-559.500	732.003	0.013	0.034
-558.485	-200.000	0.006	0.124
-557.471	744.479	-0.044	-0.121
-556.456	23.250	0.182	0.152
-555.442	72.161	0.069	0.073
-554.427	96.940	0.099	-0.115
-553.412	556.323	-0.075	-0.184
-552.398	-77.225	-0.126	-0.044
-551.383	800.000	-0.082	0.246
-550.369	-86.675	-0.046	-0.014
-549.354	-72.652	0.089	-0.033
-548.339	-73.303	-0.074	-0.027
-547.325	524.590	0.107	-0.255
-546.310	-1.250	0.292	-0.210
-545.296	-112.522	-0.185	-0.038
-544.281	-200.000	-0.001	0.060
-543.266	-200.000	-0.014	-0.476
-542.252	-40.146	-0.211	-0.112
-541.237	-200.000	0.004	0.138
-540.223	230.453	-0.095	-0.159
-539.208	-60.922	0.056	-0.024
-538.193	-200.000	-0.005	0.290
-537.179	-133.243	0.374	-0.048
-536.164	47.073	-0.294	-0.278
-535.150	229.923	0.173	-0.287
-534.135	800.000	-0.005	0.017
-533.121	-200.000	0.036	0.428
-532.106	-8.516	0.225	-0.154
-531.091	455.104	-0.075	-0.169
-530.077	-122.905	-0.085	-0.014
-529.062	178.894	-0.118	0.175
-528.048	155.663	-0.207	0.290
-527.033	-200.000	-0.016	-0.323
-526.018	-81.327	-0.220	-0.074
-525.004	44.045	-0.102	0.095
-523.989	-200.000	-0.008	-0.330
-522.975	-200.000	-0.004	-0.080
-521.960	688.550	0.113	0.300
-520.945	-196.703	-0.091	0.001
-519.931	45.852	0.254	-0.239
-518.916	13.401	-0.114	-0.090
-517.902	-147.808	0.349	-0.030
-516.887	-4.151	0.179	0.126
-515.872	-200.000	0.024	-0.127
-514.858	-200.000	-0.017	0.562
-513.843	-132.238	-0.214	-0.028
-512.829	-200.000	-0.051	0.268
-511.814	800.000	0.060	0.231
-510.799	-58.039	-0.260	-0.115
-509.785	-40.188	0.163	0.086
-508.770	-121.086	0.126	0.021
-507.756	-118.261	0.288	-0.052
-506.741	-200.000	-0.004	0.108
-505.726	47.640	0.075	-0.071
-504.712	-200.000	0.024	0.319
-503.697	-66.970	0.089	-0.036
-502.683	-51.308	0.026	-0.012
-501.668	60.496	0.129	-0.129
-500.653	-17.086	-0.263	-0.169
-499.639	-200.000	0.000	-0.136
-498.624	-45.607	-0.217	0.109
-497.610	-94.617	-0.043	0.012
-496.595	-200.000	0.004	-0.081
-495.581	-200.000	0.031	-0.244
-494.566	-126.464	-0.180	-0.027
-493.551	-174.092	-0.333	-0.010
-492.537	144.667	-0.123	0.166
-491.522	-69.873	-0.406	-0.157
-490.508	-200.000	-0.017	-0.159
-489.493	-200.000	-0.006	0.362
-488.478	-176.227	-0.486	-0.013
-487.464	-200.000	0.027	0.280
-486.449	800.000	-0.074	-0.266
-485.435	264.236	-0.167	-0.295
-484.420	-145.837	-0.262	0.024
-483.405	800.000	-0.016	-0.064
-482.391	101.057	-0.158	0.187
-481.376	-32.434	-0.228	-0.129
-480.362	-131.206	-0.070	0.009
-479.347	-132.221	0.386	-0.051
-478.332	86.813	-0.202	-0.226
-477.318	800.000	-0.025	0.103
-476.303	255.234	-0.033	-0.058
-475.289	-200.000	-0.023	0.451
-474.274	19.785	0.249	-0.203
-473.259	800.000	0.032	-0.096
-472.245	800.000	0.099	0.283
-471.230	-26.513	-0.173	0.103
-470.216	2.717	0.176	0.130
-469.201	800.000	0.033	-0.139
-468.186	-200.000	0.039	0.191
-467.172	8.239	-0.107	-0.081
-466.157	-15.667	0.320	-0.207
-465.143	110.034	-0.057	-0.070
-464.128	-73.080	-0.090	0.033
-463.113	-200.000	-0.004	0.170
-462.099	32.573	-0.133	-0.116
-461.084	-46.759	-0.075	0.037
-460.070	-113.424	-0.111	0.022
-459.055	174.339	-0.171	-0.251
-458.040	-137.322	-0.256	0.029
-457.026	48.454	-0.135	0.129
-456.011	800.000	-0.101	-0.333
-454.997	800.000	0.110	-0.365
-453.982	-26.529	0.163	0.097
-452.968	-82.166	0.041	-0.014
-451.953	-162.727	-0.272	-0.013
-450.938	-28.314	-0.107	-0.062
-449.924	-200.000	0.012	0.125
-448.909	-169.287	-0.125	0.005
-447.895	678.566	0.020	-0.053
-446.880	-199.644	-0.214	0.001
-445.865	-164.772	0.118	0.005
-444.851	-114.562	-0.285	0.055
-443.836	-11.181	0.064	0.043
-442.822	-60.451	-0.396	0.171
-441.807	120.985	-0.114	0.143
-440.792	426.983	-0.054	-0.119
-439.778	142.639	-0.178	0.239
-438.763	800.000	-0.062	0.248
-437.749	16.908	-0.108	-0.087
-436.734	42.076	-0.168	-0.154
-435.719	-128.216	-0.219	-0.032
-434.705	84.810	-0.262	0.291
-433.690	-157.930	-0.115	0.007
-432.676	-78.158	0.185	-0.065
-431.661	-200.000	-0.025	-0.122
-430.646	105.397	-0.043	-0.051
-429.632	-164.165	-0.276	-0.013
-428.617	-98.692	-0.052	-0.013
-427.603	-53.116	0.227	-0.105
-426.588	225.618	0.066	-0.108
-425.573	-22.768	0.124	-0.076
-424.559	800.000	0.049	-0.184
-423.544	-101.193	0.075	-0.019
-422.530	178.670	-0.148	0.219
-421.515	210.256	0.064	0.102
-420.500	126.586	0.061	-0.079
-419.486	800.000	-0.028	-0.079
-418.471	-134.930	-0.308	0.038
-417.457	-200.000	-0.002	0.051
-416.442	-37.920	0.151	0.081
-415.428	160.203	0.047	0.066
-414.413	-26.270	-0.129	-0.077
-413.398	-200.000	-0.001	0.238
-412.384	800.000	-0.096	0.268
-411.369	25.963	0.093	-0.078
-410.355	-58.956	-0.624	-0.273
-409.340	153.250	-0.095	-0.131
-408.325	469.224	0.144	0.328
-407.311	256.815	0.025	-0.043
-406.296	16.908	0.153	-0.123
-405.282	227.976	0.177	0.292
-404.267	72.879	-0.163	-0.172
-403.252	-200.000	0.067	-0.380
-402.238	-13.684	0.108	-0.070
-401.223	-57.734	0.147	-0.065
-400.209	-200.000	-0.027	0.181
-399.194	-200.000	-0.023	0.138
-398.179	-200.000	0.006	-0.181
-397.165	-200.000	0.054	-0.418
-396.150	294.250	0.145	-0.267
-395.136	96.490	-0.126	0.145
-394.121	-28.734	-0.208	0.121
-393.106	203.216	0.050	0.079
-392.092	-200.000	0.027	-0.150
-391.077	-200.000	-0.088	-0.404
-390.063	-20.633	-0.206	-0.128
-389.048	-22.477	0.330	-0.202
-388.033	92.190	-0.123	0.140
-387.019	-79.180	-0.425	-0.146
-386.004	-101.882	-0.383	0.093
-384.990	-64.409	0.320	0.131
-383.975	60.720	-0.149	0.149
-382.960	-200.000	-0.331	0.000
-381.946	126.776	0.132	-0.169
-380.931	-111.806	-0.190	-0.039
-379.917	-43.639	-0.150	-0.076
-378.902	-200.000	-0.027	-0.146
-377.888	-200.000	0.008	-0.132
-376.873	220.202	0.065	0.105
-375.858	-12.631	0.042	0.028
-374.844	370.854	0.098	-0.201
-373.829	231.080	-0.223	0.368
-372.815	-200.000	-0.179	0.000
-371.800	122.967	0.174	0.220
-370.785	-84.798	0.113	0.036
-369.771	402.516	0.090	-0.191
-368.756	-200.000	0.062	0.315
-367.742	-20.997	-0.202	0.125
-366.727	138.980	0.202	0.268
-365.712	115.265	-0.118	0.146
-364.698	174.726	0.070	-0.103
-363.683	616.439	0.052	0.132
-362.669	-105.233	0.142	-0.033
-361.654	-111.745	0.337	0.069
-360.639	-200.000	0.020	0.140
-359.625	-200.000	0.019	0.332
-358.610	-140.474	0.318	-0.033
-357.596	-146.744	-0.154	0.013
-356.581	586.306	-0.053	-0.132
-355.566	156.491	-0.211	-0.294
-354.552	-135.480	-0.132	-0.016
-353.537	-29.781	-0.054	0.031
-352.523	583.776	0.080	0.199
-351.508	800.000	-0.055	0.158
-350.493	40.063	-0.183	-0.166
-349.479	800.000	-0.029	-0.096
-348.464	60.207	-0.160	0.159
-347.450	800.000	0.028	0.105
-346.435	-61.533	0.029	-0.012
-345.420	-200.000	-0.044	-0.432
-344.406	-81.884	-0.314	0.104
-343.391	-166.565	0.175	-0.007
-342.377	-200.000	0.050	0.230
-341.362	194.313	0.181	-0.277
-340.348	53.677	0.115	0.111
-339.333	-61.945	-0.125	0.053
-338.318	-11.800	-0.230	-0.152
-337.304	51.313	0.058	0.055
-336.289	-200.000	0.024	0.275
-335.275	-127.567	-0.149	-0.022
-334.260	-46.940	0.162	-0.080
-333.245	112.820	0.079	-0.096
-332.231	179.579	0.173	0.255
-331.216	-37.231	-0.040	0.021
-330.202	59.528	-0.165	-0.164
-329.187	355.235	0.167	0.336
-328.172	682.042	-0.164	0.431
-327.158	725.038	-0.024	0.064
-326.143	-107.328	0.421	-0.093
-325.129	-200.000	0.155	-0.000
-324.114	800.000	0.093	0.267
-323.099	68.973	-0.165	0.171
-322.085	125.708	0.030	0.038
-321.070	800.000	-0.005	-0.022
-320.056	-8.756	-0.078	-0.053
-319.041	800.000	0.065	0.277
-318.026	37.231	-0.099	0.088
-317.012	626.035	0.038	0.096
-315.997	-143.739	0.229	0.022
-314.983	-35.658	0.059	-0.032
-313.968	-200.000	-0.005	0.053
-312.953	252.519	-0.115	0.197
-311.939	-200.000	-0.008	-0.067
-310.924	-200.000	0.045	0.244
-309.910	-200.000	-0.001	0.103
-308.895	-39.438	0.071	0.037
-307.880	277.928	0.162	0.291
-306.866	96.723	0.193	0.223
-305.851	33.368	-0.479	0.419
-304.837	45.235	-0.153	0.142
-303.822	69.888	-0.151	-0.157
-302.807	800.000	-0.070	-0.214
-301.793	800.000	0.089	-0.279
-300.778	-200.000	-0.000	0.162
-299.764	-39.282	0.218	-0.115
-298.749	-37.433	0.194	0.104
-297.735	-200.000	-0.040	0.186
-296.720	101.325	0.238	0.279
-295.705	49.771	0.179	0.170
-294.691	345.615	-0.072	0.142
-293.676	-146.019	-0.127	-0.011
-292.662	365.426	0.097	0.196
-291.647	800.000	-0.050	-0.175
-290.632	-200.000	0.014	-0.155
-289.618	-115.347	0.230	0.044
-288.603	800.000	-0.041	0.121
-287.589	-18.060	0.257	0.162
-286.574	-9.783	0.326	0.218
-285.559	-200.000	-0.064	-0.294
-284.545	44.476	-0.066	0.061
-283.530	47.474	0.193	0.181
-282.516	131.993	-0.100	-0.130
-281.501	464.842	-0.202	-0.454
-280.486	186.618	0.056	-0.083
-279.472	227.045	0.197	-0.323
-278.457	-70.123	0.185	-0.071
-277.443	-180.697	0.333	0.007
-276.428	379.719	0.239	0.493
-275.413	800.000	-0.067	0.186
-274.399	-200.000	-0.027	0.263
-273.384	-51.710	0.193	-0.090
-272.370	15.858	-0.184	0.146
-271.355	-131.872	0.165	-0.022
-270.340	-84.688	0.596	0.189
-269.326	800.000	0.076	-0.268
-268.311	31.659	0.138	0.120
-267.297	416.517	-0.065	0.140
-266.282	5.475	0.080	0.059
-265.267	-200.000	-0.021	0.308
-264.253	72.456	0.265	0.278
-263.238	-200.000	-0.015	0.248
-262.224	800.000	-0.064	-0.237
-261.209	-200.000	0.013	0.160
-260.195	395.775	0.028	0.058
-259.180	-121.423	-0.100	-0.017
-258.165	800.000	0.035	-0.111
-257.151	38.644	-0.143	0.128
-256.136	172.459	0.067	0.097
-255.122	-132.165	-0.156	-0.020
-254.107	-200.000	-0.009	-0.189
-253.092	-177.622	-0.133	-0.003
-252.078	-4.907	-0.133	0.092
-251.063	182.620	0.068	-0.101
-250.049	121.784	-0.093	-0.117
-249.034	383.177	0.037	0.077
-248.019	-200.000	0.053	0.356
-247.005	68.715	-0.087	-0.090
-245.990	93.843	0.204	-0.233
-244.976	-200.000	0.021	0.097
-243.961	-30.240	0.159	0.091
-242.946	-200.000	0.035	0.253
-241.932	-124.608	0.113	-0.018
-240.917	-110.330	-0.168	-0.035
-239.903	-200.000	0.027	0.200
-238.888	-140.408	-0.126	-0.013
-237.873	-30.696	0.155	-0.088
-236.859	-200.000	0.018	0.117
-235.844	-200.000	0.076	0.368
-234.830	195.675	-0.102	-0.155
-233.815	-134.402	-0.068	-0.008
-232.800	27.981	-0.273	0.231
-231.786	-5.840	0.305	0.210
-230.771	-129.982	0.137	0.019
-229.757	159.501	-0.171	0.239
-228.742	-25.574	0.466	0.276
-227.727	800.000	-0.067	0.219
-226.713	204.304	-0.271	-0.421
-225.698	-0.098	0.130	-0.093
-224.684	-115.101	-0.210	-0.040
-223.669	195.583	-0.141	0.216
-222.655	161.637	-0.203	0.285
-221.640	-200.000	0.004	-0.280
-220.625	-99.772	0.262	-0.066
-219.611	800.000	-0.080	-0.316
-218.596	122.230	-0.060	0.075
-217.582	-200.000	-0.031	-0.140
-216.567	-107.522	-0.586	0.129
-215.552	800.000	0.042	0.138
-214.538	-162.684	-0.295	-0.015
-213.523	-40.482	-0.249	-0.130
-212.509	800.000	0.021	0.080
-211.494	95.693	-0.068	-0.078
-210.479	343.507	-0.080	-0.157
-209.465	149.979	0.197	0.268
-208.450	-96.134	-0.191	0.051
-207.436	-91.886	-0.238	0.068
-206.421	800.000	0.080	0.303
-205.406	39.816	0.326	0.294
-204.392	290.972	0.081	-0.148
-203.377	800.000	0.067	-0.192
-202.363	-148.894	0.113	-0.009
-201.348	-86.547	0.071	0.022
-200.333	-118.040	0.377	-0.068
-199.319	-198.144	0.441	0.003
-198.304	107.581	-0.106	0.127
-197.290	77.589	-0.091	-0.097
-196.275	-58.485	0.147	-0.064
-195.260	-49.965	0.144	-0.068
-194.246	-106.139	0.150	0.034
-193.231	-200.000	-0.007	-0.376
-192.217	291.715	0.052	0.095
-191.202	800.000	-0.023	-0.071
-190.187	719.960	0.063	-0.168
-189.173	-200.000	-0.015	0.403
-188.158	74.186	0.122	-0.128
-187.144	233.069	0.089	-0.147
-186.129	-17.012	-0.106	-0.067
-185.114	-37.474	0.214	0.115
-184.100	-200.000	0.014	-0.150
-183.085	-71.022	0.203	0.076
-182.071	86.967	-0.150	-0.166
-181.056	-200.000	-0.036	-0.284
-180.042	270.301	0.126	0.223
-179.027	125.563	-0.023	-0.029
-178.012	118.974	0.038	0.047
-176.998	257.247	0.053	-0.091
-175.983	-111.006	0.177	-0.037
-174.969	69.947	-0.125	-0.129
-173.954	145.260	-0.116	0.156
-172.939	-60.731	-0.289	0.123
-171.925	7.338	0.260	-0.194
-170.910	-7.281	0.061	-0.042
-169.896	83.326	0.077	0.084
-168.881	-69.326	0.180	0.069
-167.866	-53.725	0.030	0.014
-166.852	154.365	0.153	-0.210
-165.837	800.000	-0.051	-0.156
-164.823	52.488	-0.192	0.184
-163.808	-24.742	0.009	-0.005
-162.793	800.000	-0.057	0.161
-161.779	280.849	0.115	0.206
-160.764	373.476	0.073	0.149
-159.750	-200.000	-0.023	-0.180
-158.735	800.000	0.030	-0.122
-157.720	132.117	0.070	0.091
-156.706	33.289	0.140	-0.122
-155.691	323.251	-0.157	-0.301
-154.677	-200.000	-0.068	-0.306
-153.662	164.108	-0.070	0.098
-152.647	-98.093	-0.178	-0.046
-151.633	543.744	-0.020	-0.047
-150.618	193.795	-0.146	-0.222
-149.604	-21.664	-0.155	0.094
-148.589	-9.730	-0.162	-0.108
-147.574	591.681	-0.127	0.313
-146.560	218.501	0.046	0.073
-145.545	693.403	0.054	0.141
-144.531	336.484	-0.111	0.216
-143.516	-118.661	-0.186	-0.033
-142.502	-200.000	0.049	0.255
-141.487	42.948	0.132	0.120
-140.472	-43.019	-0.263	0.133
-139.458	-200.000	0.007	-0.069
-138.443	493.634	-0.086	-0.197
-137.429	316.315	-0.047	0.088
-136.414	14.518	-0.189	0.148
-135.399	800.000	0.023	-0.093
-134.385	-104.966	0.387	-0.089
-133.370	112.129	0.041	-0.050
-132.356	275.003	0.085	0.150
-131.341	-200.000	-0.047	-0.259
-130.326	-110.357	0.177	-0.037
-129.312	-200.000	0.049	0.360
-128.297	800.000	0.059	-0.218
-127.283	-61.026	0.317	-0.134
-126.268	19.723	0.093	-0.075
-125.253	-116.916	0.112	-0.020
-124.239	445.981	0.049	0.108
-123.224	10.900	-0.164	-0.125
-122.210	-83.115	0.296	-0.095
-121.195	-200.000	-0.004	0.160
-120.180	-200.000	0.064	-0.316
-119.166	-64.209	-0.289	0.118
-118.151	-200.000	0.039	0.267
-117.137	-200.000	0.001	0.045
-116.122	-143.148	-0.183	-0.018
-115.107	-200.000	0.060	-0.298
-114.093	-16.152	-0.083	0.053
-113.078	58.329	-0.215	0.210
-112.064	227.909	0.186	0.303
-111.049	12.453	0.005	-0.004
-110.034	107.474	-0.134	-0.159
-109.020	-8.577	0.311	0.209
-108.005	-121.694	0.317	0.052
-106.991	-84.443	0.116	-0.037
-105.976	800.000	-0.077	-0.273
-104.962	423.443	-0.014	0.031
-103.947	40.820	-0.063	-0.056
-102.932	154.886	-0.138	0.190
-101.918	76.755	0.068	-0.072
-100.903	217.498	-0.115	0.184
-99.889	-63.389	0.213	-0.088
-98.874	-161.068	0.213	-0.011
-97.859	-79.788	0.040	0.013
-96.845	517.448	-0.048	-0.112
-95.830	100.982	0.083	0.096
-94.816	1.662	-0.056	0.040
-93.801	53.353	0.100	0.096
-92.786	-154.328	0.028	-0.002
-91.772	341.422	-0.200	-0.390
-90.757	263.416	-0.112	0.194
-89.743	-192.075	0.178	-0.002
-88.728	-200.000	0.010	-0.249
-87.713	800.000	0.155	-0.566
-86.699	339.330	-0.060	0.117
-85.684	-180.068	-0.221	0.005
-84.670	-49.640	0.079	0.037
-83.655	313.732	0.161	0.302
-82.640	-200.000	-0.016	-0.239
-81.626	-56.373	0.129	-0.057
-80.611	-127.459	-0.165	-0.024
-79.597	-200.000	0.021	-0.207
-78.582	-200.000	0.000	-0.043
-77.567	-86.823	-0.258	-0.079
-76.553	94.503	0.174	0.198
-75.538	-116.951	0.153	-0.028
-74.524	800.000	0.047	0.186
-73.509	-72.879	0.269	0.099
-72.494	68.092	-0.292	0.299
-71.480	12.060	0.273	0.210
-70.465	-200.000	0.001	0.112
-69.451	-167.251	0.226	0.009
-68.436	-200.000	-0.008	0.115
-67.422	-12.790	0.161	0.105
-66.407	39.491	-0.117	0.105
-65.392	252.441	0.061	0.104
-64.378	800.000	0.035	0.119
-63.363	-126.840	0.200	-0.029
-62.349	-136.691	0.221	0.025
-61.334	40.040	-0.586	-0.525
-60.319	-123.783	0.348	0.055
-59.305	800.000	-0.190	-0.644
-58.290	220.289	0.188	0.300
-57.276	435.936	0.765	1.661
-56.261	-200.000	73.224	546.044
-55.246	586.847	1280.017	3141.817
-54.232	145.309	2503.679	3342.851
-53.217	121.991	2225.866	2770.955
-52.203	56.895	1668.967	1621.784
-51.188	48.361	1387.053	1295.053
-50.173	44.401	1339.722	1226.971
-49.159	61.930	1371.557	1363.071
-48.144	70.752	1390.376	1435.217
-47.130	48.496	1354.116	1264.921
-46.115	44.289	1337.219	1223.807
-45.100	44.000	1333.011	1218.174
-44.086	43.925	1330.547	1215.424
-43.071	43.821	1328.242	1212.647
-42.057	43.942	1325.829	1211.118
-41.042	43.859	1323.965	1208.871
-40.027	43.901	1322.571	1207.801
-39.013	43.867	1321.160	1206.265
-37.998	43.908	1318.866	1204.364
-36.984	44.038	1317.228	1203.594
-35.969	44.077	1315.216	1201.941
-34.954	44.183	1313.489	1200.939
-33.940	44.133	1312.080	1199.309
-32.925	44.154	1311.037	1198.432
-31.911	44.066	1309.864	1196.790
-30.896	44.242	1307.944	1196.027
-29.881	44.136	1306.726	1194.244
-28.867	44.189	1304.978	1192.908
-27.852	44.158	1304.034	1191.817
-26.838	44.292	1301.975	1190.670
-25.823	44.227	1300.705	1189.083
-24.809	44.075	1299.654	1187.184
-23.794	44.156	1298.249	1186.331
-22.779	44.165	1296.663	1184.886
-21.765	44.173	1295.518	1183.837
-20.750	44.102	1294.075	1182.059
-19.736	44.043	1292.782	1180.487
-18.721	44.012	1291.941	1179.495
-17.706	44.013	1290.612	1178.238
-16.692	44.044	1288.902	1176.811
-15.677	44.026	1288.127	1175.953
-14.663	43.825	1287.680	1174.331
-13.648	43.899	1285.914	1173.100
-12.633	43.983	1284.989	1172.698
-11.619	44.038	1284.076	1172.135
-10.604	44.058	1283.055	1171.275
-9.590	44.053	1282.028	1170.260
-8.575	44.046	1281.049	1169.279
-7.560	44.026	1280.228	1168.367
-6.546	43.961	1279.658	1167.425
-5.531	44.000	1278.612	1166.651
-4.517	43.969	1277.590	1165.496
-3.502	44.049	1276.360	1164.784
-2.487	44.081	1275.484	1164.125
-1.473	43.957	1272.461	1160.608
-0.458	42.483	1255.616	1136.861
0.556	35.365	1233.590	1085.857
1.571	29.748	1234.667	1054.773
2.586	27.676	1247.900	1054.024
3.600	25.710	1237.308	1033.707
4.615	19.880	1165.327	941.855
5.629	11.321	1087.689	835.362
6.644	7.186	1064.513	796.725
7.659	6.673	1061.485	791.812
8.673	6.640	1060.388	790.761
9.688	6.503	1058.942	788.924
10.702	6.874	1058.334	790.257
11.717	11.597	1064.795	818.724
12.731	17.914	1073.213	856.933
13.746	18.833	1073.005	861.298
14.761	17.249	1070.557	851.331
15.775	16.242	1068.383	844.489
16.790	15.110	1066.496	837.264
17.804	14.347	1064.881	832.114
18.819	13.973	1063.367	828.992
19.834	13.691	1062.260	826.648
20.848	13.412	1061.792	824.820
21.863	13.165	1060.819	822.765
22.877	13.086	1060.046	821.696
23.892	13.014	1059.372	820.745
24.907	13.029	1058.422	820.010
25.921	13.077	1057.236	819.256
26.936	13.082	1056.093	818.324
27.950	13.059	1054.855	817.177
28.965	13.155	1053.543	816.566
29.980	13.243	1051.936	815.682
30.994	13.402	1050.819	815.527
32.009	13.432	1049.622	814.670
33.023	13.338	1048.681	813.409
34.038	13.213	1047.562	811.853
35.053	13.251	1046.831	811.402
36.067	13.213	1045.970	810.474
37.082	13.230	1044.987	809.727
38.096	13.211	1044.735	809.367
39.111	13.251	1043.569	808.587
40.126	13.166	1042.753	807.466
41.140	12.921	1041.370	805.128
42.155	12.865	1040.692	804.261
43.169	13.042	1039.037	803.775
44.184	12.898	1038.395	802.506
45.199	12.884	1037.518	801.689
46.213	13.024	1036.403	801.433
47.228	13.189	1034.742	800.878
48.242	13.233	1033.547	800.095
49.257	13.211	1033.014	799.507
50.271	13.185	1032.204	798.684
51.286	13.303	1030.998	798.249
52.301	13.242	1029.933	797.058
53.315	13.060	1029.612	795.865
54.330	13.111	1028.083	794.859
55.344	12.982	1027.618	793.806
56.359	12.947	1026.738	792.888
57.374	13.194	1025.125	792.758
58.388	12.981	1024.770	791.393
59.403	12.945	1024.314	790.798
60.417	12.945	1023.236	789.896
61.432	12.963	1021.924	788.898
62.447	12.902	1021.170	787.955
63.461	12.896	1020.450	787.302
64.476	12.962	1019.984	787.188
65.490	13.030	1018.641	786.406
66.505	12.991	1018.125	785.749
67.520	13.081	1017.200	785.393
68.534	13.025	1016.592	784.589
69.549	12.998	1016.112	784.020
70.563	12.900	1015.296	782.859
71.578	12.879	1014.810	782.316
72.593	12.840	1013.732	781.227
73.607	12.908	1013.039	780.946
74.622	12.779	1012.817	780.095
75.636	12.817	1011.882	779.487
76.651	12.727	1011.776	778.910
77.666	12.878	1011.200	779.111
78.680	12.849	1010.200	778.136
79.695	12.915	1009.601	777.916
80.709	12.964	1008.685	777.375
81.724	12.987	1007.972	776.864
82.739	13.146	1007.236	776.977
83.753	13.170	1006.478	776.434
84.768	13.244	1005.691	776.107
85.782	13.350	1004.613	775.704
86.797	13.289	1004.094	774.949
87.812	13.226	1002.896	773.660
88.826	13.095	1002.043	772.319
89.841	13.167	1001.235	771.968
90.855	13.215	999.956	771.136
91.870	13.351	999.027	770.985
92.884	13.328	998.635	770.505
93.899	13.361	997.598	769.792
94.914	13.471	996.801	769.622
95.928	13.361	996.220	768.593
96.943	13.334	995.154	767.576
97.957	13.135	994.511	766.091
98.972	13.381	993.390	766.296
99.987	13.344	992.768	765.579
101.001	13.304	991.550	764.389
102.016	13.269	990.908	763.664
103.030	13.278	990.013	762.950
104.045	13.362	989.318	762.734
105.060	13.246	988.403	761.426
106.074	13.108	987.269	759.851
107.089	13.119	986.472	759.221
108.103	12.997	985.536	757.872
109.118	13.079	984.535	757.410
110.133	13.013	983.782	756.460
111.147	13.103	982.819	756.068
112.162	12.969	982.302	754.989
113.176	13.151	981.361	755.033
114.191	13.073	980.807	754.183
115.206	13.112	980.026	753.694
116.220	13.199	978.685	752.990
117.235	13.214	977.873	752.366
118.249	13.129	977.029	751.267
119.264	13.150	976.290	750.727
120.279	13.182	975.569	750.251
121.293	13.024	974.944	748.988
122.308	13.163	973.766	748.643
123.322	13.076	972.944	747.555
124.337	13.047	971.923	746.571
125.352	13.060	970.805	745.705
126.366	13.016	969.883	744.734
127.381	13.009	969.140	744.064
128.395	13.074	968.069	743.470
129.410	13.076	967.339	742.851
130.424	13.203	966.550	742.750
131.439	13.215	965.617	742.022
132.454	13.356	964.961	742.084
133.468	13.244	963.942	740.732
134.483	13.378	963.201	740.700
135.497	13.340	962.602	740.001
136.512	13.411	961.687	739.549
137.527	13.389	960.732	738.652
138.541	13.278	960.473	737.893
139.556	13.390	959.751	737.772
140.570	13.428	958.896	737.220
141.585	13.495	958.371	737.048
142.600	13.513	957.219	736.177
143.614	13.606	956.296	735.816
144.629	13.529	955.931	735.126
145.643	13.543	954.883	734.320
146.658	13.422	953.833	732.910
147.673	13.405	952.845	732.010
148.687	13.420	951.807	731.216
149.702	13.378	950.876	730.252
150.716	13.268	949.995	729.024
151.731	13.280	949.739	728.815
152.746	13.415	948.723	728.567
153.760	13.338	948.437	727.941
154.775	13.410	948.087	727.927
155.789	13.413	947.609	727.508
156.804	13.461	946.362	726.698
157.819	13.479	945.491	726.043
158.833	13.505	945.011	725.726
159.848	13.618	943.945	725.336
160.862	13.620	943.353	724.827
161.877	13.422	942.251	723.051
162.892	13.359	941.109	721.834
163.906	13.208	940.607	720.726
164.921	13.412	939.381	720.612
165.935	13.348	938.737	719.778
166.950	13.416	937.729	719.236
167.964	13.384	936.500	718.092
168.979	13.352	935.991	717.497
169.994	13.447	934.816	716.945
171.008	13.395	934.669	716.543
172.023	13.664	933.307	716.600
173.037	13.569	932.665	715.633
174.052	13.494	931.936	714.686
175.067	13.535	931.709	714.626
176.081	13.418	931.019	713.528
177.096	13.440	930.435	713.113
178.110	13.440	929.822	712.579
179.125	13.460	929.213	712.137
180.140	13.558	928.457	711.915
181.154	13.708	927.727	711.934
182.169	13.674	927.873	711.840
183.183	13.702	927.410	711.542
184.198	13.861	926.291	711.302
185.213	13.676	925.935	710.172
186.227	13.749	925.045	709.739
187.242	13.741	924.334	709.097
188.256	13.917	923.592	709.215
189.271	13.772	923.001	708.081
190.286	13.659	922.107	706.850
191.300	13.576	921.568	706.023
192.315	13.535	920.669	705.096
193.329	13.490	920.300	704.561
194.344	13.620	919.592	704.507
195.359	13.618	919.086	704.050
196.373	13.729	918.502	704.011
197.388	13.806	918.244	704.076
198.402	13.882	918.184	704.293
199.417	13.847	917.152	703.287
200.432	13.985	916.659	703.433
201.446	14.035	916.102	703.156
202.461	14.061	915.721	702.911
203.475	14.092	915.017	702.441
204.490	13.895	914.184	700.908
205.504	13.745	913.841	699.948
206.519	13.870	912.862	699.663
207.534	13.993	911.816	699.316
208.548	13.971	911.518	698.936
209.563	13.938	910.658	698.074
210.577	13.964	909.971	697.594
211.592	14.103	909.412	697.688
212.607	14.095	908.848	697.162
213.621	14.053	908.024	696.289
214.636	14.058	907.181	695.605
215.650	14.095	906.550	695.214
216.665	14.205	905.902	695.112
217.680	14.273	905.118	694.735
218.694	14.294	904.401	694.210
219.709	14.247	903.894	693.563
220.723	14.172	903.281	692.721
221.738	14.239	902.360	692.230
222.753	14.282	901.974	692.052
223.767	14.277	901.530	691.628
224.782	14.418	900.928	691.693
225.796	14.383	900.623	691.251
226.811	14.303	900.072	690.437
227.826	14.342	899.039	689.745
228.840	14.148	898.520	688.479
229.855	14.308	897.212	688.078
230.869	14.164	896.575	686.935
231.884	14.254	896.142	686.913
232.899	14.264	895.444	686.359
233.913	14.129	895.006	685.408
234.928	14.271	894.136	685.265
235.942	14.134	893.683	684.291
236.957	14.265	893.128	684.346
237.972	14.322	892.494	684.031
238.986	14.153	892.181	683.040
240.001	14.190	891.464	682.583
241.015	14.326	890.664	682.465
242.030	14.414	889.806	682.108
243.045	14.376	889.111	681.361
244.059	14.443	888.777	681.316
245.074	14.494	887.697	680.636
246.088	14.428	887.491	680.151
247.103	14.526	886.664	679.855
248.117	14.546	886.012	679.379
249.132	14.748	885.588	679.813
250.147	14.795	884.892	679.412
251.161	14.759	884.511	678.912
252.176	14.827	883.892	678.653
253.190	14.715	883.397	677.756
254.205	14.945	882.522	677.961
255.220	14.818	881.976	676.965
256.234	14.929	881.397	676.908
257.249	14.729	880.793	675.577
258.263	14.823	880.278	675.504
259.278	14.859	879.416	674.928
260.293	14.993	878.696	674.854
261.307	14.958	878.335	674.376
262.322	15.092	877.726	674.389
263.336	15.018	876.996	673.473
264.351	15.101	875.775	672.807
265.366	15.242	875.109	672.802
266.380	15.049	874.849	671.769
267.395	14.988	874.205	670.970
268.409	15.040	873.087	670.261
269.424	15.060	872.456	669.797
270.439	14.938	871.976	668.880
271.453	14.952	871.260	668.327
272.468	15.011	870.737	668.102
273.482	14.997	870.504	667.811
274.497	15.021	869.631	667.176
275.512	15.052	868.648	666.488
276.526	15.008	868.396	666.059
277.541	15.149	867.667	666.001
278.555	15.192	867.652	666.104
279.570	15.362	866.363	665.731
280.585	15.264	865.800	664.849
281.599	15.162	865.034	663.798
282.614	15.226	864.266	663.405
283.628	15.207	863.842	662.946
284.643	15.309	863.036	662.671
285.657	15.271	862.273	661.876
286.672	15.289	861.721	661.462
287.687	15.313	861.578	661.390
288.701	15.411	860.685	661.031
289.716	15.305	860.213	660.194
290.730	15.325	859.543	659.702
291.745	15.280	859.440	659.384
292.760	15.153	859.182	658.630
293.774	15.480	857.907	658.878
294.789	15.426	857.234	658.092
295.803	15.314	856.499	657.032
296.818	15.349	855.813	656.584
297.833	15.345	855.213	656.047
298.847	15.392	854.780	655.842
299.862	15.271	854.595	655.170
300.876	15.472	853.849	655.325
301.891	15.474	853.449	654.968
302.906	15.501	852.785	654.503
303.920	15.538	852.218	654.158
304.935	15.709	851.283	654.046
305.949	15.685	850.814	653.532
306.964	15.553	850.174	652.471
307.979	15.661	849.722	652.487
308.993	15.638	849.548	652.206
310.008	15.754	848.513	651.802
311.022	15.725	847.980	651.223
312.037	15.516	847.537	650.017
313.052	15.701	846.660	650.004
314.066	15.643	846.119	649.303
315.081	15.576	845.679	648.652
316.095	15.561	845.217	648.183
317.110	15.724	844.218	647.987
318.125	15.661	844.037	647.546
319.139	15.720	843.560	647.353
320.154	15.675	843.077	646.750
321.168	15.772	842.737	646.805
322.183	15.717	841.988	645.961
323.197	15.602	841.666	645.216
324.212	15.711	841.013	645.074
325.227	15.721	840.260	644.479
326.241	15.730	839.869	644.157
327.256	15.742	839.121	643.574
328.270	15.674	838.630	642.880
329.285	15.716	838.314	642.742
330.300	15.574	837.809	641.753
331.314	15.719	837.085	641.698
332.329	15.892	836.329	641.720
333.343	15.824	836.171	641.282
334.358	15.849	835.789	641.030
335.373	15.767	835.368	640.338
336.387	15.948	835.330	640.937
337.402	16.002	835.014	640.844
338.416	16.034	834.688	640.662
339.431	16.035	834.027	640.100
340.446	15.954	834.213	639.880
341.460	15.992	833.462	639.391
342.475	16.115	833.105	639.525
343.489	16.162	832.602	639.259
344.504	16.266	832.121	639.230
345.519	16.265	831.728	638.865
346.533	16.249	831.127	638.287
347.548	16.095	830.749	637.358
348.562	16.105	829.900	636.688
349.577	16.184	829.132	636.342
350.592	16.144	828.611	635.735
351.606	16.126	827.792	634.983
352.621	16.064	827.291	634.307
353.635	16.211	826.923	634.524
354.650	16.139	826.271	633.698
355.665	16.204	825.733	633.471
356.679	16.162	825.147	632.809
357.694	16.209	824.278	632.263
358.708	16.236	824.001	632.096
359.723	16.292	823.214	631.643
360.738	16.255	822.357	630.792
361.752	16.291	821.827	630.464
362.767	16.380	821.368	630.391
363.781	16.532	820.704	630.392
364.796	16.459	820.587	629.972
365.810	16.632	820.030	630.133
366.825	16.431	819.867	629.202
367.840	16.655	819.287	629.537
368.854	16.474	818.602	628.281
369.869	16.576	818.356	628.417
370.883	16.509	817.919	627.776
371.898	16.613	817.777	627.999
372.913	16.654	817.042	627.531
373.927	16.726	816.396	627.245
374.942	16.700	816.288	627.012
375.956	16.778	815.831	626.893
376.971	16.720	815.517	626.381
377.986	16.926	814.709	626.466
379.000	16.621	814.811	625.363
380.015	16.767	814.005	625.227
381.029	16.852	813.065	624.765
382.044	16.838	812.282	624.054
383.059	16.934	811.987	624.128
384.073	16.846	811.275	623.201
385.088	16.854	810.961	622.933
386.102	16.714	810.553	622.052
387.117	16.883	809.580	621.868
388.132	16.809	809.221	621.267
389.146	16.828	808.680	620.866
390.161	16.848	808.545	620.782
391.175	16.782	808.185	620.208
392.190	16.851	807.202	619.653
393.205	16.878	806.813	619.395
394.219	16.796	806.469	618.779
395.234	16.843	805.861	618.429
396.248	16.849	805.443	618.073
397.263	16.662	804.997	616.995
398.278	16.862	804.649	617.404
399.292	16.822	804.770	617.295
400.307	16.852	803.813	616.617
401.321	16.829	803.369	616.137
402.336	16.926	802.885	616.063
403.350	16.884	802.704	615.719
404.365	16.995	802.278	615.739
405.380	17.190	801.776	616.007
406.394	17.182	801.107	615.409
407.409	17.063	801.033	614.867
408.423	17.048	800.779	614.562
409.438	17.269	800.099	614.788
410.453	17.284	799.720	614.495
411.467	17.086	799.511	613.564
412.482	17.357	798.941	614.051
413.496	17.515	798.312	614.083
414.511	17.308	797.996	613.039
415.526	17.294	797.588	612.622
416.540	17.419	797.128	612.664
417.555	17.388	796.617	612.106
418.569	17.340	796.303	611.639
419.584	17.345	796.130	611.469
420.599	17.543	795.400	611.564
421.613	80.421	1243.147	1294.735
422.628	68.033	1308.404	1294.883
