DTS Sentinel unit serial number:	SN413079Multiplexer serial number:	ORYXHardware model number:	OX4-SRSoftware version number:	ORYX F/W v4.00 Oryx Data Collector v3.7.2.0data status	okinstallation	princeton_trtdifferential loss correction	single-endedforward channel	channel 1reverse channel	N/Adate	2019/09/13time	14:10:35forward acquisition time	60.00reverse acquisition time	0.00gamma	496.2192k internal	0.2302k external	0.2302temperature offset calibration	1.0165default loss term (dB/km)	0.3790temperature slope calibration	1.0000multiplexer offset coefficient	1.0000multiplexer slope coefficient	1.0000fibre end	0.00T internal ref (°C)	35.25T ext. ref 1 (°C)	4.61T ext. ref 2 (°C)	30.32length (m)	temperature (°C)	Stokes	anti-Stokes-747.200	529.476	0.071	-0.172
-746.185	53.572	-0.033	-0.032
-745.171	-72.833	0.168	-0.063
-744.156	228.191	0.044	-0.073
-743.142	-30.041	0.061	-0.035
-742.127	-72.598	0.266	0.100
-741.112	321.597	0.115	0.222
-740.098	-93.038	0.186	0.053
-739.083	-200.000	0.000	0.036
-738.069	-200.000	0.017	0.244
-737.054	-54.648	-0.412	0.190
-736.039	-42.774	-0.412	0.213
-735.025	-52.428	-0.262	-0.124
-734.010	184.658	0.197	-0.297
-732.996	-200.000	-0.051	-0.327
-731.981	-200.000	-0.007	-0.257
-730.966	-134.232	0.116	-0.015
-729.952	-80.993	0.141	0.047
-728.937	72.533	-0.166	-0.177
-727.923	-200.000	0.016	-0.234
-726.908	60.664	0.175	0.176
-725.894	179.018	-0.223	0.333
-724.879	-200.000	0.011	-0.125
-723.864	-15.065	-0.372	-0.243
-722.850	-84.785	-0.632	-0.202
-721.835	13.364	-0.141	0.111
-720.821	-200.000	0.005	0.070
-719.806	800.000	0.116	-0.457
-718.791	-189.266	0.136	0.002
-717.777	-134.827	0.129	-0.016
-716.762	-200.000	-0.010	0.119
-715.748	175.728	-0.174	0.257
-714.733	-38.065	-0.305	-0.165
-713.718	-200.000	0.013	0.059
-712.704	790.251	0.064	-0.180
-711.689	-109.560	-0.159	0.034
-710.675	-81.553	-0.313	0.105
-709.660	800.000	-0.080	-0.297
-708.645	106.393	-0.188	-0.227
-707.631	800.000	0.075	-0.242
-706.616	262.458	-0.066	-0.116
-705.602	217.707	-0.282	-0.458
-704.587	-152.079	0.201	-0.015
-703.572	131.253	0.195	0.255
-702.558	225.109	0.047	-0.077
-701.543	-99.251	-0.075	-0.019
-700.529	309.651	0.183	0.349
-699.514	292.684	-0.117	-0.217
-698.499	97.259	-0.105	-0.123
-697.485	-185.254	-0.380	-0.006
-696.470	800.000	0.035	-0.138
-695.456	-200.000	-0.010	0.127
-694.441	0.347	0.310	0.225
-693.426	-27.325	-0.330	-0.196
-692.412	-77.584	0.142	0.050
-691.397	-200.000	-0.002	0.048
-690.383	-200.000	-0.022	0.147
-689.368	-200.000	-0.003	0.196
-688.354	-17.481	-0.209	0.133
-687.339	-18.513	-0.161	-0.102
-686.324	-147.938	-0.263	-0.022
-685.310	800.000	-0.011	-0.050
-684.295	-30.954	0.213	0.122
-683.281	-11.387	-0.092	-0.061
-682.266	-62.687	0.152	0.064
-681.251	-71.967	-0.177	-0.067
-680.237	223.687	0.182	0.299
-679.222	55.249	0.124	-0.122
-678.208	-148.138	0.111	0.009
-677.193	150.102	-0.167	0.230
-676.178	318.785	0.145	-0.280
-675.164	129.922	-0.110	0.143
-674.149	-149.452	-0.245	-0.020
-673.135	-200.000	-0.050	0.385
-672.120	-200.000	-0.012	-0.108
-671.105	-200.000	-0.037	-0.184
-670.091	800.000	-0.133	-0.521
-669.076	-119.678	0.152	0.027
-668.062	-169.163	0.209	0.008
-667.047	800.000	-0.069	-0.224
-666.032	-132.855	0.573	0.074
-665.018	800.000	-0.059	-0.169
-664.003	41.367	0.390	-0.358
-662.989	-13.586	0.177	-0.116
-661.974	128.544	-0.137	-0.177
-660.959	35.993	-0.159	-0.142
-659.945	-68.861	0.433	0.170
-658.930	102.895	0.182	-0.217
-657.916	-47.905	0.206	-0.101
-656.901	-90.136	0.454	0.134
-655.886	-67.953	0.257	-0.102
-654.872	646.891	-0.049	0.126
-653.857	-13.748	0.362	-0.238
-652.843	-128.117	-0.319	-0.046
-651.828	5.953	0.184	-0.138
-650.814	-200.000	0.018	0.109
-649.799	-40.845	-0.477	-0.251
-648.784	-104.097	0.198	-0.047
-647.770	94.652	0.142	0.164
-646.755	165.080	-0.126	-0.181
-645.741	800.000	-0.035	-0.128
-644.726	-48.241	-0.169	-0.083
-643.711	334.534	0.136	0.268
-642.697	-175.313	0.365	0.010
-641.682	146.218	-0.204	-0.277
-640.668	97.927	0.117	-0.137
-639.653	-200.000	-0.012	-0.111
-638.638	301.410	0.144	0.270
-637.624	-112.107	-0.135	0.028
-636.609	83.501	0.148	-0.164
-635.595	-48.898	0.013	-0.007
-634.580	64.131	0.140	-0.142
-633.565	23.377	-0.331	-0.276
-632.551	468.101	-0.166	-0.378
-631.536	512.552	-0.124	-0.293
-630.522	53.151	-0.342	-0.332
-629.507	-124.539	-0.136	0.021
-628.492	-110.571	-0.060	-0.013
-627.478	-200.000	0.031	0.271
-626.463	-109.936	0.135	-0.029
-625.449	38.732	0.192	-0.174
-624.434	-19.539	-0.184	-0.115
-623.419	-10.140	0.312	-0.210
-622.405	-200.000	0.024	0.341
-621.390	-97.451	-0.277	-0.073
-620.376	399.882	-0.131	-0.278
-619.361	-200.000	-0.015	-0.142
-618.346	224.337	0.068	-0.111
-617.332	7.813	-0.190	0.145
-616.317	800.000	0.119	0.346
-615.303	-3.314	-0.126	-0.089
-614.288	428.802	-0.137	-0.300
-613.273	-200.000	-0.059	-0.420
-612.259	102.481	-0.069	0.082
-611.244	571.364	-0.016	0.039
-610.230	-16.253	0.155	0.100
-609.215	227.281	-0.147	-0.243
-608.201	-121.299	0.381	0.064
-607.186	-10.104	-0.165	0.111
-606.171	-71.821	-0.271	-0.102
-605.157	493.124	0.026	-0.060
-604.142	68.099	-0.205	0.212
-603.128	-153.735	0.322	0.022
-602.113	-28.575	-0.125	0.073
-601.098	-58.758	0.312	-0.137
-600.084	310.273	-0.066	0.125
-599.069	-147.233	0.255	-0.022
-598.055	199.808	0.093	-0.145
-597.040	800.000	-0.089	-0.270
-596.025	78.805	-0.332	0.360
-595.011	-144.214	0.253	0.024
-593.996	24.966	0.250	-0.210
-592.982	-6.656	0.189	0.130
-591.967	316.376	0.139	0.266
-590.952	-2.381	0.134	0.095
-589.938	36.827	-0.232	0.207
-588.923	-80.803	-0.041	0.014
-587.909	-108.180	-0.333	-0.073
-586.894	-77.543	-0.249	-0.088
-585.879	-24.271	0.044	0.027
-584.865	800.000	0.031	0.122
-583.850	-78.343	-0.126	0.044
-582.836	447.999	0.068	0.152
-581.821	-135.917	-0.189	0.023
-580.806	-34.851	0.173	0.096
-579.792	-200.000	-0.024	0.157
-578.777	280.273	-0.121	-0.219
-577.763	-177.204	-0.234	0.006
-576.748	-175.144	0.095	0.003
-575.733	-65.757	0.118	-0.048
-574.719	-152.347	-0.090	0.007
-573.704	191.329	0.060	0.091
-572.690	-81.439	-0.240	0.080
-571.675	310.389	0.182	-0.345
-570.661	82.450	0.106	-0.117
-569.646	354.259	-0.025	-0.050
-568.631	-47.778	0.320	0.157
-567.617	800.000	0.120	-0.383
-566.602	-123.136	-0.204	0.033
-565.588	-110.316	0.257	-0.054
-564.573	19.169	-0.074	-0.060
-563.558	346.092	0.079	0.158
-562.544	-98.891	-0.092	0.024
-561.529	157.273	0.237	0.332
-560.515	-123.849	0.221	-0.035
-559.500	-200.000	-0.023	-0.113
-558.485	-110.005	-0.327	0.069
-557.471	-200.000	0.000	0.256
-556.456	417.687	-0.054	-0.117
-555.442	53.794	0.075	-0.073
-554.427	26.592	-0.180	0.153
-553.412	-200.000	0.446	0.001
-552.398	-151.256	0.128	-0.010
-551.383	-187.083	0.253	0.004
-550.369	-143.199	0.136	-0.013
-549.354	-200.000	-0.013	0.486
-548.339	281.428	0.109	0.197
-547.325	560.180	0.103	0.252
-546.310	289.439	0.027	0.049
-545.296	-200.000	0.009	-0.192
-544.281	-16.277	-0.273	-0.175
-543.266	208.795	-0.187	-0.296
-542.252	474.575	-0.056	-0.127
-541.237	440.331	-0.068	-0.150
-540.223	622.934	-0.029	-0.075
-539.208	311.017	0.074	0.140
-538.193	180.500	-0.047	0.070
-537.179	-111.027	0.107	-0.022
-536.164	-103.385	0.342	-0.081
-535.150	-169.911	-0.366	-0.013
-534.135	11.994	0.282	-0.219
-533.121	2.042	-0.154	-0.112
-532.106	-200.000	0.001	0.199
-531.091	26.789	-0.233	-0.197
-530.077	-50.398	-0.063	0.030
-529.062	380.135	-0.112	-0.232
-528.048	116.634	-0.174	0.216
-527.033	-100.436	-0.067	0.017
-526.018	86.780	-0.160	-0.179
-525.004	-29.961	-0.146	0.084
-523.989	-98.817	0.130	-0.034
-522.975	208.243	-0.070	0.111
-521.960	-200.000	-0.017	0.124
-520.945	342.025	0.115	-0.228
-519.931	35.514	0.147	-0.131
-518.916	-111.133	-0.182	-0.038
-517.902	-175.595	-0.168	0.005
-516.887	800.000	0.071	0.257
-515.872	-112.537	-0.172	-0.035
-514.858	-200.000	0.035	0.161
-513.843	-36.724	0.162	0.088
-512.829	10.873	0.120	-0.093
-511.814	-65.651	0.272	-0.110
-510.799	17.445	-0.147	0.118
-509.785	118.866	0.033	-0.042
-508.770	130.684	-0.124	-0.160
-507.756	-132.111	0.147	0.019
-506.741	20.059	-0.011	0.009
-505.726	24.802	0.232	0.194
-504.712	299.098	0.120	0.223
-503.697	226.661	-0.205	-0.337
-502.683	77.609	0.360	0.386
-501.668	-82.139	0.315	-0.104
-500.653	-18.697	-0.265	-0.167
-499.639	106.709	-0.052	0.062
-498.624	482.979	-0.030	-0.069
-497.610	-38.955	-0.086	0.046
-496.595	385.846	0.023	-0.048
-495.581	-148.328	-0.156	0.013
-494.566	209.692	-0.049	0.078
-493.551	111.498	0.356	0.433
-492.537	-90.852	0.225	0.066
-491.522	-68.911	-0.029	-0.011
-490.508	-126.129	-0.322	0.049
-489.493	-200.000	-0.040	0.270
-488.478	341.229	0.045	0.088
-487.464	-33.921	-0.057	0.032
-486.449	-60.358	-0.238	0.102
-485.435	800.000	-0.034	-0.131
-484.420	-25.631	-0.022	0.013
-483.405	-153.652	-0.641	0.045
-482.391	-9.023	0.283	0.191
-481.376	-152.116	0.235	-0.017
-480.362	-74.675	0.221	-0.080
-479.347	-140.847	0.244	-0.025
-478.332	107.519	-0.078	0.094
-477.318	261.771	0.094	0.164
-476.303	-89.666	-0.184	-0.054
-475.289	-100.617	-0.239	-0.059
-474.274	800.000	-0.052	-0.217
-473.259	151.942	0.028	0.038
-472.245	800.000	0.091	-0.289
-471.230	15.960	0.128	0.101
-470.216	85.619	-0.346	0.384
-469.201	-4.982	-0.255	0.177
-468.186	-135.032	0.313	-0.038
-467.172	-28.015	-0.346	-0.202
-466.157	-97.024	-0.158	0.042
-465.143	-139.690	-0.340	0.037
-464.128	-200.000	-0.002	0.103
-463.113	-200.000	-0.001	0.110
-462.099	-25.763	0.175	0.104
-461.084	144.881	0.080	0.107
-460.070	-200.000	-0.013	-0.056
-459.055	800.000	0.063	0.218
-458.040	-53.870	0.310	-0.142
-457.026	-57.954	-0.377	-0.166
-456.011	-101.995	0.329	-0.080
-454.997	-17.252	0.347	0.220
-453.982	-20.844	-0.057	-0.035
-452.968	158.124	0.091	0.127
-451.953	414.130	0.044	-0.095
-450.938	800.000	-0.041	-0.160
-449.924	47.681	-0.165	-0.155
-448.909	57.430	0.167	0.165
-447.895	-146.626	0.208	0.018
-446.880	96.685	0.193	0.223
-445.865	61.600	0.043	-0.043
-444.851	579.254	0.114	-0.280
-443.836	-25.488	0.086	-0.051
-442.822	800.000	0.055	-0.192
-441.807	800.000	-0.098	0.296
-440.792	-198.056	0.274	-0.002
-439.778	-135.435	-0.324	-0.039
-438.763	-97.594	-0.322	0.084
-437.749	148.698	-0.063	-0.086
-436.734	-200.000	-0.035	0.199
-435.719	24.342	-0.156	0.130
-434.705	-200.000	0.196	-0.001
-433.690	10.173	0.085	-0.065
-432.676	388.515	0.162	-0.338
-431.661	-200.000	0.003	0.245
-430.646	-200.000	0.022	-0.333
-429.632	166.916	0.154	0.220
-428.617	110.079	-0.176	-0.212
-427.603	-176.981	0.201	-0.005
-426.588	-167.725	-0.350	0.014
-425.573	-94.444	0.083	-0.023
-424.559	800.000	-0.058	0.190
-423.544	800.000	0.093	-0.343
-422.530	-200.000	-0.026	0.153
-421.515	-200.000	-0.027	0.206
-420.500	-55.020	0.318	-0.144
-419.486	-200.000	0.032	0.169
-418.471	-114.935	-0.022	0.004
-417.457	97.727	0.175	0.203
-416.442	-89.020	0.224	-0.067
-415.428	15.837	-0.184	-0.145
-414.413	-168.650	0.210	-0.008
-413.398	-200.000	-0.012	0.103
-412.384	-200.000	0.033	-0.162
-411.369	-15.674	-0.195	-0.125
-410.355	130.150	0.112	0.144
-409.340	182.579	-0.129	-0.191
-408.325	-200.000	-0.049	-0.241
-407.311	348.489	0.010	-0.019
-406.296	-76.698	-0.066	0.023
-405.282	-185.574	0.208	-0.003
-404.267	183.494	0.109	-0.162
-403.252	800.000	-0.054	0.199
-402.238	486.902	-0.033	-0.076
-401.223	-146.876	0.223	-0.019
-400.209	-22.766	0.171	-0.104
-399.194	-99.823	0.146	0.037
-398.179	225.980	0.072	0.118
-397.165	73.729	-0.289	-0.304
-396.150	82.355	-0.222	-0.242
-395.136	800.000	0.117	-0.351
-394.121	-200.000	0.011	-0.089
-393.106	-200.000	-0.002	-0.177
-392.092	5.982	-0.018	-0.014
-391.077	-200.000	-0.017	-0.416
-390.063	-98.936	0.092	0.023
-389.048	-89.335	0.259	0.077
-388.033	276.728	0.084	0.151
-387.019	-59.524	-0.248	-0.107
-386.004	-65.811	0.044	-0.018
-384.990	-123.868	0.160	0.025
-383.975	-200.000	-0.021	0.323
-382.960	6.921	0.107	0.080
-381.946	97.151	-0.181	0.209
-380.931	126.944	-0.089	0.114
-379.917	-42.422	-0.147	-0.075
-378.902	381.476	-0.066	-0.136
-377.888	-48.388	-0.113	0.055
-376.873	19.485	0.263	-0.212
-375.858	-200.000	0.023	0.284
-374.844	-200.000	0.031	-0.176
-373.829	59.353	0.145	-0.144
-372.815	198.645	0.125	0.192
-371.800	16.762	-0.278	-0.221
-370.785	-91.476	-0.069	-0.020
-369.771	420.180	-0.080	0.171
-368.756	27.654	-0.041	0.035
-367.742	134.141	0.163	-0.212
-366.727	-70.922	0.038	-0.014
-365.712	-157.877	0.060	0.004
-364.698	-200.000	0.001	0.371
-363.683	-108.410	0.146	-0.032
-362.669	-200.000	0.012	0.062
-361.654	97.556	-0.107	0.123
-360.639	-200.000	0.048	0.242
-359.625	-200.000	0.029	-0.176
-358.610	679.175	0.129	0.338
-357.596	37.348	0.066	-0.059
-356.581	-82.053	0.217	-0.071
-355.566	-112.498	0.249	0.050
-354.552	-200.000	-0.021	-0.459
-353.537	-200.000	-0.020	-0.143
-352.523	-6.662	-0.022	-0.015
-351.508	269.024	0.143	0.252
-350.493	-200.000	0.031	0.174
-349.479	76.095	-0.282	-0.300
-348.464	-178.975	-0.133	-0.003
-347.450	-200.000	0.041	-0.437
-346.435	-200.000	-0.004	-0.043
-345.420	-71.381	-0.026	-0.010
-344.406	800.000	0.097	0.284
-343.391	-127.940	-0.117	-0.017
-342.377	-200.000	0.009	0.100
-341.362	23.098	0.076	-0.062
-340.348	-200.000	0.018	0.266
-339.333	-20.425	-0.242	0.149
-338.318	-109.905	0.159	-0.033
-337.304	-200.000	0.010	0.415
-336.289	159.108	-0.183	0.255
-335.275	-126.564	0.193	-0.029
-334.260	677.826	0.103	-0.269
-333.245	-36.136	0.053	-0.029
-332.231	800.000	-0.022	-0.064
-331.216	-99.533	0.230	0.058
-330.202	-133.879	-0.193	-0.024
-329.187	-200.000	0.026	-0.126
-328.172	223.377	0.128	0.206
-327.158	48.081	0.209	-0.196
-326.143	615.214	0.065	0.162
-325.129	-200.000	0.210	-0.000
-324.114	-78.112	-0.264	-0.091
-323.099	719.982	-0.036	0.095
-322.085	203.608	-0.056	0.087
-321.070	90.285	0.161	0.181
-320.056	116.610	-0.075	0.092
-319.041	57.638	-0.179	0.175
-318.026	-119.963	0.152	0.026
-317.012	39.577	0.128	-0.115
-315.997	-28.337	-0.169	0.098
-314.983	112.730	0.294	0.357
-313.968	800.000	-0.028	0.116
-312.953	-38.912	0.205	0.108
-311.939	5.407	-0.173	0.128
-310.924	29.255	0.219	-0.186
-309.910	-16.991	-0.079	-0.050
-308.895	-174.318	-0.471	-0.014
-307.880	-96.804	-0.129	-0.034
-306.866	-112.266	-0.225	-0.045
-305.851	460.529	-0.090	0.200
-304.837	70.565	0.184	0.191
-303.822	-61.408	0.229	0.097
-302.807	169.805	-0.086	0.123
-301.793	-167.084	-0.281	-0.011
-300.778	800.000	0.088	0.272
-299.764	-97.569	-0.299	-0.078
-298.749	239.253	-0.047	0.078
-297.735	302.444	-0.014	0.026
-296.720	-18.710	0.174	-0.108
-295.705	-200.000	0.012	-0.255
-294.691	-113.469	-0.128	-0.025
-293.676	-62.521	0.292	-0.121
-292.662	245.551	-0.132	-0.222
-291.647	-200.000	0.006	-0.202
-290.632	-130.587	0.256	-0.035
-289.618	-144.743	-0.017	-0.002
-288.603	-60.881	-0.305	-0.129
-287.589	-152.386	0.211	-0.015
-286.574	211.203	0.231	-0.363
-285.559	143.603	-0.277	-0.369
-284.545	-141.777	0.117	0.012
-283.530	591.229	-0.056	-0.137
-282.516	387.618	0.035	-0.072
-281.501	-1.373	-0.240	-0.170
-280.486	-200.000	0.017	-0.242
-279.472	-113.719	-0.150	0.029
-278.457	-116.035	0.075	-0.014
-277.443	192.326	-0.166	0.251
-276.428	287.455	0.017	-0.031
-275.413	683.404	-0.102	0.266
-274.399	-83.891	0.412	-0.131
-273.384	80.164	0.097	-0.104
-272.370	-200.000	-0.012	-0.283
-271.355	203.136	0.113	0.174
-270.340	-65.047	-0.259	0.104
-269.326	-200.000	0.080	0.356
-268.311	313.342	0.065	0.123
-267.297	-200.000	0.005	0.271
-266.282	-140.400	0.139	-0.015
-265.267	72.368	0.127	0.132
-264.253	-77.018	-0.147	0.051
-263.238	-200.000	0.042	-0.480
-262.224	-42.295	0.187	0.095
-261.209	800.000	0.059	-0.194
-260.195	-65.234	0.108	-0.043
-259.180	-73.623	-0.108	0.039
-258.165	173.967	-0.187	-0.270
-257.151	-200.000	-0.041	-0.199
-256.136	-200.000	-0.032	-0.204
-255.122	705.241	-0.072	0.189
-254.107	-122.418	-0.427	0.070
-253.092	13.182	0.298	0.231
-252.078	-109.232	-0.384	0.081
-251.063	579.066	-0.120	-0.293
-250.049	68.128	0.049	0.050
-249.034	-35.676	-0.228	-0.123
-248.019	-180.853	0.242	-0.005
-247.005	45.176	-0.201	-0.185
-245.990	-200.000	0.002	0.286
-244.976	-200.000	0.010	-0.061
-243.961	-14.031	0.066	0.042
-242.946	800.000	0.077	0.257
-241.932	-200.000	-0.015	-0.115
-240.917	240.961	-0.107	-0.178
-239.903	160.645	-0.263	0.366
-238.888	-161.484	0.304	-0.016
-237.873	-90.524	0.191	-0.055
-236.859	561.540	-0.019	0.047
-235.844	-100.484	0.163	0.040
-234.830	800.000	-0.029	-0.098
-233.815	-142.798	-0.330	0.032
-232.800	-10.016	-0.117	-0.077
-231.786	-129.093	0.064	-0.009
-230.771	800.000	0.034	0.129
-229.757	-62.094	0.175	0.073
-228.742	-200.000	0.070	0.375
-227.727	-66.675	-0.258	-0.102
-226.713	-61.693	-0.142	-0.059
-225.698	-2.458	0.163	0.114
-224.684	-87.687	-0.087	-0.026
-223.669	800.000	-0.038	-0.124
-222.655	117.444	0.067	0.082
-221.640	-142.777	0.055	0.005
-220.625	40.981	0.231	0.209
-219.611	-98.833	-0.379	-0.096
-218.596	-155.433	-0.249	-0.016
-217.582	-94.580	-0.203	0.055
-216.567	33.723	-0.124	-0.107
-215.552	716.038	-0.092	0.243
-214.538	-200.000	-0.090	-0.402
-213.523	-21.045	0.098	0.060
-212.509	-200.000	-0.024	-0.295
-211.494	-200.000	0.067	0.447
-210.479	209.942	-0.186	0.291
-209.465	79.623	0.304	0.326
-208.450	707.601	0.162	0.427
-207.436	379.563	0.058	0.118
-206.421	-27.863	0.091	0.052
-205.406	-200.000	0.039	-0.219
-204.392	124.697	0.082	-0.102
-203.377	183.356	-0.190	0.281
-202.363	225.516	0.056	-0.091
-201.348	-200.000	0.034	-0.260
-200.333	567.997	-0.060	0.145
-199.319	800.000	0.005	-0.020
-198.304	124.001	0.077	-0.097
-197.290	-147.554	0.268	0.023
-196.275	368.159	0.031	0.062
-195.260	800.000	-0.023	-0.065
-194.246	-111.884	0.103	-0.021
-193.231	800.000	0.108	0.323
-192.217	800.000	-0.123	0.391
-191.202	277.048	-0.035	-0.063
-190.187	-200.000	0.019	-0.296
-189.173	-14.335	-0.124	-0.080
-188.158	-151.715	0.522	-0.038
-187.144	-151.426	-0.248	0.018
-186.129	187.340	0.039	0.058
-185.114	187.595	-0.162	0.241
-184.100	37.586	-0.081	-0.072
-183.085	93.238	-0.032	0.036
-182.071	136.359	0.221	-0.288
-181.056	-15.389	-0.100	-0.064
-180.042	-200.000	0.013	-0.350
-179.027	-200.000	-0.014	-0.242
-178.012	800.000	0.080	0.321
-176.998	-63.373	-0.437	-0.179
-175.983	-56.394	-0.219	-0.097
-174.969	800.000	0.102	0.410
-173.954	-200.000	-0.045	-0.225
-172.939	552.276	0.113	0.271
-171.925	-58.327	0.390	0.169
-170.910	-36.446	-0.267	-0.143
-169.896	-82.225	-0.418	0.136
-168.881	208.933	-0.082	0.127
-167.866	-54.316	-0.145	-0.065
-166.852	-152.928	-0.253	0.018
-165.837	-200.000	0.000	-0.040
-164.823	-21.612	-0.115	-0.070
-163.808	177.475	-0.068	-0.099
-162.793	51.017	0.350	0.330
-161.779	691.273	0.070	-0.182
-160.764	102.119	0.177	-0.206
-159.750	-200.000	0.023	0.351
-158.735	-139.737	-0.091	0.010
-157.720	9.417	0.147	-0.110
-156.706	-200.000	0.029	0.178
-155.691	33.880	-0.077	-0.067
-154.677	800.000	-0.057	-0.195
-153.662	16.511	-0.165	-0.130
-152.647	526.631	-0.097	0.226
-151.633	800.000	0.054	-0.190
-150.618	140.587	0.314	-0.413
-149.604	229.959	-0.199	0.323
-148.589	-200.000	0.026	-0.177
-147.574	-89.016	0.136	0.040
-146.560	72.037	0.114	-0.118
-145.545	-27.301	0.220	-0.128
-144.531	-141.011	-0.596	-0.061
-143.516	190.744	-0.129	0.193
-142.502	143.192	-0.189	0.251
-141.487	-43.264	0.267	-0.134
-140.472	64.294	0.262	-0.263
-139.458	60.609	0.234	-0.231
-138.443	9.999	0.166	-0.125
-137.429	65.261	0.112	-0.113
-136.414	-151.668	0.372	0.027
-135.399	-200.000	0.093	0.512
-134.385	131.024	0.059	-0.075
-133.370	-108.654	0.187	0.040
-132.356	83.753	-0.074	0.080
-131.341	-156.269	0.286	-0.018
-130.326	800.000	-0.133	-0.371
-129.312	-200.000	0.066	-0.400
-128.297	-44.985	0.253	0.126
-127.283	7.735	-0.338	0.251
-126.268	101.524	-0.152	0.176
-125.253	-16.347	0.146	0.092
-124.239	-50.837	0.310	-0.145
-123.224	800.000	-0.026	0.105
-122.210	83.685	0.106	0.115
-121.195	270.923	-0.061	-0.107
-120.180	800.000	-0.046	0.139
-119.166	8.929	0.256	-0.192
-118.151	800.000	0.038	0.128
-117.137	-19.912	-0.184	0.113
-116.122	800.000	0.035	0.113
-115.107	-44.449	0.061	-0.030
-114.093	-72.978	0.287	-0.105
-113.078	46.412	0.065	0.060
-112.064	-70.106	0.188	0.071
-111.049	-141.372	0.123	0.012
-110.034	-22.708	-0.072	-0.043
-109.020	119.718	-0.201	-0.247
-108.005	800.000	0.053	0.201
-106.991	495.975	-0.056	0.129
-105.976	-73.697	0.109	-0.039
-104.962	25.075	0.027	-0.023
-103.947	174.850	0.206	-0.296
-102.932	127.092	-0.262	-0.330
-101.918	-33.724	0.375	-0.205
-100.903	-200.000	-0.032	-0.221
-99.889	-12.037	-0.276	-0.180
-98.874	-36.879	0.338	-0.180
-97.859	97.558	-0.081	0.093
-96.845	-103.024	-0.125	0.029
-95.830	49.517	-0.168	0.157
-94.816	-200.000	0.017	-0.388
-93.801	-77.549	0.165	0.057
-92.786	-78.099	0.286	0.098
-91.772	-200.000	-0.041	-0.237
-90.757	800.000	0.077	0.243
-89.743	-128.428	-0.296	0.042
-88.728	147.409	-0.138	-0.184
-87.713	455.653	-0.089	-0.197
-86.699	-185.796	0.293	-0.004
-85.684	561.000	-0.070	0.167
-84.670	80.119	-0.165	0.176
-83.655	800.000	0.103	-0.329
-82.640	-24.653	-0.346	0.204
-81.626	190.708	0.072	-0.108
-80.611	717.076	0.052	0.137
-79.597	205.378	0.100	-0.154
-78.582	-200.000	0.014	0.356
-77.567	204.479	-0.016	0.024
-76.553	-72.984	-0.093	-0.034
-75.538	-94.690	0.306	-0.083
-74.524	50.080	-0.028	-0.026
-73.509	-144.767	-0.207	0.019
-72.494	-58.634	0.077	-0.033
-71.480	17.556	-0.178	-0.140
-70.465	-170.478	0.174	0.006
-69.451	-200.000	-0.005	-0.101
-68.436	131.647	-0.100	0.127
-67.422	-40.837	-0.155	-0.080
-66.407	365.492	0.111	0.221
-65.392	-30.199	-0.201	-0.114
-64.378	-26.811	0.175	-0.102
-63.363	259.414	0.049	0.084
-62.349	800.000	0.052	0.172
-61.334	52.910	-0.824	-0.782
-60.319	1.779	0.312	0.223
-59.305	-200.000	0.062	-1.049
-58.290	71.157	0.770	0.792
-57.276	343.810	0.729	1.417
-56.261	-200.000	94.445	560.678
-55.246	632.698	1383.368	3476.125
-54.232	185.764	2603.206	3836.673
-53.217	122.693	2196.993	2725.432
-52.203	47.094	1646.733	1519.474
-51.188	38.779	1380.053	1221.827
-50.173	35.360	1337.881	1163.747
-49.159	55.963	1385.946	1333.212
-48.144	60.425	1403.841	1377.882
-47.130	39.087	1358.767	1204.677
-46.115	35.404	1340.704	1166.280
-45.100	35.082	1336.434	1160.568
-44.086	35.100	1333.821	1158.365
-43.071	35.058	1331.316	1155.888
-42.057	35.014	1329.141	1153.686
-41.042	35.022	1327.435	1152.212
-40.027	35.077	1325.890	1151.153
-39.013	35.168	1323.819	1149.855
-37.998	35.181	1321.931	1148.248
-36.984	35.174	1320.610	1147.017
-35.969	35.256	1318.499	1145.627
-34.954	35.293	1316.760	1144.293
-33.940	35.235	1315.363	1142.685
-32.925	35.358	1313.867	1142.073
-31.911	35.394	1312.393	1140.960
-30.896	35.238	1311.477	1139.188
-29.881	35.362	1309.616	1138.263
-28.867	35.437	1308.027	1137.282
-27.852	35.372	1306.870	1135.848
-26.838	35.328	1305.428	1134.289
-25.823	35.299	1303.967	1132.804
-24.809	35.333	1302.635	1131.804
-23.794	35.312	1301.271	1130.447
-22.779	35.490	1299.619	1130.016
-21.765	35.336	1298.373	1127.979
-20.750	35.283	1297.268	1126.665
-19.736	35.230	1295.746	1124.987
-18.721	35.158	1294.921	1123.807
-17.706	35.242	1293.324	1122.868
-16.692	35.224	1292.062	1121.624
-15.677	35.156	1290.967	1120.230
-14.663	35.240	1289.964	1119.804
-13.648	35.167	1288.754	1118.286
-12.633	35.169	1287.809	1117.432
-11.619	35.247	1287.140	1117.261
-10.604	35.228	1286.038	1116.151
-9.590	35.245	1285.112	1115.403
-8.575	35.193	1284.254	1114.310
-7.560	35.107	1283.613	1113.209
-6.546	35.132	1282.550	1112.388
-5.531	35.157	1281.364	1111.458
-4.517	35.189	1280.522	1110.870
-3.502	35.183	1279.966	1110.308
-2.487	35.044	1279.289	1108.871
-1.473	35.080	1274.847	1105.189
-0.458	33.654	1259.510	1083.706
0.556	31.507	1239.068	1038.518
1.571	26.794	1242.842	1015.267
2.586	25.264	1257.041	1018.104
3.600	23.435	1244.998	997.974
4.615	17.764	1171.390	908.761
5.629	9.130	1094.503	805.874
6.644	4.890	1073.445	769.398
7.659	4.635	1070.422	765.905
8.673	4.422	1069.018	763.784
9.688	4.474	1067.703	763.035
10.702	5.112	1066.772	765.433
11.717	10.751	1074.648	798.814
12.731	19.015	1086.222	848.261
13.746	22.199	1089.874	866.763
14.761	21.847	1089.278	864.481
15.775	20.876	1087.482	858.199
16.790	19.905	1085.337	851.652
17.804	19.202	1083.654	846.801
18.819	18.977	1082.504	844.723
19.834	18.934	1081.539	843.684
20.848	18.637	1081.146	841.849
21.863	18.522	1080.287	840.538
22.877	18.446	1079.249	839.286
23.892	18.307	1078.809	838.190
24.907	18.278	1077.977	837.327
25.921	18.251	1077.173	836.496
26.936	18.405	1075.456	835.839
27.950	18.355	1074.507	834.784
28.965	18.572	1072.717	834.375
29.980	18.624	1071.021	833.235
30.994	18.761	1069.962	833.003
32.009	18.752	1069.416	832.458
33.023	18.658	1068.757	831.419
34.038	18.598	1067.227	829.866
35.053	18.409	1066.257	828.122
36.067	18.433	1065.868	827.864
37.082	18.530	1064.787	827.417
38.096	18.571	1064.621	827.414
39.111	18.624	1063.586	826.794
40.126	18.481	1061.887	824.710
41.140	18.220	1060.501	822.305
42.155	18.049	1059.356	820.527
43.169	18.085	1058.507	819.967
44.184	17.989	1057.004	818.269
45.199	18.012	1056.174	817.668
46.213	18.155	1055.350	817.642
47.228	18.428	1054.547	818.249
48.242	18.495	1053.781	817.902
49.257	18.419	1052.858	816.752
50.271	18.477	1051.844	816.166
51.286	18.668	1050.708	816.124
52.301	18.385	1050.350	814.428
53.315	18.420	1048.551	813.126
54.330	18.195	1047.811	811.416
55.344	18.245	1046.621	810.658
56.359	18.258	1045.918	810.103
57.374	18.214	1045.198	809.266
58.388	18.032	1044.131	807.509
59.403	17.979	1043.266	806.516
60.417	17.988	1042.350	805.779
61.432	17.994	1041.717	805.249
62.447	17.864	1040.841	803.884
63.461	17.950	1039.807	803.421
64.476	17.775	1039.118	801.995
65.490	17.833	1038.132	801.435
66.505	17.833	1037.505	800.878
67.520	17.937	1036.822	800.772
68.534	17.929	1035.954	799.994
69.549	17.985	1035.035	799.472
70.563	17.744	1034.665	797.989
71.578	17.767	1033.372	797.028
72.593	17.719	1032.587	796.127
73.607	17.861	1031.362	795.777
74.622	17.742	1031.580	795.320
75.636	17.774	1030.585	794.629
76.651	17.625	1030.098	793.490
77.666	17.816	1029.172	793.596
78.680	17.780	1028.736	793.020
79.695	17.809	1028.371	792.807
80.709	17.989	1027.652	793.018
81.724	18.089	1027.090	792.976
82.739	18.244	1026.315	793.026
83.753	18.380	1025.544	792.991
84.768	18.688	1025.007	793.928
85.782	18.781	1023.990	793.503
86.797	18.740	1022.920	792.413
87.812	18.388	1022.339	790.269
88.826	18.505	1021.184	789.848
89.841	18.661	1020.365	789.861
90.855	18.753	1019.373	789.446
91.870	18.784	1018.272	788.667
92.884	18.690	1017.619	787.660
93.899	18.549	1017.277	786.679
94.914	18.771	1016.067	786.689
95.928	18.767	1015.279	785.990
96.943	18.595	1014.601	784.611
97.957	18.628	1013.658	783.961
98.972	18.484	1012.545	782.373
99.987	18.512	1012.024	782.032
101.001	18.644	1010.781	781.603
102.016	18.534	1009.837	780.301
103.030	18.578	1009.522	780.190
104.045	18.553	1008.717	779.387
105.060	18.434	1007.631	777.938
106.074	18.227	1005.906	775.598
107.089	17.950	1005.073	773.633
108.103	17.978	1004.265	773.068
109.118	17.994	1003.148	772.214
110.133	17.928	1001.933	770.911
111.147	17.981	1001.017	770.377
112.162	18.121	1000.052	770.197
113.176	18.060	1000.176	769.951
114.191	18.098	999.318	769.394
115.206	18.141	998.467	768.862
116.220	18.124	997.646	768.087
117.235	18.146	996.399	767.155
118.249	17.983	995.765	765.872
119.264	17.883	995.075	764.822
120.279	17.846	994.418	764.087
121.293	17.883	992.910	763.025
122.308	17.820	991.968	761.953
123.322	17.781	991.124	761.063
124.337	17.845	989.806	760.268
125.352	17.833	989.013	759.539
126.366	17.902	987.816	758.860
127.381	17.830	987.169	757.976
128.395	17.812	986.341	757.193
129.410	17.834	985.701	756.732
130.424	17.909	984.936	756.408
131.439	18.026	984.386	756.436
132.454	18.160	983.439	756.236
133.468	18.120	982.843	755.531
134.483	18.232	981.561	754.977
135.497	18.242	980.794	754.361
136.512	18.082	980.357	753.253
137.527	18.214	979.364	753.005
138.541	18.205	978.454	752.202
139.556	18.303	978.485	752.587
140.570	18.401	977.497	752.193
141.585	18.593	976.329	752.068
142.600	18.672	975.452	751.672
143.614	18.688	975.266	751.533
144.629	18.629	974.482	750.603
145.643	18.691	973.310	749.906
146.658	18.568	971.831	748.165
147.673	18.373	970.785	746.442
148.687	18.312	969.749	745.312
149.702	18.227	968.958	744.271
150.716	18.124	968.278	743.233
151.731	18.273	967.307	743.070
152.746	18.257	966.885	742.611
153.760	18.318	966.079	742.190
154.775	18.452	965.559	742.308
155.789	18.472	964.948	741.859
156.804	18.560	964.052	741.482
157.819	18.394	963.882	740.569
158.833	18.702	963.003	741.157
159.848	18.835	962.131	740.995
160.862	18.618	961.429	739.456
161.877	18.318	959.699	736.769
162.892	18.316	958.761	735.972
163.906	18.296	957.677	734.990
164.921	18.339	957.022	734.606
165.935	18.435	956.161	734.292
166.950	18.520	955.002	733.701
167.964	18.328	953.748	731.855
168.979	18.264	953.197	731.090
169.994	18.377	952.227	730.766
171.008	18.488	951.721	730.787
172.023	18.741	950.832	731.118
173.037	18.845	950.072	730.909
174.052	18.625	949.693	729.617
175.067	18.290	949.020	727.611
176.081	18.254	948.243	726.800
177.096	18.062	948.254	725.927
178.110	18.396	947.082	726.381
179.125	18.402	946.570	725.952
180.140	18.363	946.390	725.585
181.154	18.622	945.854	726.204
182.169	18.655	945.321	725.871
183.183	18.815	944.513	725.862
184.198	18.764	943.970	725.168
185.213	18.639	943.162	723.953
186.227	18.891	942.400	724.366
187.242	18.840	941.852	723.667
188.256	18.992	941.478	723.953
189.271	18.949	940.599	723.035
190.286	18.615	939.819	720.967
191.300	18.154	938.947	718.298
192.315	17.955	938.334	716.930
193.329	18.261	937.671	717.645
194.344	18.242	937.381	717.281
195.359	18.600	936.180	717.793
196.373	18.665	936.129	717.967
197.388	18.784	935.739	718.098
198.402	18.931	935.570	718.519
199.417	18.957	934.889	718.044
200.432	19.144	934.544	718.495
201.446	19.198	934.063	718.287
202.461	19.307	933.138	717.965
203.475	19.187	932.458	716.879
204.490	18.959	931.676	715.266
205.504	18.919	930.653	714.253
206.519	18.882	930.081	713.594
207.534	18.700	929.347	712.214
208.548	18.888	928.746	712.472
209.563	18.888	928.312	712.074
210.577	18.844	927.613	711.293
211.592	19.172	926.790	711.957
212.607	19.252	926.187	711.759
213.621	19.116	925.672	710.739
214.636	19.131	924.434	709.786
215.650	19.023	924.168	709.074
216.665	19.160	923.483	709.052
217.680	19.340	923.096	709.431
218.694	19.198	922.255	708.140
219.709	19.271	921.643	707.908
220.723	19.215	920.810	706.976
221.738	19.133	920.140	706.063
222.753	19.283	919.489	706.114
223.767	19.334	918.782	705.716
224.782	19.360	918.728	705.719
225.796	19.545	918.159	705.977
226.811	19.291	917.161	704.108
227.826	19.286	916.066	703.184
228.840	19.063	915.446	701.740
229.855	19.186	914.721	701.621
230.869	19.230	914.352	701.456
231.884	19.017	913.952	700.220
232.899	18.897	913.091	699.012
233.913	18.915	912.321	698.432
234.928	19.010	911.191	697.892
235.942	19.011	910.598	697.378
236.957	19.005	910.054	696.877
237.972	19.010	909.318	696.271
238.986	18.968	908.843	695.678
240.001	18.921	908.421	695.102
241.015	19.143	907.692	695.378
242.030	19.109	906.848	694.532
243.045	19.193	906.736	694.723
244.059	19.292	905.910	694.429
245.074	19.244	905.370	693.760
246.088	19.297	905.167	693.759
247.103	19.529	904.317	693.976
248.117	19.646	903.851	694.030
249.132	19.767	903.966	694.541
250.147	20.034	902.927	694.754
251.161	20.060	902.448	694.425
252.176	20.075	902.048	694.118
253.190	20.211	901.152	693.912
254.205	20.035	900.686	692.787
255.220	20.065	900.059	692.364
256.234	19.961	899.276	691.285
257.249	19.988	898.608	690.817
258.263	19.928	897.907	689.978
259.278	20.000	897.110	689.593
260.293	20.132	896.757	689.786
261.307	20.256	895.765	689.455
262.322	20.287	895.434	689.263
263.336	20.229	894.828	688.504
264.351	20.229	894.298	688.033
265.366	20.216	893.714	687.474
266.380	20.248	892.745	686.794
267.395	20.114	891.968	685.602
268.409	19.988	891.087	684.368
269.424	20.181	889.805	684.085
270.439	19.922	889.574	682.825
271.453	19.854	888.930	682.004
272.468	19.831	888.486	681.511
273.482	19.982	887.498	681.289
274.497	20.101	886.839	681.189
275.512	19.960	886.984	680.687
276.526	20.035	886.536	680.576
277.541	20.119	885.550	680.087
278.555	20.243	885.089	680.162
279.570	20.437	884.558	680.452
280.585	20.324	883.500	679.134
281.599	20.222	882.631	678.011
282.614	20.155	881.935	677.152
283.628	20.107	881.967	676.930
284.643	20.131	880.902	676.148
285.657	20.071	880.566	675.596
286.672	20.076	879.933	675.069
287.687	20.225	879.103	674.954
288.701	20.144	878.568	674.167
289.716	20.222	878.076	674.034
290.730	20.220	877.619	673.614
291.745	20.231	876.835	672.997
292.760	20.319	876.428	672.965
293.774	20.546	875.862	673.349
294.789	20.475	875.053	672.393
295.803	20.268	874.402	671.035
296.818	20.093	873.987	669.982
297.833	20.186	873.277	669.737
298.847	20.330	872.177	669.388
299.862	20.267	872.172	669.080
300.876	20.335	871.839	669.031
301.891	20.365	871.237	668.625
302.906	20.593	870.828	669.127
303.920	20.758	870.381	669.361
304.935	20.712	869.821	668.693
305.949	20.737	868.895	668.018
306.964	20.693	868.034	667.130
307.979	20.534	867.740	666.235
308.993	20.616	867.156	666.042
310.008	20.583	866.890	665.649
311.022	20.645	866.104	665.227
312.037	20.621	865.090	664.297
313.052	20.361	864.842	663.056
314.066	20.342	863.881	662.187
315.081	20.302	863.507	661.688
316.095	20.366	862.364	660.997
317.110	20.348	862.323	660.840
318.125	20.278	861.480	659.867
319.139	20.350	861.071	659.769
320.154	20.350	860.670	659.405
321.168	20.361	860.076	658.932
322.183	20.376	859.580	658.552
323.197	20.449	858.909	658.257
324.212	20.654	858.466	658.635
325.227	20.589	857.694	657.738
326.241	20.357	857.264	656.472
327.256	20.379	856.682	656.053
328.270	20.453	855.807	655.602
329.285	20.363	855.613	655.059
330.300	20.403	854.489	654.290
331.314	20.572	854.295	654.718
332.329	20.671	853.752	654.618
333.343	20.704	853.157	654.228
334.358	20.596	853.507	654.032
335.373	20.772	852.677	654.002
336.387	20.800	852.431	653.860
337.402	20.775	852.555	653.801
338.416	21.065	852.221	654.578
339.431	21.131	851.935	654.548
340.446	21.219	851.273	654.309
341.460	21.069	851.302	653.711
342.475	21.296	850.590	653.956
343.489	21.349	850.176	653.778
344.504	21.205	850.415	653.364
345.519	21.320	849.366	652.933
346.533	21.259	848.545	652.014
347.548	21.154	847.667	650.892
348.562	20.967	847.231	649.802
349.577	20.923	846.860	649.298
350.592	20.702	846.187	647.899
351.606	20.795	845.243	647.466
352.621	20.777	844.668	646.901
353.635	20.837	844.059	646.602
354.650	21.044	843.371	646.785
355.665	20.963	842.965	646.116
356.679	21.029	842.258	645.759
357.694	21.113	841.673	645.565
358.708	21.150	841.046	645.163
359.723	20.973	840.660	644.157
360.738	21.023	839.348	643.280
361.752	21.248	838.959	643.755
362.767	21.344	838.703	643.854
363.781	21.433	838.534	643.995
364.796	21.442	838.120	643.654
365.810	21.745	837.627	644.332
366.825	21.724	837.215	643.880
367.840	21.516	836.899	642.816
368.854	21.503	836.289	642.244
369.869	21.462	835.255	641.243
370.883	21.366	835.628	641.119
371.898	21.576	835.115	641.439
372.913	21.686	834.660	641.436
373.927	21.437	834.030	639.982
374.942	21.579	833.524	640.056
375.956	21.753	833.093	640.305
376.971	21.622	833.031	639.723
377.986	21.880	832.476	640.181
379.000	21.948	831.602	639.700
380.015	21.762	831.401	638.813
381.029	21.894	830.540	638.576
382.044	21.814	830.062	637.859
383.059	21.872	829.081	637.261
384.073	21.763	828.686	636.503
385.088	21.513	828.140	635.123
386.102	21.485	827.386	634.386
387.117	21.374	826.749	633.439
388.132	21.506	826.355	633.560
389.146	21.617	825.924	633.572
390.161	21.846	825.485	634.009
391.175	21.662	825.293	633.140
392.190	21.807	824.128	632.713
393.205	21.591	823.937	631.732
394.219	21.547	823.368	631.081
395.234	21.416	823.109	630.355
396.248	21.383	822.575	629.770
397.263	21.277	822.205	629.050
398.278	21.445	821.514	629.069
399.292	21.366	821.361	628.613
400.307	21.193	820.638	627.383
401.321	21.416	820.178	627.775
402.336	21.490	819.701	627.619
403.350	21.612	819.584	627.913
404.365	21.521	819.205	627.242
405.380	21.835	818.720	627.939
406.394	21.976	818.085	627.900
407.409	21.945	817.616	627.375
408.423	22.187	817.218	627.877
409.438	22.103	817.100	627.431
410.453	22.169	816.849	627.420
411.467	22.157	816.468	627.029
412.482	22.278	815.963	627.015
413.496	22.413	815.357	626.975
414.511	22.241	815.080	626.095
415.526	22.247	814.330	625.486
416.540	22.230	813.925	625.058
417.555	22.185	813.491	624.510
418.569	22.254	812.894	624.241
419.584	22.223	812.907	624.085
420.599	22.157	812.187	623.242
421.613	158.947	1369.695	1789.005
422.628	138.360	1450.918	1789.124
