DTS Sentinel unit serial number:	SN413079Multiplexer serial number:	ORYXHardware model number:	OX4-SRSoftware version number:	ORYX F/W v4.00 Oryx Data Collector v3.7.2.0data status	okinstallation	princeton_trtdifferential loss correction	single-endedforward channel	channel 1reverse channel	N/Adate	2019/09/12time	13:16:11forward acquisition time	60.00reverse acquisition time	0.00gamma	496.2192k internal	0.2291k external	0.2291temperature offset calibration	1.0045default loss term (dB/km)	0.3790temperature slope calibration	1.0000multiplexer offset coefficient	1.0000multiplexer slope coefficient	1.0000fibre end	0.00T internal ref (°C)	41.00T ext. ref 1 (°C)	2.04T ext. ref 2 (°C)	35.64length (m)	temperature (°C)	Stokes	anti-Stokes-747.200	-111.088	0.232	-0.049
-746.185	-122.913	0.153	-0.025
-745.171	96.532	0.136	-0.159
-744.156	-70.782	-0.289	-0.112
-743.142	209.808	-0.229	0.368
-742.127	-123.409	0.266	0.043
-741.112	-85.667	-0.394	0.125
-740.098	800.000	-0.105	0.323
-739.083	143.154	-0.123	0.167
-738.069	-200.000	-0.015	0.166
-737.054	-40.401	-0.216	-0.115
-736.039	-142.831	-0.103	0.010
-735.025	234.139	-0.058	-0.098
-734.010	746.953	0.103	-0.284
-732.996	568.396	-0.069	-0.172
-731.981	635.939	0.051	0.132
-730.966	800.000	0.041	0.166
-729.952	-200.000	-0.007	-0.103
-728.937	-144.755	-0.185	-0.017
-727.923	166.283	-0.095	0.138
-726.908	-200.000	0.033	0.397
-725.894	206.201	-0.106	0.168
-724.879	800.000	0.036	-0.120
-723.864	800.000	-0.051	-0.149
-722.850	800.000	-0.112	-0.413
-721.835	-200.000	-0.020	-0.216
-720.821	-99.149	-0.364	-0.094
-719.806	-200.000	0.002	-0.094
-718.791	-117.159	0.374	0.070
-717.777	-200.000	-0.141	0.001
-716.762	-200.000	-0.014	-0.093
-715.748	14.640	0.130	-0.104
-714.733	265.354	0.031	-0.055
-713.718	37.765	-0.112	0.102
-712.704	-95.398	-0.227	-0.063
-711.689	411.660	-0.087	-0.189
-710.675	-64.848	0.018	0.007
-709.660	-175.450	0.241	-0.007
-708.645	-200.000	0.033	-0.207
-707.631	93.198	0.104	-0.121
-706.616	-35.777	0.281	0.156
-705.602	372.379	-0.209	-0.434
-704.587	-79.980	-0.204	-0.070
-703.572	18.795	0.209	-0.171
-702.558	-167.328	0.442	0.018
-701.543	26.377	-0.220	0.188
-700.529	800.000	0.053	-0.225
-699.514	-92.747	-0.093	0.026
-698.499	-163.505	-0.087	0.004
-697.485	110.853	-0.277	-0.341
-696.470	-116.954	-0.086	0.016
-695.456	-73.375	-0.214	-0.080
-694.441	24.475	-0.089	-0.075
-693.426	-17.409	-0.253	0.163
-692.412	-200.000	0.003	0.169
-691.397	142.892	0.174	-0.237
-690.383	9.770	0.037	-0.028
-689.368	800.000	0.024	0.088
-688.354	-156.956	0.447	0.028
-687.339	80.435	-0.152	0.168
-686.324	800.000	0.020	0.074
-685.310	16.134	0.207	0.166
-684.295	78.801	0.196	-0.214
-683.281	-200.000	-0.011	-0.076
-682.266	-200.000	0.014	-0.171
-681.251	57.752	-0.083	0.083
-680.237	21.840	0.156	0.130
-679.222	14.754	-0.153	0.122
-678.208	800.000	0.044	0.141
-677.193	-200.000	0.024	0.189
-676.178	-113.531	0.202	0.040
-675.164	-57.187	0.087	0.039
-674.149	55.011	-0.076	0.075
-673.135	44.219	-0.090	-0.084
-672.120	62.014	0.190	0.193
-671.105	407.039	-0.061	0.131
-670.091	-200.000	0.030	-0.143
-669.076	369.482	0.034	-0.071
-668.062	269.678	-0.055	-0.098
-667.047	-118.656	-0.420	0.076
-666.032	-21.831	0.421	0.261
-665.018	-200.000	0.008	0.157
-664.003	93.406	-0.079	-0.091
-662.989	-200.000	0.014	-0.064
-661.974	-200.000	0.003	0.210
-660.959	-200.000	0.076	-0.407
-659.945	-90.917	-0.222	-0.065
-658.930	251.429	0.072	0.125
-657.916	263.106	0.106	0.188
-656.901	71.488	0.140	0.148
-655.886	-200.000	-0.202	-0.000
-654.872	687.231	-0.075	-0.199
-653.857	-199.223	-0.229	0.001
-652.843	-200.000	0.009	-0.080
-651.828	547.980	-0.175	-0.426
-650.814	-45.394	0.084	0.042
-649.799	-200.000	-0.046	-0.221
-648.784	-200.000	-0.013	-0.191
-647.770	-20.394	-0.080	-0.050
-646.755	800.000	0.091	-0.289
-645.741	33.092	-0.396	0.350
-644.726	-145.969	0.352	0.032
-643.711	-76.877	-0.169	0.060
-642.697	800.000	-0.023	0.081
-641.682	235.492	0.107	0.181
-640.668	365.579	0.131	-0.269
-639.653	-180.307	-0.115	-0.002
-638.638	-36.375	0.211	0.116
-637.624	-200.000	-0.017	-0.190
-636.609	-68.888	-0.151	-0.059
-635.595	208.182	0.191	0.304
-634.580	-132.092	0.275	-0.036
-633.565	-49.873	-0.080	-0.039
-632.551	-160.738	-0.286	-0.015
-631.536	-75.962	-0.221	0.080
-630.522	-200.000	0.023	0.163
-629.507	421.861	-0.022	0.047
-628.492	58.962	-0.088	0.088
-627.478	800.000	0.027	-0.104
-626.463	489.210	0.097	0.226
-625.449	-21.171	0.337	0.210
-624.434	-121.363	0.329	-0.056
-623.419	70.720	-0.095	-0.100
-622.405	-200.000	0.087	-0.468
-621.390	-72.280	0.073	0.028
-620.376	-47.548	-0.171	-0.085
-619.361	-200.000	-0.015	-0.131
-618.346	-111.647	-0.703	-0.145
-617.332	-200.000	0.015	0.296
-616.317	72.658	0.125	0.133
-615.303	-11.180	0.239	-0.161
-614.288	456.154	0.163	-0.368
-613.273	452.812	-0.024	0.054
-612.259	-182.456	0.421	-0.008
-611.244	-200.000	-0.040	0.342
-610.230	27.152	0.106	0.090
-609.215	-174.106	-0.226	-0.007
-608.201	86.032	-0.123	-0.138
-607.186	-128.991	-0.372	0.053
-606.171	-112.284	0.115	-0.023
-605.157	121.961	-0.210	-0.267
-604.142	287.304	0.126	0.231
-603.128	-86.896	-0.196	-0.061
-602.113	-200.000	0.009	-0.259
-601.098	-78.387	0.221	0.077
-600.084	342.182	-0.045	0.090
-599.069	-111.858	0.462	0.095
-598.055	-15.896	0.210	0.136
-597.040	-200.000	0.041	0.190
-596.025	-200.000	-0.055	-0.334
-595.011	309.945	-0.109	-0.207
-593.996	-83.384	0.178	-0.058
-592.982	184.082	-0.216	0.326
-591.967	-200.000	-0.018	-0.082
-590.952	137.036	-0.052	-0.070
-589.938	-200.000	-0.047	0.307
-588.923	105.699	-0.093	-0.112
-587.909	800.000	-0.064	0.211
-586.894	123.842	0.215	-0.275
-585.879	-115.783	0.201	0.038
-584.865	-97.612	-0.406	0.107
-583.850	-200.000	-0.028	0.000
-582.836	206.693	-0.109	-0.173
-581.821	59.593	-0.245	-0.246
-580.806	-74.529	0.163	-0.060
-579.792	64.706	0.103	0.106
-578.777	-55.007	-0.187	-0.086
-577.763	-32.936	0.043	0.024
-576.748	-128.505	-0.338	0.049
-575.733	800.000	-0.047	0.151
-574.719	63.695	0.433	-0.442
-573.704	498.592	-0.160	-0.375
-572.690	7.759	0.219	-0.167
-571.675	17.985	-0.302	0.245
-570.661	-200.000	-0.055	-0.362
-569.646	-200.000	-0.061	0.368
-568.631	-200.000	0.038	0.269
-567.617	65.927	-0.126	-0.130
-566.602	-50.261	-0.125	-0.060
-565.588	332.371	0.142	-0.279
-564.573	544.197	-0.061	-0.147
-563.558	-84.246	0.168	-0.054
-562.544	-200.000	0.016	0.167
-561.529	800.000	0.040	-0.123
-560.515	103.578	0.118	-0.141
-559.500	-85.024	-0.366	0.117
-558.485	231.501	0.066	-0.109
-557.471	800.000	0.024	0.076
-556.456	-200.000	-0.039	-0.184
-555.442	-121.952	0.224	0.037
-554.427	800.000	0.090	-0.352
-553.412	244.700	-0.082	-0.140
-552.398	-200.000	-0.021	-0.208
-551.383	415.108	0.172	0.372
-550.369	-200.000	-0.019	0.149
-549.354	-96.740	-0.212	-0.057
-548.339	-13.525	-0.086	-0.056
-547.325	-77.168	-0.291	-0.103
-546.310	-49.329	-0.276	-0.134
-545.296	-61.893	-0.286	0.121
-544.281	-52.382	-0.279	-0.131
-543.266	-90.691	-0.091	0.027
-542.252	800.000	0.017	0.048
-541.237	125.198	-0.143	0.183
-540.223	-134.188	-0.183	0.023
-539.208	75.246	0.113	0.121
-538.193	-116.805	0.196	-0.037
-537.179	334.118	0.110	0.217
-536.164	476.204	0.110	0.253
-535.150	800.000	0.084	0.277
-534.135	96.706	-0.270	-0.315
-533.121	131.266	0.117	0.153
-532.106	756.375	-0.054	-0.148
-531.091	800.000	-0.035	0.121
-530.077	573.462	0.214	-0.530
-529.062	-132.982	-0.347	0.045
-528.048	674.987	0.085	-0.224
-527.033	-38.969	-0.269	0.144
-526.018	145.073	0.081	-0.110
-525.004	301.804	-0.042	-0.079
-523.989	-144.100	0.172	-0.016
-522.975	-23.638	-0.081	0.049
-521.960	-200.000	-0.057	-0.289
-520.945	800.000	0.039	-0.158
-519.931	181.373	-0.064	-0.096
-518.916	-200.000	-0.043	0.247
-517.902	269.873	-0.097	0.173
-516.887	33.880	-0.125	0.110
-515.872	-154.011	0.285	0.020
-514.858	-130.733	-0.353	0.048
-513.843	-48.377	0.256	0.125
-512.829	105.759	-0.096	-0.115
-511.814	72.118	0.089	-0.094
-510.799	-100.916	0.128	0.032
-509.785	-35.100	0.069	-0.038
-508.770	-72.947	0.150	0.056
-507.756	-200.000	0.019	0.087
-506.741	-200.000	-0.022	0.124
-505.726	-200.000	-0.002	-0.160
-504.712	50.049	0.164	-0.157
-503.697	800.000	-0.062	-0.203
-502.683	-102.522	-0.057	-0.014
-501.668	800.000	-0.060	0.205
-500.653	86.121	0.113	0.126
-499.639	-200.000	0.012	0.104
-498.624	-200.000	-0.078	-0.000
-497.610	24.590	0.083	-0.069
-496.595	137.627	-0.137	-0.182
-495.581	-76.347	-0.151	0.054
-494.566	754.547	-0.051	-0.141
-493.551	-66.379	0.117	0.047
-492.537	-11.421	-0.291	-0.194
-491.522	105.537	0.076	0.091
-490.508	800.000	-0.051	0.175
-489.493	638.595	-0.020	0.052
-488.478	-88.638	0.207	0.062
-487.464	534.353	-0.061	0.147
-486.449	83.467	-0.247	0.273
-485.435	56.525	0.167	0.165
-484.420	204.270	-0.148	-0.232
-483.405	-128.447	-0.168	0.024
-482.391	-15.990	-0.227	-0.147
-481.376	-139.620	0.103	-0.011
-480.362	-138.099	0.209	-0.024
-479.347	514.000	0.084	0.198
-478.332	188.482	-0.073	-0.111
-477.318	-124.981	0.174	0.027
-476.303	599.649	-0.079	-0.199
-475.289	-29.759	-0.136	0.078
-474.274	-98.644	0.426	0.110
-473.259	-200.000	-0.432	-0.000
-472.245	-77.276	-0.121	-0.043
-471.230	-200.000	-0.019	-0.123
-470.216	75.426	-0.234	0.250
-469.201	753.927	0.159	0.435
-468.186	-144.945	-0.355	-0.033
-467.172	178.457	-0.146	-0.216
-466.157	-181.962	0.166	-0.003
-465.143	235.828	-0.102	-0.171
-464.128	737.066	-0.075	0.205
-463.113	302.363	0.060	0.113
-462.099	-75.754	-0.415	0.149
-461.084	-200.000	0.003	0.055
-460.070	-23.838	-0.099	0.060
-459.055	-151.209	-0.361	-0.027
-458.040	-92.831	0.306	0.087
-457.026	333.198	-0.088	0.172
-456.011	-200.000	-0.037	0.205
-454.997	315.495	0.037	0.070
-453.982	800.000	-0.181	0.615
-452.968	800.000	0.117	0.370
-451.953	-200.000	0.017	-0.324
-450.938	-41.240	-0.273	0.143
-449.924	-66.078	-0.273	-0.110
-448.909	-200.000	0.033	0.187
-447.895	-40.799	-0.038	-0.020
-446.880	-130.598	-0.120	0.016
-445.865	85.381	-0.082	-0.091
-444.851	-24.958	0.223	0.134
-443.836	234.295	0.100	0.167
-442.822	166.872	-0.266	-0.382
-441.807	152.207	-0.068	-0.095
-440.792	53.142	0.132	-0.128
-439.778	-57.765	0.317	-0.140
-438.763	-118.429	-0.227	-0.041
-437.749	-81.133	0.034	-0.011
-436.734	204.975	0.138	-0.217
-435.719	417.547	-0.138	0.298
-434.705	79.418	-0.162	0.175
-433.690	-141.658	0.048	0.005
-432.676	258.131	0.140	0.244
-431.661	-102.210	-0.224	-0.054
-430.646	-200.000	0.010	0.244
-429.632	22.372	-0.138	0.114
-428.617	-200.000	-0.015	-0.217
-427.603	111.467	-0.148	-0.181
-426.588	-159.841	-0.169	-0.009
-425.573	-4.291	0.177	0.124
-424.559	-200.000	0.006	-0.085
-423.544	-200.000	0.002	0.183
-422.530	-164.941	-0.305	0.014
-421.515	342.561	0.059	-0.117
-420.500	-136.263	-0.183	-0.022
-419.486	18.306	0.193	0.155
-418.471	-59.396	0.168	0.073
-417.457	504.174	-0.106	-0.249
-416.442	-200.000	-0.024	0.353
-415.428	534.057	-0.089	0.212
-414.413	21.185	0.109	0.090
-413.398	-200.000	-0.000	-0.077
-412.384	86.281	0.097	0.109
-411.369	800.000	0.052	0.144
-410.355	-54.554	-0.058	-0.026
-409.340	97.317	0.116	0.134
-408.325	15.376	-0.092	0.073
-407.311	346.379	0.115	0.228
-406.296	-138.277	0.287	0.032
-405.282	429.093	-0.108	-0.236
-404.267	34.977	0.188	0.166
-403.252	18.478	0.066	0.054
-402.238	-200.000	0.025	0.139
-401.223	-13.262	0.111	-0.073
-400.209	-96.605	0.174	-0.046
-399.194	61.350	0.093	-0.093
-398.179	742.196	0.055	0.150
-397.165	-11.225	-0.284	-0.189
-396.150	-181.015	0.339	-0.007
-395.136	22.396	-0.074	-0.061
-394.121	800.000	0.084	-0.271
-393.106	-65.890	0.047	-0.019
-392.092	24.114	-0.107	0.089
-391.077	111.122	-0.214	0.261
-390.063	435.419	-0.075	-0.164
-389.048	-200.000	-0.022	-0.147
-388.033	-120.669	0.213	-0.036
-387.019	8.580	-0.155	0.118
-386.004	-75.596	0.106	-0.038
-384.990	42.611	-0.076	0.070
-383.975	121.432	-0.136	-0.171
-382.960	-59.854	0.408	0.176
-381.946	99.867	-0.145	-0.170
-380.931	6.739	-0.421	0.316
-379.917	-200.000	0.007	0.114
-378.902	24.948	-0.244	-0.204
-377.888	-200.000	0.081	0.386
-376.873	-94.776	-0.187	0.051
-375.858	-41.271	0.115	-0.060
-374.844	623.370	0.110	-0.279
-373.829	339.592	0.143	0.281
-372.815	-200.000	0.015	0.355
-371.800	-46.647	0.217	-0.108
-370.785	53.405	0.275	0.266
-369.771	-62.735	-0.100	-0.042
-368.756	-149.443	0.195	-0.016
-367.742	-100.485	0.199	0.050
-366.727	21.379	0.109	-0.090
-365.712	-200.000	0.027	-0.138
-364.698	347.410	0.086	0.172
-363.683	-23.573	0.204	-0.123
-362.669	800.000	-0.096	-0.271
-361.654	-50.440	0.369	-0.176
-360.639	310.592	0.051	-0.096
-359.625	-200.000	-0.011	0.125
-358.610	-39.818	0.184	-0.097
-357.596	52.890	-0.150	-0.145
-356.581	138.245	0.130	0.171
-355.566	-28.768	-0.098	0.057
-354.552	800.000	-0.087	0.265
-353.537	-175.875	-0.140	0.004
-352.523	26.522	-0.219	-0.185
-351.508	68.729	-0.089	-0.092
-350.493	-200.000	-0.033	0.191
-349.479	182.131	-0.103	-0.153
-348.464	-122.374	0.478	-0.079
-347.450	-200.000	0.020	-0.138
-346.435	127.233	0.259	-0.332
-345.420	-74.924	0.271	-0.098
-344.406	-123.146	-0.377	0.061
-343.391	-34.364	-0.033	-0.018
-342.377	67.133	-0.185	0.190
-341.362	6.375	0.211	0.158
-340.348	654.846	-0.161	-0.415
-339.333	-95.141	-0.090	0.024
-338.318	43.623	-0.237	-0.218
-337.304	-89.861	-0.295	0.087
-336.289	800.000	0.052	-0.210
-335.275	-12.404	0.258	0.170
-334.260	15.639	0.044	-0.035
-333.245	-100.464	0.081	-0.020
-332.231	163.727	-0.155	-0.220
-331.216	-200.000	-0.013	0.181
-330.202	-68.225	-0.143	0.056
-329.187	39.341	0.098	-0.088
-328.172	67.730	0.452	0.466
-327.158	165.000	0.072	-0.103
-326.143	55.367	0.188	-0.183
-325.129	-55.981	0.280	0.126
-324.114	-200.000	-0.031	-0.232
-323.099	106.230	-0.100	-0.119
-322.085	110.099	-0.146	-0.176
-321.070	557.125	0.061	-0.149
-320.056	-43.902	-0.313	0.158
-319.041	179.975	0.140	0.206
-318.026	251.973	-0.081	-0.140
-317.012	113.697	0.256	-0.314
-315.997	-4.896	-0.195	-0.136
-314.983	135.253	0.172	-0.225
-313.968	44.808	0.132	0.122
-312.953	346.857	0.028	0.056
-311.939	-74.152	0.492	-0.179
-310.924	71.582	0.207	0.216
-309.910	615.963	-0.077	-0.195
-308.895	442.394	-0.034	-0.074
-307.880	-108.391	-0.130	-0.028
-306.866	800.000	0.042	-0.166
-305.851	218.699	0.032	0.051
-304.837	12.612	0.264	0.205
-303.822	-200.000	-0.062	0.354
-302.807	-0.363	0.294	0.210
-301.793	-57.261	0.103	-0.046
-300.778	-57.501	-0.190	-0.084
-299.764	-122.899	0.162	-0.026
-298.749	-68.230	-0.291	-0.114
-297.735	-63.411	0.237	-0.098
-296.720	800.000	0.039	0.164
-295.705	-28.810	0.394	0.228
-294.691	-200.000	-0.021	-0.137
-293.676	49.748	-0.220	0.209
-292.662	255.384	-0.149	0.257
-291.647	800.000	-0.070	0.200
-290.632	800.000	-0.080	0.324
-289.618	12.545	-0.266	-0.207
-288.603	-154.402	-0.351	-0.024
-287.589	122.102	-0.165	-0.207
-286.574	166.832	0.282	-0.402
-285.559	151.882	0.176	0.241
-284.545	-200.000	0.023	0.125
-283.530	-199.276	-0.149	0.001
-282.516	-200.000	0.042	-0.269
-281.501	639.628	0.091	-0.234
-280.486	729.385	0.045	0.121
-279.472	-200.000	-0.013	-0.280
-278.457	-40.338	-0.173	0.090
-277.443	-200.000	0.079	0.444
-276.428	85.087	0.089	0.098
-275.413	99.488	0.088	0.102
-274.399	-200.000	0.012	0.278
-273.384	106.604	0.125	0.149
-272.370	-200.000	0.024	0.105
-271.355	-200.000	-0.043	-0.207
-270.340	800.000	0.081	-0.274
-269.326	-14.611	0.244	-0.158
-268.311	-23.653	-0.277	0.167
-267.297	-66.895	0.125	0.050
-266.282	37.546	-0.165	0.147
-265.267	-200.000	0.016	0.122
-264.253	-200.000	-0.019	0.102
-263.238	-200.000	-0.053	0.256
-262.224	-50.902	-0.488	-0.230
-261.209	31.674	-0.093	0.080
-260.195	139.604	0.149	-0.197
-259.180	-122.462	0.189	-0.031
-258.165	85.744	-0.102	-0.112
-257.151	-200.000	-0.074	0.352
-256.136	133.303	-0.083	0.107
-255.122	-20.381	-0.087	-0.054
-254.107	-90.577	-0.227	-0.066
-253.092	251.673	0.134	-0.230
-252.078	-8.883	-0.175	-0.118
-251.063	-200.000	0.002	-0.135
-250.049	99.039	-0.156	0.181
-249.034	800.000	-0.023	-0.072
-248.019	361.656	0.050	-0.100
-247.005	36.637	0.097	-0.086
-245.990	-200.000	0.026	-0.503
-244.976	149.654	0.109	0.148
-243.961	12.316	-0.179	0.139
-242.946	-2.115	-0.137	-0.096
-241.932	594.994	0.094	0.233
-240.917	-57.087	0.446	0.197
-239.903	-43.302	-0.135	0.069
-238.888	-163.344	-0.193	-0.009
-237.873	-146.779	0.309	-0.027
-236.859	-61.670	0.301	-0.127
-235.844	7.916	-0.157	-0.118
-234.830	-106.083	0.070	-0.016
-233.815	25.614	-0.144	0.120
-232.800	-55.754	0.095	0.043
-231.786	800.000	0.069	-0.290
-230.771	-200.000	0.028	-0.142
-229.757	-200.000	0.004	-0.111
-228.742	67.956	0.180	0.185
-227.727	422.927	-0.098	-0.212
-226.713	-30.586	-0.310	-0.176
-225.698	-200.000	-0.028	-0.159
-224.684	458.846	0.042	-0.095
-223.669	-98.083	0.133	-0.034
-222.655	-28.614	-0.099	0.057
-221.640	-200.000	0.025	0.220
-220.625	-92.292	0.442	-0.125
-219.611	-4.062	-0.046	-0.032
-218.596	-200.000	-0.040	0.192
-217.582	81.661	-0.090	0.097
-216.567	-64.590	-0.160	0.065
-215.552	95.452	-0.091	0.105
-214.538	-80.035	-0.223	0.075
-213.523	35.641	0.262	0.231
-212.509	-200.000	0.000	-0.288
-211.494	-72.896	0.187	0.069
-210.479	-118.195	-0.156	0.028
-209.465	-18.992	-0.065	-0.041
-208.450	66.494	0.033	0.034
-207.436	-55.418	0.305	-0.137
-206.421	-194.382	0.157	-0.001
-205.406	-93.170	-0.313	-0.087
-204.392	2.327	-0.072	0.052
-203.377	-56.323	-0.082	-0.036
-202.363	410.180	0.192	0.408
-201.348	-136.112	-0.350	-0.041
-200.333	-200.000	0.004	-0.028
-199.319	-106.738	0.267	0.059
-198.304	-132.263	-0.204	0.026
-197.290	141.755	-0.007	0.009
-196.275	-200.000	-0.039	-0.185
-195.260	391.857	0.123	-0.257
-194.246	-113.129	0.173	-0.034
-193.231	-200.000	0.014	0.114
-192.217	-136.643	0.245	0.028
-191.202	-200.000	0.025	-0.111
-190.187	424.032	-0.118	-0.254
-189.173	85.266	-0.179	0.197
-188.158	73.973	0.068	-0.072
-187.144	-36.561	-0.111	-0.060
-186.129	347.943	0.062	0.122
-185.114	312.583	0.190	0.357
-184.100	-45.381	-0.344	-0.171
-183.085	800.000	0.091	0.313
-182.071	-80.744	-0.085	0.028
-181.056	541.106	-0.116	-0.277
-180.042	-31.148	-0.158	-0.089
-179.027	153.402	0.060	0.083
-178.012	800.000	0.077	0.247
-176.998	-96.656	0.242	0.064
-175.983	800.000	0.073	-0.305
-174.969	117.461	0.108	0.133
-173.954	-43.588	0.396	0.200
-172.939	-200.000	-0.004	0.204
-171.925	-7.912	0.347	-0.234
-170.910	-24.008	0.208	-0.125
-169.896	-34.772	-0.246	0.134
-168.881	800.000	-0.068	0.244
-167.866	35.348	0.273	-0.240
-166.852	-83.993	-0.140	-0.045
-165.837	-200.000	0.010	-0.092
-164.823	301.895	0.042	0.078
-163.808	-152.109	-0.226	0.016
-162.793	-100.782	-0.076	-0.019
-161.779	-200.000	0.067	-0.341
-160.764	416.396	-0.052	-0.111
-159.750	217.321	-0.180	-0.287
-158.735	173.474	0.167	0.241
-157.720	-190.230	0.142	-0.002
-156.706	149.639	-0.137	-0.186
-155.691	343.342	0.143	-0.280
-154.677	25.997	0.096	-0.080
-153.662	-200.000	0.003	0.251
-152.647	94.639	0.168	0.191
-151.633	-62.659	0.487	-0.202
-150.618	315.286	0.073	0.138
-149.604	-200.000	-0.254	-0.001
-148.589	-86.818	0.042	-0.013
-147.574	-200.000	-0.041	-0.273
-146.560	800.000	0.124	-0.349
-145.545	800.000	0.039	-0.144
-144.531	800.000	0.091	0.273
-143.516	-115.038	-0.070	-0.013
-142.502	110.093	-0.176	-0.211
-141.487	46.145	0.245	0.227
-140.472	-3.428	0.355	0.247
-139.458	-112.638	0.447	0.089
-138.443	38.290	0.164	-0.146
-137.429	442.645	-0.054	0.118
-136.414	147.595	0.077	0.104
-135.399	-200.000	-0.005	0.034
-134.385	177.658	0.127	0.184
-133.370	-60.171	-0.042	-0.018
-132.356	800.000	-0.056	-0.184
-131.341	-104.256	-0.148	0.034
-130.326	800.000	-0.022	-0.086
-129.312	202.417	0.139	0.215
-128.297	130.777	-0.118	0.151
-127.283	-114.063	0.064	0.012
-126.268	189.938	0.112	-0.167
-125.253	800.000	0.053	0.178
-124.239	377.014	0.105	0.215
-123.224	-115.767	0.041	0.008
-122.210	207.248	0.181	-0.282
-121.195	-200.000	-0.014	0.073
-120.180	-63.080	0.180	0.074
-119.166	-128.438	-0.187	0.026
-118.151	-200.000	0.016	0.124
-117.137	-200.000	0.331	0.001
-116.122	800.000	-0.062	-0.188
-115.107	58.182	0.080	-0.079
-114.093	61.814	-0.090	0.090
-113.078	800.000	0.109	0.308
-112.064	521.241	-0.139	0.326
-111.049	-200.000	0.001	0.077
-110.034	-59.211	0.092	0.039
-109.020	-56.168	0.062	-0.028
-108.005	154.629	0.023	-0.031
-106.991	116.216	-0.119	-0.145
-105.976	583.769	0.138	-0.338
-104.962	-81.172	-0.090	-0.030
-103.947	121.688	-0.108	-0.134
-102.932	-94.493	0.061	0.017
-101.918	-200.000	0.030	-0.149
-100.903	-200.000	-0.007	0.446
-99.889	-135.786	0.204	-0.024
-98.874	-23.198	-0.260	-0.156
-97.859	215.822	0.089	0.141
-96.845	-69.571	-0.089	-0.034
-95.830	-117.153	0.243	-0.044
-94.816	-17.725	-0.276	0.173
-93.801	85.750	-0.282	-0.309
-92.786	-88.454	0.193	-0.057
-91.772	-84.507	-0.091	-0.029
-90.757	117.263	-0.042	-0.052
-89.743	-158.527	-0.124	0.007
-88.728	-25.141	-0.271	0.160
-87.713	516.002	-0.092	0.214
-86.699	135.329	0.199	-0.258
-85.684	-166.801	-0.189	-0.008
-84.670	-121.417	0.104	-0.017
-83.655	2.319	0.022	0.016
-82.640	-12.096	0.204	-0.133
-81.626	153.242	0.227	0.310
-80.611	800.000	-0.050	0.195
-79.597	26.998	-0.058	0.048
-78.582	-3.990	0.346	0.239
-77.567	-137.521	0.070	0.008
-76.553	133.530	0.327	0.422
-75.538	20.134	0.217	-0.175
-74.524	-200.000	0.002	0.189
-73.509	-3.930	-0.047	0.033
-72.494	800.000	-0.033	0.105
-71.480	55.640	-0.008	-0.008
-70.465	-143.218	0.159	0.015
-69.451	800.000	-0.060	-0.247
-68.436	-155.802	0.384	-0.024
-67.422	-200.000	-0.047	0.217
-66.407	-144.959	-0.232	0.021
-65.392	12.376	0.036	-0.027
-64.378	800.000	-0.071	-0.256
-63.363	40.028	0.045	0.041
-62.349	143.438	-0.058	-0.077
-61.334	258.449	-0.432	-0.741
-60.319	31.706	0.503	0.431
-59.305	800.000	-0.119	-0.386
-58.290	800.000	0.225	0.722
-57.276	800.000	0.544	1.574
-56.261	-200.000	76.270	511.963
-55.246	520.606	1328.146	3104.053
-54.232	145.642	2559.663	3417.912
-53.217	117.850	2228.673	2735.465
-52.203	52.888	1672.568	1594.167
-51.188	44.722	1396.099	1279.586
-50.173	41.117	1349.943	1215.272
-49.159	59.460	1385.359	1360.572
-48.144	66.408	1403.456	1421.014
-47.130	45.268	1366.567	1255.673
-46.115	41.179	1350.032	1215.537
-45.100	40.920	1345.597	1209.919
-44.086	40.839	1343.001	1207.043
-43.071	40.810	1341.000	1205.024
-42.057	40.844	1338.210	1202.673
-41.042	40.824	1336.696	1201.146
-40.027	40.983	1335.531	1201.013
-39.013	40.940	1333.723	1199.075
-37.998	40.897	1331.638	1196.897
-36.984	40.981	1329.724	1195.635
-35.969	41.012	1328.285	1194.479
-34.954	41.039	1325.993	1192.534
-33.940	41.011	1324.918	1191.351
-32.925	41.145	1323.601	1190.919
-31.911	41.202	1322.442	1190.172
-30.896	41.163	1320.410	1188.063
-29.881	41.061	1319.551	1186.635
-28.867	41.071	1317.982	1185.238
-27.852	41.210	1316.544	1184.725
-26.838	41.203	1314.665	1182.945
-25.823	41.181	1313.321	1181.554
-24.809	41.030	1312.374	1179.763
-23.794	41.103	1310.997	1178.909
-22.779	41.044	1309.468	1177.138
-21.765	41.156	1307.990	1176.425
-20.750	41.167	1306.352	1174.970
-19.736	40.977	1305.460	1172.999
-18.721	41.016	1304.263	1172.106
-17.706	40.923	1303.199	1170.557
-16.692	40.937	1301.977	1169.499
-15.677	40.898	1300.895	1168.250
-14.663	40.874	1299.588	1166.888
-13.648	40.940	1298.521	1166.273
-12.633	40.857	1297.631	1164.940
-11.619	40.971	1296.834	1164.844
-10.604	40.865	1296.018	1163.445
-9.590	40.842	1295.082	1162.427
-8.575	40.853	1293.736	1161.236
-7.560	40.914	1292.796	1160.702
-6.546	40.840	1292.035	1159.542
-5.531	40.926	1291.163	1159.214
-4.517	40.836	1290.129	1157.713
-3.502	41.001	1289.351	1157.929
-2.487	40.920	1288.186	1156.368
-1.473	41.042	1284.640	1153.844
-0.458	39.729	1268.930	1132.161
0.556	35.534	1248.586	1087.020
1.571	31.429	1251.519	1066.127
2.586	30.179	1267.222	1072.182
3.600	28.591	1255.599	1053.148
4.615	20.602	1178.347	945.039
5.629	8.023	1095.177	814.330
6.644	2.477	1070.190	767.921
7.659	1.990	1067.371	763.394
8.673	1.912	1065.649	761.708
9.688	1.793	1064.073	759.920
10.702	2.117	1063.188	760.837
11.717	8.986	1073.961	802.953
12.731	20.222	1089.848	871.531
13.746	25.134	1095.625	900.819
14.761	25.344	1095.779	901.924
15.775	25.291	1095.322	901.199
16.790	25.202	1094.453	899.962
17.804	25.100	1093.731	898.778
18.819	25.204	1093.399	898.945
19.834	25.358	1092.594	898.975
20.848	25.331	1092.359	898.563
21.863	25.244	1091.875	897.652
22.877	25.261	1091.305	897.191
23.892	25.226	1090.185	896.014
24.907	25.203	1089.652	895.380
25.921	25.321	1088.347	894.821
26.936	25.263	1086.989	893.334
27.950	25.171	1085.635	891.685
28.965	25.005	1084.210	889.614
29.980	25.029	1082.665	888.386
30.994	25.347	1081.300	888.763
32.009	25.221	1080.424	887.340
33.023	25.110	1079.155	885.669
34.038	25.121	1078.596	885.187
35.053	25.237	1077.755	884.992
36.067	25.228	1077.229	884.434
37.082	25.283	1076.486	884.020
38.096	25.516	1075.959	884.653
39.111	25.495	1074.981	883.670
40.126	25.253	1073.844	881.469
41.140	25.001	1072.176	878.785
42.155	24.810	1070.611	876.489
43.169	24.820	1069.968	875.934
44.184	24.929	1068.877	875.494
45.199	24.845	1067.461	873.846
46.213	24.854	1066.843	873.308
47.228	24.953	1066.649	873.554
48.242	25.172	1065.341	873.472
49.257	25.198	1064.417	872.764
50.271	25.235	1064.164	872.663
51.286	25.405	1063.016	872.470
52.301	25.267	1062.290	871.124
53.315	25.268	1061.506	870.409
54.330	25.174	1060.457	869.016
55.344	25.101	1059.720	867.985
56.359	25.135	1059.218	867.658
57.374	24.924	1058.064	865.618
58.388	25.052	1056.768	865.098
59.403	24.903	1056.160	863.804
60.417	24.826	1055.294	862.652
61.432	24.908	1054.722	862.502
62.447	24.831	1054.657	862.000
63.461	25.017	1053.813	862.131
64.476	25.036	1052.110	860.750
65.490	24.974	1051.123	859.569
66.505	24.905	1051.032	859.090
67.520	24.936	1050.327	858.583
68.534	24.779	1048.712	856.438
69.549	24.447	1047.799	854.029
70.563	24.418	1046.991	853.156
71.578	24.394	1046.652	852.688
72.593	24.348	1045.200	851.212
73.607	24.284	1045.415	851.002
74.622	24.786	1044.478	852.560
75.636	24.777	1043.818	851.905
76.651	24.679	1042.813	850.540
77.666	24.534	1042.033	849.142
78.680	24.558	1041.416	848.678
79.695	24.704	1040.829	848.814
80.709	24.785	1040.231	848.636
81.724	24.794	1039.157	847.731
82.739	24.911	1038.436	847.618
83.753	25.110	1038.255	848.338
84.768	25.570	1037.057	849.459
85.782	25.644	1036.606	849.365
86.797	25.369	1035.892	847.406
87.812	25.341	1034.707	846.230
88.826	25.604	1033.086	846.065
89.841	25.553	1032.617	845.367
90.855	25.490	1031.696	844.242
91.870	25.445	1031.050	843.429
92.884	25.356	1029.708	841.837
93.899	25.309	1028.887	840.871
94.914	25.477	1028.036	840.890
95.928	25.384	1026.890	839.442
96.943	25.074	1026.078	837.256
97.957	24.829	1024.853	835.041
98.972	24.622	1024.038	833.337
99.987	25.034	1023.184	834.488
101.001	25.211	1021.902	834.192
102.016	25.226	1021.297	833.691
103.030	25.178	1020.213	832.509
104.045	25.003	1019.492	831.039
105.060	24.906	1018.541	829.741
106.074	25.027	1018.118	829.883
107.089	25.298	1017.379	830.461
108.103	25.185	1016.649	829.269
109.118	25.028	1015.224	827.307
110.133	24.957	1014.549	826.357
111.147	24.730	1012.925	823.914
112.162	24.587	1012.443	822.792
113.176	24.779	1011.969	823.216
114.191	24.863	1010.792	822.576
115.206	24.553	1009.914	820.362
116.220	24.526	1009.079	819.487
117.235	24.624	1008.177	819.133
118.249	24.622	1007.369	818.395
119.264	24.580	1006.244	817.217
120.279	24.580	1005.828	816.807
121.293	24.540	1005.195	816.038
122.308	24.629	1003.876	815.300
123.322	24.530	1002.627	813.761
124.337	24.509	1001.549	812.720
125.352	23.963	1000.209	809.075
126.366	23.875	999.239	807.822
127.381	24.654	999.276	811.318
128.395	25.180	998.740	813.198
129.410	25.261	997.994	812.881
130.424	25.193	996.950	811.653
131.439	25.222	996.231	811.127
132.454	25.241	995.052	810.180
133.468	25.058	994.415	808.768
134.483	25.269	993.495	808.898
135.497	25.375	993.111	808.988
136.512	25.374	992.378	808.319
137.527	25.421	991.681	807.891
138.541	25.490	990.662	807.298
139.556	25.415	990.093	806.425
140.570	25.549	989.180	806.211
141.585	25.590	988.071	805.420
142.600	25.447	987.239	804.032
143.614	25.587	986.853	804.271
144.629	25.644	986.218	803.938
145.643	25.683	984.231	802.419
146.658	25.384	983.731	800.608
147.673	25.406	982.077	799.290
148.687	25.135	981.270	797.357
149.702	25.142	980.120	796.385
150.716	25.120	979.305	795.553
151.731	25.352	978.371	795.751
152.746	25.537	977.913	796.128
153.760	25.514	977.855	795.911
154.775	25.664	976.768	795.617
155.789	25.576	975.860	794.417
156.804	25.586	974.649	793.408
157.819	25.544	974.005	792.630
158.833	25.821	973.245	793.157
159.848	25.740	972.165	791.854
160.862	25.565	971.084	790.134
161.877	25.527	969.867	788.908
162.892	25.579	969.143	788.476
163.906	25.418	968.109	786.858
164.921	25.309	967.328	785.677
165.935	25.573	966.203	785.847
166.950	25.652	965.048	785.185
167.964	25.441	964.905	784.077
168.979	25.442	963.307	782.716
169.994	25.370	962.777	781.900
171.008	25.604	961.956	782.184
172.023	25.714	961.084	781.883
173.037	25.399	960.477	779.950
174.052	25.215	959.432	778.237
175.067	25.322	958.436	777.825
176.081	25.340	958.205	777.647
177.096	25.344	957.792	777.259
178.110	25.019	956.757	774.943
179.125	24.851	955.616	773.227
180.140	24.981	955.442	773.579
181.154	25.090	954.905	773.545
182.169	25.346	955.237	774.852
183.183	25.585	954.659	775.341
184.198	25.348	953.945	773.674
185.213	25.498	952.760	773.288
186.227	25.518	952.524	773.114
187.242	25.599	951.772	772.786
188.256	25.622	950.810	772.036
189.271	25.722	950.310	771.988
190.286	25.392	948.773	769.259
191.300	24.640	947.683	765.087
192.315	23.833	945.670	759.949
193.329	23.710	945.860	759.507
194.344	24.900	945.961	764.605
195.359	25.375	946.085	766.668
196.373	25.606	945.048	766.744
197.388	25.385	944.848	765.572
198.402	25.480	944.585	765.695
199.417	25.481	943.581	764.820
200.432	25.294	942.670	763.219
201.446	25.045	941.857	761.433
202.461	24.960	941.582	760.784
203.475	24.332	939.410	756.298
204.490	23.454	938.219	751.554
205.504	24.286	938.498	755.234
206.519	25.012	938.163	757.973
207.534	24.960	937.807	757.398
208.548	25.480	937.738	759.474
209.563	25.307	936.542	757.706
210.577	25.088	936.401	756.604
211.592	25.769	935.633	758.784
212.607	25.572	935.327	757.642
213.621	25.816	934.137	757.633
214.636	25.748	933.474	756.745
215.650	25.489	933.184	755.352
216.665	25.671	932.518	755.513
217.680	25.624	931.332	754.286
218.694	25.308	929.882	751.726
219.709	25.040	929.712	750.397
220.723	25.302	929.348	751.134
221.738	25.423	928.959	751.259
222.753	25.409	928.238	750.552
223.767	25.658	928.076	751.394
224.782	25.705	927.720	751.235
225.796	25.793	926.996	750.951
226.811	25.032	925.168	746.234
227.826	24.463	923.771	742.673
228.840	24.547	924.015	743.154
229.855	24.641	922.997	742.661
230.869	24.486	921.673	740.887
231.884	24.688	922.088	741.993
232.899	25.383	922.009	744.747
233.913	25.289	921.467	743.853
234.928	25.459	920.698	743.872
235.942	25.255	920.223	742.577
236.957	25.088	919.170	740.970
237.972	25.047	918.806	740.443
238.986	25.249	917.951	740.523
240.001	25.219	917.304	739.810
241.015	25.316	916.807	739.743
242.030	25.410	917.014	740.234
243.045	25.424	916.284	739.635
244.059	25.622	915.630	739.856
245.074	25.358	915.079	738.262
246.088	25.102	913.997	736.273
247.103	25.410	913.388	736.980
248.117	25.897	913.529	739.025
249.132	26.102	913.160	739.502
250.147	26.309	912.587	739.820
251.161	26.384	912.144	739.700
252.176	26.328	911.726	739.070
253.190	26.386	911.231	738.841
254.205	26.559	910.715	739.064
255.220	26.471	909.958	738.021
256.234	26.350	909.012	736.700
257.249	26.189	908.542	735.596
258.263	26.293	907.653	735.232
259.278	26.420	907.019	735.171
260.293	26.491	906.491	734.969
261.307	26.340	905.895	733.805
262.322	26.221	904.751	732.331
263.336	25.378	902.763	727.248
264.351	24.322	901.201	721.654
265.366	24.501	901.039	722.185
266.380	25.453	901.539	726.372
267.395	25.947	901.272	728.085
268.409	25.887	900.511	727.164
269.424	26.055	900.256	727.573
270.439	26.341	899.282	727.873
271.453	26.236	898.933	727.105
272.468	26.280	898.783	727.097
273.482	26.458	897.918	727.046
274.497	25.953	897.091	724.286
275.512	25.749	895.815	722.373
276.526	25.929	896.053	723.223
277.541	26.144	895.656	723.699
278.555	25.962	894.655	722.099
279.570	25.876	893.814	721.013
280.585	26.058	893.401	721.340
281.599	25.977	892.323	720.086
282.614	25.527	890.674	716.897
283.628	25.325	890.758	716.096
284.643	25.743	890.530	717.516
285.657	25.519	889.152	715.448
286.672	25.040	888.614	713.046
287.687	25.665	888.893	715.693
288.701	25.644	888.311	715.080
289.716	25.434	887.232	713.315
290.730	25.373	886.296	712.255
291.745	25.181	885.798	711.033
292.760	25.329	885.631	711.421
293.774	26.427	885.749	715.800
294.789	26.807	885.144	716.753
295.803	26.757	884.907	716.296
296.818	26.724	884.119	715.468
297.833	26.396	883.008	713.210
298.847	26.048	882.790	711.601
299.862	26.443	882.644	712.976
300.876	26.707	881.979	713.418
301.891	26.569	881.085	712.086
302.906	26.278	880.245	710.199
303.920	26.311	879.967	710.044
304.935	26.733	879.647	711.380
305.949	26.640	879.143	710.542
306.964	26.433	878.197	708.906
307.979	26.513	877.515	708.605
308.993	26.695	877.836	709.514
310.008	26.866	876.882	709.350
311.022	26.564	876.134	707.501
312.037	26.296	875.842	706.158
313.052	26.125	874.593	704.420
314.066	25.354	872.581	699.735
315.081	24.976	872.383	698.039
316.095	25.844	872.381	701.359
317.110	26.362	872.570	703.462
318.125	25.646	870.576	699.014
319.139	24.489	869.357	693.479
320.154	24.210	868.725	691.833
321.168	25.172	869.623	696.222
322.183	26.114	869.532	699.744
323.197	26.230	869.093	699.778
324.212	26.402	868.958	700.271
325.227	26.455	868.333	699.912
326.241	26.379	867.281	698.709
327.256	26.292	866.768	697.896
328.270	25.960	866.358	696.224
329.285	25.904	865.579	695.319
330.300	25.734	864.467	693.710
331.314	25.937	864.289	694.287
332.329	26.516	863.981	696.206
333.343	26.651	863.953	696.642
334.358	26.551	863.425	695.772
335.373	26.598	863.271	695.766
336.387	26.829	863.430	696.721
337.402	27.213	862.809	697.629
338.416	26.972	862.464	696.364
339.431	27.150	862.232	696.800
340.446	27.293	861.860	696.985
341.460	27.064	861.651	695.878
342.475	26.788	861.032	694.260
343.489	26.945	860.564	694.421
344.504	27.141	860.329	694.920
345.519	27.351	859.916	695.328
346.533	27.327	859.696	694.994
347.548	27.352	858.984	694.453
348.562	27.213	858.428	693.414
349.577	27.325	857.770	693.245
350.592	27.245	856.926	692.198
351.606	27.204	856.314	691.487
352.621	27.127	855.092	690.147
353.635	27.024	854.653	689.340
354.650	26.359	853.188	685.577
355.665	25.417	851.809	680.839
356.679	25.882	851.388	682.206
357.694	26.354	851.358	683.904
358.708	26.339	850.271	682.914
359.723	26.702	850.403	684.334
360.738	26.986	849.951	684.978
361.752	27.053	849.642	684.923
362.767	27.397	849.278	685.865
363.781	27.629	848.883	686.358
364.796	27.691	848.866	686.517
365.810	27.780	848.409	686.424
366.825	27.847	847.418	685.810
367.840	27.412	846.876	683.679
368.854	26.993	846.098	681.419
369.869	26.940	845.808	680.926
370.883	27.149	845.073	681.056
371.898	27.049	844.881	680.467
372.913	27.085	844.582	680.300
373.927	27.114	844.199	680.039
374.942	27.281	843.695	680.199
375.956	27.417	843.071	680.144
376.971	27.601	842.408	680.235
377.986	27.695	842.795	680.837
379.000	27.672	841.896	679.968
380.015	27.428	841.178	678.417
381.029	27.520	840.776	678.373
382.044	27.727	840.085	678.528
383.059	27.637	839.601	677.741
384.073	27.735	839.178	677.705
385.088	27.583	838.194	676.288
386.102	27.397	837.599	675.059
387.117	27.411	836.865	674.457
388.132	27.240	835.598	672.745
389.146	26.488	834.947	669.379
390.161	26.890	834.899	670.769
391.175	27.278	834.724	672.003
392.190	27.047	833.804	670.351
393.205	25.714	831.601	663.611
394.219	24.218	829.679	656.510
395.234	24.162	829.188	655.859
396.248	25.688	830.961	662.825
397.263	27.157	831.855	668.892
398.278	27.036	831.470	668.080
399.292	26.794	830.618	666.444
400.307	26.826	830.223	666.187
401.321	26.991	830.031	666.580
402.336	27.388	829.785	667.779
403.350	27.874	829.713	669.445
404.365	28.139	829.420	670.121
405.380	28.249	829.534	670.557
406.394	28.489	828.988	670.932
407.409	28.323	827.935	669.415
408.423	28.298	827.780	669.138
409.438	28.372	827.536	669.153
410.453	28.385	827.316	668.964
411.467	28.463	826.309	668.375
412.482	28.433	825.818	667.810
413.496	28.599	825.470	668.074
414.511	28.496	825.582	667.730
415.526	28.392	824.554	666.462
416.540	28.164	824.235	665.315
417.555	27.872	823.431	663.545
418.569	28.193	822.933	664.253
419.584	28.081	822.521	663.453
420.599	27.903	821.815	662.181
421.613	93.945	1263.895	1369.798
422.628	80.965	1328.359	1369.950
