DTS Sentinel unit serial number:	SN413079Multiplexer serial number:	ORYXHardware model number:	OX4-SRSoftware version number:	ORYX F/W v4.00 Oryx Data Collector v3.7.2.0data status	okinstallation	princeton_trtdifferential loss correction	single-endedforward channel	channel 1reverse channel	N/Adate	2019/09/12time	18:08:34forward acquisition time	15.00reverse acquisition time	0.00gamma	496.2192k internal	0.2317k external	0.2317temperature offset calibration	1.0092default loss term (dB/km)	0.3790temperature slope calibration	1.0000multiplexer offset coefficient	1.0000multiplexer slope coefficient	1.0000fibre end	0.00T internal ref (°C)	33.62T ext. ref 1 (°C)	2.91T ext. ref 2 (°C)	28.11length (m)	temperature (°C)	Stokes	anti-Stokes-747.200	293.863	0.395	0.731
-746.185	391.155	-0.387	0.814
-745.171	-140.080	-0.165	0.018
-744.156	-11.944	-0.266	-0.177
-743.142	139.583	-0.292	0.389
-742.127	-200.000	-0.140	-1.126
-741.112	-200.000	-0.019	-0.282
-740.098	-200.000	-0.020	0.521
-739.083	-21.858	0.297	0.183
-738.069	-200.000	0.054	-0.578
-737.054	46.697	-0.280	0.263
-736.039	167.092	-0.495	-0.712
-735.025	-97.388	0.405	-0.107
-734.010	312.088	-0.186	0.354
-732.996	793.038	0.290	0.808
-731.981	-4.594	-0.366	-0.256
-730.966	693.527	0.041	0.108
-729.952	517.781	0.176	-0.416
-728.937	-104.370	1.330	-0.312
-727.923	-120.954	0.718	0.122
-726.908	-200.000	0.045	-0.279
-725.894	800.000	-0.089	0.376
-724.879	57.521	0.631	0.624
-723.864	-55.336	0.817	0.371
-722.850	-136.429	0.416	0.049
-721.835	-188.773	0.412	-0.005
-720.821	227.414	-0.716	-1.177
-719.806	-200.000	0.046	-0.463
-718.791	9.085	-0.344	-0.263
-717.777	10.944	0.457	0.353
-716.762	-60.150	-0.535	0.231
-715.748	800.000	0.208	-0.680
-714.733	-55.024	0.957	0.436
-713.718	-200.000	0.117	0.569
-712.704	-8.528	0.623	-0.423
-711.689	-157.010	0.759	-0.047
-710.675	-200.000	-0.239	-1.198
-709.660	45.910	-0.108	0.101
-708.645	800.000	0.121	0.429
-707.631	14.480	0.613	-0.484
-706.616	-93.662	-0.347	-0.097
-705.602	-23.740	0.594	-0.360
-704.587	-107.816	-0.671	-0.148
-703.572	-121.097	-0.351	-0.059
-702.558	-200.000	0.009	0.480
-701.543	17.245	0.671	-0.538
-700.529	12.785	0.356	-0.278
-699.514	800.000	0.189	-0.719
-698.499	-191.356	-0.207	0.002
-697.485	179.684	0.343	0.508
-696.470	10.070	-0.310	-0.238
-695.456	-73.262	0.857	-0.317
-694.441	96.837	-0.382	0.442
-693.426	200.787	-0.018	-0.028
-692.412	-92.046	-0.328	0.094
-691.397	-98.051	-0.346	0.090
-690.383	-200.000	-0.047	0.486
-689.368	71.765	-0.061	0.064
-688.354	452.690	0.117	0.262
-687.339	131.487	-0.719	0.934
-686.324	-19.067	-0.263	0.165
-685.310	114.566	0.419	-0.516
-684.295	28.401	0.255	0.218
-683.281	144.471	-0.475	-0.640
-682.266	-2.262	0.520	0.369
-681.251	-200.000	-0.063	-0.966
-680.237	20.814	0.415	-0.339
-679.222	-153.116	-0.636	0.045
-678.208	591.335	-0.223	-0.557
-677.193	-20.773	0.562	0.348
-676.178	25.829	-0.450	-0.379
-675.164	-142.619	0.454	0.045
-674.149	9.168	-0.403	0.308
-673.135	-200.000	0.008	-0.644
-672.120	91.650	0.330	0.374
-671.105	-128.851	0.943	-0.134
-670.091	-64.239	-0.424	0.175
-669.076	-142.456	-0.684	-0.068
-668.062	-200.000	-0.024	0.668
-667.047	206.345	0.459	-0.721
-666.032	-200.000	-0.014	0.062
-665.018	196.429	0.649	0.998
-664.003	-200.000	0.047	1.282
-662.989	-43.891	0.312	0.159
-661.974	10.825	0.422	0.325
-660.959	-200.000	-0.018	0.329
-659.945	2.308	0.461	0.336
-658.930	-156.654	-1.247	0.078
-657.916	-3.776	0.611	-0.428
-656.901	-200.000	-0.046	0.445
-655.886	-59.237	0.622	0.270
-654.872	800.000	0.168	-0.504
-653.857	-93.325	-0.373	0.104
-652.843	162.922	0.141	-0.200
-651.828	-200.000	-0.043	-0.226
-650.814	800.000	-0.181	-0.793
-649.799	296.452	-0.239	-0.442
-648.784	-35.692	-0.783	-0.428
-647.770	115.353	-0.374	-0.460
-646.755	-200.000	-0.008	-0.373
-645.741	-89.879	0.312	-0.092
-644.726	800.000	-0.092	-0.311
-643.711	-103.306	0.156	-0.037
-642.697	-114.770	0.744	-0.143
-641.682	800.000	0.187	0.679
-640.668	259.410	-0.245	0.427
-639.653	25.883	0.350	-0.294
-638.638	-200.000	0.004	-0.162
-637.624	60.562	-0.532	0.531
-636.609	-94.856	-0.285	0.078
-635.595	-200.000	0.112	-0.644
-634.580	123.371	0.228	0.288
-633.565	438.579	-0.226	-0.496
-632.551	307.713	-0.301	0.566
-631.536	-73.833	0.644	-0.236
-630.522	96.041	0.541	0.623
-629.507	-191.730	-0.645	0.006
-628.492	81.209	0.111	0.120
-627.478	-15.714	0.254	-0.163
-626.463	800.000	-0.117	0.468
-625.449	-93.314	0.298	-0.083
-624.434	105.934	0.151	0.180
-623.419	-200.000	-0.119	0.737
-622.405	-200.000	0.111	0.729
-621.390	-200.000	-0.008	0.590
-620.376	233.610	0.255	-0.423
-619.361	-34.484	-0.227	-0.125
-618.346	67.472	0.701	0.721
-617.332	-198.590	-0.413	0.002
-616.317	249.655	-0.019	0.032
-615.303	-166.619	0.433	0.018
-614.288	140.224	0.510	0.678
-613.273	115.896	-0.181	-0.223
-612.259	106.298	0.037	0.044
-611.244	10.025	0.517	-0.396
-610.230	-162.835	0.247	-0.012
-609.215	61.114	0.398	0.398
-608.201	-155.892	0.949	-0.061
-607.186	800.000	-0.209	-0.611
-606.171	154.748	0.337	0.467
-605.157	58.932	0.431	-0.427
-604.142	-67.796	0.432	0.170
-603.128	-59.251	0.757	0.328
-602.113	-34.680	-0.348	-0.191
-601.098	-200.000	-0.008	-0.572
-600.084	-67.021	-0.347	-0.138
-599.069	-35.799	-0.116	0.063
-598.055	25.136	0.155	-0.130
-597.040	-200.000	0.002	-0.071
-596.025	-200.000	-0.013	-0.325
-595.011	454.039	0.307	0.685
-593.996	531.008	0.265	0.630
-592.982	-200.000	0.016	-0.133
-591.967	2.796	-0.867	0.633
-590.952	198.351	-0.149	-0.229
-589.938	55.453	-0.568	-0.553
-588.923	-76.673	-0.920	0.325
-587.909	-28.986	0.250	-0.144
-586.894	-110.323	-0.361	0.076
-585.879	64.028	-0.100	0.101
-584.865	-200.000	0.011	-0.493
-583.850	-27.105	0.232	-0.136
-582.836	166.540	0.135	-0.192
-581.821	-200.000	-0.067	-0.384
-580.806	-200.000	-0.123	-0.561
-579.792	-200.000	0.064	-0.385
-578.777	173.824	-0.396	0.576
-577.763	12.272	0.306	-0.237
-576.748	-25.804	-0.332	-0.197
-575.733	119.895	-0.349	0.435
-574.719	340.477	0.266	0.523
-573.704	-95.393	-0.517	-0.140
-572.690	800.000	-0.201	0.810
-571.675	31.797	0.186	-0.161
-570.661	171.894	-0.327	-0.472
-569.646	267.523	-0.330	-0.580
-568.631	-57.701	-0.621	-0.274
-567.617	-200.000	-0.090	-0.803
-566.602	-176.912	-0.386	-0.010
-565.588	79.211	0.294	-0.317
-564.573	-129.385	0.445	0.062
-563.558	292.362	-0.248	0.454
-562.544	-142.144	-0.317	0.032
-561.529	57.904	-0.350	0.344
-560.515	215.454	-0.487	-0.776
-559.500	-6.301	-0.413	-0.284
-558.485	207.468	0.413	0.648
-557.471	67.529	-0.369	0.379
-556.456	-33.964	-0.192	-0.106
-555.442	105.016	0.225	-0.267
-554.427	800.000	0.037	0.125
-553.412	-119.933	-1.295	0.224
-552.398	-44.920	-0.071	0.035
-551.383	328.183	-0.480	-0.927
-550.369	739.922	0.146	-0.394
-549.354	-200.000	0.111	-0.785
-548.339	-200.000	0.033	0.232
-547.325	-200.000	0.056	0.551
-546.310	-200.000	0.118	-0.769
-545.296	1.004	-0.809	-0.583
-544.281	410.184	-0.255	0.543
-543.266	-153.232	0.074	0.005
-542.252	-200.000	0.043	-0.460
-541.237	-136.877	0.226	0.026
-540.223	800.000	-0.078	-0.291
-539.208	204.992	0.116	0.181
-538.193	-144.596	-0.281	-0.026
-537.179	-200.000	-0.755	-0.001
-536.164	604.895	-0.081	-0.201
-535.150	144.116	0.265	-0.355
-534.135	124.767	-0.403	0.510
-533.121	-180.147	-0.620	-0.013
-532.106	-67.845	0.346	0.136
-531.091	-200.000	0.031	-0.161
-530.077	216.265	0.440	-0.702
-529.062	-200.000	0.011	0.396
-528.048	-200.000	0.014	-0.429
-527.033	800.000	-0.167	0.617
-526.018	161.004	-0.312	0.437
-525.004	207.824	-0.324	-0.509
-523.989	-18.646	-0.485	0.304
-522.975	-0.449	-0.304	0.217
-521.960	-200.000	-0.004	0.181
-520.945	800.000	-0.140	0.495
-519.931	114.961	0.082	-0.101
-518.916	800.000	0.098	0.399
-517.902	-138.066	0.326	0.036
-516.887	113.655	-0.287	-0.350
-515.872	192.402	-0.305	-0.462
-514.858	-102.150	0.060	0.015
-513.843	180.876	-0.071	-0.105
-512.829	-200.000	0.017	-0.439
-511.814	-0.532	0.278	-0.198
-510.799	-200.000	0.063	-0.344
-509.785	-87.923	-0.925	0.279
-508.770	27.246	-0.520	0.438
-507.756	49.421	0.371	0.351
-506.741	800.000	0.204	-0.820
-505.726	-94.117	1.313	-0.361
-504.712	-182.256	-0.213	-0.004
-503.697	-51.967	0.444	0.207
-502.683	19.056	0.634	0.510
-501.668	-138.583	-0.566	-0.062
-500.653	653.653	-0.211	-0.542
-499.639	62.478	0.190	0.190
-498.624	3.873	-0.070	-0.052
-497.610	800.000	-0.098	-0.404
-496.595	61.625	0.147	-0.147
-495.581	-113.091	0.595	-0.118
-494.566	256.274	0.308	-0.531
-493.551	-2.661	0.167	-0.117
-492.537	-82.958	0.424	0.137
-491.522	-22.151	0.232	0.141
-490.508	-200.000	0.070	-0.352
-489.493	-111.536	0.406	0.083
-488.478	491.200	-0.223	-0.511
-487.464	292.921	-0.321	0.586
-486.449	637.680	0.177	0.450
-485.435	74.990	0.212	-0.224
-484.420	-106.718	0.720	0.160
-483.405	-15.694	0.421	0.269
-482.391	-124.164	1.071	-0.168
-481.376	379.079	-0.467	-0.959
-480.362	573.975	-0.177	-0.434
-479.347	-200.000	-0.119	0.903
-478.332	-200.000	0.197	-0.929
-477.318	262.022	-0.136	0.235
-476.303	-200.000	0.005	0.321
-475.289	285.800	0.092	0.166
-474.274	800.000	-0.052	-0.175
-473.259	-200.000	-0.104	-0.476
-472.245	-77.194	0.077	0.027
-471.230	-113.792	0.430	-0.084
-470.216	226.366	0.317	-0.515
-469.201	142.164	0.190	-0.253
-468.186	69.986	-0.324	-0.335
-467.172	-139.994	-0.461	0.049
-466.157	709.438	-0.300	0.795
-465.143	800.000	0.115	0.469
-464.128	-53.140	-0.560	-0.258
-463.113	15.175	0.365	-0.286
-462.099	800.000	-0.282	0.829
-461.084	-92.720	-0.539	-0.151
-460.070	-200.000	0.095	-0.516
-459.055	-25.477	-0.330	-0.195
-458.040	-200.000	0.029	-0.314
-457.026	-200.000	-0.062	-0.339
-456.011	-200.000	-0.064	-0.733
-454.997	-46.442	-0.604	-0.297
-453.982	-27.206	-0.338	0.197
-452.968	216.184	-0.515	0.820
-451.953	272.753	0.308	0.544
-450.938	-122.175	0.318	0.052
-449.924	-64.437	-0.814	-0.331
-448.909	-19.237	-0.460	-0.286
-447.895	-143.609	0.285	0.027
-446.880	-80.484	-0.311	-0.104
-445.865	-123.162	0.406	0.065
-444.851	-200.000	0.226	-1.032
-443.836	615.031	0.211	-0.529
-442.822	11.334	0.257	-0.197
-441.807	124.603	0.180	0.226
-440.792	67.449	-0.792	0.809
-439.778	-30.153	0.537	-0.305
-438.763	-200.000	-0.044	-0.552
-437.749	-119.998	-0.365	-0.063
-436.734	-200.000	0.061	0.286
-435.719	-200.000	0.034	0.222
-434.705	-185.099	0.623	0.010
-433.690	182.304	0.049	-0.072
-432.676	95.047	-0.084	0.096
-431.661	-168.508	-0.398	0.015
-430.646	-200.000	-0.084	0.432
-429.632	-36.850	-0.404	-0.217
-428.617	-200.000	0.082	-0.421
-427.603	-8.171	-0.202	-0.136
-426.588	313.014	-0.137	0.258
-425.573	800.000	0.106	-0.351
-424.559	-159.848	-0.375	-0.021
-423.544	-151.075	-0.660	0.050
-422.530	118.677	-0.565	0.698
-421.515	-67.945	0.344	-0.134
-420.500	800.000	-0.231	0.667
-419.486	244.298	-0.132	0.221
-418.471	-134.484	-0.332	0.041
-417.457	302.566	0.268	0.495
-416.442	3.580	0.363	0.265
-415.428	800.000	-0.176	-0.643
-414.413	74.179	-0.193	0.203
-413.398	800.000	-0.158	0.610
-412.384	-42.642	0.795	-0.404
-411.369	-107.309	-0.543	-0.119
-410.355	800.000	-0.142	-0.400
-409.340	-105.872	0.858	0.194
-408.325	-200.000	0.061	0.685
-407.311	-46.009	0.625	-0.308
-406.296	34.244	1.621	-1.413
-405.282	-28.439	-0.804	0.463
-404.267	-18.083	0.142	0.089
-403.252	-178.200	0.826	-0.019
-402.238	800.000	-0.285	1.055
-401.223	-128.317	-0.662	0.094
-400.209	-55.644	0.536	0.240
-399.194	86.505	-0.178	0.196
-398.179	-87.064	-0.902	0.274
-397.165	-176.934	-0.223	0.006
-396.150	-101.408	0.255	0.062
-395.136	-124.485	-0.233	0.036
-394.121	-25.979	0.394	0.232
-393.106	-91.869	0.333	-0.094
-392.092	-131.805	0.775	-0.101
-391.077	-4.081	-0.450	-0.311
-390.063	-200.000	0.172	-0.956
-389.048	202.500	-0.237	0.366
-388.033	-81.007	-0.397	0.131
-387.019	-0.475	-0.288	-0.204
-386.004	-46.737	0.907	-0.443
-384.990	-200.000	-0.055	-0.565
-383.975	-141.020	-0.238	-0.024
-382.960	800.000	-0.156	0.460
-381.946	-120.446	0.713	-0.121
-380.931	-8.586	-0.248	-0.166
-379.917	87.019	0.514	-0.567
-378.902	-200.000	0.006	-0.197
-377.888	800.000	0.131	0.528
-376.873	62.584	0.249	-0.248
-375.858	-13.791	-0.383	-0.247
-374.844	-200.000	-0.114	0.878
-373.829	-200.000	0.011	0.098
-372.815	-200.000	0.033	0.480
-371.800	121.974	0.137	-0.170
-370.785	11.668	0.380	0.291
-369.771	-41.024	-0.785	0.404
-368.756	120.364	-0.062	-0.077
-367.742	-124.105	0.490	-0.077
-366.727	800.000	-0.125	0.462
-365.712	-200.000	-0.091	0.510
-364.698	46.514	-0.383	0.354
-363.683	-200.000	-0.025	0.143
-362.669	398.152	0.155	0.323
-361.654	-75.979	0.567	-0.200
-360.639	495.576	-0.258	0.591
-359.625	444.250	0.466	1.020
-358.610	-51.153	0.369	-0.172
-357.596	-3.280	0.249	-0.173
-356.581	-200.000	0.100	-0.530
-355.566	800.000	-0.020	0.073
-354.552	800.000	0.267	-0.814
-353.537	800.000	0.288	-0.870
-352.523	800.000	0.033	-0.126
-351.508	-33.509	0.351	0.193
-350.493	-145.805	-0.219	0.019
-349.479	-25.248	-0.197	0.117
-348.464	-81.721	0.223	-0.073
-347.450	291.271	-0.212	0.384
-346.435	800.000	0.086	-0.284
-345.420	74.837	0.390	-0.409
-344.406	280.860	-0.030	-0.054
-343.391	-47.221	-0.712	0.346
-342.377	184.393	-0.357	0.527
-341.362	-2.138	-0.197	0.138
-340.348	-51.425	0.815	0.380
-339.333	155.184	0.610	0.836
-338.318	800.000	0.119	-0.392
-337.304	2.863	-0.234	-0.169
-336.289	-200.000	0.026	0.879
-335.275	50.649	-0.483	0.455
-334.260	800.000	-0.212	0.624
-333.245	-97.885	-0.432	0.111
-332.231	118.302	0.396	-0.487
-331.216	-200.000	0.040	0.358
-330.202	-42.944	-0.101	-0.051
-329.187	-38.122	0.365	0.193
-328.172	-54.866	0.283	-0.127
-327.158	0.214	0.504	0.358
-326.143	456.476	-0.072	-0.159
-325.129	468.684	-0.203	-0.455
-324.114	33.158	-0.740	0.639
-323.099	-200.000	0.017	1.348
-322.085	-137.661	0.675	0.076
-321.070	800.000	-0.113	0.325
-320.056	32.060	0.510	-0.438
-319.041	-68.950	0.440	0.169
-318.026	-137.888	-0.413	0.046
-317.012	-34.262	0.784	-0.428
-315.997	-200.000	-0.099	-1.200
-314.983	-200.000	-0.006	0.277
-313.968	47.349	0.453	0.421
-312.953	-113.050	-0.391	-0.077
-311.939	800.000	0.178	0.515
-310.924	169.691	-0.191	0.271
-309.910	420.515	0.375	-0.799
-308.895	-200.000	-0.223	0.997
-307.880	603.909	0.105	0.261
-306.866	-141.153	-0.747	0.076
-305.851	633.626	-0.208	-0.526
-304.837	67.910	-0.755	-0.769
-303.822	-23.818	0.156	0.093
-302.807	142.284	0.454	-0.600
-301.793	-114.287	-0.344	-0.066
-300.778	-37.804	1.119	-0.592
-299.764	-110.506	-0.490	0.101
-298.749	-150.686	-1.116	-0.085
-297.735	165.534	-0.502	-0.707
-296.720	-200.000	0.038	-0.277
-295.705	-155.457	0.683	0.044
-294.691	-110.913	0.480	-0.098
-293.676	-26.358	0.296	0.173
-292.662	800.000	0.189	0.659
-291.647	433.852	-0.474	1.023
-290.632	102.288	-0.313	0.363
-289.618	-195.195	-0.635	-0.005
-288.603	-22.283	0.577	-0.348
-287.589	-52.302	-0.363	0.167
-286.574	-200.000	-0.049	-0.230
-285.559	94.778	0.284	0.321
-284.545	124.481	0.265	-0.332
-283.530	-76.442	0.664	0.232
-282.516	-200.000	-0.063	-0.786
-281.501	200.898	-0.448	-0.686
-280.486	-200.000	0.031	0.629
-279.472	800.000	0.278	-0.819
-278.457	-68.981	-0.285	0.109
-277.443	-39.506	-0.330	0.172
-276.428	390.047	-0.170	-0.351
-275.413	572.875	-0.168	-0.406
-274.399	30.457	0.798	0.678
-273.384	-200.000	0.149	0.744
-272.370	-200.000	-0.011	0.192
-271.355	-200.000	0.173	-0.758
-270.340	-93.582	-0.704	-0.193
-269.326	600.622	0.117	0.289
-268.311	39.688	-0.532	-0.474
-267.297	-200.000	0.107	-0.535
-266.282	-24.888	0.489	0.289
-265.267	71.329	-0.892	0.920
-264.253	217.467	0.215	0.341
-263.238	-72.873	0.211	-0.077
-262.224	102.572	-0.609	0.708
-261.209	78.236	0.301	-0.320
-260.195	46.334	-0.651	0.600
-259.180	-16.049	0.446	0.282
-258.165	65.018	0.486	0.488
-257.151	81.959	0.496	-0.534
-256.136	800.000	0.149	-0.469
-255.122	-136.799	0.280	0.032
-254.107	-46.008	0.180	0.088
-253.092	-122.027	0.226	0.037
-252.078	-94.131	0.154	-0.042
-251.063	-200.000	0.073	0.355
-250.049	58.057	-0.755	0.735
-249.034	80.907	-0.460	-0.493
-248.019	-152.478	-0.290	0.021
-247.005	218.809	0.203	0.322
-245.990	22.017	-0.298	-0.242
-244.976	-34.403	-0.078	0.042
-243.961	-200.000	0.005	-0.675
-242.946	-200.000	-0.009	0.328
-241.932	-28.431	0.231	-0.132
-240.917	167.379	-0.302	0.425
-239.903	30.999	0.196	-0.167
-238.888	800.000	-0.395	1.457
-237.873	-5.905	-0.247	0.168
-236.859	41.036	0.305	-0.274
-235.844	226.876	-0.380	0.612
-234.830	-160.418	0.323	-0.017
-233.815	-19.905	0.082	-0.050
-232.800	-38.501	0.428	0.225
-231.786	67.317	0.406	-0.411
-230.771	-57.603	-0.656	-0.286
-229.757	6.016	0.561	-0.413
-228.742	-97.368	-1.360	-0.352
-227.727	151.561	-0.253	0.342
-226.713	338.548	0.449	-0.868
-225.698	-200.000	-0.058	-0.339
-224.684	-200.000	-0.082	0.758
-223.669	-59.785	-0.360	0.153
-222.655	-200.000	0.029	-0.251
-221.640	-99.803	0.339	0.084
-220.625	265.646	0.440	0.762
-219.611	-42.746	-0.854	-0.431
-218.596	-82.241	-0.394	-0.127
-217.582	-148.347	0.226	-0.018
-216.567	-200.000	-0.035	-0.580
-215.552	800.000	-0.246	-0.683
-214.538	55.936	0.211	-0.203
-213.523	118.211	-0.126	0.154
-212.509	175.248	0.452	0.650
-211.494	-147.080	0.619	-0.052
-210.479	800.000	0.087	-0.276
-209.465	82.202	0.590	-0.634
-208.450	-46.720	0.646	0.314
-207.436	2.602	0.249	-0.179
-206.421	-200.000	0.002	-0.238
-205.406	326.149	0.235	0.445
-204.392	-30.121	-0.119	0.067
-203.377	-200.000	0.038	-0.329
-202.363	-200.000	0.053	0.677
-201.348	-91.150	0.275	0.078
-200.333	53.299	-0.702	-0.667
-199.319	800.000	-0.333	-0.954
-198.304	-200.000	0.015	-0.127
-197.290	-13.404	0.480	-0.309
-196.275	800.000	0.099	0.383
-195.260	800.000	0.084	-0.243
-194.246	-200.000	-0.054	-0.246
-193.231	28.315	0.332	-0.278
-192.217	-58.334	-0.480	-0.207
-191.202	-139.127	-0.796	-0.085
-190.187	189.061	0.114	-0.169
-189.173	-200.000	-0.107	-0.570
-188.158	-34.897	-0.233	-0.126
-187.144	-108.844	-0.846	0.179
-186.129	538.573	-0.265	0.624
-185.114	800.000	0.314	0.935
-184.100	212.672	0.389	0.608
-183.085	800.000	-0.063	0.245
-182.071	-111.740	-0.217	-0.044
-181.056	-85.589	0.441	0.136
-180.042	800.000	-0.169	0.667
-179.027	244.992	-0.509	-0.847
-178.012	-56.563	0.768	0.337
-176.998	31.764	-0.255	-0.217
-175.983	-20.450	0.508	-0.309
-174.969	49.661	-0.458	0.427
-173.954	245.874	0.130	0.217
-172.939	-56.030	-0.469	-0.207
-171.925	-24.168	0.607	-0.359
-170.910	343.706	-0.159	-0.308
-169.896	-150.841	-0.180	-0.013
-168.881	74.656	-0.710	0.740
-167.866	233.969	-0.093	-0.152
-166.852	169.654	0.583	0.825
-165.837	-200.000	0.100	0.497
-164.823	800.000	-0.093	0.286
-163.808	-4.261	-0.748	-0.512
-162.793	-200.000	0.079	0.461
-161.779	-89.163	0.180	0.052
-160.764	-119.464	0.183	0.031
-159.750	149.793	0.655	0.878
-158.735	-200.000	0.046	-0.540
-157.720	-58.114	0.574	-0.247
-156.706	47.797	-0.401	-0.370
-155.691	149.829	0.262	0.352
-154.677	-19.922	0.687	0.420
-153.662	-5.375	0.469	-0.319
-152.647	499.933	-0.168	-0.384
-151.633	800.000	0.217	-0.646
-150.618	-25.111	0.344	0.202
-149.604	-124.634	0.850	-0.130
-148.589	-103.782	1.213	-0.281
-147.574	335.554	-0.382	0.732
-146.560	103.610	-0.678	-0.787
-145.545	-200.000	0.045	-0.462
-144.531	173.394	0.144	0.205
-143.516	100.996	-0.185	-0.213
-142.502	-84.073	-0.684	-0.215
-141.487	-16.769	-0.251	-0.157
-140.472	-173.779	-0.679	-0.020
-139.458	-200.000	-0.011	-0.218
-138.443	-65.998	-0.203	-0.080
-137.429	-200.000	-0.246	-1.398
-136.414	-200.000	0.067	0.583
-135.399	68.988	-0.104	0.106
-134.385	11.551	0.804	0.609
-133.370	-8.984	0.105	0.070
-132.356	-99.380	0.423	-0.105
-131.341	-101.433	-0.584	0.141
-130.326	-131.613	0.245	0.032
-129.312	800.000	-0.099	-0.291
-128.297	53.810	-0.609	0.578
-127.283	-137.822	0.182	0.020
-126.268	-200.000	-0.061	-0.273
-125.253	242.027	0.104	0.171
-124.239	-200.000	0.082	-0.474
-123.224	26.308	0.333	-0.275
-122.210	-114.543	-0.283	-0.054
-121.195	-200.000	0.001	0.718
-120.180	-31.258	0.139	0.077
-119.166	-200.000	0.117	0.614
-118.151	800.000	0.161	0.464
-117.137	73.493	-0.428	-0.443
-116.122	-142.458	-0.964	-0.094
-115.107	30.846	-0.394	-0.333
-114.093	-200.000	0.051	-0.398
-113.078	653.101	-0.379	0.959
-112.064	-7.184	0.835	-0.559
-111.049	800.000	-0.034	0.141
-110.034	26.151	-0.545	0.449
-109.020	-146.476	-0.820	-0.071
-108.005	-92.484	0.586	-0.163
-106.991	800.000	-0.160	-0.437
-105.976	-42.545	0.255	-0.128
-104.962	-22.424	0.406	0.242
-103.947	-60.245	0.115	0.048
-102.932	-141.203	0.430	-0.043
-101.918	148.906	-0.547	0.730
-100.903	402.083	-0.196	-0.406
-99.889	-16.397	-0.467	0.292
-98.874	709.625	0.262	0.684
-97.859	19.395	-0.209	0.166
-96.845	0.643	0.478	-0.338
-95.830	-149.632	0.370	-0.029
-94.816	300.294	0.132	0.241
-93.801	587.222	0.375	0.911
-92.786	-200.000	0.102	-0.542
-91.772	116.331	-0.186	0.225
-90.757	800.000	0.122	0.498
-89.743	-200.000	0.033	0.283
-88.728	-200.000	-0.019	0.319
-87.713	-6.493	0.572	0.384
-86.699	-6.973	0.349	-0.234
-85.684	140.491	0.370	-0.482
-84.670	-3.411	-0.329	-0.226
-83.655	78.606	0.310	-0.327
-82.640	59.476	0.433	0.421
-81.626	151.832	-0.380	-0.511
-80.611	-74.943	-0.849	-0.300
-79.597	401.796	0.299	0.620
-78.582	534.271	0.197	0.461
-77.567	-42.725	0.401	-0.201
-76.553	289.033	0.423	-0.756
-75.538	800.000	-0.060	-0.187
-74.524	800.000	-0.222	0.824
-73.509	-200.000	0.202	1.318
-72.494	255.097	-0.217	0.366
-71.480	190.024	0.151	0.223
-70.465	-137.251	-0.232	0.026
-69.451	-151.906	-0.880	0.063
-68.436	-200.000	0.187	-0.995
-67.422	-200.000	-0.048	-0.803
-66.407	800.000	0.109	-0.331
-65.392	88.578	0.164	0.179
-64.378	555.555	-0.371	-0.880
-63.363	-130.022	0.151	-0.020
-62.349	46.280	-0.566	-0.517
-61.334	86.226	-0.830	-0.901
-60.319	473.690	-0.054	0.119
-59.305	800.000	-0.305	-1.101
-58.290	288.311	0.936	1.670
-57.276	402.078	0.679	1.406
-56.261	-200.000	95.421	573.331
-55.246	635.587	1376.686	3443.373
-54.232	197.725	2550.377	3838.969
-53.217	117.630	2136.389	2591.003
-52.203	45.258	1600.402	1454.296
-51.188	37.288	1340.842	1170.603
-50.173	34.083	1298.896	1115.182
-49.159	57.535	1349.128	1298.834
-48.144	58.624	1365.879	1321.398
-47.130	37.410	1322.620	1155.235
-46.115	33.902	1305.061	1119.234
-45.100	33.725	1300.303	1114.069
-44.086	33.698	1297.921	1111.826
-43.071	33.705	1294.902	1109.235
-42.057	33.523	1294.075	1107.421
-41.042	33.865	1292.143	1107.717
-40.027	33.563	1291.145	1105.057
-39.013	33.426	1288.735	1102.154
-37.998	33.635	1287.055	1101.889
-36.984	33.369	1285.617	1099.072
-35.969	33.632	1284.277	1099.403
-34.954	33.540	1283.719	1098.349
-33.940	33.603	1280.694	1096.082
-32.925	33.638	1280.848	1096.376
-31.911	33.785	1278.382	1095.069
-30.896	33.788	1277.431	1094.226
-29.881	33.807	1276.072	1093.132
-28.867	33.797	1274.290	1091.505
-27.852	33.462	1273.805	1089.116
-26.838	33.708	1272.096	1089.023
-25.823	34.064	1269.557	1088.844
-24.809	34.021	1268.292	1087.476
-23.794	33.752	1267.859	1085.520
-22.779	33.735	1266.353	1084.093
-21.765	33.583	1264.770	1081.828
-20.750	33.720	1263.430	1081.419
-19.736	33.419	1263.168	1079.434
-18.721	33.799	1261.062	1079.757
-17.706	33.630	1259.811	1077.679
-16.692	33.666	1259.055	1077.194
-15.677	33.604	1257.674	1075.620
-14.663	33.507	1256.788	1074.266
-13.648	33.516	1255.950	1073.559
-12.633	33.545	1254.237	1072.215
-11.619	33.418	1253.570	1070.886
-10.604	33.588	1254.016	1072.188
-9.590	33.651	1252.124	1070.883
-8.575	33.499	1251.259	1069.243
-7.560	33.480	1250.507	1068.449
-6.546	33.422	1250.162	1067.788
-5.531	33.686	1247.715	1067.136
-4.517	33.413	1248.535	1066.262
-3.502	33.655	1246.680	1065.994
-2.487	33.165	1247.628	1064.009
-1.473	33.849	1241.024	1062.160
-0.458	32.025	1226.349	1039.469
0.556	28.805	1209.285	999.703
1.571	24.980	1213.472	982.150
2.586	24.014	1227.803	988.301
3.600	22.957	1217.784	974.323
4.615	17.259	1144.325	885.860
5.629	7.446	1068.715	779.266
6.644	3.403	1047.852	744.486
7.659	2.838	1045.612	740.106
8.673	2.738	1043.371	737.973
9.688	2.664	1042.732	737.104
10.702	3.048	1041.655	738.120
11.717	9.037	1050.020	772.895
12.731	18.814	1063.797	830.459
13.746	24.364	1072.195	863.902
14.761	25.894	1073.503	872.290
15.775	26.066	1072.135	871.933
16.790	25.937	1070.446	869.857
17.804	26.315	1069.798	871.078
18.819	25.911	1070.591	869.700
19.834	25.987	1070.357	869.795
20.848	26.289	1069.869	870.781
21.863	25.962	1070.567	869.695
22.877	25.766	1069.395	867.719
23.892	26.001	1068.247	867.843
24.907	25.984	1068.378	867.790
25.921	26.159	1065.962	866.590
26.936	25.874	1065.708	864.940
27.950	26.199	1062.827	864.081
28.965	25.942	1061.767	861.915
29.980	25.932	1060.204	860.523
30.994	26.307	1059.838	861.940
32.009	26.259	1058.796	860.786
33.023	25.840	1058.262	858.277
34.038	25.901	1057.422	857.814
35.053	26.233	1056.425	858.507
36.067	25.943	1055.408	856.225
37.082	26.187	1055.219	857.157
38.096	26.099	1054.385	855.984
39.111	26.502	1053.134	856.804
40.126	26.279	1051.749	854.544
41.140	25.856	1050.247	851.253
42.155	25.967	1048.632	850.393
43.169	25.681	1048.476	848.842
44.184	25.653	1046.917	847.369
45.199	25.382	1046.557	845.731
46.213	25.863	1045.299	846.898
47.228	25.846	1045.516	846.919
48.242	25.851	1044.277	845.865
49.257	26.022	1042.720	845.331
50.271	25.949	1043.338	845.416
51.286	26.319	1040.617	844.864
52.301	26.455	1039.326	844.377
53.315	26.061	1039.675	842.747
54.330	26.159	1038.496	842.173
55.344	25.989	1037.653	840.621
56.359	25.707	1037.396	839.024
57.374	25.696	1036.642	838.291
58.388	26.169	1035.777	839.719
59.403	25.975	1034.904	838.034
60.417	25.545	1034.239	835.422
61.432	25.643	1032.801	834.640
62.447	25.798	1032.963	835.416
63.461	25.835	1032.569	835.198
64.476	25.837	1031.593	834.344
65.490	25.512	1030.691	832.037
66.505	25.837	1028.987	832.088
67.520	25.760	1029.125	831.772
68.534	25.712	1026.871	829.654
69.549	25.175	1027.090	827.279
70.563	25.326	1026.051	827.065
71.578	25.265	1025.706	826.434
72.593	25.323	1023.799	825.090
73.607	25.380	1023.659	825.169
74.622	25.776	1023.856	827.074
75.636	25.752	1023.087	826.269
76.651	25.569	1021.880	824.383
77.666	25.547	1021.183	823.646
78.680	25.654	1020.813	823.763
79.695	25.798	1020.165	823.826
80.709	25.975	1019.106	823.705
81.724	25.798	1017.878	821.837
82.739	25.937	1017.331	821.953
83.753	26.118	1017.005	822.440
84.768	26.382	1016.943	823.524
85.782	26.465	1015.463	822.627
86.797	26.437	1014.685	821.797
87.812	26.184	1014.485	820.412
88.826	26.154	1013.146	819.122
89.841	26.321	1012.274	819.104
90.855	26.124	1011.323	817.366
91.870	26.233	1010.273	816.939
92.884	26.278	1008.900	815.959
93.899	26.034	1008.309	814.310
94.914	26.354	1007.170	814.760
95.928	26.387	1006.260	814.102
96.943	25.976	1005.456	811.529
97.957	25.789	1003.832	809.307
98.972	25.684	1003.400	808.415
99.987	25.951	1002.580	808.880
101.001	25.976	1001.451	808.008
102.016	26.220	1000.285	808.091
103.030	26.012	1000.030	806.881
104.045	26.003	998.189	805.283
105.060	25.637	998.141	803.541
106.074	25.626	998.062	803.357
107.089	26.252	995.923	804.352
108.103	26.339	995.230	804.108
109.118	25.859	994.364	801.205
110.133	25.731	993.850	800.150
111.147	25.734	992.225	798.785
112.162	25.681	991.482	797.880
113.176	25.923	990.315	797.941
114.191	25.980	989.735	797.655
115.206	25.521	989.208	795.130
116.220	25.354	988.537	793.784
117.235	25.578	987.558	793.914
118.249	25.572	986.804	793.212
119.264	25.525	985.538	791.917
120.279	25.292	985.717	790.963
121.293	25.754	984.151	791.671
122.308	25.530	983.367	789.986
123.322	25.460	982.902	789.234
124.337	25.248	981.396	787.026
125.352	24.817	979.854	783.832
126.366	24.841	978.805	783.027
127.381	25.882	978.641	787.380
128.395	25.886	978.714	787.384
129.410	26.108	976.934	786.851
130.424	25.783	976.989	785.408
131.439	25.930	976.388	785.497
132.454	25.949	975.757	785.001
133.468	25.793	974.277	783.065
134.483	26.200	972.968	783.711
135.497	26.575	972.703	785.056
136.512	26.075	972.126	782.353
137.527	26.139	971.634	782.162
138.541	26.083	971.164	781.474
139.556	26.287	969.589	781.020
140.570	26.385	968.663	780.628
141.585	26.238	968.049	779.427
142.600	26.156	967.448	778.525
143.614	26.940	965.443	780.210
144.629	26.512	966.024	778.771
145.643	26.471	963.896	776.809
146.658	26.418	962.678	775.531
147.673	26.172	962.555	774.310
148.687	26.304	961.373	773.859
149.702	25.771	960.692	770.959
150.716	25.813	959.878	770.417
151.731	26.452	958.348	771.849
152.746	26.525	958.355	772.096
153.760	26.433	958.165	771.482
154.775	26.402	957.480	770.733
155.789	26.650	956.034	770.553
156.804	26.135	955.695	768.025
157.819	26.418	955.527	769.022
158.833	26.430	953.671	767.511
159.848	26.806	952.117	767.786
160.862	26.511	951.915	766.304
161.877	26.623	950.478	765.554
162.892	26.674	949.462	764.884
163.906	26.787	948.622	764.617
164.921	26.285	948.556	762.380
165.935	26.387	947.066	761.541
166.950	26.458	945.965	760.891
167.964	26.455	945.258	760.239
168.979	26.139	945.093	758.712
169.994	26.435	943.678	758.752
171.008	26.547	942.782	758.435
172.023	26.816	941.275	758.278
173.037	26.441	940.582	756.085
174.052	25.912	940.454	753.707
175.067	26.133	939.732	753.982
176.081	26.206	939.062	753.685
177.096	26.338	937.366	752.806
178.110	25.962	936.649	750.600
179.125	25.568	936.875	749.073
180.140	25.727	936.279	749.190
181.154	26.007	935.693	749.821
182.169	26.255	936.440	751.384
183.183	26.360	935.512	751.011
184.198	26.251	934.424	749.615
185.213	26.392	933.901	749.717
186.227	26.679	933.219	750.291
187.242	26.421	932.511	748.587
188.256	26.503	931.801	748.291
189.271	26.254	931.771	747.171
190.286	26.495	929.261	746.087
191.300	25.423	928.585	741.057
192.315	24.670	926.749	736.426
193.329	24.639	926.422	735.971
194.344	25.546	928.299	741.139
195.359	26.361	927.130	743.494
196.373	26.724	926.665	744.545
197.388	26.160	926.017	741.643
198.402	26.620	925.284	742.877
199.417	26.207	924.885	740.798
200.432	26.089	923.807	739.389
201.446	26.086	922.959	738.632
202.461	26.174	922.744	738.754
203.475	24.763	922.070	732.374
204.490	24.318	919.947	728.806
205.504	25.289	920.318	733.003
206.519	26.232	919.853	736.415
207.534	26.299	919.113	736.030
208.548	26.451	919.095	736.569
209.563	26.028	919.409	735.033
210.577	25.953	917.824	733.393
211.592	26.538	917.586	735.519
212.607	26.323	916.946	734.068
213.621	26.343	916.764	733.939
214.636	26.436	915.664	733.370
215.650	26.396	914.771	732.429
216.665	26.576	914.696	733.032
217.680	26.673	913.528	732.422
218.694	26.064	912.824	729.332
219.709	26.163	910.616	727.902
220.723	26.233	911.232	728.612
221.738	26.242	911.072	728.458
222.753	26.135	910.420	727.439
223.767	26.453	909.281	727.744
224.782	26.565	909.729	728.490
225.796	26.713	908.158	727.763
226.811	26.012	907.137	724.066
227.826	25.202	906.602	720.322
228.840	25.459	905.690	720.565
229.855	25.412	904.734	719.552
230.869	25.637	903.784	719.636
231.884	25.447	904.240	719.174
232.899	26.261	904.041	722.208
233.913	26.358	902.717	721.474
234.928	26.287	902.833	721.219
235.942	26.013	901.692	719.152
236.957	25.888	901.020	718.054
237.972	25.644	900.254	716.407
238.986	26.208	900.167	718.521
240.001	25.948	899.722	717.068
241.015	26.210	897.840	716.544
242.030	26.149	899.000	717.161
243.045	26.078	898.493	716.414
244.059	26.473	897.634	717.231
245.074	26.267	897.087	715.913
246.088	25.883	896.353	713.744
247.103	26.454	894.780	714.686
248.117	26.949	894.987	716.743
249.132	27.134	895.073	717.479
250.147	27.163	894.783	717.297
251.161	27.263	894.264	717.212
252.176	26.995	894.249	716.079
253.190	27.504	891.938	716.169
254.205	27.197	893.060	715.797
255.220	27.597	891.883	716.362
256.234	27.126	891.476	714.121
257.249	27.058	890.021	712.627
258.263	26.967	890.001	712.191
259.278	27.065	888.961	711.679
260.293	27.371	888.615	712.537
261.307	27.118	887.852	710.873
262.322	27.052	887.266	710.082
263.336	25.978	886.164	704.942
264.351	25.146	883.992	699.906
265.366	25.501	883.821	701.094
266.380	26.376	884.996	705.379
267.395	27.013	883.135	706.312
268.409	27.035	881.546	705.064
269.424	26.915	882.327	705.160
270.439	27.270	881.585	705.883
271.453	26.908	881.117	704.043
272.468	27.146	880.896	704.724
273.482	27.279	880.550	704.900
274.497	27.161	878.766	702.956
275.512	26.490	879.167	700.615
276.526	26.925	878.028	701.329
277.541	26.779	878.530	701.103
278.555	26.823	876.808	699.838
279.570	26.743	876.265	699.032
280.585	27.107	876.082	700.228
281.599	26.768	874.815	697.850
282.614	26.360	872.994	694.765
283.628	26.240	873.827	694.907
284.643	27.015	872.352	696.646
285.657	26.134	871.845	692.799
286.672	25.660	871.562	690.694
287.687	26.475	871.824	693.967
288.701	26.608	870.374	693.262
289.716	26.409	869.893	692.058
290.730	26.277	869.277	691.002
291.745	26.029	868.167	689.110
292.760	26.074	868.906	689.807
293.774	27.325	868.858	694.488
294.789	27.436	869.029	694.987
295.803	27.708	867.840	695.009
296.818	27.555	867.830	694.358
297.833	27.147	866.835	691.945
298.847	26.668	866.146	689.514
299.862	27.582	864.641	691.726
300.876	27.738	864.762	692.353
301.891	27.709	864.770	692.187
302.906	27.437	863.258	689.887
303.920	27.431	862.572	689.253
304.935	27.837	862.749	690.869
305.949	27.452	862.364	689.043
306.964	27.364	860.819	687.418
307.979	27.258	861.554	687.542
308.993	27.461	860.872	687.703
310.008	27.716	859.765	687.719
311.022	27.261	859.451	685.695
312.037	27.695	858.721	686.685
313.052	27.122	856.914	683.024
314.066	26.102	856.136	678.513
315.081	26.001	855.304	677.413
316.095	26.782	855.288	680.272
317.110	27.530	854.806	682.633
318.125	26.443	854.533	678.281
319.139	25.345	852.668	672.629
320.154	25.411	851.641	672.008
321.168	26.073	852.603	675.186
322.183	26.771	852.460	677.622
323.197	26.805	853.868	678.808
324.212	27.579	851.733	679.940
325.227	27.365	851.513	678.906
326.241	27.178	851.407	678.064
327.256	26.954	850.224	676.227
328.270	27.263	848.863	676.233
329.285	26.841	848.578	674.377
330.300	26.772	847.638	673.317
331.314	26.604	848.335	673.185
332.329	26.998	848.203	674.484
333.343	27.418	847.423	675.365
334.358	27.339	846.952	674.634
335.373	27.832	845.552	675.283
336.387	27.825	846.045	675.592
337.402	28.174	845.813	676.638
338.416	28.379	845.047	676.722
339.431	27.990	845.097	675.265
340.446	28.114	845.807	676.232
341.460	28.065	844.106	674.632
342.475	27.704	843.824	673.016
343.489	28.075	843.531	674.090
344.504	28.086	843.437	673.994
345.519	28.019	844.164	674.270
346.533	28.235	842.328	673.539
347.548	28.597	841.556	674.193
348.562	28.272	841.582	672.957
349.577	28.032	841.142	671.667
350.592	28.218	839.795	671.214
351.606	28.042	839.183	670.019
352.621	27.843	838.997	669.084
353.635	27.816	838.320	668.384
354.650	27.156	836.297	664.300
355.665	26.567	835.081	661.127
356.679	26.975	834.134	661.807
357.694	27.037	834.742	662.454
358.708	27.239	833.884	662.451
359.723	27.423	833.782	662.984
360.738	27.478	833.831	663.162
361.752	27.823	833.707	664.262
362.767	28.215	832.864	664.954
363.781	28.504	832.141	665.369
364.796	28.754	831.572	665.761
365.810	28.888	830.665	665.461
366.825	28.657	831.060	664.881
367.840	28.069	830.665	662.378
368.854	27.888	829.642	660.849
369.869	27.588	830.075	660.049
370.883	27.938	828.470	659.980
371.898	28.148	828.609	660.791
372.913	28.136	827.994	660.197
373.927	28.068	827.788	659.729
374.942	28.070	827.330	659.314
375.956	28.251	826.929	659.586
376.971	28.256	826.539	659.236
377.986	28.552	826.230	659.996
379.000	28.485	825.167	658.850
380.015	28.444	824.487	658.099
381.029	28.163	825.156	657.565
382.044	28.586	824.626	658.602
383.059	28.826	823.186	658.255
384.073	28.484	822.597	656.500
385.088	28.636	821.524	656.131
386.102	28.388	820.743	654.562
387.117	28.309	820.290	653.863
388.132	28.453	818.808	653.135
389.146	27.628	818.582	649.959
390.161	27.248	820.232	649.851
391.175	27.892	819.265	651.328
392.190	28.156	816.927	650.350
393.205	26.686	815.089	643.612
394.219	25.494	812.912	637.610
395.234	25.436	812.596	637.100
396.248	26.546	814.751	642.678
397.263	28.009	815.735	648.593
398.278	28.104	814.729	648.071
399.292	27.874	814.351	646.896
400.307	27.420	813.390	644.471
401.321	27.865	813.671	646.213
402.336	28.302	812.965	647.137
403.350	29.002	813.196	649.740
404.365	29.059	812.823	649.583
405.380	28.899	813.988	649.892
406.394	29.427	812.368	650.401
407.409	28.892	812.291	648.396
408.423	29.197	812.321	649.440
409.438	29.347	812.014	649.665
410.453	29.521	810.710	649.176
411.467	29.279	810.258	647.906
412.482	29.125	810.820	647.758
413.496	29.431	809.763	647.931
414.511	29.259	809.297	646.895
415.526	29.042	808.154	645.165
416.540	28.977	808.496	645.152
417.555	28.801	807.943	644.036
418.569	29.429	806.573	645.085
419.584	28.799	806.843	643.040
420.599	28.569	806.559	641.949
421.613	159.081	1371.034	1792.855
422.628	138.240	1453.286	1792.883
