DTS Sentinel unit serial number:	SN413079Multiplexer serial number:	ORYXHardware model number:	OX4-SRSoftware version number:	ORYX F/W v4.00 Oryx Data Collector v3.7.2.0data status	okinstallation	princeton_trtdifferential loss correction	single-endedforward channel	channel 1reverse channel	N/Adate	2019/09/12time	06:20:11forward acquisition time	60.00reverse acquisition time	0.00gamma	496.2192k internal	0.2320k external	0.2320temperature offset calibration	1.0048default loss term (dB/km)	0.3790temperature slope calibration	1.0000multiplexer offset coefficient	1.0000multiplexer slope coefficient	1.0000fibre end	0.00T internal ref (°C)	32.12T ext. ref 1 (°C)	1.58T ext. ref 2 (°C)	27.41length (m)	temperature (°C)	Stokes	anti-Stokes-747.200	401.787	0.037	-0.078
-746.185	161.652	-0.064	0.091
-745.171	-48.041	0.355	-0.173
-744.156	-200.000	0.041	0.395
-743.142	-200.000	0.007	0.216
-742.127	45.466	0.207	0.193
-741.112	795.608	-0.076	0.211
-740.098	-199.297	-0.357	0.002
-739.083	-159.988	0.435	0.024
-738.069	-200.000	-0.021	0.290
-737.054	-102.346	-0.247	-0.060
-736.039	-34.862	-0.394	0.218
-735.025	-122.314	0.407	0.067
-734.010	420.898	0.047	-0.103
-732.996	-153.117	-0.087	-0.006
-731.981	28.187	0.110	-0.094
-730.966	-200.000	-0.061	0.296
-729.952	322.126	0.123	-0.236
-728.937	-200.000	0.012	-0.147
-727.923	-35.628	-0.175	0.096
-726.908	204.273	0.238	-0.373
-725.894	623.547	0.118	-0.301
-724.879	-200.000	-0.002	-0.203
-723.864	-149.238	0.136	-0.011
-722.850	-200.000	0.011	0.075
-721.835	-134.427	-0.176	0.022
-720.821	-200.000	0.026	-0.279
-719.806	-22.257	-0.222	0.136
-718.791	34.542	0.194	-0.171
-717.777	-200.000	-0.021	0.196
-716.762	-150.130	-0.125	0.010
-715.748	800.000	0.059	-0.193
-714.733	-9.691	-0.271	-0.182
-713.718	-58.695	0.164	0.072
-712.704	-200.000	-0.041	-0.186
-711.689	-152.227	0.106	-0.008
-710.675	-150.521	-0.489	0.038
-709.660	-129.460	0.174	-0.024
-708.645	800.000	0.098	0.279
-707.631	37.757	0.133	0.120
-706.616	800.000	-0.088	-0.293
-705.602	-74.771	0.268	-0.097
-704.587	52.677	-0.176	-0.170
-703.572	43.439	-0.043	-0.040
-702.558	800.000	0.078	0.309
-701.543	-49.132	0.199	-0.096
-700.529	-200.000	0.022	0.146
-699.514	-148.458	0.307	0.025
-698.499	56.444	0.077	-0.075
-697.485	-47.744	0.179	0.088
-696.470	800.000	0.029	0.089
-695.456	196.120	-0.130	0.199
-694.441	-200.000	-0.025	-0.120
-693.426	95.477	0.092	0.106
-692.412	354.071	0.181	-0.362
-691.397	-105.989	-0.326	-0.074
-690.383	12.689	0.191	0.149
-689.368	83.146	0.046	-0.051
-688.354	30.303	-0.061	-0.053
-687.339	121.357	-0.129	-0.163
-686.324	-101.552	0.201	-0.049
-685.310	-26.484	0.106	0.063
-684.295	-200.000	-0.028	0.265
-683.281	320.133	-0.074	-0.141
-682.266	408.578	-0.117	0.251
-681.251	-200.000	-0.037	0.179
-680.237	-170.471	-0.307	0.011
-679.222	-200.000	-0.026	-0.254
-678.208	800.000	-0.067	-0.262
-677.193	503.530	-0.063	-0.148
-676.178	-83.918	0.111	0.036
-675.164	800.000	0.017	0.065
-674.149	-56.518	0.238	0.107
-673.135	173.931	0.216	-0.315
-672.120	-89.647	-0.133	-0.039
-671.105	-154.521	0.117	0.008
-670.091	-20.965	0.059	0.037
-669.076	456.702	0.062	0.140
-668.062	281.881	0.116	0.210
-667.047	-200.000	0.005	-0.547
-666.032	-81.790	0.216	-0.071
-665.018	-62.909	0.019	-0.008
-664.003	-9.595	-0.187	-0.126
-662.989	41.562	0.171	0.156
-661.974	-151.155	0.191	-0.014
-660.959	-40.240	-0.091	0.048
-659.945	239.638	-0.045	0.076
-658.930	233.512	0.210	-0.348
-657.916	-53.280	-0.035	0.016
-656.901	13.530	-0.075	0.059
-655.886	-74.546	0.266	0.097
-654.872	66.769	-0.177	-0.182
-653.857	-200.000	0.018	-0.145
-652.843	-108.251	-0.115	-0.025
-651.828	-51.149	0.157	0.074
-650.814	-81.830	0.326	-0.108
-649.799	-200.000	0.024	0.170
-648.784	165.318	-0.084	-0.120
-647.770	-129.776	0.414	0.057
-646.755	86.632	0.103	0.115
-645.741	-200.000	0.029	0.224
-644.726	-110.528	-0.285	0.059
-643.711	536.048	0.083	0.197
-642.697	-85.658	-0.184	-0.058
-641.682	16.124	-0.161	-0.128
-640.668	242.949	-0.110	-0.185
-639.653	-200.000	-0.033	0.285
-638.638	-133.868	-0.182	-0.023
-637.624	21.926	0.242	-0.199
-636.609	-119.645	0.422	-0.073
-635.595	-139.669	0.455	-0.049
-634.580	-200.000	-0.014	0.176
-633.565	-88.835	-0.193	-0.058
-632.551	800.000	-0.063	-0.209
-631.536	-102.257	-0.247	0.060
-630.522	-60.516	-0.082	0.035
-629.507	165.312	-0.089	0.127
-628.492	-200.000	0.026	-0.159
-627.478	-200.000	-0.017	0.507
-626.463	248.711	-0.127	-0.217
-625.449	70.302	-0.041	-0.043
-624.434	21.480	-0.143	0.117
-623.419	244.586	-0.138	0.233
-622.405	-63.023	-0.220	-0.091
-621.390	800.000	0.042	-0.172
-620.376	324.035	-0.041	-0.080
-619.361	-200.000	-0.003	-0.194
-618.346	-49.387	0.068	-0.032
-617.332	-181.311	-0.062	-0.001
-616.317	-200.000	-0.007	0.081
-615.303	-55.353	0.130	0.059
-614.288	47.111	0.127	-0.118
-613.273	-66.301	-0.106	-0.043
-612.259	-50.878	0.130	0.062
-611.244	-200.000	0.041	-0.202
-610.230	-73.050	0.295	0.109
-609.215	-11.451	-0.083	0.055
-608.201	787.452	-0.152	-0.421
-607.186	-28.675	0.081	-0.047
-606.171	-200.000	-0.009	0.244
-605.157	-32.888	-0.103	0.057
-604.142	-92.770	0.134	-0.038
-603.128	-200.000	0.001	-0.161
-602.113	173.119	0.113	-0.164
-601.098	-114.192	-0.024	-0.005
-600.084	-79.357	-0.133	0.045
-599.069	766.196	0.057	0.155
-598.055	545.632	-0.025	-0.060
-597.040	50.727	0.150	-0.143
-596.025	21.263	-0.132	-0.107
-595.011	-111.977	-0.345	-0.070
-593.996	-10.288	0.092	-0.061
-592.982	-80.236	0.115	-0.039
-591.967	148.294	0.012	-0.016
-590.952	800.000	-0.022	-0.085
-589.938	33.859	-0.118	0.104
-588.923	-158.888	-0.124	0.007
-587.909	-150.846	0.109	0.008
-586.894	67.405	-0.252	0.258
-585.879	597.593	0.106	0.265
-584.865	46.964	0.074	-0.069
-583.850	-200.000	0.031	0.329
-582.836	-110.023	0.357	0.075
-581.821	80.626	-0.293	-0.318
-580.806	54.406	0.218	0.211
-579.792	-16.941	-0.134	0.085
-578.777	91.328	0.159	0.179
-577.763	313.021	-0.092	-0.173
-576.748	108.122	-0.034	0.041
-575.733	-121.890	0.115	0.019
-574.719	-74.392	-0.078	-0.028
-573.704	25.144	-0.094	0.078
-572.690	-21.383	-0.074	0.046
-571.675	-200.000	-0.016	-0.132
-570.661	-75.262	0.234	0.084
-569.646	192.745	-0.090	-0.137
-568.631	424.201	-0.019	-0.042
-567.617	-59.202	-0.119	-0.051
-566.602	177.309	0.116	-0.170
-565.588	-200.000	0.015	-0.204
-564.573	-10.935	-0.242	-0.160
-563.558	-54.026	-0.128	-0.059
-562.544	652.281	0.067	-0.172
-561.529	559.107	0.056	-0.136
-560.515	244.324	-0.021	0.036
-559.500	-108.633	0.102	-0.022
-558.485	-181.862	-0.165	-0.003
-557.471	-7.641	-0.134	0.091
-556.456	6.994	0.239	-0.179
-555.442	-169.513	-0.285	-0.010
-554.427	-200.000	-0.034	-0.207
-553.412	800.000	0.114	-0.413
-552.398	77.610	-0.109	0.117
-551.383	78.273	0.324	-0.347
-550.369	-200.000	0.005	0.390
-549.354	-68.285	-0.165	-0.064
-548.339	439.782	-0.112	0.245
-547.325	17.262	-0.102	-0.081
-546.310	0.800	0.187	-0.135
-545.296	58.619	0.235	-0.231
-544.281	-116.280	-0.274	-0.051
-543.266	-200.000	-0.022	-0.252
-542.252	80.204	0.190	-0.205
-541.237	238.590	0.216	-0.361
-540.223	-94.090	-0.238	-0.066
-539.208	-4.397	-0.120	0.083
-538.193	800.000	0.085	-0.368
-537.179	164.445	0.251	-0.355
-536.164	372.473	-0.055	-0.112
-535.150	-47.735	-0.181	-0.088
-534.135	63.992	0.049	0.050
-533.121	388.535	0.274	0.569
-532.106	544.193	0.042	-0.101
-531.091	69.979	-0.207	0.214
-530.077	-41.533	0.177	0.091
-529.062	-2.527	0.096	0.067
-528.048	-107.285	0.339	-0.075
-527.033	-91.010	-0.200	0.057
-526.018	14.976	0.158	0.124
-525.004	800.000	0.049	0.146
-523.989	-200.000	0.016	-0.231
-522.975	-55.484	-0.215	-0.097
-521.960	-80.571	-0.061	-0.020
-520.945	64.915	0.168	-0.170
-519.931	-104.122	0.422	0.098
-518.916	800.000	-0.142	0.596
-517.902	34.792	0.142	0.125
-516.887	-31.804	-0.120	-0.067
-515.872	-45.963	0.187	-0.093
-514.858	29.539	0.221	-0.188
-513.843	6.827	-0.237	-0.177
-512.829	-144.474	0.098	-0.009
-511.814	617.987	-0.064	-0.162
-510.799	-70.339	0.227	0.086
-509.785	419.656	-0.034	0.073
-508.770	129.165	-0.212	0.271
-507.756	33.072	-0.151	-0.131
-506.741	257.717	0.114	-0.197
-505.726	10.521	0.243	-0.186
-504.712	235.321	-0.221	-0.365
-503.697	-200.000	0.028	0.158
-502.683	77.081	-0.257	0.274
-501.668	219.485	-0.033	0.053
-500.653	27.912	-0.046	0.038
-499.639	-85.670	-0.205	0.064
-498.624	800.000	-0.017	-0.074
-497.610	-64.262	0.410	-0.167
-496.595	-200.000	0.007	-0.385
-495.581	116.209	0.175	0.215
-494.566	-53.247	-0.172	0.079
-493.551	-200.000	0.045	-0.308
-492.537	-31.411	-0.275	0.155
-491.522	-200.000	0.028	-0.170
-490.508	-17.147	-0.366	0.231
-489.493	195.390	0.069	0.105
-488.478	3.001	0.141	0.103
-487.464	800.000	-0.099	0.415
-486.449	-200.000	-0.011	0.183
-485.435	-14.559	0.185	-0.119
-484.420	167.535	0.074	0.106
-483.405	-28.278	-0.190	-0.110
-482.391	800.000	0.042	0.125
-481.376	135.456	-0.060	-0.078
-480.362	39.424	0.142	0.127
-479.347	-126.695	-0.518	0.077
-478.332	142.087	0.017	0.023
-477.318	800.000	-0.084	-0.237
-476.303	-200.000	-0.036	0.265
-475.289	40.811	-0.071	0.064
-474.274	8.855	0.179	0.135
-473.259	-200.000	-0.032	0.445
-472.245	190.927	0.213	-0.321
-471.230	89.823	-0.338	0.378
-470.216	-200.000	-0.003	0.148
-469.201	28.237	-0.180	0.152
-468.186	-190.104	-0.145	0.002
-467.172	89.235	-0.121	-0.135
-466.157	-48.575	0.155	0.075
-465.143	-50.733	-0.157	0.074
-464.128	-21.852	0.061	0.037
-463.113	78.039	-0.279	0.298
-462.099	-200.000	0.048	-0.254
-461.084	40.710	-0.129	0.116
-460.070	96.789	0.047	0.054
-459.055	-112.435	0.076	-0.015
-458.040	219.014	-0.088	-0.140
-457.026	1.561	-0.112	-0.080
-456.011	330.079	0.101	0.193
-454.997	-52.497	-0.214	-0.099
-453.982	40.292	0.134	0.120
-452.968	-200.000	-0.040	-0.229
-451.953	441.544	0.170	-0.371
-450.938	13.946	-0.122	0.095
-449.924	-161.151	0.082	0.004
-448.909	330.065	-0.178	-0.343
-447.895	800.000	0.095	-0.354
-446.880	-121.998	0.138	-0.023
-445.865	-142.024	0.336	0.033
-444.851	-140.749	0.149	-0.015
-443.836	-100.174	0.104	-0.026
-442.822	20.782	0.183	0.148
-441.807	800.000	0.050	-0.144
-440.792	-30.127	-0.456	-0.259
-439.778	-144.157	-0.121	-0.011
-438.763	-200.000	0.028	0.216
-437.749	-12.790	0.181	0.118
-436.734	436.562	0.098	0.213
-435.719	95.322	0.255	-0.290
-434.705	31.814	0.218	-0.188
-433.690	70.611	0.079	-0.081
-432.676	105.624	-0.168	0.198
-431.661	35.200	-0.301	-0.264
-430.646	-60.502	-0.032	-0.014
-429.632	-200.000	0.004	0.036
-428.617	-80.813	-0.207	0.069
-427.603	-85.957	0.138	-0.043
-426.588	161.387	-0.148	-0.206
-425.573	-44.433	0.358	0.179
-424.559	101.302	0.047	-0.055
-423.544	-200.000	0.008	0.371
-422.530	-200.000	-0.013	-0.200
-421.515	236.321	0.093	0.154
-420.500	-58.577	-0.201	0.087
-419.486	180.502	0.186	-0.273
-418.471	169.161	0.175	0.249
-417.457	-49.379	-0.136	-0.065
-416.442	-70.244	0.164	-0.062
-415.428	-137.711	0.054	0.006
-414.413	-200.000	0.031	-0.163
-413.398	-200.000	-0.011	0.125
-412.384	-200.000	-0.001	0.309
-411.369	-47.171	-0.116	0.056
-410.355	369.303	0.049	-0.098
-409.340	-166.155	-0.049	0.002
-408.325	-57.308	-0.086	-0.038
-407.311	-200.000	-0.062	0.312
-406.296	-182.475	-0.062	0.001
-405.282	5.711	0.121	-0.089
-404.267	553.265	-0.128	-0.308
-403.252	-200.000	0.008	-0.556
-402.238	-200.000	0.047	-0.333
-401.223	-49.062	-0.430	-0.205
-400.209	-73.735	0.336	0.122
-399.194	-200.000	-0.008	0.512
-398.179	386.859	-0.119	-0.246
-397.165	-40.504	-0.164	-0.085
-396.150	386.976	0.063	0.130
-395.136	42.070	-0.303	0.274
-394.121	-60.502	0.284	-0.120
-393.106	-200.000	-0.016	0.589
-392.092	447.846	0.093	-0.204
-391.077	173.290	0.017	0.025
-390.063	33.476	-0.182	0.157
-389.048	-104.285	-0.229	0.053
-388.033	800.000	0.056	0.153
-387.019	-200.000	0.033	-0.148
-386.004	101.022	0.101	-0.117
-384.990	-116.151	-0.360	-0.067
-383.975	-200.000	-0.051	-0.329
-382.960	310.659	-0.166	-0.310
-381.946	102.206	0.133	0.155
-380.931	727.628	-0.057	0.152
-379.917	-184.486	-0.281	0.005
-378.902	-89.583	-0.298	0.087
-377.888	467.896	0.174	0.389
-376.873	-200.000	-0.015	-0.164
-375.858	-19.257	-0.278	0.172
-374.844	330.227	0.070	0.134
-373.829	13.519	-0.128	-0.099
-372.815	800.000	-0.017	-0.060
-371.800	-36.447	-0.143	-0.077
-370.785	-1.149	0.158	-0.111
-369.771	-79.977	-0.108	-0.036
-368.756	-82.953	-0.092	-0.030
-367.742	-30.218	0.234	-0.133
-366.727	-107.357	-0.250	0.055
-365.712	77.378	-0.216	-0.229
-364.698	-113.150	0.196	-0.039
-363.683	800.000	-0.033	-0.093
-362.669	800.000	-0.034	0.118
-361.654	-94.614	0.430	0.117
-360.639	186.431	-0.215	0.319
-359.625	235.725	0.167	-0.275
-358.610	-111.677	0.378	-0.076
-357.596	800.000	-0.067	-0.278
-356.581	-200.000	0.016	0.113
-355.566	-3.760	-0.136	0.094
-354.552	-159.362	0.061	0.003
-353.537	-98.181	-0.147	0.038
-352.523	14.439	0.306	0.238
-351.508	34.736	-0.456	0.397
-350.493	-22.612	-0.217	-0.130
-349.479	11.628	0.141	-0.107
-348.464	-200.000	-0.012	-0.197
-347.450	-60.815	-0.318	0.134
-346.435	501.670	-0.018	-0.042
-345.420	-200.000	0.040	-0.245
-344.406	-99.317	0.286	0.072
-343.391	644.828	-0.051	0.129
-342.377	100.060	0.018	-0.021
-341.362	-200.000	-0.063	0.324
-340.348	-200.000	-0.013	-0.220
-339.333	-87.819	0.242	0.072
-338.318	-98.365	0.325	-0.083
-337.304	-129.241	-0.098	0.014
-336.289	-98.416	0.324	0.083
-335.275	-76.344	-0.238	-0.083
-334.260	123.182	-0.130	0.162
-333.245	-87.220	-0.139	0.042
-332.231	28.600	0.097	0.082
-331.216	120.402	0.034	-0.042
-330.202	800.000	0.082	0.262
-329.187	34.445	0.170	0.148
-328.172	146.500	0.198	-0.265
-327.158	30.320	0.089	0.076
-326.143	32.009	0.114	-0.098
-325.129	800.000	0.051	0.157
-324.114	-19.935	-0.329	0.202
-323.099	-106.549	0.065	-0.014
-322.085	526.925	0.053	-0.124
-321.070	-84.836	0.338	-0.106
-320.056	-200.000	-0.022	0.299
-319.041	-146.686	-0.121	-0.010
-318.026	-85.362	0.150	-0.047
-317.012	-43.363	0.100	-0.050
-315.997	-114.008	0.238	-0.046
-314.983	190.037	0.089	-0.133
-313.968	-91.902	0.169	-0.048
-312.953	220.808	-0.122	0.195
-311.939	800.000	-0.021	-0.075
-310.924	-49.201	0.234	-0.111
-309.910	-200.000	0.029	-0.312
-308.895	-200.000	-0.007	-0.265
-307.880	-200.000	-0.065	0.405
-306.866	94.223	-0.166	-0.187
-305.851	-58.310	-0.099	-0.043
-304.837	3.222	0.339	0.245
-303.822	-200.000	0.035	0.335
-302.807	-102.367	0.037	-0.009
-301.793	-35.980	-0.064	0.034
-300.778	800.000	0.061	0.243
-299.764	-198.573	-0.321	-0.002
-298.749	134.012	-0.083	-0.107
-297.735	-200.000	0.027	0.334
-296.720	-123.518	0.208	0.033
-295.705	557.685	0.043	0.103
-294.691	-200.000	0.029	-0.152
-293.676	484.183	-0.076	-0.173
-292.662	800.000	-0.052	-0.189
-291.647	-200.000	-0.008	-0.059
-290.632	-122.349	0.184	-0.030
-289.618	-200.000	-0.003	-0.047
-288.603	-200.000	0.011	-0.119
-287.589	505.495	0.045	0.104
-286.574	-16.730	-0.229	-0.144
-285.559	-132.949	-0.650	0.082
-284.545	144.121	-0.022	-0.029
-283.530	39.888	0.028	-0.025
-282.516	14.664	0.092	0.071
-281.501	800.000	-0.035	-0.130
-280.486	-200.000	0.022	0.456
-279.472	-148.899	-0.399	-0.032
-278.457	-85.548	0.324	0.100
-277.443	800.000	0.131	0.370
-276.428	-60.910	-0.220	0.092
-275.413	-49.245	-0.160	-0.076
-274.399	334.439	0.108	-0.207
-273.384	-89.841	0.274	0.079
-272.370	-139.271	0.072	0.008
-271.355	35.860	-0.117	0.102
-270.340	-200.000	0.022	0.350
-269.326	57.901	-0.364	0.353
-268.311	-64.961	-0.380	-0.152
-267.297	-200.000	0.017	0.215
-266.282	-85.993	-0.047	0.014
-265.267	-156.020	0.142	-0.009
-264.253	132.634	-0.257	0.328
-263.238	-200.000	0.003	0.037
-262.224	800.000	-0.054	-0.158
-261.209	-103.573	-0.314	0.073
-260.195	-9.165	0.370	-0.245
-259.180	392.299	-0.055	-0.113
-258.165	202.088	-0.061	0.094
-257.151	-55.423	0.323	0.144
-256.136	800.000	0.035	0.122
-255.122	425.294	0.096	0.205
-254.107	-200.000	0.002	0.157
-253.092	-29.168	0.229	0.130
-252.078	-84.221	0.222	0.070
-251.063	-41.303	-0.097	-0.050
-250.049	-200.000	-0.006	0.047
-249.034	-200.000	-0.001	-0.154
-248.019	-78.004	0.135	-0.046
-247.005	-40.658	0.408	-0.210
-245.990	49.164	0.142	0.133
-244.976	81.606	-0.019	0.020
-243.961	-51.892	0.302	0.139
-242.946	128.783	-0.138	-0.175
-241.932	82.824	0.173	0.187
-240.917	800.000	0.082	0.325
-239.903	-85.349	0.313	-0.097
-238.888	-200.000	-0.314	0.000
-237.873	-35.271	0.165	0.089
-236.859	135.543	0.086	-0.111
-235.844	-38.785	0.090	-0.047
-234.830	-56.539	0.245	-0.107
-233.815	11.128	-0.125	0.095
-232.800	277.035	-0.064	-0.114
-231.786	161.791	-0.372	-0.516
-230.771	-79.381	0.070	-0.024
-229.757	-150.424	0.148	0.011
-228.742	134.562	0.087	0.111
-227.727	-108.551	0.163	-0.035
-226.713	24.342	-0.152	0.124
-225.698	72.541	-0.127	0.131
-224.684	-10.511	-0.176	-0.116
-223.669	598.797	0.029	-0.072
-222.655	-41.065	0.264	-0.135
-221.640	357.402	-0.200	-0.396
-220.625	45.371	-0.141	-0.129
-219.611	583.981	-0.144	-0.351
-218.596	-200.000	0.010	-0.105
-217.582	-200.000	0.002	-0.127
-216.567	211.567	0.101	0.157
-215.552	42.853	0.322	0.291
-214.538	52.901	0.143	0.135
-213.523	-129.317	-0.326	-0.045
-212.509	-200.000	-0.025	0.443
-211.494	260.627	-0.195	-0.333
-210.479	800.000	0.138	0.438
-209.465	-99.113	-0.143	0.036
-208.450	397.518	-0.080	0.165
-207.436	266.685	-0.137	-0.237
-206.421	-98.930	0.424	-0.107
-205.406	-168.500	0.205	-0.008
-204.392	-105.356	-0.326	-0.074
-203.377	-27.545	0.171	-0.098
-202.363	-200.000	0.085	-0.510
-201.348	16.722	0.141	0.110
-200.333	-11.185	-0.045	-0.029
-199.319	-4.887	0.292	0.199
-198.304	29.314	0.152	0.128
-197.290	800.000	-0.076	0.224
-196.275	-200.000	-0.050	-0.264
-195.260	-200.000	0.005	0.115
-194.246	24.929	0.286	-0.235
-193.231	-200.000	-0.042	-0.401
-192.217	-103.847	0.382	-0.088
-191.202	-96.348	-0.255	-0.067
-190.187	-125.732	-0.271	-0.041
-189.173	-200.000	-0.028	-0.205
-188.158	-80.612	0.087	0.029
-187.144	-71.881	-0.143	0.053
-186.129	102.990	-0.255	-0.295
-185.114	7.650	-0.110	-0.082
-184.100	-188.588	0.183	-0.002
-183.085	147.544	-0.234	0.312
-182.071	195.083	0.052	0.078
-181.056	-38.022	0.170	-0.089
-180.042	2.143	0.169	-0.121
-179.027	-17.621	-0.281	0.174
-178.012	-79.545	0.072	-0.024
-176.998	105.933	0.064	-0.075
-175.983	-127.142	-0.264	0.038
-174.969	800.000	0.084	0.298
-173.954	74.874	0.042	-0.044
-172.939	21.985	0.344	-0.278
-171.925	-200.000	0.020	-0.651
-170.910	404.772	-0.041	0.086
-169.896	33.557	0.171	0.146
-168.881	-23.471	-0.109	0.065
-167.866	167.600	-0.110	0.154
-166.852	800.000	-0.091	0.335
-165.837	-4.940	-0.350	0.238
-164.823	-153.291	-0.427	-0.029
-163.808	800.000	0.036	-0.132
-162.793	-200.000	0.011	0.112
-161.779	164.831	-0.151	0.210
-160.764	-60.532	-0.088	-0.037
-159.750	456.551	-0.038	-0.082
-158.735	-48.182	0.157	0.075
-157.720	640.379	-0.172	0.433
-156.706	-200.000	-0.037	-0.165
-155.691	-200.000	-0.014	-0.315
-154.677	-200.000	0.007	0.221
-153.662	53.819	0.221	0.210
-152.647	-127.873	0.171	0.024
-151.633	42.773	0.160	0.144
-150.618	225.695	-0.096	-0.153
-149.604	-200.000	-0.022	0.182
-148.589	-30.994	-0.469	-0.262
-147.574	-65.513	-0.184	-0.073
-146.560	1.000	-0.171	-0.121
-145.545	27.821	-0.099	-0.082
-144.531	641.973	-0.071	-0.179
-143.516	-29.030	-0.113	0.064
-142.502	207.844	0.161	-0.248
-141.487	-200.000	0.031	0.258
-140.472	-34.976	0.329	0.177
-139.458	17.546	-0.123	0.096
-138.443	-52.452	-0.012	0.005
-137.429	-200.000	0.010	-0.050
-136.414	159.254	-0.123	0.169
-135.399	-200.000	-0.021	0.202
-134.385	-200.000	0.004	-0.162
-133.370	-104.333	-0.077	-0.018
-132.356	-200.000	-0.018	-0.115
-131.341	-17.543	0.134	0.083
-130.326	-110.831	0.249	0.051
-129.312	-200.000	-0.026	0.204
-128.297	68.346	0.244	0.246
-127.283	383.932	0.129	-0.263
-126.268	-23.796	0.189	0.112
-125.253	-19.385	0.157	-0.096
-124.239	79.776	-0.136	-0.145
-123.224	-151.185	-0.132	0.010
-122.210	748.610	-0.034	0.092
-121.195	-200.000	-0.026	0.121
-120.180	-200.000	0.013	0.391
-119.166	-122.143	-0.382	0.062
-118.151	419.904	0.122	0.258
-117.137	800.000	0.068	0.256
-116.122	-200.000	0.011	0.185
-115.107	-57.252	-0.264	-0.115
-114.093	130.729	0.041	-0.052
-113.078	23.797	0.269	0.219
-112.064	800.000	0.038	0.129
-111.049	-200.000	-0.018	-0.083
-110.034	-79.539	0.246	-0.082
-109.020	759.185	-0.149	0.398
-108.005	545.321	0.077	0.182
-106.991	478.430	-0.052	-0.117
-105.976	-71.437	0.414	-0.153
-104.962	-39.817	-0.108	0.056
-103.947	-44.083	0.319	0.158
-102.932	-88.817	0.263	0.077
-101.918	35.927	-0.142	-0.124
-100.903	-200.000	-0.008	-0.102
-99.889	-56.807	-0.319	0.139
-98.874	-165.298	-0.119	0.005
-97.859	-145.040	-0.158	-0.014
-96.845	54.743	-0.099	0.095
-95.830	-92.445	-0.214	-0.059
-94.816	-200.000	0.026	0.174
-93.801	-61.922	0.225	-0.093
-92.786	456.658	-0.151	-0.330
-91.772	16.952	-0.265	-0.207
-90.757	383.033	0.113	0.230
-89.743	-200.000	-0.004	0.092
-88.728	-27.422	-0.090	0.052
-87.713	-45.919	-0.292	0.142
-86.699	800.000	0.124	-0.443
-85.684	-52.892	-0.112	0.051
-84.670	-159.747	-0.167	0.009
-83.655	-200.000	0.004	0.153
-82.640	800.000	0.022	0.079
-81.626	-200.000	-0.019	0.298
-80.611	-27.101	0.117	0.067
-79.597	96.309	0.115	0.129
-78.582	-200.000	-0.012	-0.178
-77.567	-33.338	0.063	0.035
-76.553	800.000	0.022	-0.073
-75.538	354.692	0.050	0.098
-74.524	541.688	-0.123	0.289
-73.509	-134.778	-0.170	0.020
-72.494	249.442	0.095	-0.158
-71.480	-200.000	0.032	-0.153
-70.465	-200.000	0.032	0.203
-69.451	22.183	-0.194	0.156
-68.436	800.000	0.114	0.315
-67.422	-200.000	-0.020	0.256
-66.407	-200.000	-0.027	0.231
-65.392	222.253	-0.104	0.165
-64.378	-104.146	0.281	0.064
-63.363	95.676	0.044	-0.049
-62.349	-191.713	0.017	-0.000
-61.334	4.819	-1.108	-0.802
-60.319	-1.887	0.500	0.346
-59.305	740.298	-0.371	-0.981
-58.290	160.894	0.674	0.926
-57.276	800.000	0.664	1.811
-56.261	-200.000	96.475	595.552
-55.246	565.643	1373.421	3278.427
-54.232	160.874	2551.331	3507.565
-53.217	113.219	2142.769	2558.324
-52.203	44.013	1604.536	1447.455
-51.188	35.596	1341.920	1159.955
-50.173	32.399	1300.815	1105.630
-49.159	54.519	1348.082	1278.513
-48.144	56.690	1364.226	1306.732
-47.130	35.786	1323.207	1144.725
-46.115	32.322	1305.465	1108.953
-45.100	32.003	1301.457	1103.624
-44.086	31.982	1298.263	1100.748
-43.071	32.012	1295.921	1098.897
-42.057	32.069	1293.632	1097.247
-41.042	32.063	1291.944	1095.733
-40.027	32.019	1291.068	1094.690
-39.013	32.071	1288.724	1092.967
-37.998	32.012	1286.913	1091.042
-36.984	32.153	1284.571	1089.829
-35.969	32.304	1283.099	1089.416
-34.954	32.132	1281.793	1087.269
-33.940	32.089	1280.394	1085.790
-32.925	32.216	1279.103	1085.384
-31.911	32.186	1277.188	1083.545
-30.896	32.034	1276.257	1081.832
-29.881	32.148	1274.753	1081.175
-28.867	32.289	1272.911	1080.377
-27.852	32.292	1271.974	1079.557
-26.838	32.283	1270.169	1077.929
-25.823	32.212	1269.295	1076.740
-24.809	32.091	1268.201	1075.076
-23.794	32.230	1266.573	1074.449
-22.779	32.265	1264.910	1073.192
-21.765	32.339	1263.814	1072.644
-20.750	32.176	1262.689	1070.715
-19.736	32.117	1261.159	1069.042
-18.721	32.109	1260.162	1068.110
-17.706	31.979	1259.210	1066.517
-16.692	31.928	1258.047	1065.202
-15.677	32.055	1256.548	1064.610
-14.663	32.134	1255.265	1063.927
-13.648	32.123	1254.349	1063.048
-12.633	32.126	1252.995	1061.874
-11.619	32.042	1252.991	1061.357
-10.604	32.078	1252.051	1060.723
-9.590	32.067	1250.658	1059.435
-8.575	31.998	1249.965	1058.419
-7.560	32.118	1248.640	1057.930
-6.546	32.079	1248.289	1057.373
-5.531	32.013	1247.528	1056.316
-4.517	32.087	1245.838	1055.256
-3.502	31.932	1245.858	1054.361
-2.487	32.059	1244.634	1053.997
-1.473	32.011	1240.441	1050.132
-0.458	30.690	1225.520	1030.154
0.556	27.209	1208.302	993.396
1.571	23.676	1214.396	978.879
2.586	22.800	1230.230	986.657
3.600	22.267	1218.852	974.496
4.615	15.754	1145.666	881.867
5.629	5.809	1069.059	773.951
6.644	1.908	1048.993	740.441
7.659	1.538	1047.182	737.305
8.673	1.471	1045.365	735.636
9.688	1.404	1043.954	734.254
10.702	1.717	1042.103	734.395
11.717	7.669	1050.117	768.841
12.731	17.684	1066.161	829.489
13.746	23.610	1072.664	863.397
14.761	24.765	1074.134	870.125
15.775	24.889	1073.671	870.276
16.790	24.784	1072.799	868.979
17.804	24.682	1071.976	867.741
18.819	24.881	1071.532	868.272
19.834	24.833	1071.703	868.102
20.848	24.957	1071.041	868.088
21.863	24.931	1070.368	867.340
22.877	24.910	1069.793	866.697
23.892	24.766	1069.398	865.602
24.907	24.863	1068.142	864.980
25.921	24.794	1067.174	863.783
26.936	24.966	1065.226	862.958
27.950	24.815	1063.941	861.117
28.965	24.746	1062.264	859.352
29.980	24.796	1060.681	858.234
30.994	25.008	1059.743	858.415
32.009	24.885	1059.429	857.495
33.023	24.661	1057.653	854.913
34.038	24.844	1056.840	855.054
35.053	24.835	1056.763	854.870
36.067	24.923	1055.865	854.492
37.082	25.022	1055.042	854.218
38.096	25.106	1054.502	854.106
39.111	25.205	1053.697	853.849
40.126	24.968	1052.112	851.365
41.140	24.714	1050.604	848.863
42.155	24.499	1048.865	846.363
43.169	24.568	1048.750	846.524
44.184	24.535	1047.105	844.965
45.199	24.392	1046.553	843.767
46.213	24.617	1045.515	843.920
47.228	24.729	1045.088	844.027
48.242	24.786	1044.133	843.453
49.257	24.870	1043.457	843.226
50.271	24.992	1042.574	843.011
51.286	24.875	1042.221	842.102
52.301	25.082	1040.408	841.534
53.315	24.945	1039.626	840.186
54.330	24.823	1039.386	839.347
55.344	24.933	1038.306	838.916
56.359	24.857	1037.652	837.955
57.374	24.689	1036.436	836.115
58.388	24.619	1035.834	835.226
59.403	24.621	1034.838	834.361
60.417	24.520	1034.064	833.189
61.432	24.640	1033.869	833.519
62.447	24.800	1032.611	833.177
63.461	24.611	1032.471	832.109
64.476	24.633	1030.833	830.818
65.490	24.496	1030.226	829.621
66.505	24.652	1029.517	829.699
67.520	24.623	1028.804	828.918
68.534	24.473	1027.757	827.305
69.549	24.114	1026.827	824.819
70.563	24.054	1026.318	824.061
71.578	24.067	1025.543	823.425
72.593	23.990	1024.044	821.794
73.607	24.043	1023.887	821.839
74.622	24.451	1023.623	823.437
75.636	24.405	1023.103	822.734
76.651	24.277	1021.869	821.081
77.666	24.327	1021.059	820.587
78.680	24.436	1020.063	820.212
79.695	24.348	1020.131	819.793
80.709	24.551	1019.031	819.769
81.724	24.408	1018.391	818.524
82.739	24.699	1017.506	819.076
83.753	24.875	1017.641	819.918
84.768	25.228	1016.720	820.716
85.782	25.182	1015.851	819.731
86.797	25.099	1014.827	818.455
87.812	25.014	1013.765	817.140
88.826	25.153	1013.038	817.115
89.841	25.189	1012.278	816.592
90.855	25.216	1010.683	815.356
91.870	25.071	1010.269	814.290
92.884	24.949	1009.356	812.931
93.899	24.768	1008.442	811.302
94.914	25.050	1007.914	812.080
95.928	24.859	1006.633	810.115
96.943	24.715	1005.119	808.174
97.957	24.460	1004.033	806.075
98.972	24.429	1002.964	805.009
99.987	24.724	1002.557	805.938
101.001	24.793	1001.806	805.575
102.016	24.827	1001.180	805.151
103.030	24.627	1000.451	803.594
104.045	24.645	999.363	802.732
105.060	24.499	998.304	801.155
106.074	24.756	997.641	801.705
107.089	25.069	996.921	802.458
108.103	24.963	995.609	800.855
109.118	24.688	994.550	798.706
110.133	24.563	993.927	797.574
111.147	24.503	992.525	796.111
112.162	24.292	991.838	794.553
113.176	24.663	991.124	795.559
114.191	24.490	990.133	793.926
115.206	24.177	989.378	791.856
116.220	24.093	988.709	790.879
117.235	24.310	987.818	791.058
118.249	24.341	986.890	790.382
119.264	24.122	986.501	789.030
120.279	24.270	985.777	789.039
121.293	24.415	984.666	788.720
122.308	24.313	984.093	787.741
123.322	24.230	982.701	786.193
124.337	24.246	981.264	785.042
125.352	23.590	979.676	780.817
126.366	23.552	979.073	780.100
127.381	24.358	979.050	783.555
128.395	24.745	978.884	785.051
129.410	24.935	977.733	784.894
130.424	24.875	976.558	783.619
131.439	24.799	975.804	782.611
132.454	24.879	975.031	782.270
133.468	24.706	974.124	780.718
134.483	24.882	973.384	780.822
135.497	24.989	972.373	780.412
136.512	25.172	971.226	780.214
137.527	25.053	970.723	779.227
138.541	25.138	970.296	779.185
139.556	24.986	969.574	777.877
140.570	25.197	968.735	778.047
141.585	25.151	967.914	777.122
142.600	25.026	966.657	775.504
143.614	25.299	965.936	776.034
144.629	25.405	965.391	775.986
145.643	25.178	964.102	773.902
146.658	25.064	962.728	772.242
147.673	24.921	961.436	770.522
148.687	24.794	961.054	769.602
149.702	24.761	959.595	768.220
150.716	24.930	958.709	768.171
151.731	25.005	958.056	767.898
152.746	25.272	957.286	768.359
153.760	25.172	957.225	767.815
154.775	25.283	956.086	767.307
155.789	25.249	954.849	766.099
156.804	25.287	954.567	765.968
157.819	25.181	954.035	765.021
158.833	25.418	953.242	765.329
159.848	25.490	951.861	764.457
160.862	25.283	950.813	762.669
161.877	25.323	950.075	762.178
162.892	25.330	949.121	761.376
163.906	25.023	948.288	759.341
164.921	25.259	946.985	759.230
165.935	25.220	946.486	758.595
166.950	25.273	945.440	757.914
167.964	25.349	944.446	757.369
168.979	25.178	943.287	755.654
169.994	25.054	942.743	754.629
171.008	25.312	941.997	755.050
172.023	25.194	941.635	754.197
173.037	25.041	940.346	752.456
174.052	24.850	939.570	750.967
175.067	25.065	938.480	750.930
176.081	25.209	937.914	751.015
177.096	25.075	937.697	750.212
178.110	24.748	936.349	747.699
179.125	24.547	936.041	746.547
180.140	24.682	935.483	746.600
181.154	24.749	935.362	746.719
182.169	24.909	935.483	747.418
183.183	25.391	934.608	748.662
184.198	25.115	933.868	746.851
185.213	25.175	932.915	746.275
186.227	25.221	932.447	746.026
187.242	25.241	931.603	745.366
188.256	25.193	931.131	744.726
189.271	25.324	930.647	744.814
190.286	24.780	930.004	741.977
191.300	24.456	927.902	738.897
192.315	23.584	926.393	734.022
193.329	23.595	925.946	733.649
194.344	24.350	926.389	737.058
195.359	25.022	926.512	739.864
196.373	25.096	926.200	739.855
197.388	24.947	925.469	738.593
198.402	25.306	923.983	738.820
199.417	25.146	923.819	737.966
200.432	24.961	922.635	736.193
201.446	24.673	922.056	734.482
202.461	24.817	921.798	734.804
203.475	23.971	919.842	729.712
204.490	23.108	918.478	725.028
205.504	24.188	918.430	729.350
206.519	24.773	918.631	731.837
207.534	24.666	918.391	731.145
208.548	25.123	918.215	732.810
209.563	24.857	917.187	730.838
210.577	24.948	916.393	730.512
211.592	25.256	916.430	731.733
212.607	25.407	915.276	731.361
213.621	25.399	914.657	730.771
214.636	25.369	913.836	729.927
215.650	25.243	913.206	728.848
216.665	25.358	912.904	729.007
217.680	25.315	912.171	728.183
218.694	24.802	911.009	725.113
219.709	24.595	910.471	723.781
220.723	25.030	909.718	724.880
221.738	25.219	909.083	725.075
222.753	25.142	908.430	724.180
223.767	25.294	907.939	724.337
224.782	25.403	907.894	724.676
225.796	25.295	907.194	723.618
226.811	24.694	905.721	719.961
227.826	24.174	904.377	716.734
228.840	24.255	904.178	716.841
229.855	24.284	903.225	716.138
230.869	24.020	902.057	714.091
231.884	24.373	902.896	716.107
232.899	25.159	902.462	718.854
233.913	25.066	901.472	717.626
234.928	24.870	901.621	716.899
235.942	24.938	900.737	716.401
236.957	24.638	899.848	714.432
237.972	24.588	899.220	713.672
238.986	24.805	898.328	713.767
240.001	24.853	897.619	713.333
241.015	24.900	897.816	713.614
242.030	25.032	896.701	713.187
243.045	25.240	896.652	713.915
244.059	25.222	896.069	713.314
245.074	24.963	895.127	711.474
246.088	24.705	894.385	709.796
247.103	25.083	893.579	710.594
248.117	25.501	894.219	712.697
249.132	25.754	893.435	713.013
250.147	25.999	892.788	713.402
251.161	26.013	892.684	713.310
252.176	26.013	891.917	712.634
253.190	26.115	891.428	712.584
254.205	26.162	891.118	712.457
255.220	26.284	890.067	712.034
256.234	26.062	889.215	710.417
257.249	26.029	888.608	709.740
258.263	26.057	888.039	709.330
259.278	25.893	887.733	708.382
260.293	26.013	887.046	708.238
261.307	25.902	886.255	707.112
262.322	25.904	885.269	706.270
263.336	25.133	883.600	701.860
264.351	24.094	881.888	696.377
265.366	24.049	881.614	695.921
266.380	25.176	882.392	700.880
267.395	25.735	881.657	702.416
268.409	25.639	881.283	701.683
269.424	25.789	880.685	701.729
270.439	25.677	879.973	700.663
271.453	25.984	879.474	701.399
272.468	26.033	879.375	701.449
273.482	25.999	878.844	700.828
274.497	25.743	877.371	698.600
275.512	25.384	876.811	696.700
276.526	25.793	876.820	698.232
277.541	25.777	876.224	697.634
278.555	25.619	875.278	696.208
279.570	25.562	874.714	695.477
280.585	25.874	874.027	696.074
281.599	25.517	873.193	693.973
282.614	25.027	871.840	690.945
283.628	25.241	871.506	691.444
284.643	25.499	871.442	692.325
285.657	25.006	870.227	689.403
286.672	24.744	869.505	687.763
287.687	25.465	869.350	690.348
288.701	25.438	868.843	689.781
289.716	25.093	867.981	687.713
290.730	25.128	867.124	687.108
291.745	24.759	866.023	684.761
292.760	25.012	866.402	685.969
293.774	26.240	866.684	690.833
294.789	26.471	866.145	691.225
295.803	26.433	865.994	690.899
296.818	26.465	865.056	690.208
297.833	25.947	864.208	687.499
298.847	25.745	863.806	686.346
299.862	26.216	863.429	687.782
300.876	26.339	863.347	688.122
301.891	26.246	862.547	687.071
302.906	25.755	861.825	684.569
303.920	25.925	861.192	684.651
304.935	26.259	860.831	685.572
305.949	26.373	859.684	685.027
306.964	25.993	859.487	683.372
307.979	26.318	858.659	683.882
308.993	26.451	858.826	684.460
310.008	26.419	857.911	683.549
311.022	26.213	857.277	682.206
312.037	26.070	856.591	681.056
313.052	25.777	855.827	679.285
314.066	24.884	854.451	674.769
315.081	24.499	854.073	672.959
316.095	25.564	854.115	676.944
317.110	26.142	853.346	678.448
318.125	24.992	852.220	673.174
319.139	23.996	850.914	668.344
320.154	24.156	850.420	668.500
321.168	25.038	851.201	672.362
322.183	25.707	851.222	674.831
323.197	25.927	850.645	675.138
324.212	26.062	850.299	675.306
325.227	26.050	849.765	674.780
326.241	25.957	848.904	673.690
327.256	25.998	848.248	673.262
328.270	25.782	847.645	671.918
329.285	25.535	846.646	670.146
330.300	25.326	845.934	668.743
331.314	25.558	846.025	669.622
332.329	26.003	845.798	671.036
333.343	26.169	845.517	671.373
334.358	26.248	844.791	671.032
335.373	26.295	844.339	670.787
336.387	26.586	844.354	671.818
337.402	26.664	844.412	672.094
338.416	26.630	843.967	671.556
339.431	26.676	843.664	671.426
340.446	26.811	843.377	671.638
341.460	26.629	843.151	670.725
342.475	26.522	842.438	669.701
343.489	26.646	841.851	669.635
344.504	26.929	841.957	670.705
345.519	27.116	841.500	670.971
346.533	27.257	840.944	670.991
347.548	27.068	840.154	669.603
348.562	26.917	840.031	668.891
349.577	27.036	838.986	668.435
350.592	26.997	838.249	667.649
351.606	27.033	837.422	667.060
352.621	26.888	836.893	666.051
353.635	26.816	836.309	665.261
354.650	25.953	834.762	660.811
355.665	25.197	832.888	656.502
356.679	25.553	833.296	658.071
357.694	26.035	832.806	659.385
358.708	25.986	831.801	658.352
359.723	26.382	831.880	659.803
360.738	26.776	831.647	660.996
361.752	26.765	831.152	660.503
362.767	27.083	830.797	661.321
363.781	27.398	830.344	662.047
364.796	27.523	829.965	662.143
365.810	27.442	829.552	661.459
366.825	27.436	829.480	661.323
367.840	27.112	828.932	659.650
368.854	26.660	827.483	656.799
369.869	26.652	827.250	656.530
370.883	26.809	826.536	656.472
371.898	26.606	826.621	655.748
372.913	26.692	826.238	655.698
373.927	26.841	825.948	655.949
374.942	26.961	825.408	655.893
375.956	27.109	824.620	655.742
376.971	27.234	824.466	656.012
377.986	27.479	824.106	656.553
379.000	27.311	823.802	655.647
380.015	27.159	823.178	654.545
381.029	27.223	822.594	654.254
382.044	27.267	821.850	653.761
383.059	27.396	821.007	653.499
384.073	27.340	821.015	653.244
385.088	27.419	820.257	652.867
386.102	27.221	819.104	651.183
387.117	27.068	818.490	650.088
388.132	26.715	817.753	648.184
389.146	26.321	816.467	645.701
390.161	26.714	816.784	647.296
391.175	27.115	816.865	648.738
392.190	26.743	815.654	646.390
393.205	25.423	813.535	639.957
394.219	23.651	811.991	632.379
395.234	23.905	811.247	632.649
396.248	25.343	813.217	639.251
397.263	26.948	813.652	645.246
398.278	26.770	813.497	644.434
399.292	26.509	812.808	642.905
400.307	26.500	812.190	642.326
401.321	26.647	812.087	642.712
402.336	27.137	811.756	644.131
403.350	27.428	811.873	645.198
404.365	27.823	811.614	646.333
405.380	28.022	811.102	646.573
406.394	27.998	810.700	646.107
407.409	28.017	810.073	645.620
408.423	27.864	809.821	644.822
409.438	27.990	809.505	644.957
410.453	28.003	809.090	644.613
411.467	28.021	808.484	644.138
412.482	28.011	807.989	643.652
413.496	28.050	807.887	643.651
414.511	28.068	807.343	643.225
415.526	28.160	806.644	642.933
416.540	27.933	806.294	641.798
417.555	27.675	805.391	640.119
418.569	27.819	805.086	640.327
419.584	27.854	804.299	639.767
420.599	27.775	803.558	638.843
421.613	110.557	1286.405	1459.550
422.628	95.430	1356.752	1459.665
