DTS Sentinel unit serial number:	SN413079Multiplexer serial number:	ORYXHardware model number:	OX4-SRSoftware version number:	ORYX F/W v4.00 Oryx Data Collector v3.7.2.0data status	okinstallation	princeton_trtdifferential loss correction	single-endedforward channel	channel 1reverse channel	N/Adate	2019/09/18time	12:26:35forward acquisition time	60.00reverse acquisition time	0.00gamma	496.2192k internal	0.2321k external	0.2321temperature offset calibration	0.9979default loss term (dB/km)	0.3790temperature slope calibration	1.0000multiplexer offset coefficient	1.0000multiplexer slope coefficient	1.0000fibre end	0.00T internal ref (°C)	32.06T ext. ref 1 (°C)	0.52T ext. ref 2 (°C)	29.31length (m)	temperature (°C)	Stokes	anti-Stokes-747.200	-85.124	0.178	0.056
-746.185	451.460	0.196	0.437
-745.171	60.984	-0.090	0.090
-744.156	-200.000	0.048	0.269
-743.142	20.429	-0.050	-0.041
-742.127	-88.908	0.188	0.056
-741.112	166.657	-0.064	0.092
-740.098	54.096	-0.303	0.295
-739.083	-56.716	0.224	0.100
-738.069	61.720	0.018	-0.018
-737.054	44.108	-0.182	0.169
-736.039	37.799	-0.363	-0.326
-735.025	-184.809	0.522	0.008
-734.010	353.163	-0.120	-0.240
-732.996	82.537	0.231	0.253
-731.981	6.126	-0.206	0.154
-730.966	-200.000	-0.021	-0.096
-729.952	55.534	0.104	-0.102
-728.937	-24.899	0.051	0.031
-727.923	482.329	0.085	-0.195
-726.908	-73.440	-0.197	0.073
-725.894	800.000	-0.111	-0.337
-724.879	-147.151	-0.113	0.010
-723.864	292.823	-0.079	-0.145
-722.850	193.571	-0.024	-0.036
-721.835	22.181	-0.084	-0.069
-720.821	342.109	-0.156	0.309
-719.806	-200.000	-0.014	0.225
-718.791	800.000	-0.028	0.111
-717.777	-91.317	0.013	-0.004
-716.762	-143.628	-0.281	-0.027
-715.748	167.691	-0.069	-0.099
-714.733	800.000	-0.066	-0.281
-713.718	23.624	0.159	0.132
-712.704	-118.290	0.236	-0.042
-711.689	800.000	0.048	-0.136
-710.675	-200.000	0.059	0.468
-709.660	250.725	0.167	0.286
-708.645	-33.010	-0.428	0.240
-707.631	88.717	0.130	-0.146
-706.616	-84.432	-0.269	0.086
-705.602	-200.000	-0.047	0.212
-704.587	-132.068	-0.098	0.013
-703.572	-45.714	-0.091	-0.045
-702.558	800.000	0.098	0.343
-701.543	-200.000	-0.057	-0.379
-700.529	56.340	0.240	-0.235
-699.514	-94.661	-0.031	0.009
-698.499	498.934	0.038	0.088
-697.485	-200.000	0.005	-0.192
-696.470	-125.881	-0.179	-0.027
-695.456	800.000	-0.026	0.085
-694.441	800.000	-0.058	-0.225
-693.426	-79.541	-0.345	-0.118
-692.412	-154.044	0.155	-0.011
-691.397	-69.751	-0.125	0.048
-690.383	3.546	0.225	-0.166
-689.368	-200.000	-0.043	0.248
-688.354	93.802	0.337	-0.385
-687.339	56.629	-0.291	-0.285
-686.324	-165.854	-0.101	-0.004
-685.310	800.000	0.058	-0.165
-684.295	-142.796	0.209	-0.021
-683.281	-200.000	0.014	-0.182
-682.266	53.963	0.189	0.183
-681.251	9.399	-0.110	-0.084
-680.237	140.959	-0.192	0.256
-679.222	16.636	0.098	-0.078
-678.208	-200.000	-0.007	-0.413
-677.193	-79.725	-0.231	-0.078
-676.178	154.250	-0.065	0.090
-675.164	-200.000	0.010	0.155
-674.149	-200.000	0.036	-0.188
-673.135	-67.036	0.103	-0.041
-672.120	99.768	0.133	0.155
-671.105	-77.999	-0.269	0.093
-670.091	67.168	0.032	-0.033
-669.076	-200.000	0.046	-0.351
-668.062	211.868	0.129	0.204
-667.047	71.329	-0.223	-0.233
-666.032	-102.719	0.152	0.036
-665.018	-10.747	-0.258	-0.172
-664.003	-39.009	-0.067	0.036
-662.989	12.300	0.220	0.171
-661.974	-188.369	0.463	0.006
-660.959	-200.000	0.026	0.328
-659.945	187.219	-0.203	-0.305
-658.930	-141.213	-0.131	-0.013
-657.916	-156.228	0.076	0.005
-656.901	-200.000	0.005	-0.139
-655.886	-72.400	-0.423	0.158
-654.872	73.927	-0.066	0.070
-653.857	9.163	-0.168	0.128
-652.843	-73.161	-0.184	0.068
-651.828	302.606	0.064	-0.119
-650.814	-117.065	0.225	-0.041
-649.799	160.493	-0.217	0.305
-648.784	-200.000	-0.007	-0.094
-647.770	1.600	-0.246	-0.178
-646.755	52.986	0.238	-0.229
-645.741	109.953	0.056	-0.067
-644.726	-12.901	0.110	-0.072
-643.711	-200.000	-0.014	0.105
-642.697	-200.000	0.001	-0.325
-641.682	-130.030	-0.149	0.021
-640.668	63.675	-0.203	0.205
-639.653	-122.025	-0.281	-0.047
-638.638	91.981	0.095	-0.108
-637.624	800.000	-0.025	0.080
-636.609	-200.000	-0.034	0.319
-635.595	-115.031	0.388	0.074
-634.580	-130.628	0.115	-0.016
-633.565	84.698	-0.016	0.018
-632.551	157.415	-0.195	0.272
-631.536	462.102	-0.102	-0.229
-630.522	800.000	-0.030	0.095
-629.507	800.000	0.066	0.235
-628.492	508.752	-0.115	-0.269
-627.478	-94.285	0.192	0.053
-626.463	-52.352	-0.201	-0.094
-625.449	-200.000	0.000	0.077
-624.434	-79.518	0.402	-0.136
-623.419	0.231	0.136	-0.097
-622.405	-28.906	-0.244	0.141
-621.390	-97.954	-0.307	-0.080
-620.376	-200.000	-0.004	0.082
-619.361	-30.421	-0.364	0.208
-618.346	-173.877	0.120	0.004
-617.332	-87.389	0.133	0.041
-616.317	-78.232	-0.219	0.076
-615.303	-64.635	-0.233	0.095
-614.288	70.782	-0.116	0.121
-613.273	-77.318	0.077	0.027
-612.259	44.669	0.172	0.159
-611.244	80.859	0.152	-0.165
-610.230	-22.305	0.178	-0.108
-609.215	150.823	0.253	-0.346
-608.201	102.971	0.229	0.270
-607.186	-97.574	0.099	-0.026
-606.171	-11.299	-0.297	0.197
-605.157	-129.434	0.353	0.049
-604.142	436.180	-0.103	0.226
-603.128	-200.000	0.027	-0.176
-602.113	375.878	0.023	0.048
-601.098	800.000	0.019	-0.079
-600.084	160.938	0.136	0.191
-599.069	800.000	-0.096	-0.351
-598.055	311.591	-0.015	-0.029
-597.040	359.383	0.071	0.143
-596.025	374.527	0.069	0.142
-595.011	-125.385	0.358	-0.055
-593.996	-80.210	0.169	-0.057
-592.982	-139.506	0.168	0.018
-591.967	-111.798	-0.364	0.074
-590.952	114.502	-0.090	0.110
-589.938	-79.211	0.333	-0.113
-588.923	-86.763	-0.109	-0.033
-587.909	800.000	0.026	-0.107
-586.894	800.000	0.074	-0.209
-585.879	-68.984	0.127	-0.049
-584.865	3.149	-0.067	-0.049
-583.850	86.593	-0.169	-0.187
-582.836	120.588	-0.049	-0.062
-581.821	-200.000	0.020	-0.231
-580.806	198.795	0.110	-0.170
-579.792	250.936	0.068	0.115
-578.777	37.968	-0.136	0.121
-577.763	-140.919	0.205	-0.021
-576.748	-42.214	-0.109	0.056
-575.733	61.730	-0.193	-0.193
-574.719	7.770	-0.241	0.181
-573.704	-121.885	0.135	0.022
-572.690	450.612	-0.102	-0.226
-571.675	122.102	0.089	-0.111
-570.661	-55.917	0.039	0.017
-569.646	800.000	0.062	-0.195
-568.631	-75.781	-0.350	-0.125
-567.617	-200.000	-0.001	-0.135
-566.602	-107.123	-0.146	-0.032
-565.588	-137.462	-0.124	0.014
-564.573	-89.000	0.299	0.089
-563.558	800.000	-0.061	-0.251
-562.544	-139.678	-0.105	0.011
-561.529	185.980	-0.098	-0.146
-560.515	-53.958	0.254	-0.116
-559.500	-200.000	0.020	0.252
-558.485	-144.497	0.188	0.017
-557.471	-200.000	-0.006	-0.083
-556.456	-200.000	-0.012	-0.165
-555.442	-129.304	-0.033	0.005
-554.427	-56.065	0.237	0.106
-553.412	-98.407	0.151	0.039
-552.398	-200.000	-0.035	0.174
-551.383	-200.000	0.019	-0.216
-550.369	539.970	0.087	-0.208
-549.354	-200.000	0.008	0.196
-548.339	800.000	-0.067	-0.193
-547.325	-17.963	-0.138	0.087
-546.310	800.000	-0.105	0.346
-545.296	-200.000	-0.024	-0.141
-544.281	800.000	-0.054	0.212
-543.266	-0.170	-0.058	0.042
-542.252	310.443	-0.016	-0.029
-541.237	-65.973	0.104	-0.042
-540.223	800.000	-0.094	0.383
-539.208	-91.561	-0.219	-0.063
-538.193	739.556	-0.095	-0.255
-537.179	372.511	0.197	-0.401
-536.164	-45.200	0.151	-0.075
-535.150	129.338	0.205	0.263
-534.135	51.810	0.434	-0.414
-533.121	-200.000	0.008	-0.155
-532.106	133.063	0.145	0.188
-531.091	87.964	0.033	0.037
-530.077	-45.062	0.379	0.189
-529.062	135.624	0.067	-0.088
-528.048	-32.795	0.072	-0.040
-527.033	189.017	0.207	0.310
-526.018	-162.897	-0.050	-0.002
-525.004	41.098	-0.084	0.076
-523.989	162.873	-0.122	-0.171
-522.975	500.860	-0.070	-0.162
-521.960	800.000	0.129	-0.446
-520.945	4.206	0.240	0.176
-519.931	-60.415	0.393	0.167
-518.916	-122.921	-0.280	0.045
-517.902	-39.999	-0.192	0.100
-516.887	-102.981	0.102	-0.024
-515.872	-2.062	0.094	0.066
-514.858	640.328	-0.021	-0.054
-513.843	129.366	0.123	0.158
-512.829	-135.657	-0.181	0.022
-511.814	-166.626	-0.216	0.009
-510.799	-93.946	-0.446	-0.123
-509.785	-127.491	0.110	0.016
-508.770	212.090	-0.149	-0.236
-507.756	-56.309	-0.144	-0.064
-506.741	290.638	-0.051	0.093
-505.726	399.229	0.134	-0.281
-504.712	800.000	0.056	0.169
-503.697	-129.554	0.115	-0.016
-502.683	-123.852	-0.042	-0.007
-501.668	186.104	-0.137	0.204
-500.653	422.077	-0.089	0.191
-499.639	-125.978	0.206	0.031
-498.624	196.376	0.161	0.246
-497.610	-109.051	-0.115	-0.025
-496.595	-114.530	0.164	-0.032
-495.581	800.000	-0.123	-0.344
-494.566	-99.388	-0.236	0.060
-493.551	-200.000	0.014	-0.645
-492.537	-99.842	-0.151	0.038
-491.522	-6.693	-0.070	0.048
-490.508	14.764	0.062	-0.048
-489.493	-69.061	0.078	0.030
-488.478	-91.184	-0.329	-0.095
-487.464	-15.313	-0.178	-0.114
-486.449	-163.951	-0.095	-0.004
-485.435	-49.441	0.210	-0.100
-484.420	-59.463	0.233	0.100
-483.405	-103.929	0.319	0.074
-482.391	467.341	-0.082	0.184
-481.376	-200.000	0.009	0.141
-480.362	-116.809	0.087	-0.016
-479.347	800.000	-0.095	0.270
-478.332	-200.000	-0.002	0.041
-477.318	76.877	0.106	0.112
-476.303	-200.000	-0.009	-0.058
-475.289	-200.000	-0.037	-0.231
-474.274	-200.000	0.019	-0.135
-473.259	-15.393	0.044	-0.028
-472.245	24.649	-0.056	0.046
-471.230	123.291	0.149	0.187
-470.216	-102.231	-0.452	-0.109
-469.201	49.326	0.190	0.178
-468.186	-200.000	0.013	-0.208
-467.172	388.480	-0.105	0.217
-466.157	34.409	0.376	-0.328
-465.143	175.321	-0.067	-0.097
-464.128	-131.741	-0.289	0.038
-463.113	800.000	0.063	-0.215
-462.099	22.999	-0.222	-0.182
-461.084	-200.000	-0.016	0.223
-460.070	4.137	0.363	0.266
-459.055	-46.844	0.082	0.040
-458.040	-15.049	0.157	0.100
-457.026	41.796	-0.068	0.062
-456.011	657.736	-0.135	0.347
-454.997	-129.722	-0.143	-0.020
-453.982	-42.734	0.250	0.127
-452.968	-200.000	0.000	0.322
-451.953	-200.000	0.016	-0.074
-450.938	-115.497	-0.114	0.021
-449.924	-152.204	0.086	0.006
-448.909	-200.000	0.061	-0.308
-447.895	-98.012	-0.057	-0.015
-446.880	-200.000	0.011	-0.110
-445.865	34.501	-0.190	0.165
-444.851	-200.000	-0.034	0.203
-443.836	166.643	0.119	-0.168
-442.822	800.000	-0.052	-0.180
-441.807	-112.271	0.219	-0.044
-440.792	-170.123	-0.098	-0.003
-439.778	-8.616	-0.190	0.127
-438.763	800.000	-0.100	0.285
-437.749	-200.000	-0.011	0.178
-436.734	130.815	-0.032	-0.040
-435.719	-71.439	0.056	-0.021
-434.705	800.000	0.043	0.143
-433.690	800.000	-0.074	-0.311
-432.676	14.456	-0.155	-0.121
-431.661	268.715	-0.062	0.109
-430.646	97.176	0.149	0.170
-429.632	800.000	-0.038	-0.142
-428.617	-127.299	0.138	-0.020
-427.603	23.307	-0.079	-0.065
-426.588	-82.368	-0.195	-0.063
-425.573	-200.000	-0.062	-0.403
-424.559	116.429	0.082	0.101
-423.544	2.480	-0.112	-0.081
-422.530	47.122	-0.115	-0.107
-421.515	-32.063	0.184	0.103
-420.500	-28.948	0.140	0.081
-419.486	269.782	0.172	-0.302
-418.471	47.115	0.108	0.100
-417.457	-67.953	0.067	0.026
-416.442	-200.000	-0.046	0.266
-415.428	20.287	-0.200	0.161
-414.413	60.196	-0.284	0.280
-413.398	70.330	-0.158	0.163
-412.384	581.831	-0.019	0.047
-411.369	-200.000	-0.031	-0.188
-410.355	-5.691	-0.160	0.109
-409.340	-83.161	-0.181	0.058
-408.325	83.625	0.105	0.114
-407.311	69.831	0.057	0.058
-406.296	209.651	-0.118	-0.185
-405.282	-126.859	0.434	-0.064
-404.267	244.389	0.072	-0.121
-403.252	11.652	-0.211	0.162
-402.238	-12.710	-0.118	-0.076
-401.223	800.000	0.059	-0.208
-400.209	90.118	0.107	-0.119
-399.194	9.750	-0.097	-0.074
-398.179	75.090	-0.110	-0.115
-397.165	800.000	0.015	-0.043
-396.150	-7.473	0.109	-0.074
-395.136	-47.718	0.221	0.107
-394.121	399.551	-0.065	0.136
-393.106	-108.303	0.400	0.086
-392.092	-56.629	-0.119	0.052
-391.077	609.674	0.041	0.101
-390.063	305.987	0.095	-0.177
-389.048	-200.000	0.033	0.354
-388.033	-150.362	0.316	-0.024
-387.019	205.467	0.076	-0.118
-386.004	-2.561	0.095	-0.067
-384.990	-198.644	0.136	0.001
-383.975	-200.000	-0.010	-0.051
-382.960	41.491	0.288	0.260
-381.946	-200.000	0.051	-0.301
-380.931	800.000	-0.025	-0.079
-379.917	-200.000	0.015	-0.090
-378.902	1.850	0.382	-0.274
-377.888	278.488	-0.227	-0.404
-376.873	-136.303	-0.161	-0.019
-375.858	-163.551	0.294	0.014
-374.844	597.086	-0.087	-0.215
-373.829	800.000	0.067	0.219
-372.815	-200.000	0.362	0.001
-371.800	405.460	0.049	0.104
-370.785	521.540	-0.108	-0.253
-369.771	79.882	0.099	0.106
-368.756	-135.832	-0.055	-0.007
-367.742	2.537	-0.029	-0.021
-366.727	424.799	0.030	0.064
-365.712	800.000	0.037	0.161
-364.698	-92.223	-0.287	0.081
-363.683	178.418	-0.153	-0.222
-362.669	-200.000	0.066	0.295
-361.654	11.189	0.118	0.090
-360.639	-200.000	-0.031	-0.209
-359.625	-118.534	-0.093	0.016
-358.610	204.931	-0.226	0.349
-357.596	166.739	-0.092	-0.130
-356.581	-200.000	-0.009	-0.053
-355.566	44.948	-0.373	-0.342
-354.552	-178.532	0.096	-0.002
-353.537	-112.205	0.326	0.065
-352.523	-73.684	-0.242	0.088
-351.508	-83.901	0.107	0.034
-350.493	-67.650	-0.124	0.049
-349.479	-94.967	-0.225	0.060
-348.464	36.175	0.274	0.240
-347.450	126.825	0.162	-0.204
-346.435	-60.488	-0.265	0.112
-345.420	-112.004	-0.225	0.045
-344.406	-200.000	0.013	0.350
-343.391	-200.000	-0.033	0.245
-342.377	-37.393	0.203	0.108
-341.362	-89.039	-0.184	-0.054
-340.348	-72.341	0.291	0.107
-339.333	-85.304	-0.152	0.047
-338.318	122.713	-0.128	-0.159
-337.304	-131.040	0.233	0.031
-336.289	-1.367	-0.252	0.177
-335.275	440.314	0.066	-0.143
-334.260	120.341	-0.273	0.338
-333.245	152.582	0.074	0.100
-332.231	25.335	0.104	0.086
-331.216	423.685	-0.072	-0.154
-330.202	-130.210	-0.111	-0.015
-329.187	-7.329	0.316	-0.213
-328.172	-200.000	-0.020	-0.119
-327.158	-59.188	-0.129	0.055
-326.143	45.702	-0.126	0.116
-325.129	-56.574	0.221	0.097
-324.114	-91.213	-0.315	-0.090
-323.099	800.000	-0.054	0.148
-322.085	-200.000	0.017	0.100
-321.070	55.164	0.160	0.154
-320.056	-89.454	0.306	0.089
-319.041	-200.000	0.004	-0.199
-318.026	-200.000	-0.049	0.295
-317.012	-48.385	-0.252	0.121
-315.997	8.858	-0.186	0.139
-314.983	-26.291	0.205	-0.119
-313.968	-38.511	-0.342	-0.180
-312.953	28.199	0.126	0.106
-311.939	170.240	-0.105	0.150
-310.924	-113.609	-0.428	0.083
-309.910	43.985	0.125	-0.114
-308.895	121.078	0.182	-0.225
-307.880	291.793	0.166	0.300
-306.866	-120.086	-0.285	-0.048
-305.851	61.647	0.167	-0.165
-304.837	136.310	-0.220	-0.285
-303.822	-73.786	0.123	-0.044
-302.807	152.828	0.014	0.019
-301.793	-166.979	-0.230	0.009
-300.778	-200.000	0.015	0.148
-299.764	-172.596	0.313	0.010
-298.749	275.033	0.044	-0.078
-297.735	-70.223	-0.272	0.103
-296.720	472.265	-0.079	-0.177
-295.705	137.449	0.190	-0.247
-294.691	800.000	0.091	0.321
-293.676	-5.220	-0.224	-0.153
-292.662	132.346	0.032	0.041
-291.647	508.057	-0.097	-0.223
-290.632	190.668	0.053	0.079
-289.618	-42.477	0.408	-0.207
-288.603	-89.657	-0.289	-0.084
-287.589	-67.836	0.262	-0.102
-286.574	23.567	-0.089	-0.073
-285.559	466.078	-0.057	-0.127
-284.545	320.814	0.038	0.072
-283.530	-200.000	-0.018	-0.086
-282.516	-3.819	-0.311	-0.214
-281.501	-97.529	0.120	-0.031
-280.486	800.000	0.106	0.421
-279.472	800.000	0.096	-0.328
-278.457	-86.271	-0.069	-0.021
-277.443	-200.000	-0.064	0.303
-276.428	-200.000	-0.056	0.337
-275.413	763.850	0.031	-0.083
-274.399	-200.000	-0.012	-0.298
-273.384	15.504	0.061	-0.047
-272.370	-200.000	0.017	-0.312
-271.355	163.102	-0.171	-0.239
-270.340	-49.779	-0.083	-0.039
-269.326	-89.935	0.130	-0.038
-268.311	468.747	0.124	-0.275
-267.297	-200.000	-0.019	-0.136
-266.282	-43.028	-0.166	-0.083
-265.267	-200.000	-0.034	0.219
-264.253	687.801	0.001	-0.004
-263.238	231.021	0.014	0.023
-262.224	-200.000	0.007	-0.061
-261.209	-137.009	0.128	0.015
-260.195	-57.568	-0.126	0.055
-259.180	-42.640	0.220	-0.111
-258.165	-36.654	-0.191	0.102
-257.151	-200.000	0.008	-0.055
-256.136	307.740	0.032	0.059
-255.122	0.751	0.126	-0.089
-254.107	423.284	-0.135	0.288
-253.092	-159.415	-0.051	-0.003
-252.078	-200.000	0.034	0.238
-251.063	70.161	-0.206	0.211
-250.049	-85.492	0.292	-0.090
-249.034	-135.184	0.322	0.038
-248.019	-88.307	-0.243	0.072
-247.005	-87.485	0.106	-0.032
-245.990	118.485	0.116	0.142
-244.976	6.143	-0.191	-0.140
-243.961	98.004	0.077	0.088
-242.946	-102.817	-0.187	-0.044
-241.932	-8.241	-0.494	0.329
-240.917	-51.155	-0.229	-0.106
-239.903	104.115	-0.166	0.193
-238.888	394.223	-0.053	0.110
-237.873	-200.000	0.044	-0.319
-236.859	-104.482	0.074	0.017
-235.844	17.442	0.261	0.205
-234.830	-44.291	-0.316	-0.157
-233.815	110.895	0.252	-0.301
-232.800	131.850	0.056	-0.071
-231.786	228.430	-0.060	-0.097
-230.771	575.323	0.153	0.369
-229.757	-143.437	-0.182	-0.017
-228.742	587.599	-0.047	-0.115
-227.727	800.000	0.049	0.211
-226.713	-132.961	0.092	0.012
-225.698	130.129	0.132	-0.167
-224.684	182.621	-0.099	-0.145
-223.669	-45.736	-0.197	0.096
-222.655	559.036	0.138	0.330
-221.640	197.473	-0.064	0.096
-220.625	-113.184	-0.032	0.006
-219.611	48.803	0.166	-0.154
-218.596	5.674	-0.085	0.062
-217.582	-200.000	-0.032	-0.344
-216.567	800.000	-0.100	0.289
-215.552	-94.443	0.182	-0.049
-214.538	-200.000	0.026	0.114
-213.523	-92.086	-0.237	0.066
-212.509	403.084	0.077	0.160
-211.494	800.000	0.029	-0.094
-210.479	9.786	-0.104	-0.078
-209.465	653.032	-0.184	-0.467
-208.450	-172.069	0.366	-0.012
-207.436	368.282	-0.052	0.104
-206.421	45.418	0.342	-0.313
-205.406	91.003	-0.140	-0.155
-204.392	-117.887	-0.179	-0.032
-203.377	21.170	-0.133	0.107
-202.363	-106.864	-0.341	-0.075
-201.348	682.443	0.048	0.125
-200.333	-146.184	0.327	-0.028
-199.319	-102.923	0.056	-0.013
-198.304	-75.114	0.212	0.075
-197.290	-20.407	-0.249	-0.152
-196.275	800.000	-0.077	0.271
-195.260	-115.189	-0.107	-0.020
-194.246	239.428	0.055	0.090
-193.231	-148.349	-0.311	0.025
-192.217	87.111	0.260	-0.284
-191.202	-42.927	0.224	0.113
-190.187	-37.820	-0.108	0.057
-189.173	189.012	0.123	0.183
-188.158	207.888	0.062	-0.095
-187.144	45.693	0.076	0.069
-186.129	23.245	-0.240	-0.195
-185.114	183.171	0.196	-0.286
-184.100	-200.000	0.039	-0.255
-183.085	-148.439	0.008	-0.001
-182.071	-134.411	0.098	0.012
-181.056	-62.117	0.239	0.099
-180.042	-31.551	-0.252	-0.140
-179.027	458.840	0.059	0.129
-178.012	169.225	-0.232	-0.328
-176.998	800.000	0.025	0.109
-175.983	-200.000	-0.002	0.291
-174.969	-200.000	0.026	0.226
-173.954	-200.000	0.011	-0.071
-172.939	800.000	-0.066	0.199
-171.925	30.312	-0.039	0.033
-170.910	800.000	-0.068	0.262
-169.896	94.279	-0.164	0.184
-168.881	587.559	-0.012	-0.030
-167.866	-15.073	-0.306	-0.194
-166.852	-183.047	-0.191	0.003
-165.837	117.976	0.089	0.108
-164.823	9.590	0.320	0.240
-163.808	70.811	0.198	0.203
-162.793	800.000	-0.065	-0.215
-161.779	800.000	-0.072	-0.282
-160.764	52.252	-0.252	0.238
-159.750	-174.510	0.099	-0.003
-158.735	-129.044	0.360	-0.050
-157.720	800.000	-0.090	-0.312
-156.706	401.471	-0.027	0.055
-155.691	-115.029	-0.105	-0.020
-154.677	-200.000	-0.039	0.423
-153.662	171.595	0.175	0.248
-152.647	-76.995	0.153	-0.053
-151.633	130.803	-0.188	0.239
-150.618	-200.000	-0.032	0.219
-149.604	-68.044	-0.333	0.128
-148.589	-200.000	-0.013	0.146
-147.574	-38.377	-0.307	0.161
-146.560	-68.603	0.231	0.088
-145.545	-24.488	-0.472	-0.278
-144.531	-46.982	0.194	0.094
-143.516	224.498	-0.055	-0.089
-142.502	-106.016	0.084	-0.019
-141.487	64.955	-0.246	0.245
-140.472	-190.096	-0.127	-0.001
-139.458	316.631	-0.084	-0.156
-138.443	670.790	0.097	-0.248
-137.429	261.735	0.113	0.194
-136.414	35.620	-0.259	0.225
-135.399	295.014	0.091	-0.164
-134.385	-12.122	0.317	-0.205
-133.370	69.131	-0.132	0.134
-132.356	800.000	-0.127	-0.445
-131.341	-23.155	-0.230	0.137
-130.326	-75.422	0.379	-0.133
-129.312	680.351	0.109	0.280
-128.297	140.199	0.241	0.314
-127.283	-200.000	0.016	0.209
-126.268	-125.362	0.156	0.024
-125.253	-98.277	0.269	0.068
-124.239	322.771	-0.041	-0.076
-123.224	29.871	0.160	-0.135
-122.210	800.000	0.072	-0.236
-121.195	-200.000	-0.037	-0.258
-120.180	-128.941	-0.259	0.036
-119.166	-200.000	-0.027	0.134
-118.151	-47.854	-0.075	0.036
-117.137	319.644	0.081	-0.152
-116.122	-200.000	0.003	-0.318
-115.107	-125.202	0.283	-0.043
-114.093	-200.000	-0.004	0.046
-113.078	77.267	-0.164	-0.172
-112.064	28.161	0.051	-0.042
-111.049	-39.064	-0.157	-0.082
-110.034	-200.000	-0.003	0.210
-109.020	18.971	-0.239	-0.189
-108.005	-183.263	0.192	-0.003
-106.991	-98.634	-0.272	-0.068
-105.976	470.463	-0.038	0.084
-104.962	195.370	0.100	-0.150
-103.947	74.215	-0.025	0.026
-102.932	-42.383	-0.300	0.151
-101.918	-82.582	0.053	0.017
-100.903	-145.720	0.236	0.021
-99.889	-47.698	0.365	-0.175
-98.874	-31.212	-0.083	0.046
-97.859	187.398	-0.067	0.098
-96.845	-109.085	-0.364	-0.076
-95.830	71.278	0.186	0.190
-94.816	-154.582	0.373	0.025
-93.801	-112.892	0.496	-0.097
-92.786	-200.000	-0.004	0.149
-91.772	-200.000	0.027	0.181
-90.757	-200.000	-0.095	0.533
-89.743	35.312	-0.058	-0.050
-88.728	-13.165	0.237	0.152
-87.713	129.217	0.129	0.162
-86.699	571.151	-0.074	-0.177
-85.684	-28.683	-0.350	-0.198
-84.670	-87.097	0.175	0.053
-83.655	-158.589	-0.247	0.014
-82.640	-66.347	-0.197	-0.077
-81.626	-59.537	0.192	0.081
-80.611	2.288	-0.215	0.153
-79.597	-96.311	0.092	0.024
-78.582	-169.108	-0.149	-0.005
-77.567	-129.331	-0.431	-0.059
-76.553	-200.000	0.015	0.196
-75.538	58.761	0.119	-0.116
-74.524	-128.522	0.289	0.040
-73.509	800.000	-0.049	0.182
-72.494	-200.000	-0.005	0.024
-71.480	-5.047	-0.268	0.182
-70.465	800.000	0.073	-0.205
-69.451	180.165	-0.063	0.091
-68.436	352.487	-0.067	0.130
-67.422	5.313	-0.146	-0.106
-66.407	100.486	0.030	-0.034
-65.392	671.746	0.059	0.152
-64.378	-127.823	-0.262	0.037
-63.363	-200.000	-0.009	-0.049
-62.349	-200.000	-0.042	-0.234
-61.334	97.514	-0.962	-1.088
-60.319	73.153	0.520	0.536
-59.305	793.528	-0.355	-0.962
-58.290	120.618	0.705	0.863
-57.276	399.187	0.837	1.726
-56.261	-200.000	93.131	562.287
-55.246	518.319	1408.755	3245.052
-54.232	153.523	2602.915	3507.773
-53.217	111.804	2193.711	2606.124
-52.203	44.271	1639.749	1480.714
-51.188	35.484	1372.117	1185.057
-50.173	32.335	1329.323	1129.182
-49.159	54.723	1375.352	1305.269
-48.144	56.330	1391.942	1330.743
-47.130	35.810	1351.475	1169.021
-46.115	32.215	1334.477	1132.655
-45.100	32.058	1329.398	1127.358
-44.086	31.974	1327.381	1125.099
-43.071	31.980	1324.955	1123.033
-42.057	31.858	1322.430	1120.115
-41.042	31.893	1321.005	1119.076
-40.027	31.891	1319.321	1117.590
-39.013	32.067	1316.997	1116.626
-37.998	31.952	1315.418	1114.562
-36.984	32.036	1313.866	1113.698
-35.969	32.067	1311.930	1112.200
-34.954	32.117	1310.090	1110.889
-33.940	32.105	1308.785	1109.667
-32.925	32.247	1307.356	1109.254
-31.911	32.121	1305.857	1107.193
-30.896	32.079	1304.641	1105.867
-29.881	32.210	1302.650	1104.910
-28.867	32.174	1301.537	1103.711
-27.852	32.213	1300.146	1102.714
-26.838	32.288	1298.468	1101.684
-25.823	32.250	1296.915	1100.106
-24.809	32.152	1296.157	1098.843
-23.794	32.179	1295.119	1098.080
-22.779	32.140	1293.520	1096.451
-21.765	32.150	1291.940	1095.128
-20.750	32.155	1290.436	1093.835
-19.736	32.066	1289.554	1092.526
-18.721	31.945	1288.774	1091.122
-17.706	32.071	1286.719	1090.067
-16.692	31.951	1286.086	1088.794
-15.677	32.014	1285.030	1088.219
-14.663	31.972	1283.816	1086.907
-13.648	31.879	1282.943	1085.589
-12.633	32.002	1281.591	1085.111
-11.619	32.003	1280.551	1084.193
-10.604	31.977	1280.237	1083.731
-9.590	31.962	1278.790	1082.376
-8.575	31.902	1277.924	1081.255
-7.560	31.939	1277.036	1080.679
-6.546	31.971	1276.299	1080.191
-5.531	31.986	1275.171	1079.284
-4.517	31.924	1274.288	1078.136
-3.502	31.995	1273.280	1077.647
-2.487	32.024	1272.431	1077.051
-1.473	32.113	1268.200	1073.937
-0.458	31.066	1254.007	1055.950
0.556	26.338	1236.986	1018.795
1.571	22.575	1242.665	1002.032
2.586	21.069	1256.989	1004.820
3.600	19.988	1245.299	989.217
4.615	14.593	1169.935	900.236
5.629	5.331	1091.461	792.968
6.644	0.861	1070.194	755.178
7.659	0.444	1068.220	751.641
8.673	0.375	1066.818	750.243
9.688	0.390	1065.457	749.294
10.702	0.664	1063.686	749.340
11.717	5.809	1071.037	780.097
12.731	13.962	1081.822	828.703
13.746	17.251	1085.139	847.597
14.761	16.946	1083.923	845.055
15.775	16.180	1082.421	839.995
16.790	15.282	1080.053	833.619
17.804	14.535	1079.053	829.061
18.819	14.153	1077.560	825.947
19.834	13.947	1076.640	824.147
20.848	13.606	1075.724	821.683
21.863	13.295	1075.110	819.598
22.877	13.287	1073.661	818.381
23.892	13.298	1073.116	817.950
24.907	13.308	1072.302	817.306
25.921	13.339	1071.510	816.782
26.936	13.210	1071.056	815.726
27.950	13.292	1069.917	815.193
28.965	13.394	1068.694	814.689
29.980	13.383	1067.825	813.901
30.994	13.504	1066.201	813.186
32.009	13.525	1065.690	812.829
33.023	13.379	1064.466	811.106
34.038	13.356	1063.849	810.451
35.053	13.319	1062.869	809.453
36.067	13.425	1061.777	809.066
37.082	13.400	1060.767	808.102
38.096	13.447	1060.252	807.867
39.111	13.389	1059.288	806.781
40.126	13.375	1058.207	805.819
41.140	13.305	1057.004	804.490
42.155	13.226	1056.205	803.427
43.169	13.224	1055.191	802.572
44.184	13.167	1054.348	801.585
45.199	13.264	1052.773	800.785
46.213	13.228	1051.974	799.933
47.228	13.360	1050.594	799.451
48.242	13.406	1049.363	798.665
49.257	13.334	1048.738	797.773
50.271	13.289	1047.761	796.744
51.286	13.359	1046.962	796.399
52.301	13.263	1046.110	795.221
53.315	13.277	1044.980	794.359
54.330	13.397	1043.561	793.785
55.344	13.257	1043.128	792.713
56.359	13.252	1041.795	791.609
57.374	13.233	1041.130	790.944
58.388	13.265	1040.041	790.199
59.403	13.295	1039.743	790.045
60.417	13.273	1038.862	789.198
61.432	13.206	1038.185	788.295
62.447	13.224	1037.211	787.572
63.461	13.302	1036.337	787.211
64.476	13.167	1035.960	786.212
65.490	13.168	1034.803	785.272
66.505	13.288	1034.180	785.297
67.520	13.179	1033.261	784.013
68.534	13.275	1032.469	783.796
69.549	13.327	1031.884	783.530
70.563	13.205	1031.113	782.298
71.578	13.224	1030.140	781.582
72.593	13.145	1029.624	780.747
73.607	13.074	1028.794	779.712
74.622	13.282	1028.079	780.085
75.636	13.218	1027.121	778.986
76.651	13.183	1026.671	778.411
77.666	13.165	1026.174	777.879
78.680	13.074	1025.496	776.869
79.695	13.193	1024.745	776.789
80.709	13.120	1024.514	776.203
81.724	13.227	1023.733	776.045
82.739	13.325	1023.086	775.946
83.753	13.238	1022.055	774.690
84.768	13.461	1020.706	774.640
85.782	13.387	1020.348	773.954
86.797	13.303	1019.190	772.617
87.812	13.265	1018.826	772.095
88.826	13.427	1016.961	771.367
89.841	13.286	1016.550	770.331
90.855	13.436	1015.535	770.189
91.870	13.420	1014.932	769.591
92.884	13.428	1013.772	768.680
93.899	13.444	1013.443	768.440
94.914	13.517	1012.656	768.109
95.928	13.604	1011.360	767.462
96.943	13.473	1010.546	766.170
97.957	13.482	1009.850	765.619
98.972	13.455	1009.056	764.825
99.987	13.423	1008.115	763.895
101.001	13.477	1007.080	763.293
102.016	13.498	1006.264	762.703
103.030	13.438	1005.801	762.006
104.045	13.532	1004.921	761.706
105.060	13.389	1004.195	760.431
106.074	13.470	1003.041	759.861
107.089	13.266	1002.497	758.446
108.103	13.299	1001.182	757.534
109.118	13.288	1000.541	756.934
110.133	13.332	999.076	755.961
111.147	13.211	998.562	754.950
112.162	13.316	997.868	754.839
113.176	13.423	997.098	754.676
114.191	13.476	996.222	754.191
115.206	13.388	995.582	753.239
116.220	13.414	994.537	752.497
117.235	13.351	993.752	751.552
118.249	13.422	992.612	750.943
119.264	13.455	991.813	750.422
120.279	13.439	991.280	749.882
121.293	13.338	990.841	749.024
122.308	13.364	989.600	748.140
123.322	13.393	988.668	747.501
124.337	13.327	987.635	746.353
125.352	13.233	986.782	745.219
126.366	13.413	985.405	744.925
127.381	13.353	984.752	744.095
128.395	13.311	983.707	743.051
129.410	13.442	982.810	742.897
130.424	13.379	982.102	742.011
131.439	13.437	981.105	741.452
132.454	13.548	979.869	740.951
133.468	13.432	979.201	739.860
134.483	13.577	978.202	739.689
135.497	13.602	977.287	739.043
136.512	13.444	976.881	737.965
137.527	13.397	975.963	736.999
138.541	13.513	975.337	736.977
139.556	13.470	974.981	736.448
140.570	13.492	973.648	735.474
141.585	13.480	973.017	734.879
142.600	13.621	971.675	734.429
143.614	13.618	970.675	733.591
144.629	13.690	970.009	733.343
145.643	13.563	969.601	732.409
146.658	13.506	968.235	731.058
147.673	13.526	967.533	730.552
148.687	13.440	966.923	729.649
149.702	13.591	965.965	729.527
150.716	13.491	965.221	728.460
151.731	13.567	964.625	728.278
152.746	13.540	963.686	727.387
153.760	13.564	963.180	727.048
154.775	13.646	962.821	727.070
155.789	13.674	961.876	726.417
156.804	13.683	961.334	725.981
157.819	13.641	960.870	725.384
158.833	13.782	959.751	725.091
159.848	13.806	958.854	724.455
160.862	13.763	958.184	723.695
161.877	13.643	957.499	722.593
162.892	13.723	955.923	721.686
163.906	13.592	955.177	720.489
164.921	13.636	954.242	719.913
165.935	13.694	953.386	719.456
166.950	13.678	952.412	718.588
167.964	13.858	951.231	718.409
168.979	13.704	951.060	717.553
169.994	13.699	950.597	717.115
171.008	13.672	949.456	716.077
172.023	13.845	948.596	716.113
173.037	14.000	947.445	715.847
174.052	13.858	947.508	715.219
175.067	13.702	946.817	713.961
176.081	13.782	945.915	713.565
177.096	13.659	945.624	712.751
178.110	13.793	945.141	712.898
179.125	13.833	944.605	712.605
180.140	13.758	944.048	711.798
181.154	13.864	943.902	712.082
182.169	13.872	942.707	711.151
183.183	13.915	942.026	710.756
184.198	14.017	941.180	710.492
185.213	14.003	940.605	709.936
186.227	13.930	940.148	709.217
187.242	13.958	939.391	708.705
188.256	14.081	938.942	708.825
189.271	14.085	937.615	707.777
190.286	13.942	937.157	706.761
191.300	13.822	936.527	705.712
192.315	13.708	935.951	704.732
193.329	13.696	935.896	704.576
194.344	13.980	934.612	704.755
195.359	13.929	934.212	704.172
196.373	14.020	933.380	703.871
197.388	14.149	932.837	703.944
198.402	14.162	932.400	703.605
199.417	14.214	931.815	703.322
200.432	14.253	931.225	702.981
201.446	14.135	930.887	702.165
202.461	14.207	930.022	701.753
203.475	14.188	929.277	701.050
204.490	14.138	929.026	700.588
205.504	14.234	927.824	700.023
206.519	14.324	926.975	699.698
207.534	14.228	926.630	698.973
208.548	14.246	925.715	698.296
209.563	14.355	924.825	698.021
210.577	14.382	924.112	697.533
211.592	14.301	923.734	696.845
212.607	14.442	922.652	696.560
213.621	14.305	922.493	695.806
214.636	14.419	921.547	695.506
215.650	14.378	921.032	694.884
216.665	14.359	920.431	694.290
217.680	14.512	919.639	694.267
218.694	14.426	918.856	693.257
219.709	14.414	918.417	692.815
220.723	14.555	917.782	692.861
221.738	14.451	916.929	691.726
222.753	14.572	915.914	691.400
223.767	14.574	915.787	691.249
224.782	14.403	915.529	690.284
225.796	14.495	914.616	689.916
226.811	14.571	913.981	689.689
227.826	14.493	913.136	688.670
228.840	14.561	912.574	688.467
229.855	14.745	911.062	688.024
230.869	14.534	910.490	686.661
231.884	14.505	910.166	686.238
232.899	14.539	909.110	685.517
233.913	14.454	908.979	685.011
234.928	14.487	907.972	684.328
235.942	14.521	907.285	683.887
236.957	14.642	906.795	683.955
237.972	14.663	906.052	683.417
238.986	14.526	905.419	682.321
240.001	14.660	904.407	682.044
241.015	14.591	903.902	681.323
242.030	14.784	903.337	681.623
243.045	14.648	903.068	680.806
244.059	14.719	902.276	680.439
245.074	14.836	901.692	680.414
246.088	14.822	900.893	679.693
247.103	14.722	900.528	678.950
248.117	14.834	900.083	679.012
249.132	14.765	899.542	678.261
250.147	15.043	898.481	678.527
251.161	15.002	897.703	677.717
252.176	15.010	897.463	677.504
253.190	15.009	896.526	676.736
254.205	15.074	895.661	676.284
255.220	15.042	895.385	675.887
256.234	15.033	894.798	675.347
257.249	15.042	894.209	674.881
258.263	15.053	893.402	674.256
259.278	15.161	892.554	673.992
260.293	15.085	892.467	673.560
261.307	15.076	891.797	672.957
262.322	15.121	890.747	672.286
263.336	15.134	890.199	671.868
264.351	15.201	889.373	671.451
265.366	15.374	888.557	671.469
266.380	15.106	888.748	670.480
267.395	15.261	887.677	670.233
268.409	15.355	886.507	669.665
269.424	15.290	885.714	668.747
270.439	15.307	885.235	668.394
271.453	15.229	884.571	667.526
272.468	15.262	884.207	667.323
273.482	15.215	883.718	666.705
274.497	15.267	883.359	666.584
275.512	15.314	882.506	666.069
276.526	15.382	881.701	665.671
277.541	15.473	881.253	665.636
278.555	15.411	880.525	664.781
279.570	15.442	880.092	664.516
280.585	15.448	879.452	664.000
281.599	15.476	878.404	663.258
282.614	15.490	877.615	662.663
283.628	15.527	877.503	662.663
284.643	15.502	876.547	661.786
285.657	15.523	876.346	661.658
286.672	15.536	875.233	660.811
287.687	15.600	874.641	660.555
288.701	15.540	873.835	659.654
289.716	15.632	873.487	659.692
290.730	15.726	872.512	659.266
291.745	15.538	872.855	658.728
292.760	15.633	872.042	658.429
293.774	15.760	871.119	658.170
294.789	15.729	870.637	657.627
295.803	15.672	869.713	656.650
296.818	15.575	869.269	655.879
297.833	15.590	868.717	655.463
298.847	15.622	867.799	654.834
299.862	15.576	867.621	654.463
300.876	15.880	866.341	654.625
301.891	15.861	866.187	654.375
302.906	15.830	865.740	653.859
303.920	15.896	865.607	653.956
304.935	15.763	864.658	652.666
305.949	15.983	863.853	652.852
306.964	15.888	863.024	651.801
307.979	15.872	862.824	651.532
308.993	15.764	862.160	650.555
310.008	15.924	861.392	650.534
311.022	15.870	861.027	649.994
312.037	15.967	860.117	649.622
313.052	15.971	859.505	649.119
314.066	15.840	859.368	648.454
315.081	15.946	858.563	648.197
316.095	16.137	857.847	648.334
317.110	15.957	857.419	647.262
318.125	16.041	856.978	647.192
319.139	15.942	856.514	646.406
320.154	15.979	856.004	646.105
321.168	16.071	855.422	645.959
322.183	15.943	854.949	645.054
323.197	16.003	854.288	644.731
324.212	16.109	853.762	644.680
325.227	16.073	853.022	643.927
326.241	15.991	852.452	643.130
327.256	16.184	851.843	643.349
328.270	16.178	851.295	642.852
329.285	16.075	850.506	641.811
330.300	16.115	850.127	641.619
331.314	16.072	849.713	641.086
332.329	16.174	849.431	641.204
333.343	16.173	848.925	640.762
334.358	16.110	848.220	639.933
335.373	16.132	847.740	639.600
336.387	16.209	847.756	639.844
337.402	16.318	847.458	639.975
338.416	16.424	846.962	639.947
339.431	16.246	846.503	638.872
340.446	16.422	845.746	638.907
341.460	16.310	845.808	638.473
342.475	16.322	845.591	638.301
343.489	16.301	844.845	637.603
344.504	16.461	844.344	637.769
345.519	16.397	843.813	637.072
346.533	16.517	843.252	637.044
347.548	16.494	842.890	636.626
348.562	16.347	842.659	635.845
349.577	16.407	841.593	635.207
350.592	16.520	840.857	635.019
351.606	16.597	839.893	634.526
352.621	16.542	839.471	633.946
353.635	16.593	838.930	633.672
354.650	16.478	838.453	632.822
355.665	16.531	837.767	632.448
356.679	16.440	837.059	631.518
357.694	16.519	836.456	631.300
358.708	16.643	835.792	631.206
359.723	16.685	834.873	630.613
360.738	16.623	834.902	630.349
361.752	16.674	833.984	629.789
362.767	16.801	833.507	629.845
363.781	16.646	833.091	628.901
364.796	16.759	832.381	628.729
365.810	16.884	832.025	628.867
366.825	16.857	831.562	628.360
367.840	16.808	831.042	627.733
368.854	16.842	830.594	627.465
369.869	16.706	830.709	626.992
370.883	16.767	830.384	626.915
371.898	16.980	829.514	626.991
372.913	16.943	829.169	626.539
373.927	16.966	828.669	626.188
374.942	16.863	828.547	625.662
375.956	17.046	827.968	625.844
376.971	16.888	827.500	624.854
377.986	17.022	826.774	624.742
379.000	17.163	826.510	625.007
380.015	16.995	825.962	623.918
381.029	17.070	825.480	623.777
382.044	17.086	824.645	623.150
383.059	17.165	823.906	622.824
384.073	17.125	823.435	622.265
385.088	17.176	823.000	622.068
386.102	17.047	822.705	621.319
387.117	17.256	821.772	621.322
388.132	17.102	820.951	620.086
389.146	17.158	820.806	620.125
390.161	17.226	820.262	619.910
391.175	17.155	820.087	619.463
392.190	17.188	819.317	618.945
393.205	17.119	818.924	618.342
394.219	17.146	818.648	618.179
395.234	17.288	818.047	618.187
396.248	17.156	817.901	617.542
397.263	17.165	817.184	616.979
398.278	17.164	816.893	616.701
399.292	17.239	816.526	616.641
400.307	17.227	815.401	615.693
401.321	17.224	815.473	615.683
402.336	17.233	814.999	615.303
403.350	17.394	814.386	615.368
404.365	17.422	813.794	614.966
405.380	17.391	813.599	614.653
406.394	17.408	812.642	613.936
407.409	17.320	812.806	613.688
408.423	17.447	812.361	613.755
409.438	17.546	811.782	613.622
410.453	17.604	811.322	613.430
411.467	17.625	810.663	612.951
412.482	17.666	810.478	612.904
413.496	17.616	810.147	612.420
414.511	17.664	809.888	612.344
415.526	17.761	809.069	612.017
416.540	17.661	808.978	611.535
417.555	17.720	808.399	611.255
418.569	17.658	808.058	610.721
419.584	17.609	807.547	610.104
420.599	17.572	807.015	609.518
421.613	107.850	1289.963	1459.782
422.628	92.964	1360.310	1459.865
