DTS Sentinel unit serial number:	SN413079Multiplexer serial number:	ORYXHardware model number:	OX4-SRSoftware version number:	ORYX F/W v4.00 Oryx Data Collector v3.7.2.0data status	okinstallation	princeton_trtdifferential loss correction	single-endedforward channel	channel 1reverse channel	N/Adate	2019/09/15time	03:50:35forward acquisition time	60.00reverse acquisition time	0.00gamma	496.2192k internal	0.2323k external	0.2323temperature offset calibration	0.9990default loss term (dB/km)	0.3790temperature slope calibration	1.0000multiplexer offset coefficient	1.0000multiplexer slope coefficient	1.0000fibre end	0.00T internal ref (°C)	30.94T ext. ref 1 (°C)	4.61T ext. ref 2 (°C)	25.89length (m)	temperature (°C)	Stokes	anti-Stokes-747.200	-149.686	-0.138	0.011
-746.185	312.515	0.043	-0.081
-745.171	800.000	0.130	0.510
-744.156	369.457	-0.200	0.410
-743.142	-18.231	0.226	-0.142
-742.127	306.875	-0.027	-0.051
-741.112	800.000	0.039	-0.139
-740.098	-129.915	-0.052	0.007
-739.083	91.563	0.109	-0.124
-738.069	-65.216	0.181	0.073
-737.054	-151.336	0.128	-0.010
-736.039	17.533	-0.155	-0.125
-735.025	125.749	0.073	0.093
-734.010	800.000	-0.027	0.088
-732.996	-150.786	-0.238	0.018
-731.981	21.740	-0.061	-0.051
-730.966	-10.599	-0.133	-0.089
-729.952	-200.000	-0.002	-0.131
-728.937	-56.408	0.208	-0.093
-727.923	112.306	-0.133	0.162
-726.908	117.981	-0.061	0.076
-725.894	800.000	0.023	0.071
-724.879	-85.753	-0.293	0.092
-723.864	-200.000	0.052	-0.395
-722.850	-0.693	-0.046	-0.033
-721.835	0.910	0.435	-0.314
-720.821	24.167	-0.235	-0.196
-719.806	-167.629	-0.121	0.005
-718.791	72.567	-0.226	-0.238
-717.777	-31.889	-0.235	-0.133
-716.762	-121.684	-0.255	-0.043
-715.748	800.000	0.101	0.317
-714.733	-200.000	-0.017	-0.141
-713.718	-49.153	-0.240	-0.116
-712.704	-130.116	-0.348	-0.048
-711.689	-112.931	0.041	0.008
-710.675	-23.111	0.112	-0.068
-709.660	-200.000	-0.008	-0.129
-708.645	-200.000	-0.012	0.078
-707.631	179.801	0.032	0.048
-706.616	136.037	0.158	-0.208
-705.602	118.662	0.097	0.120
-704.587	-200.000	-0.013	0.217
-703.572	98.107	-0.264	-0.307
-702.558	680.075	-0.081	-0.213
-701.543	78.664	0.259	-0.279
-700.529	-1.408	0.041	0.029
-699.514	800.000	0.063	0.240
-698.499	-200.000	0.029	0.229
-697.485	-70.545	-0.149	0.057
-696.470	800.000	0.132	-0.378
-695.456	-11.621	-0.156	0.103
-694.441	-26.184	-0.228	0.135
-693.426	216.660	-0.067	-0.108
-692.412	159.425	-0.113	-0.159
-691.397	-80.610	0.159	0.053
-690.383	77.295	-0.180	0.192
-689.368	-80.699	0.169	0.057
-688.354	-129.588	-0.059	0.008
-687.339	539.257	0.044	0.105
-686.324	122.503	-0.118	-0.149
-685.310	52.178	-0.121	0.116
-684.295	52.386	-0.029	-0.028
-683.281	-70.994	-0.288	0.109
-682.266	124.024	-0.126	-0.160
-681.251	487.843	-0.040	0.092
-680.237	-110.615	0.264	0.055
-679.222	800.000	-0.070	-0.308
-678.208	-111.695	0.284	-0.058
-677.193	-108.297	-0.370	0.081
-676.178	719.005	-0.030	0.081
-675.164	19.529	0.144	-0.117
-674.149	-0.092	0.265	0.190
-673.135	-11.407	0.131	-0.087
-672.120	800.000	-0.102	-0.371
-671.105	-128.301	-0.167	0.024
-670.091	253.631	-0.191	-0.329
-669.076	249.791	-0.115	0.196
-668.062	-131.192	-0.105	-0.014
-667.047	-125.160	0.307	-0.047
-666.032	-71.087	-0.330	-0.125
-665.018	93.642	-0.029	-0.033
-664.003	173.336	-0.120	-0.175
-662.989	-119.853	0.212	-0.037
-661.974	800.000	0.030	0.107
-660.959	121.213	-0.177	-0.221
-659.945	-96.643	-0.223	-0.059
-658.930	150.571	0.135	0.185
-657.916	15.983	0.366	0.290
-656.901	-32.698	0.227	-0.127
-655.886	-79.157	0.135	0.046
-654.872	214.164	0.096	-0.153
-653.857	184.569	-0.113	-0.169
-652.843	800.000	-0.042	-0.135
-651.828	800.000	0.087	-0.290
-650.814	-22.814	0.181	-0.110
-649.799	204.732	0.022	-0.034
-648.784	-80.049	-0.193	0.065
-647.770	-69.210	-0.299	-0.116
-646.755	-200.000	-0.083	-0.432
-645.741	-162.634	-0.147	-0.007
-644.726	800.000	-0.038	0.120
-643.711	-98.115	-0.227	0.059
-642.697	-131.154	-0.129	-0.017
-641.682	800.000	0.081	-0.243
-640.668	-106.905	-0.142	0.032
-639.653	-71.214	-0.142	0.054
-638.638	-8.312	-0.207	-0.140
-637.624	-200.000	-0.016	-0.090
-636.609	-200.000	0.002	-0.142
-635.595	70.289	0.032	0.034
-634.580	27.526	-0.341	-0.288
-633.565	-200.000	-0.002	-0.020
-632.551	303.785	-0.178	0.332
-631.536	284.824	-0.043	-0.078
-630.522	498.488	0.125	0.290
-629.507	221.717	-0.025	-0.040
-628.492	-122.469	-0.133	0.022
-627.478	549.433	-0.091	0.219
-626.463	800.000	-0.059	0.184
-625.449	-200.000	-0.009	0.089
-624.434	145.298	-0.218	0.294
-623.419	-84.365	0.176	-0.056
-622.405	-30.706	0.148	-0.084
-621.390	-200.000	0.004	-0.273
-620.376	-108.187	-0.189	-0.041
-619.361	112.401	-0.140	-0.170
-618.346	207.813	-0.082	-0.129
-617.332	-63.127	-0.123	0.051
-616.317	-200.000	-0.019	-0.310
-615.303	-66.689	0.104	0.041
-614.288	-134.492	-0.133	0.016
-613.273	-120.280	0.120	0.020
-612.259	-130.222	0.121	0.017
-611.244	800.000	-0.048	0.147
-610.230	581.179	0.087	0.215
-609.215	86.763	0.111	-0.123
-608.201	-126.617	0.364	-0.054
-607.186	61.772	0.154	-0.154
-606.171	12.917	-0.133	-0.103
-605.157	310.827	-0.136	-0.257
-604.142	-2.021	-0.184	-0.130
-603.128	-87.424	0.319	-0.097
-602.113	368.116	0.080	-0.163
-601.098	-75.300	-0.193	-0.069
-600.084	-106.832	-0.296	-0.066
-599.069	-0.288	-0.211	0.151
-598.055	99.587	-0.372	-0.432
-597.040	77.634	-0.243	-0.260
-596.025	143.658	-0.092	-0.123
-595.011	800.000	-0.094	0.274
-593.996	116.139	-0.165	0.203
-592.982	-17.715	0.283	0.178
-591.967	275.593	-0.070	0.126
-590.952	53.389	0.223	0.215
-589.938	360.424	-0.052	-0.104
-588.923	111.074	0.087	-0.105
-587.909	-28.953	-0.179	0.103
-586.894	-66.189	0.167	-0.067
-585.879	800.000	-0.142	0.431
-584.865	-92.152	-0.435	0.123
-583.850	-25.274	-0.343	-0.204
-582.836	-86.970	-0.411	-0.126
-581.821	389.375	0.055	-0.114
-580.806	800.000	0.025	0.106
-579.792	-200.000	0.001	-0.137
-578.777	549.327	-0.116	-0.278
-577.763	81.819	0.095	-0.103
-576.748	-12.493	-0.307	-0.201
-575.733	418.039	-0.049	-0.105
-574.719	352.563	0.071	-0.140
-573.704	-200.000	-0.003	0.350
-572.690	376.546	0.027	-0.056
-571.675	-200.000	-0.020	-0.189
-570.661	188.218	-0.103	0.155
-569.646	117.925	0.143	0.177
-568.631	800.000	-0.139	-0.510
-567.617	-64.410	-0.079	0.032
-566.602	17.304	-0.142	-0.113
-565.588	26.732	0.157	0.132
-564.573	-79.370	0.253	-0.086
-563.558	-56.011	-0.326	-0.146
-562.544	161.081	0.183	0.256
-561.529	116.269	-0.133	-0.163
-560.515	197.980	-0.174	0.266
-559.500	-51.836	0.157	0.073
-558.485	66.460	0.066	0.067
-557.471	-85.517	-0.060	0.019
-556.456	64.080	0.163	-0.164
-555.442	800.000	0.050	-0.145
-554.427	159.271	-0.042	-0.058
-553.412	-107.487	0.278	-0.061
-552.398	-158.677	-0.243	0.014
-551.383	49.446	-0.144	0.136
-550.369	-24.094	-0.146	-0.087
-549.354	-200.000	0.030	-0.262
-548.339	-200.000	0.014	-0.112
-547.325	-4.007	0.218	0.152
-546.310	-200.000	0.029	-0.222
-545.296	145.675	-0.139	0.187
-544.281	93.666	0.131	-0.149
-543.266	338.311	0.096	0.188
-542.252	282.759	0.059	-0.106
-541.237	-25.656	-0.402	-0.238
-540.223	-168.029	0.384	0.015
-539.208	800.000	0.054	-0.225
-538.193	-200.000	-0.007	-0.495
-537.179	-176.114	0.120	-0.003
-536.164	-98.522	-0.310	-0.079
-535.150	800.000	0.021	-0.061
-534.135	-200.000	0.015	-0.208
-533.121	800.000	-0.046	-0.182
-532.106	-25.828	0.206	0.122
-531.091	-125.279	-0.359	-0.055
-530.077	-54.833	-0.418	0.189
-529.062	-200.000	-0.010	0.058
-528.048	800.000	-0.108	0.339
-527.033	231.201	0.138	0.226
-526.018	-200.000	-0.016	-0.117
-525.004	-200.000	-0.011	0.158
-523.989	-45.799	-0.311	-0.154
-522.975	-50.547	-0.321	0.151
-521.960	-165.069	0.307	0.014
-520.945	12.540	-0.416	0.321
-519.931	-187.827	-0.444	0.006
-518.916	-200.000	0.016	0.099
-517.902	-78.879	0.126	0.043
-516.887	-200.000	0.028	-0.334
-515.872	800.000	0.073	-0.293
-514.858	-200.000	0.022	-0.233
-513.843	800.000	0.059	0.248
-512.829	-29.435	0.183	0.105
-511.814	-93.095	-0.305	-0.085
-510.799	-200.000	0.015	0.084
-509.785	-53.887	-0.304	-0.138
-508.770	-46.890	-0.174	-0.085
-507.756	129.652	-0.108	-0.138
-506.741	-96.710	-0.081	-0.021
-505.726	-90.293	-0.250	-0.073
-504.712	-8.721	-0.130	-0.087
-503.697	-117.099	0.309	0.056
-502.683	105.498	0.043	-0.051
-501.668	-195.570	-0.143	0.001
-500.653	-87.868	-0.188	0.057
-499.639	202.708	-0.122	-0.188
-498.624	-102.350	0.228	0.055
-497.610	-200.000	-0.018	0.238
-496.595	-60.087	0.087	0.037
-495.581	276.632	-0.164	0.291
-494.566	-200.000	0.239	0.001
-493.551	379.483	0.058	0.118
-492.537	-30.757	0.122	0.069
-491.522	-86.770	-0.221	0.068
-490.508	-200.000	-0.065	-0.334
-489.493	-71.718	-0.063	-0.023
-488.478	800.000	-0.079	-0.221
-487.464	290.613	0.071	-0.130
-486.449	261.404	-0.061	0.105
-485.435	-179.660	-0.342	-0.007
-484.420	-125.219	0.391	0.060
-483.405	267.101	0.060	0.104
-482.391	256.090	0.058	-0.099
-481.376	800.000	0.082	-0.347
-480.362	150.002	0.096	-0.131
-479.347	-200.000	0.048	0.390
-478.332	-160.541	0.281	-0.015
-477.318	-200.000	-0.024	0.106
-476.303	800.000	0.067	-0.247
-475.289	-24.661	0.188	0.112
-474.274	82.344	0.149	0.162
-473.259	473.864	-0.029	0.066
-472.245	208.407	-0.091	0.143
-471.230	8.686	-0.192	0.145
-470.216	-160.951	-0.191	0.010
-469.201	-47.469	0.153	0.074
-468.186	218.658	0.156	0.249
-467.172	581.662	0.160	0.393
-466.157	-200.000	-0.010	0.384
-465.143	-200.000	0.003	-0.152
-464.128	8.516	0.019	-0.014
-463.113	-200.000	0.006	0.068
-462.099	766.911	-0.070	-0.189
-461.084	-120.019	0.116	0.020
-460.070	-159.420	-0.311	0.017
-459.055	18.881	-0.038	-0.031
-458.040	253.768	0.128	-0.218
-457.026	-27.056	-0.231	-0.134
-456.011	-200.000	-0.002	0.213
-454.997	-1.037	-0.162	-0.114
-453.982	564.347	0.082	0.198
-452.968	514.604	0.191	0.445
-451.953	-123.980	-0.225	0.035
-450.938	-20.208	0.102	-0.063
-449.924	-125.696	-0.095	0.014
-448.909	800.000	0.118	0.343
-447.895	-133.280	0.134	0.017
-446.880	66.474	0.145	-0.147
-445.865	-200.000	-0.008	0.319
-444.851	-34.377	0.234	0.128
-443.836	-141.603	-0.283	0.028
-442.822	-22.888	-0.316	-0.190
-441.807	-55.641	0.061	0.027
-440.792	-45.369	-0.098	-0.049
-439.778	523.992	-0.024	-0.057
-438.763	145.693	-0.122	0.163
-437.749	25.410	-0.203	0.169
-436.734	-144.846	0.097	-0.009
-435.719	-90.632	-0.178	0.051
-434.705	474.329	0.059	-0.133
-433.690	-200.000	-0.008	-0.285
-432.676	800.000	0.122	0.398
-431.661	-172.821	0.113	0.004
-430.646	177.133	-0.113	0.164
-429.632	800.000	-0.073	0.257
-428.617	38.800	-0.085	-0.076
-427.603	-89.885	0.267	-0.078
-426.588	751.830	0.143	0.384
-425.573	-200.000	0.033	0.267
-424.559	800.000	0.100	-0.288
-423.544	800.000	-0.020	-0.076
-422.530	-200.000	0.060	0.262
-421.515	434.093	0.094	-0.203
-420.500	609.936	-0.051	-0.127
-419.486	-200.000	0.010	-0.127
-418.471	10.621	-0.249	-0.189
-417.457	-194.821	0.082	-0.001
-416.442	146.222	-0.048	0.064
-415.428	355.069	0.068	-0.135
-414.413	32.069	-0.227	-0.195
-413.398	14.257	-0.285	-0.222
-412.384	-32.242	0.122	-0.068
-411.369	-105.562	0.247	-0.056
-410.355	-165.189	-0.111	-0.005
-409.340	-60.682	-0.269	0.114
-408.325	-69.241	0.093	0.036
-407.311	-111.193	-0.513	-0.105
-406.296	387.517	0.098	0.201
-405.282	-53.843	-0.087	-0.040
-404.267	15.578	-0.129	0.101
-403.252	-49.762	0.086	0.041
-402.238	247.001	0.170	0.286
-401.223	-94.176	-0.198	-0.054
-400.209	13.843	-0.192	0.149
-399.194	-200.000	0.010	0.226
-398.179	-56.651	-0.269	-0.119
-397.165	-32.652	-0.084	-0.047
-396.150	-174.526	0.239	-0.007
-395.136	800.000	-0.088	-0.344
-394.121	-200.000	0.013	-0.112
-393.106	-149.366	0.174	0.014
-392.092	204.572	-0.058	-0.089
-391.077	800.000	0.106	0.350
-390.063	433.663	0.040	0.087
-389.048	-33.799	0.181	0.099
-388.033	-200.000	-0.007	0.243
-387.019	-38.459	0.129	0.068
-386.004	77.108	0.088	0.093
-384.990	211.445	0.108	-0.169
-383.975	124.091	-0.194	-0.243
-382.960	-141.282	-0.172	-0.017
-381.946	-152.951	0.283	-0.020
-380.931	143.367	-0.086	-0.114
-379.917	800.000	0.097	-0.312
-378.902	-93.366	0.084	-0.023
-377.888	-34.479	-0.184	-0.100
-376.873	-200.000	0.253	0.001
-375.858	-93.194	-0.401	-0.111
-374.844	-26.631	0.122	-0.071
-373.829	187.570	-0.145	-0.215
-372.815	189.399	0.043	0.064
-371.800	-200.000	0.039	-0.172
-370.785	800.000	-0.135	-0.393
-369.771	-131.589	0.375	-0.049
-368.756	-103.336	-0.198	-0.047
-367.742	-200.000	-0.038	0.169
-366.727	-45.117	0.109	0.054
-365.712	27.067	-0.117	-0.098
-364.698	-200.000	0.038	0.219
-363.683	800.000	0.019	0.071
-362.669	306.932	-0.119	-0.220
-361.654	-47.858	0.313	-0.151
-360.639	299.058	0.116	-0.213
-359.625	25.146	0.099	0.081
-358.610	800.000	0.044	-0.188
-357.596	-54.142	-0.131	-0.059
-356.581	800.000	0.072	-0.218
-355.566	-200.000	-0.003	0.080
-354.552	-200.000	-0.003	0.297
-353.537	-131.586	0.119	0.016
-352.523	-67.403	0.506	0.198
-351.508	800.000	-0.149	0.466
-350.493	-200.000	0.038	-0.408
-349.479	800.000	-0.043	-0.186
-348.464	-200.000	0.008	-0.087
-347.450	-126.522	0.174	0.026
-346.435	71.645	0.070	0.073
-345.420	-2.692	0.118	0.082
-344.406	-200.000	0.006	-0.036
-343.391	324.736	0.206	0.391
-342.377	274.938	0.079	-0.139
-341.362	624.855	0.058	0.145
-340.348	35.601	0.179	-0.156
-339.333	-167.627	0.147	0.006
-338.318	-55.667	-0.208	0.092
-337.304	37.327	0.183	0.161
-336.289	-155.238	-0.229	0.015
-335.275	70.834	-0.151	0.156
-334.260	-200.000	-0.037	0.244
-333.245	164.937	0.106	0.149
-332.231	-119.621	0.400	0.069
-331.216	-76.097	0.382	-0.134
-330.202	-173.340	-0.213	-0.006
-329.187	101.398	-0.156	0.181
-328.172	-18.806	-0.331	0.205
-327.158	-156.776	0.114	0.007
-326.143	245.257	0.213	0.356
-325.129	65.482	-0.233	0.234
-324.114	-200.000	-0.046	-0.402
-323.099	132.480	0.172	0.220
-322.085	-200.000	0.006	-0.109
-321.070	800.000	0.113	0.352
-320.056	-111.468	-0.436	-0.088
-319.041	-75.780	0.344	-0.121
-318.026	633.523	0.165	-0.416
-317.012	-200.000	0.039	-0.178
-315.997	-128.705	0.254	-0.036
-314.983	112.618	0.149	-0.179
-313.968	628.796	0.068	-0.171
-312.953	-42.243	0.259	0.131
-311.939	800.000	0.050	-0.172
-310.924	61.799	-0.194	-0.191
-309.910	-13.134	0.055	0.036
-308.895	-134.449	0.006	-0.001
-307.880	544.144	0.150	-0.355
-306.866	626.114	0.041	-0.104
-305.851	-4.018	0.152	0.104
-304.837	-97.721	0.027	-0.007
-303.822	-25.973	0.285	0.167
-302.807	-44.764	0.136	-0.067
-301.793	-106.985	0.509	0.112
-300.778	800.000	0.006	-0.022
-299.764	473.303	-0.175	0.391
-298.749	800.000	0.080	0.241
-297.735	-105.087	-0.371	-0.084
-296.720	58.675	0.145	-0.141
-295.705	800.000	0.042	-0.122
-294.691	-113.691	0.317	-0.061
-293.676	-0.387	-0.120	-0.085
-292.662	71.223	0.175	-0.180
-291.647	317.049	-0.100	0.188
-290.632	-12.338	-0.063	-0.041
-289.618	-200.000	-0.043	-0.201
-288.603	-123.824	-0.166	0.026
-287.589	-200.000	0.023	0.220
-286.574	81.346	-0.284	0.304
-285.559	-120.039	-0.156	0.027
-284.545	96.301	0.094	0.107
-283.530	-92.169	0.424	0.119
-282.516	-11.306	0.162	0.106
-281.501	-70.282	0.367	0.138
-280.486	800.000	-0.084	0.294
-279.472	-54.200	0.384	-0.173
-278.457	228.249	0.199	-0.321
-277.443	-200.000	-0.031	-0.195
-276.428	327.319	-0.085	0.162
-275.413	-151.733	-0.134	0.010
-274.399	-17.954	0.136	-0.085
-273.384	-97.162	-0.050	-0.013
-272.370	-200.000	-0.001	0.096
-271.355	-200.000	-0.007	0.269
-270.340	-29.473	-0.135	-0.076
-269.326	-120.280	-0.178	0.030
-268.311	-41.687	-0.192	-0.098
-267.297	800.000	-0.044	0.177
-266.282	-83.596	0.261	-0.083
-265.267	-200.000	-0.075	0.482
-264.253	-127.999	0.248	-0.035
-263.238	-86.046	-0.060	-0.018
-262.224	-135.090	0.102	-0.012
-261.209	-35.528	0.073	-0.039
-260.195	105.109	-0.277	0.324
-259.180	495.206	-0.134	0.306
-258.165	240.180	-0.100	0.164
-257.151	-1.226	-0.148	-0.104
-256.136	123.414	0.203	0.252
-255.122	124.144	-0.093	-0.116
-254.107	341.939	-0.047	0.091
-253.092	-131.740	-0.253	0.033
-252.078	-137.383	-0.347	0.039
-251.063	-162.887	0.275	-0.013
-250.049	-200.000	-0.033	-0.203
-249.034	-91.900	-0.038	0.011
-248.019	800.000	0.054	0.190
-247.005	-183.673	-0.213	-0.004
-245.990	51.240	-0.219	-0.206
-244.976	-9.550	0.153	0.101
-243.961	178.231	-0.146	-0.211
-242.946	-108.206	0.177	0.038
-241.932	-123.778	0.359	-0.056
-240.917	-47.211	0.126	0.061
-239.903	800.000	-0.045	0.167
-238.888	-40.504	0.182	0.093
-237.873	-70.940	-0.181	-0.067
-236.859	-40.344	0.283	0.146
-235.844	-48.993	0.455	-0.216
-234.830	314.395	-0.018	-0.034
-233.815	321.692	0.175	-0.329
-232.800	-124.829	-0.083	-0.013
-231.786	126.939	0.088	0.110
-230.771	-146.952	0.225	0.019
-229.757	412.084	0.088	0.186
-228.742	14.061	0.259	0.200
-227.727	-200.000	-0.054	-0.290
-226.713	387.297	0.119	0.244
-225.698	-12.717	-0.125	0.081
-224.684	-184.163	0.296	0.005
-223.669	271.496	0.106	0.185
-222.655	315.827	0.096	0.180
-221.640	73.673	-0.027	0.028
-220.625	-39.215	0.171	-0.089
-219.611	85.867	-0.130	-0.142
-218.596	301.329	-0.179	-0.328
-217.582	264.032	0.102	-0.175
-216.567	-120.540	0.201	0.034
-215.552	272.482	-0.078	-0.136
-214.538	-200.000	0.031	-0.435
-213.523	54.285	-0.144	-0.137
-212.509	-200.000	-0.006	-0.112
-211.494	-84.488	0.049	-0.015
-210.479	34.171	-0.153	0.132
-209.465	-65.913	-0.155	0.061
-208.450	-2.430	-0.066	-0.045
-207.436	-200.000	0.013	0.074
-206.421	-159.937	0.319	-0.017
-205.406	104.857	-0.106	0.124
-204.392	-182.381	0.270	-0.005
-203.377	187.368	-0.158	-0.233
-202.363	-122.073	0.357	-0.058
-201.348	-176.252	0.241	0.006
-200.333	-104.009	0.304	0.070
-199.319	-103.835	0.355	0.082
-198.304	557.430	-0.113	0.268
-197.290	-200.000	-0.029	-0.301
-196.275	-91.035	-0.070	0.020
-195.260	133.443	-0.212	0.271
-194.246	800.000	-0.032	0.138
-193.231	-200.000	0.053	-0.375
-192.217	110.837	0.106	-0.126
-191.202	-57.291	0.246	-0.107
-190.187	-123.364	0.103	-0.016
-189.173	800.000	0.013	0.045
-188.158	800.000	-0.048	0.139
-187.144	-200.000	-0.038	0.364
-186.129	-29.066	0.048	0.027
-185.114	369.538	-0.064	-0.128
-184.100	90.953	-0.097	0.108
-183.085	-102.057	0.339	0.081
-182.071	221.579	-0.065	-0.103
-181.056	242.862	0.168	0.278
-180.042	335.564	0.101	0.193
-179.027	-61.989	-0.204	-0.084
-178.012	-107.988	0.216	0.046
-176.998	-200.000	0.016	-0.103
-175.983	-156.830	0.338	-0.021
-174.969	457.334	0.053	-0.117
-173.954	-62.791	-0.261	-0.107
-172.939	28.115	0.098	0.081
-171.925	58.340	0.056	-0.054
-170.910	-143.718	0.476	0.045
-169.896	-104.796	0.231	-0.052
-168.881	32.918	-0.315	0.269
-167.866	-68.220	-0.209	0.080
-166.852	-200.000	-0.010	-0.113
-165.837	-43.461	0.036	0.018
-164.823	-200.000	0.067	-0.309
-163.808	8.631	-0.140	-0.104
-162.793	104.400	-0.033	-0.039
-161.779	766.322	-0.170	0.457
-160.764	390.439	0.081	0.165
-159.750	-103.839	-0.108	-0.025
-158.735	-64.478	-0.219	-0.088
-157.720	138.106	-0.135	0.175
-156.706	-200.000	0.018	0.099
-155.691	77.450	-0.137	-0.144
-154.677	-82.542	-0.268	-0.086
-153.662	314.865	0.139	0.258
-152.647	-108.959	0.240	-0.050
-151.633	-200.000	0.057	-0.340
-150.618	-200.000	-0.066	-0.415
-149.604	56.752	0.135	-0.130
-148.589	188.185	0.014	0.020
-147.574	193.728	0.076	-0.113
-146.560	-133.577	0.289	0.036
-145.545	42.832	0.075	0.068
-144.531	-67.865	-0.186	-0.072
-143.516	-200.000	-0.058	0.356
-142.502	162.007	0.049	0.067
-141.487	800.000	-0.166	0.472
-140.472	279.483	-0.185	0.325
-139.458	-46.327	-0.105	0.051
-138.443	-70.608	0.244	-0.091
-137.429	32.883	0.226	0.193
-136.414	-200.000	-0.046	0.345
-135.399	-116.653	-0.454	0.082
-134.385	56.191	0.072	0.069
-133.370	114.816	0.259	0.311
-132.356	-87.228	0.073	-0.022
-131.341	-93.187	-0.058	0.016
-130.326	800.000	0.044	0.129
-129.312	141.842	-0.191	-0.249
-128.297	548.671	0.026	0.062
-127.283	60.652	0.182	0.177
-126.268	-119.213	-0.210	0.036
-125.253	-200.000	0.023	0.353
-124.239	-200.000	0.009	0.068
-123.224	-142.728	0.115	0.011
-122.210	-52.688	0.223	-0.101
-121.195	217.781	-0.089	0.139
-120.180	-93.563	0.408	0.111
-119.166	502.176	0.065	-0.149
-118.151	-142.501	0.245	-0.024
-117.137	372.639	-0.027	-0.053
-116.122	21.599	0.288	0.231
-115.107	-30.322	0.137	-0.076
-114.093	47.100	0.056	-0.052
-113.078	-200.000	-0.018	0.146
-112.064	-23.603	-0.320	0.189
-111.049	800.000	-0.039	0.113
-110.034	25.683	-0.105	-0.086
-109.020	-13.356	-0.226	0.144
-108.005	-59.178	0.181	0.077
-106.991	-114.968	0.119	0.022
-105.976	2.619	0.167	0.119
-104.962	-153.843	-0.105	0.007
-103.947	-200.000	0.014	-0.181
-102.932	-51.626	-0.176	0.081
-101.918	-200.000	-0.001	-0.175
-100.903	800.000	-0.031	-0.133
-99.889	-161.923	0.432	0.022
-98.874	230.371	0.118	-0.191
-97.859	263.119	0.275	0.470
-96.845	158.761	0.167	-0.228
-95.830	-138.575	0.422	0.046
-94.816	1.525	0.085	-0.060
-93.801	-108.590	-0.401	-0.085
-92.786	-200.000	0.002	0.134
-91.772	-69.867	-0.234	0.088
-90.757	498.918	-0.048	0.109
-89.743	-63.039	-0.253	-0.103
-88.728	-27.809	0.370	0.211
-87.713	13.488	-0.202	-0.154
-86.699	-200.000	0.011	-0.386
-85.684	800.000	0.025	-0.099
-84.670	326.998	0.076	0.144
-83.655	597.938	-0.106	0.260
-82.640	-54.109	-0.020	0.009
-81.626	-39.133	-0.462	0.239
-80.611	800.000	0.076	0.224
-79.597	800.000	0.027	-0.095
-78.582	287.991	0.115	0.204
-77.567	-62.815	0.299	-0.122
-76.553	-200.000	0.054	0.308
-75.538	6.024	0.207	-0.151
-74.524	-54.498	0.220	0.098
-73.509	-153.214	-0.099	0.007
-72.494	323.404	-0.103	0.194
-71.480	-126.092	-0.189	-0.028
-70.465	-38.006	0.227	-0.119
-69.451	-166.275	0.189	-0.008
-68.436	742.119	-0.075	0.198
-67.422	548.545	0.055	0.130
-66.407	280.932	-0.094	-0.165
-65.392	-32.570	0.134	0.074
-64.378	302.465	-0.141	-0.257
-63.363	-168.703	0.164	0.006
-62.349	800.000	-0.140	0.397
-61.334	23.056	-1.015	-0.819
-60.319	-125.855	0.733	0.109
-59.305	800.000	-0.324	-1.023
-58.290	185.896	0.676	0.988
-57.276	502.913	0.679	1.542
-56.261	-200.000	100.942	595.380
-55.246	570.182	1415.071	3384.108
-54.232	191.077	2598.942	3843.810
-53.217	117.770	2142.217	2592.738
-52.203	42.897	1593.251	1427.451
-51.188	34.388	1328.912	1139.960
-50.173	31.317	1286.574	1085.785
-49.159	53.848	1336.800	1262.198
-48.144	55.852	1353.767	1290.037
-47.130	34.601	1310.560	1125.298
-46.115	31.128	1292.784	1089.747
-45.100	30.928	1287.968	1084.480
-44.086	30.837	1285.434	1081.776
-43.071	30.762	1283.580	1079.736
-42.057	30.789	1281.041	1077.714
-41.042	30.904	1279.160	1076.753
-40.027	30.817	1278.159	1075.365
-39.013	30.825	1275.988	1073.546
-37.998	30.834	1274.613	1072.395
-36.984	30.868	1272.929	1071.131
-35.969	30.969	1270.883	1069.949
-34.954	30.975	1269.285	1068.592
-33.940	30.934	1268.658	1067.790
-32.925	30.917	1267.329	1066.534
-31.911	31.015	1265.432	1065.455
-30.896	31.083	1263.841	1064.457
-29.881	31.188	1262.644	1064.007
-28.867	31.089	1261.033	1062.042
-27.852	31.061	1259.976	1060.953
-26.838	31.131	1257.907	1059.566
-25.823	30.916	1257.358	1057.837
-24.809	31.080	1255.830	1057.444
-23.794	30.920	1254.856	1055.671
-22.779	30.991	1253.218	1054.656
-21.765	30.990	1251.950	1053.543
-20.750	30.948	1250.652	1052.171
-19.736	30.946	1249.351	1051.023
-18.721	30.841	1248.399	1049.590
-17.706	30.926	1247.452	1049.226
-16.692	30.919	1245.908	1047.850
-15.677	30.890	1244.764	1046.681
-14.663	30.951	1243.552	1045.967
-13.648	30.887	1242.479	1044.661
-12.633	30.851	1241.300	1043.426
-11.619	30.762	1240.742	1042.419
-10.604	30.875	1240.081	1042.453
-9.590	30.996	1238.712	1041.938
-8.575	30.880	1238.074	1040.711
-7.560	30.818	1237.257	1039.635
-6.546	30.954	1236.136	1039.414
-5.531	30.866	1235.524	1038.369
-4.517	30.846	1234.878	1037.669
-3.502	30.818	1233.676	1036.466
-2.487	30.830	1232.782	1035.736
-1.473	30.833	1229.010	1032.543
-0.458	29.456	1213.932	1012.291
0.556	24.757	1197.569	975.587
1.571	21.302	1202.362	960.449
2.586	20.354	1217.315	967.025
3.600	19.921	1206.639	956.069
4.615	15.356	1136.311	876.469
5.629	7.886	1064.958	784.657
6.644	4.762	1045.861	755.372
7.659	4.502	1043.451	752.308
8.673	4.652	1042.327	752.154
9.688	4.515	1041.225	750.632
10.702	4.668	1038.889	749.618
11.717	8.805	1044.747	773.794
12.731	15.728	1053.952	814.167
13.746	18.548	1057.023	830.141
14.761	17.957	1056.049	826.442
15.775	16.959	1053.215	819.333
16.790	15.800	1052.158	812.844
17.804	15.234	1050.190	808.522
18.819	14.888	1048.842	805.745
19.834	14.548	1047.907	803.317
20.848	14.294	1047.697	801.861
21.863	14.133	1046.906	800.412
22.877	14.021	1045.953	799.075
23.892	14.041	1045.126	798.467
24.907	13.938	1044.738	797.608
25.921	14.196	1043.243	797.632
26.936	14.127	1041.954	796.243
27.950	14.185	1040.538	795.369
28.965	14.227	1038.894	794.240
29.980	14.185	1037.651	793.021
30.994	14.286	1036.763	792.755
32.009	14.261	1035.469	791.573
33.023	14.307	1034.561	791.028
34.038	14.237	1033.489	789.807
35.053	14.192	1032.511	788.777
36.067	14.091	1031.836	787.715
37.082	14.147	1031.209	787.429
38.096	14.161	1030.533	786.912
39.111	14.116	1030.002	786.224
40.126	14.055	1028.554	784.761
41.140	13.956	1026.970	783.013
42.155	13.784	1025.973	781.374
43.169	13.819	1025.230	780.908
44.184	14.023	1023.850	780.744
45.199	13.931	1022.756	779.408
46.213	13.949	1022.103	778.927
47.228	14.109	1020.490	778.377
48.242	14.220	1019.564	778.119
49.257	14.089	1019.086	777.073
50.271	14.230	1017.969	776.812
51.286	14.141	1017.408	775.901
52.301	14.147	1015.777	774.616
53.315	14.014	1015.086	773.401
54.330	13.907	1014.046	772.043
55.344	13.999	1012.871	771.508
56.359	14.120	1012.379	771.625
57.374	14.044	1011.515	770.547
58.388	13.981	1010.535	769.443
59.403	13.931	1009.752	768.546
60.417	13.770	1009.374	767.444
61.432	13.820	1008.633	767.045
62.447	13.790	1007.783	766.192
63.461	13.849	1006.552	765.459
64.476	13.957	1005.642	765.199
65.490	13.848	1005.306	764.374
66.505	13.741	1004.575	763.258
67.520	13.859	1003.549	762.951
68.534	13.817	1002.930	762.220
69.549	13.896	1001.919	761.749
70.563	13.763	1001.319	760.613
71.578	13.656	1000.837	759.691
72.593	13.668	1000.408	759.354
73.607	13.729	999.695	759.025
74.622	13.614	999.234	758.080
75.636	13.721	998.308	757.798
76.651	13.787	997.328	757.290
77.666	13.823	996.871	757.042
78.680	13.843	996.217	756.567
79.695	13.744	995.596	755.579
80.709	13.877	995.036	755.694
81.724	13.937	994.571	755.545
82.739	13.940	993.635	754.780
83.753	14.083	992.823	754.744
84.768	14.202	992.067	754.644
85.782	14.346	991.083	754.481
86.797	14.170	990.525	753.195
87.812	14.119	989.735	752.297
88.826	14.152	988.879	751.727
89.841	14.229	987.599	751.037
90.855	14.080	987.246	750.028
91.870	14.043	986.497	749.226
92.884	14.302	985.104	749.267
93.899	14.132	984.524	747.998
94.914	14.330	983.746	748.229
95.928	14.306	982.791	747.328
96.943	14.165	982.074	746.087
97.957	14.206	980.770	745.210
98.972	14.289	980.007	744.938
99.987	14.200	979.401	744.013
101.001	14.187	978.358	743.098
102.016	14.204	977.384	742.368
103.030	14.237	976.829	742.026
104.045	14.267	976.135	741.565
105.060	14.218	974.869	740.324
106.074	14.175	974.184	739.546
107.089	13.814	973.252	737.167
108.103	13.985	972.267	737.115
109.118	13.818	971.931	736.057
110.133	13.945	970.723	735.638
111.147	13.916	969.962	734.867
112.162	14.064	969.073	734.784
113.176	14.119	968.268	734.350
114.191	14.105	967.612	733.727
115.206	13.937	967.372	732.738
116.220	14.047	966.407	732.426
117.235	14.122	965.327	731.876
118.249	14.061	964.344	730.798
119.264	13.899	963.895	729.681
120.279	13.967	962.893	729.155
121.293	13.954	962.034	728.382
122.308	13.882	961.092	727.291
123.322	13.967	959.574	726.448
124.337	13.947	958.892	725.778
125.352	13.962	958.075	725.164
126.366	13.620	957.562	723.218
127.381	13.854	956.270	723.198
128.395	13.925	955.703	723.013
129.410	13.983	954.542	722.326
130.424	13.996	953.809	721.761
131.439	14.124	952.882	721.552
132.454	14.102	952.276	720.937
133.468	14.155	951.689	720.655
134.483	14.131	950.167	719.336
135.497	14.146	949.517	718.843
136.512	14.008	948.842	717.675
137.527	14.071	948.211	717.406
138.541	14.057	947.742	716.926
139.556	14.046	947.131	716.355
140.570	14.277	946.306	716.659
141.585	14.305	945.691	716.252
142.600	14.273	944.836	715.402
143.614	14.400	943.748	715.062
144.629	14.458	942.948	714.643
145.643	14.353	942.116	713.498
146.658	14.199	940.908	711.860
147.673	14.179	939.932	710.973
148.687	14.169	939.420	710.481
149.702	14.148	938.326	709.500
150.716	14.119	937.557	708.733
151.731	14.235	936.892	708.661
152.746	14.178	936.250	707.871
153.760	14.101	935.752	707.103
154.775	14.283	934.975	707.228
155.789	14.203	934.395	706.389
156.804	14.180	933.884	705.842
157.819	14.391	932.844	705.888
158.833	14.406	932.469	705.605
159.848	14.430	932.020	705.302
160.862	14.275	931.303	704.043
161.877	14.272	929.586	702.669
162.892	14.188	928.567	701.483
163.906	14.251	927.413	700.814
164.921	14.205	926.886	700.161
165.935	14.359	925.808	699.934
166.950	14.359	925.373	699.542
167.964	14.372	924.644	698.981
168.979	14.366	923.567	698.081
169.994	14.251	923.279	697.321
171.008	14.404	922.407	697.240
172.023	14.558	921.685	697.276
173.037	14.534	921.196	696.744
174.052	14.441	920.052	695.429
175.067	14.380	919.614	694.782
176.081	14.234	919.335	693.900
177.096	14.260	918.747	693.505
178.110	14.358	918.011	693.297
179.125	14.316	917.749	692.863
180.140	14.342	916.930	692.289
181.154	14.479	916.301	692.325
182.169	14.531	916.277	692.461
183.183	14.613	915.421	692.093
184.198	14.599	914.452	691.242
185.213	14.500	913.816	690.290
186.227	14.585	913.233	690.138
187.242	14.658	912.702	689.976
188.256	14.603	912.536	689.564
189.271	14.627	911.284	688.655
190.286	14.617	910.243	687.765
191.300	14.270	909.700	685.868
192.315	14.302	908.871	685.312
193.329	14.331	908.400	685.015
194.344	14.415	907.914	684.935
195.359	14.604	907.014	684.971
196.373	14.721	906.631	685.102
197.388	14.651	906.371	684.558
198.402	14.808	905.914	684.796
199.417	14.956	905.205	684.803
200.432	14.866	904.615	683.929
201.446	14.971	904.435	684.159
202.461	15.040	903.536	683.700
203.475	14.966	903.144	683.043
204.490	14.839	902.483	681.964
205.504	14.747	902.150	681.277
206.519	14.695	901.285	680.353
207.534	14.945	900.309	680.571
208.548	14.853	899.927	679.849
209.563	14.678	899.098	678.454
210.577	15.010	898.296	679.134
211.592	15.001	897.991	678.808
212.607	15.131	896.806	678.378
213.621	15.116	895.961	677.618
214.636	15.077	895.336	676.930
215.650	15.046	894.648	676.224
216.665	15.174	893.985	676.179
217.680	15.086	893.343	675.279
218.694	15.109	892.960	675.023
219.709	15.015	892.601	674.313
220.723	15.148	891.720	674.120
221.738	15.232	890.671	673.606
222.753	15.212	890.116	673.048
223.767	15.245	889.723	672.822
224.782	15.225	889.558	672.557
225.796	15.225	888.718	671.862
226.811	15.158	887.944	670.950
227.826	15.225	887.329	670.692
228.840	15.281	886.346	670.115
229.855	15.301	885.590	669.564
230.869	15.028	885.523	668.366
231.884	15.131	884.693	668.089
232.899	15.037	883.830	667.005
233.913	15.086	883.080	666.575
234.928	14.965	882.353	665.485
235.942	15.103	881.845	665.591
236.957	15.016	881.596	664.999
237.972	15.060	880.742	664.471
238.986	15.167	880.230	664.450
240.001	15.120	879.655	663.773
241.015	15.233	879.015	663.677
242.030	15.293	878.227	663.261
243.045	15.307	877.715	662.870
244.059	15.309	877.215	662.444
245.074	15.265	876.324	661.538
246.088	15.235	875.989	661.110
247.103	15.382	875.464	661.233
248.117	15.526	875.270	661.596
249.132	15.627	874.395	661.274
250.147	15.583	873.898	660.666
251.161	15.702	873.525	660.795
252.176	15.619	872.624	659.728
253.190	15.658	871.775	659.179
254.205	15.692	871.539	659.078
255.220	15.717	870.766	658.533
256.234	15.761	870.342	658.326
257.249	15.666	869.568	657.308
258.263	15.761	868.690	656.958
259.278	15.726	868.070	656.295
260.293	15.943	867.354	656.541
261.307	15.762	867.265	655.711
262.322	15.797	866.521	655.227
263.336	15.931	865.834	655.168
264.351	16.078	864.760	654.872
265.366	16.075	864.320	654.469
266.380	15.791	864.329	653.313
267.395	16.041	862.936	653.171
268.409	15.994	862.262	652.424
269.424	15.849	861.905	651.532
270.439	15.934	860.887	651.033
271.453	15.840	860.587	650.389
272.468	15.838	859.887	649.792
273.482	15.819	859.542	649.400
274.497	15.908	858.698	649.049
275.512	15.843	858.108	648.296
276.526	15.931	857.524	648.134
277.541	15.924	856.997	647.651
278.555	16.095	856.438	647.830
279.570	15.989	856.189	647.177
280.585	16.132	855.046	646.806
281.599	16.019	854.305	645.752
282.614	16.089	853.674	645.490
283.628	16.166	853.298	645.442
284.643	16.055	852.457	644.322
285.657	16.019	852.225	643.954
286.672	16.128	851.560	643.809
287.687	16.042	851.055	643.041
288.701	16.148	850.240	642.774
289.716	16.076	850.163	642.384
290.730	16.164	849.274	641.992
291.745	16.138	848.802	641.479
292.760	16.289	847.889	641.306
293.774	16.360	847.216	641.010
294.789	16.264	846.646	640.157
295.803	16.115	845.825	638.914
296.818	16.144	845.538	638.751
297.833	16.315	844.353	638.449
298.847	16.216	844.096	637.822
299.862	16.165	843.842	637.381
300.876	16.283	843.435	637.463
301.891	16.333	842.762	637.086
302.906	16.426	842.039	636.835
303.920	16.373	841.309	636.026
304.935	16.463	840.694	635.845
305.949	16.673	840.302	636.280
306.964	16.416	839.837	634.905
307.979	16.561	839.169	634.889
308.993	16.640	838.453	634.588
310.008	16.617	838.030	634.127
311.022	16.519	836.998	632.921
312.037	16.382	836.997	632.352
313.052	16.458	836.577	632.265
314.066	16.287	836.225	631.304
315.081	16.322	835.394	630.748
316.095	16.369	834.640	630.299
317.110	16.501	833.723	630.043
318.125	16.438	833.268	629.409
319.139	16.341	833.260	628.985
320.154	16.353	832.878	628.686
321.168	16.478	832.146	628.545
322.183	16.739	831.007	628.595
323.197	16.560	831.021	627.885
324.212	16.638	830.415	627.664
325.227	16.613	829.822	627.065
326.241	16.640	829.313	626.726
327.256	16.494	829.321	626.137
328.270	16.535	828.308	625.469
329.285	16.554	827.568	624.925
330.300	16.596	826.933	624.542
331.314	16.466	826.866	623.956
332.329	16.611	826.693	624.308
333.343	16.818	825.812	624.350
334.358	16.793	825.570	624.019
335.373	16.572	825.261	622.917
336.387	16.837	824.495	623.259
337.402	16.738	824.407	622.774
338.416	16.949	824.114	623.270
339.431	16.848	823.628	622.477
340.446	16.875	823.415	622.360
341.460	16.918	822.755	621.966
342.475	17.073	822.694	622.430
343.489	16.981	822.086	621.578
344.504	17.111	821.519	621.573
345.519	17.052	821.589	621.354
346.533	17.010	820.750	620.511
347.548	17.055	819.975	620.035
348.562	16.875	819.792	619.184
349.577	16.867	818.775	618.332
350.592	16.899	818.401	618.110
351.606	16.875	817.659	617.407
352.621	17.001	816.699	617.089
353.635	16.957	816.406	616.651
354.650	16.920	816.049	616.192
355.665	16.882	815.737	615.765
356.679	17.033	814.788	615.542
357.694	17.097	813.795	614.969
358.708	17.217	813.256	614.940
359.723	17.056	812.890	614.028
360.738	17.043	812.095	613.324
361.752	17.187	811.616	613.431
362.767	17.247	810.960	613.097
363.781	17.184	810.691	612.612
364.796	17.222	810.693	612.695
365.810	17.492	810.059	613.133
366.825	17.471	809.534	612.609
367.840	17.397	809.167	612.010
368.854	17.382	808.598	611.471
369.869	17.437	808.180	611.300
370.883	17.420	807.667	610.795
371.898	17.536	807.086	610.718
372.913	17.378	807.124	610.128
373.927	17.411	806.575	609.777
374.942	17.414	806.035	609.323
375.956	17.538	805.821	609.552
376.971	17.639	805.311	609.474
377.986	17.739	804.809	609.397
379.000	17.723	804.428	608.999
380.015	17.714	803.710	608.370
381.029	17.650	803.136	607.653
382.044	17.687	802.728	607.422
383.059	17.711	802.191	607.048
384.073	17.658	801.382	606.191
385.088	17.635	800.830	605.639
386.102	17.619	800.231	605.075
387.117	17.619	799.408	604.400
388.132	17.520	799.420	604.002
389.146	17.590	798.800	603.729
390.161	17.743	798.294	603.835
391.175	17.731	797.663	603.262
392.190	17.675	797.156	602.627
393.205	17.652	796.748	602.187
394.219	17.534	796.549	601.563
395.234	17.670	796.017	601.589
396.248	17.599	795.532	600.921
397.263	17.636	794.947	600.556
398.278	17.480	795.174	600.125
399.292	17.587	794.140	599.668
400.307	17.719	793.367	599.495
401.321	17.704	793.332	599.362
402.336	17.637	792.661	598.567
403.350	17.723	792.647	598.807
404.365	17.697	792.259	598.366
405.380	17.791	791.701	598.222
406.394	17.832	790.976	597.764
407.409	17.890	790.793	597.778
408.423	18.147	790.067	598.075
409.438	18.058	790.215	597.824
410.453	18.069	789.932	597.595
411.467	18.101	789.183	597.086
412.482	18.049	789.024	596.732
413.496	18.133	788.795	596.800
414.511	18.063	788.335	596.153
415.526	17.944	788.037	595.462
416.540	18.064	787.362	595.318
417.555	18.283	786.553	595.415
418.569	18.195	786.388	594.931
419.584	18.236	786.039	594.756
420.599	18.412	784.870	594.430
421.613	157.315	1369.922	1796.665
422.628	135.939	1455.179	1796.759
