DTS Sentinel unit serial number:	SN413079Multiplexer serial number:	ORYXHardware model number:	OX4-SRSoftware version number:	ORYX F/W v4.00 Oryx Data Collector v3.7.2.0data status	okinstallation	princeton_trtdifferential loss correction	single-endedforward channel	channel 1reverse channel	N/Adate	2019/09/13time	22:10:35forward acquisition time	60.00reverse acquisition time	0.00gamma	496.2192k internal	0.2332k external	0.2332temperature offset calibration	1.0091default loss term (dB/km)	0.3790temperature slope calibration	1.0000multiplexer offset coefficient	1.0000multiplexer slope coefficient	1.0000fibre end	0.00T internal ref (°C)	27.94T ext. ref 1 (°C)	3.24T ext. ref 2 (°C)	22.67length (m)	temperature (°C)	Stokes	anti-Stokes-747.200	-140.498	-0.199	0.021
-746.185	-70.488	-0.414	-0.158
-745.171	-200.000	0.047	0.218
-744.156	40.607	-0.224	0.203
-743.142	-40.012	0.130	-0.068
-742.127	-35.386	-0.127	-0.070
-741.112	605.258	-0.088	0.220
-740.098	800.000	-0.042	0.176
-739.083	46.647	-0.305	0.285
-738.069	63.673	-0.162	0.164
-737.054	68.112	-0.168	-0.173
-736.039	-69.804	-0.131	0.050
-735.025	-97.084	0.261	-0.069
-734.010	-126.159	-0.465	-0.070
-732.996	33.671	0.232	-0.203
-731.981	20.801	-0.183	0.149
-730.966	552.061	0.038	-0.092
-729.952	-58.249	-0.451	-0.197
-728.937	114.425	0.094	-0.115
-727.923	-200.000	-0.049	-0.226
-726.908	-200.000	0.029	-0.415
-725.894	-200.000	0.030	-0.373
-724.879	47.151	-0.324	-0.303
-723.864	113.479	0.104	0.127
-722.850	64.526	-0.254	-0.257
-721.835	-191.713	-0.419	-0.004
-720.821	-200.000	0.006	-0.060
-719.806	-156.688	-0.225	-0.014
-718.791	-200.000	-0.047	0.231
-717.777	645.106	0.114	-0.292
-716.762	292.312	0.059	-0.108
-715.748	485.508	0.076	-0.175
-714.733	-87.202	0.300	-0.092
-713.718	-200.000	0.031	-0.150
-712.704	-200.000	-0.006	-0.283
-711.689	154.749	-0.110	-0.152
-710.675	800.000	-0.019	0.055
-709.660	68.390	0.359	-0.370
-708.645	236.821	-0.239	0.398
-707.631	364.972	0.043	-0.087
-706.616	-113.882	-0.307	-0.060
-705.602	-200.000	0.069	-0.311
-704.587	800.000	0.072	-0.275
-703.572	-200.000	-0.031	-0.464
-702.558	-29.152	-0.072	0.041
-701.543	-174.128	-0.157	-0.005
-700.529	-200.000	0.008	0.061
-699.514	-86.674	0.139	-0.043
-698.499	-64.843	0.257	0.104
-697.485	-169.454	-0.037	-0.001
-696.470	365.686	-0.145	-0.294
-695.456	-200.000	0.051	-0.315
-694.441	273.482	0.156	-0.276
-693.426	2.750	0.272	-0.198
-692.412	309.785	0.123	-0.230
-691.397	-54.116	0.226	-0.103
-690.383	-12.861	0.264	-0.172
-689.368	-89.934	0.183	0.054
-688.354	531.861	0.015	-0.035
-687.339	-200.000	0.024	0.163
-686.324	-200.000	0.007	0.195
-685.310	319.021	-0.087	0.166
-684.295	103.412	-0.276	-0.325
-683.281	-146.732	-0.354	-0.031
-682.266	-200.000	-0.010	-0.139
-681.251	-200.000	-0.024	0.156
-680.237	123.065	-0.183	-0.230
-679.222	32.257	0.255	-0.221
-678.208	-107.784	0.092	0.020
-677.193	-169.116	-0.322	0.012
-676.178	19.326	0.140	-0.113
-675.164	-200.000	-0.051	-0.227
-674.149	16.228	-0.153	-0.121
-673.135	274.132	-0.095	-0.169
-672.120	-12.184	-0.252	0.165
-671.105	-73.137	-0.115	0.042
-670.091	767.150	0.049	-0.135
-669.076	-200.000	0.012	-0.245
-668.062	-72.884	-0.194	-0.071
-667.047	-87.531	0.180	0.054
-666.032	-142.303	-0.189	-0.019
-665.018	-38.848	0.133	0.070
-664.003	463.103	0.166	-0.372
-662.989	40.156	-0.315	-0.284
-661.974	84.880	0.192	-0.211
-660.959	77.102	0.107	-0.114
-659.945	-122.509	0.155	-0.025
-658.930	324.100	-0.087	0.166
-657.916	-39.108	0.268	-0.141
-656.901	369.909	-0.126	-0.256
-655.886	-38.140	0.197	-0.105
-654.872	-195.759	0.307	0.002
-653.857	-121.470	-0.336	0.056
-652.843	800.000	-0.039	-0.144
-651.828	-132.932	0.222	-0.028
-650.814	360.792	0.069	-0.138
-649.799	270.996	-0.158	-0.279
-648.784	65.436	0.098	-0.099
-647.770	-88.698	-0.316	0.094
-646.755	132.352	-0.159	0.206
-645.741	-200.000	0.009	0.084
-644.726	-91.027	-0.160	-0.046
-643.711	412.618	-0.096	-0.205
-642.697	45.134	-0.291	0.269
-641.682	-84.984	-0.255	0.080
-640.668	800.000	-0.070	-0.296
-639.653	194.060	-0.152	-0.230
-638.638	631.309	-0.030	-0.075
-637.624	-200.000	-0.040	-0.530
-636.609	-200.000	0.065	0.454
-635.595	-200.000	-0.025	-0.302
-634.580	-135.066	-0.127	-0.015
-633.565	23.915	0.065	-0.053
-632.551	-111.156	0.237	-0.049
-631.536	-119.776	-0.149	-0.026
-630.522	-200.000	-0.003	-0.232
-629.507	-140.884	0.103	-0.011
-628.492	-72.127	-0.202	0.075
-627.478	6.757	-0.322	0.240
-626.463	-188.140	0.279	-0.004
-625.449	-200.000	0.009	0.071
-624.434	565.738	-0.054	-0.132
-623.419	-139.633	0.356	-0.038
-622.405	-181.952	-0.202	0.004
-621.390	185.367	-0.200	-0.297
-620.376	-23.607	-0.205	0.123
-619.361	516.424	0.037	0.087
-618.346	199.485	0.197	-0.303
-617.332	239.789	-0.011	0.018
-616.317	800.000	0.077	0.226
-615.303	78.627	-0.070	-0.075
-614.288	-0.407	0.117	-0.083
-613.273	-200.000	-0.042	0.199
-612.259	-200.000	-0.001	0.090
-611.244	311.828	0.036	0.067
-610.230	447.069	0.061	0.134
-609.215	147.854	-0.068	0.092
-608.201	-131.950	0.040	-0.005
-607.186	136.111	0.260	0.339
-606.171	-192.175	0.265	-0.003
-605.157	-63.143	0.284	0.117
-604.142	-200.000	-0.036	-0.249
-603.128	111.154	0.118	-0.142
-602.113	-200.000	-0.043	0.234
-601.098	-200.000	-0.012	-0.265
-600.084	-200.000	0.009	0.046
-599.069	70.858	0.016	0.016
-598.055	373.396	-0.042	0.085
-597.040	251.048	0.132	-0.224
-596.025	-0.409	0.265	-0.189
-595.011	-200.000	0.028	0.416
-593.996	467.595	-0.151	-0.338
-592.982	72.294	0.165	-0.172
-591.967	78.605	0.160	0.171
-590.952	90.842	-0.153	-0.171
-589.938	461.355	0.158	0.353
-588.923	-200.000	-0.018	0.174
-587.909	-152.547	-0.430	-0.031
-586.894	-161.837	-0.340	0.017
-585.879	-200.000	0.011	0.093
-584.865	-200.000	0.015	-0.155
-583.850	-200.000	0.003	-0.204
-582.836	-36.633	0.133	0.072
-581.821	-79.418	0.161	-0.054
-580.806	96.484	0.131	0.150
-579.792	-187.956	0.058	-0.001
-578.777	-163.908	-0.058	0.003
-577.763	800.000	0.119	0.352
-576.748	-160.796	-0.019	-0.001
-575.733	-85.292	-0.482	-0.150
-574.719	-127.270	-0.261	0.038
-573.704	-33.608	-0.263	-0.145
-572.690	132.295	0.107	0.138
-571.675	-40.229	0.223	0.116
-570.661	192.039	-0.067	0.101
-569.646	-49.606	0.209	0.099
-568.631	349.459	0.142	-0.280
-567.617	6.636	0.095	-0.070
-566.602	187.798	0.200	-0.298
-565.588	135.130	-0.151	-0.196
-564.573	235.475	-0.037	-0.060
-563.558	-144.958	0.191	-0.017
-562.544	342.604	-0.029	0.057
-561.529	15.267	-0.206	-0.161
-560.515	51.887	-0.126	-0.120
-559.500	-94.492	-0.194	0.053
-558.485	420.289	-0.091	-0.196
-557.471	56.043	-0.044	-0.042
-556.456	-18.961	-0.094	-0.059
-555.442	-30.698	0.216	-0.122
-554.427	-200.000	-0.036	-0.187
-553.412	-200.000	0.027	-0.200
-552.398	-62.489	0.133	-0.055
-551.383	-160.387	-0.130	-0.007
-550.369	-56.849	-0.146	-0.065
-549.354	181.929	-0.153	0.224
-548.339	-47.175	0.183	0.089
-547.325	800.000	0.073	-0.202
-546.310	-6.159	-0.177	-0.121
-545.296	-20.847	0.198	0.121
-544.281	-200.000	0.016	-0.170
-543.266	-53.420	-0.284	0.130
-542.252	277.667	-0.047	0.083
-541.237	-153.421	0.195	0.013
-540.223	-200.000	-0.010	0.197
-539.208	-200.000	0.012	-0.132
-538.193	-190.907	0.103	0.001
-537.179	230.240	-0.108	0.176
-536.164	-200.000	0.002	-0.367
-535.150	180.425	0.057	0.083
-534.135	-21.485	0.008	-0.005
-533.121	800.000	0.083	-0.276
-532.106	-93.105	-0.176	0.049
-531.091	-200.000	0.017	0.086
-530.077	-200.000	-0.053	0.257
-529.062	30.001	0.190	-0.162
-528.048	-30.831	0.313	0.176
-527.033	800.000	-0.057	-0.232
-526.018	49.284	-0.101	0.095
-525.004	607.774	-0.134	0.334
-523.989	706.459	0.170	0.447
-522.975	276.114	0.073	0.129
-521.960	-48.668	0.262	-0.126
-520.945	-200.000	-0.021	0.105
-519.931	800.000	0.051	0.150
-518.916	-34.436	-0.067	0.036
-517.902	-69.227	-0.173	-0.066
-516.887	32.952	0.178	-0.154
-515.872	-155.373	0.119	-0.008
-514.858	-72.475	-0.087	-0.032
-513.843	-20.330	0.099	-0.061
-512.829	55.430	0.168	0.162
-511.814	800.000	0.073	-0.263
-510.799	400.337	-0.052	0.108
-509.785	-24.135	0.347	-0.207
-508.770	51.952	-0.187	0.178
-507.756	1.296	-0.154	-0.110
-506.741	800.000	0.047	0.155
-505.726	-6.098	0.082	0.056
-504.712	378.995	0.023	0.048
-503.697	-78.839	-0.167	0.057
-502.683	-66.300	-0.093	-0.037
-501.668	-96.294	-0.110	0.029
-500.653	800.000	-0.032	-0.125
-499.639	-46.061	0.172	0.084
-498.624	-200.000	0.001	0.268
-497.610	633.166	0.133	-0.336
-496.595	-36.033	-0.232	-0.125
-495.581	-84.036	0.327	-0.104
-494.566	519.667	0.073	0.170
-493.551	800.000	-0.038	0.134
-492.537	-11.748	-0.128	-0.084
-491.522	-200.000	-0.033	0.193
-490.508	-14.734	-0.391	0.250
-489.493	-89.005	-0.227	-0.067
-488.478	770.252	-0.092	0.250
-487.464	-38.295	0.246	0.130
-486.449	-139.448	-0.164	-0.018
-485.435	556.081	0.152	0.365
-484.420	-106.985	0.175	0.038
-483.405	-200.000	0.000	0.128
-482.391	800.000	0.040	0.136
-481.376	800.000	-0.056	-0.189
-480.362	-200.000	-0.026	0.235
-479.347	206.015	-0.127	-0.196
-478.332	-158.433	-0.152	-0.009
-477.318	-130.310	-0.325	0.044
-476.303	-3.081	-0.202	0.140
-475.289	-200.000	0.045	0.274
-474.274	117.999	0.102	-0.125
-473.259	39.540	-0.187	-0.167
-472.245	-73.494	-0.181	0.066
-471.230	75.203	-0.108	0.113
-470.216	1.188	0.327	-0.234
-469.201	-29.273	-0.258	-0.147
-468.186	-200.000	0.014	-0.118
-467.172	800.000	0.025	-0.079
-466.157	-136.843	0.148	0.017
-465.143	-107.311	-0.287	-0.063
-464.128	91.122	0.129	0.144
-463.113	-200.000	-0.081	0.520
-462.099	-200.000	-0.033	-0.203
-461.084	43.444	-0.081	-0.074
-460.070	537.815	0.091	0.215
-459.055	196.394	0.106	-0.160
-458.040	-94.011	0.054	-0.015
-457.026	-67.561	0.257	0.100
-456.011	60.662	0.143	0.141
-454.997	39.362	0.292	0.260
-453.982	5.592	0.269	0.197
-452.968	-96.128	-0.243	-0.064
-451.953	-114.298	-0.277	-0.053
-450.938	-48.288	-0.036	-0.017
-449.924	-120.689	0.197	0.033
-448.909	-90.497	-0.240	-0.069
-447.895	24.127	-0.138	-0.114
-446.880	-200.000	-0.029	-0.187
-445.865	304.968	-0.150	0.277
-444.851	24.635	-0.165	0.136
-443.836	-48.085	0.181	0.087
-442.822	127.541	0.163	-0.206
-441.807	119.473	0.155	0.190
-440.792	74.685	-0.304	0.318
-439.778	-112.402	-0.499	0.099
-438.763	104.637	-0.229	-0.268
-437.749	-27.826	-0.098	0.057
-436.734	-18.688	-0.191	0.119
-435.719	-94.420	-0.216	-0.059
-434.705	-88.552	0.256	0.076
-433.690	-127.952	0.367	-0.052
-432.676	13.242	-0.323	0.248
-431.661	78.319	-0.126	-0.134
-430.646	800.000	0.073	-0.290
-429.632	476.239	-0.149	-0.334
-428.617	94.457	0.146	-0.164
-427.603	-200.000	-0.042	0.284
-426.588	-133.597	0.146	0.018
-425.573	142.205	0.136	-0.179
-424.559	140.518	-0.167	0.219
-423.544	130.866	0.067	-0.086
-422.530	-200.000	-0.027	-0.124
-421.515	118.887	-0.229	-0.281
-420.500	-173.986	0.151	-0.004
-419.486	-200.000	0.053	0.395
-418.471	46.129	-0.157	-0.144
-417.457	800.000	0.028	-0.080
-416.442	461.184	0.130	0.288
-415.428	-127.356	-0.292	0.042
-414.413	-107.919	0.111	-0.024
-413.398	493.785	-0.108	-0.247
-412.384	-92.562	-0.309	-0.086
-411.369	-161.366	0.260	-0.013
-410.355	205.800	-0.253	-0.391
-409.340	-65.139	-0.183	0.073
-408.325	-121.177	0.086	0.014
-407.311	-102.229	0.247	0.059
-406.296	-39.104	-0.203	0.106
-405.282	-200.000	0.085	-0.468
-404.267	187.527	-0.016	0.024
-403.252	39.094	0.257	-0.228
-402.238	-100.372	-0.260	0.064
-401.223	-200.000	0.011	-0.135
-400.209	-22.061	0.271	0.164
-399.194	-42.566	-0.108	-0.055
-398.179	800.000	-0.018	-0.058
-397.165	-126.156	-0.166	-0.025
-396.150	-71.118	0.161	-0.060
-395.136	180.154	-0.117	-0.171
-394.121	-119.816	0.234	0.040
-393.106	123.071	0.153	-0.190
-392.092	-127.089	-0.250	-0.036
-391.077	-107.712	-0.281	-0.061
-390.063	75.655	-0.167	0.175
-389.048	-45.136	-0.156	0.077
-388.033	176.875	-0.048	-0.070
-387.019	800.000	0.031	0.101
-386.004	-71.716	-0.148	-0.055
-384.990	-6.893	0.055	0.037
-383.975	-65.730	-0.210	-0.083
-382.960	800.000	-0.052	0.150
-381.946	-126.020	-0.229	-0.034
-380.931	-200.000	0.001	0.020
-379.917	-11.767	-0.235	-0.153
-378.902	800.000	-0.052	-0.218
-377.888	305.557	0.100	0.184
-376.873	-73.537	0.209	-0.075
-375.858	800.000	0.059	0.229
-374.844	24.615	0.362	0.297
-373.829	-142.562	0.042	0.004
-372.815	169.740	0.096	-0.135
-371.800	64.612	-0.096	0.096
-370.785	16.042	-0.220	-0.172
-369.771	-140.889	0.388	0.040
-368.756	-67.071	0.177	-0.069
-367.742	-200.000	-0.031	-0.274
-366.727	-97.682	0.189	-0.048
-365.712	328.817	-0.056	0.106
-364.698	-108.428	0.155	-0.033
-363.683	86.756	0.172	0.188
-362.669	-61.762	0.123	0.051
-361.654	-139.096	-0.234	-0.025
-360.639	-18.715	0.125	-0.077
-359.625	-3.926	-0.109	0.075
-358.610	3.929	0.067	0.049
-357.596	103.931	0.169	-0.197
-356.581	-80.996	-0.362	-0.119
-355.566	-169.356	0.323	0.012
-354.552	60.521	-0.182	0.179
-353.537	344.162	-0.105	-0.204
-352.523	221.435	-0.024	0.038
-351.508	375.860	-0.114	-0.230
-350.493	800.000	-0.014	0.047
-349.479	-140.160	0.331	-0.034
-348.464	-124.645	0.382	-0.059
-347.450	47.946	0.146	-0.136
-346.435	-146.984	-0.096	-0.008
-345.420	-10.938	0.305	-0.200
-344.406	-95.329	-0.283	0.075
-343.391	-94.789	-0.041	-0.011
-342.377	800.000	0.060	0.222
-341.362	259.043	-0.141	-0.240
-340.348	5.011	0.249	0.181
-339.333	-40.745	0.075	-0.039
-338.318	-70.842	0.323	-0.120
-337.304	623.840	0.093	0.232
-336.289	800.000	0.097	-0.298
-335.275	-133.228	-0.203	-0.025
-334.260	-77.326	0.163	-0.056
-333.245	367.734	-0.108	-0.216
-332.231	800.000	0.095	0.382
-331.216	292.434	-0.040	-0.073
-330.202	-139.312	-0.180	-0.019
-329.187	-200.000	-0.003	-0.040
-328.172	76.942	-0.174	0.183
-327.158	-35.262	0.091	0.049
-326.143	386.732	-0.242	-0.494
-325.129	84.789	-0.184	0.199
-324.114	11.418	0.042	0.032
-323.099	-200.000	0.008	-0.257
-322.085	27.782	-0.143	-0.119
-321.070	400.725	0.035	-0.073
-320.056	136.080	-0.320	-0.412
-319.041	-93.084	0.104	0.029
-318.026	-67.999	-0.351	0.135
-317.012	71.805	0.132	-0.136
-315.997	471.555	-0.036	-0.080
-314.983	215.232	0.225	0.353
-313.968	-133.084	0.217	0.027
-312.953	430.616	-0.040	0.086
-311.939	233.923	0.090	0.147
-310.924	-50.418	0.074	-0.035
-309.910	-200.000	0.041	-0.378
-308.895	228.395	-0.033	-0.054
-307.880	-37.801	-0.085	-0.045
-306.866	-136.672	0.260	0.030
-305.851	91.063	-0.167	-0.185
-304.837	-200.000	0.016	-0.266
-303.822	-114.758	-0.178	-0.034
-302.807	602.985	0.088	0.215
-301.793	-200.000	0.049	-0.278
-300.778	-8.371	-0.325	-0.216
-299.764	-200.000	0.010	-0.167
-298.749	56.609	-0.085	-0.081
-297.735	33.923	-0.214	-0.184
-296.720	-200.000	-0.034	0.273
-295.705	705.398	-0.125	-0.327
-294.691	162.258	0.135	-0.187
-293.676	37.183	0.201	0.176
-292.662	-102.537	-0.361	-0.085
-291.647	-200.000	0.033	-0.338
-290.632	-60.545	0.249	0.105
-289.618	643.350	0.125	0.315
-288.603	77.342	-0.276	0.290
-287.589	115.094	0.148	0.178
-286.574	-5.984	-0.214	-0.145
-285.559	255.443	0.103	-0.175
-284.545	375.797	0.028	-0.057
-283.530	-66.384	0.099	-0.039
-282.516	-16.270	0.048	-0.030
-281.501	-200.000	0.007	-0.052
-280.486	-96.012	0.331	0.087
-279.472	-200.000	-0.028	-0.143
-278.457	800.000	-0.107	0.295
-277.443	-200.000	-0.012	0.267
-276.428	746.345	0.013	0.035
-275.413	27.908	-0.070	0.058
-274.399	27.113	-0.100	-0.083
-273.384	-200.000	0.008	0.145
-272.370	12.159	-0.272	0.207
-271.355	800.000	-0.064	0.277
-270.340	800.000	0.073	-0.213
-269.326	131.094	0.054	0.068
-268.311	74.079	-0.021	-0.022
-267.297	-53.716	-0.186	0.084
-266.282	-24.266	-0.065	-0.038
-265.267	-68.716	-0.114	-0.044
-264.253	-144.976	-0.400	-0.036
-263.238	-5.135	-0.181	0.123
-262.224	-167.478	0.226	0.009
-261.209	-112.216	-0.243	0.048
-260.195	-45.584	0.585	-0.286
-259.180	-101.715	-0.185	0.044
-258.165	-200.000	0.012	0.430
-257.151	-58.545	0.059	-0.025
-256.136	7.328	-0.157	0.116
-255.122	19.441	0.098	-0.078
-254.107	-93.655	0.261	-0.071
-253.092	-85.263	-0.141	0.043
-252.078	-0.447	0.229	-0.160
-251.063	-50.506	0.268	-0.125
-250.049	-200.000	0.022	0.236
-249.034	496.409	-0.155	-0.351
-248.019	-24.658	-0.298	0.175
-247.005	-200.000	-0.000	-0.382
-245.990	-15.990	-0.145	0.091
-244.976	-86.452	0.227	-0.069
-243.961	800.000	0.028	0.098
-242.946	394.362	0.079	0.163
-241.932	717.511	-0.150	0.394
-240.917	48.601	-0.153	-0.142
-239.903	781.363	0.049	0.132
-238.888	-200.000	-0.002	0.084
-237.873	146.799	-0.032	-0.042
-236.859	-107.550	-0.364	0.079
-235.844	-103.188	-0.307	-0.072
-234.830	-67.780	0.306	-0.118
-233.815	217.768	0.114	-0.180
-232.800	-15.102	-0.047	0.030
-231.786	115.683	-0.144	-0.173
-230.771	529.997	-0.113	0.264
-229.757	-200.000	-0.068	0.311
-228.742	-200.000	0.009	0.236
-227.727	308.106	0.141	0.259
-226.713	-125.683	0.121	-0.018
-225.698	-200.000	0.009	0.060
-224.684	800.000	-0.034	-0.135
-223.669	207.182	0.067	0.102
-222.655	-200.000	0.037	0.217
-221.640	-130.405	-0.208	-0.028
-220.625	193.266	-0.164	0.244
-219.611	-41.619	-0.011	0.006
-218.596	58.746	-0.132	0.127
-217.582	-98.043	-0.121	-0.031
-216.567	-69.851	0.188	0.071
-215.552	800.000	0.082	0.266
-214.538	-178.351	0.283	0.007
-213.523	-79.553	0.234	-0.078
-212.509	618.446	0.133	0.329
-211.494	501.952	0.036	0.083
-210.479	-200.000	-0.017	-0.106
-209.465	21.378	0.268	-0.214
-208.450	21.970	0.270	0.217
-207.436	139.000	0.082	0.106
-206.421	-176.347	-0.185	0.005
-205.406	-200.000	0.030	0.169
-204.392	-9.308	0.090	0.059
-203.377	-143.507	0.436	-0.041
-202.363	800.000	0.103	-0.296
-201.348	-78.068	0.220	0.074
-200.333	800.000	-0.042	-0.148
-199.319	230.252	0.126	-0.202
-198.304	48.748	-0.089	-0.083
-197.290	-157.376	0.081	0.005
-196.275	92.978	0.202	-0.225
-195.260	30.333	-0.183	-0.154
-194.246	-200.000	0.004	-0.167
-193.231	800.000	0.075	-0.230
-192.217	-200.000	-0.033	-0.151
-191.202	-200.000	-0.066	0.300
-190.187	-74.379	-0.390	-0.139
-189.173	-134.135	-0.171	0.021
-188.158	614.831	-0.086	0.212
-187.144	-157.706	0.113	-0.007
-186.129	-159.416	0.111	0.006
-185.114	286.846	0.087	0.155
-184.100	-46.188	0.131	-0.063
-183.085	37.239	0.116	-0.102
-182.071	3.637	-0.094	-0.067
-181.056	190.728	-0.125	0.185
-180.042	-200.000	-0.006	0.075
-179.027	254.806	-0.047	-0.079
-178.012	97.023	-0.022	0.024
-176.998	-200.000	-0.020	-0.188
-175.983	-117.533	0.343	-0.061
-174.969	-88.895	-0.298	0.087
-173.954	-122.621	0.202	-0.032
-172.939	88.229	0.249	0.272
-171.925	442.419	0.186	-0.401
-170.910	-134.872	0.278	0.033
-169.896	-40.386	0.246	0.126
-168.881	800.000	-0.064	-0.180
-167.866	-31.574	-0.322	0.178
-166.852	600.180	-0.195	0.475
-165.837	-200.000	-0.039	-0.292
-164.823	-200.000	0.020	-0.097
-163.808	-35.385	0.019	0.010
-162.793	152.919	-0.075	0.101
-161.779	275.167	0.144	0.251
-160.764	497.404	0.083	0.189
-159.750	800.000	0.138	0.547
-158.735	-174.794	0.421	-0.012
-157.720	168.495	-0.105	0.147
-156.706	-65.794	0.341	-0.134
-155.691	12.038	0.138	0.104
-154.677	800.000	0.061	-0.234
-153.662	27.589	0.283	0.234
-152.647	-107.265	0.215	0.047
-151.633	-200.000	0.183	-0.000
-150.618	375.597	-0.061	-0.123
-149.604	-60.717	0.212	0.088
-148.589	800.000	-0.053	0.215
-147.574	-101.008	0.179	0.043
-146.560	77.272	0.071	-0.074
-145.545	-17.892	0.090	-0.055
-144.531	-73.944	-0.157	-0.056
-143.516	-46.508	-0.170	-0.082
-142.502	800.000	0.029	-0.087
-141.487	-200.000	0.017	-0.212
-140.472	-113.637	0.315	-0.060
-139.458	786.647	0.176	-0.475
-138.443	800.000	-0.149	-0.406
-137.429	170.743	-0.025	-0.035
-136.414	-76.569	0.413	-0.143
-135.399	109.222	0.196	0.230
-134.385	800.000	-0.069	0.218
-133.370	663.497	-0.029	-0.075
-132.356	800.000	0.018	-0.068
-131.341	-200.000	-0.014	0.254
-130.326	-94.281	0.278	0.075
-129.312	610.985	0.049	0.121
-128.297	447.690	0.101	0.217
-127.283	-32.353	0.263	0.144
-126.268	-72.196	0.164	0.060
-125.253	-150.392	0.163	0.012
-124.239	26.511	0.071	-0.058
-123.224	-151.530	0.304	0.022
-122.210	800.000	-0.125	-0.341
-121.195	626.231	0.137	-0.339
-120.180	11.633	0.250	-0.188
-119.166	-122.037	-0.317	0.051
-118.151	-73.911	0.186	0.066
-117.137	144.623	-0.169	-0.221
-116.122	527.307	0.105	-0.242
-115.107	119.979	-0.123	0.150
-114.093	21.521	0.051	-0.041
-113.078	-56.987	0.120	0.052
-112.064	-6.348	-0.327	-0.219
-111.049	-19.302	0.058	0.035
-110.034	-42.755	0.064	0.032
-109.020	52.897	-0.191	-0.179
-108.005	-103.490	0.381	-0.088
-106.991	335.503	-0.247	0.469
-105.976	-48.796	0.048	0.023
-104.962	6.000	0.237	-0.172
-103.947	61.558	0.153	-0.149
-102.932	-174.240	-0.235	-0.007
-101.918	-92.797	-0.127	-0.035
-100.903	-1.782	0.133	-0.092
-99.889	450.013	-0.195	-0.423
-98.874	473.991	0.019	-0.041
-97.859	38.338	0.084	-0.074
-96.845	-200.000	-0.008	0.209
-95.830	-184.368	-0.095	0.002
-94.816	80.613	-0.094	0.099
-93.801	239.331	0.049	0.079
-92.786	800.000	0.031	0.109
-91.772	-114.278	0.313	0.059
-90.757	-200.000	-0.019	-0.263
-89.743	164.858	-0.263	0.364
-88.728	36.893	-0.226	0.196
-87.713	-75.977	-0.137	0.048
-86.699	-69.510	0.058	0.022
-85.684	-200.000	0.006	-0.124
-84.670	-200.000	0.011	0.094
-83.655	-44.030	0.108	-0.053
-82.640	-15.061	-0.288	-0.181
-81.626	-119.341	-0.180	0.031
-80.611	-200.000	0.029	-0.179
-79.597	312.945	-0.032	0.058
-78.582	82.979	0.257	0.274
-77.567	-200.000	0.017	0.112
-76.553	-93.159	0.333	0.091
-75.538	381.495	-0.064	0.129
-74.524	273.307	0.056	0.097
-73.509	29.291	0.144	0.120
-72.494	415.776	0.282	0.590
-71.480	-15.854	-0.156	0.097
-70.465	-67.660	-0.123	0.047
-69.451	117.375	0.159	-0.192
-68.436	-166.871	0.026	0.001
-67.422	-58.690	0.082	-0.035
-66.407	236.889	-0.087	-0.140
-65.392	230.049	0.136	-0.218
-64.378	-92.041	0.188	-0.052
-63.363	-126.188	0.139	-0.020
-62.349	-168.891	-0.662	0.024
-61.334	92.397	-1.038	-1.146
-60.319	126.395	0.476	0.590
-59.305	800.000	-0.295	-1.109
-58.290	421.860	0.562	1.180
-57.276	590.827	0.631	1.525
-56.261	-200.000	113.773	663.421
-55.246	553.530	1515.632	3567.527
-54.232	179.635	2679.290	3841.573
-53.217	112.380	2147.955	2543.713
-52.203	39.733	1596.278	1401.993
-51.188	31.239	1343.485	1128.838
-50.173	28.336	1305.810	1080.055
-49.159	56.203	1362.873	1295.637
-48.144	55.105	1377.024	1302.457
-47.130	31.551	1331.771	1120.688
-46.115	28.121	1314.104	1085.462
-45.100	27.888	1309.590	1080.315
-44.086	27.818	1307.060	1077.772
-43.071	27.730	1305.078	1075.575
-42.057	27.701	1302.972	1073.627
-41.042	27.770	1300.929	1072.307
-40.027	27.806	1299.876	1071.607
-39.013	27.940	1297.616	1070.485
-37.998	27.894	1295.741	1068.630
-36.984	27.900	1293.972	1067.163
-35.969	27.949	1292.182	1065.931
-34.954	27.925	1290.964	1064.743
-33.940	28.013	1289.243	1063.793
-32.925	28.012	1288.148	1062.844
-31.911	27.941	1286.803	1061.276
-30.896	27.951	1285.432	1060.164
-29.881	28.062	1283.963	1059.551
-28.867	28.054	1282.335	1058.121
-27.852	27.984	1281.573	1057.042
-26.838	28.047	1279.727	1055.844
-25.823	28.101	1278.381	1055.000
-24.809	28.014	1277.329	1053.592
-23.794	27.984	1275.837	1052.144
-22.779	28.099	1274.022	1051.268
-21.765	27.962	1273.397	1049.925
-20.750	27.991	1272.002	1048.899
-19.736	27.925	1270.556	1047.284
-18.721	27.880	1269.522	1046.134
-17.706	27.981	1268.240	1045.613
-16.692	27.940	1267.385	1044.634
-15.677	27.920	1266.472	1043.723
-14.663	27.944	1265.009	1042.615
-13.648	27.847	1263.866	1041.077
-12.633	27.807	1263.109	1040.187
-11.619	27.841	1262.233	1039.620
-10.604	27.784	1261.598	1038.728
-9.590	27.933	1260.285	1038.454
-8.575	27.865	1259.417	1037.308
-7.560	27.877	1258.755	1036.795
-6.546	27.806	1257.972	1035.702
-5.531	27.917	1256.800	1035.326
-4.517	27.695	1256.243	1033.566
-3.502	27.886	1255.232	1033.780
-2.487	27.834	1254.500	1032.838
-1.473	27.825	1250.272	1029.265
-0.458	26.136	1235.281	1007.469
0.556	23.185	1217.507	969.375
1.571	19.628	1222.267	953.486
2.586	18.639	1236.951	959.330
3.600	18.166	1225.075	947.414
4.615	13.784	1154.017	869.466
5.629	6.583	1082.110	779.724
6.644	3.364	1064.020	750.952
7.659	3.157	1061.831	748.331
8.673	3.200	1060.060	747.228
9.688	3.249	1059.253	746.828
10.702	3.431	1057.245	746.229
11.717	7.615	1062.406	770.123
12.731	15.188	1073.232	814.862
13.746	19.348	1079.325	839.717
14.761	19.974	1078.638	842.157
15.775	19.151	1077.047	836.839
16.790	18.070	1075.058	829.975
17.804	17.525	1073.467	826.032
18.819	17.129	1072.942	823.632
19.834	17.166	1071.547	822.667
20.848	16.904	1071.022	820.925
21.863	16.661	1070.459	819.246
22.877	16.465	1069.665	817.615
23.892	16.527	1068.860	817.229
24.907	16.489	1068.232	816.492
25.921	16.587	1067.303	816.184
26.936	16.483	1065.883	814.524
27.950	16.558	1064.217	813.538
28.965	16.693	1062.998	813.182
29.980	16.925	1061.590	813.149
30.994	16.923	1060.174	811.981
32.009	16.944	1059.422	811.430
33.023	16.891	1058.549	810.438
34.038	16.766	1057.327	808.836
35.053	16.681	1056.589	807.793
36.067	16.715	1055.789	807.274
37.082	16.694	1055.006	806.501
38.096	16.701	1054.568	806.130
39.111	16.832	1053.253	805.679
40.126	16.648	1051.932	803.718
41.140	16.410	1050.809	801.661
42.155	16.412	1049.670	800.732
43.169	16.316	1048.401	799.237
44.184	16.277	1046.822	797.779
45.199	16.413	1046.366	798.004
46.213	16.448	1045.148	797.171
47.228	16.643	1044.748	797.713
48.242	16.642	1043.499	796.685
49.257	16.675	1042.637	796.112
50.271	16.838	1041.441	795.894
51.286	16.638	1041.298	794.772
52.301	16.678	1039.920	793.841
53.315	16.440	1038.998	791.949
54.330	16.469	1037.683	791.013
55.344	16.392	1037.037	790.090
56.359	16.564	1036.089	790.104
57.374	16.447	1035.360	788.932
58.388	16.248	1034.249	787.087
59.403	16.261	1033.538	786.537
60.417	16.254	1032.558	785.687
61.432	16.181	1031.948	784.815
62.447	16.135	1031.197	783.959
63.461	16.225	1030.183	783.537
64.476	16.040	1029.820	782.332
65.490	16.185	1028.596	782.007
66.505	16.236	1027.797	781.568
67.520	16.066	1027.397	780.404
68.534	16.212	1026.303	780.181
69.549	16.418	1025.565	780.505
70.563	16.222	1024.856	778.991
71.578	15.987	1024.125	777.281
72.593	15.978	1023.226	776.488
73.607	15.983	1022.627	775.989
74.622	16.034	1022.035	775.703
75.636	16.073	1021.117	775.119
76.651	16.087	1020.380	774.556
77.666	15.958	1020.120	773.699
78.680	16.210	1019.340	774.195
79.695	16.205	1018.769	773.669
80.709	16.275	1018.302	773.566
81.724	16.369	1017.422	773.262
82.739	16.461	1016.705	773.067
83.753	16.631	1016.210	773.399
84.768	16.841	1015.584	773.812
85.782	16.885	1014.544	773.155
86.797	16.836	1013.480	772.051
87.812	16.649	1012.752	770.577
88.826	16.687	1011.585	769.793
89.841	16.726	1010.790	769.297
90.855	16.882	1009.863	769.233
91.870	16.938	1008.727	768.553
92.884	16.850	1008.064	767.583
93.899	16.988	1006.952	767.292
94.914	17.006	1006.505	766.963
95.928	16.985	1005.955	766.379
96.943	16.796	1004.610	764.436
97.957	16.768	1003.751	763.588
98.972	16.756	1003.147	763.006
99.987	16.864	1001.966	762.529
101.001	16.808	1001.275	761.682
102.016	16.783	1000.369	760.813
103.030	16.821	999.480	760.238
104.045	16.845	998.600	759.609
105.060	16.564	997.609	757.530
106.074	16.427	996.404	755.935
107.089	16.218	995.884	754.539
108.103	16.231	994.224	753.276
109.118	16.205	993.531	752.566
110.133	16.156	993.031	751.905
111.147	16.179	991.969	751.135
112.162	16.387	990.957	751.228
113.176	16.440	990.414	750.984
114.191	16.423	989.722	750.320
115.206	16.386	989.111	749.623
116.220	16.275	988.183	748.361
117.235	16.289	986.993	747.459
118.249	16.406	985.770	746.984
119.264	16.182	985.658	745.843
120.279	16.265	984.471	745.246
121.293	16.289	983.245	744.357
122.308	16.166	982.816	743.423
123.322	16.234	981.670	742.790
124.337	16.217	981.028	742.164
125.352	16.087	979.560	740.415
126.366	16.050	978.721	739.554
127.381	16.175	977.514	739.127
128.395	16.256	976.677	738.781
129.410	16.197	976.368	738.223
130.424	16.360	975.149	737.950
131.439	16.349	974.721	737.511
132.454	16.469	973.511	737.055
133.468	16.395	973.115	736.366
134.483	16.453	972.429	736.037
135.497	16.459	971.692	735.438
136.512	16.493	969.962	734.212
137.527	16.330	969.456	733.056
138.541	16.486	969.140	733.430
139.556	16.469	968.338	732.681
140.570	16.642	968.033	733.137
141.585	16.711	967.273	732.795
142.600	16.821	965.759	732.058
143.614	16.857	965.139	731.681
144.629	16.973	964.697	731.780
145.643	16.863	963.362	730.229
146.658	16.752	962.281	728.866
147.673	16.608	961.542	727.623
148.687	16.532	960.532	726.469
149.702	16.675	959.267	726.062
150.716	16.471	959.302	725.149
151.731	16.484	958.282	724.369
152.746	16.431	958.091	723.932
153.760	16.612	956.961	723.791
154.775	16.704	956.606	723.849
155.789	16.842	955.703	723.691
156.804	16.748	954.964	722.667
157.819	16.818	954.298	722.399
158.833	16.891	953.894	722.338
159.848	16.978	953.040	721.999
160.862	16.842	951.790	720.412
161.877	16.652	950.851	718.829
162.892	16.581	949.654	717.560
163.906	16.534	948.837	716.679
164.921	16.579	948.066	716.226
165.935	16.546	947.160	715.337
166.950	16.695	946.317	715.265
167.964	16.656	945.359	714.313
168.979	16.543	944.373	713.030
169.994	16.647	943.936	713.074
171.008	16.736	943.158	712.800
172.023	16.841	942.834	712.933
173.037	16.880	941.969	712.379
174.052	16.799	941.169	711.370
175.067	16.673	940.022	709.914
176.081	16.671	939.621	709.538
177.096	16.603	939.040	708.754
178.110	16.727	938.388	708.717
179.125	16.618	938.071	707.960
180.140	16.674	937.829	707.946
181.154	16.762	937.238	707.808
182.169	17.070	936.451	708.434
183.183	17.043	935.901	707.842
184.198	17.049	935.076	707.183
185.213	17.053	934.334	706.576
186.227	17.034	933.853	706.070
187.242	16.983	933.385	705.441
188.256	17.169	932.799	705.710
189.271	17.090	932.102	704.791
190.286	16.777	931.224	702.766
191.300	16.567	929.864	700.807
192.315	16.457	929.172	699.768
193.329	16.483	929.208	699.844
194.344	16.730	928.019	699.905
195.359	16.855	927.069	699.642
196.373	16.872	926.914	699.536
197.388	17.102	926.818	700.348
198.402	17.292	926.052	700.490
199.417	17.325	925.899	700.450
200.432	17.440	925.211	700.340
201.446	17.497	924.585	700.037
202.461	17.448	924.719	699.877
203.475	17.386	923.477	698.621
204.490	17.322	922.568	697.610
205.504	17.149	922.090	696.477
206.519	17.188	921.024	695.768
207.534	17.142	920.813	695.358
208.548	17.094	920.035	694.514
209.563	17.093	919.265	693.869
210.577	17.279	918.709	694.145
211.592	17.438	917.832	694.070
212.607	17.324	917.113	693.002
213.621	17.468	916.651	693.176
214.636	17.488	915.425	692.271
215.650	17.527	914.647	691.778
216.665	17.436	914.485	691.224
217.680	17.560	913.798	691.149
218.694	17.635	912.837	690.664
219.709	17.468	912.361	689.568
220.723	17.508	911.546	689.050
221.738	17.593	910.970	688.898
222.753	17.549	910.174	688.060
223.767	17.602	909.316	687.562
224.782	17.632	909.151	687.496
225.796	17.577	909.265	687.301
226.811	17.674	908.318	686.917
227.826	17.622	907.347	685.913
228.840	17.382	906.886	684.536
229.855	17.466	905.871	684.047
230.869	17.495	905.276	683.656
231.884	17.364	904.641	682.589
232.899	17.289	904.013	681.754
233.913	17.466	902.885	681.551
234.928	17.399	902.261	680.751
235.942	17.213	901.939	679.705
236.957	17.303	901.175	679.427
237.972	17.390	901.001	679.584
238.986	17.384	900.201	678.895
240.001	17.376	899.598	678.351
241.015	17.297	899.440	677.856
242.030	17.559	898.401	678.056
243.045	17.398	898.146	677.164
244.059	17.642	897.415	677.523
245.074	17.592	896.907	676.882
246.088	17.649	896.141	676.469
247.103	17.689	895.979	676.445
248.117	17.874	895.221	676.545
249.132	18.045	894.689	676.763
250.147	18.223	893.920	676.824
251.161	18.299	892.980	676.355
252.176	18.314	892.701	676.143
253.190	18.369	892.198	675.917
254.205	18.332	891.570	675.237
255.220	18.356	890.780	674.673
256.234	18.331	890.122	674.014
257.249	18.393	889.494	673.723
258.263	18.228	888.734	672.442
259.278	18.210	888.373	672.036
260.293	18.338	887.753	672.013
261.307	18.485	887.225	672.128
262.322	18.349	886.758	671.181
263.336	18.432	886.033	670.898
264.351	18.476	885.158	670.348
265.366	18.472	884.795	670.000
266.380	18.480	883.914	669.304
267.395	18.356	883.045	668.102
268.409	18.290	882.244	667.180
269.424	18.395	881.603	667.049
270.439	18.268	881.297	666.262
271.453	18.296	880.295	665.555
272.468	18.271	879.794	665.019
273.482	18.226	879.239	664.366
274.497	18.230	878.791	663.983
275.512	18.270	878.210	663.643
276.526	18.320	878.133	663.719
277.541	18.450	877.444	663.640
278.555	18.596	876.801	663.663
279.570	18.584	876.200	663.101
280.585	18.556	875.460	662.375
281.599	18.593	874.484	661.720
282.614	18.412	873.797	660.444
283.628	18.421	873.087	659.886
284.643	18.325	872.805	659.244
285.657	18.358	872.188	658.848
286.672	18.437	871.318	658.435
287.687	18.459	870.652	657.959
288.701	18.416	870.130	657.341
289.716	18.436	869.652	656.998
290.730	18.579	868.788	656.832
291.745	18.634	868.541	656.799
292.760	18.719	867.952	656.619
293.774	18.762	867.135	656.109
294.789	18.803	866.343	655.609
295.803	18.618	865.610	654.290
296.818	18.442	864.751	652.911
297.833	18.474	864.558	652.831
298.847	18.512	863.722	652.286
299.862	18.652	863.182	652.352
300.876	18.575	863.117	651.953
301.891	18.883	862.075	652.277
302.906	18.898	861.751	652.033
303.920	18.960	861.495	652.016
304.935	19.129	860.980	652.208
305.949	18.940	859.803	650.545
306.964	18.878	859.474	650.004
307.979	18.950	858.995	649.856
308.993	19.083	858.367	649.824
310.008	18.967	857.806	648.906
311.022	18.867	857.337	648.114
312.037	18.717	856.437	646.814
313.052	18.592	855.937	645.909
314.066	18.655	855.186	645.519
315.081	18.624	854.676	644.963
316.095	18.621	854.027	644.406
317.110	18.672	853.566	644.192
318.125	18.711	853.253	644.042
319.139	18.737	852.915	643.831
320.154	18.567	852.492	642.814
321.168	18.762	851.475	642.723
322.183	18.897	850.844	642.692
323.197	18.725	850.762	641.933
324.212	18.874	849.999	641.858
325.227	18.913	849.436	641.518
326.241	18.837	848.738	640.652
327.256	18.827	848.460	640.348
328.270	18.743	848.143	639.738
329.285	18.911	847.189	639.587
330.300	18.846	846.311	638.629
331.314	18.841	845.845	638.200
332.329	19.021	845.417	638.489
333.343	19.065	845.430	638.605
334.358	19.037	844.772	637.949
335.373	18.980	844.581	637.537
336.387	19.039	844.356	637.527
337.402	19.117	843.933	637.443
338.416	19.283	843.473	637.651
339.431	19.305	843.067	637.371
340.446	19.443	843.004	637.775
341.460	19.444	842.304	637.193
342.475	19.632	842.156	637.722
343.489	19.604	841.771	637.267
344.504	19.491	841.483	636.579
345.519	19.556	840.828	636.264
346.533	19.528	840.228	635.653
347.548	19.306	839.611	634.311
348.562	19.256	838.835	633.487
349.577	19.067	838.340	632.360
350.592	19.111	837.640	631.938
351.606	19.183	836.957	631.632
352.621	19.210	836.103	631.031
353.635	19.294	835.463	630.800
354.650	19.458	835.037	631.020
355.665	19.471	834.103	630.309
356.679	19.544	833.416	629.997
357.694	19.347	833.256	629.102
358.708	19.447	832.693	628.987
359.723	19.223	831.979	627.578
360.738	19.516	831.657	628.344
361.752	19.588	830.802	627.904
362.767	19.701	830.385	627.943
363.781	19.813	829.694	627.774
364.796	19.849	829.539	627.732
365.810	19.835	829.433	627.544
366.825	20.021	828.939	627.790
367.840	19.847	828.236	626.572
368.854	19.676	827.948	625.677
369.869	19.727	827.320	625.333
370.883	19.754	827.042	625.167
371.898	19.809	826.850	625.164
372.913	19.761	826.234	624.468
373.927	19.714	825.552	623.728
374.942	19.751	825.232	623.566
375.956	19.848	825.096	623.756
376.971	20.035	824.532	623.948
377.986	20.182	823.674	623.775
379.000	20.137	823.364	623.321
380.015	20.141	823.154	623.121
381.029	20.010	822.058	621.768
382.044	20.281	820.922	621.824
383.059	20.205	821.173	621.687
384.073	20.055	820.495	620.582
385.088	19.933	819.762	619.534
386.102	19.807	819.334	618.706
387.117	19.924	818.620	618.529
388.132	19.899	818.111	618.002
389.146	19.795	817.781	617.328
390.161	20.075	817.334	617.935
391.175	20.118	816.577	617.460
392.190	19.984	816.011	616.502
393.205	19.842	815.726	615.726
394.219	19.964	814.995	615.552
395.234	19.783	815.030	614.880
396.248	19.655	814.464	613.945
397.263	19.745	813.901	613.784
398.278	19.805	813.133	613.365
399.292	19.805	812.939	613.164
400.307	19.774	812.553	612.708
401.321	19.873	811.808	612.443
402.336	19.842	811.567	612.097
403.350	19.967	811.451	612.398
404.365	20.022	810.810	612.055
405.380	20.186	810.110	612.051
406.394	20.177	809.768	611.708
407.409	20.399	809.479	612.216
408.423	20.387	809.333	612.008
409.438	20.291	809.062	611.412
410.453	20.608	808.304	611.901
411.467	20.528	807.857	611.226
412.482	20.615	807.619	611.297
413.496	20.634	807.305	611.073
414.511	20.534	806.955	610.405
415.526	20.518	806.168	609.698
416.540	20.586	805.749	609.565
417.555	20.550	805.158	608.940
418.569	20.658	804.695	608.913
419.584	20.659	804.564	608.763
420.599	20.635	804.021	608.214
421.613	161.352	1373.196	1794.935
422.628	140.187	1456.100	1795.031
