DTS Sentinel unit serial number:	SN413079Multiplexer serial number:	ORYXHardware model number:	OX4-SRSoftware version number:	ORYX F/W v4.00 Oryx Data Collector v3.7.2.0data status	okinstallation	princeton_trtdifferential loss correction	single-endedforward channel	channel 1reverse channel	N/Adate	2019/09/18time	03:26:35forward acquisition time	60.00reverse acquisition time	0.00gamma	496.2192k internal	0.2341k external	0.2341temperature offset calibration	0.9978default loss term (dB/km)	0.3790temperature slope calibration	1.0000multiplexer offset coefficient	1.0000multiplexer slope coefficient	1.0000fibre end	0.00T internal ref (°C)	22.80T ext. ref 1 (°C)	0.16T ext. ref 2 (°C)	17.32length (m)	temperature (°C)	Stokes	anti-Stokes-747.200	142.387	0.088	-0.118
-746.185	480.815	0.139	0.317
-745.171	450.350	0.043	-0.096
-744.156	-21.066	-0.219	0.134
-743.142	800.000	0.066	0.261
-742.127	137.753	-0.265	0.347
-741.112	283.383	-0.144	0.260
-740.098	-154.193	-0.256	0.017
-739.083	-132.238	-0.175	-0.023
-738.069	415.670	-0.053	0.112
-737.054	71.879	-0.117	-0.122
-736.039	175.404	-0.140	-0.203
-735.025	-22.609	0.093	-0.056
-734.010	239.788	-0.094	0.157
-732.996	-120.270	-0.197	-0.034
-731.981	-5.499	-0.169	-0.116
-730.966	-78.976	-0.068	-0.023
-729.952	-179.182	-0.351	0.008
-728.937	-200.000	-0.032	0.176
-727.923	-200.000	-0.004	-0.106
-726.908	-200.000	-0.054	-0.412
-725.894	523.397	0.072	0.169
-724.879	155.630	-0.017	-0.023
-723.864	-145.255	-0.147	0.013
-722.850	-200.000	-0.016	-0.178
-721.835	-200.000	-0.034	-0.358
-720.821	141.527	-0.083	0.110
-719.806	-200.000	0.002	-0.165
-718.791	-126.677	-0.298	-0.044
-717.777	309.592	0.019	-0.035
-716.762	20.723	0.257	-0.208
-715.748	71.394	-0.023	0.024
-714.733	-200.000	0.003	-0.093
-713.718	-200.000	-0.008	0.207
-712.704	800.000	-0.083	-0.315
-711.689	-200.000	0.009	-0.219
-710.675	-19.837	-0.318	-0.197
-709.660	102.906	-0.031	-0.036
-708.645	800.000	-0.081	-0.268
-707.631	-21.559	0.089	0.054
-706.616	-138.545	-0.171	-0.019
-705.602	-134.456	-0.366	-0.045
-704.587	-50.890	-0.165	-0.078
-703.572	621.730	0.046	0.116
-702.558	203.732	-0.010	-0.015
-701.543	-114.589	0.084	-0.016
-700.529	-197.509	-0.131	0.001
-699.514	98.750	-0.142	0.164
-698.499	-124.857	-0.208	0.032
-697.485	-64.436	-0.187	-0.076
-696.470	-67.004	0.116	0.046
-695.456	-93.892	-0.248	-0.068
-694.441	139.907	-0.150	-0.198
-693.426	-10.891	-0.125	-0.083
-692.412	136.563	-0.064	-0.084
-691.397	-53.412	-0.290	-0.133
-690.383	-102.656	0.208	-0.050
-689.368	16.420	-0.304	0.240
-688.354	-156.356	0.302	0.019
-687.339	800.000	-0.075	0.268
-686.324	-65.453	-0.148	-0.059
-685.310	-77.935	-0.072	-0.025
-684.295	-200.000	0.013	0.111
-683.281	-180.198	-0.168	0.004
-682.266	-200.000	0.043	0.243
-681.251	-146.734	-0.161	0.014
-680.237	-165.963	-0.307	-0.013
-679.222	51.967	0.081	-0.077
-678.208	776.705	-0.042	-0.114
-677.193	-22.576	0.106	-0.064
-676.178	127.020	0.025	-0.032
-675.164	-200.000	-0.011	0.092
-674.149	-26.586	0.144	-0.084
-673.135	309.878	0.090	0.168
-672.120	276.953	-0.122	0.217
-671.105	-144.707	-0.232	0.021
-670.091	-200.000	0.077	-0.000
-669.076	-25.648	0.421	0.248
-668.062	410.932	-0.066	-0.140
-667.047	-21.832	-0.172	-0.104
-666.032	228.363	0.215	-0.350
-665.018	-200.000	0.006	-0.054
-664.003	381.939	0.065	-0.133
-662.989	-200.000	0.013	-0.263
-661.974	-17.926	-0.460	-0.288
-660.959	312.505	0.039	-0.073
-659.945	287.548	0.086	0.156
-658.930	-72.824	0.104	0.038
-657.916	-200.000	0.001	-0.165
-656.901	-200.000	-0.013	0.324
-655.886	800.000	-0.130	0.366
-654.872	-44.936	0.144	-0.072
-653.857	82.999	-0.186	-0.202
-652.843	411.239	-0.064	-0.136
-651.828	-139.253	-0.248	-0.027
-650.814	-167.141	-0.212	0.009
-649.799	53.882	-0.047	-0.045
-648.784	-181.798	-0.196	-0.004
-647.770	197.400	0.085	-0.129
-646.755	-200.000	-0.037	0.186
-645.741	-154.038	-0.034	0.002
-644.726	-200.000	0.045	-0.262
-643.711	34.003	-0.042	-0.036
-642.697	518.372	-0.057	-0.134
-641.682	-21.094	0.160	-0.097
-640.668	43.257	-0.181	0.165
-639.653	161.465	-0.362	0.506
-638.638	-200.000	0.002	0.051
-637.624	800.000	-0.025	0.077
-636.609	800.000	-0.008	0.024
-635.595	-29.179	-0.059	-0.033
-634.580	-200.000	0.008	-0.243
-633.565	-42.682	-0.170	-0.086
-632.551	800.000	-0.088	-0.257
-631.536	-97.579	0.290	0.075
-630.522	-200.000	-0.013	0.366
-629.507	142.723	0.216	-0.287
-628.492	20.110	0.077	0.062
-627.478	-200.000	-0.058	0.305
-626.463	29.115	0.337	0.286
-625.449	173.119	0.126	0.181
-624.434	588.889	-0.035	-0.085
-623.419	164.141	-0.096	0.135
-622.405	-86.801	-0.390	-0.119
-621.390	-92.285	0.081	0.023
-620.376	18.798	0.178	0.142
-619.361	102.806	-0.225	0.263
-618.346	276.655	-0.043	0.076
-617.332	-135.353	-0.072	-0.009
-616.317	-200.000	0.048	-0.268
-615.303	3.611	0.198	-0.144
-614.288	-9.264	-0.279	0.186
-613.273	800.000	0.043	0.178
-612.259	-200.000	-0.011	-0.217
-611.244	-200.000	0.046	-0.203
-610.230	-200.000	0.023	0.188
-609.215	-82.225	-0.033	0.011
-608.201	336.546	-0.093	-0.181
-607.186	49.614	-0.099	0.093
-606.171	-174.205	-0.185	-0.005
-605.157	-200.000	0.045	-0.350
-604.142	-165.171	-0.361	-0.016
-603.128	-156.656	0.117	0.007
-602.113	10.205	-0.238	-0.181
-601.098	12.829	-0.353	-0.272
-600.084	-130.480	-0.158	0.021
-599.069	154.577	0.095	-0.130
-598.055	395.016	0.039	0.081
-597.040	800.000	-0.086	-0.325
-596.025	-43.367	-0.344	-0.173
-595.011	-81.768	0.268	0.088
-593.996	2.244	-0.180	-0.130
-592.982	-200.000	-0.017	-0.347
-591.967	421.512	0.194	0.415
-590.952	-196.261	0.140	0.001
-589.938	-200.000	-0.023	0.335
-588.923	-200.000	-0.008	-0.308
-587.909	123.982	-0.151	-0.189
-586.894	159.324	-0.091	-0.126
-585.879	-200.000	0.001	0.307
-584.865	-200.000	-0.001	-0.106
-583.850	-200.000	-0.023	-0.256
-582.836	32.355	0.153	0.132
-581.821	800.000	-0.046	-0.127
-580.806	-28.564	-0.176	0.101
-579.792	-193.684	-0.242	0.002
-578.777	18.073	-0.065	-0.052
-577.763	-200.000	-0.040	0.213
-576.748	104.400	0.154	-0.181
-575.733	800.000	-0.038	-0.141
-574.719	545.443	-0.124	-0.296
-573.704	211.600	0.074	-0.115
-572.690	-72.519	-0.171	0.063
-571.675	-49.982	0.452	0.213
-570.661	109.542	-0.167	0.200
-569.646	800.000	-0.069	-0.251
-568.631	410.120	0.144	-0.305
-567.617	350.059	-0.130	0.256
-566.602	-152.763	-0.333	0.024
-565.588	-65.819	0.162	0.065
-564.573	-29.116	0.092	-0.053
-563.558	748.132	0.037	-0.098
-562.544	-17.093	-0.170	0.107
-561.529	-64.206	-0.403	0.163
-560.515	-14.210	-0.063	-0.040
-559.500	81.550	-0.223	-0.240
-558.485	89.333	-0.156	-0.173
-557.471	800.000	0.051	0.191
-556.456	800.000	-0.070	0.296
-555.442	175.303	0.138	0.199
-554.427	-19.030	0.138	-0.085
-553.412	-68.554	-0.349	0.134
-552.398	590.839	-0.186	0.456
-551.383	272.387	0.125	0.220
-550.369	-140.002	-0.178	0.019
-549.354	-95.793	-0.403	0.107
-548.339	157.270	-0.074	-0.102
-547.325	99.625	-0.162	0.186
-546.310	-101.564	-0.073	0.018
-545.296	180.217	-0.114	-0.167
-544.281	175.932	0.121	0.175
-543.266	34.657	-0.207	0.180
-542.252	157.074	-0.078	0.107
-541.237	147.005	-0.199	-0.266
-540.223	-39.760	-0.266	-0.138
-539.208	-200.000	0.037	0.270
-538.193	175.696	0.115	-0.166
-537.179	800.000	0.072	-0.207
-536.164	-58.381	-0.199	-0.086
-535.150	2.576	0.172	0.124
-534.135	130.670	0.229	-0.291
-533.121	172.327	-0.063	0.090
-532.106	-179.975	0.172	-0.004
-531.091	120.361	-0.091	0.112
-530.077	800.000	0.026	-0.088
-529.062	800.000	0.058	-0.212
-528.048	331.146	-0.098	-0.189
-527.033	-117.274	0.102	-0.018
-526.018	-123.797	-0.286	0.045
-525.004	-153.700	-0.347	0.024
-523.989	-75.559	0.580	-0.205
-522.975	-80.680	-0.183	0.060
-521.960	-62.245	-0.119	0.049
-520.945	713.931	0.068	0.178
-519.931	354.071	0.068	-0.134
-518.916	-148.750	-0.252	0.020
-517.902	-200.000	0.071	0.398
-516.887	111.699	0.066	-0.080
-515.872	-200.000	-0.036	-0.302
-514.858	-118.282	-0.210	0.037
-513.843	28.097	0.162	0.136
-512.829	31.242	-0.107	0.091
-511.814	-124.943	0.226	0.035
-510.799	-79.838	0.090	-0.030
-509.785	220.586	-0.203	-0.324
-508.770	29.016	-0.467	-0.394
-507.756	-36.727	0.171	-0.091
-506.741	441.575	0.080	0.174
-505.726	731.952	0.099	-0.263
-504.712	61.040	0.176	-0.173
-503.697	-57.136	-0.318	0.139
-502.683	-96.450	0.321	0.084
-501.668	-144.005	-0.228	0.021
-500.653	-200.000	-0.010	0.177
-499.639	-86.131	-0.459	0.141
-498.624	100.074	-0.232	-0.267
-497.610	800.000	0.012	-0.046
-496.595	800.000	0.021	-0.062
-495.581	191.519	0.051	-0.076
-494.566	690.797	0.137	-0.357
-493.551	197.229	0.163	0.247
-492.537	-108.637	-0.060	0.013
-491.522	-178.698	-0.141	-0.003
-490.508	679.284	-0.079	0.204
-489.493	800.000	-0.074	0.279
-488.478	110.421	-0.177	0.211
-487.464	-49.605	0.101	-0.048
-486.449	155.064	0.166	0.226
-485.435	-153.832	-0.152	-0.010
-484.420	304.947	-0.014	0.026
-483.405	-96.461	0.257	0.067
-482.391	800.000	0.066	-0.244
-481.376	800.000	-0.065	-0.280
-480.362	99.206	-0.054	0.062
-479.347	749.925	-0.116	0.310
-478.332	76.194	0.147	0.154
-477.318	-200.000	0.010	0.245
-476.303	-122.609	0.266	-0.043
-475.289	-81.922	-0.304	-0.099
-474.274	619.369	-0.070	0.175
-473.259	800.000	0.014	0.053
-472.245	18.913	0.137	0.109
-471.230	114.858	0.228	0.276
-470.216	-127.070	-0.234	-0.034
-469.201	579.294	0.105	-0.254
-468.186	-33.759	-0.173	-0.094
-467.172	222.704	-0.110	-0.175
-466.157	69.775	0.249	-0.254
-465.143	-40.217	-0.364	0.188
-464.128	-50.299	0.253	-0.119
-463.113	-200.000	-0.008	-0.142
-462.099	-136.816	-0.097	0.011
-461.084	-31.228	0.356	-0.199
-460.070	9.533	-0.355	-0.266
-459.055	-74.307	-0.132	0.047
-458.040	164.424	-0.048	0.067
-457.026	319.833	-0.168	0.316
-456.011	464.425	-0.081	-0.179
-454.997	-69.493	0.374	0.142
-453.982	-34.604	0.099	0.054
-452.968	-90.784	-0.187	-0.053
-451.953	-78.076	0.269	-0.092
-450.938	-67.181	0.165	-0.064
-449.924	-200.000	0.014	-0.243
-448.909	208.423	-0.019	0.029
-447.895	79.730	-0.219	-0.233
-446.880	-160.787	0.287	-0.015
-445.865	800.000	-0.051	-0.217
-444.851	-81.245	-0.037	0.012
-443.836	-200.000	0.062	-0.366
-442.822	329.179	-0.060	0.115
-441.807	249.494	0.090	0.151
-440.792	101.356	0.249	0.287
-439.778	109.372	0.177	0.210
-438.763	-193.623	-0.324	0.003
-437.749	-135.591	-0.464	0.055
-436.734	612.202	0.030	-0.074
-435.719	182.197	0.162	0.237
-434.705	-200.000	-0.006	0.038
-433.690	-200.000	-0.008	-0.088
-432.676	-200.000	-0.030	-0.336
-431.661	-0.506	0.262	0.184
-430.646	-130.924	0.038	0.005
-429.632	-85.409	0.384	-0.118
-428.617	-200.000	-0.030	-0.310
-427.603	-200.000	0.010	0.171
-426.588	26.535	-0.164	0.136
-425.573	178.676	0.162	0.234
-424.559	181.191	0.085	0.124
-423.544	26.259	0.106	-0.088
-422.530	-200.000	-0.038	0.185
-421.515	-64.932	0.174	0.070
-420.500	-81.040	0.081	0.027
-419.486	248.364	0.103	0.172
-418.471	164.512	-0.206	0.288
-417.457	-64.690	0.198	-0.079
-416.442	-200.000	0.055	-0.351
-415.428	-93.194	0.218	-0.060
-414.413	179.701	0.050	0.073
-413.398	-14.378	0.273	0.174
-412.384	91.642	0.257	0.286
-411.369	-200.000	0.051	-0.401
-410.355	18.947	0.169	-0.134
-409.340	-200.000	-0.038	0.184
-408.325	-124.864	-0.203	-0.031
-407.311	-14.620	-0.340	0.216
-406.296	-9.417	0.111	0.073
-405.282	-55.105	0.232	0.103
-404.267	-17.906	-0.217	-0.135
-403.252	-200.000	-0.012	-0.065
-402.238	-57.192	0.164	-0.072
-401.223	-30.323	0.097	-0.054
-400.209	800.000	0.122	0.379
-399.194	285.730	-0.104	-0.185
-398.179	-110.308	-0.136	-0.028
-397.165	237.490	0.111	0.181
-396.150	-5.997	-0.423	0.286
-395.136	-118.359	-0.086	0.015
-394.121	-143.840	-0.279	-0.026
-393.106	800.000	-0.054	-0.162
-392.092	-95.936	0.164	-0.043
-391.077	121.087	-0.224	-0.276
-390.063	118.582	-0.200	0.245
-389.048	-63.327	0.255	0.104
-388.033	8.994	0.305	-0.228
-387.019	-38.343	-0.164	-0.086
-386.004	-133.416	-0.205	0.025
-384.990	-16.879	-0.119	0.074
-383.975	90.942	-0.269	0.299
-382.960	298.308	-0.113	0.205
-381.946	-98.876	-0.058	0.015
-380.931	-63.736	-0.111	0.045
-379.917	463.966	-0.199	-0.439
-378.902	267.186	-0.151	-0.261
-377.888	-200.000	-0.030	0.236
-376.873	41.743	0.094	-0.084
-375.858	74.657	-0.028	-0.029
-374.844	-26.779	0.187	-0.108
-373.829	-200.000	-0.017	0.243
-372.815	-200.000	-0.004	-0.113
-371.800	-200.000	-0.005	-0.167
-370.785	-84.336	0.409	0.128
-369.771	-54.006	-0.247	-0.111
-368.756	-100.240	0.117	-0.029
-367.742	-113.863	-0.192	0.037
-366.727	-163.762	0.331	-0.015
-365.712	-200.000	0.031	0.300
-364.698	-132.575	0.063	0.008
-363.683	-200.000	-0.010	0.045
-362.669	-24.763	0.368	0.216
-361.654	193.838	-0.113	-0.169
-360.639	-200.000	0.001	-0.254
-359.625	-115.530	-0.257	-0.048
-358.610	329.145	-0.134	-0.255
-357.596	-178.310	-0.215	0.005
-356.581	-33.327	0.146	0.080
-355.566	-10.021	0.312	0.205
-354.552	-69.714	0.062	0.023
-353.537	27.615	-0.067	0.056
-352.523	-129.901	0.215	0.029
-351.508	-68.003	0.218	-0.084
-350.493	-150.027	0.274	0.021
-349.479	63.657	0.088	-0.087
-348.464	316.749	0.175	0.327
-347.450	-98.685	0.263	0.066
-346.435	670.534	-0.128	0.326
-345.420	202.958	-0.199	-0.303
-344.406	-200.000	-0.042	-0.192
-343.391	116.296	0.080	0.097
-342.377	101.281	0.141	-0.162
-341.362	-102.120	0.133	-0.032
-340.348	-8.519	0.221	0.147
-339.333	-150.831	-0.134	0.010
-338.318	800.000	0.144	-0.558
-337.304	9.692	-0.129	0.097
-336.289	25.375	0.342	0.280
-335.275	-200.000	-0.014	0.126
-334.260	84.722	-0.193	-0.209
-333.245	-134.630	-0.171	0.021
-332.231	-23.116	0.189	-0.112
-331.216	-200.000	0.017	0.156
-330.202	-32.454	0.201	-0.111
-329.187	19.597	0.079	-0.062
-328.172	-30.362	-0.377	0.211
-327.158	-152.679	-0.172	-0.012
-326.143	800.000	0.089	0.316
-325.129	-200.000	0.022	0.359
-324.114	800.000	-0.030	0.114
-323.099	-122.155	0.303	0.049
-322.085	-61.521	0.253	-0.105
-321.070	331.722	-0.087	-0.166
-320.056	-7.458	-0.220	0.147
-319.041	0.703	0.191	-0.135
-318.026	-72.672	0.222	0.081
-317.012	-99.832	-0.197	-0.049
-315.997	-0.011	-0.047	0.033
-314.983	6.052	-0.185	-0.135
-313.968	116.764	0.067	-0.081
-312.953	138.200	-0.258	-0.334
-311.939	-200.000	-0.092	0.406
-310.924	20.425	0.006	-0.005
-309.910	-62.762	-0.451	-0.184
-308.895	-200.000	-0.002	-0.109
-307.880	548.495	0.115	-0.270
-306.866	-175.670	0.254	0.007
-305.851	403.186	0.034	-0.071
-304.837	91.055	-0.235	0.259
-303.822	-200.000	-0.044	-0.440
-302.807	39.465	0.308	-0.272
-301.793	490.753	-0.080	0.179
-300.778	-200.000	-0.025	-0.126
-299.764	-42.095	-0.219	-0.110
-298.749	-29.349	0.181	0.102
-297.735	315.207	0.031	-0.058
-296.720	-1.431	0.168	0.117
-295.705	422.177	0.157	-0.333
-294.691	-14.708	-0.054	0.034
-293.676	-170.009	0.160	0.006
-292.662	-200.000	0.059	0.280
-291.647	-73.666	-0.181	0.065
-290.632	-6.068	0.255	-0.172
-289.618	127.613	0.197	0.246
-288.603	800.000	-0.158	0.514
-287.589	-200.000	-0.009	0.131
-286.574	-80.545	0.126	0.041
-285.559	-163.172	0.065	0.003
-284.545	-200.000	-0.001	0.114
-283.530	-16.622	0.319	-0.199
-282.516	102.785	0.056	0.065
-281.501	-154.600	0.347	-0.023
-280.486	307.042	0.227	-0.416
-279.472	-89.107	0.155	0.045
-278.457	253.827	-0.100	0.168
-277.443	51.323	-0.121	-0.113
-276.428	-169.899	-0.107	-0.004
-275.413	312.711	0.134	0.248
-274.399	181.994	0.138	-0.201
-273.384	-26.091	0.234	0.135
-272.370	508.853	0.077	0.177
-271.355	-75.814	-0.111	0.039
-270.340	800.000	-0.065	-0.224
-269.326	800.000	-0.039	0.105
-268.311	-2.042	0.227	-0.157
-267.297	-35.069	-0.077	0.042
-266.282	-118.582	0.295	0.051
-265.267	-48.203	-0.195	-0.093
-264.253	234.516	-0.105	0.171
-263.238	-56.802	0.107	-0.047
-262.224	115.706	0.118	-0.141
-261.209	-15.103	0.141	-0.089
-260.195	-75.438	0.250	-0.088
-259.180	-200.000	0.007	0.149
-258.165	800.000	-0.099	-0.342
-257.151	-97.521	0.088	0.023
-256.136	-110.289	0.213	0.044
-255.122	-189.361	0.177	0.002
-254.107	192.550	0.197	-0.293
-253.092	474.055	-0.073	-0.163
-252.078	91.787	-0.265	0.293
-251.063	-139.419	-0.169	0.018
-250.049	-84.415	0.353	-0.110
-249.034	-124.914	0.184	-0.028
-248.019	-45.637	-0.138	0.067
-247.005	-24.132	-0.357	-0.210
-245.990	-70.704	-0.102	0.038
-244.976	800.000	0.039	-0.145
-243.961	-62.958	0.145	0.059
-242.946	-22.555	0.058	0.034
-241.932	-101.190	0.312	0.075
-240.917	8.005	-0.109	-0.080
-239.903	706.240	0.074	-0.192
-238.888	-84.500	0.186	0.058
-237.873	800.000	-0.041	0.117
-236.859	-200.000	-0.030	0.214
-235.844	130.906	0.223	0.281
-234.830	18.517	0.246	-0.194
-233.815	-89.362	0.176	-0.051
-232.800	-1.194	-0.219	0.152
-231.786	89.470	-0.150	-0.164
-230.771	0.755	-0.170	-0.120
-229.757	-102.118	-0.182	0.043
-228.742	-44.207	-0.225	0.111
-227.727	-48.723	0.131	0.062
-226.713	800.000	-0.099	-0.279
-225.698	53.451	0.093	0.087
-224.684	742.788	0.087	-0.231
-223.669	162.225	-0.115	0.159
-222.655	800.000	0.040	-0.122
-221.640	-42.743	0.101	0.051
-220.625	24.262	-0.148	0.120
-219.611	800.000	0.099	0.420
-218.596	132.256	-0.094	0.119
-217.582	38.549	-0.209	0.183
-216.567	-200.000	0.024	-0.151
-215.552	800.000	0.033	0.131
-214.538	-22.930	0.265	0.157
-213.523	-21.842	0.031	0.019
-212.509	-200.000	-0.037	-0.188
-211.494	800.000	0.113	-0.340
-210.479	-76.774	0.350	0.120
-209.465	-200.000	-0.012	0.121
-208.450	-200.000	-0.063	0.376
-207.436	-41.068	0.270	-0.137
-206.421	-200.000	-0.023	0.154
-205.406	-55.652	-0.154	-0.068
-204.392	-52.617	-0.433	0.196
-203.377	800.000	-0.042	-0.144
-202.363	278.546	0.230	-0.403
-201.348	43.776	0.310	-0.279
-200.333	-200.000	-0.042	-0.306
-199.319	-117.536	0.080	0.014
-198.304	800.000	-0.030	0.127
-197.290	-200.000	-0.002	-0.100
-196.275	-200.000	0.012	0.108
-195.260	44.547	0.162	0.146
-194.246	257.704	0.139	-0.235
-193.231	-125.512	0.144	0.021
-192.217	-45.157	-0.271	-0.132
-191.202	-14.889	0.066	-0.042
-190.187	653.228	0.089	-0.223
-189.173	-13.549	-0.269	-0.171
-188.158	632.262	0.022	-0.055
-187.144	-60.950	0.320	0.133
-186.129	-35.502	-0.122	-0.065
-185.114	-150.345	-0.306	-0.023
-184.100	6.175	0.247	0.180
-183.085	47.038	-0.128	0.117
-182.071	-200.000	-0.008	-0.066
-181.056	-94.374	-0.386	0.103
-180.042	-200.000	0.013	0.271
-179.027	525.192	-0.072	-0.165
-178.012	-13.877	-0.249	0.158
-176.998	800.000	0.016	0.062
-175.983	72.263	-0.193	-0.197
-174.969	759.774	-0.064	0.170
-173.954	208.631	-0.156	0.240
-172.939	379.234	-0.064	0.129
-171.925	118.699	0.178	0.216
-170.910	7.684	0.126	-0.093
-169.896	425.738	-0.106	0.223
-168.881	-200.000	-0.068	-0.367
-167.866	-200.000	0.039	-0.291
-166.852	374.595	-0.031	0.063
-165.837	-101.216	-0.060	-0.014
-164.823	-118.053	0.268	-0.047
-163.808	-11.311	-0.141	-0.091
-162.793	-98.011	0.344	-0.087
-161.779	-77.610	0.193	-0.065
-160.764	800.000	0.046	0.149
-159.750	800.000	-0.038	0.145
-158.735	260.474	0.047	-0.079
-157.720	167.179	-0.066	0.091
-156.706	-136.885	0.200	-0.023
-155.691	-139.443	0.220	-0.023
-154.677	129.653	-0.093	0.117
-153.662	-200.000	0.029	0.145
-152.647	-87.548	-0.137	0.040
-151.633	542.880	0.052	0.121
-150.618	-48.222	-0.133	0.063
-149.604	-153.776	0.228	-0.015
-148.589	437.511	-0.223	0.477
-147.574	-62.911	0.057	-0.023
-146.560	-91.239	0.530	0.149
-145.545	188.199	0.244	-0.356
-144.531	-90.848	-0.358	0.101
-143.516	410.941	0.113	0.234
-142.502	149.970	-0.133	0.177
-141.487	-200.000	-0.043	0.339
-140.472	-93.468	0.292	-0.079
-139.458	-81.421	0.156	-0.050
-138.443	-200.000	0.031	-0.196
-137.429	-200.000	-0.007	-0.265
-136.414	-200.000	0.045	-0.334
-135.399	-82.475	-0.045	-0.014
-134.385	318.035	-0.053	-0.099
-133.370	4.806	0.198	-0.143
-132.356	-200.000	-0.042	-0.238
-131.341	-32.807	0.322	0.175
-130.326	334.596	-0.230	0.437
-129.312	-99.456	0.111	0.027
-128.297	738.374	0.102	0.268
-127.283	149.592	-0.036	0.048
-126.268	311.607	0.097	0.178
-125.253	58.265	-0.051	0.049
-124.239	444.838	0.140	0.300
-123.224	227.411	0.091	0.145
-122.210	-73.392	-0.337	-0.121
-121.195	84.837	0.169	0.181
-120.180	60.655	0.219	-0.212
-119.166	-200.000	-0.038	0.243
-118.151	-142.484	-0.229	0.022
-117.137	800.000	-0.032	-0.116
-116.122	-116.739	-0.134	-0.024
-115.107	-96.177	-0.231	0.060
-114.093	35.744	0.086	-0.074
-113.078	-148.106	0.205	0.017
-112.064	-200.000	0.001	0.145
-111.049	-40.824	-0.032	-0.016
-110.034	-200.000	0.035	0.324
-109.020	258.352	-0.118	-0.199
-108.005	-121.112	-0.149	-0.024
-106.991	491.875	0.107	0.240
-105.976	800.000	-0.036	-0.153
-104.962	800.000	0.105	0.353
-103.947	-200.000	-0.031	0.457
-102.932	341.061	0.004	0.008
-101.918	-168.439	-0.244	0.009
-100.903	71.029	-0.127	0.129
-99.889	-30.657	0.114	-0.063
-98.874	800.000	-0.093	-0.371
-97.859	-69.564	0.152	0.057
-96.845	-123.747	0.156	-0.024
-95.830	782.690	-0.141	0.377
-94.816	82.616	-0.242	0.257
-93.801	-200.000	-0.043	-0.196
-92.786	219.792	0.074	0.115
-91.772	-200.000	0.022	0.395
-90.757	-62.187	-0.243	0.099
-89.743	-200.000	-0.013	-0.097
-88.728	-200.000	0.019	-0.352
-87.713	-145.725	0.209	-0.018
-86.699	800.000	-0.083	0.224
-85.684	-81.436	0.196	0.063
-84.670	-200.000	-0.006	-0.092
-83.655	112.421	0.235	-0.278
-82.640	174.899	0.129	0.183
-81.626	133.548	0.101	-0.127
-80.611	-86.580	0.345	-0.103
-79.597	-200.000	-0.012	0.055
-78.582	-21.779	-0.200	0.119
-77.567	-85.928	-0.176	-0.053
-76.553	-6.620	-0.053	-0.036
-75.538	800.000	0.077	0.215
-74.524	-54.175	-0.381	0.169
-73.509	800.000	0.103	-0.290
-72.494	-160.875	-0.289	-0.015
-71.480	800.000	-0.083	-0.292
-70.465	-121.942	0.192	0.031
-69.451	-28.786	0.374	0.210
-68.436	-175.349	0.293	0.008
-67.422	800.000	-0.178	0.494
-66.407	75.500	0.098	-0.101
-65.392	-93.938	0.264	0.071
-64.378	-200.000	-0.009	0.054
-63.363	-163.166	0.255	-0.012
-62.349	141.138	-0.177	0.228
-61.334	131.938	-1.144	-1.437
-60.319	47.740	0.966	0.880
-59.305	635.832	-0.524	-1.299
-58.290	337.166	0.808	1.531
-57.276	595.058	0.581	1.402
-56.261	-200.000	127.842	668.044
-55.246	404.679	1609.618	3309.164
-54.232	138.102	2765.686	3537.469
-53.217	95.624	2166.415	2411.318
-52.203	34.444	1595.030	1358.408
-51.188	26.041	1338.550	1089.438
-50.173	23.592	1300.578	1044.100
-49.159	51.773	1371.036	1272.402
-48.144	48.300	1382.174	1261.701
-47.130	26.210	1329.266	1082.720
-46.115	23.057	1310.313	1048.578
-45.100	22.729	1305.189	1042.498
-44.086	22.623	1303.046	1040.116
-43.071	22.662	1300.295	1038.109
-42.057	22.722	1298.244	1036.785
-41.042	22.673	1296.987	1035.452
-40.027	22.721	1295.375	1034.406
-39.013	22.881	1293.110	1033.491
-37.998	22.740	1291.383	1031.248
-36.984	22.837	1289.706	1030.431
-35.969	22.784	1287.849	1028.601
-34.954	22.764	1286.696	1027.524
-33.940	22.721	1285.359	1026.161
-32.925	22.845	1283.668	1025.494
-31.911	22.854	1282.536	1024.599
-30.896	22.880	1281.336	1023.749
-29.881	22.935	1279.650	1022.682
-28.867	22.936	1278.216	1021.499
-27.852	22.877	1276.981	1020.132
-26.838	22.952	1275.108	1019.027
-25.823	22.959	1274.208	1018.308
-24.809	22.906	1272.653	1016.721
-23.794	22.925	1271.835	1016.135
-22.779	22.781	1270.730	1014.384
-21.765	22.960	1268.514	1013.605
-20.750	22.850	1267.649	1012.243
-19.736	22.802	1266.219	1010.782
-18.721	22.785	1265.218	1009.845
-17.706	22.805	1263.904	1008.873
-16.692	22.699	1262.969	1007.485
-15.677	22.749	1262.063	1007.006
-14.663	22.642	1260.879	1005.411
-13.648	22.651	1260.285	1004.949
-12.633	22.689	1259.199	1004.260
-11.619	22.692	1258.465	1003.649
-10.604	22.883	1257.002	1003.530
-9.590	22.661	1256.545	1001.861
-8.575	22.592	1255.935	1000.945
-7.560	22.716	1254.505	1000.468
-6.546	22.795	1253.771	1000.291
-5.531	22.756	1252.629	999.121
-4.517	22.721	1252.257	998.586
-3.502	22.741	1251.406	997.981
-2.487	22.727	1250.319	996.995
-1.473	22.760	1246.005	993.699
-0.458	21.207	1231.375	973.345
0.556	16.586	1216.445	939.519
1.571	13.177	1224.687	926.712
2.586	12.706	1240.142	935.647
3.600	12.764	1228.244	926.915
4.615	9.259	1156.399	854.021
5.629	3.071	1085.541	770.680
6.644	0.419	1068.792	745.626
7.659	0.184	1066.765	742.982
8.673	0.064	1066.445	742.104
9.688	-0.026	1064.920	740.532
10.702	0.343	1062.452	740.565
11.717	3.914	1066.935	761.220
12.731	11.030	1075.891	802.744
13.746	15.656	1081.521	829.762
14.761	16.829	1082.387	836.144
15.775	16.117	1080.669	831.232
16.790	15.064	1079.057	824.737
17.804	14.345	1077.375	819.841
18.819	14.191	1075.782	817.799
19.834	13.803	1075.489	815.595
20.848	13.691	1074.282	814.058
21.863	13.356	1074.024	812.146
22.877	13.145	1072.981	810.251
23.892	13.035	1072.538	809.307
24.907	13.256	1071.352	809.418
25.921	13.271	1070.472	808.759
26.936	13.212	1070.227	808.213
27.950	13.259	1069.200	807.596
28.965	13.428	1067.401	806.989
29.980	13.320	1066.544	805.742
30.994	13.398	1065.231	805.058
32.009	13.390	1064.439	804.353
33.023	13.478	1063.239	803.798
34.038	13.390	1062.051	802.405
35.053	13.360	1061.428	801.719
36.067	13.423	1060.389	801.165
37.082	13.356	1059.748	800.286
38.096	13.386	1058.939	799.751
39.111	13.296	1058.578	798.972
40.126	13.195	1057.373	797.505
41.140	13.251	1055.609	796.371
42.155	13.093	1055.257	795.275
43.169	13.111	1054.136	794.450
44.184	13.058	1053.350	793.530
45.199	13.183	1051.760	792.861
46.213	13.174	1051.259	792.373
47.228	13.218	1050.298	791.785
48.242	13.258	1048.802	790.782
49.257	13.181	1048.034	789.765
50.271	13.296	1046.707	789.245
51.286	13.345	1045.843	788.756
52.301	13.347	1044.844	787.941
53.315	13.287	1044.036	786.979
54.330	13.229	1042.877	785.759
55.344	13.175	1042.178	784.904
56.359	13.205	1041.214	784.253
57.374	13.185	1040.447	783.511
58.388	13.110	1039.713	782.532
59.403	13.240	1038.257	781.983
60.417	13.134	1038.083	781.281
61.432	13.162	1037.111	780.614
62.447	13.032	1036.454	779.435
63.461	13.043	1035.641	778.806
64.476	13.243	1034.316	778.686
65.490	13.041	1033.925	777.368
66.505	13.033	1032.991	776.563
67.520	13.206	1031.726	776.353
68.534	13.180	1031.371	775.897
69.549	13.089	1030.697	774.895
70.563	13.063	1029.780	774.012
71.578	13.079	1029.327	773.681
72.593	13.136	1028.154	772.996
73.607	13.024	1027.875	772.195
74.622	13.019	1027.101	771.524
75.636	13.122	1026.300	771.333
76.651	13.001	1025.657	770.215
77.666	12.976	1024.837	769.418
78.680	12.977	1024.461	769.070
79.695	13.168	1023.111	768.878
80.709	12.985	1023.298	768.096
81.724	13.176	1022.409	768.249
82.739	13.186	1021.392	767.466
83.753	13.421	1020.256	767.636
84.768	13.404	1019.428	766.866
85.782	13.506	1018.404	766.500
86.797	13.300	1017.704	764.950
87.812	13.216	1017.151	764.080
88.826	13.152	1016.313	763.088
89.841	13.342	1015.054	762.952
90.855	13.353	1014.246	762.328
91.870	13.314	1013.571	761.571
92.884	13.375	1012.453	760.945
93.899	13.354	1011.762	760.263
94.914	13.417	1010.583	759.598
95.928	13.370	1010.290	759.093
96.943	13.340	1008.997	757.918
97.957	13.291	1008.356	757.144
98.972	13.483	1007.117	757.028
99.987	13.350	1006.877	756.170
101.001	13.428	1005.471	755.403
102.016	13.369	1004.648	754.448
103.030	13.363	1003.836	753.747
104.045	13.294	1003.151	752.852
105.060	13.186	1002.323	751.670
106.074	13.201	1001.743	751.236
107.089	13.341	1000.407	750.804
108.103	13.210	999.206	749.243
109.118	13.163	998.859	748.703
110.133	13.292	997.730	748.374
111.147	13.167	996.777	747.029
112.162	13.259	995.762	746.618
113.176	13.300	994.967	746.142
114.191	13.263	994.330	745.430
115.206	13.314	992.970	744.574
116.220	13.219	993.055	744.147
117.235	13.412	991.560	743.828
118.249	13.328	990.775	742.796
119.264	13.265	990.015	741.875
120.279	13.226	989.749	741.436
121.293	13.087	988.788	740.026
122.308	13.262	987.593	739.852
123.322	13.249	986.550	738.947
124.337	13.280	985.616	738.319
125.352	13.217	984.914	737.448
126.366	13.235	983.469	736.379
127.381	13.326	982.421	735.938
128.395	13.216	981.658	734.811
129.410	13.093	981.111	733.790
130.424	13.402	979.734	734.067
131.439	13.352	979.159	733.347
132.454	13.423	978.302	732.954
133.468	13.385	977.604	732.200
134.483	13.388	976.308	731.177
135.497	13.305	975.889	730.433
136.512	13.235	975.141	729.500
137.527	13.384	973.904	729.168
138.541	13.310	973.437	728.427
139.556	13.400	972.675	728.187
140.570	13.368	972.399	727.774
141.585	13.443	971.278	727.200
142.600	13.531	970.180	726.701
143.614	13.506	969.455	725.986
144.629	13.500	969.097	725.623
145.643	13.535	968.054	724.935
146.658	13.379	966.884	723.309
147.673	13.506	965.561	722.813
148.687	13.382	965.323	722.028
149.702	13.412	964.171	721.233
150.716	13.399	963.536	720.637
151.731	13.417	962.982	720.239
152.746	13.414	962.420	719.743
153.760	13.515	961.705	719.584
154.775	13.547	961.075	719.186
155.789	13.620	960.474	718.991
156.804	13.588	959.215	717.845
157.819	13.482	959.169	717.287
158.833	13.796	957.985	717.698
159.848	13.820	956.629	716.722
160.862	13.647	956.318	715.677
161.877	13.613	955.324	714.722
162.892	13.666	954.297	714.120
163.906	13.529	953.466	712.848
164.921	13.574	952.801	712.481
165.935	13.581	951.883	711.759
166.950	13.551	951.027	710.927
167.964	13.688	950.451	711.024
168.979	13.716	949.175	710.124
169.994	13.702	948.461	709.466
171.008	13.778	947.719	709.176
172.023	13.707	947.187	708.413
173.037	13.696	946.570	707.839
174.052	13.758	945.873	707.520
175.067	13.687	945.488	706.866
176.081	13.793	944.548	706.551
177.096	13.624	944.192	705.504
178.110	13.644	943.398	704.933
179.125	13.622	942.997	704.478
180.140	13.639	942.447	704.077
181.154	13.764	941.838	704.090
182.169	13.870	941.166	703.975
183.183	13.864	940.931	703.714
184.198	13.966	939.672	703.138
185.213	13.933	938.979	702.421
186.227	14.003	937.887	701.836
187.242	13.884	937.889	701.275
188.256	13.927	937.158	700.844
189.271	14.062	936.019	700.503
190.286	13.940	935.251	699.351
191.300	13.929	934.461	698.653
192.315	13.712	934.254	697.524
193.329	13.842	933.562	697.492
194.344	13.899	932.843	697.133
195.359	13.919	932.179	696.657
196.373	14.064	931.419	696.636
197.388	13.858	931.502	695.772
198.402	14.033	930.767	695.896
199.417	14.085	929.848	695.365
200.432	14.185	929.291	695.304
201.446	14.211	928.660	694.880
202.461	14.175	928.538	694.577
203.475	14.142	927.969	693.951
204.490	14.149	926.655	692.935
205.504	14.111	926.189	692.368
206.519	14.041	925.664	691.624
207.534	14.131	924.436	691.017
208.548	14.231	923.694	690.818
209.563	14.126	923.506	690.181
210.577	14.128	922.913	689.684
211.592	14.344	921.806	689.692
212.607	14.342	920.877	688.926
213.621	14.308	920.031	688.091
214.636	14.217	920.144	687.740
215.650	14.293	919.383	687.423
216.665	14.325	918.580	686.894
217.680	14.348	918.080	686.554
218.694	14.438	916.681	685.819
219.709	14.362	916.244	685.117
220.723	14.406	915.746	684.867
221.738	14.427	914.969	684.311
222.753	14.457	914.571	684.076
223.767	14.489	913.986	683.707
224.782	14.557	913.677	683.695
225.796	14.540	912.763	682.882
226.811	14.524	912.005	682.189
227.826	14.550	911.162	681.603
228.840	14.569	910.799	681.347
229.855	14.247	910.347	679.635
230.869	14.555	908.983	679.813
231.884	14.492	908.343	679.017
232.899	14.509	907.489	678.389
233.913	14.446	906.607	677.413
234.928	14.583	906.274	677.661
235.942	14.453	905.640	676.598
236.957	14.480	905.580	676.602
237.972	14.481	904.628	675.835
238.986	14.675	903.877	676.002
240.001	14.506	903.271	674.804
241.015	14.535	902.719	674.450
242.030	14.589	902.040	674.103
243.045	14.613	901.424	673.676
244.059	14.732	900.967	673.758
245.074	14.552	900.420	672.563
246.088	14.747	899.510	672.607
247.103	14.789	898.707	672.119
248.117	14.734	898.317	671.543
249.132	14.898	897.594	671.606
250.147	14.887	897.321	671.295
251.161	14.927	896.736	670.961
252.176	14.818	896.106	669.991
253.190	14.985	895.283	669.987
254.205	15.020	894.752	669.669
255.220	14.989	893.598	668.622
256.234	14.906	893.060	667.831
257.249	14.888	892.772	667.482
258.263	15.042	891.814	667.323
259.278	15.154	890.981	667.085
260.293	15.007	890.677	666.214
261.307	15.061	890.025	665.883
262.322	15.265	889.120	665.957
263.336	15.163	888.843	665.286
264.351	15.135	887.583	664.172
265.366	15.182	886.884	663.775
266.380	15.141	886.276	663.100
267.395	15.276	885.485	662.985
268.409	15.115	885.049	661.964
269.424	15.205	884.536	661.875
270.439	15.210	883.563	661.108
271.453	15.219	883.178	660.798
272.468	15.123	882.731	660.026
273.482	15.167	881.919	659.534
274.497	15.337	881.098	659.529
275.512	15.367	880.567	659.193
276.526	15.190	880.341	658.270
277.541	15.393	879.111	658.088
278.555	15.308	879.273	657.817
279.570	15.347	878.368	657.234
280.585	15.400	877.453	656.701
281.599	15.220	876.882	655.511
282.614	15.249	876.213	655.065
283.628	15.308	875.989	655.072
284.643	15.448	875.339	655.072
285.657	15.326	874.489	653.902
286.672	15.477	873.742	653.873
287.687	15.495	873.368	653.607
288.701	15.492	872.995	653.258
289.716	15.489	872.216	652.604
290.730	15.511	871.495	652.094
291.745	15.477	871.140	651.640
292.760	15.614	870.441	651.591
293.774	15.753	869.313	651.225
294.789	15.603	869.064	650.402
295.803	15.676	868.304	650.056
296.818	15.608	867.332	649.011
297.833	15.574	867.144	648.681
298.847	15.701	866.318	648.495
299.862	15.713	865.425	647.816
300.876	15.642	865.404	647.470
301.891	15.602	864.863	646.853
302.906	15.729	864.057	646.680
303.920	15.728	863.842	646.460
304.935	15.750	862.851	645.745
305.949	15.883	862.569	645.986
306.964	15.807	861.683	644.976
307.979	15.869	861.126	644.740
308.993	15.885	860.774	644.478
310.008	15.872	859.688	643.558
311.022	15.888	859.329	643.294
312.037	15.877	858.727	642.747
313.052	15.898	858.150	642.338
314.066	15.910	858.019	642.226
315.081	15.888	857.186	641.462
316.095	16.000	856.330	641.193
317.110	15.817	855.966	640.166
318.125	15.900	855.464	640.050
319.139	15.949	855.217	639.993
320.154	15.911	854.415	639.193
321.168	15.894	853.915	638.699
322.183	15.973	853.328	638.502
323.197	15.963	852.975	638.144
324.212	15.874	852.872	637.673
325.227	15.897	851.776	636.884
326.241	15.926	851.502	636.732
327.256	15.897	850.952	636.157
328.270	15.981	850.201	635.856
329.285	16.052	849.779	635.752
330.300	15.959	848.808	634.619
331.314	15.992	848.696	634.602
332.329	16.067	847.799	634.158
333.343	16.165	847.744	634.427
334.358	16.128	847.278	633.886
335.373	16.157	846.810	633.588
336.387	16.210	846.307	633.352
337.402	16.154	845.940	632.811
338.416	16.301	845.758	633.173
339.431	16.213	845.686	632.733
340.446	16.161	845.292	632.188
341.460	16.207	844.610	631.794
342.475	16.303	844.143	631.748
343.489	16.246	843.849	631.259
344.504	16.363	843.313	631.238
345.519	16.431	842.914	631.139
346.533	16.427	842.446	630.718
347.548	16.349	842.058	630.080
348.562	16.385	840.961	629.337
349.577	16.356	840.466	628.805
350.592	16.415	839.956	628.587
351.606	16.318	839.378	627.736
352.621	16.412	838.504	627.375
353.635	16.362	838.187	626.896
354.650	16.455	837.435	626.625
355.665	16.441	836.920	626.130
356.679	16.535	835.837	625.614
357.694	16.598	835.426	625.485
358.708	16.437	835.193	624.661
359.723	16.361	834.773	624.010
360.738	16.529	833.763	623.818
361.752	16.627	833.014	623.565
362.767	16.576	832.679	623.071
363.781	16.709	832.050	623.034
364.796	16.640	831.584	622.375
365.810	16.825	831.155	622.679
366.825	16.810	831.079	622.511
367.840	16.719	830.336	621.568
368.854	16.725	830.035	621.310
369.869	16.612	829.721	620.603
370.883	16.998	828.763	621.246
371.898	16.821	828.910	620.652
372.913	16.834	828.209	620.121
373.927	16.923	827.599	619.935
374.942	16.928	827.159	619.569
375.956	16.975	826.747	619.379
376.971	17.035	826.177	619.113
377.986	16.982	825.799	618.583
379.000	16.980	825.250	618.110
380.015	17.001	825.008	617.952
381.029	17.007	824.243	617.346
382.044	16.991	824.027	617.070
383.059	17.175	823.209	617.070
384.073	17.091	822.519	616.195
385.088	17.183	822.029	616.107
386.102	17.099	821.344	615.234
387.117	17.069	820.865	614.714
388.132	16.995	820.641	614.221
389.146	17.084	819.959	613.981
390.161	17.234	819.124	613.843
391.175	17.158	819.064	613.466
392.190	17.165	818.341	612.899
393.205	17.004	818.358	612.275
394.219	17.063	817.850	612.055
395.234	17.036	817.257	611.458
396.248	17.204	816.534	611.467
397.263	17.151	816.306	611.053
398.278	17.096	816.004	610.573
399.292	17.182	815.534	610.476
400.307	17.093	815.107	609.783
401.321	17.155	814.586	609.564
402.336	17.134	814.107	609.075
403.350	17.147	813.818	608.851
404.365	17.183	813.449	608.653
405.380	17.299	812.836	608.553
406.394	17.316	812.010	607.944
407.409	17.246	811.669	607.384
408.423	17.452	811.466	607.914
409.438	17.583	810.914	607.914
410.453	17.603	810.556	607.662
411.467	17.479	810.205	606.905
412.482	17.524	809.968	606.832
413.496	17.529	809.479	606.432
414.511	17.506	809.447	606.271
415.526	17.429	808.839	605.487
416.540	17.530	808.347	605.427
417.555	17.533	807.681	604.884
418.569	17.605	807.199	604.724
419.584	17.602	806.783	604.350
420.599	17.629	806.669	604.304
421.613	114.568	1298.400	1490.158
422.628	99.000	1370.005	1490.239
