DTS Sentinel unit serial number:	SN413079Multiplexer serial number:	ORYXHardware model number:	OX4-SRSoftware version number:	ORYX F/W v4.00 Oryx Data Collector v3.7.2.0data status	okinstallation	princeton_trtdifferential loss correction	single-endedforward channel	channel 1reverse channel	N/Adate	2019/09/17time	10:30:35forward acquisition time	60.00reverse acquisition time	0.00gamma	496.2192k internal	0.2323k external	0.2323temperature offset calibration	0.9961default loss term (dB/km)	0.3790temperature slope calibration	1.0000multiplexer offset coefficient	1.0000multiplexer slope coefficient	1.0000fibre end	0.00T internal ref (°C)	30.00T ext. ref 1 (°C)	0.18T ext. ref 2 (°C)	25.58length (m)	temperature (°C)	Stokes	anti-Stokes-747.200	800.000	0.035	-0.118
-746.185	-51.771	0.311	-0.146
-745.171	-72.928	0.249	-0.092
-744.156	-133.009	-0.444	-0.057
-743.142	-36.188	0.179	-0.098
-742.127	45.593	0.257	0.240
-741.112	-200.000	0.072	-0.330
-740.098	-200.000	-0.037	0.173
-739.083	30.265	-0.242	-0.209
-738.069	276.546	0.123	0.221
-737.054	800.000	0.007	-0.024
-736.039	800.000	0.016	-0.073
-735.025	-200.000	0.008	-0.041
-734.010	-200.000	0.037	0.214
-732.996	-81.213	0.064	0.021
-731.981	277.368	0.145	-0.260
-730.966	-30.626	-0.244	0.139
-729.952	-19.852	-0.195	0.121
-728.937	-200.000	0.031	0.177
-727.923	-11.602	-0.035	-0.023
-726.908	-200.000	-0.008	-0.057
-725.894	-124.812	-0.505	-0.079
-724.879	800.000	0.031	0.132
-723.864	-77.695	0.272	-0.095
-722.850	-85.054	-0.312	-0.099
-721.835	800.000	-0.034	-0.108
-720.821	800.000	0.063	-0.228
-719.806	-66.963	-0.228	-0.091
-718.791	-86.210	0.127	-0.040
-717.777	67.867	-0.028	0.029
-716.762	19.774	-0.195	0.158
-715.748	-48.140	-0.151	-0.074
-714.733	-73.396	-0.411	-0.152
-713.718	62.631	-0.195	-0.197
-712.704	-140.988	0.263	-0.027
-711.689	-140.498	-0.260	0.027
-710.675	-200.000	-0.015	0.113
-709.660	-89.209	0.161	-0.048
-708.645	800.000	0.049	0.186
-707.631	-145.766	-0.127	0.011
-706.616	115.929	0.177	0.218
-705.602	-54.260	0.353	-0.162
-704.587	-152.418	0.075	-0.005
-703.572	31.310	-0.377	-0.326
-702.558	-150.606	-0.392	0.030
-701.543	-39.689	0.247	-0.130
-700.529	166.223	-0.098	-0.141
-699.514	-62.787	-0.082	0.034
-698.499	522.971	0.056	0.132
-697.485	-55.420	0.150	0.068
-696.470	800.000	-0.100	-0.355
-695.456	95.838	-0.044	-0.051
-694.441	-113.555	0.283	-0.056
-693.426	-117.035	0.274	0.050
-692.412	105.732	0.153	-0.182
-691.397	58.283	0.220	0.217
-690.383	134.843	0.103	-0.134
-689.368	22.784	-0.199	0.164
-688.354	-26.568	0.482	-0.284
-687.339	-101.070	0.307	0.076
-686.324	800.000	-0.033	0.127
-685.310	193.082	-0.044	-0.067
-684.295	800.000	-0.049	-0.194
-683.281	800.000	0.054	-0.230
-682.266	-98.673	0.151	-0.039
-681.251	-84.387	0.096	0.030
-680.237	-200.000	-0.079	-0.361
-679.222	-178.672	0.115	-0.003
-678.208	-6.614	0.258	-0.177
-677.193	206.039	-0.113	-0.177
-676.178	126.863	0.258	-0.330
-675.164	62.066	0.106	-0.107
-674.149	-200.000	-0.008	-0.201
-673.135	-200.000	0.043	-0.321
-672.120	800.000	0.033	0.141
-671.105	43.833	0.103	-0.095
-670.091	-39.420	0.342	-0.180
-669.076	-127.818	-0.124	-0.018
-668.062	-150.164	0.060	-0.005
-667.047	-58.762	0.441	-0.192
-666.032	-125.310	-0.160	-0.025
-665.018	-172.388	0.158	0.005
-664.003	-200.000	-0.044	0.445
-662.989	14.318	0.061	0.048
-661.974	-63.803	-0.175	0.072
-660.959	-200.000	0.003	0.084
-659.945	152.316	-0.200	0.275
-658.930	-129.576	0.293	-0.041
-657.916	-95.401	-0.156	-0.042
-656.901	27.656	-0.064	-0.054
-655.886	226.967	0.222	-0.363
-654.872	376.351	-0.093	0.192
-653.857	567.921	-0.035	0.086
-652.843	-200.000	0.026	0.396
-651.828	-200.000	0.003	-0.471
-650.814	800.000	0.098	0.276
-649.799	-200.000	-0.031	0.260
-648.784	25.258	0.104	0.087
-647.770	-200.000	0.017	-0.222
-646.755	-33.449	-0.138	-0.077
-645.741	158.545	0.155	0.216
-644.726	-104.249	-0.100	0.023
-643.711	800.000	-0.049	0.197
-642.697	-108.853	0.393	-0.084
-641.682	-92.355	-0.209	-0.059
-640.668	26.962	0.148	0.124
-639.653	-200.000	-0.010	-0.236
-638.638	22.620	-0.082	-0.068
-637.624	150.200	-0.243	-0.332
-636.609	1.496	0.189	0.136
-635.595	-200.000	-0.062	0.293
-634.580	378.045	-0.152	-0.313
-633.565	-115.958	0.178	0.033
-632.551	-200.000	0.036	0.280
-631.536	-116.934	0.376	0.069
-630.522	22.792	0.138	-0.114
-629.507	-64.409	-0.077	0.032
-628.492	-132.254	-0.339	0.044
-627.478	144.110	-0.117	-0.156
-626.463	-200.000	-0.002	0.136
-625.449	800.000	-0.116	0.360
-624.434	53.201	0.227	-0.218
-623.419	192.737	0.161	0.244
-622.405	-145.939	-0.265	-0.024
-621.390	-135.627	-0.328	-0.039
-620.376	-1.721	0.118	-0.084
-619.361	-138.378	0.205	0.023
-618.346	-41.836	-0.194	0.100
-617.332	-117.374	0.063	0.011
-616.317	136.757	0.249	-0.326
-615.303	49.440	0.184	-0.174
-614.288	103.163	-0.138	0.162
-613.273	-109.996	-0.129	0.027
-612.259	-200.000	0.004	-0.248
-611.244	13.188	-0.227	0.177
-610.230	-52.254	0.153	-0.071
-609.215	349.727	0.106	0.209
-608.201	-200.000	0.011	0.132
-607.186	-16.484	-0.142	0.090
-606.171	495.388	0.027	0.062
-605.157	-200.000	-0.006	0.120
-604.142	301.254	0.038	0.070
-603.128	800.000	0.033	-0.112
-602.113	-161.599	-0.170	0.009
-601.098	-113.127	-0.097	0.019
-600.084	131.221	0.097	-0.125
-599.069	472.752	-0.103	-0.232
-598.055	8.494	0.162	-0.122
-597.040	307.247	-0.049	-0.092
-596.025	-200.000	-0.023	-0.137
-595.011	-174.411	-0.434	-0.013
-593.996	-61.415	-0.016	-0.007
-592.982	1.001	-0.095	0.068
-591.967	800.000	-0.076	0.302
-590.952	-122.990	-0.195	0.032
-589.938	266.332	0.103	-0.180
-588.923	203.588	0.077	-0.120
-587.909	-200.000	-0.018	-0.081
-586.894	-200.000	0.001	0.150
-585.879	800.000	-0.122	0.430
-584.865	-144.491	-0.183	-0.017
-583.850	800.000	-0.188	-0.743
-582.836	225.025	0.172	-0.279
-581.821	800.000	-0.081	0.232
-580.806	-10.249	0.140	0.093
-579.792	-47.452	-0.695	-0.339
-578.777	-115.873	-0.156	-0.029
-577.763	221.166	-0.078	-0.125
-576.748	71.082	-0.178	-0.185
-575.733	-89.161	-0.313	-0.093
-574.719	211.115	0.040	0.063
-573.704	23.893	0.271	-0.224
-572.690	111.551	0.123	0.149
-571.675	-200.000	-0.008	0.135
-570.661	-193.764	-0.255	-0.002
-569.646	81.742	0.167	0.181
-568.631	-72.252	0.349	0.130
-567.617	-200.000	0.023	-0.124
-566.602	367.667	0.208	-0.421
-565.588	-124.864	-0.053	0.008
-564.573	800.000	0.090	-0.307
-563.558	-200.000	-0.055	-0.350
-562.544	42.222	0.083	-0.075
-561.529	135.356	-0.181	-0.235
-560.515	800.000	-0.158	-0.461
-559.500	-140.685	0.164	-0.017
-558.485	-174.079	0.215	-0.006
-557.471	-200.000	0.007	0.057
-556.456	73.037	-0.202	-0.212
-555.442	40.144	0.194	-0.174
-554.427	238.829	-0.106	0.176
-553.412	-128.693	0.146	0.021
-552.398	-200.000	-0.025	-0.124
-551.383	257.984	0.147	0.253
-550.369	-145.769	-0.288	0.026
-549.354	788.915	-0.060	0.165
-548.339	47.075	0.076	0.071
-547.325	-109.518	-0.362	-0.077
-546.310	-160.950	-0.218	0.011
-545.296	-62.605	-0.085	-0.035
-544.281	-104.510	0.426	0.099
-543.266	-92.271	0.074	0.021
-542.252	-26.918	-0.270	0.158
-541.237	-200.000	0.005	0.059
-540.223	4.334	-0.155	0.114
-539.208	519.548	-0.020	0.047
-538.193	-67.028	0.127	0.050
-537.179	-200.000	0.025	-0.280
-536.164	-135.916	0.109	-0.013
-535.150	-200.000	-0.039	-0.222
-534.135	543.223	0.059	0.141
-533.121	-143.104	0.158	-0.015
-532.106	-88.636	0.057	-0.017
-531.091	127.566	0.075	-0.095
-530.077	193.672	-0.062	-0.094
-529.062	-127.115	0.240	0.035
-528.048	95.033	-0.400	0.457
-527.033	-200.000	-0.041	0.214
-526.018	392.118	-0.061	0.126
-525.004	86.935	0.021	-0.023
-523.989	-75.705	-0.060	0.021
-522.975	242.564	0.128	0.215
-521.960	-28.814	-0.129	-0.074
-520.945	13.402	-0.302	-0.235
-519.931	-69.413	-0.234	-0.090
-518.916	800.000	-0.031	-0.126
-517.902	-18.839	0.205	0.128
-516.887	-14.188	-0.165	0.106
-515.872	325.946	-0.105	0.201
-514.858	305.045	0.024	0.044
-513.843	-200.000	-0.003	0.049
-512.829	-36.092	0.261	-0.141
-511.814	-34.404	-0.400	0.219
-510.799	800.000	0.023	-0.096
-509.785	-131.387	-0.121	-0.016
-508.770	294.663	-0.095	-0.174
-507.756	-31.932	-0.198	-0.111
-506.741	-200.000	-0.027	-0.316
-505.726	-129.999	0.385	-0.053
-504.712	-107.566	-0.032	0.007
-503.697	19.985	0.075	-0.060
-502.683	800.000	-0.019	-0.065
-501.668	-200.000	0.014	-0.095
-500.653	389.515	0.049	-0.102
-499.639	-200.000	-0.027	0.164
-498.624	-162.141	0.136	0.007
-497.610	24.855	0.159	-0.132
-496.595	-81.533	-0.137	-0.045
-495.581	218.864	-0.213	-0.340
-494.566	-200.000	0.046	-0.213
-493.551	75.158	-0.167	-0.176
-492.537	-118.782	-0.128	0.023
-491.522	49.011	0.313	-0.294
-490.508	-82.629	0.274	-0.089
-489.493	-200.000	0.003	0.167
-488.478	367.779	0.123	0.248
-487.464	-103.399	-0.385	-0.091
-486.449	-106.269	-0.266	0.060
-485.435	-200.000	0.011	0.076
-484.420	-71.964	0.037	-0.014
-483.405	800.000	0.082	0.334
-482.391	-51.503	-0.194	0.091
-481.376	-195.037	-0.028	0.000
-480.362	-123.428	0.138	-0.022
-479.347	158.047	0.115	-0.160
-478.332	-200.000	-0.007	-0.141
-477.318	800.000	-0.037	0.135
-476.303	152.197	0.179	-0.244
-475.289	147.438	-0.132	0.177
-474.274	-64.265	0.329	-0.134
-473.259	-87.536	-0.051	0.015
-472.245	-200.000	-0.069	-0.414
-471.230	-22.712	0.198	-0.120
-470.216	315.021	-0.109	0.205
-469.201	-73.326	0.114	0.042
-468.186	-112.882	0.150	0.030
-467.172	-200.000	-0.008	0.177
-466.157	36.646	0.095	0.084
-465.143	-200.000	-0.036	0.189
-464.128	800.000	-0.079	-0.306
-463.113	-68.533	-0.150	0.058
-462.099	-88.104	0.191	0.057
-461.084	256.039	0.188	-0.322
-460.070	226.346	-0.042	0.068
-459.055	-53.002	0.318	-0.146
-458.040	-115.381	0.280	0.053
-457.026	181.198	-0.106	-0.155
-456.011	138.772	-0.100	0.132
-454.997	-48.564	-0.074	0.036
-453.982	-200.000	0.005	-0.141
-452.968	-200.000	0.025	-0.308
-451.953	130.773	0.201	0.257
-450.938	-200.000	0.036	-0.269
-449.924	471.233	0.065	-0.147
-448.909	-200.000	0.004	-0.107
-447.895	-1.095	0.195	0.138
-446.880	800.000	-0.075	0.324
-445.865	313.259	-0.060	0.113
-444.851	-80.766	0.189	-0.063
-443.836	103.557	-0.157	-0.183
-442.822	-72.295	-0.412	-0.152
-441.807	800.000	-0.055	0.236
-440.792	-10.065	-0.106	-0.070
-439.778	48.123	0.224	-0.209
-438.763	-2.976	0.026	0.018
-437.749	335.888	-0.250	-0.483
-436.734	-109.443	0.296	-0.062
-435.719	166.540	0.204	0.288
-434.705	43.073	-0.169	-0.153
-433.690	-127.070	0.497	-0.073
-432.676	-108.624	-0.258	-0.055
-431.661	64.335	0.097	-0.097
-430.646	-200.000	-0.037	0.245
-429.632	-200.000	-0.021	0.147
-428.617	-200.000	0.075	-0.351
-427.603	-115.489	0.316	0.059
-426.588	-200.000	-0.027	0.118
-425.573	-38.843	0.192	0.101
-424.559	-61.600	0.125	-0.052
-423.544	175.008	-0.073	-0.106
-422.530	-9.159	-0.397	0.265
-421.515	77.692	0.055	-0.058
-420.500	202.991	0.037	-0.056
-419.486	58.977	-0.138	0.135
-418.471	63.850	0.092	-0.093
-417.457	-200.000	0.000	-0.011
-416.442	414.211	-0.052	-0.111
-415.428	-44.079	-0.086	-0.043
-414.413	-200.000	-0.029	0.557
-413.398	65.052	-0.144	-0.145
-412.384	-54.905	-0.168	-0.076
-411.369	800.000	0.042	0.130
-410.355	8.966	0.185	0.140
-409.340	-200.000	-0.005	-0.106
-408.325	-130.180	0.331	-0.045
-407.311	-200.000	-0.024	-0.154
-406.296	-44.294	0.055	0.028
-405.282	87.326	0.106	0.117
-404.267	481.499	-0.107	-0.242
-403.252	133.141	0.064	0.082
-402.238	213.958	-0.219	-0.345
-401.223	-49.789	0.206	-0.098
-400.209	87.728	-0.084	-0.093
-399.194	-89.340	-0.192	-0.056
-398.179	-129.466	0.125	0.017
-397.165	-155.349	-0.351	-0.023
-396.150	-1.900	0.104	0.073
-395.136	-79.062	-0.244	-0.083
-394.121	-44.712	-0.100	0.050
-393.106	-200.000	0.029	0.195
-392.092	168.881	0.199	-0.282
-391.077	-58.946	-0.246	0.106
-390.063	-84.530	-0.065	-0.020
-389.048	-140.077	-0.102	-0.011
-388.033	247.032	0.100	0.168
-387.019	28.378	-0.372	-0.313
-386.004	-184.800	-0.322	0.005
-384.990	458.962	-0.114	-0.253
-383.975	-59.860	-0.131	-0.056
-382.960	431.245	0.011	-0.023
-381.946	-200.000	0.047	0.220
-380.931	-165.836	-0.336	0.014
-379.917	-167.740	-0.537	0.021
-378.902	432.859	-0.065	-0.140
-377.888	-200.000	0.017	-0.162
-376.873	800.000	0.036	-0.109
-375.858	-200.000	0.045	-0.403
-374.844	22.072	0.247	0.201
-373.829	-77.868	0.233	-0.080
-372.815	-200.000	-0.034	0.226
-371.800	-200.000	-0.027	-0.132
-370.785	-200.000	0.001	-0.250
-369.771	-108.757	0.294	0.063
-368.756	-200.000	0.043	0.203
-367.742	-136.515	-0.082	-0.009
-366.727	-200.000	-0.059	-0.374
-365.712	-21.002	-0.036	0.022
-364.698	-136.959	0.356	-0.041
-363.683	189.482	0.138	0.206
-362.669	-90.922	0.186	0.053
-361.654	-200.000	0.032	-0.158
-360.639	99.986	-0.153	0.177
-359.625	-200.000	0.023	0.259
-358.610	594.530	-0.110	0.271
-357.596	81.483	0.071	0.076
-356.581	-200.000	-0.040	0.237
-355.566	-136.975	-0.205	-0.023
-354.552	-121.418	0.052	0.009
-353.537	-90.783	0.233	0.067
-352.523	-120.444	-0.381	0.064
-351.508	-73.974	-0.092	-0.033
-350.493	-200.000	-0.003	0.269
-349.479	166.214	0.025	0.035
-348.464	-38.737	0.158	0.083
-347.450	162.005	-0.095	-0.132
-346.435	52.896	0.151	0.143
-345.420	274.635	-0.184	0.324
-344.406	-121.511	-0.337	0.056
-343.391	788.127	0.081	0.220
-342.377	800.000	-0.043	0.140
-341.362	153.810	-0.074	0.101
-340.348	6.420	0.083	0.061
-339.333	126.863	0.174	0.219
-338.318	800.000	0.031	0.088
-337.304	-200.000	-0.040	0.396
-336.289	-51.945	0.211	0.097
-335.275	-26.646	0.324	-0.188
-334.260	-98.209	0.256	0.065
-333.245	27.755	0.025	-0.021
-332.231	-1.342	0.058	-0.041
-331.216	-73.056	0.270	0.099
-330.202	-105.855	-0.171	0.038
-329.187	-78.102	0.313	-0.107
-328.172	800.000	0.081	0.259
-327.158	167.705	-0.046	-0.064
-326.143	70.604	-0.149	-0.153
-325.129	-200.000	-0.052	-0.252
-324.114	176.559	-0.152	0.220
-323.099	89.654	-0.104	0.115
-322.085	800.000	-0.072	-0.239
-321.070	32.284	-0.153	-0.131
-320.056	-200.000	-0.007	-0.158
-319.041	-98.790	0.291	0.073
-318.026	-200.000	-0.002	0.115
-317.012	108.505	0.091	-0.108
-315.997	169.285	-0.149	0.212
-314.983	-46.406	-0.348	0.170
-313.968	-16.609	-0.242	-0.152
-312.953	-200.000	-0.010	-0.069
-311.939	-76.576	-0.123	-0.043
-310.924	42.333	0.126	-0.114
-309.910	-61.125	0.245	0.103
-308.895	0.666	0.188	0.133
-307.880	-49.440	-0.305	0.145
-306.866	-76.109	-0.100	0.035
-305.851	56.898	-0.037	-0.036
-304.837	-9.317	0.333	-0.221
-303.822	224.451	-0.127	0.204
-302.807	-41.493	-0.290	-0.148
-301.793	-59.865	-0.051	0.022
-300.778	-132.642	-0.139	-0.018
-299.764	-93.054	0.115	0.032
-298.749	-200.000	-0.096	-0.471
-297.735	375.884	0.137	0.277
-296.720	183.599	0.056	-0.082
-295.705	233.948	0.125	0.204
-294.691	292.106	0.035	0.063
-293.676	-200.000	0.017	-0.147
-292.662	208.226	0.046	-0.071
-291.647	539.838	0.116	0.274
-290.632	800.000	0.075	0.206
-289.618	-101.177	0.178	-0.043
-288.603	68.503	-0.094	-0.096
-287.589	-9.249	-0.167	-0.111
-286.574	800.000	0.034	0.105
-285.559	-200.000	0.010	0.073
-284.545	800.000	-0.018	0.071
-283.530	73.332	0.114	-0.119
-282.516	75.027	-0.125	-0.131
-281.501	165.383	0.084	0.118
-280.486	-200.000	0.017	0.145
-279.472	169.494	0.054	0.076
-278.457	12.015	0.197	-0.150
-277.443	151.109	-0.054	0.072
-276.428	41.311	-0.121	-0.108
-275.413	-107.128	-0.170	0.037
-274.399	219.343	-0.054	-0.086
-273.384	-200.000	0.008	0.168
-272.370	800.000	-0.011	-0.032
-271.355	-200.000	-0.004	-0.156
-270.340	434.109	0.213	0.458
-269.326	800.000	0.075	0.210
-268.311	-38.596	-0.202	0.106
-267.297	-60.290	0.181	0.077
-266.282	-128.893	-0.257	0.036
-265.267	74.081	-0.192	0.200
-264.253	361.835	0.074	0.148
-263.238	214.883	0.018	-0.028
-262.224	-1.693	-0.292	-0.204
-261.209	-120.584	0.150	0.025
-260.195	-28.222	0.170	-0.097
-259.180	-14.522	-0.227	0.145
-258.165	186.858	0.080	-0.119
-257.151	-60.134	0.325	0.138
-256.136	97.043	0.154	-0.175
-255.122	-136.122	0.069	0.008
-254.107	800.000	-0.056	-0.243
-253.092	800.000	0.020	-0.077
-252.078	85.690	-0.224	-0.244
-251.063	-112.082	-0.279	-0.056
-250.049	800.000	0.088	0.267
-249.034	293.217	0.053	-0.096
-248.019	-99.041	0.403	-0.101
-247.005	-6.341	-0.086	-0.058
-245.990	-27.387	0.205	-0.118
-244.976	-109.565	-0.148	-0.031
-243.961	800.000	-0.063	-0.201
-242.946	265.508	-0.155	0.267
-241.932	-74.711	0.208	0.074
-240.917	-79.674	0.426	-0.142
-239.903	-121.862	0.303	-0.049
-238.888	-150.912	-0.168	-0.013
-237.873	-7.515	-0.248	0.166
-236.859	-200.000	0.060	0.319
-235.844	375.464	-0.155	0.313
-234.830	752.605	-0.076	-0.204
-233.815	-91.275	0.131	-0.037
-232.800	-200.000	-0.070	-0.474
-231.786	800.000	-0.024	-0.078
-230.771	220.416	0.154	0.245
-229.757	4.347	0.445	0.323
-228.742	-109.531	-0.091	0.019
-227.727	-73.045	0.340	-0.124
-226.713	209.513	-0.008	-0.012
-225.698	-55.731	-0.460	0.203
-224.684	104.516	0.189	-0.221
-223.669	-179.359	0.444	0.010
-222.655	-200.000	-0.019	-0.156
-221.640	-88.504	-0.136	0.040
-220.625	263.285	0.120	0.207
-219.611	49.032	-0.149	0.138
-218.596	-200.000	0.086	0.422
-217.582	-14.251	-0.136	0.087
-216.567	442.988	-0.030	-0.065
-215.552	110.892	-0.231	0.275
-214.538	-57.750	0.287	-0.124
-213.523	-200.000	0.000	0.158
-212.509	655.734	-0.051	0.130
-211.494	-200.000	-0.005	-0.333
-210.479	-66.890	0.253	0.099
-209.465	494.239	0.249	0.565
-208.450	-200.000	0.022	-0.144
-207.436	-140.695	0.243	0.025
-206.421	-149.086	0.090	0.007
-205.406	-171.401	0.322	-0.011
-204.392	-14.178	-0.168	0.107
-203.377	-120.788	-0.102	-0.017
-202.363	220.963	0.035	-0.056
-201.348	800.000	0.110	-0.323
-200.333	-118.542	-0.368	-0.064
-199.319	43.138	-0.229	0.207
-198.304	-106.996	0.476	-0.104
-197.290	-200.000	0.021	-0.153
-196.275	498.213	0.031	-0.070
-195.260	-170.082	0.188	0.007
-194.246	471.060	0.083	-0.185
-193.231	350.221	0.096	-0.187
-192.217	306.763	-0.041	0.075
-191.202	-200.000	0.047	0.219
-190.187	47.054	-0.296	-0.272
-189.173	800.000	-0.091	0.256
-188.158	293.711	-0.121	0.219
-187.144	452.600	0.092	0.201
-186.129	-126.452	-0.062	-0.009
-185.114	-27.559	-0.256	0.147
-184.100	132.465	-0.127	0.162
-183.085	375.583	-0.012	-0.025
-182.071	-200.000	0.009	0.280
-181.056	15.710	0.323	-0.251
-180.042	800.000	-0.086	-0.249
-179.027	-200.000	-0.009	-0.308
-178.012	-83.239	-0.152	-0.048
-176.998	-49.033	-0.100	-0.047
-175.983	12.113	0.096	0.073
-174.969	-46.759	-0.105	-0.051
-173.954	116.177	-0.151	0.182
-172.939	-200.000	-0.011	0.108
-171.925	800.000	0.141	0.424
-170.910	-200.000	0.009	-0.185
-169.896	-200.000	0.013	-0.181
-168.881	-200.000	0.009	0.075
-167.866	800.000	-0.059	-0.223
-166.852	406.118	-0.032	0.067
-165.837	264.143	0.090	-0.155
-164.823	-168.166	0.331	-0.013
-163.808	-138.076	0.134	-0.015
-162.793	-92.881	-0.067	-0.018
-161.779	-152.930	-0.185	0.013
-160.764	800.000	0.050	0.158
-159.750	-200.000	0.060	0.421
-158.735	799.135	0.071	0.193
-157.720	-200.000	0.007	0.076
-156.706	-200.000	-0.014	-0.172
-155.691	139.419	-0.063	0.082
-154.677	800.000	0.090	0.270
-153.662	302.643	-0.194	0.354
-152.647	7.819	0.300	-0.222
-151.633	800.000	-0.043	-0.166
-150.618	-200.000	0.037	-0.291
-149.604	800.000	-0.073	-0.273
-148.589	-157.405	-0.059	0.003
-147.574	-29.752	-0.472	0.265
-146.560	-173.609	0.334	-0.010
-145.545	139.762	0.050	-0.064
-144.531	257.488	0.072	0.123
-143.516	-122.230	-0.165	0.027
-142.502	279.206	0.093	-0.164
-141.487	-200.000	0.083	-0.390
-140.472	-34.525	0.423	-0.228
-139.458	661.767	-0.081	-0.206
-138.443	-200.000	0.071	-0.475
-137.429	-15.991	0.274	0.172
-136.414	800.000	-0.055	-0.180
-135.399	800.000	0.042	-0.124
-134.385	-200.000	-0.021	-0.146
-133.370	-98.213	0.198	0.050
-132.356	4.825	-0.094	0.068
-131.341	161.318	0.033	-0.045
-130.326	-60.712	0.252	0.105
-129.312	59.673	0.210	0.204
-128.297	123.333	-0.014	0.018
-127.283	-74.413	-0.161	-0.057
-126.268	-27.457	0.364	0.208
-125.253	-26.679	-0.272	0.157
-124.239	-49.702	0.083	-0.039
-123.224	-46.258	-0.147	-0.071
-122.210	-49.294	0.278	-0.131
-121.195	-127.230	0.289	0.042
-120.180	-126.286	-0.079	-0.012
-119.166	247.357	0.180	-0.299
-118.151	-5.460	-0.104	-0.070
-117.137	-84.952	-0.301	-0.093
-116.122	417.290	-0.106	0.222
-115.107	800.000	-0.026	0.109
-114.093	125.595	0.242	-0.302
-113.078	-55.574	0.279	-0.123
-112.064	-33.968	-0.339	-0.184
-111.049	414.752	0.182	0.382
-110.034	110.251	-0.069	-0.081
-109.020	-200.000	0.022	-0.427
-108.005	-200.000	0.012	0.052
-106.991	108.244	0.112	0.132
-105.976	-53.523	-0.234	-0.105
-104.962	-37.552	0.147	-0.077
-103.947	-200.000	0.018	0.085
-102.932	-90.162	-0.219	-0.063
-101.918	-55.372	0.162	0.071
-100.903	136.800	-0.163	-0.209
-99.889	-200.000	0.015	0.224
-98.874	22.002	-0.253	-0.203
-97.859	-171.094	0.193	0.006
-96.845	-122.445	0.288	0.046
-95.830	-25.721	-0.100	-0.058
-94.816	-120.086	0.402	0.068
-93.801	-200.000	0.031	-0.295
-92.786	-55.440	-0.248	-0.109
-91.772	105.514	-0.115	0.134
-90.757	-51.423	0.106	-0.049
-89.743	229.983	0.194	0.312
-88.728	-200.000	0.032	-0.245
-87.713	-7.550	0.165	-0.110
-86.699	-200.000	0.043	0.235
-85.684	-61.030	-0.287	-0.119
-84.670	293.113	-0.093	0.168
-83.655	-106.624	0.241	0.053
-82.640	-91.883	0.039	0.011
-81.626	800.000	0.024	-0.082
-80.611	244.414	0.022	0.037
-79.597	26.882	-0.134	0.110
-78.582	-200.000	-0.006	-0.306
-77.567	150.604	-0.061	-0.082
-76.553	26.083	0.284	0.233
-75.538	-190.866	-0.364	0.004
-74.524	82.125	0.121	-0.129
-73.509	-14.049	0.106	-0.067
-72.494	-30.821	0.082	-0.046
-71.480	-200.000	-0.031	0.150
-70.465	-200.000	0.016	0.132
-69.451	115.769	-0.104	-0.125
-68.436	95.070	-0.110	0.123
-67.422	157.493	0.187	-0.254
-66.407	-200.000	0.008	0.224
-65.392	-53.996	0.135	0.061
-64.378	-7.693	-0.193	-0.128
-63.363	-45.203	-0.095	0.047
-62.349	-200.000	0.013	-0.372
-61.334	127.533	-1.034	-1.291
-60.319	-23.203	0.684	0.405
-59.305	-200.000	-0.075	-1.050
-58.290	274.980	0.765	1.333
-57.276	153.660	1.050	1.414
-56.261	-200.000	104.478	568.257
-55.246	453.821	1460.920	3179.408
-54.232	148.390	2647.751	3513.893
-53.217	107.267	2167.232	2532.425
-52.203	41.720	1608.493	1432.532
-51.188	33.543	1343.627	1147.358
-50.173	30.383	1301.881	1093.093
-49.159	53.117	1353.424	1273.427
-48.144	53.964	1369.158	1293.264
-47.130	33.611	1325.444	1132.053
-46.115	30.253	1307.679	1097.022
-45.100	30.052	1302.315	1091.293
-44.086	29.854	1300.585	1088.635
-43.071	29.926	1298.134	1086.965
-42.057	29.865	1296.273	1085.003
-41.042	29.836	1294.371	1083.197
-40.027	29.899	1292.942	1082.327
-39.013	29.892	1290.974	1080.599
-37.998	29.916	1289.113	1079.139
-36.984	29.959	1288.064	1078.468
-35.969	30.018	1285.944	1076.993
-34.954	30.011	1284.260	1075.495
-33.940	30.011	1283.067	1074.459
-32.925	29.931	1281.790	1072.883
-31.911	30.078	1279.799	1072.024
-30.896	30.092	1278.497	1070.972
-29.881	30.137	1277.284	1070.170
-28.867	30.117	1275.800	1068.769
-27.852	30.179	1274.143	1067.698
-26.838	30.218	1272.492	1066.496
-25.823	30.088	1271.784	1065.113
-24.809	30.104	1270.191	1063.829
-23.794	30.049	1269.343	1062.761
-22.779	30.131	1267.519	1061.659
-21.765	30.054	1266.628	1060.434
-20.750	30.105	1265.361	1059.619
-19.736	29.896	1264.273	1057.473
-18.721	29.925	1262.749	1056.323
-17.706	29.990	1261.285	1055.427
-16.692	29.849	1260.012	1053.513
-15.677	29.948	1259.405	1053.532
-14.663	29.844	1258.525	1052.160
-13.648	30.025	1257.011	1051.878
-12.633	29.988	1256.300	1051.033
-11.619	29.910	1255.373	1049.772
-10.604	29.980	1254.437	1049.350
-9.590	29.890	1253.358	1047.895
-8.575	30.018	1251.819	1047.290
-7.560	29.923	1251.336	1046.306
-6.546	29.943	1250.416	1045.608
-5.531	30.016	1249.368	1045.100
-4.517	29.939	1248.818	1044.168
-3.502	30.031	1247.965	1043.932
-2.487	29.912	1247.534	1042.857
-1.473	29.897	1243.591	1039.436
-0.458	28.689	1228.077	1019.723
0.556	23.424	1211.781	982.531
1.571	19.940	1217.278	967.468
2.586	18.973	1231.599	973.294
3.600	18.731	1220.895	963.393
4.615	13.959	1147.519	880.183
5.629	4.931	1071.603	777.035
6.644	0.596	1051.321	741.020
7.659	0.007	1049.931	737.090
8.673	0.107	1048.230	736.320
9.688	0.003	1046.828	734.761
10.702	0.269	1045.220	734.865
11.717	5.747	1052.173	766.534
12.731	14.246	1063.207	816.347
13.746	17.424	1066.678	834.549
14.761	17.005	1065.641	831.613
15.775	16.079	1063.582	825.397
16.790	15.063	1061.353	818.631
17.804	14.361	1059.644	813.811
18.819	13.964	1058.985	811.297
19.834	13.728	1057.917	809.252
20.848	13.520	1057.024	807.486
21.863	13.230	1055.979	805.201
22.877	13.195	1055.308	804.451
23.892	13.147	1054.581	803.589
24.907	13.078	1054.110	802.824
25.921	13.065	1052.645	801.574
26.936	13.118	1052.297	801.495
27.950	13.129	1051.228	800.666
28.965	13.118	1050.365	799.884
29.980	13.302	1049.028	799.684
30.994	13.305	1048.307	799.078
32.009	13.333	1047.131	798.245
33.023	13.341	1045.973	797.332
34.038	13.345	1045.112	796.624
35.053	13.193	1044.182	795.114
36.067	13.276	1043.142	794.651
37.082	13.188	1042.637	793.771
38.096	13.327	1041.938	793.835
39.111	13.259	1041.006	792.728
40.126	13.248	1040.004	791.846
41.140	12.994	1038.748	789.602
42.155	13.078	1037.644	789.096
43.169	13.058	1036.297	787.903
44.184	12.983	1035.783	787.089
45.199	13.084	1034.599	786.597
46.213	13.012	1033.744	785.536
47.228	13.106	1032.841	785.228
48.242	13.097	1031.422	784.038
49.257	13.128	1030.399	783.336
50.271	13.189	1029.387	782.788
51.286	13.291	1028.337	782.403
52.301	13.185	1027.819	781.440
53.315	13.034	1027.327	780.283
54.330	13.106	1025.695	779.312
55.344	13.095	1024.737	778.462
56.359	13.084	1024.200	777.936
57.374	12.950	1023.450	776.667
58.388	13.054	1022.340	776.243
59.403	13.031	1021.681	775.566
60.417	13.077	1020.821	775.059
61.432	13.017	1020.370	774.370
62.447	13.055	1019.326	773.684
63.461	13.008	1018.604	772.851
64.476	12.963	1017.605	771.812
65.490	12.886	1017.162	771.046
66.505	13.027	1016.082	770.820
67.520	12.968	1015.860	770.305
68.534	13.112	1014.472	769.856
69.549	13.059	1013.978	769.169
70.563	13.005	1013.275	768.314
71.578	12.903	1012.796	767.408
72.593	12.930	1011.951	766.825
73.607	13.001	1010.852	766.255
74.622	13.004	1010.549	765.971
75.636	12.851	1010.027	764.800
76.651	12.973	1009.314	764.758
77.666	12.957	1008.535	764.027
78.680	13.019	1007.745	763.646
79.695	12.920	1007.310	762.792
80.709	12.905	1006.982	762.406
81.724	13.018	1005.969	762.095
82.739	13.006	1005.611	761.698
83.753	13.133	1004.662	761.498
84.768	13.226	1003.126	760.697
85.782	13.331	1002.733	760.813
86.797	13.153	1002.001	759.372
87.812	13.038	1001.363	758.293
88.826	13.155	1000.040	757.762
89.841	13.229	998.997	757.243
90.855	13.215	998.354	756.625
91.870	13.209	997.434	755.834
92.884	13.399	996.399	755.851
93.899	13.251	995.904	754.733
94.914	13.289	994.980	754.138
95.928	13.410	994.204	754.034
96.943	13.380	993.243	753.102
97.957	13.276	992.610	752.083
98.972	13.195	991.836	751.062
99.987	13.222	991.270	750.690
101.001	13.237	989.988	749.719
102.016	13.292	988.936	749.105
103.030	13.233	988.063	748.110
104.045	13.310	987.354	747.858
105.060	13.296	986.620	747.169
106.074	13.066	986.162	745.717
107.089	13.110	984.717	744.760
108.103	13.127	983.897	744.149
109.118	13.042	983.135	743.122
110.133	13.122	981.993	742.554
111.147	13.094	981.182	741.750
112.162	13.184	980.249	741.383
113.176	13.039	980.174	740.610
114.191	13.191	979.317	740.578
115.206	13.111	978.542	739.571
116.220	13.166	977.863	739.235
117.235	13.268	976.550	738.636
118.249	13.143	975.710	737.374
119.264	13.183	974.757	736.768
120.279	13.200	974.136	736.308
121.293	13.177	973.372	735.566
122.308	13.139	972.593	734.740
123.322	13.046	971.365	733.334
124.337	13.115	970.439	732.877
125.352	13.072	969.580	731.973
126.366	13.119	968.531	731.324
127.381	13.135	967.618	730.645
128.395	13.018	966.936	729.547
129.410	13.147	965.866	729.245
130.424	13.272	964.595	728.769
131.439	13.222	964.144	728.144
132.454	13.283	963.679	727.999
133.468	13.228	962.579	726.861
134.483	13.248	961.958	726.416
135.497	13.134	961.072	725.183
136.512	13.215	960.198	724.814
137.527	13.246	959.182	724.117
138.541	13.328	958.277	723.730
139.556	13.347	957.581	723.225
140.570	13.203	957.594	722.539
141.585	13.441	956.214	722.473
142.600	13.353	955.443	721.443
143.614	13.371	954.739	720.927
144.629	13.458	953.756	720.500
145.643	13.538	952.558	719.876
146.658	13.283	952.107	718.363
147.673	13.405	950.896	717.916
148.687	13.306	950.204	716.904
149.702	13.258	949.325	715.967
150.716	13.255	949.020	715.659
151.731	13.375	947.787	715.189
152.746	13.339	947.106	714.453
153.760	13.220	947.134	713.896
154.775	13.303	946.310	713.571
155.789	13.473	945.508	713.636
156.804	13.485	944.628	712.961
157.819	13.401	944.234	712.240
158.833	13.495	943.292	711.870
159.848	13.443	942.706	711.142
160.862	13.460	941.539	710.269
161.877	13.524	940.675	709.829
162.892	13.510	939.543	708.853
163.906	13.377	938.631	707.535
164.921	13.492	938.047	707.524
165.935	13.485	937.155	706.759
166.950	13.485	936.229	705.998
167.964	13.399	935.482	705.006
168.979	13.382	934.365	704.029
169.994	13.404	933.759	703.604
171.008	13.448	933.321	703.396
172.023	13.594	932.219	703.123
173.037	13.503	931.915	702.448
174.052	13.611	931.184	702.291
175.067	13.545	930.631	701.531
176.081	13.512	929.891	700.775
177.096	13.541	929.368	700.440
178.110	13.516	928.705	699.771
179.125	13.608	928.265	699.766
180.140	13.565	927.715	699.109
181.154	13.589	927.117	698.697
182.169	13.544	926.958	698.325
183.183	13.746	925.952	698.357
184.198	13.822	925.366	698.172
185.213	13.760	924.332	697.070
186.227	13.822	923.647	696.754
187.242	13.842	923.325	696.531
188.256	13.910	922.418	696.071
189.271	13.949	921.387	695.394
190.286	13.638	920.883	693.652
191.300	13.683	920.407	693.421
192.315	13.500	920.204	692.441
193.329	13.533	919.688	692.129
194.344	13.672	918.711	691.911
195.359	13.694	918.219	691.574
196.373	13.731	917.533	691.148
197.388	13.849	917.292	691.397
198.402	13.908	916.261	690.804
199.417	13.875	916.253	690.601
200.432	14.111	915.404	690.879
201.446	14.095	914.704	690.226
202.461	14.015	914.505	689.681
203.475	14.031	913.846	689.190
204.490	13.891	913.221	688.077
205.504	13.992	912.232	687.687
206.519	13.993	911.322	686.947
207.534	14.036	910.386	686.355
208.548	13.994	910.121	685.923
209.563	13.977	909.380	685.236
210.577	14.021	908.360	684.587
211.592	14.020	908.058	684.293
212.607	14.119	907.363	684.117
213.621	14.173	906.761	683.823
214.636	14.090	905.961	682.819
215.650	14.177	904.764	682.215
216.665	14.135	904.636	681.886
217.680	14.182	903.975	681.520
218.694	14.229	903.433	681.241
219.709	14.292	902.715	680.897
220.723	14.350	901.675	680.293
221.738	14.205	901.168	679.256
222.753	14.260	900.490	678.909
223.767	14.248	899.860	678.324
224.782	14.334	899.484	678.332
225.796	14.352	898.967	677.954
226.811	14.350	898.065	677.207
227.826	14.242	897.612	676.366
228.840	14.368	896.571	676.032
229.855	14.331	895.870	675.297
230.869	14.373	895.043	674.783
231.884	14.322	894.692	674.250
232.899	14.372	893.650	673.610
233.913	14.372	892.881	672.968
234.928	14.314	892.668	672.516
235.942	14.338	892.319	672.290
236.957	14.464	891.326	671.990
237.972	14.422	890.496	671.137
238.986	14.294	890.270	670.391
240.001	14.332	890.093	670.350
241.015	14.450	888.918	669.881
242.030	14.422	888.476	669.375
243.045	14.434	888.193	669.152
244.059	14.430	887.440	668.510
245.074	14.498	886.520	668.028
246.088	14.453	886.316	667.638
247.103	14.520	885.320	667.096
248.117	14.664	884.941	667.325
249.132	14.712	884.299	666.974
250.147	14.706	883.658	666.409
251.161	14.828	883.126	666.437
252.176	14.628	882.603	665.185
253.190	14.676	882.046	664.895
254.205	14.857	881.052	664.810
255.220	14.857	880.214	664.116
256.234	14.902	879.523	663.715
257.249	14.918	879.063	663.375
258.263	14.954	878.141	662.760
259.278	14.840	877.664	661.892
260.293	14.870	877.249	661.640
261.307	14.959	876.824	661.612
262.322	14.960	875.799	660.785
263.336	15.083	874.774	660.436
264.351	15.004	874.465	659.834
265.366	15.036	873.846	659.433
266.380	15.140	873.498	659.524
267.395	15.195	872.159	658.671
268.409	15.032	871.959	657.820
269.424	15.165	870.695	657.332
270.439	14.994	870.537	656.483
271.453	15.072	869.943	656.281
272.468	15.053	869.476	655.799
273.482	15.027	868.950	655.241
274.497	15.133	867.835	654.756
275.512	15.074	867.819	654.455
276.526	15.093	867.069	653.905
277.541	15.103	866.810	653.692
278.555	15.149	866.076	653.262
279.570	15.293	864.941	652.909
280.585	15.277	864.711	652.611
281.599	15.125	863.933	651.377
282.614	15.146	863.349	650.962
283.628	15.318	862.436	650.882
284.643	15.117	862.330	649.965
285.657	15.262	861.423	649.788
286.672	15.498	860.435	649.896
287.687	15.248	860.079	648.601
288.701	15.384	859.571	648.687
289.716	15.342	859.193	648.185
290.730	15.273	858.665	647.461
291.745	15.397	857.510	647.013
292.760	15.276	857.562	646.527
293.774	15.466	856.837	646.655
294.789	15.465	855.964	645.936
295.803	15.270	855.400	644.702
296.818	15.430	854.492	644.574
297.833	15.399	854.220	644.193
298.847	15.453	853.358	643.695
299.862	15.346	853.413	643.269
300.876	15.631	851.879	643.145
301.891	15.469	852.051	642.598
302.906	15.646	851.322	642.671
303.920	15.547	850.670	641.743
304.935	15.741	850.326	642.167
305.949	15.626	849.722	641.213
306.964	15.658	848.784	640.571
307.979	15.630	848.012	639.826
308.993	15.721	847.638	639.832
310.008	15.736	847.059	639.396
311.022	15.739	846.707	639.085
312.037	15.547	846.226	637.938
313.052	15.608	845.468	637.542
314.066	15.773	844.854	637.648
315.081	15.597	844.201	636.430
316.095	15.664	843.668	636.226
317.110	15.754	842.727	635.801
318.125	15.653	842.770	635.395
319.139	15.770	842.348	635.462
320.154	15.762	841.858	635.008
321.168	15.845	841.436	634.946
322.183	15.811	840.663	634.176
323.197	15.716	840.306	633.495
324.212	15.835	839.385	633.191
325.227	15.778	838.884	632.545
326.241	15.862	838.445	632.472
327.256	15.820	837.827	631.794
328.270	15.913	837.317	631.699
329.285	15.781	836.586	630.600
330.300	15.877	835.876	630.366
331.314	15.730	835.959	629.823
332.329	15.905	835.455	630.043
333.343	15.991	834.757	629.784
334.358	15.836	834.378	628.860
335.373	15.939	833.920	628.844
336.387	16.018	833.324	628.636
337.402	15.954	833.128	628.192
338.416	16.171	832.814	628.711
339.431	16.101	832.245	627.964
340.446	16.208	831.958	628.088
341.460	16.031	831.682	627.166
342.475	16.143	831.114	627.098
343.489	16.196	831.007	627.160
344.504	16.151	830.329	626.427
345.519	16.311	829.860	626.610
346.533	16.218	829.496	625.934
347.548	16.246	828.962	625.579
348.562	16.205	828.226	624.819
349.577	16.132	827.917	624.259
350.592	16.221	826.907	623.771
351.606	16.192	826.249	623.113
352.621	16.053	826.141	622.464
353.635	16.294	824.970	622.415
354.650	16.313	824.237	621.878
355.665	16.168	823.907	621.037
356.679	16.320	823.116	620.945
357.694	16.521	822.232	620.964
358.708	16.506	821.314	620.161
359.723	16.454	821.108	619.758
360.738	16.324	820.734	618.944
361.752	16.262	820.384	618.399
362.767	16.423	819.524	618.284
363.781	16.611	819.221	618.687
364.796	16.604	818.516	618.076
365.810	16.520	818.830	617.952
366.825	16.549	818.169	617.505
367.840	16.632	817.684	617.386
368.854	16.506	817.129	616.455
369.869	16.717	816.418	616.633
370.883	16.651	816.398	616.321
371.898	16.640	815.825	615.794
372.913	16.504	815.641	615.107
373.927	16.611	814.867	614.856
374.942	16.850	814.543	615.427
375.956	16.821	813.784	614.692
376.971	16.811	813.766	614.588
377.986	16.826	813.184	614.147
379.000	16.850	812.440	613.620
380.015	16.806	812.441	613.405
381.029	16.892	811.698	613.102
382.044	17.001	810.827	612.782
383.059	16.870	810.576	612.066
384.073	16.848	809.982	611.485
385.088	16.700	809.570	610.584
386.102	16.832	808.954	610.544
387.117	16.795	808.668	610.139
388.132	16.903	807.771	609.796
389.146	16.887	807.442	609.439
390.161	16.934	806.909	609.149
391.175	16.870	806.448	608.517
392.190	16.986	805.892	608.460
393.205	17.015	805.380	608.126
394.219	16.893	805.246	607.534
395.234	16.958	804.967	607.500
396.248	16.976	804.020	606.796
397.263	17.072	803.605	606.775
398.278	16.836	803.597	605.870
399.292	16.957	802.822	605.665
400.307	16.780	802.471	604.715
401.321	16.944	801.818	604.752
402.336	17.104	801.269	604.855
403.350	17.018	801.093	604.362
404.365	17.203	800.425	604.463
405.380	17.171	800.232	604.151
406.394	17.205	799.368	603.564
407.409	17.249	799.217	603.556
408.423	17.216	798.902	603.146
409.438	17.315	798.456	603.106
410.453	17.390	797.770	602.801
411.467	17.317	797.512	602.296
412.482	17.359	797.271	602.208
413.496	17.276	797.091	601.727
414.511	17.296	796.471	601.276
415.526	17.296	796.218	601.032
416.540	17.350	795.622	600.716
417.555	17.457	795.162	600.697
418.569	17.189	794.692	599.340
419.584	17.369	794.517	599.792
420.599	17.400	793.930	599.406
421.613	108.819	1290.349	1465.975
422.628	93.475	1362.663	1466.073
