DTS Sentinel unit serial number:	SN413079Multiplexer serial number:	ORYXHardware model number:	OX4-SRSoftware version number:	ORYX F/W v4.00 Oryx Data Collector v3.7.2.0data status	okinstallation	princeton_trtdifferential loss correction	single-endedforward channel	channel 1reverse channel	N/Adate	2019/09/11time	03:08:11forward acquisition time	60.00reverse acquisition time	0.00gamma	496.2192k internal	0.2331k external	0.2331temperature offset calibration	0.9927default loss term (dB/km)	0.3790temperature slope calibration	1.0000multiplexer offset coefficient	1.0000multiplexer slope coefficient	1.0000fibre end	0.00T internal ref (°C)	29.31T ext. ref 1 (°C)	-0.30T ext. ref 2 (°C)	23.95length (m)	temperature (°C)	Stokes	anti-Stokes-747.200	-200.000	-0.004	-0.105
-746.185	-106.265	-0.212	-0.048
-745.171	-137.998	0.376	-0.042
-744.156	260.318	-0.057	0.099
-743.142	169.842	0.079	-0.114
-742.127	-178.128	-0.292	-0.007
-741.112	800.000	-0.038	0.153
-740.098	-200.000	-0.004	0.177
-739.083	-65.576	-0.159	0.064
-738.069	488.547	-0.055	0.126
-737.054	-28.522	-0.046	-0.026
-736.039	32.901	0.169	0.147
-735.025	-200.000	0.043	0.293
-734.010	93.460	-0.134	-0.152
-732.996	169.315	0.116	0.167
-731.981	-200.000	0.018	-0.345
-730.966	-200.000	0.006	-0.158
-729.952	353.347	0.147	0.294
-728.937	-79.357	-0.200	-0.068
-727.923	46.648	-0.078	0.072
-726.908	50.847	0.126	-0.120
-725.894	142.436	0.146	0.195
-724.879	-192.934	-0.149	0.001
-723.864	43.713	0.173	0.159
-722.850	366.665	-0.138	0.280
-721.835	135.986	-0.234	0.307
-720.821	273.443	-0.132	-0.234
-719.806	-200.000	-0.038	-0.370
-718.791	-95.054	-0.297	-0.081
-717.777	73.728	-0.136	-0.143
-716.762	-177.437	-0.252	-0.006
-715.748	-112.116	-0.255	-0.051
-714.733	-75.984	0.145	0.052
-713.718	128.430	0.147	0.189
-712.704	-73.220	-0.362	-0.133
-711.689	-200.000	0.001	-0.534
-710.675	-200.000	0.007	-0.104
-709.660	800.000	0.069	0.240
-708.645	86.223	-0.186	0.206
-707.631	-28.719	-0.197	0.114
-706.616	220.614	0.015	-0.025
-705.602	-15.532	0.325	0.209
-704.587	-44.203	0.075	0.038
-703.572	-85.048	-0.196	-0.062
-702.558	12.655	-0.186	0.144
-701.543	41.690	0.247	-0.225
-700.529	-200.000	0.015	-0.145
-699.514	56.237	-0.233	-0.227
-698.499	376.947	-0.124	-0.255
-697.485	-116.715	-0.097	-0.018
-696.470	211.976	-0.107	-0.169
-695.456	800.000	0.007	0.028
-694.441	-81.848	0.369	-0.121
-693.426	382.487	-0.095	-0.195
-692.412	-101.526	0.281	0.069
-691.397	-132.578	-0.012	-0.002
-690.383	291.474	-0.049	0.090
-689.368	-94.636	-0.200	0.054
-688.354	10.301	-0.172	0.131
-687.339	-138.240	-0.127	-0.014
-686.324	-72.287	0.035	0.013
-685.310	-124.189	-0.410	0.064
-684.295	179.167	-0.060	0.088
-683.281	-80.069	0.511	-0.172
-682.266	522.730	0.075	0.176
-681.251	800.000	-0.025	0.093
-680.237	47.643	0.152	-0.143
-679.222	-200.000	-0.007	0.146
-678.208	-121.940	-0.139	0.023
-677.193	164.451	0.141	0.199
-676.178	688.998	0.116	-0.305
-675.164	-27.469	-0.216	0.126
-674.149	791.801	-0.093	-0.258
-673.135	-104.373	-0.096	-0.022
-672.120	-14.007	0.108	0.070
-671.105	43.812	0.183	-0.168
-670.091	-50.468	-0.198	0.094
-669.076	420.729	-0.044	0.094
-668.062	-200.000	-0.021	-0.111
-667.047	-53.350	-0.204	0.094
-666.032	-82.005	0.124	0.041
-665.018	-91.021	-0.151	-0.043
-664.003	0.797	-0.097	0.070
-662.989	-150.712	-0.046	-0.004
-661.974	-82.753	-0.236	0.076
-660.959	49.372	0.187	-0.177
-659.945	-177.794	0.141	-0.003
-658.930	418.202	-0.082	-0.175
-657.916	-200.000	-0.001	-0.063
-656.901	237.682	-0.042	0.069
-655.886	800.000	0.057	0.232
-654.872	800.000	0.049	-0.173
-653.857	-46.013	-0.302	-0.149
-652.843	-116.900	0.234	-0.043
-651.828	-45.997	0.105	0.052
-650.814	59.333	0.136	-0.134
-649.799	-75.367	0.148	0.053
-648.784	77.625	0.042	0.045
-647.770	273.702	-0.088	-0.156
-646.755	-200.000	-0.024	-0.264
-645.741	-30.446	-0.077	0.044
-644.726	-200.000	0.009	0.057
-643.711	179.685	0.039	-0.057
-642.697	-200.000	-0.003	0.090
-641.682	-200.000	-0.027	0.167
-640.668	-30.869	0.231	-0.131
-639.653	-200.000	-0.008	0.100
-638.638	-128.224	0.306	0.044
-637.624	-100.373	-0.125	-0.031
-636.609	-200.000	0.005	-0.253
-635.595	273.032	0.159	0.281
-634.580	416.431	-0.058	0.123
-633.565	42.451	-0.185	-0.169
-632.551	345.218	0.039	-0.077
-631.536	-97.004	-0.097	0.026
-630.522	-118.498	-0.286	-0.051
-629.507	-182.914	0.305	-0.005
-628.492	192.474	0.160	0.242
-627.478	-200.000	0.020	0.131
-626.463	800.000	0.097	-0.311
-625.449	-200.000	0.009	-0.221
-624.434	97.157	-0.128	-0.147
-623.419	-38.252	-0.076	0.040
-622.405	-178.146	0.363	-0.009
-621.390	-67.588	0.649	-0.255
-620.376	-30.803	-0.327	-0.185
-619.361	42.251	-0.360	0.327
-618.346	-92.353	-0.051	-0.015
-617.332	-200.000	-0.004	-0.158
-616.317	-54.770	0.346	0.156
-615.303	-200.000	-0.015	0.286
-614.288	108.065	0.174	-0.207
-613.273	101.215	0.052	0.061
-612.259	800.000	0.087	-0.275
-611.244	-135.539	0.187	-0.022
-610.230	-4.905	-0.237	-0.164
-609.215	-200.000	-0.064	-0.300
-608.201	-100.644	0.351	-0.087
-607.186	800.000	0.024	-0.103
-606.171	800.000	0.092	0.265
-605.157	-99.730	0.159	-0.040
-604.142	6.107	0.059	-0.044
-603.128	311.806	0.040	0.076
-602.113	-17.469	-0.234	0.147
-601.098	-127.859	0.163	0.023
-600.084	402.352	0.145	-0.304
-599.069	800.000	0.135	0.433
-598.055	459.573	0.008	-0.018
-597.040	90.549	0.101	0.113
-596.025	800.000	-0.033	0.108
-595.011	-52.541	0.223	-0.103
-593.996	-200.000	0.015	-0.228
-592.982	-105.807	-0.264	-0.060
-591.967	102.249	-0.026	0.030
-590.952	631.251	0.025	-0.064
-589.938	-108.967	0.082	-0.017
-588.923	-170.334	-0.009	0.000
-587.909	800.000	-0.053	-0.195
-586.894	-133.373	-0.137	-0.017
-585.879	18.682	-0.217	-0.174
-584.865	-69.383	-0.150	-0.058
-583.850	-35.048	0.142	-0.077
-582.836	6.759	-0.295	-0.219
-581.821	-172.403	-0.251	-0.008
-580.806	66.143	0.167	-0.169
-579.792	800.000	-0.102	-0.299
-578.777	-69.838	0.462	-0.176
-577.763	-200.000	-0.005	-0.103
-576.748	800.000	-0.085	-0.270
-575.733	-113.093	-0.085	-0.017
-574.719	-39.180	0.028	-0.015
-573.704	2.513	0.271	-0.196
-572.690	134.499	0.161	0.208
-571.675	-200.000	-0.014	0.078
-570.661	26.167	-0.140	0.116
-569.646	67.967	-0.053	-0.054
-568.631	800.000	-0.088	-0.383
-567.617	-174.202	0.149	0.004
-566.602	-93.746	-0.203	0.056
-565.588	36.861	-0.089	-0.079
-564.573	-98.273	-0.270	-0.069
-563.558	-108.012	0.109	-0.024
-562.544	-53.571	0.487	0.223
-561.529	-200.000	0.019	0.133
-560.515	-84.571	0.320	0.101
-559.500	-135.348	-0.116	0.014
-558.485	-98.092	-0.285	-0.073
-557.471	59.931	-0.045	-0.044
-556.456	209.750	0.175	-0.274
-555.442	-5.678	0.271	0.186
-554.427	56.946	-0.205	0.199
-553.412	-200.000	-0.055	-0.266
-552.398	7.605	-0.234	-0.175
-551.383	24.542	0.214	0.177
-550.369	-60.624	-0.034	0.014
-549.354	0.296	-0.229	-0.163
-548.339	-200.000	0.004	0.062
-547.325	415.506	0.011	-0.023
-546.310	645.321	-0.062	0.159
-545.296	-76.578	0.073	0.026
-544.281	-99.391	0.075	0.019
-543.266	75.042	0.142	-0.149
-542.252	231.530	0.182	-0.298
-541.237	-50.275	-0.295	-0.139
-540.223	58.032	-0.152	-0.149
-539.208	129.893	-0.092	-0.118
-538.193	-100.802	-0.254	-0.062
-537.179	-17.738	-0.184	-0.115
-536.164	-50.850	-0.173	0.081
-535.150	800.000	0.037	0.108
-534.135	800.000	0.103	0.446
-533.121	-200.000	0.005	0.078
-532.106	-145.475	-0.255	0.023
-531.091	58.032	-0.102	0.100
-530.077	-96.355	-0.207	-0.055
-529.062	341.261	-0.113	0.221
-528.048	103.486	-0.075	-0.088
-527.033	122.449	-0.175	0.218
-526.018	134.361	-0.184	-0.238
-525.004	-38.406	0.317	0.167
-523.989	103.311	-0.269	-0.315
-522.975	-13.795	-0.081	-0.052
-521.960	4.154	-0.197	0.144
-520.945	-98.967	-0.290	-0.073
-519.931	-36.249	-0.264	0.142
-518.916	143.063	-0.140	-0.186
-517.902	-115.740	-0.318	-0.059
-516.887	-6.133	0.138	-0.094
-515.872	-65.750	-0.201	-0.080
-514.858	-200.000	0.041	-0.316
-513.843	-60.975	0.444	-0.187
-512.829	38.143	0.190	-0.169
-511.814	-167.986	-0.134	0.005
-510.799	-8.872	-0.147	-0.098
-509.785	628.246	-0.031	0.078
-508.770	125.753	-0.082	0.103
-507.756	-125.522	0.194	0.029
-506.741	286.186	-0.114	0.205
-505.726	-200.000	-0.033	-0.169
-504.712	800.000	0.005	-0.016
-503.697	77.787	-0.122	-0.130
-502.683	-56.169	-0.311	0.138
-501.668	-90.213	-0.184	0.053
-500.653	-9.274	0.146	0.097
-499.639	-200.000	-0.018	-0.102
-498.624	242.594	0.206	-0.344
-497.610	19.140	-0.346	0.277
-496.595	620.686	-0.074	-0.184
-495.581	613.156	0.077	0.191
-494.566	-99.586	-0.169	-0.042
-493.551	38.913	0.176	-0.157
-492.537	206.396	0.236	0.366
-491.522	386.523	0.169	-0.347
-490.508	-200.000	-0.000	0.013
-489.493	-109.586	-0.178	-0.037
-488.478	-200.000	0.035	0.208
-487.464	94.211	0.021	-0.024
-486.449	97.538	-0.201	0.230
-485.435	-33.647	-0.057	0.031
-484.420	-200.000	-0.006	0.150
-483.405	342.613	-0.037	0.072
-482.391	-200.000	-0.005	0.023
-481.376	-70.784	-0.131	-0.049
-480.362	-200.000	-0.022	-0.373
-479.347	26.551	-0.219	0.182
-478.332	-148.598	-0.137	0.011
-477.318	-200.000	0.010	0.341
-476.303	-200.000	0.014	-0.167
-475.289	39.584	-0.037	-0.033
-474.274	54.761	0.054	-0.052
-473.259	100.261	-0.200	-0.231
-472.245	20.915	-0.061	0.049
-471.230	2.258	0.158	-0.114
-470.216	800.000	-0.123	0.456
-469.201	236.273	0.196	0.323
-468.186	-159.111	0.179	-0.010
-467.172	-157.320	0.387	-0.023
-466.157	196.880	-0.029	0.044
-465.143	-94.011	0.106	-0.029
-464.128	-98.300	-0.170	-0.043
-463.113	-78.575	-0.129	0.044
-462.099	148.932	-0.139	0.187
-461.084	31.577	0.216	0.185
-460.070	499.832	0.108	0.248
-459.055	-169.950	0.221	0.008
-458.040	194.920	-0.013	0.019
-457.026	-102.069	-0.146	-0.035
-456.011	293.674	0.034	-0.061
-454.997	464.612	0.114	-0.255
-453.982	-175.112	0.182	-0.005
-452.968	679.850	-0.036	0.092
-451.953	57.384	0.069	-0.067
-450.938	51.694	-0.076	0.072
-449.924	-186.648	0.255	0.004
-448.909	-200.000	0.330	-0.001
-447.895	242.163	0.180	0.299
-446.880	97.562	-0.158	-0.181
-445.865	331.935	-0.173	-0.331
-444.851	800.000	0.062	0.259
-443.836	-174.483	-0.108	-0.003
-442.822	-1.505	-0.220	-0.154
-441.807	116.946	0.187	0.228
-440.792	-27.816	-0.073	0.042
-439.778	-200.000	-0.001	-0.274
-438.763	-187.082	-0.110	0.001
-437.749	151.336	0.159	-0.215
-436.734	-91.592	-0.371	-0.105
-435.719	-200.000	0.007	-0.103
-434.705	800.000	-0.039	-0.144
-433.690	-44.993	0.022	-0.011
-432.676	-50.844	-0.281	0.131
-431.661	54.815	-0.115	0.111
-430.646	-114.976	0.143	-0.027
-429.632	80.581	0.220	0.235
-428.617	432.100	0.174	-0.375
-427.603	-200.000	-0.022	0.202
-426.588	95.585	-0.207	0.234
-425.573	224.424	0.116	0.187
-424.559	-186.970	-0.185	0.003
-423.544	-200.000	-0.060	0.314
-422.530	-130.319	-0.136	0.018
-421.515	110.274	0.123	0.146
-420.500	-200.000	0.029	0.331
-419.486	-200.000	0.034	-0.385
-418.471	4.261	-0.217	0.158
-417.457	215.904	-0.129	0.203
-416.442	-200.000	-0.045	0.354
-415.428	800.000	0.061	-0.233
-414.413	800.000	0.033	0.099
-413.398	800.000	-0.036	0.123
-412.384	-58.279	-0.365	-0.158
-411.369	49.552	-0.194	0.181
-410.355	59.268	-0.121	-0.119
-409.340	10.564	0.020	-0.015
-408.325	-200.000	0.039	-0.199
-407.311	-56.896	0.090	0.040
-406.296	-125.781	0.440	0.066
-405.282	-200.000	0.041	0.233
-404.267	-47.997	-0.220	0.106
-403.252	-1.880	0.285	-0.199
-402.238	154.975	-0.041	-0.056
-401.223	-84.711	0.087	-0.027
-400.209	-200.000	-0.012	-0.061
-399.194	-34.512	-0.196	-0.107
-398.179	-96.161	0.181	0.048
-397.165	-200.000	0.062	0.499
-396.150	371.732	-0.074	0.149
-395.136	102.341	0.203	0.236
-394.121	176.095	-0.073	0.106
-393.106	177.088	-0.062	0.089
-392.092	-159.029	-0.187	-0.011
-391.077	191.704	-0.031	-0.047
-390.063	800.000	-0.031	0.127
-389.048	-149.934	-0.388	-0.030
-388.033	148.628	0.143	0.192
-387.019	121.217	-0.272	0.336
-386.004	102.869	0.220	-0.255
-384.990	-65.690	0.240	-0.096
-383.975	-4.696	-0.077	-0.053
-382.960	-95.076	0.049	0.013
-381.946	258.118	0.203	0.346
-380.931	-57.199	-0.139	0.061
-379.917	93.194	-0.105	-0.118
-378.902	-30.600	0.247	0.139
-377.888	332.461	0.106	0.203
-376.873	-56.543	-0.041	0.018
-375.858	125.182	0.130	-0.163
-374.844	-76.746	0.321	-0.112
-373.829	-200.000	0.015	-0.108
-372.815	17.484	0.188	0.148
-371.800	-200.000	-0.001	-0.248
-370.785	-27.577	-0.174	0.100
-369.771	-92.211	-0.145	0.041
-368.756	-49.617	-0.189	0.089
-367.742	-32.817	-0.143	0.079
-366.727	-91.633	-0.430	0.121
-365.712	99.807	-0.069	0.080
-364.698	788.854	-0.077	-0.211
-363.683	145.563	-0.074	0.099
-362.669	195.327	-0.179	0.270
-361.654	-39.552	0.184	-0.096
-360.639	-92.200	0.043	0.012
-359.625	799.896	-0.037	0.100
-358.610	-82.688	-0.251	-0.081
-357.596	235.464	-0.134	0.219
-356.581	751.674	-0.089	0.237
-355.566	21.459	0.085	-0.069
-354.552	-174.830	-0.339	-0.009
-353.537	28.852	-0.239	0.200
-352.523	-200.000	0.030	0.159
-351.508	-141.021	0.219	0.022
-350.493	-111.636	-0.166	0.033
-349.479	-100.654	-0.502	-0.123
-348.464	-200.000	0.009	0.245
-347.450	-112.335	-0.376	0.075
-346.435	-130.481	0.286	-0.038
-345.420	-200.000	0.024	-0.197
-344.406	800.000	0.042	-0.118
-343.391	285.954	-0.117	-0.210
-342.377	587.637	0.106	0.258
-341.362	-87.964	-0.178	-0.053
-340.348	-186.375	0.300	-0.004
-339.333	88.216	0.125	0.138
-338.318	-122.747	-0.488	-0.078
-337.304	154.279	0.222	0.302
-336.289	106.551	0.293	0.345
-335.275	21.291	0.172	0.139
-334.260	-3.878	0.157	-0.108
-333.245	373.867	0.214	0.430
-332.231	509.198	-0.019	0.044
-331.216	-17.802	-0.259	0.161
-330.202	148.336	0.208	0.277
-329.187	-9.883	0.017	-0.011
-328.172	-42.755	-0.213	-0.107
-327.158	-81.671	0.232	-0.076
-326.143	-133.088	-0.137	0.017
-325.129	-23.394	-0.348	-0.207
-324.114	115.956	0.023	0.028
-323.099	-41.285	-0.271	0.138
-322.085	391.786	0.327	0.672
-321.070	-200.000	-0.038	-0.196
-320.056	11.862	-0.246	-0.187
-319.041	-200.000	0.007	-0.161
-318.026	-141.899	0.111	0.011
-317.012	800.000	-0.059	-0.174
-315.997	5.195	-0.232	-0.169
-314.983	-179.988	0.261	0.006
-313.968	-200.000	-0.032	0.292
-312.953	33.844	-0.246	0.212
-311.939	197.441	-0.188	-0.283
-310.924	-65.094	0.180	-0.072
-309.910	272.108	0.048	-0.084
-308.895	61.494	0.093	0.092
-307.880	-200.000	-0.025	0.262
-306.866	-145.473	-0.285	-0.025
-305.851	593.786	-0.077	0.189
-304.837	-200.000	-0.042	0.210
-303.822	119.814	0.099	0.121
-302.807	140.861	0.113	-0.148
-301.793	-37.437	0.234	0.124
-300.778	800.000	0.117	0.343
-299.764	-84.783	0.065	0.020
-298.749	274.080	-0.198	0.346
-297.735	800.000	0.051	0.150
-296.720	67.952	-0.107	0.108
-295.705	-200.000	-0.011	0.146
-294.691	-81.406	0.200	0.065
-293.676	408.194	-0.131	0.274
-292.662	159.394	0.147	0.203
-291.647	155.894	0.228	-0.310
-290.632	125.394	0.147	-0.183
-289.618	-61.575	-0.097	0.040
-288.603	42.397	0.191	-0.172
-287.589	-12.975	-0.276	-0.177
-286.574	-200.000	0.027	-0.143
-285.559	-200.000	0.054	-0.272
-284.545	-120.305	0.206	-0.035
-283.530	327.223	0.154	-0.293
-282.516	-170.516	0.250	0.009
-281.501	-134.062	0.110	-0.013
-280.486	25.586	0.087	-0.072
-279.472	-101.246	-0.495	0.119
-278.457	23.907	0.194	-0.158
-277.443	-104.673	-0.188	0.043
-276.428	49.197	0.150	-0.140
-275.413	-25.604	0.172	0.100
-274.399	800.000	0.065	-0.210
-273.384	-132.313	-0.389	0.050
-272.370	188.582	-0.056	-0.082
-271.355	-200.000	-0.014	-0.268
-270.340	337.930	0.122	-0.234
-269.326	-24.083	0.324	0.191
-268.311	-19.361	0.239	0.147
-267.297	-144.881	-0.284	0.026
-266.282	-100.658	0.074	-0.018
-265.267	-84.252	0.132	0.041
-264.253	490.270	0.128	-0.289
-263.238	-109.228	-0.071	-0.015
-262.224	-148.705	0.268	0.022
-261.209	-33.481	0.157	-0.085
-260.195	-80.763	0.093	0.030
-259.180	800.000	-0.090	-0.296
-258.165	-200.000	-0.007	0.192
-257.151	-34.363	-0.119	0.064
-256.136	41.640	-0.389	-0.347
-255.122	-63.664	-0.118	-0.048
-254.107	-0.864	-0.115	0.081
-253.092	-47.214	-0.100	0.048
-252.078	167.853	0.071	0.100
-251.063	309.487	0.076	-0.141
-250.049	-122.565	0.219	-0.035
-249.034	54.578	0.071	-0.068
-248.019	96.431	0.110	-0.124
-247.005	159.771	-0.029	-0.040
-245.990	474.876	0.107	0.238
-244.976	112.145	0.310	-0.370
-243.961	25.501	0.165	0.135
-242.946	-108.329	0.437	-0.093
-241.932	224.739	0.035	-0.056
-240.917	13.330	-0.322	-0.247
-239.903	-176.084	-0.097	0.003
-238.888	-200.000	-0.023	-0.135
-237.873	-200.000	-0.018	0.362
-236.859	-200.000	0.002	-0.017
-235.844	800.000	-0.054	0.161
-234.830	21.218	-0.078	0.062
-233.815	-73.160	0.440	-0.159
-232.800	-200.000	-0.039	0.227
-231.786	29.576	0.229	-0.192
-230.771	800.000	0.016	-0.054
-229.757	-68.721	-0.179	0.068
-228.742	224.957	-0.123	-0.196
-227.727	174.512	0.090	0.128
-226.713	-85.767	0.062	0.019
-225.698	-200.000	0.008	0.197
-224.684	-138.467	0.514	0.056
-223.669	98.808	-0.131	-0.149
-222.655	-200.000	0.003	-0.098
-221.640	-200.000	-0.034	0.152
-220.625	93.669	0.193	0.216
-219.611	-18.223	0.295	-0.182
-218.596	-200.000	0.021	-0.136
-217.582	-118.293	-0.217	-0.038
-216.567	-73.821	0.135	-0.048
-215.552	-104.201	0.236	-0.054
-214.538	236.352	0.183	0.299
-213.523	-102.537	-0.161	-0.038
-212.509	-58.401	0.107	0.046
-211.494	-173.130	0.122	-0.004
-210.479	113.581	0.178	0.213
-209.465	800.000	0.019	-0.054
-208.450	30.693	-0.180	-0.152
-207.436	-14.872	0.075	0.047
-206.421	-200.000	-0.051	-0.283
-205.406	-44.652	-0.203	0.100
-204.392	-142.283	0.363	0.035
-203.377	-200.000	0.020	0.347
-202.363	64.556	-0.325	-0.323
-201.348	-109.326	0.180	-0.038
-200.333	34.755	0.168	-0.145
-199.319	-200.000	0.137	-0.001
-198.304	-29.161	-0.161	0.091
-197.290	-6.768	-0.235	0.157
-196.275	-101.189	-0.194	-0.047
-195.260	-24.599	0.163	-0.095
-194.246	-118.496	0.169	0.030
-193.231	-14.187	0.261	-0.166
-192.217	211.272	-0.113	-0.175
-191.202	800.000	-0.031	-0.125
-190.187	138.599	-0.373	0.482
-189.173	570.703	0.069	-0.166
-188.158	-200.000	-0.015	-0.546
-187.144	-91.654	0.398	-0.112
-186.129	439.635	0.166	-0.357
-185.114	-84.287	-0.094	-0.029
-184.100	-64.118	0.243	0.098
-183.085	-183.537	-0.244	-0.004
-182.071	282.528	0.027	0.048
-181.056	-38.554	-0.027	0.014
-180.042	-108.366	-0.294	0.062
-179.027	800.000	0.077	-0.247
-178.012	-63.743	-0.128	0.052
-176.998	-34.366	0.211	0.114
-175.983	-200.000	-0.044	-0.281
-174.969	-79.117	-0.162	-0.054
-173.954	-200.000	-0.025	-0.238
-172.939	-110.888	0.202	0.041
-171.925	165.088	0.108	0.150
-170.910	106.971	0.065	-0.076
-169.896	143.666	0.046	0.061
-168.881	450.334	-0.134	-0.290
-167.866	263.983	0.149	0.255
-166.852	215.612	-0.065	0.101
-165.837	99.481	-0.185	-0.210
-164.823	52.851	0.260	0.245
-163.808	-41.431	-0.227	0.115
-162.793	-200.000	0.018	-0.188
-161.779	-43.796	-0.239	-0.118
-160.764	-200.000	-0.036	-0.172
-159.750	560.970	-0.095	0.227
-158.735	-200.000	-0.016	0.261
-157.720	-155.259	0.454	-0.029
-156.706	-7.326	0.139	0.092
-155.691	-75.088	0.073	0.026
-154.677	17.491	-0.148	0.115
-153.662	483.689	0.080	-0.179
-152.647	139.991	-0.297	-0.384
-151.633	-80.487	-0.157	0.052
-150.618	372.029	-0.145	0.290
-149.604	800.000	0.075	-0.213
-148.589	-21.684	-0.117	0.070
-147.574	-200.000	0.032	0.353
-146.560	-83.004	0.245	0.078
-145.545	457.284	-0.126	-0.276
-144.531	-62.573	-0.201	-0.082
-143.516	295.614	-0.219	0.394
-142.502	-1.908	-0.410	0.284
-141.487	-51.260	-0.120	0.055
-140.472	-200.000	0.039	0.307
-139.458	310.953	0.014	0.026
-138.443	-173.991	-0.237	0.007
-137.429	247.253	0.055	0.091
-136.414	-13.302	-0.117	0.075
-135.399	165.613	0.085	0.118
-134.385	30.733	-0.075	0.063
-133.370	331.272	0.038	0.072
-132.356	-109.592	0.431	-0.089
-131.341	204.001	-0.086	-0.131
-130.326	-124.036	0.147	-0.023
-129.312	-18.246	-0.182	-0.112
-128.297	-200.000	0.015	-0.108
-127.283	-113.178	0.115	-0.022
-126.268	-72.404	0.428	-0.155
-125.253	-200.000	-0.019	0.146
-124.239	-171.378	0.100	0.003
-123.224	-17.931	-0.230	0.142
-122.210	800.000	-0.076	-0.313
-121.195	-181.831	-0.136	0.003
-120.180	23.498	0.320	0.259
-119.166	206.107	-0.155	-0.237
-118.151	-168.199	0.011	-0.000
-117.137	111.369	0.222	-0.263
-116.122	90.355	0.332	-0.365
-115.107	-131.550	0.181	-0.023
-114.093	-200.000	-0.057	-0.465
-113.078	219.875	0.029	-0.046
-112.064	-104.929	0.255	-0.057
-111.049	-16.655	-0.150	-0.093
-110.034	800.000	-0.049	-0.171
-109.020	-1.600	0.284	0.197
-108.005	-200.000	-0.022	0.161
-106.991	-16.247	-0.296	0.185
-105.976	-143.842	0.577	0.053
-104.962	-70.115	0.175	0.065
-103.947	250.654	0.114	-0.191
-102.932	800.000	-0.040	-0.132
-101.918	14.818	0.411	0.315
-100.903	-174.794	0.428	-0.012
-99.889	127.507	-0.016	0.020
-98.874	283.444	0.062	-0.109
-97.859	-77.131	0.302	-0.103
-96.845	-5.305	-0.203	-0.137
-95.830	241.892	-0.284	-0.465
-94.816	27.163	0.101	-0.083
-93.801	-124.194	-0.231	-0.035
-92.786	-200.000	-0.024	-0.236
-91.772	800.000	0.068	-0.241
-90.757	462.277	-0.007	0.015
-89.743	-36.510	0.071	-0.037
-88.728	441.931	-0.029	-0.063
-87.713	260.037	0.053	-0.090
-86.699	-61.906	0.258	0.106
-85.684	775.368	0.064	-0.172
-84.670	393.512	-0.142	0.290
-83.655	-72.727	0.248	-0.090
-82.640	-148.545	0.315	-0.025
-81.626	72.846	0.174	0.178
-80.611	-110.643	0.248	-0.050
-79.597	-16.973	0.271	-0.168
-78.582	800.000	-0.078	-0.276
-77.567	-86.478	0.362	0.109
-76.553	143.061	0.092	0.120
-75.538	-163.849	0.404	-0.019
-74.524	5.501	0.360	0.260
-73.509	-12.594	0.207	-0.132
-72.494	88.326	0.390	0.424
-71.480	-200.000	-0.003	0.307
-70.465	-200.000	0.026	-0.134
-69.451	-200.000	0.044	0.344
-68.436	-110.108	-0.298	0.061
-67.422	-29.678	0.395	0.221
-66.407	-60.720	-0.321	-0.133
-65.392	-6.438	0.296	-0.198
-64.378	-120.317	0.217	0.036
-63.363	657.451	-0.103	0.258
-62.349	16.670	0.247	-0.191
-61.334	-17.692	-1.267	-0.780
-60.319	64.576	0.844	0.834
-59.305	-200.000	-0.068	-1.171
-58.290	519.541	0.497	1.141
-57.276	434.251	0.791	1.683
-56.261	-200.000	106.489	614.987
-55.246	507.594	1511.315	3435.395
-54.232	176.363	2702.268	3845.378
-53.217	111.083	2164.649	2553.459
-52.203	41.295	1599.554	1416.590
-51.188	32.776	1334.911	1131.343
-50.173	29.641	1293.538	1077.980
-49.159	54.107	1347.711	1269.468
-48.144	54.188	1363.160	1284.446
-47.130	32.834	1317.904	1117.096
-46.115	29.575	1300.062	1082.861
-45.100	29.226	1295.341	1076.841
-44.086	29.205	1292.881	1074.633
-43.071	29.172	1290.328	1072.275
-42.057	29.107	1288.544	1070.373
-41.042	29.386	1286.087	1069.907
-40.027	29.182	1284.952	1067.741
-39.013	29.167	1283.593	1066.481
-37.998	29.137	1281.363	1064.415
-36.984	29.212	1279.568	1063.316
-35.969	29.311	1277.517	1062.138
-34.954	29.325	1275.643	1060.615
-33.940	29.358	1274.668	1059.954
-32.925	29.450	1273.338	1059.336
-31.911	29.474	1272.187	1058.470
-30.896	29.461	1270.326	1056.808
-29.881	29.406	1269.244	1055.549
-28.867	29.514	1267.494	1054.669
-27.852	29.303	1266.203	1052.350
-26.838	29.358	1264.803	1051.457
-25.823	29.392	1263.344	1050.395
-24.809	29.368	1262.241	1049.300
-23.794	29.408	1260.662	1048.178
-22.779	29.382	1259.636	1047.131
-21.765	29.415	1258.264	1046.139
-20.750	29.438	1257.288	1045.415
-19.736	29.353	1255.516	1043.420
-18.721	29.346	1254.225	1042.266
-17.706	29.237	1253.824	1041.274
-16.692	29.349	1252.255	1040.565
-15.677	29.213	1251.379	1039.027
-14.663	29.311	1250.152	1038.518
-13.648	29.173	1249.154	1036.873
-12.633	29.288	1248.099	1036.603
-11.619	29.283	1247.488	1036.023
-10.604	29.228	1246.669	1034.995
-9.590	29.228	1245.310	1033.827
-8.575	29.259	1244.764	1033.502
-7.560	29.226	1243.673	1032.373
-6.546	29.245	1242.746	1031.672
-5.531	29.228	1242.284	1031.148
-4.517	29.206	1241.247	1030.125
-3.502	29.312	1240.447	1030.015
-2.487	29.290	1239.326	1028.918
-1.473	29.211	1235.269	1025.070
-0.458	27.816	1221.190	1005.667
0.556	22.238	1203.927	969.568
1.571	18.905	1210.197	956.025
2.586	18.248	1224.986	963.923
3.600	18.136	1214.008	954.574
4.615	13.485	1142.999	874.157
5.629	4.457	1068.780	772.579
6.644	-0.044	1048.603	735.928
7.659	-0.389	1046.226	732.509
8.673	-0.426	1044.921	731.347
9.688	-0.331	1043.487	730.745
10.702	0.034	1041.833	731.293
11.717	6.051	1050.653	766.862
12.731	15.027	1063.886	820.646
13.746	19.543	1068.608	846.403
14.761	20.487	1069.203	851.428
15.775	20.437	1069.814	851.593
16.790	20.188	1068.613	849.344
17.804	20.118	1067.995	848.434
18.819	20.310	1067.272	848.724
19.834	20.436	1066.670	848.790
20.848	20.437	1066.402	848.506
21.863	20.317	1066.128	847.623
22.877	20.273	1065.339	846.707
23.892	20.272	1064.435	845.909
24.907	20.287	1063.862	845.451
25.921	20.335	1062.642	844.640
26.936	20.379	1061.130	843.579
27.950	20.155	1060.350	841.794
28.965	20.077	1058.140	839.589
29.980	20.133	1056.628	838.585
30.994	20.349	1055.470	838.638
32.009	20.225	1054.507	837.199
33.023	20.059	1052.859	835.017
34.038	20.338	1052.358	835.890
35.053	20.428	1051.696	835.724
36.067	20.308	1050.727	834.303
37.082	20.411	1049.821	834.002
38.096	20.612	1049.253	834.441
39.111	20.680	1048.258	833.902
40.126	20.431	1046.986	831.628
41.140	20.158	1044.994	828.666
42.155	20.012	1044.059	827.152
43.169	20.050	1042.896	826.341
44.184	20.005	1042.065	825.394
45.199	20.016	1040.459	824.100
46.213	20.037	1039.946	823.720
47.228	20.087	1039.415	823.466
48.242	20.172	1038.227	822.855
49.257	20.235	1037.044	822.143
50.271	20.434	1036.316	822.438
51.286	20.369	1035.693	821.564
52.301	20.442	1034.619	820.982
53.315	20.379	1033.430	819.668
54.330	20.285	1033.290	819.043
55.344	20.360	1031.998	818.298
56.359	20.294	1030.957	817.088
57.374	20.024	1029.921	814.925
58.388	20.065	1029.810	814.961
59.403	20.111	1028.411	813.995
60.417	19.971	1027.858	812.829
61.432	19.981	1027.293	812.356
62.447	20.185	1026.567	812.667
63.461	20.166	1025.922	811.997
64.476	20.165	1024.584	810.859
65.490	20.110	1023.650	809.790
66.505	20.173	1023.234	809.687
67.520	20.229	1022.494	809.290
68.534	19.939	1021.464	807.054
69.549	19.687	1020.168	804.783
70.563	19.635	1019.520	803.960
71.578	19.710	1018.494	803.428
72.593	19.539	1017.872	802.071
73.607	19.622	1017.252	801.897
74.622	20.076	1016.710	803.504
75.636	19.977	1016.209	802.580
76.651	19.843	1015.369	801.223
77.666	19.710	1014.854	800.133
78.680	19.837	1014.283	800.199
79.695	19.889	1013.202	799.514
80.709	20.078	1012.577	799.822
81.724	19.971	1011.753	798.607
82.739	20.045	1010.981	798.267
83.753	20.402	1010.150	799.185
84.768	20.609	1009.779	799.771
85.782	20.580	1008.732	798.741
86.797	20.558	1007.831	797.855
87.812	20.353	1006.803	796.032
88.826	20.507	1006.153	796.153
89.841	20.576	1005.063	795.533
90.855	20.591	1004.166	794.823
91.870	20.429	1003.373	793.387
92.884	20.366	1002.134	792.047
93.899	20.320	1001.545	791.301
94.914	20.474	1000.669	791.239
95.928	20.387	999.415	789.782
96.943	20.186	998.097	787.758
97.957	20.049	996.745	786.001
98.972	19.790	995.651	783.893
99.987	20.090	995.042	784.703
101.001	20.307	994.217	784.965
102.016	20.287	993.639	784.349
103.030	20.243	992.748	783.380
104.045	19.997	991.785	781.441
105.060	19.764	990.852	779.584
106.074	20.125	990.002	780.472
107.089	20.417	989.693	781.474
108.103	20.270	988.599	779.879
109.118	20.113	987.126	777.944
110.133	20.157	985.790	777.023
111.147	19.952	984.607	775.104
112.162	19.738	983.848	773.478
113.176	20.043	983.255	774.308
114.191	19.902	982.596	773.089
115.206	19.747	981.081	771.140
116.220	19.804	980.171	770.611
117.235	19.927	979.201	770.327
118.249	19.884	978.641	769.628
119.264	19.810	977.755	768.534
120.279	19.834	977.491	768.363
121.293	19.907	976.280	767.668
122.308	19.992	975.092	767.040
123.322	19.801	974.221	765.445
124.337	19.800	972.619	764.112
125.352	19.184	971.370	760.343
126.366	19.371	969.938	759.980
127.381	19.975	970.451	762.980
128.395	20.273	969.756	763.677
129.410	20.382	969.110	763.579
130.424	20.342	968.376	762.757
131.439	20.257	966.995	761.228
132.454	20.207	966.170	760.295
133.468	20.249	964.875	759.391
134.483	20.337	964.633	759.517
135.497	20.430	963.746	759.161
136.512	20.616	962.638	759.033
137.527	20.540	961.401	757.658
138.541	20.397	961.529	757.067
139.556	20.530	960.115	756.464
140.570	20.372	959.867	755.515
141.585	20.529	958.333	754.924
142.600	20.542	957.320	754.118
143.614	20.715	956.925	754.486
144.629	20.882	956.085	754.482
145.643	20.591	954.865	752.194
146.658	20.448	953.219	750.213
147.673	20.455	952.232	749.401
148.687	20.438	951.591	748.755
149.702	20.457	950.069	747.574
150.716	20.339	949.455	746.517
151.731	20.533	948.787	746.759
152.746	20.660	948.153	746.741
153.760	20.729	947.552	746.496
154.775	20.783	946.726	746.012
155.789	20.769	945.911	745.243
156.804	20.719	945.158	744.368
157.819	20.833	944.051	743.919
158.833	20.895	943.428	743.626
159.848	20.920	942.515	742.947
160.862	20.616	941.645	740.903
161.877	20.712	940.667	740.476
162.892	20.743	939.655	739.744
163.906	20.747	938.447	738.745
164.921	20.609	937.871	737.640
165.935	20.724	936.932	737.327
166.950	20.666	935.894	736.199
167.964	20.689	935.222	735.702
168.979	20.602	934.266	734.517
169.994	20.619	933.055	733.571
171.008	20.849	932.428	733.982
172.023	20.621	931.772	732.440
173.037	20.489	930.536	730.849
174.052	20.437	929.643	729.866
175.067	20.455	929.212	729.538
176.081	20.632	928.764	729.864
177.096	20.653	927.464	728.864
178.110	20.311	926.593	726.685
179.125	20.145	926.072	725.517
180.140	20.235	925.515	725.392
181.154	20.380	925.373	725.826
182.169	20.578	925.585	726.753
183.183	20.707	924.641	726.489
184.198	20.606	923.629	725.207
185.213	20.667	923.106	724.987
186.227	20.777	922.449	724.865
187.242	20.873	921.491	724.445
188.256	20.779	921.004	723.610
189.271	20.753	920.457	723.007
190.286	20.567	918.987	721.015
191.300	19.908	917.300	716.900
192.315	19.196	915.967	712.852
193.329	19.286	916.005	713.191
194.344	20.161	916.135	716.844
195.359	20.701	916.087	718.976
196.373	20.597	915.684	718.166
197.388	20.509	914.720	716.984
198.402	20.475	914.048	716.257
199.417	20.577	913.571	716.238
200.432	20.301	912.276	714.023
201.446	20.068	911.698	712.550
202.461	20.237	911.006	712.641
203.475	19.337	909.372	707.609
204.490	18.643	907.918	703.567
205.504	19.630	908.471	707.983
206.519	20.209	908.240	710.110
207.534	20.346	907.762	710.235
208.548	20.664	907.701	711.425
209.563	20.446	906.751	709.726
210.577	20.546	905.943	709.439
211.592	20.845	905.634	710.354
212.607	20.627	904.789	708.741
213.621	20.701	904.244	708.552
214.636	20.809	903.497	708.343
215.650	20.676	903.140	707.459
216.665	20.876	902.132	707.420
217.680	20.668	901.074	705.685
218.694	20.293	900.102	703.339
219.709	20.169	899.335	702.178
220.723	20.414	899.335	703.108
221.738	20.638	898.364	703.190
222.753	20.618	897.717	702.542
223.767	20.719	897.375	702.621
224.782	20.996	896.852	703.267
225.796	20.787	896.676	702.222
226.811	20.283	894.633	698.532
227.826	19.650	894.008	695.436
228.840	19.900	893.370	695.884
229.855	19.896	892.741	695.317
230.869	19.656	891.385	693.233
231.884	19.967	891.746	694.702
232.899	20.703	891.630	697.503
233.913	20.580	890.992	696.449
234.928	20.506	890.633	695.809
235.942	20.531	889.592	695.034
236.957	20.206	888.950	693.173
237.972	20.116	888.239	692.198
238.986	20.392	887.128	692.370
240.001	20.405	886.894	692.180
241.015	20.414	886.226	691.634
242.030	20.566	885.779	691.827
243.045	20.655	885.503	691.907
244.059	20.745	884.890	691.721
245.074	20.601	883.641	690.113
246.088	20.224	882.498	687.664
247.103	20.571	882.308	688.833
248.117	21.016	882.515	690.695
249.132	21.141	882.023	690.743
250.147	21.241	881.862	690.952
251.161	21.430	880.979	690.944
252.176	21.273	880.331	689.756
253.190	21.517	879.576	690.065
254.205	21.612	879.271	690.141
255.220	21.680	878.518	689.757
256.234	21.324	877.976	687.870
257.249	21.333	876.962	687.047
258.263	21.294	876.042	686.115
259.278	21.496	875.827	686.679
260.293	21.356	875.596	685.888
261.307	21.357	874.334	684.841
262.322	21.226	873.054	683.267
263.336	20.392	871.145	678.454
264.351	19.330	869.513	672.978
265.366	19.361	869.649	673.146
266.380	20.635	869.877	678.234
267.395	21.064	869.755	679.751
268.409	21.099	868.524	678.865
269.424	21.215	868.594	679.310
270.439	21.113	868.077	678.449
271.453	21.352	867.433	678.815
272.468	21.552	866.837	679.066
273.482	21.539	866.399	678.611
274.497	21.065	865.411	675.939
275.512	20.814	864.462	674.168
276.526	21.225	864.721	675.904
277.541	21.363	864.063	675.861
278.555	21.233	862.530	674.100
279.570	21.050	861.956	672.888
280.585	21.226	861.665	673.278
281.599	21.131	860.770	672.155
282.614	20.581	859.748	669.180
283.628	20.513	859.457	668.631
284.643	20.973	858.831	669.855
285.657	20.494	857.768	667.130
286.672	20.176	856.657	664.985
287.687	20.794	857.170	667.694
288.701	20.792	856.671	667.238
289.716	20.576	855.634	665.548
290.730	20.727	853.972	664.773
291.745	20.288	853.644	662.782
292.760	20.541	853.849	663.847
293.774	21.610	853.768	667.805
294.789	21.845	853.781	668.652
295.803	21.755	853.677	668.170
296.818	21.986	852.285	667.901
297.833	21.531	850.917	665.041
298.847	21.437	850.452	664.260
299.862	21.565	850.725	664.902
300.876	21.892	850.120	665.610
301.891	21.776	849.363	664.520
302.906	21.326	848.329	661.945
303.920	21.481	848.167	662.349
304.935	21.860	847.376	663.106
305.949	21.651	847.333	662.222
306.964	21.388	846.748	660.715
307.979	21.485	846.503	660.832
308.993	21.876	846.248	662.051
310.008	21.932	845.209	661.389
311.022	21.577	844.646	659.552
312.037	21.530	843.870	658.712
313.052	21.385	842.753	657.236
314.066	20.483	841.535	652.840
315.081	20.052	840.952	650.711
316.095	21.023	841.343	654.604
317.110	21.559	840.734	656.081
318.125	20.596	839.253	651.265
319.139	19.804	837.772	647.095
320.154	19.798	837.503	646.808
321.168	20.623	837.900	650.140
322.183	21.447	837.600	652.927
323.197	21.513	837.667	653.170
324.212	21.539	837.627	653.179
325.227	21.555	836.981	652.674
326.241	21.574	835.722	651.707
327.256	21.407	835.439	650.806
328.270	21.444	834.616	650.244
329.285	21.289	833.701	648.900
330.300	21.053	833.073	647.479
331.314	21.160	832.865	647.654
332.329	21.805	831.926	649.257
333.343	21.702	832.053	648.918
334.358	21.711	831.555	648.506
335.373	21.749	831.479	648.530
336.387	22.093	831.237	649.554
337.402	22.145	831.276	649.719
338.416	22.011	830.506	648.567
339.431	22.160	830.112	648.752
340.446	22.415	829.583	649.219
341.460	22.186	829.477	648.236
342.475	21.948	829.076	646.988
343.489	22.035	828.618	646.893
344.504	22.351	828.526	647.928
345.519	22.424	827.761	647.541
346.533	22.521	827.243	647.435
347.548	22.480	826.755	646.845
348.562	22.398	826.513	646.298
349.577	22.523	826.025	646.316
350.592	22.413	825.028	645.076
351.606	22.329	824.724	644.476
352.621	22.227	823.823	643.342
353.635	22.284	822.601	642.538
354.650	21.617	821.045	638.833
355.665	20.640	820.030	634.427
356.679	21.036	819.720	635.573
357.694	21.546	819.222	636.986
358.708	21.455	818.468	636.015
359.723	21.867	818.774	637.693
360.738	22.085	818.260	638.027
361.752	22.338	817.621	638.392
362.767	22.743	817.085	639.383
363.781	22.651	817.198	639.084
364.796	22.707	816.754	638.881
365.810	22.753	816.177	638.539
366.825	22.857	815.885	638.630
367.840	22.456	815.052	636.475
368.854	22.222	814.067	634.804
369.869	22.090	814.038	634.250
370.883	22.212	813.299	634.057
371.898	22.045	813.104	633.248
372.913	22.035	812.748	632.876
373.927	22.325	812.280	633.503
374.942	22.346	811.999	633.302
375.956	22.570	811.445	633.620
376.971	22.621	811.141	633.509
377.986	22.751	810.845	633.687
379.000	22.736	810.275	633.132
380.015	22.529	809.360	631.619
381.029	22.583	809.183	631.621
382.044	22.905	808.478	632.164
383.059	22.782	807.984	631.282
384.073	22.837	807.363	630.941
385.088	22.758	806.617	630.017
386.102	22.597	806.003	628.909
387.117	22.600	805.272	628.295
388.132	22.236	804.193	626.101
389.146	21.713	803.523	623.662
390.161	22.072	803.775	625.079
391.175	22.585	803.253	626.444
392.190	22.116	802.517	624.146
393.205	20.845	800.401	617.941
394.219	19.585	798.703	612.111
395.234	19.496	798.721	611.758
396.248	21.166	799.738	618.401
397.263	22.484	800.972	623.974
398.278	22.326	800.265	622.809
399.292	22.174	799.256	621.431
400.307	22.212	799.090	621.381
401.321	22.275	798.642	621.202
402.336	22.605	798.482	622.187
403.350	23.018	798.497	623.601
404.365	23.201	798.308	624.043
405.380	23.542	797.720	624.730
406.394	23.492	797.004	623.936
407.409	23.552	796.499	623.698
408.423	23.353	796.574	623.002
409.438	23.423	796.060	622.790
410.453	23.614	795.144	622.690
411.467	23.316	795.085	621.540
412.482	23.386	794.634	621.378
413.496	23.448	794.578	621.498
414.511	23.435	794.107	621.030
415.526	23.488	793.558	620.729
416.540	23.290	792.781	619.375
417.555	23.028	792.241	617.982
418.569	23.177	791.935	618.210
419.584	23.049	791.215	617.147
420.599	23.076	790.031	616.264
421.613	158.149	1365.162	1799.307
422.628	136.960	1448.950	1799.365
