DTS Sentinel unit serial number:	SN413079Multiplexer serial number:	ORYXHardware model number:	OX4-SRSoftware version number:	ORYX F/W v4.00 Oryx Data Collector v3.7.2.0data status	okinstallation	princeton_trtdifferential loss correction	single-endedforward channel	channel 1reverse channel	N/Adate	2019/09/12time	06:56:11forward acquisition time	60.00reverse acquisition time	0.00gamma	496.2192k internal	0.2320k external	0.2320temperature offset calibration	1.0050default loss term (dB/km)	0.3790temperature slope calibration	1.0000multiplexer offset coefficient	1.0000multiplexer slope coefficient	1.0000fibre end	0.00T internal ref (°C)	32.12T ext. ref 1 (°C)	1.58T ext. ref 2 (°C)	27.25length (m)	temperature (°C)	Stokes	anti-Stokes-747.200	-102.057	-0.310	0.076
-746.185	-200.000	0.048	-0.381
-745.171	-34.281	0.064	-0.035
-744.156	-107.169	0.215	0.048
-743.142	117.601	-0.081	0.100
-742.127	-200.000	0.005	0.096
-741.112	104.732	0.087	0.103
-740.098	-77.345	-0.446	-0.157
-739.083	-200.000	-0.089	0.413
-738.069	-200.000	0.003	0.165
-737.054	-200.000	-0.015	-0.163
-736.039	26.231	-0.261	0.221
-735.025	82.888	0.253	0.278
-734.010	-118.360	-0.291	-0.052
-732.996	-130.349	-0.312	-0.043
-731.981	800.000	-0.108	-0.396
-730.966	-200.000	-0.012	-0.150
-729.952	285.337	0.051	0.093
-728.937	800.000	-0.054	-0.204
-727.923	-32.534	-0.179	-0.101
-726.908	62.955	0.301	-0.304
-725.894	17.583	-0.307	0.246
-724.879	14.425	-0.224	-0.177
-723.864	8.685	0.140	0.107
-722.850	99.945	0.101	0.119
-721.835	154.082	-0.154	0.213
-720.821	-140.946	0.065	0.007
-719.806	25.260	-0.191	-0.160
-718.791	-48.178	0.281	-0.137
-717.777	-149.700	0.074	0.006
-716.762	-200.000	-0.040	-0.256
-715.748	800.000	0.054	-0.203
-714.733	-96.747	0.176	-0.047
-713.718	-113.766	0.084	0.017
-712.704	-200.000	-0.016	-0.080
-711.689	-78.566	0.047	0.016
-710.675	-15.077	0.062	0.040
-709.660	733.329	-0.127	0.344
-708.645	800.000	-0.027	-0.091
-707.631	65.164	-0.251	-0.256
-706.616	85.217	-0.083	0.092
-705.602	147.492	0.120	0.163
-704.587	-188.894	0.387	-0.005
-703.572	-5.714	0.190	-0.131
-702.558	46.460	0.090	0.084
-701.543	-168.972	-0.163	-0.006
-700.529	-83.804	0.100	0.032
-699.514	17.029	0.249	0.199
-698.499	-154.195	-0.281	0.019
-697.485	-200.000	0.024	-0.125
-696.470	-112.984	0.229	0.046
-695.456	45.179	-0.190	0.177
-694.441	30.040	-0.442	0.380
-693.426	253.387	0.068	-0.118
-692.412	800.000	-0.121	-0.481
-691.397	-200.000	-0.052	-0.271
-690.383	306.313	-0.025	0.048
-689.368	-6.910	0.219	0.150
-688.354	430.842	-0.154	-0.337
-687.339	168.788	0.174	-0.251
-686.324	403.283	-0.194	-0.411
-685.310	171.352	0.151	-0.219
-684.295	-151.640	0.146	0.011
-683.281	315.987	0.177	0.336
-682.266	-151.630	-0.413	0.031
-681.251	-128.864	0.163	-0.023
-680.237	764.734	-0.119	-0.325
-679.222	-75.325	-0.181	-0.065
-678.208	800.000	-0.060	0.230
-677.193	-174.216	0.145	0.004
-676.178	-200.000	0.012	-0.114
-675.164	124.156	0.224	-0.284
-674.149	-200.000	-0.024	0.337
-673.135	-4.518	0.254	0.177
-672.120	800.000	-0.035	-0.154
-671.105	755.713	-0.124	0.338
-670.091	-200.000	0.033	-0.270
-669.076	-61.642	0.237	-0.100
-668.062	2.002	-0.186	-0.136
-667.047	-96.913	-0.092	-0.024
-666.032	-32.367	-0.254	-0.143
-665.018	-34.983	-0.267	-0.147
-664.003	-200.000	-0.040	0.285
-662.989	-200.000	0.021	-0.143
-661.974	-82.294	-0.316	-0.104
-660.959	35.946	-0.146	0.129
-659.945	313.680	0.154	-0.292
-658.930	351.098	0.223	-0.444
-657.916	-82.798	-0.243	0.079
-656.901	46.152	-0.203	0.189
-655.886	-193.205	0.302	0.003
-654.872	-124.456	-0.313	-0.049
-653.857	129.483	0.118	-0.151
-652.843	-166.557	0.107	-0.005
-651.828	-124.391	0.070	0.011
-650.814	800.000	0.051	-0.143
-649.799	-90.592	0.236	0.069
-648.784	195.931	0.056	-0.085
-647.770	-114.595	0.090	0.017
-646.755	-37.331	-0.139	0.075
-645.741	126.654	0.121	-0.155
-644.726	137.176	0.166	0.219
-643.711	3.834	-0.083	-0.061
-642.697	-27.977	0.256	-0.149
-641.682	-56.206	-0.164	-0.074
-640.668	-71.852	-0.050	0.019
-639.653	538.155	-0.060	0.145
-638.638	-37.675	0.282	-0.151
-637.624	21.431	-0.130	-0.106
-636.609	19.407	0.057	0.046
-635.595	-119.132	-0.288	-0.051
-634.580	624.722	-0.075	-0.190
-633.565	-74.471	-0.104	-0.038
-632.551	-95.519	-0.202	0.055
-631.536	-156.093	-0.219	-0.014
-630.522	-200.000	0.010	-0.200
-629.507	245.052	0.158	0.267
-628.492	-55.286	-0.183	-0.083
-627.478	53.994	-0.109	-0.105
-626.463	-138.833	-0.056	0.006
-625.449	-200.000	0.081	-0.362
-624.434	82.070	0.040	0.043
-623.419	-57.730	-0.412	0.181
-622.405	-200.000	-0.025	0.317
-621.390	764.613	-0.050	0.138
-620.376	6.001	-0.114	-0.085
-619.361	268.404	0.043	0.076
-618.346	-200.000	-0.028	-0.239
-617.332	-119.568	-0.157	0.027
-616.317	-33.256	0.221	-0.123
-615.303	-42.349	-0.211	-0.108
-614.288	135.682	0.189	-0.248
-613.273	100.292	0.127	0.148
-612.259	22.901	-0.062	-0.051
-611.244	169.788	-0.274	-0.394
-610.230	334.587	0.038	0.074
-609.215	-115.482	0.171	0.032
-608.201	-148.788	-0.267	0.022
-607.186	-63.152	0.412	0.171
-606.171	-200.000	-0.003	0.082
-605.157	88.317	-0.109	0.122
-604.142	-150.456	-0.457	-0.035
-603.128	-32.359	-0.332	-0.186
-602.113	225.975	0.112	-0.182
-601.098	-99.682	-0.071	-0.018
-600.084	-200.000	-0.022	-0.234
-599.069	25.180	0.048	0.040
-598.055	-12.668	-0.113	0.074
-597.040	312.566	0.057	0.108
-596.025	-142.230	-0.132	0.013
-595.011	-57.177	0.191	0.085
-593.996	-200.000	0.021	0.206
-592.982	-48.489	0.099	-0.048
-591.967	-200.000	-0.035	-0.183
-590.952	-95.218	-0.112	0.030
-589.938	800.000	-0.064	-0.239
-588.923	-103.778	0.128	-0.030
-587.909	-65.961	0.065	0.026
-586.894	-200.000	0.011	0.051
-585.879	134.615	0.158	0.207
-584.865	5.965	0.087	-0.065
-583.850	-200.000	-0.061	-0.311
-582.836	-200.000	-0.011	-0.465
-581.821	218.325	0.091	-0.146
-580.806	-73.877	0.194	0.071
-579.792	34.771	0.169	0.148
-578.777	105.032	0.170	0.202
-577.763	-116.507	0.229	0.042
-576.748	245.466	-0.115	-0.195
-575.733	57.203	0.088	0.086
-574.719	172.679	0.194	-0.280
-573.704	-177.588	-0.101	0.002
-572.690	112.477	-0.098	-0.119
-571.675	50.742	0.212	-0.202
-570.661	418.398	0.068	-0.145
-569.646	73.997	-0.210	-0.221
-568.631	-157.873	0.332	-0.020
-567.617	70.930	-0.269	0.280
-566.602	-81.339	-0.148	-0.049
-565.588	800.000	-0.054	-0.194
-564.573	800.000	-0.005	-0.017
-563.558	-200.000	0.010	0.227
-562.544	707.317	0.095	-0.253
-561.529	79.128	-0.246	0.265
-560.515	251.920	-0.045	-0.077
-559.500	800.000	-0.057	0.203
-558.485	142.382	-0.282	-0.375
-557.471	-13.257	0.295	-0.192
-556.456	-64.198	-0.367	0.150
-555.442	-72.871	0.410	0.151
-554.427	-0.104	-0.337	0.241
-553.412	57.548	-0.256	-0.251
-552.398	-91.324	-0.305	0.088
-551.383	-55.720	0.242	-0.109
-550.369	164.782	-0.096	-0.136
-549.354	-200.000	0.012	-0.171
-548.339	79.174	-0.106	0.114
-547.325	800.000	0.039	0.111
-546.310	8.303	0.353	0.266
-545.296	182.709	0.079	0.117
-544.281	476.623	0.121	0.275
-543.266	-120.000	-0.193	-0.033
-542.252	-200.000	0.033	0.234
-541.237	87.675	0.110	-0.122
-540.223	22.022	0.311	0.255
-539.208	-168.391	0.060	0.002
-538.193	-81.711	-0.315	0.104
-537.179	-200.000	0.011	-0.118
-536.164	-200.000	0.011	-0.278
-535.150	800.000	-0.032	-0.092
-534.135	-97.215	0.116	0.030
-533.121	3.520	0.115	0.084
-532.106	800.000	0.049	-0.142
-531.091	233.115	0.300	0.495
-530.077	-20.969	-0.157	0.097
-529.062	-136.053	-0.329	-0.039
-528.048	40.242	-0.199	0.179
-527.033	617.458	-0.159	0.399
-526.018	-79.775	-0.180	-0.061
-525.004	800.000	0.068	-0.232
-523.989	800.000	-0.025	-0.076
-522.975	213.217	-0.039	-0.062
-521.960	-71.444	-0.158	-0.059
-520.945	-200.000	0.002	-0.052
-519.931	-91.701	0.081	0.023
-518.916	197.809	0.147	0.225
-517.902	418.456	-0.104	0.223
-516.887	59.918	0.100	0.099
-515.872	-101.231	0.266	0.065
-514.858	-200.000	0.043	0.466
-513.843	22.676	0.069	-0.057
-512.829	410.227	-0.084	-0.178
-511.814	-103.907	0.194	-0.045
-510.799	-112.833	0.456	-0.091
-509.785	-200.000	0.019	-0.346
-508.770	-55.734	-0.183	-0.082
-507.756	-38.954	0.163	-0.086
-506.741	-200.000	0.031	-0.224
-505.726	-39.618	0.017	0.009
-504.712	278.850	0.030	0.054
-503.697	-152.334	-0.086	-0.006
-502.683	-93.645	0.048	0.013
-501.668	448.869	-0.105	-0.231
-500.653	18.646	0.144	-0.115
-499.639	-111.468	-0.090	0.018
-498.624	-173.819	-0.268	0.008
-497.610	150.785	-0.045	0.061
-496.595	-200.000	-0.056	-0.248
-495.581	-98.220	-0.241	0.062
-494.566	-18.560	0.114	0.071
-493.551	-33.256	0.072	0.040
-492.537	-137.238	-0.229	-0.026
-491.522	-29.977	0.120	-0.068
-490.508	-114.551	0.120	0.023
-489.493	800.000	0.072	0.268
-488.478	-200.000	0.013	0.128
-487.464	85.057	-0.087	-0.096
-486.449	-68.740	0.253	-0.098
-485.435	197.240	-0.196	-0.300
-484.420	-200.000	0.026	0.150
-483.405	-200.000	0.005	0.060
-482.391	47.848	0.123	-0.115
-481.376	-60.303	-0.182	-0.077
-480.362	480.453	-0.120	-0.271
-479.347	5.188	-0.125	0.092
-478.332	166.281	-0.193	0.274
-477.318	-89.835	0.054	0.016
-476.303	-113.416	-0.114	0.022
-475.289	-200.000	-0.014	-0.068
-474.274	-115.096	0.141	0.027
-473.259	-200.000	0.006	0.088
-472.245	-11.252	0.099	0.065
-471.230	24.091	-0.049	0.040
-470.216	-200.000	-0.050	0.264
-469.201	764.564	0.039	0.105
-468.186	-200.000	0.005	0.046
-467.172	-119.802	0.061	-0.011
-466.157	14.252	0.110	0.086
-465.143	800.000	-0.088	-0.267
-464.128	53.855	-0.153	-0.147
-463.113	30.734	0.397	-0.340
-462.099	-109.420	-0.281	0.060
-461.084	-200.000	-0.001	-0.020
-460.070	-200.000	0.020	0.286
-459.055	10.471	-0.181	-0.138
-458.040	136.750	0.231	-0.301
-457.026	193.541	0.117	-0.177
-456.011	-77.287	-0.251	0.087
-454.997	363.900	0.114	-0.230
-453.982	800.000	-0.036	0.122
-452.968	-105.870	-0.132	0.030
-451.953	-200.000	0.001	0.554
-450.938	399.269	-0.106	0.222
-449.924	-200.000	0.024	0.306
-448.909	800.000	0.050	0.201
-447.895	262.347	-0.100	-0.173
-446.880	-106.146	-0.345	-0.077
-445.865	800.000	-0.110	0.356
-444.851	136.853	0.073	-0.096
-443.836	68.073	0.228	-0.233
-442.822	41.983	-0.211	0.191
-441.807	-109.794	-0.309	-0.065
-440.792	193.700	-0.132	-0.200
-439.778	800.000	0.059	0.247
-438.763	39.816	-0.060	0.053
-437.749	800.000	-0.074	-0.229
-436.734	-82.910	0.171	-0.055
-435.719	669.572	-0.063	-0.163
-434.705	43.153	-0.151	-0.138
-433.690	-33.425	-0.292	-0.162
-432.676	-200.000	0.017	-0.145
-431.661	20.521	0.123	0.099
-430.646	408.675	0.039	0.083
-429.632	-30.156	-0.077	0.044
-428.617	18.046	-0.059	-0.047
-427.603	-200.000	0.029	-0.163
-426.588	-76.540	-0.193	0.068
-425.573	197.528	0.042	0.064
-424.559	141.313	0.148	-0.195
-423.544	182.120	0.086	-0.127
-422.530	-163.136	-0.179	0.009
-421.515	92.076	0.091	0.102
-420.500	350.178	-0.039	0.077
-419.486	-200.000	-0.021	0.364
-418.471	-200.000	0.001	-0.017
-417.457	441.821	-0.092	-0.200
-416.442	-95.756	0.154	-0.041
-415.428	-200.000	-0.035	0.176
-414.413	-84.539	-0.160	0.050
-413.398	-77.534	0.348	0.120
-412.384	-34.402	-0.209	0.114
-411.369	-22.015	-0.350	-0.212
-410.355	-171.236	-0.177	-0.006
-409.340	-200.000	-0.023	0.207
-408.325	202.017	-0.128	-0.197
-407.311	-200.000	0.038	-0.323
-406.296	338.689	0.130	0.253
-405.282	3.274	0.234	0.170
-404.267	800.000	-0.049	0.172
-403.252	55.719	-0.176	-0.170
-402.238	534.772	-0.069	0.163
-401.223	-200.000	0.059	-0.284
-400.209	83.773	-0.081	0.089
-399.194	-87.734	-0.286	-0.086
-398.179	-200.000	0.053	-0.278
-397.165	-113.921	0.266	0.051
-396.150	-71.086	-0.176	0.066
-395.136	-139.596	0.034	0.004
-394.121	-35.707	0.055	-0.030
-393.106	-59.242	0.303	-0.130
-392.092	14.821	-0.135	-0.105
-391.077	-32.848	0.152	0.084
-390.063	352.328	0.088	0.174
-389.048	127.403	-0.106	0.134
-388.033	-200.000	-0.018	-0.149
-387.019	425.185	-0.117	-0.250
-386.004	-122.483	0.233	0.038
-384.990	247.714	-0.083	0.140
-383.975	740.015	-0.082	0.220
-382.960	-200.000	0.020	-0.231
-381.946	-165.687	-0.169	0.007
-380.931	66.153	-0.072	-0.073
-379.917	-99.975	-0.192	0.048
-378.902	800.000	-0.052	0.145
-377.888	-0.129	0.079	-0.056
-376.873	-100.381	0.140	-0.035
-375.858	4.521	-0.024	-0.017
-374.844	523.863	-0.146	-0.343
-373.829	19.216	0.274	-0.220
-372.815	-106.604	-0.259	-0.058
-371.800	-200.000	0.016	0.122
-370.785	-200.000	-0.012	0.089
-369.771	-200.000	-0.010	-0.413
-368.756	198.811	-0.113	-0.172
-367.742	-76.667	-0.208	-0.073
-366.727	259.017	0.128	0.220
-365.712	381.998	-0.028	-0.058
-364.698	-200.000	0.003	-0.110
-363.683	800.000	0.027	-0.091
-362.669	680.110	0.082	0.212
-361.654	-17.094	0.163	0.103
-360.639	325.683	0.082	0.157
-359.625	-200.000	-0.003	0.209
-358.610	-200.000	-0.021	0.165
-357.596	-113.444	0.286	0.056
-356.581	114.434	-0.129	-0.156
-355.566	-128.472	0.339	0.048
-354.552	-48.390	-0.060	0.029
-353.537	-200.000	-0.020	-0.264
-352.523	800.000	-0.086	-0.245
-351.508	-22.096	-0.025	0.015
-350.493	261.433	-0.034	0.059
-349.479	-70.285	0.212	-0.080
-348.464	-5.188	-0.221	0.152
-347.450	-200.000	0.085	0.402
-346.435	-71.035	-0.066	0.025
-345.420	-111.136	0.375	0.077
-344.406	-35.536	0.288	0.156
-343.391	-159.712	0.173	-0.009
-342.377	347.242	0.054	-0.106
-341.362	-79.707	0.221	-0.074
-340.348	84.200	-0.259	-0.281
-339.333	141.916	-0.062	-0.081
-338.318	-200.000	-0.008	0.079
-337.304	6.998	0.032	0.024
-336.289	-200.000	0.020	-0.117
-335.275	85.955	-0.115	0.126
-334.260	-38.119	0.067	-0.036
-333.245	-142.919	0.138	-0.013
-332.231	77.566	0.200	-0.212
-331.216	-41.216	-0.206	0.106
-330.202	-33.975	-0.161	-0.088
-329.187	153.162	0.182	0.248
-328.172	-198.963	-0.209	0.001
-327.158	132.397	0.148	0.190
-326.143	160.172	-0.095	0.132
-325.129	57.101	0.111	0.108
-324.114	-68.564	-0.306	0.118
-323.099	170.792	0.040	-0.057
-322.085	-200.000	-0.014	0.094
-321.070	-61.233	-0.243	0.102
-320.056	-67.487	0.150	-0.059
-319.041	-35.072	0.084	0.046
-318.026	-56.679	0.292	-0.128
-317.012	113.881	0.129	-0.156
-315.997	-123.812	0.072	0.011
-314.983	13.723	0.241	0.186
-313.968	800.000	-0.050	0.205
-312.953	-200.000	-0.024	0.262
-311.939	800.000	0.089	-0.348
-310.924	754.495	0.056	-0.150
-309.910	-79.343	0.267	-0.090
-308.895	-200.000	0.002	-0.134
-307.880	-200.000	-0.020	-0.129
-306.866	-200.000	-0.032	-0.301
-305.851	243.974	0.141	0.235
-304.837	-76.916	0.340	-0.118
-303.822	-200.000	-0.034	0.180
-302.807	224.460	0.189	0.303
-301.793	-200.000	-0.016	0.132
-300.778	468.820	0.068	-0.151
-299.764	-14.316	-0.152	-0.097
-298.749	-200.000	-0.005	0.033
-297.735	793.376	0.089	-0.244
-296.720	-200.000	-0.009	0.097
-295.705	800.000	-0.052	-0.149
-294.691	198.149	0.053	0.081
-293.676	-125.641	0.247	-0.037
-292.662	-89.484	0.096	-0.028
-291.647	181.471	-0.103	0.150
-290.632	99.663	0.067	-0.077
-289.618	-42.350	-0.102	0.052
-288.603	21.506	-0.153	-0.123
-287.589	269.743	-0.069	-0.120
-286.574	-141.846	-0.335	-0.033
-285.559	-53.571	0.085	0.038
-284.545	-200.000	0.004	0.028
-283.530	33.447	0.142	0.123
-282.516	-200.000	-0.047	-0.240
-281.501	121.996	0.146	-0.181
-280.486	-111.773	-0.236	0.047
-279.472	-200.000	-0.015	-0.239
-278.457	-200.000	-0.015	0.253
-277.443	740.229	-0.068	0.182
-276.428	-200.000	-0.018	0.355
-275.413	-200.000	0.008	-0.217
-274.399	-83.628	0.084	0.027
-273.384	315.415	-0.168	0.314
-272.370	-12.743	0.154	-0.100
-271.355	-101.715	0.361	-0.087
-270.340	173.629	-0.074	0.106
-269.326	-200.000	0.025	0.281
-268.311	-128.077	0.385	0.055
-267.297	468.253	-0.061	0.135
-266.282	-33.626	-0.194	0.106
-265.267	51.340	-0.018	0.017
-264.253	73.620	0.104	0.108
-263.238	-25.134	0.261	-0.154
-262.224	-116.106	-0.420	0.078
-261.209	-83.469	0.269	0.086
-260.195	-200.000	0.016	0.278
-259.180	-200.000	-0.002	-0.085
-258.165	-48.217	0.260	0.125
-257.151	10.910	-0.147	0.112
-256.136	52.842	-0.057	-0.054
-255.122	227.162	-0.208	0.336
-254.107	315.135	0.170	-0.318
-253.092	-31.963	-0.156	-0.087
-252.078	315.757	0.169	0.315
-251.063	-191.078	-0.338	-0.003
-250.049	-78.965	-0.092	0.031
-249.034	-69.193	0.368	0.140
-248.019	-143.264	-0.279	-0.027
-247.005	570.206	0.033	0.080
-245.990	-157.641	0.113	0.007
-244.976	-17.382	0.249	-0.155
-243.961	539.585	-0.101	-0.238
-242.946	170.944	0.057	-0.081
-241.932	29.440	-0.167	0.141
-240.917	800.000	0.041	0.141
-239.903	38.381	-0.100	0.088
-238.888	153.338	0.212	-0.288
-237.873	151.531	-0.134	-0.181
-236.859	218.810	-0.068	0.108
-235.844	-93.290	0.292	0.080
-234.830	7.004	0.076	0.056
-233.815	-96.287	-0.158	0.042
-232.800	-200.000	-0.013	0.075
-231.786	8.969	-0.235	-0.176
-230.771	-80.631	0.237	0.078
-229.757	800.000	-0.021	-0.066
-228.742	201.711	-0.122	0.186
-227.727	-133.820	0.132	-0.016
-226.713	-133.055	-0.243	0.031
-225.698	800.000	0.062	-0.231
-224.684	-200.000	-0.026	-0.463
-223.669	217.024	0.165	0.260
-222.655	61.939	-0.141	0.139
-221.640	459.212	0.084	0.186
-220.625	208.229	0.050	-0.077
-219.611	-37.967	-0.228	0.120
-218.596	138.327	0.061	-0.079
-217.582	-200.000	-0.016	0.098
-216.567	100.505	-0.008	0.009
-215.552	122.845	-0.029	0.037
-214.538	-100.738	0.131	-0.032
-213.523	-200.000	0.097	-0.000
-212.509	-185.645	-0.242	-0.004
-211.494	83.046	0.133	-0.144
-210.479	284.555	-0.099	0.177
-209.465	58.990	0.140	-0.137
-208.450	-135.166	-0.299	0.036
-207.436	7.859	0.207	0.154
-206.421	30.860	-0.155	0.132
-205.406	-200.000	0.029	-0.221
-204.392	-126.724	-0.204	-0.030
-203.377	-170.649	0.086	-0.003
-202.363	800.000	-0.067	0.183
-201.348	-200.000	0.014	-0.178
-200.333	-29.835	0.088	0.049
-199.319	-85.827	0.227	-0.070
-198.304	-200.000	0.009	0.400
-197.290	-139.696	-0.224	-0.024
-196.275	95.772	-0.173	-0.195
-195.260	129.956	-0.120	0.152
-194.246	74.145	0.260	0.270
-193.231	-162.359	0.305	0.015
-192.217	-200.000	0.040	-0.353
-191.202	55.378	-0.100	-0.096
-190.187	90.306	0.070	0.077
-189.173	154.186	-0.063	-0.085
-188.158	55.413	0.062	0.060
-187.144	-74.431	0.308	0.110
-186.129	-137.484	-0.236	0.026
-185.114	344.745	-0.138	0.267
-184.100	97.611	0.179	-0.204
-183.085	-139.911	-0.274	-0.029
-182.071	-68.551	-0.265	-0.102
-181.056	-123.822	-0.318	-0.050
-180.042	-200.000	0.048	-0.263
-179.027	800.000	0.166	-0.540
-178.012	-92.088	0.060	-0.017
-176.998	-134.747	-0.391	0.047
-175.983	285.542	-0.095	0.169
-174.969	800.000	-0.058	0.200
-173.954	26.291	0.145	-0.120
-172.939	-148.862	0.379	-0.030
-171.925	459.835	0.102	0.225
-170.910	-200.000	0.004	-0.188
-169.896	-200.000	0.021	-0.146
-168.881	-101.805	0.303	0.073
-167.866	-200.000	0.026	-0.158
-166.852	-130.938	-0.070	0.009
-165.837	612.017	-0.094	0.233
-164.823	-47.354	-0.010	-0.005
-163.808	-185.566	-0.214	0.003
-162.793	-200.000	0.008	0.117
-161.779	-86.052	0.224	0.068
-160.764	-22.351	0.273	0.164
-159.750	-200.000	-0.013	-0.283
-158.735	116.288	0.169	0.204
-157.720	37.553	0.280	-0.245
-156.706	68.454	0.210	-0.213
-155.691	740.672	-0.081	0.216
-154.677	153.814	-0.170	0.231
-153.662	769.641	-0.096	-0.258
-152.647	629.625	0.069	0.173
-151.633	-200.000	-0.021	0.473
-150.618	-113.807	0.243	0.047
-149.604	209.877	0.095	-0.147
-148.589	-39.483	-0.329	-0.170
-147.574	662.948	0.074	-0.190
-146.560	732.058	-0.024	0.063
-145.545	-31.370	-0.196	0.109
-144.531	-108.220	0.419	-0.090
-143.516	800.000	-0.072	-0.201
-142.502	565.149	-0.122	-0.292
-141.487	602.936	0.030	0.074
-140.472	-70.579	0.181	-0.068
-139.458	-62.171	0.048	-0.020
-138.443	543.032	-0.040	-0.094
-137.429	348.979	-0.031	0.060
-136.414	-101.536	-0.113	0.027
-135.399	-31.366	-0.079	-0.044
-134.385	-200.000	-0.007	-0.234
-133.370	-46.683	-0.108	-0.052
-132.356	111.082	-0.161	-0.192
-131.341	800.000	-0.111	-0.354
-130.326	652.366	0.069	-0.176
-129.312	599.749	-0.033	-0.080
-128.297	-81.176	-0.126	0.041
-127.283	-200.000	-0.018	-0.183
-126.268	148.256	-0.037	0.049
-125.253	-123.382	0.055	0.009
-124.239	-200.000	-0.022	0.124
-123.224	-110.807	-0.149	-0.030
-122.210	-47.695	0.120	0.057
-121.195	800.000	0.039	-0.125
-120.180	112.954	-0.055	-0.066
-119.166	572.054	-0.089	-0.213
-118.151	-101.645	0.011	0.003
-117.137	-142.490	-0.154	-0.015
-116.122	-52.305	0.383	0.175
-115.107	800.000	0.014	-0.046
-114.093	-200.000	-0.077	0.391
-113.078	-200.000	0.011	0.217
-112.064	113.133	0.148	0.177
-111.049	99.158	0.116	0.132
-110.034	332.673	-0.096	-0.183
-109.020	-200.000	0.008	-0.062
-108.005	-156.533	0.066	0.004
-106.991	800.000	-0.075	-0.234
-105.976	63.844	0.124	0.123
-104.962	-200.000	0.021	-0.145
-103.947	520.811	0.086	-0.200
-102.932	800.000	0.085	0.339
-101.918	300.313	0.057	0.104
-100.903	-200.000	-0.020	0.103
-99.889	-111.036	0.198	0.040
-98.874	-33.616	0.153	-0.083
-97.859	382.269	0.170	-0.344
-96.845	6.727	0.371	0.272
-95.830	800.000	0.025	-0.083
-94.816	83.165	0.061	0.066
-93.801	-122.637	0.343	-0.055
-92.786	-200.000	-0.001	-0.194
-91.772	5.241	-0.114	-0.083
-90.757	800.000	0.095	-0.353
-89.743	324.164	0.059	0.111
-88.728	-48.523	0.054	-0.025
-87.713	-121.049	-0.230	0.038
-86.699	161.343	-0.127	0.174
-85.684	-119.504	0.542	0.093
-84.670	-200.000	-0.005	0.264
-83.655	800.000	0.043	0.137
-82.640	-200.000	-0.003	0.120
-81.626	800.000	-0.136	-0.443
-80.611	341.849	-0.127	-0.245
-79.597	800.000	-0.048	-0.158
-78.582	6.103	-0.306	0.224
-77.567	-200.000	0.002	0.199
-76.553	15.387	-0.287	0.222
-75.538	-168.279	-0.313	0.012
-74.524	14.542	-0.087	0.067
-73.509	48.896	-0.023	-0.021
-72.494	-200.000	-0.002	-0.036
-71.480	-175.196	0.256	-0.007
-70.465	24.868	0.035	-0.028
-69.451	162.084	-0.059	-0.082
-68.436	-80.216	-0.179	-0.059
-67.422	-19.714	0.059	0.036
-66.407	-155.299	0.205	-0.013
-65.392	-200.000	-0.034	0.149
-64.378	-190.820	0.294	0.003
-63.363	-148.366	-0.215	-0.017
-62.349	9.307	0.053	0.040
-61.334	186.240	-0.770	-1.128
-60.319	31.135	0.749	0.633
-59.305	68.207	-0.721	-0.727
-58.290	800.000	0.442	1.210
-57.276	505.571	0.685	1.562
-56.261	-200.000	96.062	596.582
-55.246	564.861	1373.374	3276.336
-54.232	160.822	2551.205	3506.732
-53.217	113.298	2142.564	2558.617
-52.203	44.111	1604.256	1447.828
-51.188	35.707	1341.847	1160.501
-50.173	32.489	1300.287	1105.649
-49.159	54.610	1348.028	1278.937
-48.144	56.913	1364.310	1308.075
-47.130	35.835	1323.272	1145.017
-46.115	32.275	1305.687	1108.802
-45.100	32.082	1301.057	1103.696
-44.086	32.029	1298.464	1101.141
-43.071	32.005	1296.124	1098.971
-42.057	31.955	1293.784	1096.651
-41.042	31.990	1292.217	1095.486
-40.027	32.054	1290.671	1094.501
-39.013	31.982	1288.838	1092.483
-37.998	32.066	1287.024	1091.393
-36.984	32.089	1285.304	1090.022
-35.969	32.151	1283.560	1088.864
-34.954	32.118	1282.091	1087.380
-33.940	32.162	1280.510	1086.254
-32.925	32.217	1278.806	1085.083
-31.911	32.169	1277.863	1083.963
-30.896	32.172	1276.333	1082.636
-29.881	32.274	1274.533	1081.656
-28.867	32.287	1273.049	1080.428
-27.852	32.270	1271.862	1079.281
-26.838	32.237	1270.493	1077.882
-25.823	32.263	1269.253	1076.942
-24.809	32.325	1267.657	1075.899
-23.794	32.193	1266.771	1074.349
-22.779	32.237	1265.539	1073.513
-21.765	32.253	1264.032	1072.283
-20.750	32.293	1262.772	1071.401
-19.736	32.071	1261.463	1068.981
-18.721	32.041	1260.413	1067.878
-17.706	32.066	1259.191	1066.941
-16.692	32.063	1257.897	1065.789
-15.677	32.027	1256.903	1064.700
-14.663	32.043	1255.874	1063.877
-13.648	32.013	1254.590	1062.576
-12.633	32.065	1253.654	1062.037
-11.619	32.100	1252.747	1061.420
-10.604	32.119	1252.043	1060.893
-9.590	32.089	1250.800	1059.628
-8.575	32.084	1249.559	1058.504
-7.560	31.880	1249.166	1056.981
-6.546	32.021	1248.233	1056.940
-5.531	32.045	1247.243	1056.199
-4.517	32.011	1246.513	1055.346
-3.502	32.024	1245.666	1054.659
-2.487	32.084	1244.518	1053.983
-1.473	32.049	1240.387	1050.247
-0.458	30.611	1226.061	1030.118
0.556	27.009	1208.896	992.480
1.571	23.586	1214.093	977.834
2.586	22.731	1229.848	985.658
3.600	22.074	1218.561	972.890
4.615	15.665	1145.405	880.925
5.629	5.943	1068.903	774.260
6.644	1.909	1049.245	740.393
7.659	1.577	1046.238	736.600
8.673	1.400	1045.554	735.196
9.688	1.414	1044.339	734.343
10.702	1.702	1042.303	734.234
11.717	7.576	1050.967	768.775
12.731	17.813	1065.842	829.605
13.746	23.561	1072.981	863.141
14.761	24.926	1073.675	870.262
15.775	24.957	1074.004	870.603
16.790	24.794	1072.612	868.603
17.804	24.747	1072.086	867.875
18.819	24.802	1071.956	867.958
19.834	24.907	1071.550	868.060
20.848	25.080	1070.891	868.289
21.863	24.948	1070.319	867.110
22.877	24.937	1069.903	866.642
23.892	24.822	1069.141	865.392
24.907	24.958	1068.612	865.545
25.921	24.924	1067.078	864.061
26.936	25.011	1065.734	863.319
27.950	24.827	1064.466	861.326
28.965	24.812	1062.173	859.324
29.980	24.771	1061.606	858.594
30.994	24.996	1060.292	858.534
32.009	24.951	1059.077	857.258
33.023	24.877	1057.612	855.642
34.038	24.866	1057.238	855.214
35.053	24.908	1056.905	855.069
36.067	24.891	1055.995	854.173
37.082	25.001	1055.140	853.933
38.096	25.183	1054.537	854.236
39.111	25.486	1053.352	854.640
40.126	24.990	1052.358	851.404
41.140	24.751	1050.793	848.928
42.155	24.462	1049.608	846.521
43.169	24.564	1048.470	846.015
44.184	24.622	1047.518	845.446
45.199	24.459	1046.950	844.141
46.213	24.708	1045.785	844.302
47.228	24.699	1044.972	843.529
48.242	24.772	1044.309	843.263
49.257	25.028	1043.102	843.418
50.271	25.030	1042.661	843.000
51.286	25.025	1042.207	842.530
52.301	25.049	1041.108	841.684
53.315	24.970	1039.919	840.274
54.330	24.923	1038.954	839.202
55.344	24.924	1038.700	838.927
56.359	24.926	1037.561	837.945
57.374	24.747	1037.084	836.644
58.388	24.678	1036.217	835.550
59.403	24.682	1035.084	834.579
60.417	24.571	1034.378	833.418
61.432	24.661	1033.765	833.273
62.447	24.702	1033.260	832.982
63.461	24.764	1032.189	832.333
64.476	24.589	1031.138	830.601
65.490	24.578	1029.949	829.518
66.505	24.699	1029.462	829.613
67.520	24.763	1029.213	829.634
68.534	24.560	1028.012	827.652
69.549	24.248	1026.634	825.025
70.563	24.138	1026.109	824.022
71.578	24.255	1025.086	823.669
72.593	24.007	1024.455	821.942
73.607	24.169	1024.086	822.323
74.622	24.449	1024.122	823.573
75.636	24.508	1023.051	822.909
76.651	24.322	1022.147	821.255
77.666	24.248	1021.546	820.359
78.680	24.425	1020.484	820.247
79.695	24.367	1020.357	819.805
80.709	24.611	1019.511	820.171
81.724	24.558	1018.533	819.067
82.739	24.652	1017.954	818.963
83.753	24.940	1017.921	820.180
84.768	25.287	1016.780	820.778
85.782	25.432	1015.427	820.274
86.797	25.288	1014.789	819.032
87.812	25.134	1013.614	817.305
88.826	25.107	1013.155	816.743
89.841	25.094	1012.237	815.868
90.855	25.285	1011.224	815.848
91.870	25.282	1010.107	814.863
92.884	24.998	1009.397	812.930
93.899	25.140	1007.989	812.366
94.914	25.185	1007.839	812.376
95.928	25.102	1006.499	810.851
96.943	24.864	1005.121	808.594
97.957	24.591	1004.306	806.632
98.972	24.401	1003.291	804.889
99.987	24.701	1002.769	805.751
101.001	25.011	1001.997	806.455
102.016	24.913	1000.978	805.124
103.030	24.792	1000.559	804.174
104.045	24.728	999.522	802.980
105.060	24.478	998.508	800.972
106.074	24.613	997.934	801.049
107.089	24.952	997.532	802.171
108.103	24.858	996.246	800.646
109.118	24.661	994.973	798.671
110.133	24.725	994.093	798.181
111.147	24.497	992.599	795.897
112.162	24.426	991.793	794.862
113.176	24.646	991.360	795.424
114.191	24.448	990.649	793.903
115.206	24.192	989.486	791.763
116.220	24.348	988.471	791.574
117.235	24.370	988.059	791.269
118.249	24.335	987.382	790.504
119.264	24.222	986.571	789.281
120.279	24.397	985.545	789.170
121.293	24.404	985.086	788.761
122.308	24.413	984.182	788.007
123.322	24.354	982.508	786.339
124.337	24.153	981.624	784.673
125.352	23.731	979.796	781.287
126.366	23.616	979.273	780.295
127.381	24.447	979.349	783.938
128.395	24.822	978.919	785.173
129.410	24.875	978.299	784.837
130.424	24.821	976.965	783.463
131.439	24.830	975.721	782.433
132.454	24.800	975.139	781.769
133.468	24.813	974.197	780.999
134.483	24.942	973.352	780.816
135.497	25.087	972.819	780.950
136.512	25.122	972.152	780.499
137.527	25.122	971.207	779.669
138.541	25.091	970.845	779.174
139.556	25.094	969.735	778.230
140.570	25.353	968.906	778.619
141.585	25.237	967.765	777.129
142.600	25.137	967.027	776.038
143.614	25.345	966.243	776.236
144.629	25.445	965.899	776.324
145.643	25.211	964.397	774.039
146.658	25.091	962.751	772.132
147.673	25.115	961.799	771.407
148.687	25.066	960.776	770.307
149.702	24.822	960.004	768.572
150.716	24.798	959.136	767.704
151.731	25.099	958.179	768.159
152.746	25.312	957.919	768.798
153.760	25.261	957.649	768.291
154.775	25.293	956.934	767.789
155.789	25.281	955.590	766.592
156.804	25.358	954.887	766.288
157.819	25.328	954.050	765.419
158.833	25.576	953.404	765.893
159.848	25.467	952.244	764.429
160.862	25.156	951.510	762.447
161.877	25.276	949.975	761.660
162.892	25.350	949.308	761.372
163.906	25.242	948.656	760.322
164.921	25.208	947.563	759.236
165.935	25.403	946.686	759.292
166.950	25.245	945.814	757.858
167.964	25.349	944.961	757.545
168.979	25.073	943.947	755.504
169.994	25.081	943.275	754.932
171.008	25.453	942.402	755.733
172.023	25.301	941.785	754.532
173.037	25.161	940.837	753.118
174.052	25.059	939.558	751.597
175.067	25.032	939.222	751.149
176.081	25.026	938.845	750.757
177.096	25.144	937.925	750.449
178.110	24.779	936.945	748.071
179.125	24.566	936.421	746.698
180.140	24.579	936.036	746.379
181.154	24.877	935.805	747.372
182.169	25.233	935.371	748.445
183.183	25.429	934.937	748.848
184.198	25.216	934.168	747.281
185.213	25.278	932.995	746.531
186.227	25.390	932.758	746.744
187.242	25.234	932.556	745.866
188.256	25.252	931.779	745.254
189.271	25.411	930.799	745.064
190.286	25.123	929.519	742.782
191.300	24.536	927.921	739.011
192.315	23.592	926.651	734.032
193.329	23.699	926.134	733.997
194.344	24.619	926.651	738.145
195.359	25.199	926.566	740.406
196.373	25.230	926.478	740.397
197.388	25.102	925.708	739.191
198.402	25.276	924.672	739.014
199.417	25.163	924.233	738.135
200.432	24.938	923.219	736.333
201.446	24.688	922.850	734.944
202.461	24.833	922.467	735.172
203.475	23.847	920.443	729.448
204.490	23.194	918.998	725.565
205.504	24.078	919.469	729.496
206.519	24.630	919.577	731.779
207.534	24.823	918.931	731.988
208.548	25.345	918.306	733.559
209.563	24.970	917.625	731.418
210.577	24.947	916.913	730.694
211.592	25.397	916.654	732.254
212.607	25.396	915.785	731.495
213.621	25.458	915.628	731.557
214.636	25.429	914.444	730.429
215.650	25.250	913.770	729.098
216.665	25.363	913.389	729.188
217.680	25.362	912.503	728.410
218.694	24.946	911.335	725.729
219.709	24.855	910.383	724.539
220.723	25.169	910.256	725.645
221.738	25.191	909.695	725.223
222.753	25.008	909.182	724.009
223.767	25.243	908.553	724.394
224.782	25.330	908.441	724.591
225.796	25.480	907.635	724.489
226.811	24.812	906.032	720.457
227.826	24.135	905.176	716.988
228.840	24.415	904.638	717.623
229.855	24.407	903.753	716.826
230.869	24.019	903.032	714.632
231.884	24.534	902.803	716.456
232.899	25.317	903.056	719.734
233.913	25.046	902.487	718.129
234.928	25.123	901.918	717.920
235.942	24.817	901.117	715.996
236.957	24.731	900.002	714.702
237.972	24.643	899.876	714.188
238.986	24.820	899.001	714.139
240.001	24.891	898.657	714.084
241.015	25.044	898.007	714.115
242.030	24.986	897.965	713.785
243.045	25.347	897.135	714.501
244.059	25.371	896.796	714.262
245.074	25.012	895.595	711.817
246.088	24.879	894.718	710.531
247.103	25.033	894.534	710.930
248.117	25.712	894.596	713.610
249.132	25.849	894.307	713.859
250.147	26.133	893.783	714.502
251.161	26.043	893.457	713.822
252.176	26.051	892.264	712.839
253.190	26.119	891.852	712.714
254.205	26.332	891.846	713.487
255.220	26.340	890.735	712.566
256.234	26.124	889.930	711.008
257.249	25.969	889.325	709.854
258.263	26.118	888.537	709.746
259.278	26.183	887.895	709.428
260.293	26.142	887.663	709.018
261.307	26.059	886.882	708.004
262.322	25.932	885.851	706.623
263.336	25.036	884.265	701.788
264.351	23.958	882.329	695.972
265.366	24.250	882.229	696.976
266.380	25.362	882.932	701.816
267.395	25.724	882.516	702.838
268.409	25.506	881.792	701.349
269.424	25.826	881.207	702.067
270.439	25.732	880.730	701.259
271.453	25.956	880.232	701.675
272.468	26.042	879.847	701.639
273.482	26.215	879.394	701.887
274.497	25.728	878.036	698.854
275.512	25.443	877.086	696.931
276.526	25.885	877.126	698.615
277.541	26.041	876.561	698.706
278.555	25.746	875.982	697.041
279.570	25.639	875.433	696.127
280.585	25.823	874.651	696.157
281.599	25.700	873.911	695.032
282.614	25.102	872.610	691.628
283.628	25.069	872.425	691.294
284.643	25.335	871.952	691.883
285.657	25.102	870.975	690.149
286.672	24.977	869.922	688.773
287.687	25.462	869.880	690.541
288.701	25.480	869.542	690.281
289.716	25.264	868.695	688.718
290.730	25.099	868.035	687.501
291.745	24.916	866.746	685.721
292.760	25.197	866.749	686.737
293.774	26.228	867.058	690.867
294.789	26.426	867.044	691.553
295.803	26.324	866.918	691.000
296.818	26.499	865.899	690.797
297.833	25.985	864.859	687.947
298.847	25.958	863.980	687.082
299.862	26.158	863.925	687.738
300.876	26.420	863.860	688.624
301.891	26.364	862.695	687.422
302.906	25.834	862.290	685.023
303.920	26.014	862.001	685.416
304.935	26.421	861.656	686.629
305.949	26.404	860.384	685.489
306.964	25.964	860.466	683.825
307.979	26.171	859.797	684.019
308.993	26.446	859.838	685.031
310.008	26.471	858.884	684.306
311.022	26.253	857.776	682.538
312.037	26.171	857.281	681.773
313.052	25.899	856.104	679.752
314.066	25.099	854.796	675.641
315.081	24.649	854.180	673.399
316.095	25.558	854.427	676.959
317.110	26.070	854.060	678.533
318.125	25.257	852.529	674.203
319.139	24.350	851.024	669.552
320.154	24.340	850.622	669.136
321.168	25.032	851.467	672.340
322.183	25.983	851.201	675.634
323.197	26.039	851.092	675.699
324.212	26.220	850.883	676.150
325.227	26.108	850.224	675.151
326.241	25.992	849.365	673.973
327.256	25.954	848.589	673.155
328.270	25.832	848.376	672.472
329.285	25.633	847.733	671.161
330.300	25.474	846.546	669.569
331.314	25.847	846.399	670.782
332.329	26.241	846.004	671.874
333.343	26.415	845.675	672.204
334.358	26.278	845.534	671.520
335.373	26.327	845.203	671.382
336.387	26.612	845.029	672.244
337.402	26.718	845.027	672.573
338.416	26.687	844.451	671.941
339.431	26.702	844.412	671.905
340.446	26.952	844.173	672.584
341.460	26.737	843.456	671.158
342.475	26.570	842.781	669.942
343.489	26.811	842.675	670.690
344.504	27.042	842.068	671.001
345.519	27.136	842.075	671.295
346.533	27.284	841.149	671.044
347.548	27.160	840.945	670.363
348.562	26.998	840.202	669.116
349.577	27.033	839.543	668.661
350.592	26.929	839.026	667.805
351.606	27.063	838.256	667.627
352.621	26.910	837.366	666.296
353.635	26.817	836.595	665.284
354.650	26.401	834.745	662.230
355.665	25.089	833.950	656.739
356.679	25.583	833.492	658.127
357.694	26.080	832.921	659.436
358.708	25.957	832.613	658.685
359.723	26.196	833.036	659.835
360.738	26.659	832.139	660.755
361.752	26.776	831.653	660.734
362.767	27.190	831.406	661.989
363.781	27.434	831.282	662.722
364.796	27.298	830.920	661.879
365.810	27.529	830.226	662.105
366.825	27.420	830.082	661.536
367.840	27.059	829.181	659.449
368.854	26.675	828.587	657.525
369.869	26.817	827.803	657.361
370.883	26.812	827.141	656.757
371.898	26.806	826.788	656.399
372.913	26.827	826.635	656.293
373.927	27.045	826.350	656.798
374.942	27.050	826.133	656.586
375.956	27.145	825.518	656.383
376.971	27.279	825.193	656.548
377.986	27.344	824.826	656.435
379.000	27.365	824.167	655.926
380.015	27.239	823.581	654.951
381.029	27.245	822.937	654.402
382.044	27.317	822.370	654.149
383.059	27.523	821.569	654.196
384.073	27.513	820.964	653.620
385.088	27.466	820.294	652.858
386.102	27.253	819.644	651.521
387.117	26.961	819.595	650.380
388.132	26.770	818.354	648.654
389.146	26.429	816.757	646.112
390.161	26.615	817.445	647.265
391.175	27.090	817.212	648.718
392.190	26.923	815.934	647.051
393.205	25.496	814.017	640.393
394.219	23.950	812.017	633.266
395.234	23.942	812.009	633.175
396.248	25.522	813.181	639.659
397.263	26.931	814.177	645.402
398.278	26.791	813.695	644.464
399.292	26.726	812.935	643.574
400.307	26.624	812.585	642.877
401.321	26.964	811.990	643.555
402.336	27.108	812.493	644.410
403.350	27.525	812.408	645.763
404.365	27.742	812.172	646.288
405.380	28.121	811.653	647.158
406.394	28.045	811.197	646.468
407.409	27.988	810.571	645.712
408.423	27.863	810.076	644.817
409.438	28.054	809.953	645.338
410.453	28.247	809.064	645.252
411.467	28.025	808.990	644.353
412.482	28.090	808.326	643.995
413.496	28.175	808.484	644.365
414.511	28.146	807.929	643.763
415.526	28.154	807.239	643.186
416.540	28.044	806.661	642.281
417.555	27.756	805.925	640.625
418.569	27.826	805.492	640.473
419.584	27.816	804.775	639.810
420.599	27.644	804.194	638.689
421.613	110.423	1286.702	1458.768
422.628	95.315	1357.008	1458.868
