DTS Sentinel unit serial number:	SN413079Multiplexer serial number:	ORYXHardware model number:	OX4-SRSoftware version number:	ORYX F/W v4.00 Oryx Data Collector v3.7.2.0data status	okinstallation	princeton_trtdifferential loss correction	single-endedforward channel	channel 1reverse channel	N/Adate	2019/09/10time	21:04:12forward acquisition time	60.00reverse acquisition time	0.00gamma	496.2192k internal	0.2329k external	0.2329temperature offset calibration	0.9933default loss term (dB/km)	0.3790temperature slope calibration	1.0000multiplexer offset coefficient	1.0000multiplexer slope coefficient	1.0000fibre end	0.00T internal ref (°C)	31.56T ext. ref 1 (°C)	-0.32T ext. ref 2 (°C)	24.70length (m)	temperature (°C)	Stokes	anti-Stokes-747.200	-154.224	-0.208	-0.014
-746.185	-200.000	-0.013	0.280
-745.171	-118.294	0.102	-0.018
-744.156	-23.094	-0.249	0.151
-743.142	-85.494	-0.271	-0.085
-742.127	234.970	0.087	-0.144
-741.112	-91.297	-0.259	-0.075
-740.098	-200.000	-0.029	-0.166
-739.083	52.469	-0.083	0.080
-738.069	800.000	0.038	0.139
-737.054	800.000	0.034	-0.122
-736.039	54.031	-0.196	-0.190
-735.025	-55.699	0.213	-0.096
-734.010	-93.894	0.129	0.036
-732.996	-20.049	-0.122	-0.076
-731.981	-61.363	-0.416	-0.176
-730.966	426.374	0.055	0.119
-729.952	-35.358	-0.340	0.186
-728.937	-128.501	-0.356	0.051
-727.923	29.319	0.309	-0.264
-726.908	-73.650	-0.062	0.023
-725.894	134.898	-0.160	-0.209
-724.879	726.885	-0.092	0.247
-723.864	-200.000	-0.054	-0.263
-722.850	800.000	-0.055	-0.192
-721.835	-200.000	-0.047	-0.218
-720.821	800.000	0.102	-0.309
-719.806	9.612	-0.048	-0.037
-718.791	800.000	0.029	-0.088
-717.777	86.498	0.253	0.281
-716.762	-115.767	0.373	0.070
-715.748	166.265	-0.186	-0.265
-714.733	303.639	-0.123	-0.230
-713.718	-200.000	0.038	-0.176
-712.704	76.416	-0.142	-0.151
-711.689	153.448	0.097	-0.133
-710.675	-200.000	-0.033	0.174
-709.660	-187.896	0.196	0.003
-708.645	746.068	0.116	-0.315
-707.631	-200.000	0.011	-0.106
-706.616	800.000	-0.049	0.146
-705.602	-64.159	0.245	0.101
-704.587	-99.570	0.103	0.026
-703.572	-153.081	-0.115	-0.008
-702.558	284.597	0.119	-0.216
-701.543	-74.777	0.221	0.080
-700.529	-104.243	0.107	0.025
-699.514	271.839	-0.055	0.098
-698.499	-118.970	0.381	0.067
-697.485	480.627	-0.082	-0.187
-696.470	108.094	-0.144	-0.172
-695.456	111.256	-0.095	-0.115
-694.441	-158.681	0.253	-0.015
-693.426	2.726	-0.161	0.118
-692.412	-176.542	-0.210	0.005
-691.397	800.000	-0.103	0.338
-690.383	-123.505	-0.280	-0.045
-689.368	-200.000	0.067	-0.340
-688.354	-21.398	-0.209	0.128
-687.339	-152.302	-0.075	-0.005
-686.324	800.000	0.041	0.118
-685.310	-77.407	0.100	-0.035
-684.295	-12.134	-0.184	0.121
-683.281	-115.682	-0.214	0.040
-682.266	224.198	0.248	-0.403
-681.251	-39.513	0.519	-0.273
-680.237	-200.000	0.002	0.148
-679.222	-98.104	0.163	0.042
-678.208	-136.590	-0.334	0.039
-677.193	113.784	-0.179	-0.219
-676.178	-149.303	-0.038	0.003
-675.164	-69.731	-0.159	0.061
-674.149	-114.529	0.176	0.034
-673.135	-0.966	-0.136	0.097
-672.120	293.352	0.022	-0.040
-671.105	-2.900	0.160	-0.112
-670.091	-11.440	0.133	-0.088
-669.076	-200.000	0.018	0.212
-668.062	800.000	-0.037	-0.139
-667.047	-118.970	-0.238	-0.042
-666.032	14.045	-0.222	-0.173
-665.018	-200.000	0.006	-0.093
-664.003	-57.806	0.408	0.179
-662.989	-55.061	0.158	-0.072
-661.974	800.000	-0.057	0.167
-660.959	140.035	-0.246	-0.326
-659.945	-113.587	0.379	-0.074
-658.930	-198.326	0.403	-0.002
-657.916	-200.000	-0.021	-0.236
-656.901	800.000	0.065	0.234
-655.886	800.000	0.108	-0.432
-654.872	-95.290	-0.249	0.067
-653.857	-200.000	0.041	-0.209
-652.843	75.019	-0.194	-0.205
-651.828	-72.228	-0.207	-0.077
-650.814	112.855	-0.107	0.130
-649.799	-200.000	-0.021	0.112
-648.784	-83.990	-0.112	-0.036
-647.770	25.319	-0.145	-0.121
-646.755	-37.423	-0.363	-0.195
-645.741	-166.029	-0.262	-0.011
-644.726	-45.238	-0.143	0.071
-643.711	-137.863	0.317	-0.036
-642.697	98.437	0.186	-0.215
-641.682	-49.529	0.256	-0.122
-640.668	-200.000	0.023	-0.232
-639.653	-200.000	0.009	-0.127
-638.638	-64.655	0.291	-0.118
-637.624	6.578	-0.209	-0.156
-636.609	-165.562	0.168	0.007
-635.595	-200.000	-0.008	-0.056
-634.580	-195.396	0.215	-0.002
-633.565	248.920	-0.107	-0.182
-632.551	465.206	-0.065	-0.147
-631.536	180.884	-0.039	0.058
-630.522	348.724	-0.093	-0.184
-629.507	185.528	0.147	-0.219
-628.492	781.766	-0.065	0.178
-627.478	9.847	-0.248	0.189
-626.463	173.778	0.160	-0.231
-625.449	251.853	-0.142	0.243
-624.434	15.006	-0.167	0.131
-623.419	-63.615	-0.153	-0.063
-622.405	-104.914	-0.202	-0.046
-621.390	-200.000	0.013	0.066
-620.376	543.556	-0.074	0.177
-619.361	-72.456	0.052	-0.019
-618.346	-91.110	0.191	-0.055
-617.332	-133.025	-0.193	0.025
-616.317	800.000	0.036	-0.147
-615.303	-200.000	0.007	0.053
-614.288	290.460	0.128	-0.234
-613.273	-124.030	0.066	-0.010
-612.259	-13.658	-0.144	-0.093
-611.244	-200.000	0.012	-0.200
-610.230	-144.656	-0.147	-0.014
-609.215	-51.784	-0.272	-0.127
-608.201	152.946	-0.024	-0.033
-607.186	-17.259	-0.149	-0.094
-606.171	-200.000	0.052	-0.305
-605.157	-151.679	0.166	-0.012
-604.142	143.401	0.159	-0.213
-603.128	40.553	0.171	-0.155
-602.113	-46.824	0.297	-0.146
-601.098	800.000	-0.060	-0.224
-600.084	-153.200	0.087	0.006
-599.069	-200.000	-0.301	0.000
-598.055	-95.455	0.255	0.068
-597.040	-200.000	0.014	-0.110
-596.025	-187.456	-0.241	-0.003
-595.011	506.022	-0.160	0.370
-593.996	-142.916	-0.231	0.022
-592.982	800.000	0.112	0.416
-591.967	-105.875	-0.370	-0.084
-590.952	-200.000	0.045	-0.447
-589.938	33.093	-0.127	-0.110
-588.923	-200.000	-0.089	-0.403
-587.909	-46.756	-0.203	0.099
-586.894	-50.784	-0.176	0.083
-585.879	-36.381	0.252	-0.136
-584.865	707.791	-0.076	0.201
-583.850	77.643	0.118	-0.125
-582.836	73.363	0.127	-0.133
-581.821	253.402	0.068	0.117
-580.806	-106.215	-0.285	-0.064
-579.792	70.589	-0.208	0.216
-578.777	74.427	0.079	-0.083
-577.763	-200.000	0.037	-0.271
-576.748	-200.000	0.028	0.167
-575.733	-200.000	-0.018	-0.314
-574.719	-200.000	-0.000	-0.218
-573.704	-44.013	0.264	0.133
-572.690	259.403	-0.092	-0.158
-571.675	800.000	0.083	0.250
-570.661	800.000	-0.030	-0.127
-569.646	-43.870	-0.193	0.097
-568.631	54.041	-0.308	-0.296
-567.617	365.955	0.097	-0.196
-566.602	55.921	-0.094	-0.091
-565.588	87.604	0.295	0.326
-564.573	-22.071	0.078	-0.047
-563.558	-167.119	0.052	0.002
-562.544	578.503	0.085	0.208
-561.529	106.047	-0.163	0.193
-560.515	-200.000	-0.037	0.446
-559.500	-25.237	-0.072	-0.042
-558.485	271.105	-0.136	-0.240
-557.471	-116.169	-0.290	0.054
-556.456	84.810	-0.133	0.146
-555.442	800.000	0.019	-0.064
-554.427	489.633	0.192	-0.440
-553.412	230.413	-0.131	-0.214
-552.398	8.000	-0.042	0.032
-551.383	-64.391	0.095	0.039
-550.369	156.307	0.068	-0.094
-549.354	27.171	-0.097	0.082
-548.339	-200.000	0.003	0.103
-547.325	218.905	-0.105	-0.168
-546.310	382.006	-0.059	-0.120
-545.296	80.551	-0.085	-0.092
-544.281	-49.579	-0.212	0.101
-543.266	-200.000	-0.028	0.212
-542.252	146.074	0.052	-0.069
-541.237	-66.885	0.279	-0.110
-540.223	-200.000	0.004	-0.300
-539.208	-148.783	-0.189	0.015
-538.193	-179.353	-0.159	0.004
-537.179	-200.000	0.071	0.475
-536.164	800.000	0.049	0.144
-535.150	343.801	-0.079	0.154
-534.135	15.904	-0.201	-0.158
-533.121	-200.000	0.009	-0.268
-532.106	800.000	0.017	-0.075
-531.091	-200.000	0.018	0.132
-530.077	182.574	-0.148	0.218
-529.062	-61.748	0.364	0.152
-528.048	-14.008	0.184	-0.119
-527.033	-200.000	-0.028	-0.178
-526.018	-200.000	-0.016	-0.247
-525.004	121.000	0.081	0.101
-523.989	766.496	-0.080	-0.216
-522.975	-132.897	0.265	0.034
-521.960	800.000	-0.076	0.210
-520.945	237.741	-0.074	0.123
-519.931	-200.000	0.029	-0.193
-518.916	800.000	-0.048	-0.150
-517.902	-90.945	0.506	-0.145
-516.887	1.186	0.105	0.076
-515.872	-82.807	-0.018	-0.006
-514.858	231.237	0.041	-0.067
-513.843	-200.000	0.019	-0.221
-512.829	-155.584	0.195	0.013
-511.814	-116.937	-0.367	0.067
-510.799	-82.131	0.065	-0.021
-509.785	529.793	0.197	-0.464
-508.770	-30.993	0.151	-0.085
-507.756	-20.134	-0.283	-0.174
-506.741	-120.892	-0.288	-0.048
-505.726	-10.241	0.263	0.174
-504.712	167.595	0.055	0.078
-503.697	-137.590	0.315	-0.035
-502.683	81.450	0.077	0.083
-501.668	65.247	-0.021	-0.021
-500.653	71.714	0.063	0.066
-499.639	-129.297	-0.155	-0.022
-498.624	-200.000	-0.043	-0.237
-497.610	-56.693	0.111	0.049
-496.595	800.000	-0.225	0.758
-495.581	-85.966	-0.342	0.105
-494.566	-67.785	-0.328	0.128
-493.551	40.782	0.449	0.404
-492.537	-119.039	0.291	-0.051
-491.522	-200.000	-0.071	0.314
-490.508	-21.083	0.086	0.053
-489.493	771.429	0.085	0.232
-488.478	-17.509	-0.393	-0.247
-487.464	340.065	0.101	0.197
-486.449	1.247	-0.159	0.114
-485.435	-6.882	-0.149	0.101
-484.420	-127.707	-0.180	-0.026
-483.405	712.812	-0.232	-0.613
-482.391	-130.553	-0.394	-0.053
-481.376	-37.008	0.182	-0.097
-480.362	-74.124	0.360	-0.130
-479.347	45.792	-0.201	-0.185
-478.332	-177.876	-0.352	-0.008
-477.318	155.511	0.070	0.096
-476.303	234.402	0.094	-0.155
-475.289	47.594	0.271	-0.252
-474.274	-100.609	-0.151	0.037
-473.259	187.282	0.063	0.094
-472.245	121.592	0.270	0.335
-471.230	95.050	0.295	0.335
-470.216	393.383	0.222	-0.460
-469.201	-68.630	-0.083	0.032
-468.186	-200.000	0.043	0.208
-467.172	228.246	-0.238	0.386
-466.157	38.785	-0.105	-0.093
-465.143	-15.450	-0.282	0.179
-464.128	258.365	0.067	0.116
-463.113	375.534	-0.011	0.022
-462.099	-200.000	-0.011	0.153
-461.084	-103.707	-0.248	-0.058
-460.070	110.018	-0.115	0.138
-459.055	110.182	-0.145	-0.174
-458.040	-44.342	-0.306	-0.153
-457.026	-34.213	0.343	0.188
-456.011	-83.979	-0.140	0.044
-454.997	-35.589	0.213	-0.115
-453.982	-95.445	0.133	0.036
-452.968	-22.505	0.227	-0.137
-451.953	-61.072	-0.266	0.112
-450.938	-100.465	-0.187	-0.046
-449.924	218.922	0.238	0.379
-448.909	367.757	-0.078	-0.157
-447.895	-54.384	-0.441	0.199
-446.880	64.964	0.046	0.046
-445.865	-200.000	0.013	0.061
-444.851	671.267	-0.106	0.273
-443.836	-200.000	0.058	-0.377
-442.822	-124.982	-0.192	-0.029
-441.807	431.324	-0.124	-0.267
-440.792	85.239	-0.292	0.319
-439.778	-108.740	0.293	0.063
-438.763	40.736	0.035	-0.032
-437.749	27.109	-0.163	-0.136
-436.734	69.889	0.105	0.107
-435.719	48.774	-0.154	-0.144
-434.705	-200.000	0.048	0.262
-433.690	-200.000	0.066	-0.386
-432.676	288.097	-0.022	-0.040
-431.661	313.785	-0.103	0.193
-430.646	-64.214	0.327	-0.133
-429.632	-157.090	-0.141	-0.009
-428.617	-200.000	-0.047	0.382
-427.603	205.420	-0.178	0.275
-426.588	-80.898	-0.226	0.075
-425.573	-200.000	-0.002	0.037
-424.559	654.524	-0.123	-0.314
-423.544	116.741	0.104	-0.127
-422.530	-17.086	-0.086	-0.054
-421.515	-164.641	-0.319	-0.014
-420.500	800.000	-0.079	-0.217
-419.486	-32.060	0.084	-0.047
-418.471	52.501	-0.234	0.222
-417.457	-65.592	0.290	0.116
-416.442	121.265	0.080	0.099
-415.428	-154.926	-0.314	-0.021
-414.413	253.473	0.162	0.275
-413.398	-200.000	-0.007	0.038
-412.384	-148.886	0.112	-0.009
-411.369	-75.933	-0.480	0.169
-410.355	-1.523	-0.137	0.096
-409.340	-200.000	0.253	-0.001
-408.325	88.590	0.387	0.427
-407.311	-112.793	0.113	0.022
-406.296	-200.000	-0.054	0.314
-405.282	270.351	0.096	-0.167
-404.267	-142.949	-0.046	0.004
-403.252	84.436	0.134	0.146
-402.238	-95.917	-0.131	-0.035
-401.223	-92.037	0.070	-0.020
-400.209	-200.000	0.016	0.200
-399.194	-88.540	-0.178	-0.053
-398.179	-95.499	0.064	-0.017
-397.165	121.130	0.091	0.113
-396.150	1.104	-0.113	0.080
-395.136	-40.326	-0.265	0.137
-394.121	-49.496	0.171	-0.081
-393.106	-72.975	-0.244	0.089
-392.092	-14.768	-0.201	0.128
-391.077	139.016	0.166	-0.217
-390.063	58.108	-0.104	-0.101
-389.048	-200.000	-0.051	0.329
-388.033	66.146	-0.079	0.080
-387.019	-200.000	-0.014	-0.063
-386.004	-200.000	-0.007	-0.066
-384.990	56.899	0.413	-0.400
-383.975	800.000	-0.052	0.217
-382.960	800.000	0.036	0.103
-381.946	452.388	0.065	-0.142
-380.931	-52.170	0.177	-0.082
-379.917	142.274	0.124	0.164
-378.902	536.015	-0.074	0.174
-377.888	-200.000	0.000	0.327
-376.873	49.700	0.248	-0.232
-375.858	-3.535	0.223	0.154
-374.844	-200.000	0.015	0.322
-373.829	-170.672	-0.288	0.010
-372.815	-200.000	-0.016	-0.080
-371.800	311.428	-0.099	-0.185
-370.785	-148.239	0.320	-0.026
-369.771	-118.745	0.092	-0.016
-368.756	21.019	-0.130	-0.105
-367.742	800.000	0.035	0.117
-366.727	800.000	0.051	-0.176
-365.712	-73.224	0.168	-0.061
-364.698	-67.096	0.234	0.092
-363.683	213.381	0.059	-0.092
-362.669	-117.803	-0.051	0.009
-361.654	-200.000	-0.020	0.102
-360.639	-200.000	0.019	-0.129
-359.625	-181.361	-0.126	0.002
-358.610	131.623	0.082	-0.105
-357.596	-200.000	-0.022	-0.138
-356.581	112.042	-0.071	-0.085
-355.566	800.000	-0.225	-0.661
-354.552	-200.000	-0.070	0.341
-353.537	-82.660	-0.324	-0.104
-352.523	123.988	-0.233	0.290
-351.508	-120.034	0.184	-0.031
-350.493	48.764	-0.034	-0.031
-349.479	80.265	-0.190	0.203
-348.464	-125.929	0.123	-0.018
-347.450	-200.000	-0.002	-0.242
-346.435	73.474	-0.161	0.167
-345.420	-200.000	0.051	0.261
-344.406	14.972	-0.392	-0.304
-343.391	89.047	0.220	-0.243
-342.377	33.546	0.278	0.240
-341.362	-139.346	-0.217	-0.023
-340.348	490.162	-0.080	-0.182
-339.333	8.946	0.229	0.172
-338.318	-96.356	-0.142	-0.037
-337.304	-95.575	-0.328	0.087
-336.289	-19.436	-0.104	0.064
-335.275	-1.912	0.128	0.089
-334.260	800.000	-0.022	0.086
-333.245	-19.414	0.163	-0.100
-332.231	89.744	0.122	-0.135
-331.216	-0.687	0.145	0.102
-330.202	3.206	-0.166	-0.120
-329.187	-148.311	-0.385	0.031
-328.172	131.514	0.194	0.247
-327.158	-171.607	-0.134	0.004
-326.143	-200.000	0.032	-0.282
-325.129	-108.191	0.050	0.011
-324.114	-126.869	-0.275	0.040
-323.099	-118.736	0.208	0.036
-322.085	-200.000	0.056	0.284
-321.070	-33.168	-0.260	-0.143
-320.056	211.529	-0.094	-0.147
-319.041	17.777	-0.108	-0.085
-318.026	-200.000	-0.039	-0.314
-317.012	117.878	0.077	0.094
-315.997	-17.858	-0.036	-0.022
-314.983	-71.746	-0.175	0.065
-313.968	342.381	0.049	0.096
-312.953	7.076	0.208	0.153
-311.939	365.288	-0.100	-0.200
-310.924	563.833	-0.012	-0.028
-309.910	-138.964	0.200	-0.021
-308.895	31.913	-0.084	-0.071
-307.880	-7.737	0.279	-0.187
-306.866	495.392	0.131	-0.299
-305.851	635.279	-0.056	0.140
-304.837	138.796	-0.076	0.099
-303.822	-58.448	0.251	0.108
-302.807	800.000	-0.033	-0.109
-301.793	-130.395	0.436	-0.058
-300.778	684.160	-0.069	-0.178
-299.764	-154.903	0.069	0.004
-298.749	800.000	-0.080	0.299
-297.735	800.000	0.035	0.129
-296.720	-34.061	-0.112	-0.061
-295.705	53.312	-0.176	-0.167
-294.691	-72.836	-0.164	-0.060
-293.676	610.291	-0.037	-0.091
-292.662	-92.209	0.332	-0.093
-291.647	-41.942	-0.188	-0.096
-290.632	344.755	0.062	0.121
-289.618	-200.000	-0.036	-0.236
-288.603	-27.413	0.080	0.046
-287.589	-37.187	-0.144	-0.076
-286.574	-84.100	0.245	0.077
-285.559	789.562	-0.142	0.386
-284.545	-135.182	0.117	-0.014
-283.530	-200.000	-0.017	0.185
-282.516	-75.171	-0.059	-0.021
-281.501	-72.526	0.072	-0.026
-280.486	800.000	0.056	0.223
-279.472	-114.408	0.177	0.034
-278.457	29.222	0.255	0.214
-277.443	-79.376	-0.350	0.117
-276.428	13.761	-0.108	-0.083
-275.413	287.842	-0.132	0.236
-274.399	-200.000	0.040	0.236
-273.384	-34.477	-0.340	-0.184
-272.370	-200.000	0.022	-0.338
-271.355	-145.807	0.219	-0.019
-270.340	-200.000	0.000	0.005
-269.326	324.813	-0.096	-0.181
-268.311	189.883	0.049	-0.073
-267.297	31.524	0.199	-0.169
-266.282	461.020	0.167	0.367
-265.267	-7.197	0.324	0.218
-264.253	-89.171	0.228	-0.067
-263.238	135.892	0.097	0.125
-262.224	-53.059	-0.013	0.006
-261.209	106.015	0.046	0.054
-260.195	800.000	0.036	-0.098
-259.180	162.086	-0.042	-0.058
-258.165	445.122	-0.059	-0.127
-257.151	255.948	-0.134	-0.227
-256.136	-200.000	-0.001	0.037
-255.122	-157.538	0.128	0.008
-254.107	-74.731	0.422	0.150
-253.092	-132.404	-0.223	-0.028
-252.078	-62.963	0.131	-0.053
-251.063	-104.993	0.315	-0.071
-250.049	188.649	0.221	0.326
-249.034	-200.000	0.017	0.467
-248.019	-89.551	0.203	0.059
-247.005	800.000	-0.024	0.094
-245.990	63.177	0.181	0.179
-244.976	-200.000	0.016	-0.104
-243.961	51.377	0.236	-0.222
-242.946	67.075	0.229	-0.231
-241.932	273.317	-0.096	0.168
-240.917	163.366	0.157	-0.218
-239.903	468.054	0.167	0.370
-238.888	800.000	0.101	-0.333
-237.873	204.943	0.082	-0.126
-236.859	-200.000	0.040	0.228
-235.844	231.065	0.093	0.150
-234.830	184.531	0.201	-0.295
-233.815	-114.481	0.069	0.013
-232.800	-96.737	0.219	-0.057
-231.786	-56.086	0.215	-0.094
-230.771	82.857	-0.198	0.212
-229.757	-154.538	0.203	-0.013
-228.742	-200.000	0.011	-0.242
-227.727	738.163	0.057	0.151
-226.713	169.877	0.014	0.020
-225.698	702.378	-0.012	0.032
-224.684	-101.533	-0.240	-0.058
-223.669	-124.343	-0.164	0.025
-222.655	-116.375	0.318	0.058
-221.640	-64.841	-0.014	0.006
-220.625	-17.394	0.132	-0.082
-219.611	33.745	-0.271	0.233
-218.596	-141.332	0.319	0.032
-217.582	30.869	0.213	-0.180
-216.567	85.427	0.174	0.188
-215.552	-200.000	0.018	0.183
-214.538	-74.135	0.141	0.051
-213.523	-86.769	0.117	0.035
-212.509	-200.000	0.023	0.182
-211.494	111.910	0.243	-0.290
-210.479	530.722	-0.131	0.306
-209.465	-200.000	0.016	0.286
-208.450	-200.000	-0.375	0.000
-207.436	-84.862	-0.281	0.087
-206.421	-85.758	0.379	0.116
-205.406	475.793	0.079	0.175
-204.392	287.022	-0.068	0.121
-203.377	8.483	-0.064	-0.048
-202.363	800.000	-0.054	0.182
-201.348	423.753	0.085	0.180
-200.333	-7.833	0.340	0.226
-199.319	4.434	0.128	-0.093
-198.304	-54.510	0.303	-0.135
-197.290	-200.000	0.014	0.153
-196.275	800.000	-0.032	0.117
-195.260	673.428	0.069	-0.176
-194.246	-31.535	-0.318	-0.176
-193.231	350.194	-0.219	-0.428
-192.217	144.171	0.081	-0.107
-191.202	-15.911	0.297	0.187
-190.187	800.000	0.127	-0.391
-189.173	-73.309	0.332	0.120
-188.158	-135.603	0.215	-0.025
-187.144	364.080	0.120	-0.239
-186.129	348.476	0.203	0.394
-185.114	185.738	-0.069	0.102
-184.100	-26.731	-0.255	0.147
-183.085	-200.000	0.004	-0.127
-182.071	-46.601	-0.180	-0.087
-181.056	-105.074	-0.211	-0.048
-180.042	341.652	-0.046	0.089
-179.027	-115.930	-0.173	0.032
-178.012	-82.966	0.250	0.079
-176.998	-113.185	-0.498	0.097
-175.983	-51.952	-0.527	0.242
-174.969	-49.426	-0.064	0.030
-173.954	-59.791	-0.289	-0.122
-172.939	-152.056	0.138	0.010
-171.925	-139.302	0.168	-0.018
-170.910	31.473	0.115	-0.097
-169.896	-98.344	0.068	0.017
-168.881	-102.022	0.099	-0.024
-167.866	-42.878	-0.310	0.155
-166.852	546.153	-0.056	-0.131
-165.837	-44.206	0.073	-0.036
-164.823	296.615	-0.125	-0.227
-163.808	800.000	0.108	0.356
-162.793	-62.896	-0.144	0.059
-161.779	185.588	-0.122	0.178
-160.764	-21.264	0.329	0.198
-159.750	-200.000	-0.034	0.196
-158.735	-4.740	-0.087	-0.059
-157.720	-29.255	-0.312	0.176
-156.706	-200.000	0.018	-0.128
-155.691	800.000	0.045	-0.150
-154.677	-200.000	-0.097	-0.441
-153.662	-84.758	0.163	-0.051
-152.647	146.934	0.170	-0.225
-151.633	-200.000	0.096	-0.425
-150.618	15.323	-0.182	-0.140
-149.604	-144.196	-0.203	-0.019
-148.589	131.510	0.223	0.282
-147.574	800.000	-0.068	-0.274
-146.560	302.118	-0.053	-0.097
-145.545	-174.132	0.412	-0.012
-144.531	-200.000	-0.040	-0.195
-143.516	-93.027	-0.074	-0.020
-142.502	304.546	0.112	0.205
-141.487	-67.960	0.233	0.089
-140.472	-200.000	-0.013	-0.092
-139.458	-42.036	-0.328	-0.165
-138.443	800.000	-0.088	-0.255
-137.429	243.517	0.024	0.040
-136.414	43.823	-0.111	0.100
-135.399	-200.000	0.028	-0.198
-134.385	542.491	0.077	-0.181
-133.370	-115.741	0.237	-0.044
-132.356	63.242	0.110	-0.108
-131.341	64.190	0.435	-0.430
-130.326	8.453	-0.360	0.267
-129.312	-70.235	0.283	-0.106
-128.297	-178.573	0.238	-0.005
-127.283	800.000	0.117	0.326
-126.268	-140.074	0.293	0.030
-125.253	-184.440	0.174	-0.003
-124.239	800.000	-0.060	0.250
-123.224	-1.453	0.130	0.090
-122.210	360.938	0.217	-0.427
-121.195	129.256	0.057	-0.071
-120.180	63.254	0.045	-0.045
-119.166	353.749	0.151	-0.295
-118.151	-36.994	-0.083	0.044
-117.137	192.676	0.170	-0.252
-116.122	-10.313	0.093	-0.060
-115.107	-44.393	-0.217	0.107
-114.093	-103.257	0.314	0.073
-113.078	127.436	-0.147	-0.183
-112.064	-123.965	-0.229	0.035
-111.049	800.000	0.028	0.115
-110.034	-133.015	-0.081	-0.010
-109.020	188.754	0.148	-0.218
-108.005	258.502	0.132	0.224
-106.991	-200.000	0.096	0.432
-105.976	48.642	0.335	0.309
-104.962	-200.000	-0.028	0.173
-103.947	-200.000	-0.048	-0.222
-102.932	180.445	-0.064	0.092
-101.918	800.000	-0.107	-0.291
-100.903	-19.762	0.266	-0.162
-99.889	156.279	-0.133	0.181
-98.874	276.186	0.187	0.326
-97.859	-200.000	0.013	-0.106
-96.845	-200.000	-0.021	-0.249
-95.830	478.948	-0.118	0.264
-94.816	6.860	0.112	0.082
-93.801	-50.344	-0.041	0.019
-92.786	-62.410	0.228	-0.093
-91.772	-200.000	0.018	0.248
-90.757	171.460	-0.096	0.135
-89.743	-200.000	0.022	0.137
-88.728	-200.000	-0.008	0.323
-87.713	98.801	-0.111	0.126
-86.699	800.000	0.050	-0.184
-85.684	-200.000	-0.021	0.156
-84.670	-126.815	0.295	-0.043
-83.655	-200.000	-0.002	0.097
-82.640	27.264	0.281	0.232
-81.626	-200.000	-0.035	0.306
-80.611	115.670	-0.166	0.200
-79.597	800.000	0.039	-0.116
-78.582	-90.024	0.350	-0.100
-77.567	-121.147	0.269	0.044
-76.553	50.389	-0.212	0.197
-75.538	-60.578	-0.288	-0.120
-74.524	-119.797	0.133	0.022
-73.509	800.000	-0.024	-0.100
-72.494	632.056	0.058	-0.144
-71.480	726.076	0.080	0.210
-70.465	252.856	0.219	-0.366
-69.451	301.467	-0.044	-0.080
-68.436	800.000	-0.097	-0.284
-67.422	134.613	0.172	-0.218
-66.407	33.786	-0.111	-0.095
-65.392	592.801	0.040	0.097
-64.378	25.173	0.128	0.104
-63.363	176.371	-0.070	-0.100
-62.349	-61.550	-0.085	0.035
-61.334	9.651	-0.979	-0.728
-60.319	93.834	0.448	0.498
-59.305	568.458	-0.467	-1.114
-58.290	93.685	0.670	0.744
-57.276	800.000	0.426	1.449
-56.261	-200.000	97.815	608.055
-55.246	606.276	1398.586	3417.889
-54.232	193.646	2589.539	3842.882
-53.217	117.805	2143.490	2588.098
-52.203	43.826	1598.325	1435.010
-51.188	35.194	1336.700	1148.617
-50.173	31.945	1295.879	1094.574
-49.159	54.023	1344.906	1267.711
-48.144	56.229	1361.278	1296.190
-47.130	35.298	1318.837	1133.700
-46.115	31.740	1301.871	1098.255
-45.100	31.506	1296.777	1092.547
-44.086	31.427	1294.320	1089.978
-43.071	31.536	1291.684	1088.344
-42.057	31.398	1289.706	1085.839
-41.042	31.486	1288.321	1085.134
-40.027	31.585	1286.912	1084.480
-39.013	31.540	1284.834	1082.428
-37.998	31.502	1283.211	1080.796
-36.984	31.641	1280.982	1079.678
-35.969	31.605	1279.709	1078.355
-34.954	31.622	1278.063	1077.026
-33.940	31.596	1276.987	1075.923
-32.925	31.646	1275.379	1074.816
-31.911	31.681	1273.658	1073.521
-30.896	31.601	1272.725	1072.232
-29.881	31.735	1270.964	1071.473
-28.867	31.666	1269.832	1070.081
-27.852	31.590	1268.153	1068.191
-26.838	31.684	1267.024	1067.733
-25.823	31.758	1265.221	1066.596
-24.809	31.602	1264.570	1065.117
-23.794	31.709	1262.927	1064.295
-22.779	31.655	1261.574	1062.808
-21.765	31.666	1260.412	1061.848
-20.750	31.762	1258.493	1060.737
-19.736	31.535	1257.409	1058.493
-18.721	31.602	1255.796	1057.473
-17.706	31.479	1255.619	1056.585
-16.692	31.330	1254.337	1054.629
-15.677	31.422	1253.314	1054.245
-14.663	31.482	1251.721	1053.201
-13.648	31.432	1250.901	1052.188
-12.633	31.492	1249.296	1051.131
-11.619	31.490	1248.752	1050.620
-10.604	31.421	1248.318	1049.829
-9.590	31.461	1247.207	1049.077
-8.575	31.517	1245.617	1048.010
-7.560	31.428	1245.549	1047.409
-6.546	31.535	1244.358	1046.968
-5.531	31.453	1243.440	1045.697
-4.517	31.600	1242.095	1045.343
-3.502	31.458	1241.982	1044.414
-2.487	31.570	1240.807	1044.008
-1.473	31.539	1236.584	1040.240
-0.458	29.814	1221.578	1018.095
0.556	23.846	1203.674	978.714
1.571	20.165	1207.915	961.697
2.586	19.102	1222.898	967.568
3.600	18.982	1211.994	958.184
4.615	13.623	1141.226	873.971
5.629	4.515	1065.125	770.613
6.644	-0.003	1044.467	733.592
7.659	-0.352	1042.596	730.512
8.673	-0.436	1041.513	729.283
9.688	-0.488	1039.924	727.850
10.702	-0.043	1037.972	728.580
11.717	5.502	1046.203	761.324
12.731	14.568	1058.944	815.000
13.746	18.601	1063.847	838.456
14.761	18.958	1063.694	840.007
15.775	19.011	1063.148	839.757
16.790	18.593	1061.981	836.723
17.804	18.418	1061.639	835.525
18.819	18.494	1061.490	835.704
19.834	18.622	1060.623	835.574
20.848	18.604	1059.980	834.905
21.863	18.709	1058.927	834.511
22.877	18.567	1058.832	833.672
23.892	18.588	1058.411	833.368
24.907	18.524	1057.772	832.483
25.921	18.712	1056.244	832.117
26.936	18.665	1054.771	830.657
27.950	18.612	1053.091	829.004
28.965	18.419	1051.576	826.804
29.980	18.314	1050.082	825.052
30.994	18.738	1048.573	825.833
32.009	18.648	1047.330	824.348
33.023	18.485	1045.981	822.432
34.038	18.636	1045.057	822.356
35.053	18.766	1045.007	822.868
36.067	18.685	1043.775	821.437
37.082	18.737	1043.151	821.121
38.096	18.763	1042.357	820.549
39.111	18.986	1041.457	820.832
40.126	18.815	1040.167	818.928
41.140	18.633	1038.124	816.379
42.155	18.368	1037.042	814.200
43.169	18.475	1035.203	813.188
44.184	18.480	1034.522	812.609
45.199	18.320	1033.438	810.928
46.213	18.427	1032.451	810.584
47.228	18.359	1031.934	809.789
48.242	18.492	1030.465	809.190
49.257	18.482	1030.210	808.871
50.271	18.734	1028.934	808.987
51.286	18.633	1027.821	807.565
52.301	18.684	1026.885	806.995
53.315	18.604	1025.982	805.840
54.330	18.746	1024.714	805.437
55.344	18.719	1024.030	804.702
56.359	18.630	1023.067	803.459
57.374	18.577	1022.176	802.440
58.388	18.456	1021.767	801.483
59.403	18.505	1020.706	800.805
60.417	18.390	1019.508	799.262
61.432	18.557	1018.779	799.397
62.447	18.636	1018.089	799.152
63.461	18.595	1017.381	798.336
64.476	18.492	1016.274	796.916
65.490	18.505	1015.219	796.077
66.505	18.490	1014.458	795.343
67.520	18.492	1014.279	795.141
68.534	18.397	1012.811	793.482
69.549	18.044	1011.910	791.071
70.563	18.125	1011.284	790.883
71.578	18.118	1009.924	789.719
72.593	17.985	1009.051	788.352
73.607	18.189	1008.339	788.669
74.622	18.357	1008.672	789.632
75.636	18.476	1007.480	789.177
76.651	18.300	1006.383	787.441
77.666	18.300	1006.074	787.129
78.680	18.182	1005.413	785.999
79.695	18.331	1004.606	785.982
80.709	18.381	1003.870	785.565
81.724	18.410	1002.838	784.824
82.739	18.478	1002.061	784.457
83.753	18.711	1001.702	785.172
84.768	18.913	1000.730	785.264
85.782	18.931	1000.137	784.808
86.797	18.900	998.369	783.213
87.812	18.709	997.905	781.908
88.826	18.893	996.508	781.583
89.841	18.834	995.784	780.679
90.855	18.824	994.965	779.919
91.870	18.931	993.270	779.006
92.884	18.816	992.438	777.766
93.899	18.693	991.579	776.468
94.914	18.877	991.020	776.794
95.928	18.679	989.470	774.615
96.943	18.520	988.541	773.103
97.957	18.373	987.172	771.300
98.972	18.240	986.274	769.931
99.987	18.458	985.694	770.392
101.001	18.724	984.887	770.887
102.016	18.541	984.049	769.342
103.030	18.459	983.113	768.176
104.045	18.313	981.812	766.437
105.060	18.189	980.907	765.109
106.074	18.509	979.948	765.723
107.089	18.761	979.563	766.478
108.103	18.808	978.194	765.550
109.118	18.623	977.046	763.759
110.133	18.591	976.127	762.833
111.147	18.418	974.913	761.047
112.162	18.162	974.079	759.190
113.176	18.477	973.329	759.940
114.191	18.313	972.472	758.477
115.206	18.193	970.760	756.541
116.220	18.156	970.525	756.128
117.235	18.246	969.574	755.719
118.249	18.268	968.727	755.086
119.264	18.300	967.741	754.392
120.279	18.210	967.388	753.656
121.293	18.425	966.318	753.701
122.308	18.444	965.532	753.105
123.322	18.379	964.274	751.769
124.337	18.332	962.755	750.315
125.352	17.878	960.550	746.546
126.366	17.829	959.589	745.519
127.381	18.549	959.453	748.489
128.395	18.716	959.239	748.987
129.410	18.724	958.353	748.262
130.424	18.766	957.004	747.323
131.439	18.841	955.816	746.657
132.454	18.665	955.412	745.513
133.468	18.700	954.112	744.584
134.483	18.772	953.393	744.269
135.497	18.923	952.532	744.186
136.512	18.835	951.959	743.290
137.527	18.948	951.028	742.986
138.541	18.934	949.940	742.010
139.556	18.956	949.321	741.556
140.570	18.989	948.369	740.887
141.585	18.911	947.335	739.677
142.600	18.887	946.410	738.787
143.614	18.915	945.980	738.508
144.629	19.040	944.933	738.162
145.643	19.065	943.558	737.128
146.658	18.856	942.192	735.102
147.673	18.885	941.022	734.250
148.687	18.857	940.091	733.336
149.702	18.793	939.203	732.306
150.716	18.644	938.387	730.970
151.731	18.839	937.833	731.306
152.746	19.161	936.630	731.669
153.760	19.161	936.527	731.527
154.775	19.207	935.627	730.953
155.789	19.128	934.717	729.841
156.804	19.069	934.050	729.008
157.819	19.115	933.117	728.408
158.833	19.163	932.541	728.098
159.848	19.084	931.634	726.991
160.862	18.832	930.719	725.150
161.877	19.078	929.539	725.205
162.892	19.169	928.493	724.706
163.906	19.194	927.315	723.829
164.921	19.192	926.596	723.193
165.935	19.141	925.816	722.308
166.950	19.021	924.833	720.974
167.964	18.989	924.249	720.322
168.979	18.919	923.218	719.161
169.994	19.009	921.983	718.511
171.008	19.098	921.379	718.350
172.023	19.061	920.519	717.461
173.037	18.807	919.543	715.577
174.052	18.922	918.330	715.048
175.067	18.979	918.024	714.984
176.081	18.954	918.002	714.800
177.096	18.939	916.868	713.791
178.110	18.698	915.627	711.764
179.125	18.475	914.912	710.221
180.140	18.559	914.999	710.573
181.154	18.629	914.581	710.476
182.169	18.884	914.344	711.285
183.183	19.183	913.682	711.941
184.198	19.057	912.784	710.658
185.213	19.051	912.142	710.071
186.227	19.251	911.209	710.106
187.242	19.031	910.754	708.784
188.256	19.206	909.564	708.514
189.271	19.185	909.137	708.032
190.286	18.982	907.723	706.034
191.300	18.521	906.629	703.230
192.315	17.886	904.911	699.234
193.329	17.779	904.998	698.805
194.344	18.544	905.115	701.964
195.359	19.091	904.577	703.722
196.373	19.079	904.231	703.344
197.388	18.930	903.715	702.271
198.402	18.752	903.256	701.124
199.417	18.797	901.958	700.240
200.432	18.685	900.999	698.977
201.446	18.467	900.615	697.729
202.461	18.486	899.988	697.257
203.475	17.740	897.960	692.596
204.490	17.074	897.068	689.145
205.504	18.026	897.479	693.266
206.519	18.601	897.491	695.543
207.534	18.793	896.377	695.398
208.548	19.224	896.467	697.150
209.563	18.751	895.691	694.573
210.577	18.863	895.320	694.674
211.592	19.198	894.517	695.342
212.607	19.114	893.473	694.131
213.621	19.268	893.122	694.416
214.636	19.182	892.319	693.388
215.650	18.970	891.611	691.921
216.665	19.228	891.112	692.511
217.680	19.116	890.162	691.261
218.694	18.739	889.055	688.830
219.709	18.648	888.251	687.781
220.723	18.779	888.114	688.136
221.738	18.951	887.155	688.023
222.753	19.110	886.667	688.220
223.767	19.052	886.282	687.625
224.782	19.284	885.869	688.173
225.796	19.352	884.823	687.570
226.811	18.754	882.996	683.711
227.826	18.081	882.114	680.287
228.840	18.327	881.917	681.055
229.855	18.376	880.912	680.411
230.869	18.082	879.881	678.391
231.884	18.527	880.018	680.203
232.899	19.198	880.184	682.929
233.913	19.100	879.262	681.768
234.928	19.082	878.867	681.328
235.942	19.124	877.869	680.663
236.957	18.835	877.025	678.805
237.972	18.712	876.771	678.063
238.986	18.961	875.935	678.337
240.001	18.732	875.499	677.039
241.015	18.969	874.782	677.355
242.030	19.170	874.110	677.569
243.045	19.141	873.653	677.038
244.059	19.203	873.476	677.087
245.074	19.043	872.544	675.675
246.088	18.688	871.334	673.287
247.103	18.981	870.840	673.992
248.117	19.399	870.536	675.337
249.132	19.518	870.357	675.603
250.147	19.550	869.650	675.120
251.161	19.802	868.747	675.342
252.176	19.700	868.163	674.430
253.190	19.791	867.654	674.331
254.205	19.947	867.085	674.438
255.220	19.914	866.644	673.904
256.234	19.731	865.870	672.532
257.249	19.603	864.838	671.173
258.263	19.744	864.346	671.279
259.278	19.725	863.861	670.770
260.293	19.793	862.975	670.288
261.307	19.735	862.025	669.265
262.322	19.619	861.134	668.064
263.336	18.658	859.254	662.838
264.351	17.716	857.640	657.900
265.366	17.999	856.933	658.390
266.380	19.092	857.675	663.115
267.395	19.468	857.469	664.345
268.409	19.539	856.433	663.759
269.424	19.715	855.956	664.007
270.439	19.670	855.263	663.236
271.453	19.870	854.806	663.591
272.468	19.911	854.942	663.794
273.482	19.975	853.929	663.194
274.497	19.570	852.657	660.599
275.512	19.120	852.246	658.502
276.526	19.729	851.516	660.204
277.541	19.565	851.523	659.526
278.555	19.387	850.454	657.959
279.570	19.333	849.655	657.078
280.585	19.399	849.238	656.950
281.599	19.506	848.255	656.540
282.614	18.959	847.026	653.452
283.628	19.108	846.751	653.746
284.643	19.350	846.111	654.113
285.657	19.040	845.080	652.081
286.672	18.683	844.129	649.939
287.687	19.324	844.214	652.373
288.701	19.363	843.421	651.853
289.716	19.100	842.548	650.125
290.730	19.014	841.716	649.101
291.745	18.655	841.389	647.437
292.760	19.142	841.082	648.982
293.774	19.955	841.716	652.479
294.789	20.389	840.855	653.386
295.803	20.308	840.561	652.795
296.818	20.391	839.436	652.176
297.833	19.802	838.615	649.270
298.847	19.764	838.077	648.652
299.862	19.996	838.092	649.476
300.876	20.180	837.374	649.553
301.891	19.966	836.559	648.062
302.906	19.597	835.269	645.626
303.920	19.685	835.158	645.811
304.935	20.061	835.140	647.146
305.949	20.034	834.148	646.220
306.964	19.896	833.639	645.254
307.979	20.105	832.862	645.373
308.993	20.440	832.552	646.324
310.008	20.234	832.239	645.256
311.022	20.169	831.262	644.199
312.037	20.130	830.655	643.526
313.052	19.848	829.616	641.622
314.066	19.083	828.430	637.813
315.081	18.842	827.673	636.278
316.095	19.508	827.936	638.894
317.110	19.916	827.721	640.178
318.125	19.083	826.755	636.299
319.139	18.217	825.091	631.766
320.154	18.509	824.556	632.376
321.168	19.098	825.237	635.017
322.183	19.745	824.794	637.002
323.197	19.779	824.590	636.915
324.212	20.137	824.248	637.912
325.227	19.997	823.684	636.903
326.241	20.066	822.750	636.380
327.256	19.954	822.455	635.682
328.270	20.016	821.764	635.321
329.285	19.755	821.089	633.784
330.300	19.617	819.893	632.303
331.314	19.603	820.126	632.374
332.329	20.040	819.854	633.709
333.343	20.227	818.764	633.492
334.358	20.124	818.751	633.048
335.373	20.076	818.566	632.675
336.387	20.350	818.711	633.730
337.402	20.478	818.197	633.744
338.416	20.523	817.564	633.361
339.431	20.508	817.096	632.887
340.446	20.631	816.605	632.899
341.460	20.425	816.247	631.816
342.475	20.231	815.769	630.686
343.489	20.434	815.174	630.906
344.504	20.651	815.067	631.558
345.519	20.736	814.962	631.726
346.533	20.736	814.449	631.275
347.548	20.790	814.057	631.111
348.562	20.777	813.343	630.452
349.577	20.949	812.715	630.534
350.592	20.784	812.251	629.521
351.606	20.900	811.473	629.283
352.621	20.676	810.622	627.759
353.635	20.663	809.908	627.102
354.650	20.107	808.195	623.719
355.665	19.091	806.878	618.996
356.679	19.689	806.691	620.949
357.694	20.024	806.243	621.751
358.708	20.109	805.591	621.498
359.723	20.380	805.385	622.257
360.738	20.576	804.996	622.603
361.752	20.587	804.873	622.490
362.767	20.807	804.418	622.869
363.781	20.993	803.923	623.096
364.796	21.183	803.496	623.391
365.810	21.148	803.138	622.930
366.825	21.112	802.597	622.330
367.840	20.819	802.189	620.913
368.854	20.389	801.576	618.850
369.869	20.428	801.283	618.709
370.883	20.624	800.163	618.487
371.898	20.458	799.834	617.589
372.913	20.492	799.563	617.443
373.927	20.783	799.264	618.194
374.942	20.846	798.701	617.925
375.956	20.848	798.297	617.564
376.971	21.011	797.781	617.690
377.986	21.007	797.685	617.547
379.000	20.974	797.110	616.928
380.015	20.914	796.794	616.417
381.029	21.048	795.775	616.050
382.044	21.116	795.523	616.040
383.059	21.009	795.153	615.318
384.073	21.090	794.476	615.028
385.088	21.133	794.032	614.782
386.102	20.914	793.297	613.384
387.117	21.049	792.424	613.134
388.132	20.824	791.508	611.578
389.146	20.433	790.538	609.402
390.161	20.512	790.506	609.603
391.175	20.828	790.565	610.702
392.190	20.674	789.257	609.100
393.205	19.511	787.388	603.540
394.219	18.270	785.831	597.960
395.234	18.269	785.796	597.876
396.248	19.642	787.442	603.877
397.263	21.129	787.778	609.276
398.278	20.911	787.380	608.155
399.292	20.717	786.792	606.969
400.307	20.751	786.213	606.589
401.321	20.831	785.753	606.458
402.336	21.019	785.803	607.096
403.350	21.325	785.753	608.070
404.365	21.579	785.449	608.666
405.380	21.925	784.614	609.163
406.394	21.954	784.062	608.782
407.409	21.789	783.725	607.897
408.423	21.646	783.761	607.372
409.438	21.747	783.271	607.290
410.453	21.900	782.789	607.394
411.467	21.784	781.939	606.277
412.482	21.752	781.886	606.074
413.496	21.999	781.005	606.189
414.511	21.755	781.352	605.560
415.526	21.752	780.750	605.032
416.540	21.746	779.889	604.291
417.555	21.450	779.018	602.542
418.569	21.446	778.964	602.434
419.584	21.452	778.254	601.852
420.599	21.233	777.811	600.704
421.613	158.307	1361.480	1796.111
422.628	136.756	1446.527	1796.178
