DTS Sentinel unit serial number:	SN413079Multiplexer serial number:	ORYXHardware model number:	OX4-SRSoftware version number:	ORYX F/W v4.00 Oryx Data Collector v3.7.2.0data status	okinstallation	princeton_trtdifferential loss correction	single-endedforward channel	channel 1reverse channel	N/Adate	2019/09/14time	11:02:35forward acquisition time	60.00reverse acquisition time	0.00gamma	496.2192k internal	0.2299k external	0.2299temperature offset calibration	1.0079default loss term (dB/km)	0.3790temperature slope calibration	1.0000multiplexer offset coefficient	1.0000multiplexer slope coefficient	1.0000fibre end	0.00T internal ref (°C)	36.06T ext. ref 1 (°C)	4.38T ext. ref 2 (°C)	33.98length (m)	temperature (°C)	Stokes	anti-Stokes-747.200	-111.853	0.377	-0.078
-746.185	-13.428	-0.133	0.088
-745.171	-129.097	0.113	0.016
-744.156	800.000	-0.048	0.180
-743.142	42.208	0.158	0.146
-742.127	189.029	0.049	0.075
-741.112	18.767	-0.150	0.123
-740.098	-200.000	-0.003	0.376
-739.083	800.000	0.028	-0.125
-738.069	800.000	0.048	0.184
-737.054	-200.000	-0.004	0.021
-736.039	800.000	-0.062	-0.188
-735.025	304.494	0.061	0.115
-734.010	325.720	-0.010	0.019
-732.996	93.880	-0.174	-0.201
-731.981	225.646	-0.166	-0.275
-730.966	17.509	-0.203	-0.164
-729.952	-200.000	0.021	-0.383
-728.937	-200.000	0.017	0.079
-727.923	-87.279	-0.631	-0.195
-726.908	139.302	0.149	-0.199
-725.894	45.878	0.271	-0.256
-724.879	-157.622	-0.319	0.019
-723.864	-60.008	-0.262	0.114
-722.850	-141.064	-0.462	0.048
-721.835	145.298	-0.167	0.227
-720.821	76.687	-0.056	0.061
-719.806	-178.391	0.186	0.004
-718.791	-33.704	-0.329	-0.185
-717.777	-143.423	0.325	-0.032
-716.762	144.410	-0.135	0.184
-715.748	-75.010	-0.166	-0.061
-714.733	-56.597	0.127	-0.058
-713.718	143.981	-0.175	0.238
-712.704	-139.342	0.093	0.010
-711.689	-37.296	0.101	0.055
-710.675	-27.145	-0.170	-0.101
-709.660	-26.631	-0.328	0.196
-708.645	-88.772	-0.187	0.057
-707.631	51.344	-0.083	-0.081
-706.616	51.401	0.308	0.298
-705.602	-147.219	-0.299	0.026
-704.587	20.839	-0.278	0.229
-703.572	157.697	0.284	-0.401
-702.558	99.484	0.137	-0.162
-701.543	800.000	0.107	-0.413
-700.529	73.667	0.341	-0.364
-699.514	-76.522	-0.217	-0.078
-698.499	55.633	-0.011	0.011
-697.485	-0.518	-0.145	-0.105
-696.470	0.978	0.277	0.203
-695.456	308.100	0.096	0.183
-694.441	800.000	0.015	0.047
-693.426	-13.309	-0.176	0.116
-692.412	199.141	0.050	-0.078
-691.397	40.210	0.131	0.120
-690.383	-140.807	0.442	-0.046
-689.368	34.784	0.258	0.230
-688.354	200.316	-0.183	-0.286
-687.339	-13.812	0.020	-0.013
-686.324	453.978	0.134	0.303
-685.310	-134.641	0.218	0.027
-684.295	149.572	0.223	0.308
-683.281	-115.899	-0.300	-0.057
-682.266	26.919	-0.292	-0.249
-681.251	-162.212	-0.071	-0.004
-680.237	-67.227	-0.407	-0.163
-679.222	158.771	-0.168	0.238
-678.208	22.324	-0.225	-0.187
-677.193	334.608	-0.159	-0.313
-676.178	-101.582	-0.480	0.119
-675.164	-171.121	0.364	-0.013
-674.149	800.000	0.063	0.199
-673.135	665.184	-0.053	-0.140
-672.120	62.415	-0.212	-0.216
-671.105	-102.602	0.284	-0.069
-670.091	-71.346	0.211	0.081
-669.076	-200.000	0.024	0.287
-668.062	-165.423	0.043	0.002
-667.047	310.848	-0.174	-0.331
-666.032	-155.670	-0.163	0.011
-665.018	-63.478	0.218	0.091
-664.003	108.738	-0.243	-0.295
-662.989	126.808	-0.197	0.254
-661.974	105.033	-0.169	-0.203
-660.959	800.000	0.025	0.111
-659.945	485.074	-0.121	-0.280
-658.930	129.691	0.142	-0.185
-657.916	115.229	0.221	0.275
-656.901	-200.000	-0.034	0.389
-655.886	800.000	-0.012	-0.050
-654.872	-65.352	-0.128	0.053
-653.857	-139.325	-0.179	0.020
-652.843	456.675	0.067	-0.151
-651.828	249.337	-0.137	-0.236
-650.814	102.169	0.131	-0.156
-649.799	60.354	0.273	0.275
-648.784	800.000	-0.008	-0.029
-647.770	-133.032	-0.395	0.051
-646.755	29.258	0.235	-0.203
-645.741	-111.340	-0.477	0.099
-644.726	54.834	-0.156	0.153
-643.711	-159.277	0.547	-0.031
-642.697	-23.937	-0.400	0.243
-641.682	-93.486	0.278	0.078
-640.668	-200.000	-0.010	0.092
-639.653	-200.000	0.013	-0.075
-638.638	-135.244	0.126	0.015
-637.624	51.107	0.330	-0.319
-636.609	800.000	-0.050	0.205
-635.595	-151.823	0.118	-0.009
-634.580	-143.814	-0.095	0.009
-633.565	-49.724	-0.147	-0.071
-632.551	236.695	-0.022	0.037
-631.536	79.216	-0.328	-0.357
-630.522	-29.412	0.101	-0.058
-629.507	-169.004	-0.208	-0.008
-628.492	-99.298	-0.314	0.081
-627.478	-109.743	0.243	0.052
-626.463	243.977	0.028	0.049
-625.449	-9.967	0.011	0.007
-624.434	-93.649	0.020	-0.006
-623.419	800.000	-0.060	0.244
-622.405	-64.760	-0.043	-0.018
-621.390	-200.000	0.050	0.266
-620.376	800.000	0.105	-0.326
-619.361	605.167	-0.045	0.113
-618.346	800.000	-0.071	-0.216
-617.332	-18.824	0.257	-0.163
-616.317	308.747	0.090	0.170
-615.303	-200.000	-0.010	-0.099
-614.288	157.090	0.211	0.296
-613.273	-12.759	-0.221	0.146
-612.259	15.853	-0.131	-0.105
-611.244	397.574	-0.032	-0.068
-610.230	-65.853	-0.105	0.043
-609.215	89.821	-0.140	-0.159
-608.201	800.000	-0.088	-0.380
-607.186	-83.064	-0.034	0.011
-606.171	-18.391	-0.065	0.041
-605.157	79.258	-0.137	0.149
-604.142	3.883	-0.179	-0.133
-603.128	-14.710	0.152	0.099
-602.113	-41.094	0.240	-0.126
-601.098	-48.829	0.037	0.018
-600.084	800.000	-0.058	-0.232
-599.069	-131.012	-0.098	0.013
-598.055	101.452	-0.220	0.260
-597.040	-200.000	-0.045	-0.306
-596.025	-170.250	-0.227	0.008
-595.011	-200.000	0.052	0.296
-593.996	-10.903	0.252	0.169
-592.982	52.362	0.191	-0.185
-591.967	-136.612	0.205	0.024
-590.952	-78.196	-0.289	-0.101
-589.938	-45.572	0.165	-0.083
-588.923	-200.000	-0.020	-0.102
-587.909	36.649	0.243	-0.218
-586.894	149.579	-0.199	-0.274
-585.879	-66.545	-0.235	0.095
-584.865	800.000	-0.097	0.302
-583.850	248.524	0.154	-0.264
-582.836	333.902	0.096	-0.188
-581.821	-200.000	-0.013	0.288
-580.806	800.000	-0.045	-0.128
-579.792	13.418	-0.119	-0.094
-578.777	120.752	0.055	-0.069
-577.763	352.168	0.050	-0.100
-576.748	800.000	0.018	-0.060
-575.733	-45.610	0.248	-0.124
-574.719	-106.780	-0.089	-0.020
-573.704	800.000	-0.028	-0.118
-572.690	39.041	0.232	-0.210
-571.675	26.751	-0.153	0.130
-570.661	-10.264	0.148	0.100
-569.646	65.840	0.117	-0.120
-568.631	-200.000	0.024	0.323
-567.617	-21.103	-0.117	-0.073
-566.602	-156.112	-0.121	-0.008
-565.588	357.783	0.146	-0.294
-564.573	204.942	-0.145	-0.228
-563.558	-71.788	0.208	0.079
-562.544	40.705	0.288	0.263
-561.529	800.000	0.081	0.301
-560.515	16.636	0.055	-0.044
-559.500	198.761	0.072	-0.112
-558.485	83.534	-0.094	-0.104
-557.471	99.021	0.115	-0.134
-556.456	-200.000	0.008	-0.099
-555.442	-112.007	0.357	0.073
-554.427	-130.110	-0.204	0.028
-553.412	-200.000	-0.029	0.312
-552.398	65.006	-0.272	-0.278
-551.383	-200.000	-0.015	0.074
-550.369	66.957	0.065	-0.067
-549.354	798.857	0.101	-0.282
-548.339	-72.510	0.238	0.089
-547.325	-41.533	-0.043	-0.023
-546.310	-27.643	-0.329	0.194
-545.296	800.000	-0.082	0.252
-544.281	-7.104	-0.118	0.081
-543.266	47.644	-0.043	-0.041
-542.252	-200.000	0.004	-0.195
-541.237	104.628	-0.163	-0.195
-540.223	-103.681	-0.345	0.082
-539.208	46.176	-0.184	-0.173
-538.193	-200.000	0.004	0.168
-537.179	235.444	0.118	-0.198
-536.164	219.746	0.060	-0.097
-535.150	-200.000	-0.039	-0.248
-534.135	-74.791	-0.328	0.119
-533.121	71.412	-0.182	0.192
-532.106	-120.968	0.349	-0.059
-531.091	-200.000	-0.017	-0.144
-530.077	100.269	0.110	-0.129
-529.062	-46.254	-0.136	0.068
-528.048	284.722	0.042	-0.076
-527.033	-100.904	-0.319	-0.079
-526.018	-88.509	0.156	-0.047
-525.004	-200.000	0.012	0.420
-523.989	-19.590	0.126	-0.079
-522.975	283.716	-0.113	-0.205
-521.960	-200.000	0.029	-0.306
-520.945	-137.273	0.041	0.005
-519.931	-91.265	0.362	-0.105
-518.916	90.414	0.075	0.085
-517.902	456.343	0.048	-0.107
-516.887	-83.413	-0.095	-0.031
-515.872	-28.613	-0.324	-0.189
-514.858	-127.223	0.092	-0.014
-513.843	-200.000	0.018	-0.253
-512.829	-129.616	0.119	0.017
-511.814	-74.311	0.068	0.025
-510.799	-25.928	-0.063	-0.038
-509.785	-200.000	0.017	0.287
-508.770	-50.003	0.196	0.094
-507.756	-200.000	-0.034	0.258
-506.741	192.973	0.158	0.241
-505.726	125.835	0.236	0.301
-504.712	643.488	0.085	-0.219
-503.697	-103.287	-0.192	-0.046
-502.683	800.000	-0.131	0.399
-501.668	-200.000	0.003	-0.112
-500.653	-16.381	0.004	0.003
-499.639	155.319	-0.180	-0.251
-498.624	-67.190	0.074	0.029
-497.610	-62.997	0.465	-0.194
-496.595	176.458	-0.235	-0.346
-495.581	303.699	0.085	0.160
-494.566	214.735	-0.206	0.330
-493.551	-134.683	-0.300	0.037
-492.537	309.435	-0.123	-0.232
-491.522	173.833	-0.089	-0.130
-490.508	-54.765	0.268	0.122
-489.493	800.000	-0.071	-0.219
-488.478	489.846	-0.165	-0.382
-487.464	800.000	0.066	0.233
-486.449	127.420	-0.148	0.190
-485.435	229.497	0.094	-0.155
-484.420	-200.000	0.051	0.259
-483.405	-140.275	-0.373	0.039
-482.391	-117.875	0.583	0.106
-481.376	-105.411	0.204	-0.047
-480.362	-43.762	-0.137	-0.070
-479.347	-125.899	0.386	-0.059
-478.332	-200.000	0.008	0.151
-477.318	314.196	-0.102	0.194
-476.303	-31.594	0.027	-0.015
-475.289	-14.085	-0.089	-0.058
-474.274	-154.816	-0.297	0.020
-473.259	128.578	0.057	0.073
-472.245	-200.000	0.011	0.064
-471.230	59.470	-0.159	0.158
-470.216	-125.449	0.237	-0.036
-469.201	-85.911	0.311	0.097
-468.186	-200.000	-0.044	0.228
-467.172	-17.100	0.180	-0.115
-466.157	-200.000	0.032	0.216
-465.143	307.534	0.065	0.123
-464.128	-137.252	0.323	-0.037
-463.113	53.543	0.242	0.235
-462.099	-200.000	-0.006	0.136
-461.084	-72.776	-0.286	0.106
-460.070	-105.562	0.188	-0.043
-459.055	73.143	-0.183	0.193
-458.040	-101.073	-0.092	0.023
-457.026	800.000	-0.035	-0.130
-456.011	729.551	-0.145	-0.392
-454.997	800.000	-0.059	-0.218
-453.982	-200.000	-0.054	-0.439
-452.968	196.936	0.101	-0.156
-451.953	-9.561	0.102	0.069
-450.938	419.298	-0.111	0.240
-449.924	-200.000	-0.010	0.336
-448.909	-200.000	-0.009	0.178
-447.895	42.240	0.129	-0.118
-446.880	-117.275	0.352	-0.065
-445.865	-61.704	-0.218	-0.092
-444.851	-200.000	0.034	-0.223
-443.836	-200.000	0.004	-0.281
-442.822	-200.000	0.043	-0.245
-441.807	68.618	0.060	0.062
-440.792	-91.651	0.064	0.018
-439.778	-85.643	-0.098	-0.031
-438.763	-2.335	-0.178	0.126
-437.749	142.420	0.106	0.142
-436.734	800.000	-0.019	0.070
-435.719	22.775	-0.253	0.209
-434.705	125.270	-0.270	-0.343
-433.690	800.000	-0.042	-0.177
-432.676	-41.201	-0.320	0.167
-431.661	-51.190	-0.223	0.105
-430.646	-55.318	-0.250	0.113
-429.632	300.534	-0.033	0.061
-428.617	173.424	0.076	0.111
-427.603	82.147	-0.118	-0.129
-426.588	800.000	0.058	-0.237
-425.573	-200.000	0.007	0.191
-424.559	13.398	-0.097	0.076
-423.544	-69.568	0.255	0.098
-422.530	800.000	0.123	-0.455
-421.515	-151.826	0.204	-0.015
-420.500	-30.593	0.169	-0.096
-419.486	82.114	-0.103	-0.112
-418.471	-24.078	0.031	0.019
-417.457	800.000	0.064	0.193
-416.442	279.383	-0.097	-0.174
-415.428	79.202	0.061	-0.066
-414.413	-200.000	0.054	0.431
-413.398	-15.073	-0.205	-0.132
-412.384	112.237	-0.130	-0.159
-411.369	-120.685	-0.318	-0.054
-410.355	-200.000	-0.056	-0.314
-409.340	253.946	0.060	-0.104
-408.325	72.116	-0.382	0.400
-407.311	800.000	0.098	-0.389
-406.296	10.854	-0.091	0.070
-405.282	-169.184	0.198	0.007
-404.267	182.364	-0.042	0.063
-403.252	-50.555	-0.419	-0.199
-402.238	-7.629	0.314	-0.214
-401.223	-28.189	-0.155	0.090
-400.209	-200.000	-0.010	-0.188
-399.194	97.125	0.081	0.094
-398.179	-200.000	0.005	0.464
-397.165	-200.000	-0.020	-0.153
-396.150	-180.285	-0.396	-0.008
-395.136	779.770	-0.094	0.260
-394.121	-30.428	0.201	0.115
-393.106	-80.532	-0.422	0.142
-392.092	105.570	-0.131	0.156
-391.077	92.026	-0.115	0.130
-390.063	-78.852	0.281	0.097
-389.048	96.125	0.125	0.144
-388.033	-100.691	0.113	-0.028
-387.019	374.572	0.070	0.144
-386.004	-200.000	-0.014	0.176
-384.990	-200.000	-0.010	-0.461
-383.975	-80.252	-0.042	-0.014
-382.960	-200.000	-0.024	-0.151
-381.946	744.459	-0.042	-0.113
-380.931	-200.000	0.035	0.153
-379.917	142.534	-0.261	0.348
-378.902	34.294	-0.218	-0.191
-377.888	-9.501	0.226	0.151
-376.873	1.667	0.146	0.106
-375.858	-29.175	-0.151	-0.087
-374.844	138.426	0.155	0.205
-373.829	-200.000	-0.082	0.436
-372.815	-55.221	-0.256	-0.116
-371.800	-4.891	0.049	-0.034
-370.785	165.205	-0.248	0.352
-369.771	-200.000	0.031	0.145
-368.756	82.319	0.151	-0.165
-367.742	61.705	-0.364	0.365
-366.727	64.705	0.203	-0.206
-365.712	83.971	0.111	-0.121
-364.698	71.586	0.114	0.119
-363.683	34.273	-0.262	-0.230
-362.669	-72.639	0.019	0.007
-361.654	7.092	0.222	0.167
-360.639	-80.514	0.170	-0.057
-359.625	-51.906	-0.352	-0.165
-358.610	-200.000	-0.012	0.158
-357.596	263.060	0.035	-0.060
-356.581	-133.650	-0.269	-0.034
-355.566	276.286	-0.136	0.243
-354.552	-200.000	0.025	-0.203
-353.537	-135.189	0.102	-0.012
-352.523	-39.149	-0.207	0.109
-351.508	528.581	0.114	0.270
-350.493	800.000	0.076	-0.298
-349.479	694.048	0.041	-0.108
-348.464	55.970	-0.102	-0.099
-347.450	800.000	-0.060	-0.195
-346.435	646.907	0.062	-0.160
-345.420	800.000	0.114	0.369
-344.406	764.185	-0.056	0.152
-343.391	800.000	-0.019	-0.062
-342.377	-107.293	0.449	0.099
-341.362	545.694	0.046	-0.110
-340.348	-200.000	-0.047	-0.318
-339.333	-27.652	-0.463	-0.270
-338.318	32.801	-0.105	-0.091
-337.304	-49.515	0.411	0.197
-336.289	-65.071	0.260	0.105
-335.275	-200.000	0.025	0.177
-334.260	-72.118	-0.241	-0.090
-333.245	-19.407	-0.160	0.099
-332.231	28.786	-0.122	-0.104
-331.216	-200.000	-0.022	-0.371
-330.202	-200.000	0.039	0.236
-329.187	353.679	0.086	0.172
-328.172	296.688	0.191	0.352
-327.158	-144.485	0.274	0.026
-326.143	571.564	0.095	0.233
-325.129	244.193	-0.095	-0.160
-324.114	-151.425	-0.057	0.004
-323.099	-200.000	-0.000	0.096
-322.085	126.285	0.114	-0.144
-321.070	106.542	0.089	-0.106
-320.056	243.111	0.121	-0.204
-319.041	-69.904	-0.208	-0.080
-318.026	-200.000	-0.063	-0.331
-317.012	-6.157	-0.120	-0.082
-315.997	-149.226	-0.325	0.026
-314.983	-62.664	0.235	-0.098
-313.968	-42.153	0.198	-0.101
-312.953	422.171	0.025	-0.054
-311.939	94.504	0.224	-0.256
-310.924	800.000	-0.104	0.395
-309.910	274.716	-0.214	0.381
-308.895	-118.689	-0.335	-0.059
-307.880	-160.809	-0.086	0.005
-306.866	-41.708	-0.176	0.090
-305.851	-30.826	-0.208	-0.118
-304.837	-48.000	-0.041	0.020
-303.822	800.000	0.085	0.306
-302.807	202.663	0.093	-0.145
-301.793	31.370	-0.113	-0.097
-300.778	-53.238	-0.477	-0.220
-299.764	466.406	-0.057	0.128
-298.749	133.725	0.171	-0.223
-297.735	152.409	0.089	-0.122
-296.720	-200.000	0.096	0.556
-295.705	206.515	0.091	0.142
-294.691	-149.522	0.159	0.013
-293.676	22.744	0.244	0.200
-292.662	136.917	-0.184	-0.241
-291.647	416.454	-0.047	0.100
-290.632	-167.836	-0.053	-0.002
-289.618	-73.193	-0.091	-0.033
-288.603	-200.000	-0.008	0.209
-287.589	800.000	0.129	0.556
-286.574	772.862	-0.049	-0.133
-285.559	216.695	-0.100	-0.160
-284.545	50.789	0.227	0.216
-283.530	800.000	-0.047	-0.131
-282.516	-200.000	-0.005	-0.130
-281.501	26.096	0.187	0.157
-280.486	-27.018	0.184	0.108
-279.472	726.502	0.062	-0.167
-278.457	424.335	0.039	0.085
-277.443	800.000	0.106	0.365
-276.428	-200.000	0.330	-0.001
-275.413	-97.031	-0.157	0.041
-274.399	310.969	-0.123	0.232
-273.384	-9.971	0.266	0.177
-272.370	-12.977	0.130	-0.085
-271.355	478.568	0.093	-0.211
-270.340	-58.888	-0.426	0.184
-269.326	-200.000	-0.023	-0.215
-268.311	-54.581	-0.183	0.083
-267.297	540.905	0.129	0.307
-266.282	-60.843	-0.142	-0.060
-265.267	-14.976	0.136	-0.087
-264.253	-32.240	-0.225	-0.126
-263.238	36.413	0.318	-0.281
-262.224	-9.484	-0.123	-0.082
-261.209	83.790	-0.181	-0.197
-260.195	-109.737	-0.311	-0.066
-259.180	800.000	-0.108	0.300
-258.165	-60.835	0.212	0.090
-257.151	-2.695	-0.095	-0.067
-256.136	0.291	-0.093	-0.066
-255.122	-140.233	-0.180	-0.019
-254.107	-191.835	0.109	-0.001
-253.092	370.197	-0.124	0.252
-252.078	-91.550	0.397	-0.113
-251.063	511.742	-0.130	0.302
-250.049	-30.584	-0.372	0.211
-249.034	-38.420	-0.178	0.094
-248.019	-200.000	0.068	0.309
-247.005	800.000	-0.083	0.361
-245.990	800.000	-0.091	0.351
-244.976	622.753	-0.066	0.168
-243.961	92.977	0.094	-0.107
-242.946	219.406	0.088	0.140
-241.932	-36.412	0.329	-0.177
-240.917	-102.235	-0.186	0.045
-239.903	33.479	-0.215	0.187
-238.888	-131.158	0.121	0.016
-237.873	800.000	-0.066	-0.268
-236.859	129.426	0.096	0.123
-235.844	800.000	0.115	-0.383
-234.830	28.004	-0.160	-0.135
-233.815	800.000	-0.100	0.371
-232.800	277.167	0.034	0.060
-231.786	-177.755	0.313	0.008
-230.771	457.298	-0.047	-0.105
-229.757	-200.000	-0.026	0.142
-228.742	-200.000	-0.005	0.156
-227.727	-6.251	-0.255	-0.174
-226.713	-121.198	-0.137	-0.023
-225.698	800.000	0.048	-0.179
-224.684	-200.000	0.046	-0.249
-223.669	-96.810	0.182	-0.048
-222.655	-200.000	0.022	-0.220
-221.640	194.942	0.136	-0.206
-220.625	-60.968	-0.207	-0.088
-219.611	697.048	0.080	-0.211
-218.596	-13.342	-0.168	0.109
-217.582	456.934	-0.076	-0.169
-216.567	-32.079	0.260	-0.145
-215.552	-13.660	0.135	0.087
-214.538	86.970	-0.188	0.208
-213.523	291.608	0.063	0.115
-212.509	100.707	0.309	0.359
-211.494	61.930	0.093	0.093
-210.479	-112.247	0.235	0.047
-209.465	-76.991	0.213	-0.074
-208.450	-47.902	0.426	-0.206
-207.436	-113.682	0.309	-0.060
-206.421	800.000	-0.092	-0.381
-205.406	147.441	0.034	0.045
-204.392	40.048	-0.143	-0.128
-203.377	604.311	-0.066	0.163
-202.363	-200.000	0.013	-0.339
-201.348	137.935	-0.032	-0.042
-200.333	154.660	-0.167	-0.229
-199.319	800.000	0.042	0.171
-198.304	129.277	0.114	0.146
-197.290	124.690	-0.044	-0.055
-196.275	244.502	0.178	0.300
-195.260	24.019	0.229	0.189
-194.246	-99.104	0.060	-0.015
-193.231	146.332	-0.067	0.090
-192.217	474.843	0.094	-0.212
-191.202	-10.241	-0.051	-0.034
-190.187	-47.281	-0.353	-0.172
-189.173	85.358	0.195	0.214
-188.158	285.895	0.101	0.181
-187.144	56.047	0.079	0.077
-186.129	800.000	0.049	0.140
-185.114	800.000	0.051	-0.177
-184.100	688.971	-0.047	0.122
-183.085	188.389	-0.166	0.247
-182.071	-10.267	0.120	0.079
-181.056	-57.043	0.288	0.127
-180.042	-51.322	-0.325	-0.152
-179.027	-200.000	0.133	-0.671
-178.012	-31.791	0.286	-0.160
-176.998	-13.098	0.234	0.152
-175.983	144.688	-0.135	-0.180
-174.969	-23.753	0.253	0.151
-173.954	-111.970	0.208	0.042
-172.939	800.000	0.039	-0.125
-171.925	57.990	0.126	-0.123
-170.910	-147.317	-0.242	-0.021
-169.896	551.779	-0.103	0.248
-168.881	-200.000	0.018	-0.162
-167.866	-28.790	0.358	-0.205
-166.852	-151.515	-0.098	0.007
-165.837	-200.000	-0.041	-0.220
-164.823	490.275	0.201	-0.458
-163.808	-51.565	-0.173	-0.080
-162.793	6.156	0.090	-0.066
-161.779	27.063	0.206	0.172
-160.764	-200.000	-0.004	0.228
-159.750	-80.774	0.400	-0.133
-158.735	-141.096	-0.164	0.017
-157.720	-43.608	0.066	0.033
-156.706	-147.234	-0.177	-0.015
-155.691	-200.000	0.053	0.333
-154.677	-200.000	-0.011	-0.139
-153.662	-167.309	-0.080	0.003
-152.647	-55.289	0.340	-0.152
-151.633	-87.735	-0.371	-0.112
-150.618	-188.853	-0.365	0.004
-149.604	800.000	0.108	0.320
-148.589	65.047	0.142	-0.143
-147.574	-91.960	-0.255	0.072
-146.560	-200.000	-0.053	-0.242
-145.545	-200.000	0.026	-0.182
-144.531	-34.480	-0.123	0.067
-143.516	58.434	0.266	-0.260
-142.502	-200.000	-0.023	-0.312
-141.487	-101.189	-0.055	-0.013
-140.472	-200.000	-0.034	0.184
-139.458	-115.425	0.103	0.019
-138.443	-44.912	-0.160	-0.080
-137.429	-175.013	0.399	0.011
-136.414	-200.000	0.029	0.219
-135.399	29.021	0.227	0.192
-134.385	-139.028	-0.024	0.003
-133.370	-17.431	-0.475	0.298
-132.356	-200.000	-0.009	-0.157
-131.341	-37.321	0.137	0.073
-130.326	20.244	-0.065	-0.052
-129.312	-144.950	0.118	-0.011
-128.297	-200.000	0.040	0.354
-127.283	-33.395	0.257	0.142
-126.268	-57.104	0.413	-0.181
-125.253	-141.101	0.179	0.018
-124.239	-34.933	-0.141	0.077
-123.224	-3.612	-0.309	0.214
-122.210	606.501	0.037	0.092
-121.195	-148.870	-0.154	0.012
-120.180	27.109	-0.094	0.079
-119.166	24.872	-0.105	0.087
-118.151	-58.357	0.207	0.090
-117.137	-200.000	0.024	0.281
-116.122	-75.370	0.035	0.012
-115.107	-200.000	0.002	0.083
-114.093	14.330	-0.204	0.158
-113.078	-59.048	-0.088	-0.038
-112.064	110.029	-0.051	-0.060
-111.049	-200.000	-0.016	-0.092
-110.034	-54.924	-0.409	-0.184
-109.020	-200.000	0.036	-0.249
-108.005	-123.252	0.032	0.005
-106.991	800.000	0.105	-0.415
-105.976	7.540	-0.090	0.067
-104.962	-42.322	0.415	0.211
-103.947	250.654	-0.039	0.067
-102.932	800.000	0.046	-0.191
-101.918	94.641	-0.220	-0.249
-100.903	-95.217	-0.243	-0.065
-99.889	800.000	-0.078	-0.303
-98.874	-97.032	0.198	0.052
-97.859	58.580	-0.219	0.214
-96.845	229.232	-0.109	0.176
-95.830	-92.601	-0.052	-0.015
-94.816	-200.000	-0.057	0.329
-93.801	142.493	0.038	-0.050
-92.786	800.000	0.068	0.237
-91.772	-200.000	0.007	0.048
-90.757	84.282	-0.134	-0.145
-89.743	181.762	0.126	-0.184
-88.728	116.369	0.263	-0.321
-87.713	-21.362	0.187	-0.114
-86.699	-200.000	-0.023	0.195
-85.684	-131.328	-0.242	-0.032
-84.670	-200.000	0.045	-0.362
-83.655	-200.000	-0.012	0.193
-82.640	77.866	0.041	-0.044
-81.626	800.000	0.079	0.298
-80.611	-56.336	0.149	-0.066
-79.597	215.128	-0.101	0.160
-78.582	-96.244	0.183	0.048
-77.567	-200.000	-0.011	-0.119
-76.553	47.360	-0.101	-0.094
-75.538	-82.834	0.314	0.101
-74.524	52.892	0.163	0.155
-73.509	-10.749	0.075	0.049
-72.494	-173.284	-0.232	-0.007
-71.480	71.001	0.082	0.084
-70.465	252.802	0.151	0.256
-69.451	-149.131	0.125	0.010
-68.436	-53.902	0.327	-0.148
-67.422	33.656	0.209	0.181
-66.407	512.867	-0.108	-0.251
-65.392	-144.775	0.058	0.005
-64.378	800.000	0.065	-0.263
-63.363	-37.562	-0.156	0.083
-62.349	163.633	0.118	0.164
-61.334	28.359	-1.125	-0.945
-60.319	37.487	0.389	0.343
-59.305	-200.000	-0.164	-0.922
-58.290	-200.000	0.044	0.763
-57.276	406.681	0.585	1.227
-56.261	-200.000	89.750	502.990
-55.246	512.796	1409.604	3263.613
-54.232	179.603	2633.406	3830.999
-53.217	116.085	2237.019	2721.269
-52.203	46.891	1673.913	1545.659
-51.188	39.326	1402.119	1246.942
-50.173	36.084	1358.390	1188.059
-49.159	55.392	1403.623	1348.972
-48.144	59.563	1422.482	1393.170
-47.130	39.949	1378.917	1229.994
-46.115	36.232	1360.633	1190.748
-45.100	36.007	1355.877	1185.153
-44.086	35.841	1354.097	1182.530
-43.071	35.800	1351.581	1180.036
-42.057	35.872	1349.232	1178.377
-41.042	35.994	1347.282	1177.373
-40.027	35.989	1345.273	1175.540
-39.013	35.962	1343.527	1173.802
-37.998	35.998	1341.974	1172.617
-36.984	36.092	1339.688	1171.144
-35.969	36.059	1338.079	1169.491
-34.954	36.155	1335.830	1168.062
-33.940	36.140	1334.790	1167.016
-32.925	36.103	1333.427	1165.552
-31.911	36.150	1331.992	1164.540
-30.896	36.228	1330.238	1163.430
-29.881	36.127	1329.141	1161.811
-28.867	36.251	1327.131	1160.754
-27.852	36.241	1325.669	1159.373
-26.838	36.227	1324.583	1158.295
-25.823	36.185	1322.854	1156.483
-24.809	36.184	1321.463	1155.216
-23.794	36.251	1319.985	1154.277
-22.779	36.203	1318.983	1153.068
-21.765	36.147	1317.657	1151.531
-20.750	36.091	1316.466	1150.105
-19.736	36.029	1315.122	1148.520
-18.721	35.889	1314.273	1146.895
-17.706	36.019	1312.478	1146.060
-16.692	36.017	1311.265	1144.945
-15.677	35.971	1309.772	1143.321
-14.663	36.053	1308.925	1143.020
-13.648	36.035	1307.562	1141.680
-12.633	35.828	1307.065	1139.974
-11.619	35.904	1305.848	1139.317
-10.604	35.912	1304.923	1138.515
-9.590	35.927	1303.824	1137.599
-8.575	36.018	1302.665	1137.081
-7.560	35.989	1301.807	1136.113
-6.546	35.983	1301.127	1135.436
-5.531	35.980	1300.272	1134.629
-4.517	35.987	1299.197	1133.687
-3.502	35.858	1298.733	1132.476
-2.487	36.080	1297.011	1132.238
-1.473	36.039	1293.526	1128.910
-0.458	35.189	1278.926	1111.198
0.556	32.677	1260.515	1073.954
1.571	28.833	1265.351	1055.944
2.586	27.535	1279.600	1060.190
3.600	25.884	1266.783	1039.959
4.615	18.857	1190.522	939.010
5.629	9.075	1109.982	825.337
6.644	4.614	1087.801	786.253
7.659	4.169	1084.957	781.886
8.673	4.360	1083.926	782.034
9.688	4.387	1082.573	781.126
10.702	4.597	1081.247	781.154
11.717	10.042	1089.901	814.854
12.731	18.774	1101.830	868.023
13.746	21.181	1103.893	881.744
14.761	19.788	1101.471	872.707
15.775	18.882	1099.609	866.585
16.790	17.831	1097.259	859.365
17.804	17.119	1095.507	854.339
18.819	16.659	1094.680	851.305
19.834	16.482	1093.614	849.509
20.848	16.293	1092.848	847.891
21.863	16.109	1092.119	846.326
22.877	15.935	1091.700	845.054
23.892	15.941	1090.552	844.122
24.907	15.895	1089.931	843.337
25.921	16.064	1088.552	843.037
26.936	16.080	1086.829	841.711
27.950	16.040	1086.124	840.889
28.965	16.127	1084.364	839.886
29.980	16.300	1082.453	839.192
30.994	16.327	1081.854	838.787
32.009	16.368	1080.496	837.862
33.023	16.285	1079.584	836.670
34.038	16.214	1078.551	835.445
35.053	16.124	1077.529	834.134
36.067	16.026	1077.011	833.177
37.082	16.046	1076.444	832.760
38.096	16.149	1075.617	832.555
39.111	16.307	1074.282	832.227
40.126	16.096	1073.100	830.199
41.140	15.950	1071.864	828.451
42.155	15.802	1070.329	826.465
43.169	15.744	1069.405	825.396
44.184	15.716	1068.440	824.440
45.199	15.862	1067.192	824.118
46.213	16.027	1066.077	823.990
47.228	16.094	1065.216	823.579
48.242	16.055	1064.383	822.672
49.257	16.100	1063.350	822.020
50.271	16.021	1062.685	821.051
51.286	16.060	1061.825	820.504
52.301	16.035	1060.919	819.608
53.315	16.036	1059.256	818.257
54.330	15.878	1058.339	816.708
55.344	15.956	1057.623	816.462
56.359	15.916	1057.079	815.774
57.374	15.984	1055.731	814.994
58.388	15.881	1054.891	813.773
59.403	15.809	1053.983	812.654
60.417	15.752	1053.159	811.673
61.432	15.717	1052.859	811.200
62.447	15.705	1051.698	810.175
63.461	15.585	1050.922	808.927
64.476	15.626	1049.804	808.193
65.490	15.712	1049.070	807.970
66.505	15.639	1048.558	807.154
67.520	15.720	1047.499	806.657
68.534	15.754	1046.552	806.017
69.549	15.726	1046.249	805.580
70.563	15.645	1045.299	804.391
71.578	15.593	1044.228	803.247
72.593	15.440	1043.757	802.080
73.607	15.502	1043.186	801.867
74.622	15.622	1042.159	801.580
75.636	15.636	1041.610	801.153
76.651	15.553	1041.189	800.362
77.666	15.652	1039.874	799.753
78.680	15.714	1039.589	799.758
79.695	15.673	1038.929	798.984
80.709	15.734	1038.298	798.719
81.724	15.913	1037.477	798.863
82.739	15.914	1036.667	798.176
83.753	16.106	1035.946	798.459
84.768	16.179	1035.363	798.282
85.782	16.116	1034.660	797.375
86.797	16.126	1034.076	796.900
87.812	16.078	1032.752	795.584
88.826	16.165	1031.369	794.857
89.841	16.173	1030.430	794.103
90.855	16.273	1029.752	793.978
91.870	16.223	1029.194	793.244
92.884	16.253	1028.236	792.574
93.899	16.260	1027.102	791.662
94.914	16.350	1026.358	791.442
95.928	16.247	1025.759	790.429
96.943	16.154	1024.858	789.226
97.957	16.195	1023.411	788.235
98.972	16.215	1022.419	787.495
99.987	16.210	1021.716	786.859
101.001	16.226	1020.681	786.069
102.016	16.119	1020.102	785.054
103.030	16.413	1019.263	785.705
104.045	16.249	1018.122	783.994
105.060	16.169	1017.522	783.095
106.074	15.904	1016.670	781.138
107.089	15.913	1014.970	779.804
108.103	15.763	1014.503	778.682
109.118	15.818	1013.514	778.109
110.133	15.814	1012.634	777.346
111.147	15.797	1011.950	776.676
112.162	15.689	1011.369	775.659
113.176	15.812	1010.961	775.849
114.191	15.923	1010.026	775.572
115.206	16.011	1008.933	775.070
116.220	15.855	1007.547	773.219
117.235	15.928	1006.988	773.059
118.249	15.785	1006.416	771.894
119.264	15.884	1005.381	771.486
120.279	15.757	1004.783	770.377
121.293	15.773	1004.108	769.863
122.308	15.840	1002.533	768.894
123.322	15.837	1001.165	767.766
124.337	15.698	1000.760	766.751
125.352	15.678	999.636	765.731
126.366	15.620	998.572	764.584
127.381	15.758	997.196	764.089
128.395	15.840	996.550	763.900
129.410	15.792	995.834	763.065
130.424	15.925	994.824	762.826
131.439	15.984	993.890	762.308
132.454	16.059	993.567	762.336
133.468	15.978	992.847	761.350
134.483	15.961	992.172	760.686
135.497	15.993	991.182	760.002
136.512	16.066	990.217	759.526
137.527	16.021	989.347	758.589
138.541	16.067	988.377	757.984
139.556	16.055	987.832	757.447
140.570	16.163	987.376	757.517
141.585	16.310	986.392	757.353
142.600	16.308	985.821	756.838
143.614	16.303	984.617	755.826
144.629	16.311	984.210	755.481
145.643	16.328	983.166	754.687
146.658	16.408	981.500	753.699
147.673	16.048	980.688	751.404
148.687	15.958	980.151	750.524
149.702	16.010	979.093	749.882
150.716	16.183	977.894	749.663
151.731	15.945	977.906	748.550
152.746	15.906	976.846	747.499
153.760	16.008	976.513	747.632
154.775	16.074	975.830	747.335
155.789	16.374	974.966	747.935
156.804	16.309	974.041	746.874
157.819	16.346	973.616	746.642
158.833	16.261	973.497	746.109
159.848	16.384	972.288	745.661
160.862	16.372	970.982	744.541
161.877	16.243	969.835	743.027
162.892	16.038	968.761	741.239
163.906	16.129	967.948	740.951
164.921	16.171	966.945	740.299
165.935	16.271	966.202	740.106
166.950	16.168	965.787	739.272
167.964	16.149	965.072	738.573
168.979	16.216	963.644	737.709
169.994	16.163	962.656	736.657
171.008	16.149	962.371	736.313
172.023	16.302	961.470	736.222
173.037	16.534	960.760	736.625
174.052	16.306	960.482	735.354
175.067	16.164	959.504	733.923
176.081	16.104	958.976	733.195
177.096	16.037	958.261	732.291
178.110	16.236	957.720	732.674
179.125	16.337	956.922	732.440
180.140	16.318	956.391	731.886
181.154	16.381	956.291	732.016
182.169	16.490	955.339	731.695
183.183	16.522	955.016	731.522
184.198	16.440	954.424	730.650
185.213	16.442	953.610	729.972
186.227	16.533	953.035	729.858
187.242	16.551	952.437	729.413
188.256	16.744	951.444	729.418
189.271	16.527	950.987	728.070
190.286	16.393	949.769	726.497
191.300	16.263	948.966	725.262
192.315	16.138	948.390	724.218
193.329	16.063	948.332	723.790
194.344	16.282	947.162	723.770
195.359	16.294	946.814	723.490
196.373	16.440	946.480	723.800
197.388	16.563	946.413	724.209
198.402	16.780	945.364	724.273
199.417	16.888	944.465	723.981
200.432	16.893	943.993	723.576
201.446	16.828	943.601	722.932
202.461	16.901	943.147	722.833
203.475	16.893	942.515	722.251
204.490	16.599	942.097	720.612
205.504	16.688	940.681	719.845
206.519	16.751	939.867	719.424
207.534	16.559	939.410	718.198
208.548	16.749	938.511	718.253
209.563	16.770	937.981	717.872
210.577	16.920	936.851	717.580
211.592	17.086	936.751	718.143
212.607	17.020	936.072	717.278
213.621	16.868	935.209	715.913
214.636	16.878	934.344	715.226
215.650	16.838	933.830	714.604
216.665	16.972	933.220	714.638
217.680	17.049	932.230	714.141
218.694	16.970	931.921	713.509
219.709	16.956	931.147	712.794
220.723	16.968	930.648	712.399
221.738	16.886	929.931	711.442
222.753	17.110	928.995	711.605
223.767	17.160	928.345	711.253
224.782	17.212	927.641	710.867
225.796	17.192	927.845	710.877
226.811	17.150	926.705	709.765
227.826	16.991	925.703	708.271
228.840	16.949	924.931	707.440
229.855	17.040	924.081	707.106
230.869	16.994	923.450	706.369
231.884	16.984	922.871	705.826
232.899	16.966	921.934	704.968
233.913	16.909	921.158	704.078
234.928	16.932	920.509	703.614
235.942	16.978	919.838	703.230
236.957	16.918	919.317	702.522
237.972	17.013	918.806	702.464
238.986	16.902	918.365	701.602
240.001	16.973	917.259	700.990
241.015	16.989	916.623	700.507
242.030	17.100	916.145	700.539
243.045	17.082	916.138	700.398
244.059	17.224	915.292	700.275
245.074	17.192	914.229	699.266
246.088	17.119	914.135	698.833
247.103	17.308	913.246	698.867
248.117	17.343	913.011	698.769
249.132	17.497	912.760	699.149
250.147	17.586	912.035	698.896
251.161	17.563	911.005	697.952
252.176	17.668	910.346	697.816
253.190	17.618	910.091	697.354
254.205	17.705	909.128	696.907
255.220	17.686	908.390	696.203
256.234	17.718	907.641	695.698
257.249	17.801	907.106	695.563
258.263	17.719	906.596	694.779
259.278	17.691	905.781	693.978
260.293	17.725	905.041	693.486
261.307	17.784	904.775	693.462
262.322	17.859	903.901	693.037
263.336	17.935	903.113	692.680
264.351	17.883	902.339	691.812
265.366	17.887	901.931	691.454
266.380	17.918	901.196	690.956
267.395	17.928	900.322	690.264
268.409	17.899	899.467	689.434
269.424	17.840	898.997	688.774
270.439	17.785	898.070	687.778
271.453	17.727	897.428	686.995
272.468	17.776	897.037	686.829
273.482	17.778	896.577	686.426
274.497	17.682	896.130	685.638
275.512	17.785	895.595	685.581
276.526	17.577	895.290	684.449
277.541	17.895	894.347	684.946
278.555	17.886	893.973	684.563
279.570	18.066	893.292	684.703
280.585	18.067	892.508	684.046
281.599	17.992	891.376	682.818
282.614	17.785	890.908	681.571
283.628	18.079	890.023	682.006
284.643	17.902	889.789	681.061
285.657	18.019	888.996	680.859
286.672	18.051	888.369	680.448
287.687	18.024	887.450	679.574
288.701	17.992	887.102	679.121
289.716	18.033	886.538	678.790
290.730	18.069	886.212	678.626
291.745	18.022	885.430	677.781
292.760	18.140	884.569	677.531
293.774	18.342	883.952	677.796
294.789	18.288	883.326	677.041
295.803	18.011	882.684	675.396
296.818	18.041	882.016	674.941
297.833	17.994	881.529	674.324
298.847	18.072	880.809	674.022
299.862	18.095	880.435	673.766
300.876	18.187	879.555	673.398
301.891	18.411	878.798	673.637
302.906	18.274	879.001	673.194
303.920	18.337	878.365	672.896
304.935	18.580	877.436	673.080
305.949	18.396	876.734	671.760
306.964	18.429	876.216	671.433
307.979	18.417	875.513	670.789
308.993	18.449	875.176	670.595
310.008	18.466	874.536	670.113
311.022	18.403	874.248	669.584
312.037	18.424	873.097	668.727
313.052	18.260	872.739	667.754
314.066	18.329	871.853	667.287
315.081	18.237	871.773	666.807
316.095	18.274	870.972	666.280
317.110	18.280	870.420	665.820
318.125	18.249	869.930	665.265
319.139	18.280	869.280	664.830
320.154	18.323	869.080	664.787
321.168	18.400	868.291	664.421
322.183	18.254	868.188	663.720
323.197	18.322	867.590	663.466
324.212	18.440	866.572	663.086
325.227	18.451	866.057	662.678
326.241	18.305	865.631	661.729
327.256	18.313	864.982	661.204
328.270	18.390	864.088	660.758
329.285	18.200	863.921	659.838
330.300	18.367	863.160	659.844
331.314	18.441	862.666	659.692
332.329	18.502	862.412	659.676
333.343	18.593	861.828	659.518
334.358	18.526	861.532	658.975
335.373	18.564	861.313	658.897
336.387	18.635	860.867	658.771
337.402	18.780	860.188	658.747
338.416	18.804	859.692	658.404
339.431	18.840	859.559	658.378
340.446	18.940	859.022	658.293
341.460	18.954	858.574	657.946
342.475	18.954	858.450	657.793
343.489	18.900	858.061	657.230
344.504	18.854	857.888	656.861
345.519	19.024	857.144	656.883
346.533	19.057	856.500	656.458
347.548	18.893	855.636	655.114
348.562	18.787	855.344	654.426
349.577	18.687	854.604	653.423
350.592	18.729	853.903	652.988
351.606	18.670	853.441	652.355
352.621	18.846	852.257	652.060
353.635	18.935	851.480	651.743
354.650	18.900	851.400	651.494
355.665	18.971	850.423	650.955
356.679	18.955	850.162	650.638
357.694	18.944	849.797	650.258
358.708	18.946	848.698	649.367
359.723	18.852	848.516	648.818
360.738	18.938	847.964	648.664
361.752	19.002	847.055	648.151
362.767	19.110	846.501	648.075
363.781	19.166	846.226	648.018
364.796	19.396	845.222	648.057
365.810	19.268	845.250	647.539
366.825	19.472	844.741	647.857
367.840	19.302	844.477	646.961
368.854	19.218	843.985	646.210
369.869	19.471	843.336	646.607
370.883	19.329	842.687	645.518
371.898	19.407	842.589	645.681
372.913	19.514	842.055	645.612
373.927	19.530	841.274	645.017
374.942	19.484	840.738	644.377
375.956	19.401	840.514	643.839
376.971	19.426	840.449	643.824
377.986	19.573	839.648	643.702
379.000	19.663	839.022	643.501
380.015	19.686	838.272	642.954
381.029	19.543	838.280	642.369
382.044	19.545	837.745	641.911
383.059	19.685	836.745	641.610
384.073	19.490	836.196	640.408
385.088	19.353	835.562	639.359
386.102	19.528	834.750	639.329
387.117	19.411	834.382	638.557
388.132	19.515	833.542	638.242
389.146	19.525	833.296	638.033
390.161	19.563	833.004	637.894
391.175	19.638	832.361	637.622
392.190	19.435	832.038	636.570
393.205	19.462	831.549	636.239
394.219	19.525	830.792	635.834
395.234	19.377	830.521	635.028
396.248	19.328	830.514	634.783
397.263	19.437	829.673	634.487
398.278	19.284	829.891	634.032
399.292	19.324	829.217	633.609
400.307	19.471	828.206	633.319
401.321	19.511	827.751	633.063
402.336	19.563	827.301	632.854
403.350	19.713	826.638	632.840
404.365	19.654	826.467	632.436
405.380	19.720	826.344	632.528
406.394	19.773	825.532	632.044
407.409	19.874	825.354	632.221
408.423	20.004	824.969	632.345
409.438	19.978	824.386	631.747
410.453	19.986	824.243	631.611
411.467	19.988	823.259	630.810
412.482	20.163	822.972	631.169
413.496	20.036	822.968	630.649
414.511	20.122	822.329	630.417
415.526	20.061	821.882	629.795
416.540	20.051	821.504	629.414
417.555	20.014	820.650	628.569
418.569	20.077	820.788	628.849
419.584	19.990	820.088	627.941
420.599	20.156	819.484	628.023
421.613	153.999	1369.989	1783.775
422.628	134.109	1450.206	1783.915
