DTS Sentinel unit serial number:	SN413079Multiplexer serial number:	ORYXHardware model number:	OX4-SRSoftware version number:	ORYX F/W v4.00 Oryx Data Collector v3.7.2.0data status	okinstallation	princeton_trtdifferential loss correction	single-endedforward channel	channel 1reverse channel	N/Adate	2019/09/15time	23:30:36forward acquisition time	60.00reverse acquisition time	0.00gamma	496.2192k internal	0.2332k external	0.2332temperature offset calibration	0.9970default loss term (dB/km)	0.3790temperature slope calibration	1.0000multiplexer offset coefficient	1.0000multiplexer slope coefficient	1.0000fibre end	0.00T internal ref (°C)	28.17T ext. ref 1 (°C)	9.18T ext. ref 2 (°C)	22.05length (m)	temperature (°C)	Stokes	anti-Stokes-747.200	70.455	0.012	0.013
-746.185	92.273	-0.270	0.306
-745.171	-114.615	0.184	-0.035
-744.156	51.987	-0.275	0.263
-743.142	10.044	0.296	-0.226
-742.127	800.000	-0.006	-0.025
-741.112	141.141	0.076	-0.101
-740.098	237.725	-0.082	0.136
-739.083	-200.000	0.016	-0.226
-738.069	800.000	-0.061	0.216
-737.054	8.390	-0.108	0.082
-736.039	313.717	-0.101	0.190
-735.025	-53.360	0.373	0.172
-734.010	-161.376	-0.247	0.013
-732.996	-200.000	0.001	0.017
-731.981	51.378	-0.183	0.174
-730.966	-139.297	0.240	-0.026
-729.952	-148.120	-0.466	-0.039
-728.937	-38.206	0.118	-0.063
-727.923	-34.084	0.038	0.021
-726.908	-88.283	0.241	0.072
-725.894	546.900	0.108	-0.260
-724.879	-54.821	-0.157	-0.071
-723.864	242.517	-0.083	-0.139
-722.850	-156.251	0.275	-0.017
-721.835	-200.000	-0.015	-0.308
-720.821	294.484	-0.093	0.171
-719.806	-79.752	-0.348	-0.118
-718.791	-163.907	-0.158	-0.007
-717.777	-200.000	-0.082	-0.678
-716.762	-17.819	0.101	-0.064
-715.748	-46.467	0.443	0.219
-714.733	-32.883	0.169	0.094
-713.718	-7.128	0.116	0.079
-712.704	177.056	-0.106	-0.156
-711.689	-88.940	0.208	0.062
-710.675	755.011	0.150	0.407
-709.660	105.275	-0.066	-0.078
-708.645	-200.000	-0.099	0.579
-707.631	620.011	0.051	0.128
-706.616	-200.000	0.030	0.147
-705.602	431.415	-0.123	-0.269
-704.587	-28.843	0.269	0.155
-703.572	-123.349	-0.243	0.039
-702.558	-79.226	0.077	-0.026
-701.543	67.747	-0.077	0.079
-700.529	-200.000	-0.021	-0.155
-699.514	-200.000	0.003	0.104
-698.499	22.424	-0.080	0.065
-697.485	-103.624	-0.182	0.043
-696.470	-187.604	-0.248	0.003
-695.456	55.795	-0.125	0.121
-694.441	285.705	0.101	-0.183
-693.426	-8.664	0.191	-0.129
-692.412	-63.746	0.196	0.081
-691.397	-200.000	-0.047	-0.392
-690.383	-200.000	-0.008	-0.115
-689.368	-38.121	-0.144	0.077
-688.354	-96.201	0.089	0.024
-687.339	-177.089	0.245	-0.006
-686.324	356.434	-0.068	0.137
-685.310	111.649	-0.102	-0.124
-684.295	-153.569	0.249	0.017
-683.281	324.120	-0.078	0.150
-682.266	-132.284	-0.265	-0.034
-681.251	155.143	0.151	-0.208
-680.237	65.740	0.192	-0.196
-679.222	82.485	-0.167	-0.182
-678.208	140.397	-0.128	0.170
-677.193	-200.000	-0.002	-0.019
-676.178	-63.362	-0.202	0.083
-675.164	138.100	0.034	-0.045
-674.149	-39.617	0.264	0.139
-673.135	-152.786	-0.266	-0.019
-672.120	-200.000	-0.005	-0.043
-671.105	-121.278	0.127	-0.021
-670.091	107.114	0.140	-0.167
-669.076	-119.512	-0.173	0.030
-668.062	-21.639	0.531	0.325
-667.047	118.154	-0.147	0.182
-666.032	-112.626	0.116	-0.023
-665.018	-191.285	0.269	0.003
-664.003	197.670	0.079	-0.121
-662.989	304.766	-0.181	-0.338
-661.974	430.755	-0.083	-0.180
-660.959	701.095	-0.144	0.379
-659.945	800.000	0.038	-0.148
-658.930	-200.000	-0.005	-0.146
-657.916	-49.079	0.152	0.073
-656.901	-39.399	0.170	0.089
-655.886	-116.768	0.201	0.037
-654.872	257.315	-0.080	-0.138
-653.857	-49.729	-0.170	-0.081
-652.843	686.020	-0.141	-0.368
-651.828	-39.543	0.094	0.049
-650.814	266.302	0.077	0.135
-649.799	800.000	-0.064	0.220
-648.784	-200.000	-0.019	-0.237
-647.770	-200.000	0.066	-0.303
-646.755	-78.058	-0.347	0.120
-645.741	-54.114	-0.241	-0.110
-644.726	-21.999	-0.263	-0.160
-643.711	709.490	-0.064	0.170
-642.697	-138.045	-0.166	0.018
-641.682	438.006	-0.094	0.205
-640.668	800.000	0.063	-0.215
-639.653	34.194	-0.421	0.367
-638.638	92.029	0.066	-0.075
-637.624	-130.100	0.172	-0.024
-636.609	61.999	-0.170	-0.170
-635.595	80.446	-0.244	-0.263
-634.580	47.167	-0.133	0.124
-633.565	-115.735	-0.157	-0.030
-632.551	-89.819	-0.027	0.008
-631.536	800.000	0.045	-0.187
-630.522	800.000	-0.084	-0.263
-629.507	-200.000	-0.017	0.089
-628.492	178.749	0.105	0.153
-627.478	-75.878	0.029	-0.010
-626.463	-125.098	-0.190	-0.029
-625.449	-141.213	-0.354	0.036
-624.434	800.000	-0.105	0.363
-623.419	-77.574	0.309	-0.107
-622.405	800.000	0.082	-0.228
-621.390	107.397	0.096	-0.115
-620.376	-200.000	-0.006	-0.119
-619.361	-200.000	-0.059	0.321
-618.346	-82.285	-0.170	-0.055
-617.332	800.000	-0.147	-0.458
-616.317	800.000	0.033	-0.141
-615.303	-71.196	-0.216	-0.081
-614.288	353.131	0.187	0.372
-613.273	130.103	0.160	-0.205
-612.259	-103.294	0.320	0.076
-611.244	-200.000	0.059	-0.288
-610.230	-82.249	-0.232	-0.075
-609.215	-200.000	0.085	-0.605
-608.201	277.697	0.273	0.486
-607.186	-200.000	-0.054	-0.270
-606.171	30.278	0.037	0.032
-605.157	-178.681	-0.189	0.004
-604.142	-71.009	0.072	-0.027
-603.128	39.297	-0.288	-0.258
-602.113	-55.772	0.074	-0.033
-601.098	273.488	-0.088	0.155
-600.084	-9.117	-0.131	0.088
-599.069	-104.283	0.205	0.048
-598.055	-124.179	0.218	0.034
-597.040	-12.032	-0.151	0.099
-596.025	-76.105	0.092	-0.033
-595.011	800.000	0.069	0.227
-593.996	-102.113	0.306	-0.074
-592.982	81.279	-0.196	-0.212
-591.967	136.944	-0.139	0.182
-590.952	-101.062	0.136	-0.033
-589.938	-200.000	-0.014	0.119
-588.923	207.425	-0.010	-0.016
-587.909	-137.849	0.440	0.049
-586.894	-89.342	-0.387	-0.114
-585.879	-65.563	-0.285	-0.114
-584.865	-49.601	0.227	0.108
-583.850	231.674	-0.139	0.228
-582.836	4.918	-0.118	-0.087
-581.821	-35.778	0.157	0.085
-580.806	800.000	-0.075	-0.242
-579.792	-125.322	0.082	0.013
-578.777	132.917	0.157	-0.203
-577.763	219.464	0.177	-0.283
-576.748	443.430	0.004	0.009
-575.733	43.996	-0.266	0.243
-574.719	-47.650	-0.127	-0.061
-573.704	331.303	-0.088	-0.170
-572.690	117.762	0.256	-0.315
-571.675	-103.913	0.237	-0.055
-570.661	800.000	0.064	0.201
-569.646	-200.000	-0.014	-0.086
-568.631	38.664	-0.164	0.146
-567.617	-134.670	-0.235	-0.029
-566.602	33.069	-0.208	-0.180
-565.588	-200.000	0.031	0.201
-564.573	30.844	-0.110	-0.095
-563.558	496.172	0.031	0.072
-562.544	-140.499	0.087	-0.009
-561.529	-116.297	0.358	0.066
-560.515	800.000	0.063	-0.243
-559.500	-87.985	0.223	-0.067
-558.485	-74.712	-0.299	-0.107
-557.471	-200.000	-0.067	-0.390
-556.456	-142.568	0.086	-0.008
-555.442	800.000	0.031	-0.088
-554.427	-113.278	0.254	-0.050
-553.412	404.360	0.048	-0.100
-552.398	275.291	-0.082	0.144
-551.383	-6.926	0.187	0.127
-550.369	-200.000	-0.035	0.335
-549.354	-200.000	0.011	-0.087
-548.339	1.781	0.243	-0.175
-547.325	224.953	-0.008	-0.013
-546.310	-200.000	-0.043	0.264
-545.296	-74.292	0.317	0.114
-544.281	-106.981	-0.429	0.095
-543.266	-200.000	0.004	-0.216
-542.252	-200.000	-0.028	-0.130
-541.237	-89.746	0.241	-0.070
-540.223	49.868	-0.099	-0.094
-539.208	185.707	0.051	-0.075
-538.193	530.215	0.040	0.093
-537.179	800.000	0.078	-0.225
-536.164	-66.737	-0.281	-0.111
-535.150	425.940	0.090	-0.194
-534.135	109.451	-0.085	0.102
-533.121	-126.974	0.247	-0.036
-532.106	-95.210	-0.102	-0.027
-531.091	-160.272	0.142	-0.008
-530.077	-200.000	0.021	0.320
-529.062	70.335	-0.320	0.330
-528.048	127.458	0.117	0.148
-527.033	-94.427	-0.345	-0.094
-526.018	-200.000	-0.045	-0.217
-525.004	70.851	0.191	0.197
-523.989	246.623	-0.052	-0.088
-522.975	-79.239	-0.268	-0.091
-521.960	-34.709	0.142	-0.077
-520.945	18.760	0.067	0.054
-519.931	-33.367	0.264	0.145
-518.916	55.886	-0.042	0.041
-517.902	-21.675	0.083	0.050
-516.887	20.558	-0.225	0.182
-515.872	-102.233	-0.122	-0.029
-514.858	-77.185	-0.218	-0.076
-513.843	262.999	0.010	-0.017
-512.829	104.640	0.178	-0.209
-511.814	-72.058	-0.208	0.077
-510.799	99.116	-0.080	0.092
-509.785	-4.556	0.024	-0.016
-508.770	45.477	0.342	-0.315
-507.756	349.299	0.133	0.261
-506.741	227.641	0.087	-0.141
-505.726	800.000	0.039	-0.150
-504.712	278.972	-0.163	-0.290
-503.697	-25.725	-0.120	-0.071
-502.683	-87.326	0.204	-0.062
-501.668	-200.000	-0.001	0.366
-500.653	-200.000	0.022	-0.120
-499.639	-56.411	-0.368	0.163
-498.624	174.986	-0.100	-0.144
-497.610	-41.084	-0.348	0.179
-496.595	-100.956	-0.344	0.084
-495.581	-200.000	0.004	-0.110
-494.566	-106.566	0.271	-0.060
-493.551	800.000	-0.073	-0.279
-492.537	49.602	0.150	0.141
-491.522	329.187	0.189	-0.362
-490.508	-22.610	0.162	0.097
-489.493	-119.683	0.428	0.074
-488.478	502.218	-0.154	-0.353
-487.464	167.821	-0.045	0.064
-486.449	13.189	-0.019	-0.015
-485.435	560.784	0.139	-0.334
-484.420	17.001	-0.091	-0.072
-483.405	-128.071	0.296	0.042
-482.391	-200.000	0.041	-0.230
-481.376	-10.250	-0.209	0.138
-480.362	404.938	-0.057	-0.119
-479.347	356.107	-0.013	-0.026
-478.332	70.547	-0.122	-0.126
-477.318	340.994	-0.252	0.491
-476.303	341.481	-0.053	0.102
-475.289	65.139	0.046	-0.046
-474.274	-13.715	-0.057	0.037
-473.259	-43.759	-0.072	-0.036
-472.245	-38.273	-0.325	-0.171
-471.230	800.000	0.093	-0.293
-470.216	88.660	-0.158	-0.175
-469.201	-20.107	-0.218	0.134
-468.186	35.927	0.205	-0.180
-467.172	-200.000	0.024	-0.156
-466.157	32.838	0.239	0.206
-465.143	114.204	-0.182	0.221
-464.128	-200.000	0.010	0.158
-463.113	-200.000	0.013	0.070
-462.099	-7.749	-0.175	-0.117
-461.084	-200.000	0.020	-0.260
-460.070	-122.768	-0.048	-0.008
-459.055	-32.918	0.183	-0.101
-458.040	235.068	0.191	0.313
-457.026	458.882	-0.105	0.233
-456.011	-17.817	0.151	0.094
-454.997	-5.568	0.231	0.157
-453.982	-88.350	0.174	0.052
-452.968	269.395	-0.041	0.072
-451.953	-177.309	-0.203	0.005
-450.938	-52.630	0.110	0.051
-449.924	-34.879	-0.300	-0.163
-448.909	263.819	0.102	-0.176
-447.895	127.931	0.166	-0.210
-446.880	-26.261	0.193	-0.113
-445.865	800.000	0.063	0.196
-444.851	-134.989	0.135	0.016
-443.836	-184.031	0.309	0.005
-442.822	55.723	0.174	0.167
-441.807	-200.000	-0.019	0.171
-440.792	-15.390	0.135	0.086
-439.778	418.429	-0.103	0.218
-438.763	54.557	0.237	0.227
-437.749	112.639	0.177	-0.214
-436.734	509.970	-0.135	-0.311
-435.719	-160.642	-0.386	-0.020
-434.705	-3.030	-0.342	0.237
-433.690	-93.788	-0.228	0.062
-432.676	-128.100	0.284	0.040
-431.661	-174.352	-0.205	0.006
-430.646	-200.000	0.025	-0.131
-429.632	-67.250	-0.296	-0.116
-428.617	120.716	0.036	0.045
-427.603	800.000	-0.063	-0.195
-426.588	-69.702	0.459	0.175
-425.573	-94.859	-0.454	0.122
-424.559	-169.466	-0.352	0.013
-423.544	-91.737	-0.243	0.069
-422.530	153.645	-0.051	-0.070
-421.515	-145.512	0.147	-0.013
-420.500	-33.410	0.201	0.110
-419.486	16.362	0.304	0.239
-418.471	447.966	0.071	-0.156
-417.457	-89.285	0.053	0.016
-416.442	508.814	0.108	-0.250
-415.428	-200.000	-0.027	0.236
-414.413	800.000	0.029	-0.105
-413.398	-85.171	-0.206	-0.064
-412.384	-71.824	0.252	0.093
-411.369	-161.454	0.312	-0.016
-410.355	-200.000	-0.014	0.108
-409.340	-200.000	-0.019	-0.302
-408.325	-63.539	-0.079	0.032
-407.311	139.707	0.067	-0.087
-406.296	685.693	-0.124	0.323
-405.282	84.271	0.105	0.114
-404.267	191.345	0.099	0.149
-403.252	121.420	-0.127	0.157
-402.238	800.000	-0.070	-0.254
-401.223	42.625	0.158	0.143
-400.209	116.221	0.068	0.083
-399.194	-200.000	0.055	0.503
-398.179	800.000	0.077	0.263
-397.165	-177.449	0.106	-0.003
-396.150	-3.710	-0.148	0.102
-395.136	800.000	0.119	-0.468
-394.121	73.147	0.163	0.170
-393.106	102.841	-0.173	0.201
-392.092	-88.997	-0.241	-0.071
-391.077	468.739	0.169	-0.375
-390.063	148.467	0.190	-0.254
-389.048	15.842	-0.211	-0.165
-388.033	-67.094	-0.149	0.058
-387.019	-133.544	0.259	0.032
-386.004	50.764	0.132	0.124
-384.990	13.602	-0.227	-0.175
-383.975	71.115	0.036	-0.037
-382.960	5.015	0.322	0.235
-381.946	122.990	-0.073	0.091
-380.931	-92.925	0.280	0.078
-379.917	800.000	0.062	0.222
-378.902	-102.256	0.188	-0.045
-377.888	8.079	-0.179	-0.133
-376.873	-200.000	0.024	-0.275
-375.858	-15.084	-0.212	0.135
-374.844	4.854	0.268	-0.196
-373.829	124.512	0.219	0.273
-372.815	552.825	0.090	0.215
-371.800	-104.288	-0.037	-0.009
-370.785	-200.000	-0.020	-0.256
-369.771	15.132	0.112	0.087
-368.756	-200.000	-0.017	-0.439
-367.742	-74.223	-0.260	0.093
-366.727	129.032	0.270	-0.342
-365.712	-22.451	0.061	-0.037
-364.698	-45.224	-0.212	0.105
-363.683	170.622	0.068	-0.096
-362.669	-200.000	0.032	-0.250
-361.654	59.306	-0.234	-0.228
-360.639	141.231	0.365	-0.478
-359.625	430.128	-0.085	0.183
-358.610	-117.611	-0.245	-0.044
-357.596	-88.964	0.172	-0.051
-356.581	-101.401	-0.313	0.076
-355.566	314.574	0.058	-0.108
-354.552	800.000	0.046	0.200
-353.537	102.160	0.133	-0.154
-352.523	-9.166	-0.166	-0.110
-351.508	117.348	0.123	-0.150
-350.493	-136.329	-0.192	-0.022
-349.479	-200.000	0.044	-0.248
-348.464	-200.000	-0.036	-0.197
-347.450	262.564	-0.122	0.210
-346.435	0.864	-0.029	0.020
-345.420	800.000	0.037	0.111
-344.406	-200.000	0.021	-0.092
-343.391	105.334	0.391	0.458
-342.377	11.825	0.080	-0.061
-341.362	-200.000	-0.026	0.197
-340.348	-106.860	-0.152	-0.033
-339.333	225.740	-0.055	0.089
-338.318	-200.000	-0.024	-0.201
-337.304	-33.561	-0.395	0.216
-336.289	-138.465	0.183	0.020
-335.275	-129.135	0.043	0.006
-334.260	800.000	-0.060	0.176
-333.245	-200.000	-0.006	-0.369
-332.231	-45.445	-0.065	-0.032
-331.216	1.199	-0.141	0.100
-330.202	42.931	-0.154	0.139
-329.187	-62.903	-0.133	-0.055
-328.172	7.933	-0.415	0.308
-327.158	25.961	0.129	0.106
-326.143	331.113	-0.105	-0.201
-325.129	-200.000	-0.006	-0.450
-324.114	-43.984	0.203	0.101
-323.099	-200.000	0.012	0.071
-322.085	85.339	-0.098	0.106
-321.070	-26.659	-0.466	-0.270
-320.056	800.000	0.098	-0.284
-319.041	68.645	0.053	0.053
-318.026	-200.000	-0.000	0.077
-317.012	-119.872	0.296	-0.050
-315.997	-149.014	0.253	0.020
-314.983	-5.785	0.281	0.191
-313.968	-200.000	0.000	0.458
-312.953	123.512	-0.154	-0.191
-311.939	168.403	0.277	0.391
-310.924	130.409	0.138	-0.175
-309.910	142.924	-0.064	0.085
-308.895	21.929	0.017	0.014
-307.880	60.168	-0.049	0.048
-306.866	-9.046	-0.049	0.032
-305.851	-38.091	-0.152	-0.080
-304.837	-146.245	-0.194	0.017
-303.822	552.854	0.090	0.213
-302.807	-166.291	0.190	0.008
-301.793	-94.026	-0.221	0.060
-300.778	-89.057	0.174	-0.051
-299.764	-200.000	0.008	-0.208
-298.749	-200.000	-0.041	0.202
-297.735	-78.575	-0.101	0.034
-296.720	-158.711	0.184	0.010
-295.705	-191.952	-0.179	0.002
-294.691	-100.774	0.215	0.052
-293.676	560.264	-0.041	0.099
-292.662	534.300	-0.187	-0.437
-291.647	376.208	0.071	-0.143
-290.632	800.000	0.044	-0.155
-289.618	-33.152	0.160	0.088
-288.603	-200.000	0.025	0.140
-287.589	248.501	-0.111	0.185
-286.574	106.461	-0.116	-0.136
-285.559	-63.564	-0.115	0.047
-284.545	-103.839	-0.024	-0.005
-283.530	-200.000	-0.004	-0.345
-282.516	69.737	-0.174	-0.177
-281.501	-129.656	0.094	0.013
-280.486	800.000	0.073	-0.293
-279.472	-24.068	0.222	0.131
-278.457	-135.708	0.425	0.050
-277.443	167.982	-0.161	0.227
-276.428	117.133	-0.050	0.061
-275.413	-200.000	-0.041	0.274
-274.399	-42.726	0.175	-0.088
-273.384	-57.914	-0.194	-0.084
-272.370	-200.000	0.011	0.145
-271.355	-200.000	0.069	0.362
-270.340	63.710	-0.044	-0.043
-269.326	-112.902	0.259	0.051
-268.311	-3.785	0.234	0.160
-267.297	-200.000	-0.057	-0.290
-266.282	267.654	-0.029	-0.051
-265.267	-122.505	0.488	-0.078
-264.253	-200.000	-0.037	-0.216
-263.238	58.471	0.212	0.206
-262.224	-200.000	0.063	0.379
-261.209	382.718	-0.019	0.039
-260.195	146.107	-0.035	-0.046
-259.180	800.000	0.084	0.307
-258.165	800.000	0.157	-0.447
-257.151	800.000	-0.084	0.337
-256.136	-99.490	-0.227	0.056
-255.122	-72.135	-0.568	0.208
-254.107	-200.000	0.029	0.171
-253.092	33.091	0.126	0.108
-252.078	-87.918	0.164	0.049
-251.063	29.093	0.199	0.166
-250.049	435.947	0.078	0.167
-249.034	800.000	-0.032	-0.101
-248.019	-52.898	0.292	-0.133
-247.005	-55.401	-0.104	-0.046
-245.990	57.941	0.207	0.200
-244.976	-200.000	0.016	-0.201
-243.961	-200.000	-0.050	0.234
-242.946	-200.000	-0.001	0.041
-241.932	-134.951	-0.142	0.017
-240.917	-200.000	-0.005	0.270
-239.903	7.997	0.168	-0.124
-238.888	223.777	-0.124	0.197
-237.873	-176.499	-0.203	-0.005
-236.859	284.528	0.045	-0.081
-235.844	800.000	-0.069	0.290
-234.830	136.158	-0.270	-0.347
-233.815	78.191	0.121	-0.128
-232.800	-169.747	0.164	-0.006
-231.786	-134.277	-0.339	-0.041
-230.771	800.000	-0.089	-0.260
-229.757	-100.395	-0.240	0.059
-228.742	-98.948	-0.371	-0.093
-227.727	-51.257	-0.148	0.068
-226.713	93.923	-0.192	-0.215
-225.698	-78.581	0.173	-0.058
-224.684	185.016	0.159	0.232
-223.669	135.441	-0.113	-0.145
-222.655	336.739	0.105	0.202
-221.640	-42.623	-0.217	-0.109
-220.625	252.941	0.122	0.205
-219.611	-55.215	-0.195	-0.087
-218.596	-200.000	-0.020	-0.113
-217.582	456.680	-0.048	0.105
-216.567	350.647	0.230	0.448
-215.552	-200.000	-0.037	0.219
-214.538	269.246	0.028	0.049
-213.523	123.605	-0.131	-0.162
-212.509	800.000	0.101	0.406
-211.494	51.061	0.212	0.198
-210.479	133.873	0.180	0.230
-209.465	-200.000	0.049	-0.217
-208.450	-200.000	0.033	-0.172
-207.436	-67.279	-0.163	0.063
-206.421	-93.063	-0.303	0.083
-205.406	-48.304	-0.020	-0.009
-204.392	66.275	-0.175	-0.175
-203.377	-18.637	-0.084	-0.052
-202.363	-52.324	0.218	-0.099
-201.348	-25.686	0.318	-0.185
-200.333	22.201	0.375	-0.302
-199.319	187.651	0.100	0.146
-198.304	-135.019	0.283	0.034
-197.290	71.771	0.127	0.130
-196.275	-114.592	-0.363	0.069
-195.260	-200.000	0.207	0.001
-194.246	-141.413	0.274	-0.027
-193.231	-200.000	-0.003	-0.161
-192.217	598.839	0.130	0.318
-191.202	174.990	-0.234	0.334
-190.187	-127.539	0.046	0.007
-189.173	78.857	-0.158	0.167
-188.158	402.907	0.049	0.102
-187.144	-93.706	0.037	-0.010
-186.129	-29.182	-0.152	0.086
-185.114	-21.709	0.210	0.126
-184.100	-200.000	-0.005	0.041
-183.085	90.829	-0.187	0.206
-182.071	342.871	-0.147	-0.284
-181.056	-86.928	0.237	0.071
-180.042	800.000	-0.023	0.080
-179.027	-186.305	0.165	-0.002
-178.012	-200.000	0.018	0.152
-176.998	302.258	0.162	-0.295
-175.983	-102.459	-0.427	-0.101
-174.969	28.134	-0.113	-0.094
-173.954	-129.289	-0.428	-0.059
-172.939	-187.694	0.169	-0.002
-171.925	-200.000	-0.009	0.247
-170.910	-38.468	0.053	0.028
-169.896	-200.000	0.006	-0.157
-168.881	-91.357	-0.192	0.054
-167.866	-200.000	-0.024	-0.162
-166.852	-114.454	0.283	0.053
-165.837	-200.000	-0.043	0.188
-164.823	234.110	-0.119	0.192
-163.808	800.000	0.071	-0.298
-162.793	231.534	-0.083	0.135
-161.779	-200.000	0.009	-0.137
-160.764	20.507	0.208	0.165
-159.750	-72.800	0.331	0.120
-158.735	800.000	-0.011	0.034
-157.720	314.094	-0.014	0.026
-156.706	800.000	0.048	0.203
-155.691	165.935	-0.056	-0.078
-154.677	-52.097	0.181	-0.083
-153.662	-161.243	-0.298	-0.015
-152.647	132.060	-0.143	-0.181
-151.633	800.000	-0.149	0.417
-150.618	48.995	0.136	0.126
-149.604	800.000	0.062	0.245
-148.589	-61.470	0.159	0.066
-147.574	-12.147	-0.141	-0.091
-146.560	-200.000	-0.021	-0.280
-145.545	-60.612	-0.093	-0.039
-144.531	-130.617	-0.032	0.004
-143.516	-200.000	-0.079	-0.406
-142.502	-200.000	-0.033	-0.471
-141.487	92.605	-0.077	-0.086
-140.472	20.759	0.163	0.130
-139.458	70.508	-0.042	-0.043
-138.443	-56.282	0.134	0.059
-137.429	-200.000	-0.024	-0.198
-136.414	134.243	0.148	0.189
-135.399	324.271	-0.133	0.250
-134.385	171.599	0.120	0.169
-133.370	800.000	-0.076	-0.242
-132.356	-200.000	0.025	-0.394
-131.341	-105.323	-0.124	0.028
-130.326	-48.981	0.106	-0.050
-129.312	12.854	0.069	0.052
-128.297	73.575	0.222	-0.229
-127.283	187.384	-0.191	-0.280
-126.268	800.000	-0.102	-0.373
-125.253	-200.000	0.004	-0.152
-124.239	-99.002	-0.158	-0.039
-123.224	-61.013	-0.123	0.051
-122.210	-152.820	0.066	-0.005
-121.195	-72.704	0.285	-0.103
-120.180	-22.171	0.184	-0.110
-119.166	-200.000	-0.011	0.186
-118.151	-19.127	0.255	-0.156
-117.137	800.000	-0.069	0.235
-116.122	-71.944	0.171	-0.063
-115.107	800.000	0.073	-0.218
-114.093	123.383	-0.074	-0.091
-113.078	-140.302	0.357	0.037
-112.064	-117.486	0.450	0.080
-111.049	131.980	-0.088	0.111
-110.034	-200.000	0.040	0.171
-109.020	-26.005	0.206	-0.119
-108.005	-114.148	-0.315	0.060
-106.991	-53.979	0.094	0.042
-105.976	143.282	0.110	0.143
-104.962	-118.956	-0.139	-0.024
-103.947	-200.000	-0.024	-0.257
-102.932	45.211	0.208	0.188
-101.918	-200.000	-0.063	0.303
-100.903	-65.371	0.403	-0.159
-99.889	-171.850	-0.163	0.005
-98.874	287.250	-0.162	0.287
-97.859	-36.282	-0.264	0.140
-96.845	287.556	0.057	-0.101
-95.830	120.611	0.066	0.081
-94.816	1.349	-0.251	0.177
-93.801	92.863	-0.046	0.051
-92.786	48.284	0.207	-0.190
-91.772	7.088	0.073	0.054
-90.757	109.051	-0.194	0.228
-89.743	-141.778	-0.061	0.006
-88.728	-200.000	-0.028	0.201
-87.713	-200.000	-0.027	0.413
-86.699	-103.238	-0.094	0.022
-85.684	158.105	-0.129	0.175
-84.670	800.000	0.054	0.220
-83.655	3.428	0.182	-0.130
-82.640	-71.063	0.131	0.048
-81.626	-200.000	0.010	-0.173
-80.611	-82.604	0.042	0.013
-79.597	-153.334	0.242	0.017
-78.582	792.175	0.040	-0.107
-77.567	-73.908	0.082	-0.029
-76.553	21.421	-0.328	-0.262
-75.538	-47.720	0.214	0.102
-74.524	-200.000	-0.039	0.292
-73.509	-194.686	0.343	-0.003
-72.494	-84.922	-0.109	-0.033
-71.480	218.019	-0.091	-0.143
-70.465	173.244	0.247	-0.349
-69.451	425.337	-0.103	-0.218
-68.436	-112.240	-0.241	-0.047
-67.422	58.962	0.074	-0.071
-66.407	800.000	0.079	0.315
-65.392	-125.619	0.295	0.044
-64.378	121.598	-0.200	-0.244
-63.363	99.779	0.328	-0.372
-62.349	-200.000	0.037	-0.178
-61.334	173.808	-0.763	-1.080
-60.319	-11.394	0.760	0.490
-59.305	800.000	-0.321	-0.905
-58.290	800.000	0.250	0.981
-57.276	702.709	0.619	1.599
-56.261	-200.000	111.518	650.080
-55.246	492.447	1485.272	3333.468
-54.232	151.339	2642.869	3523.336
-53.217	107.177	2136.173	2486.264
-52.203	39.502	1595.101	1399.692
-51.188	31.419	1344.597	1131.165
-50.173	28.600	1306.739	1082.663
-49.159	56.960	1362.187	1299.817
-48.144	56.008	1376.739	1307.949
-47.130	31.893	1332.710	1123.826
-46.115	28.391	1315.250	1088.303
-45.100	28.183	1310.080	1082.751
-44.086	28.066	1307.822	1080.153
-43.071	28.030	1305.786	1078.213
-42.057	28.023	1303.536	1076.271
-41.042	28.070	1302.121	1075.336
-40.027	28.040	1300.784	1074.018
-39.013	28.089	1298.462	1072.344
-37.998	28.203	1296.353	1071.225
-36.984	28.114	1295.226	1069.731
-35.969	28.187	1293.333	1068.552
-34.954	28.116	1292.077	1067.057
-33.940	28.146	1290.474	1065.867
-32.925	28.199	1289.224	1065.101
-31.911	28.184	1287.812	1063.803
-30.896	28.271	1286.582	1063.250
-29.881	28.310	1285.218	1062.307
-28.867	28.276	1283.978	1061.047
-27.852	28.334	1281.921	1059.638
-26.838	28.313	1280.925	1058.649
-25.823	28.279	1279.605	1057.322
-24.809	28.312	1278.383	1056.459
-23.794	28.356	1276.500	1055.115
-22.779	28.356	1275.302	1054.082
-21.765	28.268	1274.180	1052.608
-20.750	28.289	1272.706	1051.471
-19.736	28.117	1271.609	1049.533
-18.721	28.122	1270.171	1048.333
-17.706	28.211	1269.220	1048.018
-16.692	28.054	1268.517	1046.495
-15.677	27.966	1267.884	1045.430
-14.663	28.114	1266.490	1045.083
-13.648	28.204	1264.679	1044.065
-12.633	28.150	1263.934	1043.097
-11.619	28.118	1262.976	1042.086
-10.604	28.054	1262.327	1041.141
-9.590	28.059	1261.720	1040.629
-8.575	28.098	1260.150	1039.517
-7.560	28.087	1259.263	1038.681
-6.546	28.036	1258.897	1038.046
-5.531	28.074	1257.764	1037.288
-4.517	28.068	1257.193	1036.741
-3.502	28.175	1256.093	1036.401
-2.487	28.138	1255.577	1035.721
-1.473	28.171	1250.422	1031.615
-0.458	26.428	1236.318	1010.212
0.556	21.242	1219.333	972.068
1.571	17.490	1224.688	955.238
2.586	16.652	1239.096	961.632
3.600	16.599	1228.081	952.698
4.615	14.677	1161.900	891.033
5.629	11.134	1094.277	821.265
6.644	9.302	1077.252	799.314
7.659	9.203	1075.056	797.121
8.673	9.127	1073.754	795.708
9.688	9.078	1072.403	794.395
10.702	9.263	1070.191	793.600
11.717	11.430	1072.863	806.224
12.731	15.338	1077.595	829.065
13.746	17.344	1080.155	840.889
14.761	17.493	1079.352	840.926
15.775	16.321	1077.838	833.887
16.790	15.375	1075.555	827.385
17.804	14.638	1074.156	822.604
18.819	14.246	1072.344	819.214
19.834	13.898	1072.201	817.318
20.848	13.709	1071.035	815.431
21.863	13.439	1070.096	813.315
22.877	13.369	1069.076	812.124
23.892	13.281	1068.857	811.453
24.907	13.403	1067.517	810.965
25.921	13.421	1066.647	810.318
26.936	13.441	1065.323	809.341
27.950	13.526	1063.986	808.665
28.965	13.552	1062.860	807.865
29.980	13.670	1060.703	806.730
30.994	13.664	1060.292	806.316
32.009	13.573	1059.549	805.239
33.023	13.623	1058.125	804.329
34.038	13.531	1057.315	803.194
35.053	13.522	1056.523	802.478
36.067	13.575	1055.258	801.705
37.082	13.580	1054.290	800.922
38.096	13.573	1053.588	800.283
39.111	13.723	1052.937	800.439
40.126	13.443	1051.715	798.092
41.140	13.331	1050.709	796.716
42.155	13.267	1049.264	795.245
43.169	13.316	1048.390	794.748
44.184	13.317	1047.503	794.009
45.199	13.373	1046.179	793.205
46.213	13.416	1045.437	792.775
47.228	13.451	1043.814	791.644
48.242	13.412	1042.891	790.687
49.257	13.456	1042.236	790.331
50.271	13.615	1041.167	790.207
51.286	13.552	1040.296	789.177
52.301	13.441	1039.267	787.801
53.315	13.535	1037.852	787.102
54.330	13.443	1037.114	786.038
55.344	13.507	1036.027	785.445
56.359	13.379	1035.654	784.487
57.374	13.382	1034.282	783.395
58.388	13.431	1033.228	782.756
59.403	13.388	1032.849	782.197
60.417	13.311	1031.888	781.036
61.432	13.376	1030.920	780.540
62.447	13.323	1029.726	779.319
63.461	13.300	1029.034	778.618
64.476	13.162	1028.632	777.597
65.490	13.260	1027.915	777.444
66.505	13.188	1026.906	776.275
67.520	13.309	1026.244	776.276
68.534	13.358	1025.371	775.774
69.549	13.296	1024.525	774.778
70.563	13.224	1024.122	774.065
71.578	13.100	1023.443	772.902
72.593	13.196	1022.141	772.303
73.607	13.125	1021.758	771.612
74.622	13.216	1020.959	771.362
75.636	13.242	1020.178	770.827
76.651	13.249	1019.451	770.242
77.666	13.248	1018.531	769.473
78.680	13.290	1018.129	769.299
79.695	13.133	1017.896	768.325
80.709	13.379	1016.711	768.504
81.724	13.426	1016.146	768.225
82.739	13.343	1015.344	767.168
83.753	13.457	1014.922	767.310
84.768	13.537	1014.035	766.941
85.782	13.636	1012.672	766.303
86.797	13.517	1012.438	765.508
87.812	13.460	1011.143	764.196
88.826	13.586	1009.776	763.676
89.841	13.552	1008.959	762.834
90.855	13.473	1008.526	762.074
91.870	13.655	1007.265	761.892
92.884	13.721	1006.121	761.262
93.899	13.703	1005.921	760.959
94.914	13.683	1004.899	760.029
95.928	13.631	1004.249	759.233
96.943	13.653	1003.275	758.527
97.957	13.566	1002.475	757.459
98.972	13.654	1001.110	756.763
99.987	13.619	1000.617	756.164
101.001	13.645	999.791	755.589
102.016	13.582	998.747	754.450
103.030	13.466	998.356	753.557
104.045	13.697	997.203	753.670
105.060	13.587	996.595	752.646
106.074	13.423	995.591	751.075
107.089	13.372	994.686	750.097
108.103	13.386	993.322	749.063
109.118	13.361	992.429	748.209
110.133	13.336	991.884	747.621
111.147	13.482	990.962	747.518
112.162	13.432	989.993	746.496
113.176	13.481	989.223	746.070
114.191	13.469	988.904	745.709
115.206	13.477	987.871	744.902
116.220	13.471	987.030	744.174
117.235	13.400	986.049	743.050
118.249	13.544	984.811	742.697
119.264	13.487	984.203	741.920
120.279	13.383	983.715	741.016
121.293	13.480	982.730	740.644
122.308	13.419	981.711	739.540
123.322	13.284	980.962	738.308
124.337	13.352	979.581	737.505
125.352	13.424	978.597	737.019
126.366	13.374	977.592	735.973
127.381	13.324	976.957	735.209
128.395	13.400	976.022	734.776
129.410	13.453	974.885	734.090
130.424	13.549	973.970	733.763
131.439	13.473	973.531	733.031
132.454	13.537	972.878	732.759
133.468	13.545	971.777	731.899
134.483	13.451	971.524	731.228
135.497	13.434	970.594	730.389
136.512	13.471	969.389	729.580
137.527	13.562	968.313	729.105
138.541	13.454	968.109	728.412
139.556	13.504	967.153	727.851
140.570	13.507	966.848	727.570
141.585	13.671	965.658	727.327
142.600	13.727	964.750	726.825
143.614	13.766	963.730	726.161
144.629	13.763	963.266	725.736
145.643	13.712	962.240	724.678
146.658	13.640	961.193	723.509
147.673	13.704	960.135	722.928
148.687	13.549	959.667	721.835
149.702	13.647	958.949	721.659
150.716	13.671	957.417	720.546
151.731	13.568	957.342	719.979
152.746	13.569	956.788	719.502
153.760	13.545	956.445	719.078
154.775	13.655	955.582	718.841
155.789	13.820	954.554	718.721
156.804	13.832	953.672	718.045
157.819	13.800	953.258	717.530
158.833	13.895	952.617	717.397
159.848	13.760	952.288	716.500
160.862	13.779	951.067	715.599
161.877	13.664	949.997	714.237
162.892	13.772	948.534	713.539
163.906	13.646	948.085	712.597
164.921	13.671	947.326	712.069
165.935	13.663	946.351	711.237
166.950	13.695	945.766	710.874
167.964	13.658	944.843	709.960
168.979	13.709	944.001	709.483
169.994	13.615	943.395	708.559
171.008	13.748	942.439	708.347
172.023	13.874	941.593	708.188
173.037	14.008	940.739	708.052
174.052	13.836	940.127	706.796
175.067	13.818	939.438	706.139
176.081	13.724	939.108	705.431
177.096	13.847	938.336	705.312
178.110	13.869	937.518	704.729
179.125	13.760	937.507	704.194
180.140	13.859	936.583	703.859
181.154	13.818	936.379	703.469
182.169	13.884	935.447	702.986
183.183	14.065	934.908	703.283
184.198	13.982	934.145	702.296
185.213	14.033	933.380	701.875
186.227	13.974	933.132	701.378
187.242	14.180	931.999	701.330
188.256	14.185	931.260	700.735
189.271	14.089	930.733	699.871
190.286	13.996	929.877	698.775
191.300	13.818	929.241	697.486
192.315	13.749	928.480	696.565
193.329	13.817	928.034	696.453
194.344	13.820	927.847	696.264
195.359	13.955	926.922	696.076
196.373	13.958	926.512	695.716
197.388	14.225	925.737	696.192
198.402	14.282	925.385	696.103
199.417	14.198	924.530	695.049
200.432	14.175	924.561	694.913
201.446	14.436	923.593	695.211
202.461	14.474	923.017	694.878
203.475	14.290	922.723	693.827
204.490	14.185	922.157	692.904
205.504	14.223	921.080	692.190
206.519	14.278	919.886	691.459
207.534	14.320	919.282	691.118
208.548	14.196	919.204	690.485
209.563	14.230	918.658	690.153
210.577	14.347	917.852	689.970
211.592	14.539	916.625	689.784
212.607	14.530	916.243	689.395
213.621	14.503	915.253	688.480
214.636	14.412	914.390	687.396
215.650	14.420	914.133	687.175
216.665	14.520	913.430	686.998
217.680	14.432	912.962	686.220
218.694	14.619	911.987	686.195
219.709	14.586	911.096	685.331
220.723	14.305	911.106	684.123
221.738	14.483	910.103	684.041
222.753	14.397	909.694	683.318
223.767	14.663	908.710	683.608
224.782	14.775	908.141	683.577
225.796	14.695	907.775	682.915
226.811	14.669	907.290	682.385
227.826	14.675	906.279	681.588
228.840	14.629	905.666	680.877
229.855	14.644	904.671	680.132
230.869	14.513	904.469	679.387
231.884	14.539	903.337	678.580
232.899	14.637	902.647	678.400
233.913	14.502	902.084	677.370
234.928	14.584	900.975	676.808
235.942	14.568	900.631	676.425
236.957	14.489	900.259	675.768
237.972	14.709	899.020	675.666
238.986	14.666	898.720	675.207
240.001	14.565	898.227	674.369
241.015	14.611	897.415	673.887
242.030	14.661	897.110	673.798
243.045	14.690	896.510	673.406
244.059	14.827	895.625	673.233
245.074	14.697	895.198	672.330
246.088	14.821	894.422	672.185
247.103	14.884	893.936	672.013
248.117	14.758	893.806	671.351
249.132	14.951	892.812	671.321
250.147	15.145	892.049	671.463
251.161	15.039	891.821	670.807
252.176	15.071	890.938	670.212
253.190	15.130	890.339	669.938
254.205	15.231	889.580	669.714
255.220	15.081	889.220	668.783
256.234	15.214	888.491	668.706
257.249	15.149	887.888	667.934
258.263	15.240	886.786	667.408
259.278	15.189	886.420	666.872
260.293	15.256	886.124	666.856
261.307	15.256	885.286	666.164
262.322	15.301	884.510	665.700
263.336	15.369	883.907	665.459
264.351	15.510	882.814	665.136
265.366	15.384	882.470	664.319
266.380	15.295	881.931	663.503
267.395	15.365	881.587	663.460
268.409	15.210	880.614	662.057
269.424	15.371	879.357	661.690
270.439	15.287	878.792	660.874
271.453	15.198	878.578	660.304
272.468	15.375	877.610	660.214
273.482	15.428	876.920	659.848
274.497	15.375	876.484	659.253
275.512	15.253	876.270	658.555
276.526	15.282	875.959	658.374
277.541	15.475	874.993	658.347
278.555	15.630	874.277	658.356
279.570	15.634	873.317	657.593
280.585	15.680	872.980	657.461
281.599	15.403	872.481	655.945
282.614	15.479	871.602	655.520
283.628	15.543	870.963	655.233
284.643	15.394	870.417	654.181
285.657	15.609	870.064	654.698
286.672	15.483	869.490	653.717
287.687	15.575	868.426	653.219
288.701	15.593	868.223	653.076
289.716	15.612	867.422	652.489
290.730	15.675	866.890	652.276
291.745	15.726	865.958	651.714
292.760	15.620	866.023	651.296
293.774	15.671	865.203	650.819
294.789	15.591	864.734	650.097
295.803	15.688	863.768	649.692
296.818	15.709	863.344	649.395
297.833	15.687	862.410	648.549
298.847	15.741	861.609	648.098
299.862	15.712	861.420	647.785
300.876	15.804	861.121	647.860
301.891	15.873	860.128	647.320
302.906	15.939	859.596	647.115
303.920	16.002	859.228	647.025
304.935	16.040	858.564	646.613
305.949	15.942	858.558	646.175
306.964	15.945	857.467	645.309
307.979	15.995	856.559	644.759
308.993	15.941	856.310	644.308
310.008	15.994	855.726	644.013
311.022	15.925	855.349	643.410
312.037	15.905	854.477	642.621
313.052	15.997	853.865	642.453
314.066	15.838	853.817	641.755
315.081	15.960	852.933	641.499
316.095	15.889	852.155	640.585
317.110	15.893	851.994	640.422
318.125	15.889	851.281	639.815
319.139	15.923	850.678	639.435
320.154	15.966	850.330	639.280
321.168	15.886	849.988	638.664
322.183	16.071	848.893	638.486
323.197	16.091	848.272	638.035
324.212	16.005	848.376	637.735
325.227	16.023	847.412	637.019
326.241	16.176	846.497	636.854
327.256	15.964	846.301	635.849
328.270	16.076	845.826	635.858
329.285	16.096	845.284	635.469
330.300	16.010	844.564	634.549
331.314	16.025	844.516	634.512
332.329	16.078	844.026	634.290
333.343	16.125	843.372	633.918
334.358	16.179	842.919	633.722
335.373	16.185	842.534	633.400
336.387	16.280	842.180	633.437
337.402	16.217	842.153	633.122
338.416	16.323	841.399	632.896
339.431	16.301	841.030	632.480
340.446	16.377	840.445	632.268
341.460	16.457	840.183	632.314
342.475	16.431	839.744	631.830
343.489	16.632	839.305	632.198
344.504	16.471	839.035	631.337
345.519	16.487	838.653	631.052
346.533	16.530	838.328	630.912
347.548	16.402	837.482	629.743
348.562	16.406	836.845	629.224
349.577	16.488	835.807	628.692
350.592	16.526	835.116	628.259
351.606	16.463	835.132	627.982
352.621	16.503	834.094	627.294
353.635	16.579	833.414	627.006
354.650	16.470	833.120	626.327
355.665	16.426	832.599	625.717
356.679	16.587	832.173	625.937
357.694	16.637	830.862	625.082
358.708	16.533	830.812	624.604
359.723	16.668	830.017	624.450
360.738	16.535	829.417	623.453
361.752	16.642	828.975	623.457
362.767	16.716	828.209	623.101
363.781	16.629	827.900	622.493
364.796	16.882	827.605	623.144
365.810	16.783	827.242	622.453
366.825	16.950	826.521	622.467
367.840	16.923	825.823	621.788
368.854	16.770	825.568	620.982
369.869	16.899	825.112	621.053
370.883	16.931	824.600	620.731
371.898	16.764	824.932	620.314
372.913	16.958	824.296	620.490
373.927	17.007	823.443	619.975
374.942	16.898	822.915	619.123
375.956	17.089	822.799	619.677
376.971	17.088	822.080	619.077
377.986	17.146	821.595	618.870
379.000	17.072	821.618	618.561
380.015	16.941	821.308	617.797
381.029	17.234	819.967	617.800
382.044	17.221	819.293	617.192
383.059	17.109	818.749	616.318
384.073	17.193	818.348	616.267
385.088	17.191	817.453	615.531
386.102	17.147	816.908	614.909
387.117	17.138	816.475	614.496
388.132	17.177	815.900	614.148
389.146	17.125	815.333	613.479
390.161	17.200	815.037	613.472
391.175	17.173	814.629	613.014
392.190	17.214	814.463	612.984
393.205	17.163	813.329	611.890
394.219	17.243	812.886	611.793
395.234	17.143	812.847	611.350
396.248	17.001	812.786	610.740
397.263	17.040	811.895	610.154
398.278	17.104	811.654	610.149
399.292	17.047	810.897	609.322
400.307	17.105	810.486	609.169
401.321	17.123	809.987	608.802
402.336	17.277	809.481	608.920
403.350	17.387	808.760	608.717
404.365	17.380	808.932	608.770
405.380	17.228	808.699	607.996
406.394	17.372	807.892	607.849
407.409	17.368	807.736	607.664
408.423	17.325	807.392	607.199
409.438	17.526	806.814	607.427
410.453	17.618	806.343	607.346
411.467	17.542	805.964	606.735
412.482	17.573	805.387	606.360
413.496	17.544	805.253	606.102
414.511	17.589	804.784	605.855
415.526	17.605	804.260	605.464
416.540	17.579	803.864	605.020
417.555	17.757	803.108	605.028
418.569	17.862	802.385	604.803
419.584	17.636	802.482	604.021
420.599	17.785	801.772	603.961
421.613	110.976	1295.155	1475.523
422.628	95.611	1366.989	1475.623
