DTS Sentinel unit serial number:	SN413079Multiplexer serial number:	ORYXHardware model number:	OX4-SRSoftware version number:	ORYX F/W v4.00 Oryx Data Collector v3.7.2.0data status	okinstallation	princeton_trtdifferential loss correction	single-endedforward channel	channel 1reverse channel	N/Adate	2019/09/18time	13:22:35forward acquisition time	60.00reverse acquisition time	0.00gamma	496.2192k internal	0.2313k external	0.2313temperature offset calibration	0.9987default loss term (dB/km)	0.3790temperature slope calibration	1.0000multiplexer offset coefficient	1.0000multiplexer slope coefficient	1.0000fibre end	0.00T internal ref (°C)	34.12T ext. ref 1 (°C)	0.60T ext. ref 2 (°C)	29.37length (m)	temperature (°C)	Stokes	anti-Stokes-747.200	-117.515	0.123	0.023
-746.185	-33.081	-0.318	-0.179
-745.171	-137.702	0.185	0.021
-744.156	220.913	-0.098	0.160
-743.142	-116.322	0.536	-0.101
-742.127	21.461	-0.093	-0.076
-741.112	-99.287	0.277	0.071
-740.098	-200.000	0.020	0.177
-739.083	-37.430	0.132	0.072
-738.069	-38.841	-0.294	0.157
-737.054	80.524	0.321	0.351
-736.039	329.682	-0.063	0.122
-735.025	5.180	0.271	-0.202
-734.010	800.000	-0.040	-0.126
-732.996	-134.101	-0.175	-0.022
-731.981	-200.000	0.030	-0.156
-730.966	264.399	-0.202	0.356
-729.952	509.995	-0.046	-0.109
-728.937	-164.755	-0.166	-0.008
-727.923	-37.888	-0.106	-0.057
-726.908	-200.000	0.014	0.133
-725.894	37.627	0.028	-0.026
-724.879	800.000	0.132	-0.376
-723.864	-77.245	0.209	0.074
-722.850	800.000	0.025	-0.085
-721.835	800.000	-0.097	-0.297
-720.821	800.000	0.074	0.249
-719.806	-152.922	-0.341	0.024
-718.791	128.972	-0.073	0.095
-717.777	-160.621	0.411	0.022
-716.762	50.828	-0.149	-0.143
-715.748	-200.000	-0.012	0.139
-714.733	-185.109	-0.197	0.003
-713.718	-156.895	-0.306	0.019
-712.704	-43.753	0.140	-0.072
-711.689	261.691	-0.035	-0.061
-710.675	29.365	0.189	0.163
-709.660	-15.649	0.252	0.163
-708.645	-73.229	0.382	0.142
-707.631	248.074	-0.084	-0.144
-706.616	800.000	-0.085	-0.293
-705.602	-179.693	0.587	-0.013
-704.587	800.000	-0.138	0.519
-703.572	-122.019	-0.319	0.053
-702.558	0.131	0.228	0.164
-701.543	-125.858	0.194	-0.030
-700.529	-64.272	-0.288	-0.119
-699.514	374.195	-0.043	-0.088
-698.499	13.943	0.178	0.140
-697.485	-132.223	-0.211	0.028
-696.470	14.979	0.085	-0.067
-695.456	-20.399	-0.174	0.108
-694.441	164.529	-0.102	-0.145
-693.426	2.477	0.190	-0.139
-692.412	-200.000	0.008	-0.139
-691.397	128.885	0.084	-0.109
-690.383	800.000	-0.067	-0.224
-689.368	79.100	0.235	-0.255
-688.354	-200.000	0.050	0.261
-687.339	-163.493	-0.135	-0.006
-686.324	-200.000	0.006	-0.156
-685.310	-60.127	0.096	0.041
-684.295	263.160	0.221	-0.388
-683.281	-60.410	-0.280	-0.120
-682.266	-139.478	-0.185	-0.020
-681.251	-200.000	-0.019	-0.296
-680.237	-97.841	-0.340	0.089
-679.222	-131.312	0.092	0.012
-678.208	800.000	0.038	0.132
-677.193	128.566	0.241	0.310
-676.178	800.000	-0.029	-0.124
-675.164	279.006	0.065	-0.118
-674.149	-44.156	-0.073	-0.037
-673.135	171.297	-0.039	0.056
-672.120	265.166	0.125	-0.220
-671.105	629.096	-0.078	0.199
-670.091	800.000	-0.049	0.161
-669.076	-57.244	-0.060	0.027
-668.062	-129.201	-0.190	0.027
-667.047	-92.346	0.165	0.047
-666.032	-17.970	0.125	-0.079
-665.018	-200.000	-0.017	-0.200
-664.003	-23.997	0.140	0.085
-662.989	-7.640	-0.158	0.108
-661.974	-163.975	-0.186	-0.009
-660.959	800.000	-0.085	0.256
-659.945	-200.000	-0.033	0.231
-658.930	-142.564	-0.024	-0.002
-657.916	91.669	0.191	0.217
-656.901	-55.656	-0.160	0.072
-655.886	196.502	0.048	0.074
-654.872	-187.306	0.258	-0.004
-653.857	800.000	0.094	-0.333
-652.843	-199.750	0.239	0.001
-651.828	-200.000	-0.011	-0.124
-650.814	-85.109	-0.241	-0.076
-649.799	-76.262	0.095	0.034
-648.784	-79.723	-0.096	0.033
-647.770	74.753	-0.266	-0.283
-646.755	800.000	0.034	-0.104
-645.741	-189.390	0.188	-0.002
-644.726	-137.654	0.170	0.019
-643.711	800.000	-0.037	-0.149
-642.697	-200.000	-0.014	0.189
-641.682	-8.304	0.049	-0.033
-640.668	-127.766	0.267	0.039
-639.653	-98.476	0.114	0.029
-638.638	-200.000	-0.002	0.026
-637.624	357.801	-0.097	0.195
-636.609	142.519	0.038	0.050
-635.595	-165.787	0.239	-0.010
-634.580	-200.000	0.086	0.496
-633.565	-20.371	0.092	-0.057
-632.551	16.670	0.131	0.105
-631.536	31.917	-0.157	0.136
-630.522	-200.000	0.019	-0.127
-629.507	-38.073	-0.206	0.111
-628.492	-54.216	0.360	-0.165
-627.478	-200.000	-0.036	0.383
-626.463	400.504	-0.171	-0.363
-625.449	-118.456	-0.299	0.053
-624.434	-200.000	-0.052	-0.264
-623.419	-15.339	-0.133	-0.086
-622.405	775.845	-0.092	0.253
-621.390	-105.063	0.097	-0.022
-620.376	-200.000	0.035	0.271
-619.361	-34.976	0.388	-0.214
-618.346	-35.021	0.151	-0.083
-617.332	33.695	0.149	0.130
-616.317	43.379	-0.151	-0.139
-615.303	-36.133	-0.307	0.167
-614.288	800.000	0.095	-0.351
-613.273	-49.921	0.149	-0.071
-612.259	-130.095	0.159	0.022
-611.244	-94.777	0.320	0.088
-610.230	-121.764	-0.375	-0.062
-609.215	131.251	-0.254	-0.329
-608.201	-49.360	-0.233	0.112
-607.186	800.000	-0.061	-0.220
-606.171	78.923	0.159	0.172
-605.157	-95.750	0.368	-0.099
-604.142	-112.106	0.106	0.022
-603.128	-100.674	-0.040	0.010
-602.113	185.490	0.080	-0.120
-601.098	-33.260	0.194	-0.108
-600.084	800.000	0.080	0.277
-599.069	-103.891	0.248	-0.059
-598.055	-95.876	0.034	-0.009
-597.040	-123.810	0.280	0.045
-596.025	419.229	-0.097	0.210
-595.011	374.639	0.130	0.266
-593.996	474.414	-0.061	-0.139
-592.982	11.951	0.181	0.140
-591.967	-144.125	-0.200	0.019
-590.952	-27.437	-0.272	-0.159
-589.938	-200.000	0.018	-0.157
-588.923	76.719	0.133	-0.143
-587.909	214.948	0.162	-0.259
-586.894	412.229	0.189	0.405
-585.879	-129.573	0.189	0.026
-584.865	106.370	0.181	0.217
-583.850	-104.436	-0.137	0.032
-582.836	-91.547	0.405	0.116
-581.821	581.205	0.131	0.323
-580.806	-200.000	0.022	0.181
-579.792	70.769	0.266	0.277
-578.777	553.633	-0.036	-0.087
-577.763	234.878	-0.110	0.183
-576.748	499.165	-0.036	-0.085
-575.733	511.243	0.076	0.179
-574.719	241.368	0.136	0.229
-573.704	-69.943	0.219	0.084
-572.690	-34.514	-0.196	-0.108
-571.675	-10.824	-0.152	-0.101
-570.661	-200.000	0.051	-0.245
-569.646	280.607	0.034	0.062
-568.631	58.478	-0.185	0.182
-567.617	-128.172	-0.315	0.045
-566.602	7.161	-0.233	-0.175
-565.588	-34.041	0.126	0.070
-564.573	-79.500	-0.124	-0.042
-563.558	364.934	-0.058	-0.117
-562.544	378.149	-0.170	-0.349
-561.529	684.535	0.105	0.276
-560.515	-97.682	-0.343	0.090
-559.500	377.906	0.019	0.038
-558.485	97.432	0.113	-0.130
-557.471	-64.147	0.139	-0.057
-556.456	-164.896	-0.267	-0.012
-555.442	-136.060	0.199	0.024
-554.427	74.598	0.072	0.076
-553.412	-38.326	0.302	0.161
-552.398	67.316	0.229	0.235
-551.383	800.000	0.101	-0.362
-550.369	-26.143	-0.219	0.129
-549.354	389.787	-0.057	0.119
-548.339	-29.811	-0.181	-0.104
-547.325	-42.941	-0.209	-0.107
-546.310	-116.929	0.276	0.051
-545.296	-51.580	-0.231	-0.109
-544.281	-200.000	-0.001	0.039
-543.266	-51.121	0.025	-0.012
-542.252	-200.000	0.012	0.106
-541.237	-32.570	0.432	-0.242
-540.223	119.661	-0.119	-0.148
-539.208	168.125	0.104	0.149
-538.193	411.908	0.090	-0.193
-537.179	-49.631	-0.355	0.170
-536.164	-64.831	-0.210	0.085
-535.150	800.000	0.114	0.344
-534.135	-33.542	0.210	-0.117
-533.121	55.596	0.033	0.032
-532.106	-58.763	0.392	-0.171
-531.091	-106.625	0.072	0.016
-530.077	-6.649	0.211	-0.145
-529.062	-102.085	-0.265	0.064
-528.048	-127.062	0.271	0.040
-527.033	-64.001	0.159	-0.065
-526.018	-106.709	-0.333	-0.074
-525.004	202.044	0.156	0.242
-523.989	-115.006	-0.409	0.078
-522.975	313.809	0.078	0.147
-521.960	-7.321	0.230	-0.157
-520.945	-111.208	-0.429	0.088
-519.931	336.916	0.029	0.056
-518.916	-95.118	0.202	-0.055
-517.902	748.709	0.004	-0.011
-516.887	-164.400	-0.216	-0.010
-515.872	-60.794	-0.363	0.154
-514.858	-200.000	-0.002	0.026
-513.843	-181.885	-0.209	-0.004
-512.829	-137.218	-0.124	-0.014
-511.814	624.297	-0.058	0.146
-510.799	-155.085	-0.295	-0.019
-509.785	647.654	0.078	0.201
-508.770	458.801	-0.064	-0.143
-507.756	188.980	0.235	0.354
-506.741	316.136	0.131	-0.249
-505.726	800.000	-0.030	-0.129
-504.712	-200.000	-0.043	0.312
-503.697	268.303	-0.053	0.093
-502.683	-113.367	0.065	-0.013
-501.668	-122.186	0.297	0.049
-500.653	-157.815	-0.150	0.009
-499.639	110.222	-0.234	-0.283
-498.624	30.685	0.189	0.163
-497.610	-161.713	0.162	0.008
-496.595	800.000	-0.034	-0.117
-495.581	535.037	-0.064	-0.153
-494.566	-163.238	-0.101	-0.005
-493.551	-200.000	-0.003	-0.081
-492.537	114.398	0.078	-0.095
-491.522	-200.000	-0.019	0.083
-490.508	-7.850	0.095	-0.064
-489.493	-42.010	0.359	-0.185
-488.478	-54.625	0.163	-0.074
-487.464	-44.225	-0.200	-0.101
-486.449	-200.000	0.011	0.071
-485.435	-200.000	-0.024	-0.257
-484.420	133.678	0.061	0.079
-483.405	32.301	0.131	0.113
-482.391	59.186	0.122	0.121
-481.376	55.774	-0.305	0.296
-480.362	179.021	0.049	0.072
-479.347	643.233	-0.112	0.286
-478.332	-92.928	0.224	0.063
-477.318	-132.970	0.271	-0.035
-476.303	211.655	-0.107	-0.169
-475.289	-200.000	-0.031	-0.224
-474.274	-200.000	0.004	0.314
-473.259	92.803	-0.182	-0.207
-472.245	-47.392	-0.135	0.066
-471.230	-200.000	0.006	-0.313
-470.216	-172.255	-0.246	0.008
-469.201	-200.000	0.021	-0.106
-468.186	-134.417	-0.180	-0.022
-467.172	-75.358	0.072	-0.026
-466.157	-45.543	-0.294	0.146
-465.143	-200.000	0.029	-0.394
-464.128	85.428	0.108	-0.119
-463.113	31.415	0.180	-0.155
-462.099	-102.199	-0.215	0.052
-461.084	434.350	0.038	-0.083
-460.070	103.703	-0.247	-0.291
-459.055	242.520	-0.035	-0.059
-458.040	-65.454	0.118	-0.048
-457.026	-200.000	-0.001	-0.160
-456.011	-159.285	0.214	0.012
-454.997	10.928	-0.060	0.046
-453.982	-13.351	-0.092	-0.060
-452.968	74.271	0.169	-0.178
-451.953	-69.258	-0.142	0.055
-450.938	391.469	-0.096	-0.200
-449.924	800.000	0.032	-0.104
-448.909	-200.000	0.021	-0.101
-447.895	48.637	-0.145	0.136
-446.880	-33.946	-0.104	-0.057
-445.865	11.398	0.393	0.302
-444.851	-200.000	-0.017	0.115
-443.836	-9.915	0.187	-0.125
-442.822	-149.441	-0.157	-0.012
-441.807	-200.000	-0.035	-0.218
-440.792	742.889	-0.019	0.050
-439.778	800.000	0.055	-0.196
-438.763	800.000	-0.034	0.144
-437.749	-117.595	-0.166	-0.030
-436.734	-167.383	0.188	0.008
-435.719	-200.000	0.014	-0.121
-434.705	-62.021	0.317	0.133
-433.690	800.000	-0.040	0.157
-432.676	-90.732	0.226	0.065
-431.661	6.309	-0.305	0.227
-430.646	-85.985	-0.343	0.106
-429.632	3.657	0.103	-0.075
-428.617	-94.235	-0.210	-0.058
-427.603	24.586	-0.188	0.156
-426.588	100.062	-0.222	-0.257
-425.573	-85.473	0.092	-0.029
-424.559	-54.580	-0.554	-0.251
-423.544	800.000	-0.061	0.217
-422.530	-200.000	-0.102	-0.530
-421.515	379.664	-0.135	0.277
-420.500	130.201	0.267	0.342
-419.486	61.388	-0.160	0.159
-418.471	34.373	0.053	-0.046
-417.457	280.099	-0.214	0.383
-416.442	-159.759	-0.110	-0.006
-415.428	-200.000	0.012	-0.229
-414.413	-200.000	-0.004	0.048
-413.398	-200.000	-0.008	-0.090
-412.384	-185.589	-0.362	-0.005
-411.369	261.003	0.248	-0.430
-410.355	-146.581	0.254	-0.022
-409.340	-122.367	-0.084	0.014
-408.325	800.000	0.053	0.213
-407.311	492.370	-0.102	0.233
-406.296	55.125	-0.138	0.133
-405.282	-55.476	-0.254	-0.114
-404.267	137.596	0.179	0.235
-403.252	35.673	-0.128	-0.113
-402.238	89.965	-0.060	-0.067
-401.223	327.353	0.090	-0.173
-400.209	351.440	0.125	0.248
-399.194	298.562	0.058	0.107
-398.179	152.428	-0.112	-0.153
-397.165	800.000	-0.031	0.118
-396.150	-1.748	-0.243	-0.171
-395.136	143.322	-0.169	-0.225
-394.121	-96.655	0.255	0.067
-393.106	-166.043	-0.248	0.011
-392.092	154.944	-0.151	-0.208
-391.077	-187.917	0.157	-0.002
-390.063	277.559	-0.100	-0.178
-389.048	-89.128	0.008	0.002
-388.033	-90.969	-0.133	-0.038
-387.019	27.415	0.295	0.248
-386.004	-200.000	-0.008	0.244
-384.990	403.117	-0.173	0.365
-383.975	800.000	0.123	0.520
-382.960	-81.216	0.329	-0.109
-381.946	44.718	0.295	0.271
-380.931	24.435	-0.121	0.100
-379.917	800.000	0.047	0.172
-378.902	-200.000	-0.043	-0.209
-377.888	44.775	0.344	-0.316
-376.873	-34.939	-0.187	0.102
-375.858	-127.486	0.115	0.017
-374.844	-169.223	-0.296	-0.011
-373.829	27.273	-0.047	0.039
-372.815	-108.384	0.229	-0.049
-371.800	-200.000	-0.006	0.133
-370.785	294.496	-0.052	0.096
-369.771	229.592	-0.096	0.157
-368.756	-133.419	-0.119	-0.015
-367.742	800.000	-0.069	0.275
-366.727	-59.433	0.393	-0.169
-365.712	-200.000	0.041	-0.609
-364.698	-146.948	0.222	0.019
-363.683	-62.164	-0.199	0.083
-362.669	-21.179	-0.106	0.065
-361.654	-27.890	-0.359	-0.208
-360.639	-200.000	-0.064	-0.307
-359.625	-45.746	-0.162	-0.080
-358.610	404.033	-0.022	0.046
-357.596	13.136	-0.306	-0.237
-356.581	800.000	-0.127	-0.391
-355.566	-72.029	-0.211	0.078
-354.552	539.349	0.073	-0.174
-353.537	97.770	0.171	-0.197
-352.523	277.017	0.025	0.044
-351.508	-1.574	-0.196	-0.138
-350.493	-72.188	-0.208	0.077
-349.479	21.787	-0.390	0.317
-348.464	220.977	-0.035	-0.056
-347.450	216.339	0.110	-0.174
-346.435	-174.295	-0.045	-0.001
-345.420	-152.534	-0.189	0.014
-344.406	800.000	0.021	-0.063
-343.391	-7.953	0.202	-0.136
-342.377	226.876	0.253	0.410
-341.362	-200.000	0.016	-0.120
-340.348	-51.323	0.118	0.055
-339.333	387.964	-0.087	0.180
-338.318	800.000	-0.066	-0.266
-337.304	-200.000	-0.018	-0.127
-336.289	-47.066	0.112	-0.054
-335.275	63.403	0.202	0.202
-334.260	296.162	0.112	-0.205
-333.245	-107.885	0.077	-0.017
-332.231	10.946	0.066	-0.051
-331.216	-0.311	-0.121	0.086
-330.202	749.294	-0.062	-0.168
-329.187	-119.792	-0.193	-0.033
-328.172	106.125	0.147	-0.174
-327.158	800.000	0.073	0.282
-326.143	97.195	-0.077	0.088
-325.129	348.464	0.106	-0.209
-324.114	-39.386	-0.126	-0.066
-323.099	-47.646	0.226	0.110
-322.085	111.517	-0.146	0.176
-321.070	72.383	-0.350	-0.364
-320.056	-127.239	-0.166	0.024
-319.041	424.624	-0.031	-0.065
-318.026	219.824	-0.060	-0.096
-317.012	25.451	-0.076	0.063
-315.997	45.256	0.164	0.151
-314.983	181.837	0.034	0.050
-313.968	800.000	-0.023	0.098
-312.953	-133.789	0.185	0.023
-311.939	4.829	0.081	-0.059
-310.924	-131.579	0.305	-0.040
-309.910	-200.000	-0.002	-0.248
-308.895	684.254	-0.083	-0.216
-307.880	-80.503	0.339	0.113
-306.866	-200.000	-0.001	0.017
-305.851	-200.000	0.016	-0.185
-304.837	-68.887	0.153	-0.059
-303.822	2.215	0.033	-0.023
-302.807	-12.316	0.136	-0.089
-301.793	-73.820	0.237	0.086
-300.778	-200.000	-0.006	0.082
-299.764	-123.579	0.160	-0.025
-298.749	-82.139	-0.237	-0.077
-297.735	-42.281	-0.136	-0.069
-296.720	-200.000	-0.015	0.354
-295.705	235.858	-0.127	-0.210
-294.691	-9.962	-0.121	0.080
-293.676	-200.000	-0.008	-0.113
-292.662	235.448	-0.078	0.129
-291.647	8.369	-0.307	0.230
-290.632	-134.350	0.151	-0.018
-289.618	-1.496	-0.351	0.246
-288.603	-91.399	0.253	0.072
-287.589	78.929	0.089	-0.095
-286.574	117.832	0.155	-0.191
-285.559	-91.925	-0.075	-0.021
-284.545	-200.000	0.002	0.078
-283.530	800.000	-0.105	-0.365
-282.516	-172.999	0.106	-0.003
-281.501	-137.070	0.359	-0.041
-280.486	800.000	0.152	0.549
-279.472	99.978	-0.241	0.278
-278.457	727.565	-0.150	0.399
-277.443	178.819	0.046	-0.066
-276.428	20.390	0.270	0.218
-275.413	-20.254	-0.061	0.037
-274.399	-144.594	-0.241	-0.022
-273.384	4.964	0.179	-0.131
-272.370	-127.047	-0.097	0.014
-271.355	-98.114	-0.403	0.103
-270.340	-129.749	0.297	0.041
-269.326	-119.483	0.208	-0.036
-268.311	123.801	-0.131	-0.164
-267.297	251.726	-0.053	-0.090
-266.282	130.159	0.098	-0.124
-265.267	105.641	-0.233	-0.275
-264.253	-200.000	-0.030	-0.158
-263.238	-102.738	0.107	0.025
-262.224	-83.474	-0.177	0.056
-261.209	-119.081	-0.221	0.039
-260.195	-46.479	-0.189	-0.093
-259.180	753.631	0.061	-0.163
-258.165	-74.995	-0.351	0.125
-257.151	-200.000	-0.002	0.188
-256.136	800.000	-0.042	0.156
-255.122	-127.798	-0.111	-0.016
-254.107	-24.681	-0.226	0.134
-253.092	-32.202	0.051	-0.028
-252.078	-200.000	-0.002	0.127
-251.063	383.637	0.063	0.130
-250.049	-200.000	-0.008	0.186
-249.034	800.000	0.023	0.067
-248.019	-72.068	0.098	-0.036
-247.005	249.473	-0.201	-0.339
-245.990	-95.794	-0.122	-0.033
-244.976	-0.820	0.388	-0.274
-243.961	800.000	0.051	0.214
-242.946	534.969	-0.029	0.068
-241.932	82.119	0.104	0.112
-240.917	-23.573	0.121	0.072
-239.903	87.368	0.081	0.089
-238.888	292.833	-0.028	-0.051
-237.873	436.736	0.135	0.291
-236.859	-172.090	0.283	0.009
-235.844	-200.000	-0.008	-0.083
-234.830	-200.000	0.029	-0.280
-233.815	-37.025	-0.286	0.152
-232.800	88.823	-0.083	0.092
-231.786	-32.489	-0.256	0.142
-230.771	-21.565	-0.135	0.082
-229.757	-200.000	-0.006	0.197
-228.742	-200.000	-0.172	0.001
-227.727	-200.000	-0.023	-0.142
-226.713	-167.420	0.141	-0.006
-225.698	-200.000	0.008	0.066
-224.684	-110.979	-0.331	-0.068
-223.669	-77.797	0.209	-0.072
-222.655	-89.835	-0.157	-0.046
-221.640	464.533	0.038	0.085
-220.625	-170.679	0.423	-0.015
-219.611	-176.102	0.402	-0.011
-218.596	-33.269	0.250	0.137
-217.582	800.000	-0.101	-0.402
-216.567	2.584	0.290	-0.209
-215.552	335.726	0.132	0.254
-214.538	148.129	-0.195	0.262
-213.523	328.700	-0.134	-0.257
-212.509	57.363	-0.275	0.266
-211.494	-29.159	-0.301	-0.171
-210.479	-76.914	0.364	-0.126
-209.465	151.612	-0.148	-0.201
-208.450	29.301	0.050	0.042
-207.436	3.735	0.169	-0.122
-206.421	-61.549	0.115	-0.048
-205.406	133.491	-0.152	0.195
-204.392	67.622	0.024	0.024
-203.377	-103.742	0.038	-0.009
-202.363	-148.075	0.087	0.007
-201.348	136.340	0.185	0.239
-200.333	215.501	0.197	0.310
-199.319	197.949	0.136	0.206
-198.304	2.352	0.246	-0.177
-197.290	-137.418	-0.234	-0.026
-196.275	-190.445	-0.279	0.003
-195.260	-200.000	0.012	-0.308
-194.246	800.000	-0.120	-0.348
-193.231	-200.000	0.106	-0.473
-192.217	85.441	-0.100	-0.109
-191.202	-200.000	-0.003	0.146
-190.187	93.342	-0.133	-0.149
-189.173	-68.628	-0.215	0.082
-188.158	95.520	-0.097	0.110
-187.144	-200.000	0.013	-0.133
-186.129	800.000	0.067	0.222
-185.114	112.176	-0.287	0.344
-184.100	-143.799	-0.118	-0.011
-183.085	79.773	0.130	0.139
-182.071	127.384	0.057	-0.071
-181.056	-124.216	0.119	-0.019
-180.042	-200.000	-0.028	-0.246
-179.027	-22.167	0.500	0.301
-178.012	-174.113	-0.324	0.009
-176.998	303.140	0.093	-0.171
-175.983	54.619	-0.297	-0.284
-174.969	503.134	-0.056	0.128
-173.954	-157.342	0.243	-0.015
-172.939	-200.000	0.058	0.325
-171.925	-200.000	0.020	-0.161
-170.910	354.182	-0.025	-0.048
-169.896	-57.131	0.419	-0.183
-168.881	441.030	0.143	-0.311
-167.866	107.549	0.044	-0.052
-166.852	800.000	-0.053	-0.209
-165.837	122.466	0.058	-0.072
-164.823	-200.000	-0.012	-0.053
-163.808	-200.000	0.029	0.314
-162.793	-127.638	0.156	0.022
-161.779	-51.398	-0.282	0.131
-160.764	-10.455	0.112	-0.074
-159.750	-81.177	-0.165	0.054
-158.735	-34.014	-0.178	0.097
-157.720	23.222	0.138	-0.112
-156.706	-200.000	0.049	-0.448
-155.691	800.000	-0.022	-0.063
-154.677	429.763	0.085	0.182
-153.662	800.000	-0.051	0.153
-152.647	-153.978	0.049	0.003
-151.633	48.721	0.165	0.154
-150.618	230.684	0.057	-0.092
-149.604	182.473	0.048	-0.071
-148.589	-94.398	0.082	-0.022
-147.574	-200.000	-0.007	-0.085
-146.560	146.472	-0.172	0.229
-145.545	-100.260	-0.115	0.028
-144.531	408.609	-0.065	-0.136
-143.516	800.000	-0.065	0.277
-142.502	800.000	-0.115	-0.417
-141.487	-200.000	0.005	0.039
-140.472	150.223	-0.160	0.216
-139.458	67.761	0.208	0.210
-138.443	548.794	-0.121	-0.287
-137.429	102.646	0.054	0.062
-136.414	-102.755	-0.201	-0.048
-135.399	-70.034	0.163	0.061
-134.385	-21.723	0.265	-0.160
-133.370	244.302	-0.054	-0.090
-132.356	-103.641	-0.091	-0.021
-131.341	-113.320	0.033	-0.006
-130.326	-200.000	-0.048	0.243
-129.312	135.170	0.224	-0.288
-128.297	171.059	0.065	-0.093
-127.283	-144.610	-0.140	0.013
-126.268	-121.861	0.049	-0.008
-125.253	-118.123	0.249	0.044
-124.239	-110.424	0.116	0.024
-123.224	124.863	-0.148	0.185
-122.210	-84.620	-0.069	-0.021
-121.195	-129.807	0.238	0.032
-120.180	-200.000	-0.009	0.137
-119.166	800.000	-0.057	-0.161
-118.151	-61.094	0.034	0.014
-117.137	-200.000	-0.002	0.095
-116.122	22.423	-0.070	0.057
-115.107	-200.000	0.015	-0.151
-114.093	144.829	-0.046	-0.061
-113.078	127.405	0.203	0.255
-112.064	-171.652	0.173	0.006
-111.049	-51.461	-0.135	-0.062
-110.034	412.827	0.117	0.246
-109.020	79.269	-0.136	0.144
-108.005	-175.212	-0.288	0.008
-106.991	-129.186	0.107	0.015
-105.976	336.201	0.135	-0.260
-104.962	-97.839	0.323	-0.083
-103.947	-77.869	-0.290	-0.099
-102.932	-135.872	-0.165	-0.019
-101.918	154.009	0.012	-0.017
-100.903	-63.569	-0.112	-0.045
-99.889	-83.540	0.215	-0.068
-98.874	262.009	0.132	0.226
-97.859	-120.071	-0.178	0.030
-96.845	-57.283	0.042	-0.018
-95.830	-128.570	0.263	0.037
-94.816	-18.422	0.210	0.130
-93.801	-112.612	-0.109	0.021
-92.786	-200.000	0.008	0.381
-91.772	404.193	0.063	0.132
-90.757	241.307	0.098	0.162
-89.743	800.000	0.096	-0.279
-88.728	-200.000	-0.025	0.302
-87.713	-200.000	0.021	-0.205
-86.699	581.099	-0.019	0.046
-85.684	114.241	-0.050	-0.060
-84.670	-115.714	-0.287	0.053
-83.655	-118.311	0.193	-0.034
-82.640	800.000	0.054	-0.209
-81.626	-200.000	0.002	0.312
-80.611	-200.000	0.001	0.176
-79.597	572.380	0.042	0.100
-78.582	-56.362	0.121	0.053
-77.567	70.089	0.317	0.323
-76.553	317.993	0.144	0.269
-75.538	252.518	0.098	-0.166
-74.524	693.453	-0.030	0.079
-73.509	65.362	-0.098	0.098
-72.494	-10.379	-0.294	0.192
-71.480	369.605	-0.163	-0.327
-70.465	-91.963	-0.048	0.014
-69.451	-200.000	0.005	0.070
-68.436	-200.000	0.041	0.351
-67.422	-68.623	0.234	-0.090
-66.407	402.198	0.098	-0.203
-65.392	-13.600	0.240	0.153
-64.378	-200.000	-0.013	0.101
-63.363	-36.265	-0.076	-0.041
-62.349	94.996	-0.051	0.057
-61.334	104.416	-0.585	-0.680
-60.319	341.188	0.265	0.511
-59.305	800.000	0.231	-0.782
-58.290	260.928	0.511	0.873
-57.276	-200.000	0.293	1.678
-56.261	-200.000	95.751	539.443
-55.246	489.321	1428.454	3223.102
-54.232	144.163	2653.888	3495.445
-53.217	109.095	2227.552	2630.594
-52.203	45.377	1664.346	1515.905
-51.188	37.536	1394.597	1221.193
-50.173	34.313	1351.776	1163.996
-49.159	54.335	1398.980	1329.517
-48.144	57.496	1416.503	1365.761
-47.130	37.739	1373.115	1203.444
-46.115	34.289	1355.235	1166.647
-45.100	34.139	1350.418	1161.536
-44.086	34.035	1348.271	1159.010
-43.071	33.963	1345.649	1156.270
-42.057	33.933	1343.251	1153.983
-41.042	34.072	1341.753	1153.496
-40.027	34.181	1339.989	1152.591
-39.013	34.057	1338.325	1150.363
-37.998	34.102	1336.083	1148.666
-36.984	34.085	1334.963	1147.550
-35.969	34.179	1332.882	1146.286
-34.954	34.230	1331.399	1145.268
-33.940	34.296	1329.683	1144.143
-32.925	34.159	1328.870	1142.578
-31.911	34.225	1327.130	1141.434
-30.896	34.179	1325.786	1139.953
-29.881	34.292	1323.834	1138.909
-28.867	34.311	1322.855	1138.133
-27.852	34.224	1321.509	1136.410
-26.838	34.358	1319.815	1135.709
-25.823	34.220	1318.750	1133.923
-24.809	34.303	1317.049	1132.912
-23.794	34.267	1315.811	1131.583
-22.779	34.162	1314.378	1129.688
-21.765	34.295	1312.925	1129.182
-20.750	34.201	1311.605	1127.446
-19.736	34.021	1310.481	1125.369
-18.721	33.949	1309.799	1124.310
-17.706	34.085	1308.111	1123.619
-16.692	34.120	1306.454	1122.358
-15.677	34.114	1305.566	1121.519
-14.663	33.990	1304.572	1119.888
-13.648	34.062	1303.368	1119.235
-12.633	33.917	1302.889	1117.926
-11.619	34.002	1301.505	1117.196
-10.604	34.124	1300.787	1117.248
-9.590	33.996	1299.994	1115.775
-8.575	33.982	1298.764	1114.588
-7.560	34.043	1297.905	1114.163
-6.546	33.956	1297.230	1113.034
-5.531	33.979	1296.272	1112.300
-4.517	34.033	1295.308	1111.744
-3.502	34.187	1294.148	1111.608
-2.487	34.047	1293.275	1109.994
-1.473	33.978	1289.482	1106.296
-0.458	32.656	1274.490	1085.778
0.556	27.422	1255.270	1042.500
1.571	23.058	1259.802	1021.029
2.586	21.392	1274.707	1023.275
3.600	20.362	1263.326	1008.072
4.615	15.012	1186.975	917.799
5.629	5.765	1106.854	808.283
6.644	0.891	1085.621	768.020
7.659	0.526	1082.697	764.036
8.673	0.428	1082.091	763.041
9.688	0.555	1080.198	762.285
10.702	0.747	1078.922	762.283
11.717	6.059	1085.722	793.915
12.731	14.341	1097.211	844.392
13.746	17.579	1100.179	863.033
14.761	17.280	1099.327	860.774
15.775	16.473	1097.537	855.215
16.790	15.465	1095.387	848.372
17.804	14.669	1093.881	843.111
18.819	14.355	1092.975	840.755
19.834	14.074	1092.023	838.533
20.848	13.762	1090.989	836.089
21.863	13.586	1089.800	834.221
22.877	13.479	1088.961	832.967
23.892	13.356	1087.989	831.529
24.907	13.404	1087.438	831.276
25.921	13.492	1086.557	830.973
26.936	13.425	1086.042	830.165
27.950	13.470	1084.941	829.475
28.965	13.549	1083.751	828.892
29.980	13.568	1082.059	827.617
30.994	13.660	1081.174	827.325
32.009	13.682	1079.983	826.453
33.023	13.617	1079.153	825.421
34.038	13.660	1078.092	824.747
35.053	13.544	1077.548	823.685
36.067	13.584	1076.286	822.847
37.082	13.510	1075.626	821.902
38.096	13.637	1075.328	822.227
39.111	13.710	1073.827	821.371
40.126	13.520	1073.368	820.004
41.140	13.393	1072.314	818.500
42.155	13.386	1071.194	817.536
43.169	13.352	1070.266	816.588
44.184	13.330	1069.009	815.447
45.199	13.502	1067.886	815.369
46.213	13.552	1066.544	814.520
47.228	13.443	1066.057	813.537
48.242	13.580	1064.402	812.873
49.257	13.446	1063.550	811.498
50.271	13.450	1062.684	810.782
51.286	13.558	1062.059	810.764
52.301	13.508	1061.269	809.845
53.315	13.588	1059.839	809.072
54.330	13.432	1058.812	807.454
55.344	13.462	1057.920	806.849
56.359	13.579	1056.972	806.627
57.374	13.474	1056.236	805.483
58.388	13.372	1055.522	804.371
59.403	13.215	1054.936	803.090
60.417	13.358	1053.951	802.963
61.432	13.357	1052.690	801.924
62.447	13.341	1052.219	801.417
63.461	13.318	1051.058	800.351
64.476	13.425	1050.513	800.381
65.490	13.400	1049.616	799.509
66.505	13.287	1048.753	798.235
67.520	13.347	1048.342	798.138
68.534	13.361	1047.731	797.671
69.549	13.416	1046.434	796.880
70.563	13.475	1045.680	796.519
71.578	13.312	1044.864	795.040
72.593	13.303	1044.017	794.284
73.607	13.210	1044.035	793.783
74.622	13.345	1042.595	793.264
75.636	13.391	1042.093	793.034
76.651	13.358	1041.384	792.263
77.666	13.320	1040.476	791.319
78.680	13.331	1039.919	790.879
79.695	13.254	1039.261	789.940
80.709	13.501	1038.089	790.159
81.724	13.372	1037.680	789.162
82.739	13.382	1037.297	788.850
83.753	13.488	1036.306	788.530
84.768	13.564	1035.101	787.906
85.782	13.625	1034.203	787.441
86.797	13.611	1033.386	786.686
87.812	13.528	1032.527	785.568
88.826	13.505	1031.421	784.549
89.841	13.583	1030.684	784.289
90.855	13.600	1029.922	783.716
91.870	13.590	1029.209	783.060
92.884	13.608	1028.198	782.303
93.899	13.610	1027.356	781.606
94.914	13.697	1025.862	780.809
95.928	13.640	1025.446	780.153
96.943	13.531	1024.451	778.818
97.957	13.643	1023.911	778.864
98.972	13.587	1023.002	777.841
99.987	13.650	1022.067	777.358
101.001	13.592	1021.212	776.365
102.016	13.594	1020.051	775.423
103.030	13.526	1019.443	774.575
104.045	13.614	1018.595	774.270
105.060	13.585	1017.715	773.397
106.074	13.455	1016.873	772.083
107.089	13.477	1016.104	771.536
108.103	13.503	1014.842	770.630
109.118	13.457	1013.856	769.602
110.133	13.478	1013.126	769.074
111.147	13.441	1012.146	768.089
112.162	13.514	1011.223	767.659
113.176	13.562	1010.670	767.394
114.191	13.568	1009.824	766.714
115.206	13.600	1009.170	766.297
116.220	13.638	1008.091	765.584
117.235	13.456	1007.174	763.982
118.249	13.660	1006.090	764.032
119.264	13.471	1005.996	763.020
120.279	13.608	1005.045	762.864
121.293	13.494	1004.007	761.485
122.308	13.511	1003.433	761.060
123.322	13.514	1002.227	760.093
124.337	13.533	1000.894	759.102
125.352	13.514	999.881	758.177
126.366	13.526	999.226	757.667
127.381	13.553	997.971	756.773
128.395	13.556	996.896	755.904
129.410	13.503	996.143	755.027
130.424	13.641	995.116	754.809
131.439	13.631	994.603	754.309
132.454	13.619	993.864	753.624
133.468	13.674	992.739	752.953
134.483	13.511	991.999	751.588
135.497	13.621	991.075	751.318
136.512	13.683	989.984	750.708
137.527	13.659	989.198	749.936
138.541	13.602	988.731	749.258
139.556	13.642	987.644	748.548
140.570	13.752	987.129	748.587
141.585	13.821	985.911	747.909
142.600	13.773	984.965	746.912
143.614	13.888	983.946	746.587
144.629	13.828	983.697	746.062
145.643	13.802	982.755	745.166
146.658	13.875	981.384	744.389
147.673	13.799	981.010	743.700
148.687	13.702	980.198	742.583
149.702	13.816	978.969	742.094
150.716	13.625	978.634	740.920
151.731	13.687	977.847	740.537
152.746	13.680	976.774	739.628
153.760	13.698	976.644	739.546
154.775	13.847	975.748	739.464
155.789	13.766	975.143	738.580
156.804	13.832	974.350	738.207
157.819	13.842	973.698	737.692
158.833	14.018	972.512	737.510
159.848	13.916	972.107	736.684
160.862	13.900	970.879	735.619
161.877	13.868	970.164	734.870
162.892	13.802	969.338	733.889
163.906	13.845	968.062	733.046
164.921	13.871	966.955	732.258
165.935	13.827	966.594	731.726
166.950	13.904	965.644	731.281
167.964	13.845	964.445	730.048
168.979	14.057	963.419	730.139
169.994	13.865	963.013	728.923
171.008	13.866	962.340	728.355
172.023	14.008	961.259	728.096
173.037	13.976	960.810	727.548
174.052	13.958	959.975	726.774
175.067	13.927	959.418	726.150
176.081	13.902	959.082	725.723
177.096	13.916	958.447	725.242
178.110	14.077	957.732	725.338
179.125	14.003	956.966	724.372
180.140	14.082	956.456	724.266
181.154	14.037	956.166	723.787
182.169	14.046	955.375	723.163
183.183	14.290	954.405	723.423
184.198	14.115	954.146	722.405
185.213	14.127	953.650	722.015
186.227	14.146	952.811	721.398
187.242	14.196	952.143	721.045
188.256	14.234	951.301	720.509
189.271	14.245	950.658	720.006
190.286	14.171	949.520	718.762
191.300	14.068	948.997	717.858
192.315	14.136	948.365	717.609
193.329	14.079	947.808	716.879
194.344	14.106	947.114	716.406
195.359	14.102	946.598	715.935
196.373	14.358	945.848	716.405
197.388	14.259	945.591	715.722
198.402	14.265	945.193	715.384
199.417	14.216	944.503	714.586
200.432	14.337	943.943	714.621
201.446	14.454	942.991	714.338
202.461	14.356	942.919	713.798
203.475	14.525	942.145	713.875
204.490	14.502	941.207	713.002
205.504	14.510	940.306	712.291
206.519	14.254	940.268	711.104
207.534	14.266	938.970	710.113
208.548	14.253	938.589	709.706
209.563	14.419	937.872	709.809
210.577	14.357	937.083	708.882
211.592	14.441	936.583	708.801
212.607	14.607	935.227	708.416
213.621	14.515	934.671	707.540
214.636	14.491	934.233	707.046
215.650	14.552	933.649	706.799
216.665	14.624	932.691	706.315
217.680	14.667	932.126	706.007
218.694	14.658	931.429	705.379
219.709	14.639	930.882	704.821
220.723	14.642	930.312	704.340
221.738	14.755	929.417	704.078
222.753	14.704	928.814	703.346
223.767	14.775	928.293	703.185
224.782	14.753	928.084	702.872
225.796	14.826	927.051	702.336
226.811	14.892	926.198	701.905
227.826	14.811	925.850	701.238
228.840	14.806	924.806	700.366
229.855	14.691	924.083	699.275
230.869	14.719	923.318	698.748
231.884	14.764	922.680	698.393
232.899	14.591	922.279	697.306
233.913	14.694	921.148	696.816
234.928	14.677	920.504	696.200
235.942	14.655	919.986	695.653
236.957	14.820	919.179	695.670
237.972	14.822	918.568	695.153
238.986	14.868	917.812	694.711
240.001	14.833	917.525	694.285
241.015	14.690	917.017	693.246
242.030	14.913	916.101	693.416
243.045	14.799	915.776	692.637
244.059	14.905	914.950	692.391
245.074	14.959	914.274	692.043
246.088	14.787	913.942	691.018
247.103	14.896	913.080	690.755
248.117	15.009	912.194	690.490
249.132	15.068	911.933	690.475
250.147	15.075	911.297	689.963
251.161	15.092	910.719	689.530
252.176	15.127	910.129	689.168
253.190	15.016	909.491	688.168
254.205	15.124	908.678	687.937
255.220	15.192	908.168	687.766
256.234	15.211	907.067	686.950
257.249	15.260	906.497	686.658
258.263	15.229	905.619	685.806
259.278	15.444	904.629	685.875
260.293	15.333	904.251	685.074
261.307	15.319	903.959	684.733
262.322	15.358	903.161	684.228
263.336	15.413	902.297	683.738
264.351	15.385	901.749	683.147
265.366	15.380	901.182	682.639
266.380	15.342	900.955	682.251
267.395	15.515	899.850	682.057
268.409	15.452	899.527	681.494
269.424	15.493	898.352	680.713
270.439	15.512	897.711	680.241
271.453	15.402	897.177	679.333
272.468	15.494	896.598	679.206
273.482	15.485	896.097	678.730
274.497	15.491	895.276	678.072
275.512	15.416	894.985	677.489
276.526	15.545	894.372	677.487
277.541	15.602	893.605	677.076
278.555	15.611	893.102	676.669
279.570	15.801	892.649	677.030
280.585	15.572	891.950	675.522
281.599	15.572	891.215	674.905
282.614	15.595	890.398	674.317
283.628	15.722	889.716	674.251
284.643	15.812	889.123	674.104
285.657	15.784	888.263	673.279
286.672	15.686	888.026	672.646
287.687	15.820	887.425	672.667
288.701	15.735	886.738	671.750
289.716	15.844	886.013	671.574
290.730	15.712	885.899	670.903
291.745	15.871	885.381	671.083
292.760	15.831	884.259	670.015
293.774	15.871	883.512	669.548
294.789	15.969	882.527	669.131
295.803	15.899	882.056	668.440
296.818	15.853	881.356	667.666
297.833	15.871	880.864	667.304
298.847	15.900	880.284	666.924
299.862	15.898	879.859	666.532
300.876	15.881	879.434	666.086
301.891	15.926	878.819	665.739
302.906	15.981	877.836	665.153
303.920	16.051	877.139	664.840
304.935	16.046	876.530	664.302
305.949	16.147	876.130	664.338
306.964	16.065	875.498	663.477
307.979	16.040	875.150	663.057
308.993	16.031	874.682	662.608
310.008	16.076	873.683	661.970
311.022	16.007	873.260	661.317
312.037	16.097	872.637	661.140
313.052	16.019	872.166	660.422
314.066	16.021	871.525	659.884
315.081	16.111	870.677	659.534
316.095	16.159	869.867	659.052
317.110	16.115	869.804	658.772
318.125	16.130	869.343	658.425
319.139	16.205	868.372	657.923
320.154	16.126	867.877	657.183
321.168	16.196	867.563	657.160
322.183	16.115	866.624	656.075
323.197	16.136	866.784	656.219
324.212	16.335	865.653	656.076
325.227	16.314	865.080	655.503
326.241	16.230	865.037	655.088
327.256	16.277	864.279	654.638
328.270	16.220	863.345	653.650
329.285	16.199	862.846	653.135
330.300	16.269	862.570	653.137
331.314	16.311	862.114	652.899
332.329	16.267	861.664	652.328
333.343	16.276	860.990	651.797
334.358	16.416	860.460	651.878
335.373	16.425	860.078	651.564
336.387	16.344	860.286	651.352
337.402	16.522	859.321	651.249
338.416	16.544	859.074	651.090
339.431	16.617	858.642	650.987
340.446	16.477	858.408	650.211
341.460	16.600	857.918	650.258
342.475	16.488	857.995	649.828
343.489	16.593	857.187	649.561
344.504	16.720	856.165	649.214
345.519	16.697	855.827	648.813
346.533	16.717	855.438	648.536
347.548	16.647	855.103	647.960
348.562	16.525	854.577	647.037
349.577	16.486	854.162	646.516
350.592	16.558	853.370	646.133
351.606	16.620	852.303	645.504
352.621	16.560	851.301	644.460
353.635	16.738	851.163	644.975
354.650	16.668	850.413	644.086
355.665	16.898	849.774	644.419
356.679	16.674	849.402	643.227
357.694	16.693	848.544	642.594
358.708	16.719	847.993	642.220
359.723	16.641	847.597	641.566
360.738	16.820	846.563	641.404
361.752	16.950	846.078	641.473
362.767	16.785	845.542	640.384
363.781	16.841	845.473	640.486
364.796	16.819	844.757	639.804
365.810	16.874	844.239	639.566
366.825	17.051	843.566	639.663
367.840	17.025	843.274	639.289
368.854	17.016	842.731	638.787
369.869	17.024	842.692	638.729
370.883	16.929	841.917	637.730
371.898	17.046	841.527	637.816
372.913	17.122	841.103	637.727
373.927	17.138	840.782	637.484
374.942	17.082	840.049	636.663
375.956	17.054	839.789	636.306
376.971	17.206	839.405	636.526
377.986	17.224	838.997	636.229
379.000	17.219	838.231	635.572
380.015	17.221	837.690	635.112
381.029	17.231	837.317	634.812
382.044	17.365	836.596	634.711
383.059	17.325	835.699	633.822
384.073	17.363	835.244	633.564
385.088	17.262	835.006	632.952
386.102	17.193	834.543	632.289
387.117	17.285	833.768	631.987
388.132	17.383	833.160	631.833
389.146	17.288	832.765	631.126
390.161	17.335	832.198	630.813
391.175	17.553	831.439	630.990
392.190	17.481	830.800	630.184
393.205	17.312	830.607	629.355
394.219	17.316	830.361	629.131
395.234	17.238	830.009	628.516
396.248	17.410	829.428	628.658
397.263	17.263	829.188	627.879
398.278	17.397	828.736	627.975
399.292	17.356	828.183	627.350
400.307	17.285	827.714	626.675
401.321	17.545	827.009	627.044
402.336	17.393	826.756	626.238
403.350	17.344	826.430	625.756
404.365	17.460	825.468	625.399
405.380	17.427	825.184	625.005
406.394	17.463	824.802	624.793
407.409	17.737	823.929	625.083
408.423	17.547	823.927	624.329
409.438	17.638	823.366	624.180
410.453	17.694	823.348	624.316
411.467	17.733	822.625	623.857
412.482	17.715	822.149	623.374
413.496	17.851	821.441	623.279
414.511	17.774	821.376	622.895
415.526	17.961	820.688	622.997
416.540	17.829	820.233	622.116
417.555	17.792	820.016	621.761
418.569	17.731	819.955	621.437
419.584	17.895	818.893	621.176
420.599	17.824	818.722	620.731
421.613	105.375	1286.940	1447.417
422.628	91.076	1355.147	1447.542
