DTS Sentinel unit serial number:	SN413079Multiplexer serial number:	ORYXHardware model number:	OX4-SRSoftware version number:	ORYX F/W v4.00 Oryx Data Collector v3.7.2.0data status	okinstallation	princeton_trtdifferential loss correction	single-endedforward channel	channel 1reverse channel	N/Adate	2019/09/16time	02:14:35forward acquisition time	60.00reverse acquisition time	0.00gamma	496.2192k internal	0.2332k external	0.2332temperature offset calibration	0.9975default loss term (dB/km)	0.3790temperature slope calibration	1.0000multiplexer offset coefficient	1.0000multiplexer slope coefficient	1.0000fibre end	0.00T internal ref (°C)	27.55T ext. ref 1 (°C)	10.16T ext. ref 2 (°C)	22.50length (m)	temperature (°C)	Stokes	anti-Stokes-747.200	-13.105	0.093	0.061
-746.185	800.000	-0.025	-0.083
-745.171	-25.503	-0.398	-0.237
-744.156	800.000	-0.010	0.033
-743.142	-99.297	-0.109	-0.028
-742.127	-200.000	0.001	0.132
-741.112	-183.936	0.203	-0.003
-740.098	-98.878	-0.320	0.082
-739.083	800.000	-0.073	0.261
-738.069	-200.000	-0.069	0.368
-737.054	351.594	0.117	0.233
-736.039	-115.884	-0.590	-0.111
-735.025	-200.000	-0.028	0.137
-734.010	95.229	-0.123	-0.141
-732.996	-96.727	-0.322	-0.085
-731.981	130.764	0.172	-0.221
-730.966	-48.799	0.197	0.095
-729.952	-42.634	0.108	-0.055
-728.937	-32.375	0.324	-0.182
-727.923	-129.823	0.169	-0.023
-726.908	182.085	0.094	0.139
-725.894	-37.580	-0.189	-0.101
-724.879	-17.088	-0.128	0.081
-723.864	169.767	0.031	0.044
-722.850	333.941	-0.252	0.490
-721.835	-66.614	-0.090	-0.036
-720.821	-200.000	0.007	0.127
-719.806	-28.367	0.285	-0.165
-718.791	-42.709	-0.104	0.053
-717.777	800.000	-0.035	0.117
-716.762	-70.609	0.181	-0.069
-715.748	-127.261	0.043	0.006
-714.733	330.644	0.110	0.213
-713.718	-200.000	0.168	-0.001
-712.704	-90.771	0.138	0.040
-711.689	-79.465	-0.016	-0.006
-710.675	-0.873	-0.141	-0.100
-709.660	-200.000	-0.019	0.310
-708.645	-34.279	-0.200	0.111
-707.631	66.355	-0.172	-0.176
-706.616	-153.073	-0.284	0.020
-705.602	-121.230	0.263	0.044
-704.587	-200.000	0.034	-0.227
-703.572	15.993	0.256	-0.202
-702.558	-200.000	-0.024	0.406
-701.543	-76.452	0.217	0.077
-700.529	-28.415	0.033	0.019
-699.514	-200.000	-0.040	-0.482
-698.499	1.409	0.137	-0.099
-697.485	280.557	0.178	0.320
-696.470	-200.000	-0.023	0.224
-695.456	-86.251	0.046	-0.014
-694.441	53.842	-0.066	-0.064
-693.426	0.182	0.081	0.058
-692.412	108.267	-0.068	0.081
-691.397	417.507	0.078	-0.167
-690.383	-200.000	-0.071	-0.360
-689.368	63.847	-0.183	-0.185
-688.354	159.461	-0.127	-0.178
-687.339	-108.671	0.153	0.033
-686.324	-69.394	-0.143	0.055
-685.310	233.257	0.162	-0.267
-684.295	-200.000	0.025	-0.203
-683.281	-200.000	-0.038	-0.176
-682.266	-200.000	0.069	-0.332
-681.251	-200.000	-0.047	0.255
-680.237	-200.000	0.004	0.052
-679.222	-200.000	-0.005	-0.042
-678.208	-91.339	0.278	0.080
-677.193	-200.000	-0.022	0.247
-676.178	800.000	-0.046	-0.169
-675.164	-65.695	-0.319	-0.128
-674.149	459.102	0.200	-0.446
-673.135	574.645	0.054	-0.132
-672.120	31.222	-0.091	0.078
-671.105	-70.871	0.256	-0.097
-670.091	171.568	0.081	-0.117
-669.076	-200.000	-0.038	0.334
-668.062	167.898	-0.115	-0.164
-667.047	-53.648	0.042	-0.019
-666.032	62.564	-0.197	-0.197
-665.018	-184.891	0.201	-0.003
-664.003	706.647	0.057	-0.152
-662.989	31.258	0.256	-0.220
-661.974	260.060	-0.094	-0.163
-660.959	-87.228	0.335	-0.102
-659.945	-90.124	-0.463	-0.135
-658.930	800.000	0.161	-0.620
-657.916	66.703	-0.214	-0.218
-656.901	-159.821	-0.187	0.010
-655.886	741.106	0.123	-0.331
-654.872	263.237	-0.122	-0.213
-653.857	73.021	-0.156	-0.164
-652.843	-41.222	0.401	0.207
-651.828	-200.000	-0.046	-0.466
-650.814	-200.000	0.000	-0.343
-649.799	-200.000	0.018	-0.094
-648.784	-117.509	-0.104	0.019
-647.770	377.682	-0.179	0.367
-646.755	-35.296	0.112	0.061
-645.741	532.455	0.092	-0.219
-644.726	68.498	-0.162	0.166
-643.711	46.718	-0.200	0.186
-642.697	-200.000	0.020	-0.223
-641.682	-100.530	0.183	-0.045
-640.668	-200.000	-0.006	-0.166
-639.653	191.237	0.293	-0.442
-638.638	220.429	-0.071	0.114
-637.624	-200.000	-0.035	0.318
-636.609	-200.000	0.004	0.112
-635.595	79.068	-0.070	-0.075
-634.580	-160.344	0.103	-0.006
-633.565	-71.703	0.512	-0.191
-632.551	608.088	-0.166	-0.415
-631.536	-200.000	0.031	-0.284
-630.522	643.261	0.119	0.304
-629.507	127.198	-0.118	-0.150
-628.492	-16.022	-0.265	0.169
-627.478	-200.000	-0.002	-0.030
-626.463	46.131	-0.180	-0.167
-625.449	-51.657	0.197	0.092
-624.434	-200.000	-0.064	0.445
-623.419	19.837	-0.107	-0.086
-622.405	-119.676	-0.396	-0.069
-621.390	215.873	0.141	-0.224
-620.376	219.544	0.095	0.152
-619.361	800.000	0.111	-0.339
-618.346	498.731	0.090	-0.207
-617.332	-200.000	-0.035	-0.244
-616.317	-140.676	0.262	0.027
-615.303	-200.000	-0.013	0.226
-614.288	50.688	0.052	0.049
-613.273	269.890	0.031	0.055
-612.259	148.319	0.046	0.063
-611.244	-90.116	-0.381	-0.111
-610.230	257.163	-0.133	0.229
-609.215	-77.956	0.141	0.049
-608.201	-200.000	0.016	0.143
-607.186	-157.438	-0.230	-0.014
-606.171	76.723	0.173	-0.183
-605.157	297.626	-0.071	0.130
-604.142	-119.646	0.103	-0.018
-603.128	-8.025	0.219	0.148
-602.113	-21.353	0.469	0.286
-601.098	-100.321	-0.181	0.045
-600.084	-161.589	-0.201	-0.010
-599.069	-200.000	0.026	0.247
-598.055	-90.050	0.105	0.031
-597.040	-82.337	-0.170	0.055
-596.025	-200.000	-0.012	-0.067
-595.011	-34.209	0.168	0.092
-593.996	800.000	-0.055	-0.206
-592.982	-92.411	-0.139	-0.039
-591.967	-120.238	0.281	0.048
-590.952	207.586	-0.092	-0.144
-589.938	-75.752	0.143	-0.051
-588.923	-111.853	-0.204	0.041
-587.909	-200.000	-0.005	-0.173
-586.894	-65.203	0.140	0.056
-585.879	341.107	0.060	-0.117
-584.865	147.007	-0.236	0.317
-583.850	-104.515	0.101	-0.023
-582.836	-98.007	0.050	-0.013
-581.821	-121.784	0.093	-0.015
-580.806	-120.578	0.155	-0.026
-579.792	164.219	-0.213	-0.300
-578.777	-146.653	0.339	0.029
-577.763	-200.000	-0.024	-0.363
-576.748	-134.550	0.426	-0.052
-575.733	233.570	-0.041	0.068
-574.719	169.263	-0.122	-0.174
-573.704	-185.635	0.202	-0.003
-572.690	-75.081	0.183	0.065
-571.675	800.000	0.054	-0.179
-570.661	-139.254	-0.226	0.024
-569.646	-200.000	-0.005	0.129
-568.631	-117.866	0.083	0.015
-567.617	-129.329	0.285	-0.040
-566.602	78.200	0.156	0.166
-565.588	-200.000	0.027	-0.268
-564.573	800.000	-0.045	-0.172
-563.558	78.502	0.145	0.154
-562.544	800.000	-0.044	-0.186
-561.529	-31.049	0.186	-0.105
-560.515	-9.735	0.064	0.043
-559.500	777.918	-0.053	0.145
-558.485	693.092	-0.030	0.079
-557.471	-72.371	-0.049	-0.018
-556.456	-141.842	0.232	0.023
-555.442	-10.592	-0.274	-0.181
-554.427	-80.796	-0.288	-0.096
-553.412	150.306	0.050	-0.068
-552.398	191.123	0.089	0.134
-551.383	800.000	0.147	0.432
-550.369	-200.000	-0.159	0.000
-549.354	-200.000	-0.014	0.182
-548.339	-29.476	-0.162	-0.092
-547.325	-165.698	-0.273	-0.012
-546.310	37.417	0.173	0.153
-545.296	-56.165	-0.322	-0.143
-544.281	-6.492	-0.011	0.007
-543.266	800.000	0.053	-0.225
-542.252	-69.894	-0.150	-0.057
-541.237	-106.322	0.199	0.044
-540.223	800.000	0.085	0.333
-539.208	133.688	0.182	0.235
-538.193	-200.000	-0.050	0.309
-537.179	9.830	-0.188	-0.143
-536.164	424.824	0.064	-0.138
-535.150	109.545	-0.130	0.155
-534.135	800.000	0.044	0.123
-533.121	375.156	0.080	-0.162
-532.106	-139.017	0.236	0.026
-531.091	43.011	-0.059	0.054
-530.077	523.040	-0.182	-0.426
-529.062	-200.000	-0.055	-0.409
-528.048	161.411	-0.036	-0.050
-527.033	-73.933	0.072	0.026
-526.018	-200.000	0.016	0.367
-525.004	800.000	-0.086	0.323
-523.989	-147.119	0.255	-0.022
-522.975	-132.816	0.050	-0.006
-521.960	-30.875	0.422	-0.238
-520.945	-200.000	0.002	0.023
-519.931	-200.000	0.010	0.235
-518.916	37.990	-0.052	-0.046
-517.902	377.437	0.073	-0.149
-516.887	-163.825	0.355	-0.017
-515.872	800.000	-0.071	0.254
-514.858	-5.362	0.436	0.299
-513.843	740.625	0.019	0.051
-512.829	-200.000	-0.023	-0.119
-511.814	361.515	-0.247	-0.493
-510.799	800.000	0.052	-0.203
-509.785	69.661	-0.076	0.078
-508.770	254.813	0.079	-0.136
-507.756	223.273	-0.030	-0.048
-506.741	-135.393	0.093	0.011
-505.726	667.060	-0.080	0.206
-504.712	-72.475	-0.370	0.136
-503.697	-40.774	-0.185	-0.095
-502.683	-200.000	0.016	0.074
-501.668	-52.689	0.144	-0.066
-500.653	-135.502	0.052	0.006
-499.639	-108.389	0.201	-0.043
-498.624	-83.825	-0.308	-0.098
-497.610	-55.628	-0.037	-0.016
-496.595	60.992	-0.172	0.170
-495.581	-200.000	-0.054	-0.240
-494.566	-17.632	-0.201	0.126
-493.551	100.845	-0.053	0.061
-492.537	800.000	0.129	0.363
-491.522	84.172	0.118	0.129
-490.508	-200.000	0.001	0.174
-489.493	-145.722	-0.097	-0.009
-488.478	341.077	-0.047	0.092
-487.464	-69.848	-0.186	-0.071
-486.449	38.131	-0.047	0.042
-485.435	-200.000	-0.040	0.416
-484.420	-200.000	-0.033	-0.307
-483.405	139.512	-0.085	-0.112
-482.391	29.634	0.265	-0.225
-481.376	205.741	-0.170	-0.264
-480.362	-98.324	-0.115	-0.029
-479.347	-98.775	-0.263	0.067
-478.332	75.150	-0.317	0.333
-477.318	-157.328	0.158	-0.010
-476.303	-200.000	0.033	0.203
-475.289	26.522	-0.037	-0.031
-474.274	-95.732	0.391	0.104
-473.259	800.000	-0.038	0.111
-472.245	-11.244	-0.398	-0.261
-471.230	-106.978	0.386	0.085
-470.216	800.000	-0.036	0.120
-469.201	800.000	-0.054	0.180
-468.186	-25.767	0.048	0.028
-467.172	228.756	-0.090	0.146
-466.157	175.215	0.067	0.096
-465.143	-124.809	-0.265	-0.041
-464.128	8.825	0.280	0.210
-463.113	56.076	-0.235	-0.227
-462.099	-200.000	0.013	0.247
-461.084	-200.000	-0.027	-0.211
-460.070	-200.000	-0.004	0.175
-459.055	-61.791	-0.230	0.096
-458.040	96.887	-0.168	0.192
-457.026	94.683	-0.208	0.236
-456.011	-0.605	-0.300	-0.212
-454.997	0.989	-0.348	-0.248
-453.982	-64.344	0.330	-0.134
-452.968	-19.230	-0.152	0.094
-451.953	24.302	-0.250	-0.206
-450.938	-111.050	-0.171	-0.035
-449.924	257.748	-0.195	-0.333
-448.909	-73.195	-0.301	0.110
-447.895	-200.000	0.012	0.064
-446.880	11.152	0.093	0.071
-445.865	414.478	-0.096	-0.203
-444.851	-75.455	-0.139	-0.049
-443.836	76.961	0.278	-0.293
-442.822	177.480	0.086	-0.124
-441.807	-83.977	0.131	-0.041
-440.792	-123.331	-0.274	0.044
-439.778	-78.671	-0.346	0.118
-438.763	-153.548	-0.145	0.010
-437.749	-200.000	-0.063	0.390
-436.734	-200.000	0.008	-0.047
-435.719	-57.022	-0.236	-0.103
-434.705	-51.341	-0.174	0.081
-433.690	-169.142	0.312	0.012
-432.676	641.653	0.098	0.247
-431.661	-79.862	0.102	0.034
-430.646	126.324	-0.252	-0.316
-429.632	-171.913	0.172	0.006
-428.617	-13.937	-0.125	0.080
-427.603	-198.548	0.225	0.001
-426.588	245.787	0.128	0.214
-425.573	-200.000	0.033	-0.189
-424.559	-183.077	-0.252	0.004
-423.544	-25.887	-0.387	0.226
-422.530	-25.276	0.028	0.016
-421.515	-200.000	0.009	0.240
-420.500	-200.000	0.009	0.309
-419.486	800.000	0.027	0.109
-418.471	-200.000	0.074	0.394
-417.457	800.000	0.017	0.056
-416.442	393.597	0.082	0.170
-415.428	-51.775	0.192	0.089
-414.413	8.484	0.112	-0.084
-413.398	-115.926	0.238	0.044
-412.384	-200.000	0.009	-0.110
-411.369	36.214	-0.122	0.107
-410.355	95.813	0.031	0.035
-409.340	-88.287	-0.239	0.071
-408.325	-72.427	-0.458	-0.168
-407.311	690.003	0.091	-0.237
-406.296	-200.000	0.040	0.320
-405.282	417.752	0.065	0.138
-404.267	26.945	-0.283	-0.235
-403.252	79.175	0.123	-0.131
-402.238	90.985	0.107	0.119
-401.223	-74.136	0.320	-0.115
-400.209	124.745	0.065	0.081
-399.194	266.033	-0.153	-0.265
-398.179	-53.584	-0.143	-0.065
-397.165	-193.566	0.114	0.001
-396.150	156.329	-0.121	-0.166
-395.136	-200.000	-0.027	-0.185
-394.121	50.805	-0.205	-0.193
-393.106	149.035	-0.217	-0.291
-392.092	25.136	-0.148	-0.122
-391.077	139.194	-0.086	-0.113
-390.063	-200.000	0.004	-0.357
-389.048	215.487	0.165	-0.259
-388.033	243.275	0.021	-0.035
-387.019	-46.943	0.165	-0.080
-386.004	-200.000	-0.040	-0.280
-384.990	-200.000	0.025	-0.167
-383.975	-87.378	0.279	0.084
-382.960	-150.817	0.263	-0.020
-381.946	-149.544	0.343	-0.027
-380.931	-49.458	0.352	0.167
-379.917	-111.534	-0.013	-0.003
-378.902	-16.077	0.407	0.257
-377.888	-200.000	0.026	0.172
-376.873	-59.218	0.140	0.060
-375.858	-200.000	-0.000	0.010
-374.844	-116.823	-0.231	0.042
-373.829	239.822	-0.101	0.167
-372.815	190.470	-0.178	0.265
-371.800	-200.000	0.010	-0.107
-370.785	-82.976	0.339	0.108
-369.771	-144.709	0.155	0.014
-368.756	51.826	-0.124	-0.117
-367.742	-106.088	-0.229	-0.051
-366.727	-200.000	-0.044	0.287
-365.712	-56.943	0.267	-0.117
-364.698	-200.000	-0.002	0.143
-363.683	-122.505	-0.296	0.048
-362.669	131.883	-0.219	-0.280
-361.654	-83.087	0.275	-0.088
-360.639	800.000	-0.043	-0.181
-359.625	10.817	0.095	-0.072
-358.610	-147.487	-0.462	-0.039
-357.596	-27.535	0.253	-0.145
-356.581	-121.770	-0.215	-0.035
-355.566	-105.662	-0.169	-0.038
-354.552	-54.003	-0.320	-0.144
-353.537	-134.309	-0.211	0.026
-352.523	278.872	0.072	-0.127
-351.508	800.000	-0.072	-0.208
-350.493	-104.603	-0.228	-0.052
-349.479	-200.000	0.008	-0.156
-348.464	51.969	0.077	-0.072
-347.450	-200.000	0.021	0.156
-346.435	75.540	-0.033	0.034
-345.420	800.000	0.152	-0.563
-344.406	-102.020	0.130	-0.031
-343.391	-53.477	-0.303	0.137
-342.377	-34.899	0.294	0.159
-341.362	134.448	0.048	-0.062
-340.348	361.044	-0.098	-0.194
-339.333	99.523	-0.118	0.135
-338.318	-51.642	-0.090	0.042
-337.304	-150.657	-0.468	-0.035
-336.289	-200.000	-0.083	-0.404
-335.275	75.574	0.032	-0.034
-334.260	679.263	0.061	-0.156
-333.245	93.911	0.143	0.160
-332.231	-105.291	0.306	-0.069
-331.216	95.425	-0.139	-0.157
-330.202	645.094	0.024	0.061
-329.187	276.094	0.086	0.151
-328.172	800.000	0.025	-0.069
-327.158	-28.804	0.234	0.133
-326.143	-200.000	-0.048	-0.252
-325.129	41.672	0.167	0.150
-324.114	-83.407	0.139	-0.044
-323.099	-86.125	-0.240	-0.073
-322.085	36.688	0.175	0.153
-321.070	-164.808	-0.030	0.001
-320.056	800.000	0.048	0.152
-319.041	-77.924	0.299	0.102
-318.026	22.026	0.102	-0.082
-317.012	-149.415	0.365	0.029
-315.997	-200.000	-0.007	-0.157
-314.983	-49.203	0.049	-0.023
-313.968	-140.024	-0.294	0.031
-312.953	-97.549	-0.165	-0.042
-311.939	-133.585	0.169	0.021
-310.924	95.957	-0.086	0.097
-309.910	86.911	-0.121	-0.132
-308.895	19.741	0.058	-0.047
-307.880	133.528	-0.179	0.229
-306.866	-6.548	-0.110	0.074
-305.851	-200.000	-0.037	0.171
-304.837	166.071	0.159	0.223
-303.822	800.000	-0.070	0.247
-302.807	297.619	-0.057	-0.104
-301.793	-200.000	0.005	0.183
-300.778	-48.798	0.054	0.025
-299.764	-19.364	-0.237	0.146
-298.749	-200.000	0.015	-0.125
-297.735	369.939	-0.204	-0.409
-296.720	800.000	-0.030	-0.083
-295.705	-200.000	-0.037	-0.174
-294.691	800.000	-0.031	0.094
-293.676	-200.000	-0.006	0.246
-292.662	-12.313	-0.135	-0.087
-291.647	-181.767	-0.152	-0.003
-290.632	260.688	0.119	0.204
-289.618	-126.263	0.205	0.030
-288.603	230.088	-0.071	0.115
-287.589	-28.394	0.132	-0.076
-286.574	313.353	0.211	0.392
-285.559	-148.365	0.182	0.015
-284.545	800.000	0.080	0.318
-283.530	372.879	0.157	0.315
-282.516	-180.135	0.100	-0.002
-281.501	800.000	-0.037	0.128
-280.486	122.815	-0.109	-0.135
-279.472	372.485	-0.117	0.234
-278.457	800.000	-0.068	-0.294
-277.443	266.949	0.103	-0.178
-276.428	-200.000	0.033	0.313
-275.413	-200.000	0.039	0.196
-274.399	39.491	-0.133	0.118
-273.384	-200.000	0.077	0.450
-272.370	160.626	0.247	0.341
-271.355	113.863	-0.062	0.075
-270.340	646.664	-0.040	0.100
-269.326	200.401	-0.063	0.096
-268.311	-109.733	0.128	0.027
-267.297	210.715	0.123	-0.191
-266.282	25.548	0.122	-0.100
-265.267	-35.605	0.073	-0.039
-264.253	-200.000	-0.005	0.162
-263.238	24.103	-0.070	0.057
-262.224	-81.872	0.115	0.037
-261.209	-72.485	0.211	-0.077
-260.195	-140.389	0.346	-0.036
-259.180	153.015	-0.153	0.207
-258.165	30.917	0.196	0.166
-257.151	800.000	-0.024	-0.103
-256.136	736.746	0.114	-0.302
-255.122	-57.944	0.285	0.123
-254.107	-200.000	0.024	0.299
-253.092	-63.127	0.164	-0.067
-252.078	-200.000	-0.003	0.267
-251.063	-200.000	-0.032	-0.248
-250.049	51.158	-0.028	0.026
-249.034	-139.102	-0.443	-0.047
-248.019	-200.000	0.090	-0.432
-247.005	174.514	-0.149	0.213
-245.990	-200.000	-0.009	0.121
-244.976	-9.075	0.272	0.180
-243.961	-85.994	0.155	-0.047
-242.946	-147.493	-0.284	0.024
-241.932	-92.881	0.176	-0.048
-240.917	-118.249	-0.033	0.006
-239.903	-79.093	-0.314	-0.105
-238.888	-111.984	0.160	0.032
-237.873	800.000	0.186	-0.515
-236.859	-129.778	-0.251	0.034
-235.844	-125.135	0.052	-0.008
-234.830	-111.204	-0.346	-0.070
-233.815	800.000	-0.036	0.100
-232.800	-17.530	0.115	-0.071
-231.786	18.344	-0.119	-0.094
-230.771	-83.678	0.272	0.086
-229.757	800.000	0.096	-0.356
-228.742	342.817	-0.182	-0.352
-227.727	-200.000	-0.013	-0.126
-226.713	177.542	-0.006	0.008
-225.698	191.929	0.031	0.046
-224.684	800.000	-0.061	-0.216
-223.669	-155.783	0.075	0.005
-222.655	-46.082	-0.174	-0.084
-221.640	649.400	0.020	0.050
-220.625	179.455	0.095	0.137
-219.611	-200.000	0.016	0.194
-218.596	-93.642	-0.033	0.009
-217.582	800.000	-0.065	-0.265
-216.567	178.945	-0.107	-0.154
-215.552	57.933	0.229	0.221
-214.538	428.690	-0.110	0.234
-213.523	-46.213	-0.035	0.017
-212.509	-186.298	0.255	0.004
-211.494	-200.000	-0.059	0.335
-210.479	92.571	0.190	0.211
-209.465	-200.000	-0.012	0.182
-208.450	68.770	-0.274	-0.278
-207.436	-200.000	0.004	-0.123
-206.421	-74.007	-0.180	0.064
-205.406	7.366	-0.192	-0.142
-204.392	-146.929	-0.127	0.011
-203.377	-200.000	0.002	-0.253
-202.363	-25.896	-0.001	0.000
-201.348	-6.827	0.247	0.165
-200.333	-200.000	0.056	0.334
-199.319	800.000	0.053	0.170
-198.304	-145.530	-0.408	-0.036
-197.290	-71.322	-0.172	-0.063
-196.275	-200.000	0.020	0.138
-195.260	-81.406	-0.164	-0.053
-194.246	85.626	0.263	-0.285
-193.231	691.051	0.070	-0.181
-192.217	800.000	-0.041	0.128
-191.202	30.820	-0.185	0.156
-190.187	175.590	0.116	-0.166
-189.173	-200.000	-0.022	-0.149
-188.158	-120.691	-0.446	-0.074
-187.144	-30.319	-0.139	-0.078
-186.129	-30.442	-0.279	-0.156
-185.114	-74.055	0.209	-0.075
-184.100	10.712	-0.151	-0.114
-183.085	-135.879	0.217	0.025
-182.071	-200.000	-0.010	-0.374
-181.056	-125.517	0.216	0.032
-180.042	223.730	-0.081	0.129
-179.027	-16.965	-0.176	0.109
-178.012	-33.105	-0.203	-0.111
-176.998	-175.489	-0.138	0.004
-175.983	172.184	0.210	-0.297
-174.969	-11.157	0.038	0.024
-173.954	-133.258	0.082	0.010
-172.939	197.031	0.091	-0.137
-171.925	-51.252	-0.294	-0.135
-170.910	-75.489	0.238	-0.084
-169.896	-43.869	0.446	-0.221
-168.881	-140.150	0.174	-0.018
-167.866	-129.396	0.102	0.014
-166.852	664.859	-0.074	0.188
-165.837	-24.231	0.370	0.217
-164.823	-200.000	-0.016	0.245
-163.808	-84.029	-0.379	-0.118
-162.793	-200.000	0.081	-0.354
-161.779	476.972	0.087	0.194
-160.764	58.881	0.108	-0.104
-159.750	-140.311	0.376	0.039
-158.735	-138.225	0.206	0.022
-157.720	800.000	-0.023	-0.100
-156.706	47.521	0.133	0.122
-155.691	-200.000	-0.027	0.206
-154.677	-186.379	0.356	0.005
-153.662	-200.000	-0.025	0.260
-152.647	-17.237	-0.525	-0.326
-151.633	101.720	0.066	0.075
-150.618	-105.981	0.444	-0.098
-149.604	-200.000	-0.025	0.502
-148.589	173.678	0.119	0.169
-147.574	-37.104	0.134	0.070
-146.560	-72.366	0.410	-0.149
-145.545	134.898	-0.086	0.110
-144.531	10.340	-0.291	0.217
-143.516	-19.260	-0.302	-0.184
-142.502	274.387	-0.159	-0.277
-141.487	-200.000	0.015	0.073
-140.472	-62.770	0.214	0.087
-139.458	307.350	0.138	0.253
-138.443	129.372	-0.098	-0.123
-137.429	-89.970	0.444	0.127
-136.414	800.000	-0.065	0.244
-135.399	794.280	-0.152	0.410
-134.385	-80.538	-0.119	0.039
-133.370	420.531	-0.072	-0.151
-132.356	534.780	0.122	0.284
-131.341	257.394	-0.262	-0.442
-130.326	168.819	0.198	-0.277
-129.312	427.056	0.064	0.136
-128.297	-174.598	-0.192	-0.005
-127.283	-75.531	0.092	0.032
-126.268	-71.609	-0.111	-0.041
-125.253	-126.109	-0.216	0.032
-124.239	8.238	-0.186	-0.137
-123.224	574.059	0.109	0.261
-122.210	-200.000	0.025	0.179
-121.195	39.829	0.053	-0.047
-120.180	34.464	0.422	-0.362
-119.166	-92.640	-0.148	-0.041
-118.151	-200.000	0.005	0.283
-117.137	37.807	-0.091	-0.079
-116.122	-31.769	-0.185	0.102
-115.107	377.301	0.080	0.160
-114.093	135.693	0.083	-0.107
-113.078	137.988	-0.058	-0.075
-112.064	175.085	0.201	0.285
-111.049	-104.829	-0.063	-0.014
-110.034	-200.000	-0.004	0.199
-109.020	88.703	0.216	-0.236
-108.005	77.031	0.072	0.075
-106.991	200.771	0.048	0.073
-105.976	-105.188	-0.294	-0.066
-104.962	87.668	0.218	-0.237
-103.947	271.661	-0.046	-0.079
-102.932	501.731	0.059	-0.134
-101.918	54.606	-0.261	0.247
-100.903	22.298	-0.277	0.222
-99.889	-200.000	-0.023	-0.303
-98.874	-200.000	-0.034	-0.263
-97.859	-200.000	-0.004	0.312
-96.845	117.539	-0.112	0.135
-95.830	172.721	-0.033	-0.046
-94.816	800.000	-0.009	-0.026
-93.801	107.843	0.277	-0.323
-92.786	-148.000	0.174	0.014
-91.772	68.592	0.189	0.190
-90.757	116.919	0.223	-0.269
-89.743	1.157	-0.302	-0.213
-88.728	547.539	0.098	-0.229
-87.713	-49.525	-0.222	0.104
-86.699	-120.843	0.442	-0.073
-85.684	-42.111	0.121	0.061
-84.670	-91.713	0.187	0.052
-83.655	478.797	-0.023	0.051
-82.640	800.000	0.079	-0.275
-81.626	-200.000	0.017	-0.255
-80.611	-13.434	0.171	0.109
-79.597	-133.410	-0.094	0.012
-78.582	157.381	-0.013	-0.018
-77.567	-73.825	0.283	0.101
-76.553	213.147	-0.005	0.007
-75.538	-200.000	-0.031	-0.345
-74.524	-200.000	0.019	0.127
-73.509	-84.894	-0.277	0.085
-72.494	800.000	0.044	-0.180
-71.480	53.200	0.277	0.260
-70.465	800.000	0.075	-0.231
-69.451	-10.426	0.201	0.131
-68.436	-78.918	0.130	0.043
-67.422	192.167	-0.160	-0.237
-66.407	550.365	-0.158	-0.372
-65.392	-200.000	0.052	-0.251
-64.378	90.861	-0.171	-0.188
-63.363	180.522	0.121	-0.174
-62.349	-55.631	0.276	0.121
-61.334	16.285	-0.960	-0.742
-60.319	256.296	0.492	0.828
-59.305	800.000	-0.343	-1.173
-58.290	275.410	0.733	1.274
-57.276	800.000	0.612	1.775
-56.261	-200.000	112.614	645.674
-55.246	478.992	1500.543	3329.236
-54.232	148.256	2665.508	3523.591
-53.217	105.025	2149.967	2484.042
-52.203	38.972	1600.136	1400.464
-51.188	30.837	1347.122	1129.864
-50.173	27.832	1309.650	1080.635
-49.159	55.843	1364.157	1295.193
-48.144	54.398	1379.738	1301.246
-47.130	31.192	1334.894	1121.567
-46.115	27.737	1317.507	1086.383
-45.100	27.482	1312.995	1081.107
-44.086	27.409	1310.541	1078.608
-43.071	27.367	1308.010	1076.237
-42.057	27.359	1305.640	1074.197
-41.042	27.317	1304.588	1073.038
-40.027	27.462	1302.862	1072.430
-39.013	27.411	1300.575	1070.208
-37.998	27.392	1298.640	1068.460
-36.984	27.537	1297.326	1068.186
-35.969	27.556	1295.339	1066.620
-34.954	27.539	1293.581	1065.032
-33.940	27.517	1292.397	1063.885
-32.925	27.537	1291.196	1062.970
-31.911	27.572	1289.589	1061.807
-30.896	27.599	1288.154	1060.746
-29.881	27.736	1286.555	1060.181
-28.867	27.600	1285.488	1058.469
-27.852	27.650	1283.750	1057.287
-26.838	27.749	1282.553	1056.830
-25.823	27.664	1281.272	1055.242
-24.809	27.690	1279.473	1053.871
-23.794	27.643	1278.193	1052.499
-22.779	27.655	1277.429	1051.899
-21.765	27.630	1275.788	1050.365
-20.750	27.731	1274.969	1050.229
-19.736	27.568	1273.460	1048.009
-18.721	27.486	1272.555	1046.747
-17.706	27.527	1271.241	1045.863
-16.692	27.500	1270.126	1044.751
-15.677	27.521	1269.297	1044.143
-14.663	27.577	1267.388	1042.854
-13.648	27.481	1266.565	1041.585
-12.633	27.445	1266.195	1041.038
-11.619	27.493	1265.206	1040.457
-10.604	27.436	1264.194	1039.257
-9.590	27.350	1263.062	1037.796
-8.575	27.534	1261.696	1037.679
-7.560	27.450	1261.424	1036.935
-6.546	27.540	1260.401	1036.565
-5.531	27.500	1259.203	1035.312
-4.517	27.549	1258.566	1035.023
-3.502	27.490	1257.887	1034.089
-2.487	27.560	1257.026	1033.738
-1.473	27.415	1253.165	1029.703
-0.458	26.051	1237.743	1009.363
0.556	21.348	1222.073	974.446
1.571	18.105	1228.910	961.601
2.586	17.315	1244.586	969.283
3.600	17.375	1233.169	960.642
4.615	15.615	1166.429	899.162
5.629	12.095	1099.110	829.418
6.644	10.359	1082.053	807.823
7.659	10.111	1079.783	804.819
8.673	10.096	1078.624	803.810
9.688	10.095	1076.908	802.457
10.702	10.235	1075.513	802.039
11.717	12.405	1077.381	814.123
12.731	15.868	1082.200	834.899
13.746	17.622	1084.364	845.202
14.761	17.475	1083.408	843.654
15.775	16.515	1081.293	837.178
16.790	15.470	1079.136	830.270
17.804	14.829	1077.479	825.758
18.819	14.295	1076.085	821.980
19.834	14.063	1075.213	820.097
20.848	13.897	1074.352	818.547
21.863	13.577	1073.641	816.356
22.877	13.389	1073.162	814.997
23.892	13.490	1072.137	814.642
24.907	13.522	1071.414	814.176
25.921	13.557	1070.226	813.376
26.936	13.497	1069.065	812.127
27.950	13.614	1067.539	811.466
28.965	13.714	1065.921	810.654
29.980	13.701	1064.481	809.425
30.994	13.780	1063.225	808.784
32.009	13.736	1062.368	807.846
33.023	13.651	1061.779	806.913
34.038	13.704	1059.987	805.735
35.053	13.605	1059.134	804.538
36.067	13.586	1058.636	803.995
37.082	13.698	1057.627	803.698
38.096	13.651	1057.234	803.102
39.111	13.702	1056.100	802.416
40.126	13.552	1055.382	801.073
41.140	13.558	1053.327	799.473
42.155	13.487	1052.486	798.421
43.169	13.416	1051.048	796.921
44.184	13.476	1050.279	796.553
45.199	13.421	1049.313	795.485
46.213	13.552	1048.236	795.227
47.228	13.513	1047.221	794.203
48.242	13.492	1046.115	793.192
49.257	13.731	1044.858	793.310
50.271	13.667	1044.747	792.853
51.286	13.531	1043.684	791.323
52.301	13.495	1042.745	790.370
53.315	13.511	1041.557	789.478
54.330	13.592	1040.213	788.772
55.344	13.477	1039.474	787.596
56.359	13.452	1038.827	786.918
57.374	13.574	1037.969	786.776
58.388	13.353	1037.206	785.082
59.403	13.411	1036.367	784.652
60.417	13.401	1035.838	784.135
61.432	13.331	1034.338	782.599
62.447	13.315	1033.771	782.026
63.461	13.311	1033.185	781.494
64.476	13.231	1032.081	780.210
65.490	13.416	1031.077	780.254
66.505	13.409	1030.522	779.731
67.520	13.508	1029.795	779.580
68.534	13.518	1028.897	778.877
69.549	13.447	1028.098	777.872
70.563	13.327	1027.309	776.644
71.578	13.315	1026.563	775.954
72.593	13.239	1026.288	775.319
73.607	13.294	1025.236	774.712
74.622	13.291	1024.425	774.020
75.636	13.365	1023.687	773.739
76.651	13.342	1022.834	772.917
77.666	13.342	1022.088	772.285
78.680	13.318	1021.719	771.826
79.695	13.373	1020.892	771.390
80.709	13.308	1020.968	771.075
81.724	13.363	1020.061	770.580
82.739	13.539	1018.891	770.445
83.753	13.538	1018.516	770.091
84.768	13.634	1017.415	769.635
85.782	13.766	1016.591	769.555
86.797	13.709	1015.578	768.457
87.812	13.568	1014.909	767.228
88.826	13.653	1013.488	766.480
89.841	13.616	1012.786	765.713
90.855	13.654	1012.267	765.428
91.870	13.689	1011.481	764.924
92.884	13.809	1010.197	764.440
93.899	13.703	1009.595	763.427
94.914	13.746	1008.969	763.086
95.928	13.797	1008.171	762.650
96.943	13.568	1007.273	760.851
97.957	13.770	1006.041	760.779
98.972	13.769	1005.449	760.258
99.987	13.712	1004.507	759.218
101.001	13.713	1003.727	758.567
102.016	13.715	1002.776	757.791
103.030	13.702	1001.796	756.922
104.045	13.725	1001.153	756.473
105.060	13.695	1000.232	755.573
106.074	13.553	999.569	754.362
107.089	13.516	998.572	753.376
108.103	13.518	997.359	752.400
109.118	13.407	996.886	751.475
110.133	13.444	995.584	750.596
111.147	13.488	994.800	750.135
112.162	13.394	993.849	748.928
113.176	13.542	993.301	749.115
114.191	13.599	992.605	748.785
115.206	13.500	991.743	747.620
116.220	13.663	990.576	747.411
117.235	13.514	989.299	745.707
118.249	13.504	988.829	745.243
119.264	13.403	988.348	744.362
120.279	13.630	987.136	744.400
121.293	13.430	986.570	743.009
122.308	13.464	985.864	742.568
123.322	13.346	984.845	741.205
124.337	13.399	983.553	740.405
125.352	13.391	982.590	739.576
126.366	13.326	981.637	738.505
127.381	13.544	980.413	738.490
128.395	13.418	979.591	737.246
129.410	13.579	978.698	737.222
130.424	13.563	977.993	736.555
131.439	13.667	976.778	736.037
132.454	13.622	976.381	735.476
133.468	13.605	975.507	734.676
134.483	13.638	974.689	734.138
135.497	13.637	973.520	733.189
136.512	13.601	972.995	732.569
137.527	13.706	971.760	732.039
138.541	13.684	971.357	731.576
139.556	13.651	970.729	730.890
140.570	13.743	970.245	730.867
141.585	13.729	969.307	730.033
142.600	13.852	968.320	729.767
143.614	13.784	967.955	729.128
144.629	13.914	966.879	728.823
145.643	13.820	965.999	727.683
146.658	13.737	964.981	726.489
147.673	13.725	963.861	725.530
148.687	13.688	962.936	724.608
149.702	13.763	962.094	724.238
150.716	13.651	961.299	723.084
151.731	13.636	960.752	722.547
152.746	13.779	959.858	722.432
153.760	13.604	959.895	721.632
154.775	13.770	958.894	721.539
155.789	13.870	958.204	721.392
156.804	13.949	957.548	721.174
157.819	13.825	956.841	720.041
158.833	13.869	956.176	719.670
159.848	14.078	955.129	719.720
160.862	13.935	954.243	718.371
161.877	13.974	952.992	717.534
162.892	13.782	952.520	716.287
163.906	13.745	951.413	715.233
164.921	13.697	950.741	714.455
165.935	13.823	950.044	714.411
166.950	13.756	949.520	713.667
167.964	13.962	947.827	713.217
168.979	13.953	946.932	712.442
169.994	13.933	946.520	711.983
171.008	13.928	945.704	711.283
172.023	13.969	944.631	710.588
173.037	14.064	944.168	710.585
174.052	13.928	943.748	709.623
175.067	13.914	942.598	708.636
176.081	13.881	942.123	708.077
177.096	13.911	941.790	707.891
178.110	14.061	940.748	707.685
179.125	13.892	940.461	706.684
180.140	13.923	939.846	706.294
181.154	14.029	939.325	706.292
182.169	14.021	939.224	706.119
183.183	14.060	938.329	705.546
184.198	14.136	937.570	705.237
185.213	13.918	937.384	704.110
186.227	14.142	936.283	704.168
187.242	14.178	935.604	703.749
188.256	14.336	934.676	703.656
189.271	14.262	933.658	702.515
190.286	14.060	933.541	701.513
191.300	13.933	932.925	700.451
192.315	13.932	932.024	699.711
193.329	13.993	931.326	699.380
194.344	13.924	931.343	699.039
195.359	14.116	930.232	698.951
196.373	14.129	930.187	698.910
197.388	14.121	929.808	698.532
198.402	14.356	928.920	698.788
199.417	14.413	928.245	698.456
200.432	14.418	927.782	698.067
201.446	14.520	927.243	698.027
202.461	14.511	926.514	697.378
203.475	14.491	925.808	696.702
204.490	14.408	925.245	695.869
205.504	14.380	924.377	695.041
206.519	14.325	923.872	694.371
207.534	14.297	922.780	693.371
208.548	14.428	922.154	693.385
209.563	14.344	921.685	692.621
210.577	14.490	920.990	692.645
211.592	14.604	920.150	692.423
212.607	14.567	919.474	691.699
213.621	14.465	918.760	690.678
214.636	14.502	918.240	690.378
215.650	14.672	917.267	690.292
216.665	14.663	916.636	689.719
217.680	14.570	916.164	688.915
218.694	14.695	915.434	688.825
219.709	14.742	914.704	688.406
220.723	14.770	913.821	687.796
221.738	14.700	913.201	686.981
222.753	14.710	912.907	686.739
223.767	14.644	912.463	686.072
224.782	14.897	911.435	686.281
225.796	14.848	911.179	685.824
226.811	14.795	910.516	685.046
227.826	14.729	909.850	684.215
228.840	14.799	908.831	683.673
229.855	14.705	907.957	682.571
230.869	14.771	907.188	682.204
231.884	14.846	906.492	681.928
232.899	14.746	905.823	680.954
233.913	14.588	905.410	679.939
234.928	14.679	904.768	679.770
235.942	14.681	904.204	679.292
236.957	14.583	903.730	678.480
237.972	14.641	902.773	677.934
238.986	14.634	902.664	677.764
240.001	14.712	901.528	677.169
241.015	14.736	901.167	676.935
242.030	14.852	900.337	676.720
243.045	14.900	899.626	676.322
244.059	14.773	899.257	675.470
245.074	14.917	898.394	675.344
246.088	14.935	898.031	675.081
247.103	15.072	897.016	674.814
248.117	15.012	896.705	674.277
249.132	15.109	896.189	674.219
250.147	15.284	895.563	674.393
251.161	15.205	894.854	673.483
252.176	15.205	894.118	672.871
253.190	15.263	893.381	672.486
254.205	15.275	893.141	672.297
255.220	15.287	892.152	671.539
256.234	15.306	891.597	671.139
257.249	15.291	891.082	670.633
258.263	15.208	890.565	669.850
259.278	15.272	889.619	669.336
260.293	15.312	888.863	668.869
261.307	15.431	888.457	668.978
262.322	15.458	887.724	668.474
263.336	15.477	887.051	667.982
264.351	15.363	886.492	667.050
265.366	15.457	886.186	667.135
266.380	15.446	885.232	666.312
267.395	15.530	884.737	666.214
268.409	15.353	883.856	664.791
269.424	15.427	883.188	664.522
270.439	15.508	882.223	664.060
271.453	15.522	881.567	663.561
272.468	15.388	881.167	662.673
273.482	15.392	880.806	662.359
274.497	15.405	880.004	661.747
275.512	15.552	879.236	661.691
276.526	15.621	878.764	661.548
277.541	15.539	878.568	661.020
278.555	15.577	877.635	660.410
279.570	15.654	877.164	660.298
280.585	15.612	876.026	659.220
281.599	15.600	875.626	658.813
282.614	15.485	875.247	658.016
283.628	15.623	874.394	657.858
284.643	15.584	873.771	657.178
285.657	15.610	873.364	656.919
286.672	15.583	872.519	656.117
287.687	15.592	872.009	655.711
288.701	15.661	871.394	655.461
289.716	15.744	870.806	655.284
290.730	15.726	870.226	654.718
291.745	15.728	869.593	654.191
292.760	15.941	868.729	654.310
293.774	15.817	868.397	653.522
294.789	15.777	867.522	652.650
295.803	15.783	866.947	652.185
296.818	15.831	866.306	651.828
297.833	15.882	865.390	651.279
298.847	15.896	865.032	651.005
299.862	15.949	864.142	650.486
300.876	15.935	864.008	650.273
301.891	15.881	863.689	649.765
302.906	15.932	863.025	649.405
303.920	16.062	862.477	649.436
304.935	16.095	861.880	649.057
305.949	16.136	860.861	648.390
306.964	16.144	860.249	647.900
307.979	16.104	859.940	647.459
308.993	16.122	859.217	646.926
310.008	16.031	858.734	646.156
311.022	16.023	858.377	645.799
312.037	15.971	857.861	645.156
313.052	15.920	857.235	644.433
314.066	15.967	856.747	644.187
315.081	16.038	855.731	643.638
316.095	15.928	855.284	642.824
317.110	16.039	854.444	642.560
318.125	16.114	854.434	642.781
319.139	16.111	853.960	642.355
320.154	16.018	854.015	641.987
321.168	16.096	853.077	641.521
322.183	16.212	852.025	641.115
323.197	16.284	852.008	641.319
324.212	16.203	851.372	640.475
325.227	16.224	850.484	639.832
326.241	16.202	850.083	639.388
327.256	16.132	849.579	638.687
328.270	16.184	848.931	638.342
329.285	16.351	848.419	638.531
330.300	16.104	847.611	636.935
331.314	16.270	846.976	637.025
332.329	16.270	846.877	636.894
333.343	16.272	846.637	636.668
334.358	16.249	845.844	635.927
335.373	16.375	845.518	636.100
336.387	16.359	845.223	635.764
337.402	16.453	844.939	635.847
338.416	16.446	844.632	635.532
339.431	16.644	844.199	635.893
340.446	16.529	843.769	635.082
341.460	16.456	843.653	634.666
342.475	16.480	843.519	634.596
343.489	16.472	843.116	634.208
344.504	16.618	841.979	633.844
345.519	16.681	841.488	633.653
346.533	16.640	841.175	633.211
347.548	16.549	840.763	632.501
348.562	16.505	839.807	631.565
349.577	16.485	839.329	631.073
350.592	16.454	838.583	630.341
351.606	16.587	837.866	630.241
352.621	16.567	837.051	629.500
353.635	16.620	836.785	629.440
354.650	16.703	835.752	628.915
355.665	16.654	835.360	628.381
356.679	16.688	835.179	628.315
357.694	16.700	834.521	627.812
358.708	16.692	833.582	627.020
359.723	16.569	833.298	626.296
360.738	16.697	832.853	626.378
361.752	16.911	831.716	626.260
362.767	16.838	831.053	625.434
363.781	16.940	830.757	625.533
364.796	17.039	830.373	625.555
365.810	17.137	829.800	625.426
366.825	16.899	830.003	624.647
367.840	16.954	829.616	624.505
368.854	16.992	828.630	623.845
369.869	16.932	828.601	623.547
370.883	16.961	828.192	623.292
371.898	16.999	827.840	623.110
372.913	16.994	827.174	622.536
373.927	17.030	826.450	622.070
374.942	17.165	826.030	622.193
375.956	17.058	825.727	621.516
376.971	17.230	825.317	621.784
377.986	17.274	824.553	621.314
379.000	17.225	824.390	620.955
380.015	17.167	823.946	620.355
381.029	17.339	823.210	620.374
382.044	17.430	822.526	620.136
383.059	17.218	821.708	618.690
384.073	17.252	821.607	618.683
385.088	17.309	820.698	618.151
386.102	17.274	820.183	617.582
387.117	17.257	819.400	616.875
388.132	17.047	819.313	615.995
389.146	17.276	818.592	616.228
390.161	17.416	817.935	616.185
391.175	17.397	817.427	615.681
392.190	17.225	817.365	614.955
393.205	17.336	816.580	614.711
394.219	17.206	816.491	614.120
395.234	17.294	816.008	614.024
396.248	17.163	815.761	613.309
397.263	17.139	815.322	612.838
398.278	17.301	814.394	612.670
399.292	17.138	814.342	611.987
400.307	17.174	813.848	611.693
401.321	17.397	813.156	611.922
402.336	17.424	812.543	611.502
403.350	17.405	812.242	611.154
404.365	17.550	811.768	611.263
405.380	17.432	811.425	610.530
406.394	17.494	810.867	610.277
407.409	17.577	810.341	610.125
408.423	17.571	810.284	610.007
409.438	17.730	810.039	610.337
410.453	17.730	809.529	609.899
411.467	17.662	808.785	609.039
412.482	17.904	808.318	609.498
413.496	17.733	808.339	608.849
414.511	17.862	807.478	608.606
415.526	17.858	807.320	608.420
416.540	17.825	806.814	607.866
417.555	17.719	806.664	607.323
418.569	17.811	806.150	607.209
419.584	17.951	805.493	607.158
420.599	17.840	805.104	606.419
421.613	111.165	1295.114	1475.814
422.628	95.871	1366.486	1475.875
