DTS Sentinel unit serial number:	SN413079Multiplexer serial number:	ORYXHardware model number:	OX4-SRSoftware version number:	ORYX F/W v4.00 Oryx Data Collector v3.7.2.0data status	okinstallation	princeton_trtdifferential loss correction	single-endedforward channel	channel 1reverse channel	N/Adate	2019/09/16time	17:02:35forward acquisition time	60.00reverse acquisition time	0.00gamma	496.2192k internal	0.2296k external	0.2296temperature offset calibration	0.9965default loss term (dB/km)	0.3790temperature slope calibration	1.0000multiplexer offset coefficient	1.0000multiplexer slope coefficient	1.0000fibre end	0.00T internal ref (°C)	39.25T ext. ref 1 (°C)	15.30T ext. ref 2 (°C)	33.47length (m)	temperature (°C)	Stokes	anti-Stokes-747.200	-58.529	0.104	0.046
-746.185	-200.000	-0.061	0.347
-745.171	378.725	0.104	0.218
-744.156	-200.000	-0.027	0.373
-743.142	-30.055	-0.125	0.072
-742.127	-13.037	0.300	0.199
-741.112	205.173	0.176	0.280
-740.098	59.304	-0.120	0.120
-739.083	46.521	-0.181	0.172
-738.069	0.999	-0.453	0.331
-737.054	103.980	-0.143	-0.172
-736.039	800.000	-0.035	-0.099
-735.025	51.969	-0.172	0.167
-734.010	195.405	-0.171	-0.265
-732.996	800.000	-0.032	-0.109
-731.981	277.552	0.097	0.177
-730.966	-129.027	0.217	0.031
-729.952	-97.090	0.185	0.049
-728.937	-200.000	-0.016	-0.599
-727.923	800.000	-0.115	-0.344
-726.908	-158.863	-0.356	-0.021
-725.894	82.258	-0.018	0.020
-724.879	360.746	0.193	-0.395
-723.864	800.000	-0.132	-0.433
-722.850	-151.000	0.581	0.045
-721.835	-200.000	-0.028	0.129
-720.821	-154.213	0.194	0.013
-719.806	82.140	-0.274	-0.303
-718.791	-36.668	0.208	0.114
-717.777	49.682	0.266	-0.256
-716.762	476.106	0.027	0.063
-715.748	-35.753	0.271	-0.150
-714.733	353.536	-0.118	0.239
-713.718	-200.000	0.040	-0.187
-712.704	-92.923	-0.309	-0.088
-711.689	31.792	0.076	0.066
-710.675	-127.360	-0.267	0.040
-709.660	-200.000	0.022	0.308
-708.645	-4.837	-0.069	0.048
-707.631	235.976	-0.099	-0.167
-706.616	-12.363	0.309	0.206
-705.602	48.323	-0.099	0.094
-704.587	-200.000	0.063	0.306
-703.572	136.501	0.146	0.194
-702.558	87.785	-0.123	0.140
-701.543	-139.791	0.229	0.025
-700.529	106.988	-0.065	0.079
-699.514	-91.673	-0.355	0.103
-698.499	576.649	0.050	-0.124
-697.485	-75.391	-0.184	0.067
-696.470	-71.271	-0.344	0.131
-695.456	-173.568	0.261	-0.008
-694.441	56.494	0.186	-0.185
-693.426	-50.332	0.151	0.073
-692.412	800.000	-0.085	-0.246
-691.397	-200.000	0.006	-0.241
-690.383	34.437	-0.169	-0.150
-689.368	-27.403	-0.205	0.122
-688.354	-38.849	-0.117	0.063
-687.339	74.923	-0.056	0.061
-686.324	445.254	0.046	0.103
-685.310	800.000	-0.095	0.278
-684.295	-200.000	-0.031	-0.184
-683.281	330.932	0.178	-0.350
-682.266	-69.941	-0.122	-0.047
-681.251	19.916	0.156	0.128
-680.237	690.666	-0.222	-0.591
-679.222	91.162	-0.163	0.187
-678.208	28.175	0.122	-0.105
-677.193	-200.000	0.034	-0.000
-676.178	160.528	0.152	0.216
-675.164	410.330	0.098	-0.212
-674.149	-56.251	-0.173	0.078
-673.135	39.345	0.188	-0.171
-672.120	-79.841	0.183	0.063
-671.105	-200.000	0.015	-0.203
-670.091	-126.670	-0.415	-0.063
-669.076	81.114	-0.022	0.024
-668.062	127.420	0.179	-0.232
-667.047	-193.261	-0.250	0.002
-666.032	374.201	0.124	-0.257
-665.018	-200.000	0.028	0.229
-664.003	146.813	0.137	0.188
-662.989	50.408	0.136	-0.131
-661.974	52.986	-0.065	-0.063
-660.959	-98.545	0.107	0.028
-659.945	-200.000	-0.067	-0.300
-658.930	-78.928	-0.258	-0.089
-657.916	-97.885	0.176	-0.046
-656.901	-200.000	0.014	0.167
-655.886	128.351	0.199	0.258
-654.872	-120.617	-0.427	-0.074
-653.857	-174.229	0.428	0.013
-652.843	800.000	-0.068	0.263
-651.828	-92.225	0.312	0.090
-650.814	-19.539	0.272	-0.171
-649.799	-85.042	0.310	0.099
-648.784	-90.719	-0.087	0.026
-647.770	432.900	-0.148	-0.327
-646.755	-200.000	-0.012	-0.241
-645.741	-105.243	0.189	0.044
-644.726	558.401	0.046	-0.114
-643.711	-145.322	-0.214	-0.020
-642.697	800.000	-0.012	-0.047
-641.682	81.541	-0.161	0.177
-640.668	49.162	0.146	0.139
-639.653	-43.404	-0.258	-0.132
-638.638	316.641	-0.124	0.238
-637.624	800.000	0.099	0.368
-636.609	526.419	-0.142	0.340
-635.595	317.206	-0.152	0.293
-634.580	-7.199	0.145	0.100
-633.565	-38.315	0.052	-0.028
-632.551	-129.646	0.391	-0.055
-631.536	-62.006	0.121	0.052
-630.522	-75.520	0.163	0.059
-629.507	180.516	0.111	0.165
-628.492	596.214	-0.079	-0.198
-627.478	-131.001	0.241	-0.033
-626.463	170.119	0.220	-0.320
-625.449	-75.373	-0.053	0.019
-624.434	84.390	-0.364	0.404
-623.419	330.925	0.103	0.201
-622.405	335.462	-0.095	-0.188
-621.390	800.000	0.038	-0.108
-620.376	-8.860	-0.177	0.121
-619.361	776.534	0.062	-0.171
-618.346	123.744	0.164	-0.209
-617.332	3.508	-0.220	-0.163
-616.317	-73.889	0.135	0.050
-615.303	80.780	0.067	-0.074
-614.288	-93.008	-0.164	0.047
-613.273	-200.000	-0.008	0.342
-612.259	609.197	0.071	-0.179
-611.244	800.000	0.074	0.247
-610.230	800.000	0.071	0.200
-609.215	-32.658	0.187	-0.106
-608.201	74.451	-0.108	-0.116
-607.186	128.931	-0.190	-0.246
-606.171	-74.640	-0.341	-0.125
-605.157	-90.211	0.220	-0.065
-604.142	800.000	-0.098	-0.334
-603.128	217.194	-0.131	-0.213
-602.113	49.852	0.099	-0.095
-601.098	775.744	0.137	0.379
-600.084	800.000	-0.070	0.220
-599.069	703.347	0.101	-0.270
-598.055	-200.000	-0.241	-0.001
-597.040	154.966	0.136	-0.190
-596.025	-200.000	-0.014	-0.233
-595.011	601.821	-0.055	-0.139
-593.996	197.701	-0.177	0.275
-592.982	-130.841	0.057	-0.008
-591.967	-75.303	0.037	-0.013
-590.952	2.097	-0.028	0.021
-589.938	11.507	-0.103	-0.080
-588.923	800.000	0.028	-0.122
-587.909	-200.000	-0.026	0.194
-586.894	-80.456	-0.111	-0.038
-585.879	144.089	-0.260	-0.353
-584.865	92.979	-0.196	-0.225
-583.850	-200.000	0.042	-0.225
-582.836	30.353	0.286	0.248
-581.821	158.254	0.097	0.136
-580.806	33.316	-0.157	-0.139
-579.792	360.843	-0.035	0.071
-578.777	31.935	0.174	-0.152
-577.763	-65.617	0.343	0.140
-576.748	-123.123	0.253	0.041
-575.733	29.793	0.318	0.275
-574.719	-200.000	0.040	-0.353
-573.704	583.256	-0.108	-0.268
-572.690	223.800	-0.114	-0.187
-571.675	389.803	0.098	0.205
-570.661	188.874	-0.135	-0.205
-569.646	-177.720	-0.303	0.007
-568.631	198.273	-0.157	-0.244
-567.617	271.895	-0.163	-0.292
-566.602	100.435	-0.327	0.385
-565.588	187.823	0.094	-0.142
-564.573	-121.516	-0.071	-0.012
-563.558	-200.000	-0.003	0.228
-562.544	-11.239	-0.251	0.168
-561.529	-200.000	0.050	0.230
-560.515	-92.702	-0.162	-0.046
-559.500	20.349	0.106	-0.087
-558.485	800.000	-0.086	-0.316
-557.471	-200.000	0.021	-0.136
-556.456	800.000	-0.057	-0.225
-555.442	-200.000	0.030	0.157
-554.427	-200.000	-0.038	-0.482
-553.412	-49.517	-0.261	-0.126
-552.398	520.669	0.068	-0.161
-551.383	-33.891	-0.138	0.077
-550.369	-94.986	-0.167	0.046
-549.354	155.891	-0.160	0.224
-548.339	800.000	-0.055	0.189
-547.325	-200.000	-0.052	-0.275
-546.310	124.833	0.041	-0.052
-545.296	-200.000	-0.029	-0.163
-544.281	-200.000	0.021	-0.103
-543.266	175.770	0.061	-0.089
-542.252	-54.313	-0.221	0.102
-541.237	800.000	-0.076	0.237
-540.223	-200.000	0.040	0.283
-539.208	112.721	-0.314	-0.385
-538.193	122.331	0.180	-0.228
-537.179	215.544	-0.239	-0.384
-536.164	-94.386	-0.154	0.042
-535.150	177.522	-0.071	-0.104
-534.135	15.762	0.291	-0.232
-533.121	154.242	0.264	-0.367
-532.106	-24.509	-0.128	-0.077
-531.091	-200.000	0.020	0.261
-530.077	-155.748	-0.285	-0.019
-529.062	-32.652	0.094	0.053
-528.048	-200.000	0.021	-0.343
-527.033	-15.773	-0.139	-0.090
-526.018	-122.949	0.274	0.045
-525.004	-91.355	0.069	0.020
-523.989	767.432	0.072	0.199
-522.975	-191.222	0.342	-0.004
-521.960	-200.000	-0.038	0.243
-520.945	-91.310	-0.279	0.081
-519.931	-147.088	-0.412	0.036
-518.916	173.751	-0.103	0.151
-517.902	-57.969	0.242	0.107
-516.887	-75.357	0.050	-0.018
-515.872	-32.256	0.248	-0.140
-514.858	0.938	0.180	0.131
-513.843	69.790	-0.143	0.150
-512.829	648.436	-0.085	-0.220
-511.814	-180.741	-0.153	0.003
-510.799	80.672	0.171	0.187
-509.785	36.459	0.133	-0.118
-508.770	-15.967	0.121	-0.078
-507.756	800.000	0.069	-0.199
-506.741	40.408	0.067	-0.061
-505.726	-0.809	-0.306	-0.219
-504.712	800.000	-0.051	0.143
-503.697	300.499	0.053	-0.099
-502.683	-59.506	-0.293	0.127
-501.668	-95.881	-0.083	0.022
-500.653	-104.261	0.143	-0.034
-499.639	478.422	-0.049	0.111
-498.624	10.496	-0.179	0.138
-497.610	-17.397	-0.223	0.142
-496.595	800.000	0.062	0.234
-495.581	-114.931	0.280	0.054
-494.566	-69.817	0.169	0.065
-493.551	-106.713	-0.218	0.049
-492.537	-164.825	0.066	0.003
-491.522	800.000	-0.083	-0.250
-490.508	800.000	-0.121	-0.362
-489.493	168.870	-0.084	-0.121
-488.478	-100.683	0.200	0.050
-487.464	294.237	-0.079	0.146
-486.449	160.903	-0.060	0.084
-485.435	-79.462	-0.103	0.035
-484.420	-104.631	0.169	0.039
-483.405	39.953	-0.075	-0.068
-482.391	-4.129	-0.185	0.130
-481.376	-84.639	0.141	-0.045
-480.362	-78.060	-0.145	-0.051
-479.347	-121.798	-0.239	0.040
-478.332	-107.778	-0.063	-0.014
-477.318	-200.000	0.012	-0.081
-476.303	106.108	-0.140	-0.167
-475.289	65.335	-0.166	0.170
-474.274	-92.736	0.123	-0.035
-473.259	-0.560	0.056	-0.040
-472.245	204.495	0.114	0.178
-471.230	42.790	0.174	0.160
-470.216	100.637	0.162	0.190
-469.201	23.888	0.141	-0.117
-468.186	132.283	0.140	0.182
-467.172	184.978	-0.119	-0.178
-466.157	-62.668	0.149	0.063
-465.143	475.747	0.123	0.281
-464.128	170.441	-0.105	0.151
-463.113	-35.944	0.087	0.047
-462.099	800.000	0.118	0.367
-461.084	-200.000	0.022	-0.124
-460.070	-102.120	-0.010	0.002
-459.055	164.190	-0.206	0.293
-458.040	233.594	-0.053	0.088
-457.026	-157.680	0.161	0.010
-456.011	-200.000	-0.124	0.001
-454.997	-135.159	0.226	-0.027
-453.982	43.301	0.084	-0.078
-452.968	-91.508	0.156	0.045
-451.953	-60.982	-0.157	0.067
-450.938	-73.041	-0.384	0.142
-449.924	-200.000	0.043	0.383
-448.909	167.862	0.136	0.196
-447.895	70.667	0.116	0.121
-446.880	800.000	-0.111	0.312
-445.865	34.913	-0.160	-0.141
-444.851	-3.928	-0.258	-0.181
-443.836	-43.715	-0.233	-0.119
-442.822	800.000	-0.006	-0.023
-441.807	56.195	-0.031	0.030
-440.792	0.912	-0.211	0.153
-439.778	-86.556	0.148	0.046
-438.763	-26.247	-0.196	0.116
-437.749	268.293	0.038	0.068
-436.734	-65.827	-0.309	-0.125
-435.719	-200.000	0.035	0.246
-434.705	-41.025	0.029	0.015
-433.690	272.444	-0.119	0.211
-432.676	56.335	-0.118	-0.116
-431.661	86.787	0.218	-0.243
-430.646	-27.613	0.098	-0.057
-429.632	-97.000	0.090	-0.024
-428.617	-131.710	-0.113	0.015
-427.603	-200.000	0.023	-0.164
-426.588	-200.000	0.065	0.343
-425.573	-50.786	0.249	0.118
-424.559	30.254	0.094	0.081
-423.544	-139.713	-0.231	-0.025
-422.530	-45.847	-0.137	0.068
-421.515	-50.930	-0.129	-0.061
-420.500	3.223	-0.206	0.151
-419.486	17.737	0.232	-0.187
-418.471	800.000	0.098	0.314
-417.457	381.920	-0.064	0.132
-416.442	-200.000	-0.055	0.285
-415.428	800.000	-0.103	0.392
-414.413	-15.854	-0.158	-0.102
-413.398	-200.000	-0.013	0.107
-412.384	-200.000	0.021	-0.113
-411.369	-191.733	-0.433	0.004
-410.355	-92.286	-0.191	-0.054
-409.340	153.738	0.122	-0.169
-408.325	-200.000	-0.006	0.199
-407.311	58.966	0.107	-0.106
-406.296	-44.080	0.262	0.133
-405.282	800.000	-0.045	-0.133
-404.267	-144.748	0.388	0.036
-403.252	-148.244	0.253	-0.021
-402.238	-200.000	-0.023	0.146
-401.223	-96.756	-0.205	-0.054
-400.209	-172.811	-0.034	0.001
-399.194	76.858	0.182	0.195
-398.179	-139.536	0.206	-0.022
-397.165	-62.954	-0.199	0.083
-396.150	-200.000	-0.021	0.179
-395.136	33.966	-0.055	-0.048
-394.121	9.964	-0.181	0.138
-393.106	-83.133	0.178	0.058
-392.092	386.532	0.130	0.270
-391.077	-160.079	-0.157	0.009
-390.063	133.915	-0.067	-0.087
-389.048	-117.766	0.161	0.029
-388.033	124.229	-0.266	-0.337
-387.019	8.860	0.361	-0.274
-386.004	-104.180	0.162	-0.038
-384.990	390.041	0.022	-0.046
-383.975	-151.257	0.155	-0.012
-382.960	-20.100	0.218	0.135
-381.946	-17.117	0.186	-0.118
-380.931	-200.000	0.006	-0.196
-379.917	-110.328	-0.055	0.011
-378.902	24.596	-0.176	-0.147
-377.888	-26.166	-0.223	0.132
-376.873	-2.142	0.114	0.081
-375.858	72.775	0.190	-0.199
-374.844	-200.000	0.019	0.101
-373.829	-200.000	0.003	0.184
-372.815	-195.259	-0.277	0.002
-371.800	188.964	0.157	0.237
-370.785	800.000	-0.054	-0.153
-369.771	-22.008	-0.096	0.059
-368.756	308.275	-0.197	-0.369
-367.742	-200.000	-0.004	0.155
-366.727	433.382	0.020	0.044
-365.712	783.483	0.046	0.127
-364.698	-200.000	-0.044	-0.257
-363.683	800.000	-0.076	0.326
-362.669	11.398	-0.241	0.185
-361.654	800.000	-0.089	0.300
-360.639	114.939	0.079	-0.097
-359.625	-200.000	-0.029	0.374
-358.610	-28.731	0.083	0.048
-357.596	800.000	0.113	-0.379
-356.581	-200.000	0.012	-0.128
-355.566	-7.620	-0.242	-0.165
-354.552	102.248	0.173	-0.204
-353.537	-27.927	0.102	0.059
-352.523	-41.535	-0.186	-0.096
-351.508	-200.000	0.026	-0.292
-350.493	-74.605	0.094	-0.034
-349.479	-61.562	0.326	-0.138
-348.464	198.912	-0.118	-0.181
-347.450	-51.834	0.266	-0.124
-346.435	-17.382	0.104	-0.066
-345.420	77.061	0.225	0.241
-344.406	800.000	0.083	-0.254
-343.391	-25.494	-0.052	-0.031
-342.377	1.112	0.204	0.147
-341.362	-134.087	-0.266	-0.033
-340.348	-169.655	0.333	-0.012
-339.333	-197.740	-0.298	0.002
-338.318	-200.000	-0.019	0.458
-337.304	-149.073	0.137	-0.011
-336.289	-42.222	0.080	-0.041
-335.275	133.541	-0.176	-0.228
-334.260	18.437	-0.079	0.064
-333.245	103.469	0.138	0.163
-332.231	800.000	0.013	-0.055
-331.216	-34.342	0.179	-0.099
-330.202	196.550	-0.063	0.097
-329.187	-32.556	0.196	0.110
-328.172	800.000	0.031	-0.124
-327.158	96.424	0.303	0.349
-326.143	800.000	0.062	0.197
-325.129	15.248	-0.075	0.059
-324.114	-200.000	-0.043	0.410
-323.099	788.553	-0.101	-0.279
-322.085	150.031	-0.126	0.172
-321.070	-85.922	-0.184	0.057
-320.056	94.713	0.143	0.163
-319.041	204.579	-0.067	0.105
-318.026	-200.000	0.015	-0.102
-317.012	-10.719	-0.202	-0.134
-315.997	-85.623	-0.382	0.119
-314.983	-200.000	0.039	-0.260
-313.968	-12.333	0.010	-0.007
-312.953	123.044	0.113	0.142
-311.939	800.000	-0.094	0.318
-310.924	15.522	0.151	-0.119
-309.910	80.495	0.056	0.061
-308.895	-92.532	0.178	0.050
-307.880	800.000	0.060	0.177
-306.866	-93.238	-0.111	-0.031
-305.851	-1.673	-0.173	0.123
-304.837	26.747	0.243	-0.205
-303.822	-200.000	0.027	0.268
-302.807	-200.000	0.057	0.344
-301.793	-139.147	-0.209	-0.023
-300.778	-55.609	0.476	0.214
-299.764	39.944	-0.038	-0.034
-298.749	53.728	0.212	-0.205
-297.735	115.178	-0.095	0.117
-296.720	-200.000	0.003	-0.040
-295.705	507.950	-0.146	0.341
-294.691	-146.882	0.226	-0.020
-293.676	-117.873	-0.211	0.038
-292.662	-83.820	-0.244	0.078
-291.647	97.557	0.109	0.126
-290.632	-74.642	-0.095	-0.034
-289.618	800.000	-0.034	0.112
-288.603	-10.903	0.068	-0.045
-287.589	-200.000	-0.008	-0.203
-286.574	-97.136	0.291	-0.076
-285.559	-142.627	0.150	0.015
-284.545	-200.000	0.042	-0.232
-283.530	127.797	-0.116	-0.148
-282.516	-200.000	-0.007	0.075
-281.501	-200.000	0.040	-0.187
-280.486	-111.707	-0.289	0.059
-279.472	695.968	0.066	-0.173
-278.457	-200.000	0.004	0.034
-277.443	-176.803	-0.152	0.004
-276.428	-0.565	-0.183	0.130
-275.413	-4.531	-0.251	-0.174
-274.399	133.325	-0.173	-0.224
-273.384	-9.221	-0.223	-0.150
-272.370	-200.000	-0.182	0.000
-271.355	-35.564	0.201	-0.109
-270.340	201.662	0.064	-0.099
-269.326	191.355	-0.111	0.168
-268.311	736.265	-0.145	0.389
-267.297	-200.000	-0.043	-0.456
-266.282	386.739	-0.075	-0.155
-265.267	800.000	0.064	-0.211
-264.253	411.478	0.146	0.310
-263.238	800.000	-0.033	0.113
-262.224	14.270	-0.178	0.139
-261.209	-161.610	-0.268	-0.014
-260.195	-81.437	0.153	-0.050
-259.180	192.826	0.134	-0.203
-258.165	307.734	0.128	-0.239
-257.151	257.409	0.124	0.214
-256.136	5.144	-0.267	0.198
-255.122	11.176	0.204	0.156
-254.107	221.077	-0.102	-0.164
-253.092	-39.106	0.368	0.194
-252.078	382.817	0.083	0.171
-251.063	-200.000	-0.000	-0.066
-250.049	-200.000	-0.032	-0.157
-249.034	-200.000	-0.031	-0.193
-248.019	275.005	0.029	-0.051
-247.005	800.000	-0.041	-0.151
-245.990	-166.183	-0.184	-0.008
-244.976	-200.000	0.013	-0.126
-243.961	-100.645	0.387	-0.096
-242.946	154.584	-0.101	-0.139
-241.932	779.253	-0.034	0.093
-240.917	-118.490	0.169	0.030
-239.903	206.641	-0.200	-0.312
-238.888	39.173	-0.254	0.228
-237.873	-115.345	0.174	0.033
-236.859	-10.361	-0.047	-0.031
-235.844	-107.722	-0.287	0.063
-234.830	70.356	-0.339	0.351
-233.815	-166.714	0.209	0.009
-232.800	60.865	0.133	-0.132
-231.786	168.437	-0.058	-0.082
-230.771	188.119	0.158	0.237
-229.757	-100.577	0.346	0.086
-228.742	-14.789	-0.225	-0.144
-227.727	-69.055	-0.277	0.107
-226.713	164.115	-0.075	-0.105
-225.698	94.226	-0.332	-0.378
-224.684	-200.000	-0.008	0.053
-223.669	7.540	-0.056	-0.042
-222.655	52.705	-0.185	0.177
-221.640	-140.923	-0.109	0.011
-220.625	-82.533	0.377	0.123
-219.611	-200.000	0.018	-0.139
-218.596	100.792	0.198	-0.230
-217.582	-200.000	0.068	0.390
-216.567	446.326	0.142	-0.313
-215.552	-55.155	-0.080	-0.036
-214.538	-125.850	0.111	-0.017
-213.523	-27.496	0.115	0.067
-212.509	79.458	-0.133	-0.143
-211.494	43.253	-0.207	-0.189
-210.479	261.745	0.032	-0.055
-209.465	-69.135	0.123	0.047
-208.450	-42.928	0.055	-0.028
-207.436	199.526	-0.181	0.278
-206.421	167.773	0.074	-0.105
-205.406	103.664	0.102	0.120
-204.392	-130.853	-0.252	-0.034
-203.377	-154.616	0.135	-0.009
-202.363	656.526	0.072	-0.185
-201.348	22.136	0.312	0.255
-200.333	33.435	0.072	0.063
-199.319	-114.940	0.144	0.027
-198.304	159.251	-0.115	0.160
-197.290	-98.094	-0.015	-0.004
-196.275	297.256	0.050	0.091
-195.260	-200.000	-0.035	-0.192
-194.246	-80.796	-0.253	-0.084
-193.231	64.681	0.322	-0.325
-192.217	-94.869	0.272	0.074
-191.202	800.000	0.101	-0.317
-190.187	121.427	-0.167	-0.208
-189.173	-81.968	0.116	0.038
-188.158	216.742	0.084	0.134
-187.144	-81.122	0.326	0.108
-186.129	624.109	-0.110	0.276
-185.114	69.813	-0.171	0.177
-184.100	194.481	-0.089	0.136
-183.085	129.632	-0.078	-0.100
-182.071	800.000	-0.049	-0.144
-181.056	-71.053	0.403	-0.152
-180.042	-4.441	0.278	-0.192
-179.027	800.000	0.075	-0.251
-178.012	91.508	0.046	-0.051
-176.998	120.567	-0.042	-0.052
-175.983	-200.000	0.259	0.000
-174.969	-200.000	-0.032	-0.323
-173.954	222.836	-0.088	-0.141
-172.939	-70.810	0.158	0.059
-171.925	800.000	-0.082	-0.321
-170.910	148.748	-0.054	-0.073
-169.896	420.991	-0.172	-0.367
-168.881	-200.000	0.048	0.298
-167.866	53.950	0.089	0.085
-166.852	-183.823	0.134	0.002
-165.837	-102.990	-0.197	-0.047
-164.823	9.423	0.091	-0.069
-163.808	-116.085	0.425	-0.079
-162.793	-80.633	-0.312	-0.104
-161.779	-120.168	0.191	-0.033
-160.764	18.922	0.261	0.209
-159.750	0.748	-0.041	0.029
-158.735	81.801	0.102	-0.110
-157.720	-145.264	0.277	-0.025
-156.706	-8.005	-0.202	0.136
-155.691	223.794	0.168	0.271
-154.677	-160.524	-0.058	-0.003
-153.662	-147.474	0.155	0.013
-152.647	137.270	-0.187	-0.244
-151.633	-65.883	0.375	0.150
-150.618	100.304	0.273	0.316
-149.604	-44.556	0.314	-0.157
-148.589	-172.999	0.206	-0.006
-147.574	47.639	0.161	0.150
-146.560	800.000	0.086	0.347
-145.545	-80.384	0.261	-0.087
-144.531	-115.743	0.111	0.021
-143.516	-200.000	-0.030	0.232
-142.502	-200.000	0.038	0.217
-141.487	119.410	-0.223	-0.276
-140.472	-99.358	0.064	-0.016
-139.458	72.608	0.149	-0.155
-138.443	-121.462	0.082	0.014
-137.429	800.000	0.036	0.127
-136.414	-200.000	-0.003	-0.052
-135.399	-200.000	-0.024	-0.151
-134.385	800.000	0.078	-0.317
-133.370	-19.282	-0.146	-0.090
-132.356	-44.914	-0.110	-0.055
-131.341	-175.425	-0.229	0.006
-130.326	-10.240	-0.084	0.055
-129.312	105.931	-0.074	-0.087
-128.297	800.000	-0.041	-0.158
-127.283	-7.705	0.131	0.089
-126.268	-200.000	-0.023	0.266
-125.253	-200.000	0.015	0.069
-124.239	-4.214	-0.171	0.118
-123.224	195.260	0.257	-0.389
-122.210	-65.397	0.194	0.078
-121.195	-200.000	-0.020	-0.231
-120.180	-43.136	0.178	0.090
-119.166	557.762	0.049	0.118
-118.151	-67.646	-0.132	-0.052
-117.137	-93.777	0.328	-0.090
-116.122	34.984	0.060	-0.052
-115.107	800.000	-0.100	-0.311
-114.093	128.128	0.161	-0.204
-113.078	325.374	-0.045	-0.085
-112.064	-88.106	-0.280	-0.084
-111.049	-94.048	0.105	0.029
-110.034	-200.000	-0.005	0.067
-109.020	85.428	0.300	-0.328
-108.005	17.352	-0.347	0.275
-106.991	391.125	-0.159	0.330
-105.976	-200.000	-0.017	0.314
-104.962	800.000	0.080	0.295
-103.947	-200.000	-0.061	-0.000
-102.932	-155.045	-0.046	0.003
-101.918	-155.167	0.209	-0.014
-100.903	-44.019	0.145	0.073
-99.889	-39.922	-0.117	-0.061
-98.874	161.118	0.140	-0.195
-97.859	-200.000	0.074	0.440
-96.845	-151.448	-0.297	0.022
-95.830	-200.000	-0.022	0.154
-94.816	-63.898	0.142	0.058
-93.801	-56.797	0.053	-0.023
-92.786	363.671	-0.054	-0.108
-91.772	-23.105	-0.036	0.022
-90.757	-54.919	0.067	0.030
-89.743	-28.626	0.190	-0.109
-88.728	-162.723	0.186	0.009
-87.713	5.651	-0.376	0.277
-86.699	800.000	0.013	0.050
-85.684	-154.229	-0.273	-0.018
-84.670	313.319	0.163	0.305
-83.655	-200.000	0.013	0.122
-82.640	-30.055	0.213	0.121
-81.626	-148.795	0.115	0.009
-80.611	-79.742	0.146	-0.049
-79.597	-200.000	0.004	-0.168
-78.582	315.332	-0.052	0.097
-77.567	-103.613	0.236	-0.055
-76.553	-123.136	-0.047	-0.008
-75.538	209.202	-0.107	-0.166
-74.524	78.682	0.198	-0.211
-73.509	-163.136	0.109	0.005
-72.494	-51.560	-0.231	-0.107
-71.480	-45.564	0.283	-0.140
-70.465	333.704	-0.051	0.099
-69.451	-4.328	0.208	0.144
-68.436	-158.610	0.207	0.012
-67.422	-144.102	-0.223	0.021
-66.407	-18.608	-0.134	0.083
-65.392	-36.413	0.248	-0.133
-64.378	-200.000	-0.007	-0.047
-63.363	361.793	-0.171	0.342
-62.349	49.958	-0.128	0.120
-61.334	-35.427	-0.892	-0.482
-60.319	342.880	0.246	0.480
-59.305	-200.000	-0.132	-0.831
-58.290	120.713	0.648	0.801
-57.276	210.471	0.868	1.356
-56.261	-200.000	81.916	515.313
-55.246	520.997	1332.202	3107.933
-54.232	151.520	2545.345	3447.725
-53.217	113.927	2216.065	2679.577
-52.203	50.334	1673.591	1572.772
-51.188	42.675	1406.687	1273.622
-50.173	39.298	1362.582	1212.866
-49.159	57.330	1402.926	1361.763
-48.144	62.903	1422.091	1415.112
-47.130	43.207	1381.050	1253.516
-46.115	39.292	1364.362	1214.221
-45.100	39.248	1359.492	1209.571
-44.086	39.116	1356.926	1206.426
-43.071	39.071	1354.511	1203.957
-42.057	39.051	1353.009	1202.450
-41.042	39.143	1351.207	1201.366
-40.027	39.115	1349.737	1199.839
-39.013	39.044	1347.913	1197.735
-37.998	39.166	1345.921	1196.665
-36.984	39.198	1344.466	1195.514
-35.969	39.277	1342.417	1194.123
-34.954	39.356	1340.509	1192.862
-33.940	39.310	1339.191	1191.362
-32.925	39.177	1338.538	1189.926
-31.911	39.419	1336.550	1189.577
-30.896	39.312	1334.854	1187.374
-29.881	39.358	1333.826	1186.691
-28.867	39.401	1332.046	1185.321
-27.852	39.487	1330.050	1184.013
-26.838	39.402	1328.988	1182.512
-25.823	39.325	1327.424	1180.608
-24.809	39.336	1325.912	1179.281
-23.794	39.329	1324.633	1178.054
-22.779	39.338	1323.549	1177.099
-21.765	39.203	1322.343	1175.175
-20.750	39.338	1320.553	1174.339
-19.736	39.278	1319.721	1173.198
-18.721	39.139	1318.567	1171.297
-17.706	39.240	1317.350	1170.769
-16.692	39.169	1315.958	1169.065
-15.677	39.179	1315.145	1168.355
-14.663	39.150	1314.207	1167.301
-13.648	39.171	1313.295	1166.573
-12.633	39.277	1311.993	1165.995
-11.619	39.229	1310.609	1164.436
-10.604	39.219	1309.820	1163.633
-9.590	39.251	1309.075	1163.114
-8.575	39.212	1308.487	1162.310
-7.560	39.126	1307.713	1161.071
-6.546	39.139	1306.538	1160.058
-5.531	39.198	1305.318	1159.276
-4.517	39.233	1304.859	1159.032
-3.502	39.242	1303.850	1158.142
-2.487	39.170	1302.637	1156.595
-1.473	39.219	1298.342	1153.019
-0.458	37.561	1283.066	1129.792
0.556	31.840	1262.694	1084.429
1.571	27.216	1265.911	1060.206
2.586	25.881	1280.120	1064.134
3.600	25.244	1270.738	1052.505
4.615	22.748	1202.663	982.159
5.629	18.235	1129.532	898.707
6.644	15.515	1108.966	868.219
7.659	15.301	1106.677	865.248
8.673	15.280	1105.035	863.779
9.688	15.095	1103.911	861.869
10.702	15.508	1102.690	862.967
11.717	18.391	1105.853	880.202
12.731	21.158	1109.368	897.163
13.746	19.968	1106.298	888.497
14.761	17.826	1102.354	874.289
15.775	16.432	1100.803	865.841
16.790	15.514	1097.764	858.684
17.804	14.615	1096.580	853.091
18.819	14.083	1095.511	849.464
19.834	13.843	1094.332	847.249
20.848	13.684	1093.142	845.441
21.863	13.306	1092.273	842.769
22.877	13.153	1091.829	841.572
23.892	13.212	1090.765	840.979
24.907	13.286	1089.876	840.595
25.921	13.285	1089.000	839.842
26.936	13.250	1087.826	838.683
27.950	13.357	1085.865	837.640
28.965	13.362	1084.521	836.552
29.980	13.496	1082.569	835.651
30.994	13.468	1081.787	834.833
32.009	13.599	1080.362	834.318
33.023	13.425	1079.424	832.642
34.038	13.501	1078.047	831.887
35.053	13.394	1077.824	831.109
36.067	13.362	1076.652	829.969
37.082	13.426	1075.700	829.482
38.096	13.450	1075.036	829.014
39.111	13.383	1074.075	827.869
40.126	13.336	1072.936	826.683
41.140	13.205	1071.664	824.976
42.155	13.281	1070.397	824.305
43.169	13.130	1069.535	822.816
44.184	13.084	1068.717	821.886
45.199	13.142	1067.565	821.214
46.213	13.214	1066.282	820.515
47.228	13.290	1065.086	819.895
48.242	13.371	1064.257	819.588
49.257	13.261	1063.028	818.024
50.271	13.359	1062.592	818.103
51.286	13.318	1061.213	816.762
52.301	13.337	1060.329	816.107
53.315	13.414	1058.952	815.351
54.330	13.243	1058.149	813.819
55.344	13.304	1057.355	813.439
56.359	13.308	1056.136	812.445
57.374	13.260	1055.711	811.811
58.388	13.159	1054.815	810.555
59.403	13.151	1053.616	809.526
60.417	13.038	1053.164	808.550
61.432	13.182	1051.911	808.226
62.447	13.093	1051.276	807.227
63.461	13.215	1050.360	807.050
64.476	13.070	1049.730	805.786
65.490	13.131	1048.763	805.272
66.505	13.174	1047.962	804.795
67.520	13.097	1047.251	803.802
68.534	13.146	1046.625	803.490
69.549	13.133	1045.886	802.786
70.563	13.175	1045.086	802.308
71.578	13.065	1044.369	801.151
72.593	12.991	1043.643	800.163
73.607	13.077	1042.648	799.744
74.622	13.083	1042.076	799.268
75.636	13.046	1041.105	798.272
76.651	13.053	1040.355	797.659
77.666	13.090	1039.863	797.391
78.680	13.010	1039.379	796.560
79.695	13.143	1038.782	796.675
80.709	13.106	1038.283	796.046
81.724	13.305	1036.952	795.911
82.739	13.330	1036.390	795.530
83.753	13.315	1035.838	794.962
84.768	13.434	1034.793	794.664
85.782	13.452	1034.006	794.075
86.797	13.488	1032.823	793.267
87.812	13.322	1032.269	791.977
88.826	13.284	1031.049	790.792
89.841	13.354	1029.632	789.970
90.855	13.481	1028.949	789.981
91.870	13.406	1028.711	789.371
92.884	13.478	1027.347	788.594
93.899	13.395	1027.014	787.876
94.914	13.496	1025.639	787.230
95.928	13.475	1025.175	786.708
96.943	13.432	1024.297	785.760
97.957	13.322	1023.006	784.175
98.972	13.389	1022.502	784.038
99.987	13.351	1021.830	783.274
101.001	13.443	1020.517	782.631
102.016	13.337	1019.372	781.187
103.030	13.347	1019.376	781.166
104.045	13.439	1018.204	780.633
105.060	13.397	1016.975	779.422
106.074	13.265	1016.694	778.516
107.089	13.324	1015.141	777.536
108.103	13.177	1014.401	776.213
109.118	13.370	1013.181	776.116
110.133	13.276	1012.359	774.975
111.147	13.248	1011.527	774.138
112.162	13.364	1010.635	773.931
113.176	13.314	1010.151	773.258
114.191	13.333	1009.349	772.665
115.206	13.275	1008.665	771.802
116.220	13.283	1007.430	770.827
117.235	13.381	1006.351	770.387
118.249	13.210	1005.738	769.056
119.264	13.289	1005.169	768.921
120.279	13.433	1004.066	768.678
121.293	13.376	1003.232	767.704
122.308	13.305	1002.518	766.762
123.322	13.168	1002.007	765.670
124.337	13.272	1000.500	764.929
125.352	13.263	999.371	763.958
126.366	13.308	998.359	763.324
127.381	13.321	997.533	762.684
128.395	13.349	996.482	761.944
129.410	13.327	995.562	761.070
130.424	13.367	994.905	760.684
131.439	13.393	993.723	759.832
132.454	13.507	993.207	759.894
133.468	13.412	992.843	759.112
134.483	13.525	991.357	758.427
135.497	13.468	990.921	757.764
136.512	13.547	989.719	757.142
137.527	13.466	989.194	756.300
138.541	13.530	988.202	755.768
139.556	13.451	987.849	755.070
140.570	13.591	987.280	755.208
141.585	13.613	986.205	754.420
142.600	13.658	985.252	753.828
143.614	13.636	984.554	753.126
144.629	13.608	983.847	752.392
145.643	13.529	982.658	751.059
146.658	13.553	981.599	750.294
147.673	13.373	980.925	748.897
148.687	13.390	979.713	747.983
149.702	13.398	979.291	747.630
150.716	13.396	978.384	746.862
151.731	13.469	977.644	746.561
152.746	13.463	976.882	745.884
153.760	13.471	975.994	745.177
154.775	13.511	975.657	745.035
155.789	13.566	974.490	744.325
156.804	13.673	973.745	744.166
157.819	13.736	972.997	743.815
158.833	13.723	972.302	743.157
159.848	13.829	971.272	742.782
160.862	13.665	970.945	741.732
161.877	13.684	969.686	740.786
162.892	13.479	968.942	739.238
163.906	13.559	967.685	738.569
164.921	13.615	967.004	738.235
165.935	13.669	965.834	737.516
166.950	13.542	965.346	736.514
167.964	13.537	964.569	735.834
168.979	13.580	963.734	735.321
169.994	13.590	962.758	734.556
171.008	13.759	961.639	734.386
172.023	13.789	961.322	734.211
173.037	13.758	960.535	733.411
174.052	13.768	959.636	732.704
175.067	13.602	959.239	731.602
176.081	13.585	958.276	730.726
177.096	13.613	957.860	730.468
178.110	13.788	957.068	730.569
179.125	13.729	956.641	729.919
180.140	13.622	956.177	729.030
181.154	13.787	956.014	729.570
182.169	13.830	955.264	729.122
183.183	13.914	954.597	728.914
184.198	13.808	954.159	728.051
185.213	13.896	952.697	727.259
186.227	13.919	952.250	726.953
187.242	13.897	951.938	726.554
188.256	13.886	951.384	726.018
189.271	13.984	950.236	725.506
190.286	13.816	949.723	724.317
191.300	13.756	948.993	723.435
192.315	13.690	948.344	722.587
193.329	13.694	947.943	722.237
194.344	13.732	947.286	721.838
195.359	13.782	946.840	721.648
196.373	13.969	945.837	721.633
197.388	13.973	945.709	721.488
198.402	14.043	944.942	721.144
199.417	14.126	944.024	720.739
200.432	14.149	943.587	720.444
201.446	14.054	943.400	719.825
202.461	14.151	942.906	719.803
203.475	14.155	941.901	718.988
204.490	14.120	941.451	718.430
205.504	14.210	940.267	717.852
206.519	14.091	939.577	716.751
207.534	14.090	938.896	716.163
208.548	14.107	938.235	715.669
209.563	14.144	937.650	715.317
210.577	14.128	936.862	714.587
211.592	14.241	936.150	714.464
212.607	14.328	935.269	714.100
213.621	14.337	934.763	713.690
214.636	14.235	933.715	712.390
215.650	14.317	933.426	712.458
216.665	14.334	932.466	711.734
217.680	14.330	931.569	710.969
218.694	14.287	931.359	710.564
219.709	14.476	930.409	710.579
220.723	14.410	929.931	709.871
221.738	14.356	929.184	709.007
222.753	14.446	928.042	708.459
223.767	14.367	927.852	707.912
224.782	14.553	927.357	708.263
225.796	14.378	926.854	707.075
226.811	14.530	926.001	707.005
227.826	14.485	925.300	706.218
228.840	14.441	924.486	705.347
229.855	14.486	923.731	704.900
230.869	14.589	922.783	704.547
231.884	14.507	922.431	703.869
232.899	14.406	921.340	702.552
233.913	14.487	920.505	702.192
234.928	14.466	920.249	701.849
235.942	14.471	919.684	701.375
236.957	14.406	919.322	700.764
237.972	14.422	918.420	700.081
238.986	14.592	917.558	700.074
240.001	14.448	916.951	698.945
241.015	14.484	916.685	698.832
242.030	14.541	915.896	698.406
243.045	14.661	915.210	698.325
244.059	14.637	914.720	697.789
245.074	14.640	913.885	697.103
246.088	14.611	913.501	696.629
247.103	14.688	912.804	696.354
248.117	14.815	912.092	696.281
249.132	14.812	911.799	695.982
250.147	14.969	911.140	696.070
251.161	14.958	910.362	695.369
252.176	14.827	909.932	694.436
253.190	15.057	908.793	694.457
254.205	15.096	908.587	694.400
255.220	15.078	907.946	693.774
256.234	14.992	907.040	692.664
257.249	15.056	906.123	692.168
258.263	14.990	905.831	691.611
259.278	15.051	905.123	691.262
260.293	15.065	904.490	690.773
261.307	14.989	904.087	690.091
262.322	15.086	902.908	689.530
263.336	15.246	902.351	689.702
264.351	15.276	901.385	689.028
265.366	15.293	901.004	688.744
266.380	15.286	900.469	688.245
267.395	15.165	899.609	687.031
268.409	15.204	898.791	686.506
269.424	15.187	898.252	685.965
270.439	15.113	897.637	685.129
271.453	15.104	896.924	684.490
272.468	15.233	896.401	684.557
273.482	15.141	895.985	683.804
274.497	15.347	894.843	683.711
275.512	15.250	894.592	683.062
276.526	15.198	893.826	682.204
277.541	15.214	893.794	682.184
278.555	15.373	892.952	682.128
279.570	15.285	892.296	681.210
280.585	15.402	891.362	680.911
281.599	15.386	890.579	680.190
282.614	15.304	889.961	679.325
283.628	15.460	889.164	679.287
284.643	15.405	888.526	678.519
285.657	15.356	888.396	678.161
286.672	15.373	887.687	677.627
287.687	15.466	887.009	677.425
288.701	15.390	886.473	676.649
289.716	15.492	885.846	676.523
290.730	15.471	885.311	675.968
291.745	15.534	884.362	675.438
292.760	15.531	883.613	674.794
293.774	15.525	883.067	674.293
294.789	15.604	882.343	674.000
295.803	15.415	881.738	672.717
296.818	15.482	881.301	672.594
297.833	15.602	880.343	672.282
298.847	15.520	879.833	671.505
299.862	15.639	879.322	671.535
300.876	15.657	878.703	671.070
301.891	15.742	878.363	671.094
302.906	15.652	877.693	670.162
303.920	15.836	877.251	670.501
304.935	15.800	876.414	669.658
305.949	15.746	875.945	669.023
306.964	15.791	875.050	668.461
307.979	15.840	874.573	668.231
308.993	15.711	874.369	667.506
310.008	15.865	873.346	667.275
311.022	15.855	872.869	666.810
312.037	15.721	872.419	665.877
313.052	15.675	871.755	665.130
314.066	15.768	870.915	664.799
315.081	15.842	870.510	664.722
316.095	15.835	869.896	664.169
317.110	15.731	869.504	663.397
318.125	15.787	869.088	663.242
319.139	15.764	868.573	662.700
320.154	15.782	868.000	662.275
321.168	15.838	867.530	662.078
322.183	15.863	866.699	661.485
323.197	16.032	865.979	661.542
324.212	15.920	865.574	660.735
325.227	15.760	865.069	659.663
326.241	15.887	864.577	659.724
327.256	15.885	863.926	659.164
328.270	15.796	863.366	658.329
329.285	15.950	862.856	658.485
330.300	15.880	862.042	657.530
331.314	15.891	861.663	657.228
332.329	16.080	861.035	657.428
333.343	16.036	860.616	656.878
334.358	16.051	860.076	656.464
335.373	16.174	859.978	656.809
336.387	16.166	859.608	656.438
337.402	16.059	859.399	655.805
338.416	16.140	859.230	655.933
339.431	16.311	858.380	655.889
340.446	16.281	857.806	655.279
341.460	16.246	857.460	654.819
342.475	16.268	857.156	654.613
343.489	16.370	856.262	654.269
344.504	16.363	856.379	654.272
345.519	16.530	855.349	654.076
346.533	16.509	854.671	653.418
347.548	16.388	854.624	652.856
348.562	16.341	854.051	652.178
349.577	16.180	853.423	651.020
350.592	16.162	852.641	650.297
351.606	16.191	851.988	649.854
352.621	16.368	851.052	649.763
353.635	16.339	850.563	649.222
354.650	16.439	849.886	649.031
355.665	16.402	849.456	648.504
356.679	16.459	848.671	648.066
357.694	16.268	848.410	647.075
358.708	16.413	847.482	646.865
359.723	16.364	847.042	646.286
360.738	16.447	846.287	645.968
361.752	16.410	846.121	645.645
362.767	16.485	845.326	645.267
363.781	16.694	844.838	645.635
364.796	16.591	844.707	645.083
365.810	16.644	844.012	644.698
366.825	16.781	843.486	644.759
367.840	16.724	842.823	643.981
368.854	16.529	842.659	643.056
369.869	16.704	842.255	643.357
370.883	16.679	841.751	642.821
371.898	16.682	841.639	642.687
372.913	16.723	841.405	642.609
373.927	16.809	840.254	641.999
374.942	16.803	839.742	641.529
375.956	16.933	839.131	641.497
376.971	16.997	839.037	641.610
377.986	16.922	838.484	640.846
379.000	16.912	837.749	640.191
380.015	16.870	837.303	639.633
381.029	16.950	836.888	639.563
382.044	17.022	836.412	639.412
383.059	17.072	835.629	638.946
384.073	17.142	834.538	638.320
385.088	17.052	834.596	637.967
386.102	16.926	834.224	637.152
387.117	16.817	833.626	636.231
388.132	16.973	832.672	636.031
389.146	16.985	832.181	635.644
390.161	17.075	831.952	635.753
391.175	17.076	831.640	635.459
392.190	16.953	831.046	634.488
393.205	17.007	830.293	634.061
394.219	17.054	830.071	634.011
395.234	17.066	829.633	633.664
396.248	16.841	829.532	632.691
397.263	16.820	829.033	632.175
398.278	16.881	828.475	631.923
399.292	17.094	828.001	632.301
400.307	16.903	827.768	631.354
401.321	16.933	826.750	630.632
402.336	17.053	826.533	630.859
403.350	17.088	825.831	630.398
404.365	17.176	825.583	630.478
405.380	17.158	825.312	630.149
406.394	17.181	824.290	629.399
407.409	17.164	824.386	629.353
408.423	17.379	823.745	629.604
409.438	17.375	823.219	629.132
410.453	17.446	822.931	629.117
411.467	17.359	822.510	628.420
412.482	17.483	821.954	628.395
413.496	17.502	821.814	628.303
414.511	17.498	821.334	627.864
415.526	17.422	821.021	627.291
416.540	17.483	820.361	626.957
417.555	17.533	820.024	626.826
418.569	17.618	819.392	626.602
419.584	17.589	819.084	626.201
420.599	17.523	818.545	625.493
421.613	95.973	1274.453	1399.702
422.628	82.572	1340.892	1399.825
