DTS Sentinel unit serial number:	SN413079Multiplexer serial number:	ORYXHardware model number:	OX4-SRSoftware version number:	ORYX F/W v4.00 Oryx Data Collector v3.7.2.0data status	okinstallation	princeton_trtdifferential loss correction	single-endedforward channel	channel 1reverse channel	N/Adate	2019/09/13time	04:38:35forward acquisition time	60.00reverse acquisition time	0.00gamma	496.2192k internal	0.2334k external	0.2334temperature offset calibration	1.0155default loss term (dB/km)	0.3790temperature slope calibration	1.0000multiplexer offset coefficient	1.0000multiplexer slope coefficient	1.0000fibre end	0.00T internal ref (°C)	26.64T ext. ref 1 (°C)	4.04T ext. ref 2 (°C)	21.19length (m)	temperature (°C)	Stokes	anti-Stokes-747.200	330.741	0.012	-0.024
-746.185	104.935	0.162	0.192
-745.171	-89.425	0.335	0.099
-744.156	25.459	-0.162	0.135
-743.142	690.714	0.128	-0.338
-742.127	-44.242	-0.113	0.057
-741.112	-32.890	-0.109	-0.061
-740.098	363.724	-0.168	0.339
-739.083	43.874	-0.198	-0.182
-738.069	613.664	0.118	0.296
-737.054	-84.275	-0.131	0.042
-736.039	-200.000	0.028	0.325
-735.025	-120.381	0.507	0.087
-734.010	373.531	-0.023	-0.047
-732.996	-112.436	0.333	-0.067
-731.981	284.774	-0.137	0.247
-730.966	-20.142	-0.150	-0.093
-729.952	800.000	-0.021	-0.077
-728.937	473.645	0.127	-0.288
-727.923	-52.778	0.032	0.015
-726.908	-79.251	-0.288	-0.098
-725.894	-25.062	-0.452	-0.269
-724.879	-200.000	-0.042	-0.240
-723.864	274.059	0.059	0.105
-722.850	800.000	0.059	0.228
-721.835	-200.000	-0.153	0.768
-720.821	-200.000	-0.054	0.298
-719.806	-136.508	-0.265	-0.031
-718.791	-73.863	-0.453	0.165
-717.777	5.446	0.241	-0.178
-716.762	71.131	-0.141	0.147
-715.748	-80.393	0.180	-0.060
-714.733	-97.227	-0.207	-0.054
-713.718	-95.819	-0.118	0.032
-712.704	-51.678	0.280	-0.131
-711.689	800.000	0.157	0.437
-710.675	-200.000	0.003	0.155
-709.660	-200.000	0.013	0.315
-708.645	800.000	0.095	0.348
-707.631	-200.000	0.018	-0.107
-706.616	641.782	-0.019	-0.049
-705.602	-200.000	-0.044	-0.335
-704.587	-86.331	-0.289	-0.089
-703.572	-6.089	0.133	0.091
-702.558	127.838	-0.152	0.194
-701.543	-200.000	-0.008	0.181
-700.529	618.373	-0.067	0.169
-699.514	-32.570	-0.099	-0.056
-698.499	-45.697	-0.106	0.053
-697.485	-200.000	0.013	-0.105
-696.470	-47.101	-0.258	-0.126
-695.456	411.109	-0.068	-0.144
-694.441	574.140	-0.012	-0.029
-693.426	-154.962	-0.013	-0.001
-692.412	231.642	0.090	0.148
-691.397	5.676	-0.087	0.064
-690.383	123.099	-0.253	-0.318
-689.368	-38.590	0.099	-0.053
-688.354	-65.322	-0.213	-0.086
-687.339	385.998	0.147	-0.304
-686.324	14.445	0.190	0.149
-685.310	-62.629	-0.375	0.156
-684.295	-200.000	-0.019	0.415
-683.281	-136.953	-0.101	-0.012
-682.266	-15.815	-0.248	-0.159
-681.251	393.700	0.063	-0.132
-680.237	-185.444	-0.141	0.002
-679.222	-76.426	-0.118	0.042
-678.208	-36.568	0.224	-0.121
-677.193	-91.542	0.205	-0.059
-676.178	4.538	0.187	0.138
-675.164	-159.815	-0.332	0.018
-674.149	800.000	0.003	0.009
-673.135	-200.000	0.005	0.427
-672.120	-200.000	-0.045	-0.408
-671.105	-11.101	-0.185	0.122
-670.091	800.000	0.048	0.186
-669.076	-200.000	0.036	0.217
-668.062	-200.000	-0.012	0.498
-667.047	27.473	-0.237	0.200
-666.032	-105.522	-0.160	-0.036
-665.018	61.860	0.154	0.154
-664.003	-11.046	-0.085	0.057
-662.989	800.000	0.114	-0.372
-661.974	-200.000	-0.049	0.428
-660.959	35.137	-0.051	0.045
-659.945	4.828	-0.140	-0.103
-658.930	-200.000	0.065	-0.397
-657.916	800.000	0.145	-0.412
-656.901	12.506	-0.182	-0.140
-655.886	-92.367	0.154	0.043
-654.872	409.389	0.093	0.198
-653.857	-83.999	-0.183	-0.058
-652.843	393.100	-0.124	-0.258
-651.828	-31.254	-0.246	0.139
-650.814	283.896	0.158	-0.285
-649.799	-152.110	0.281	-0.020
-648.784	-106.659	-0.257	-0.057
-647.770	-7.467	0.324	-0.220
-646.755	-200.000	0.011	-0.297
-645.741	-2.216	-0.093	-0.066
-644.726	-97.652	-0.113	0.029
-643.711	284.502	-0.042	-0.075
-642.697	-151.166	0.291	0.022
-641.682	399.599	-0.116	0.243
-640.668	-82.587	0.245	0.079
-639.653	583.800	-0.149	0.366
-638.638	-121.819	0.211	0.035
-637.624	119.681	0.161	-0.199
-636.609	-39.326	-0.323	0.170
-635.595	-2.749	-0.223	0.156
-634.580	-200.000	0.058	0.268
-633.565	-200.000	0.002	0.385
-632.551	-36.937	0.526	0.282
-631.536	186.574	0.164	-0.244
-630.522	60.579	-0.085	0.085
-629.507	564.217	0.127	-0.308
-628.492	59.096	0.076	0.074
-627.478	-200.000	-0.025	-0.293
-626.463	550.702	-0.099	0.238
-625.449	77.422	-0.030	0.032
-624.434	800.000	-0.051	-0.152
-623.419	-200.000	0.019	0.089
-622.405	-165.052	0.167	-0.007
-621.390	-27.041	-0.384	0.224
-620.376	-200.000	0.068	0.308
-619.361	-93.353	0.309	0.086
-618.346	401.422	-0.176	-0.370
-617.332	739.299	0.049	-0.131
-616.317	-200.000	-0.008	-0.356
-615.303	194.698	-0.049	0.074
-614.288	117.179	-0.200	0.245
-613.273	83.400	0.088	-0.096
-612.259	-200.000	0.021	0.367
-611.244	56.928	0.231	-0.225
-610.230	194.112	0.196	-0.297
-609.215	-81.782	-0.439	-0.144
-608.201	132.600	0.075	0.097
-607.186	-101.968	0.206	0.050
-606.171	96.987	-0.137	-0.157
-605.157	46.581	0.026	0.024
-604.142	198.715	-0.108	0.165
-603.128	800.000	0.034	-0.120
-602.113	10.826	0.071	-0.054
-601.098	774.297	-0.054	-0.146
-600.084	-112.299	0.149	0.030
-599.069	-200.000	0.004	-0.141
-598.055	43.494	-0.212	-0.193
-597.040	249.589	-0.073	0.124
-596.025	-93.355	0.085	-0.023
-595.011	800.000	0.093	-0.307
-593.996	339.625	0.168	-0.328
-592.982	-200.000	0.006	-0.076
-591.967	240.164	-0.104	0.173
-590.952	-153.539	-0.036	0.002
-589.938	166.873	0.114	-0.161
-588.923	-122.911	0.130	-0.021
-587.909	-84.101	-0.343	-0.109
-586.894	33.876	-0.061	-0.053
-585.879	-107.782	0.093	-0.020
-584.865	3.106	-0.041	-0.030
-583.850	-96.620	-0.051	0.013
-582.836	800.000	0.102	0.307
-581.821	9.624	0.082	-0.062
-580.806	287.107	-0.038	0.068
-579.792	-122.337	0.242	-0.039
-578.777	58.997	-0.185	0.181
-577.763	618.686	-0.175	0.440
-576.748	608.400	0.117	0.292
-575.733	75.839	0.073	0.077
-574.719	343.662	0.198	-0.387
-573.704	66.196	-0.074	-0.075
-572.690	270.576	0.022	0.039
-571.675	-183.315	-0.280	-0.005
-570.661	-7.556	0.135	-0.091
-569.646	97.890	-0.069	-0.079
-568.631	-0.401	-0.162	-0.115
-567.617	-103.991	0.091	-0.021
-566.602	-200.000	0.062	0.330
-565.588	174.309	-0.175	0.253
-564.573	-107.217	0.238	-0.052
-563.558	-42.732	0.274	-0.139
-562.544	800.000	-0.071	0.299
-561.529	-200.000	-0.027	0.172
-560.515	317.006	0.096	-0.180
-559.500	700.070	-0.089	0.235
-558.485	-200.000	0.063	0.366
-557.471	-42.345	0.160	-0.081
-556.456	-133.031	0.236	-0.030
-555.442	-115.743	0.234	0.044
-554.427	-160.045	-0.302	-0.016
-553.412	155.951	-0.022	0.030
-552.398	10.664	0.119	-0.091
-551.383	-50.092	0.035	0.016
-550.369	800.000	0.022	0.078
-549.354	600.527	0.043	-0.107
-548.339	45.169	0.177	-0.163
-547.325	77.852	0.184	-0.196
-546.310	274.179	-0.152	-0.267
-545.296	101.805	-0.154	0.179
-544.281	-200.000	0.027	0.390
-543.266	11.321	-0.383	-0.293
-542.252	46.088	-0.207	0.191
-541.237	22.976	0.170	-0.139
-540.223	557.156	0.068	-0.163
-539.208	66.561	0.353	-0.358
-538.193	-67.806	-0.260	-0.101
-537.179	800.000	-0.072	-0.210
-536.164	-34.950	-0.304	-0.165
-535.150	-200.000	-0.033	-0.171
-534.135	-188.211	0.380	-0.005
-533.121	255.720	0.064	0.109
-532.106	800.000	0.038	-0.148
-531.091	382.694	-0.110	-0.226
-530.077	-144.702	0.041	-0.004
-529.062	384.996	-0.184	-0.378
-528.048	82.695	-0.100	-0.108
-527.033	429.138	-0.106	0.228
-526.018	-44.309	-0.206	-0.103
-525.004	9.295	0.265	0.200
-523.989	-129.379	-0.260	-0.036
-522.975	-41.359	-0.050	0.026
-521.960	-126.356	0.191	-0.028
-520.945	75.499	0.192	-0.202
-519.931	-119.189	-0.205	-0.036
-518.916	-200.000	0.006	0.128
-517.902	116.631	-0.172	0.210
-516.887	103.691	-0.134	-0.156
-515.872	-200.000	0.045	-0.417
-514.858	-200.000	-0.000	-0.095
-513.843	-36.167	0.082	0.044
-512.829	-200.000	-0.017	-0.117
-511.814	-81.607	-0.121	0.039
-510.799	-200.000	-0.291	0.000
-509.785	43.876	0.221	-0.202
-508.770	716.263	0.147	-0.388
-507.756	479.842	0.096	-0.217
-506.741	154.997	0.066	0.090
-505.726	-27.917	-0.137	-0.079
-504.712	-200.000	-0.007	-0.648
-503.697	-125.535	-0.528	-0.080
-502.683	422.471	0.128	0.273
-501.668	800.000	0.101	0.436
-500.653	281.590	-0.032	-0.058
-499.639	-200.000	0.088	-0.385
-498.624	-155.211	-0.297	0.019
-497.610	-2.932	-0.224	0.156
-496.595	-60.246	-0.188	0.080
-495.581	415.025	0.080	0.169
-494.566	800.000	0.078	-0.255
-493.551	45.895	-0.087	-0.080
-492.537	-200.000	0.021	-0.295
-491.522	-98.472	0.230	-0.059
-490.508	-109.067	0.341	-0.072
-489.493	776.417	0.032	0.087
-488.478	-20.379	-0.316	-0.193
-487.464	-118.187	0.437	-0.077
-486.449	70.927	0.179	-0.185
-485.435	-200.000	-0.002	0.012
-484.420	445.180	-0.115	-0.250
-483.405	-51.678	-0.129	-0.060
-482.391	-200.000	-0.021	-0.335
-481.376	43.032	0.115	0.104
-480.362	111.124	-0.084	-0.100
-479.347	704.783	-0.144	0.377
-478.332	103.516	-0.135	0.157
-477.318	427.141	-0.098	0.210
-476.303	-100.143	0.449	0.111
-475.289	-125.628	0.079	-0.012
-474.274	-200.000	0.016	-0.072
-473.259	-70.187	0.047	-0.018
-472.245	93.560	0.059	0.067
-471.230	-164.323	-0.220	0.010
-470.216	760.862	-0.123	-0.333
-469.201	-200.000	0.004	0.095
-468.186	134.408	-0.215	0.278
-467.172	-94.192	0.210	0.057
-466.157	800.000	0.062	-0.237
-465.143	197.135	0.317	-0.481
-464.128	70.372	-0.092	0.094
-463.113	28.351	0.062	-0.052
-462.099	201.685	0.006	0.009
-461.084	420.817	0.141	0.300
-460.070	93.560	-0.206	-0.231
-459.055	-200.000	-0.015	0.160
-458.040	51.413	0.026	-0.025
-457.026	-90.445	-0.145	-0.042
-456.011	800.000	-0.068	-0.239
-454.997	-22.713	-0.264	-0.158
-453.982	176.229	-0.127	0.184
-452.968	414.924	-0.099	-0.210
-451.953	378.569	-0.079	-0.161
-450.938	20.119	-0.159	0.127
-449.924	-73.796	-0.147	0.053
-448.909	22.361	-0.065	0.053
-447.895	21.285	0.233	-0.188
-446.880	-200.000	0.008	0.159
-445.865	66.686	0.168	0.170
-444.851	28.809	0.180	0.151
-443.836	-117.599	0.120	-0.022
-442.822	-1.015	0.276	-0.194
-441.807	-128.040	-0.172	-0.024
-440.792	293.775	-0.128	0.232
-439.778	800.000	0.114	0.321
-438.763	-200.000	0.000	0.040
-437.749	17.681	0.190	-0.150
-436.734	-61.938	-0.493	-0.205
-435.719	-200.000	-0.015	0.168
-434.705	-72.708	0.217	-0.079
-433.690	-175.978	-0.315	-0.008
-432.676	-100.210	0.019	-0.005
-431.661	175.680	-0.067	-0.097
-430.646	-135.915	-0.225	0.026
-429.632	800.000	0.138	0.388
-428.617	-61.570	0.262	0.109
-427.603	-0.703	0.063	-0.044
-426.588	-200.000	-0.030	0.178
-425.573	48.880	0.286	-0.267
-424.559	2.927	-0.026	-0.018
-423.544	304.164	0.076	0.141
-422.530	-84.815	0.085	0.027
-421.515	800.000	0.091	0.308
-420.500	112.597	-0.245	-0.295
-419.486	-168.717	-0.340	-0.013
-418.471	-18.394	-0.254	-0.158
-417.457	68.252	-0.072	0.073
-416.442	-59.781	-0.447	-0.190
-415.428	-200.000	-0.022	0.231
-414.413	-63.056	0.133	-0.054
-413.398	56.554	0.094	-0.090
-412.384	458.449	0.210	0.464
-411.369	-22.002	-0.131	0.079
-410.355	-10.053	-0.205	0.135
-409.340	-200.000	-0.012	0.086
-408.325	79.948	-0.166	0.177
-407.311	-88.106	0.168	0.050
-406.296	657.230	-0.074	-0.190
-405.282	5.226	-0.228	-0.167
-404.267	-0.389	-0.159	0.112
-403.252	-50.047	0.062	-0.029
-402.238	-67.866	-0.413	-0.160
-401.223	800.000	0.148	0.486
-400.209	500.361	-0.149	-0.340
-399.194	-200.000	0.006	-0.222
-398.179	-77.751	0.090	0.031
-397.165	-200.000	0.010	0.245
-396.150	141.147	0.152	-0.199
-395.136	-72.922	0.355	0.129
-394.121	-35.577	-0.170	-0.092
-393.106	697.311	-0.158	0.412
-392.092	161.727	0.094	0.130
-391.077	2.093	0.065	-0.047
-390.063	-170.629	0.145	0.005
-389.048	-200.000	-0.006	-0.181
-388.033	4.321	0.057	-0.041
-387.019	800.000	-0.030	0.090
-386.004	-117.885	0.182	-0.032
-384.990	71.939	0.106	0.109
-383.975	76.513	0.150	0.158
-382.960	-85.263	-0.092	-0.029
-381.946	-200.000	0.005	0.115
-380.931	800.000	-0.053	0.214
-379.917	-85.248	0.056	-0.017
-378.902	97.445	-0.024	0.027
-377.888	-4.758	-0.170	0.116
-376.873	-110.887	0.112	-0.023
-375.858	800.000	0.033	-0.132
-374.844	-25.131	0.168	0.099
-373.829	-57.367	-0.279	-0.121
-372.815	-92.790	-0.246	-0.068
-371.800	131.734	-0.149	-0.190
-370.785	800.000	-0.128	-0.442
-369.771	-58.217	0.137	0.059
-368.756	-13.280	-0.180	0.116
-367.742	-200.000	-0.002	0.099
-366.727	-143.522	0.382	0.036
-365.712	368.266	0.147	0.294
-364.698	601.397	-0.044	-0.109
-363.683	-74.741	0.156	-0.056
-362.669	5.773	-0.375	0.275
-361.654	23.060	-0.089	0.072
-360.639	86.350	0.297	-0.324
-359.625	503.711	0.069	-0.159
-358.610	358.616	0.079	0.155
-357.596	-108.503	0.143	0.030
-356.581	-119.571	-0.194	0.033
-355.566	-54.755	0.118	0.053
-354.552	7.792	-0.304	0.225
-353.537	800.000	-0.057	-0.235
-352.523	-101.808	-0.097	-0.023
-351.508	6.181	-0.072	-0.053
-350.493	-85.024	-0.242	-0.075
-349.479	-200.000	0.022	0.198
-348.464	-131.909	0.504	-0.065
-347.450	-200.000	-0.452	-0.001
-346.435	-17.867	-0.183	-0.113
-345.420	42.773	0.119	0.107
-344.406	424.475	-0.076	0.162
-343.391	-119.549	0.266	0.046
-342.377	-119.799	-0.240	0.041
-341.362	46.740	0.235	-0.216
-340.348	69.860	0.110	-0.113
-339.333	533.438	-0.075	-0.177
-338.318	99.826	0.114	-0.131
-337.304	118.725	0.076	0.093
-336.289	800.000	-0.118	0.365
-335.275	-179.288	0.200	0.004
-334.260	777.647	-0.026	-0.071
-333.245	-103.207	0.125	-0.029
-332.231	800.000	-0.121	0.446
-331.216	142.121	0.163	0.214
-330.202	-200.000	-0.013	0.081
-329.187	-92.625	0.113	-0.031
-328.172	-200.000	-0.027	-0.306
-327.158	232.825	0.079	-0.128
-326.143	285.750	-0.204	0.364
-325.129	333.517	0.039	0.075
-324.114	-132.348	-0.209	0.027
-323.099	-200.000	-0.007	-0.161
-322.085	-120.763	-0.162	-0.027
-321.070	800.000	0.082	-0.287
-320.056	131.007	-0.189	-0.240
-319.041	376.066	0.060	0.121
-318.026	-200.000	0.057	-0.289
-317.012	-113.038	-0.074	0.014
-315.997	-102.935	-0.080	0.019
-314.983	800.000	-0.043	0.159
-313.968	-102.995	-0.036	0.008
-312.953	-28.969	-0.159	-0.090
-311.939	-65.139	0.083	-0.033
-310.924	174.693	0.108	0.154
-309.910	-27.817	0.267	-0.153
-308.895	-56.202	0.067	-0.029
-307.880	292.176	0.136	0.244
-306.866	515.270	-0.062	0.143
-305.851	-96.854	0.433	-0.112
-304.837	-98.637	-0.201	-0.051
-303.822	122.007	-0.180	-0.221
-302.807	-60.230	-0.358	-0.150
-301.793	-200.000	0.008	0.166
-300.778	-69.556	0.070	-0.027
-299.764	473.194	-0.036	-0.080
-298.749	16.779	0.028	-0.022
-297.735	25.914	0.130	-0.107
-296.720	96.250	0.073	0.082
-295.705	247.953	-0.037	-0.061
-294.691	128.952	0.151	0.190
-293.676	-120.205	0.512	0.086
-292.662	-92.912	-0.322	-0.089
-291.647	367.172	-0.139	0.277
-290.632	16.031	0.081	0.063
-289.618	800.000	-0.054	-0.197
-288.603	349.761	0.063	0.124
-287.589	-200.000	-0.037	0.222
-286.574	800.000	-0.083	0.246
-285.559	-60.769	-0.181	-0.076
-284.545	-85.399	-0.128	0.039
-283.530	767.504	-0.084	-0.226
-282.516	-110.877	0.225	0.046
-281.501	452.908	0.060	-0.131
-280.486	279.014	0.055	0.096
-279.472	-61.690	-0.043	0.018
-278.457	-200.000	0.016	0.287
-277.443	-97.765	0.113	0.029
-276.428	800.000	-0.019	-0.055
-275.413	439.953	-0.204	0.441
-274.399	-200.000	0.010	-0.072
-273.384	-200.000	0.002	-0.230
-272.370	-67.849	-0.147	-0.056
-271.355	-99.635	0.096	-0.024
-270.340	674.899	0.024	-0.062
-269.326	196.781	0.145	0.218
-268.311	72.344	0.165	0.170
-267.297	194.524	-0.154	0.230
-266.282	423.937	0.095	0.202
-265.267	-200.000	-0.039	0.193
-264.253	-200.000	0.022	-0.272
-263.238	800.000	-0.049	-0.167
-262.224	131.089	-0.274	-0.347
-261.209	-78.239	-0.163	0.055
-260.195	61.281	0.089	-0.087
-259.180	-200.000	0.020	-0.188
-258.165	-138.571	-0.128	0.014
-257.151	800.000	-0.049	-0.153
-256.136	-108.620	-0.399	0.084
-255.122	16.268	0.173	-0.135
-254.107	94.354	-0.181	0.203
-253.092	-116.671	-0.210	-0.038
-252.078	-200.000	0.010	0.172
-251.063	-200.000	-0.007	0.134
-250.049	-8.756	-0.200	-0.133
-249.034	-13.048	-0.072	0.046
-248.019	-200.000	0.015	-0.101
-247.005	10.007	0.130	0.097
-245.990	-5.669	0.083	0.056
-244.976	-200.000	-0.004	0.073
-243.961	333.834	0.093	-0.177
-242.946	-40.451	0.199	-0.102
-241.932	-200.000	-0.034	0.194
-240.917	-69.235	-0.247	0.094
-239.903	12.817	0.197	0.150
-238.888	288.681	0.096	0.171
-237.873	-58.870	0.234	0.100
-236.859	-200.000	0.026	0.256
-235.844	248.384	0.165	0.275
-234.830	-200.000	-0.050	-0.550
-233.815	35.344	-0.293	-0.253
-232.800	93.441	0.145	-0.161
-231.786	-125.435	-0.231	0.035
-230.771	-14.057	-0.109	0.070
-229.757	-108.108	-0.233	-0.050
-228.742	301.335	0.054	-0.099
-227.727	-200.000	0.013	0.515
-226.713	-35.490	0.013	-0.007
-225.698	800.000	0.089	0.254
-224.684	5.964	-0.336	0.245
-223.669	67.971	0.180	-0.181
-222.655	32.306	-0.190	0.162
-221.640	-200.000	0.023	-0.443
-220.625	-140.993	0.429	-0.043
-219.611	-89.851	0.207	0.059
-218.596	31.639	0.210	-0.177
-217.582	-200.000	-0.024	0.257
-216.567	13.307	0.148	-0.113
-215.552	-130.123	-0.054	-0.007
-214.538	104.039	-0.250	-0.289
-213.523	-104.658	-0.137	0.031
-212.509	-0.938	0.304	0.212
-211.494	-27.963	-0.169	0.096
-210.479	-128.528	0.250	-0.035
-209.465	-149.345	0.230	0.018
-208.450	-181.661	-0.351	-0.007
-207.436	800.000	-0.084	-0.257
-206.421	2.299	-0.144	0.102
-205.406	37.658	-0.161	0.141
-204.392	86.509	0.087	-0.095
-203.377	-105.264	-0.210	-0.047
-202.363	800.000	0.018	-0.059
-201.348	163.965	-0.119	-0.165
-200.333	116.461	0.268	-0.323
-199.319	12.537	-0.193	-0.146
-198.304	-37.392	0.109	0.057
-197.290	18.814	0.167	-0.131
-196.275	-87.367	0.371	-0.111
-195.260	-72.634	-0.221	0.080
-194.246	11.162	0.126	0.095
-193.231	26.071	0.175	-0.144
-192.217	91.904	-0.133	0.147
-191.202	277.360	0.051	0.089
-190.187	85.089	0.102	0.110
-189.173	275.953	0.176	-0.307
-188.158	-56.084	-0.198	0.087
-187.144	-147.723	-0.118	-0.010
-186.129	-200.000	0.005	0.248
-185.114	16.525	-0.167	0.130
-184.100	-58.606	-0.146	-0.062
-183.085	18.075	0.309	-0.242
-182.071	800.000	0.141	0.396
-181.056	8.628	0.085	0.063
-180.042	-162.334	0.282	0.014
-179.027	-140.699	-0.160	0.016
-178.012	209.131	0.183	0.282
-176.998	-200.000	-0.062	0.287
-175.983	203.268	0.076	0.115
-174.969	-63.448	0.206	-0.083
-173.954	28.235	0.099	0.083
-172.939	-97.270	-0.088	-0.023
-171.925	-96.020	-0.135	-0.035
-170.910	255.826	0.079	0.133
-169.896	-132.913	-0.045	0.006
-168.881	-171.299	0.408	0.013
-167.866	199.810	-0.247	-0.372
-166.852	687.208	0.157	0.403
-165.837	58.130	0.238	0.229
-164.823	-51.667	0.419	0.192
-163.808	800.000	-0.052	0.197
-162.793	196.296	0.167	-0.250
-161.779	-115.091	-0.151	0.028
-160.764	-104.803	-0.149	-0.034
-159.750	-159.911	-0.179	-0.010
-158.735	-200.000	-0.013	-0.180
-157.720	-200.000	-0.008	0.097
-156.706	800.000	0.056	0.163
-155.691	800.000	0.052	0.205
-154.677	249.990	-0.045	-0.076
-153.662	-82.670	-0.248	0.079
-152.647	148.753	0.143	-0.190
-151.633	-74.218	-0.168	0.060
-150.618	-10.947	0.157	0.102
-149.604	679.567	-0.058	-0.147
-148.589	307.126	-0.094	-0.172
-147.574	-9.240	-0.179	-0.117
-146.560	82.087	0.180	-0.192
-145.545	-9.372	0.067	-0.044
-144.531	45.923	-0.028	-0.025
-143.516	-109.593	-0.075	-0.015
-142.502	-200.000	-0.013	-0.103
-141.487	-34.232	-0.095	-0.051
-140.472	541.992	0.043	-0.101
-139.458	249.468	0.054	-0.090
-138.443	-20.500	-0.250	-0.151
-137.429	-55.836	-0.106	0.046
-136.414	-200.000	0.031	0.390
-135.399	800.000	0.023	0.068
-134.385	-48.887	-0.270	0.127
-133.370	12.316	0.124	-0.093
-132.356	102.890	0.150	0.172
-131.341	128.571	0.056	-0.070
-130.326	-200.000	-0.028	-0.359
-129.312	800.000	0.038	0.164
-128.297	-125.103	-0.051	-0.008
-127.283	10.266	-0.295	-0.220
-126.268	661.955	-0.044	0.111
-125.253	-139.185	-0.199	0.021
-124.239	491.175	-0.052	-0.117
-123.224	-180.130	0.157	-0.003
-122.210	359.170	-0.037	0.072
-121.195	-111.853	-0.242	-0.048
-120.180	722.515	-0.059	-0.155
-119.166	110.190	0.186	0.219
-118.151	800.000	-0.024	0.093
-117.137	-183.612	-0.344	0.006
-116.122	-77.255	0.069	-0.023
-115.107	-105.867	0.056	-0.012
-114.093	15.618	0.331	0.255
-113.078	-200.000	0.038	0.239
-112.064	800.000	-0.030	-0.083
-111.049	800.000	0.050	0.159
-110.034	220.450	-0.162	0.255
-109.020	-1.162	-0.313	-0.217
-108.005	644.845	-0.064	-0.160
-106.991	93.738	-0.232	-0.257
-105.976	10.429	-0.168	0.126
-104.962	90.839	-0.107	0.117
-103.947	61.800	0.312	-0.305
-102.932	-200.000	-0.006	-0.267
-101.918	800.000	0.014	-0.056
-100.903	800.000	0.029	0.090
-99.889	-73.702	0.199	0.071
-98.874	-200.000	-0.015	-0.174
-97.859	188.599	0.282	0.413
-96.845	-137.424	0.215	-0.024
-95.830	169.039	-0.275	0.385
-94.816	-200.000	0.007	-0.146
-93.801	-25.898	0.226	-0.130
-92.786	-137.937	-0.206	-0.023
-91.772	182.867	0.220	-0.319
-90.757	-1.173	0.292	-0.202
-89.743	-53.226	-0.309	-0.139
-88.728	44.666	0.102	0.091
-87.713	414.301	0.033	0.068
-86.699	800.000	-0.016	0.057
-85.684	-200.000	-0.051	-0.244
-84.670	-115.221	-0.167	-0.031
-83.655	659.619	-0.038	-0.095
-82.640	-200.000	0.062	0.379
-81.626	-200.000	0.030	-0.156
-80.611	-166.561	0.138	-0.006
-79.597	120.171	-0.192	-0.234
-78.582	-136.057	0.178	-0.020
-77.567	800.000	-0.075	-0.261
-76.553	257.369	0.177	-0.299
-75.538	514.233	-0.191	-0.435
-74.524	-5.598	-0.319	-0.214
-73.509	-126.411	-0.124	0.018
-72.494	198.139	0.251	-0.376
-71.480	-24.094	-0.200	0.117
-70.465	-3.249	0.118	-0.080
-69.451	-200.000	0.072	-0.327
-68.436	305.261	0.165	-0.301
-67.422	20.108	-0.271	0.214
-66.407	-117.735	-0.267	-0.047
-65.392	800.000	0.054	-0.220
-64.378	-16.175	0.163	-0.102
-63.363	155.084	0.039	-0.052
-62.349	-118.264	0.211	-0.037
-61.334	57.382	-1.056	-1.009
-60.319	-90.069	0.817	0.233
-59.305	197.473	-0.683	-1.021
-58.290	442.776	0.517	1.108
-57.276	290.183	0.889	1.579
-56.261	-200.000	117.054	654.765
-55.246	514.188	1540.522	3516.363
-54.232	175.908	2706.970	3843.271
-53.217	106.964	2149.116	2496.982
-52.203	38.110	1586.214	1380.656
-51.188	29.994	1329.591	1108.888
-50.173	27.159	1291.359	1060.447
-49.159	53.636	1349.326	1266.728
-48.144	51.853	1363.252	1269.136
-47.130	30.114	1317.015	1098.937
-46.115	26.797	1299.147	1064.549
-45.100	26.509	1294.119	1058.701
-44.086	26.495	1291.204	1056.193
-43.071	26.389	1289.324	1053.994
-42.057	26.460	1287.168	1052.604
-41.042	26.531	1285.474	1051.590
-40.027	26.471	1284.184	1050.145
-39.013	26.543	1281.977	1048.715
-37.998	26.525	1280.548	1047.398
-36.984	26.678	1278.765	1046.782
-35.969	26.514	1277.247	1044.551
-34.954	26.659	1275.253	1043.715
-33.940	26.679	1273.704	1042.522
-32.925	26.738	1272.456	1041.797
-31.911	26.629	1271.044	1039.975
-30.896	26.700	1269.893	1039.398
-29.881	26.730	1268.494	1038.387
-28.867	26.804	1266.644	1037.251
-27.852	26.689	1265.425	1035.556
-26.838	26.808	1263.860	1034.913
-25.823	26.776	1262.867	1033.880
-24.809	26.706	1261.055	1031.953
-23.794	26.686	1259.599	1030.608
-22.779	26.734	1258.695	1030.100
-21.765	26.688	1257.534	1028.850
-20.750	26.786	1256.571	1028.577
-19.736	26.693	1254.843	1026.595
-18.721	26.650	1254.059	1025.666
-17.706	26.694	1252.958	1024.973
-16.692	26.613	1251.262	1023.091
-15.677	26.533	1250.679	1022.123
-14.663	26.518	1249.598	1021.111
-13.648	26.611	1248.611	1020.790
-12.633	26.554	1247.556	1019.566
-11.619	26.629	1246.637	1019.196
-10.604	26.565	1245.885	1018.181
-9.590	26.581	1245.174	1017.648
-8.575	26.586	1244.022	1016.693
-7.560	26.620	1242.681	1015.751
-6.546	26.520	1242.597	1015.081
-5.531	26.572	1241.190	1014.179
-4.517	26.539	1240.884	1013.708
-3.502	26.654	1239.821	1013.443
-2.487	26.569	1238.834	1012.118
-1.473	26.484	1234.472	1008.039
-0.458	24.922	1219.636	987.282
0.556	23.084	1202.973	950.512
1.571	19.177	1208.957	934.009
2.586	18.318	1224.118	940.921
3.600	18.226	1212.410	931.336
4.615	14.020	1142.202	855.716
5.629	7.261	1070.925	769.517
6.644	4.346	1053.134	742.729
7.659	4.100	1050.858	739.883
8.673	3.854	1049.868	737.949
9.688	3.862	1048.038	736.633
10.702	4.208	1046.014	736.794
11.717	8.615	1052.073	762.021
12.731	16.565	1062.923	807.926
13.746	21.310	1069.172	835.346
14.761	22.394	1070.030	841.126
15.775	21.515	1068.576	835.713
16.790	20.720	1066.351	830.108
17.804	20.067	1064.947	825.828
18.819	19.813	1064.289	824.036
19.834	19.850	1063.679	823.666
20.848	19.730	1062.928	822.441
21.863	19.766	1061.877	821.728
22.877	19.339	1061.968	819.694
23.892	19.390	1060.926	819.063
24.907	19.318	1060.270	818.140
25.921	19.251	1059.055	816.812
26.936	19.185	1057.932	815.561
27.950	19.342	1056.182	814.882
28.965	19.603	1054.771	814.951
29.980	19.644	1053.983	814.468
30.994	19.754	1052.903	814.078
32.009	19.763	1052.247	813.539
33.023	19.730	1051.033	812.374
34.038	19.571	1050.042	810.792
35.053	19.522	1049.253	809.879
36.067	19.495	1048.311	808.955
37.082	19.563	1047.329	808.441
38.096	19.646	1047.765	809.095
39.111	19.655	1046.046	807.739
40.126	19.407	1044.990	805.696
41.140	19.062	1043.549	802.906
42.155	19.046	1042.353	801.839
43.169	18.793	1041.292	799.772
44.184	18.955	1039.641	799.187
45.199	18.994	1039.188	798.948
46.213	19.241	1037.978	799.094
47.228	19.456	1037.821	799.897
48.242	19.570	1036.580	799.398
49.257	19.425	1035.766	798.031
50.271	19.393	1035.440	797.561
51.286	19.643	1034.324	797.783
52.301	19.530	1033.169	796.300
53.315	19.408	1032.316	795.013
54.330	19.341	1031.231	793.796
55.344	19.234	1030.163	792.413
56.359	19.183	1029.798	791.828
57.374	19.101	1028.465	790.355
58.388	18.950	1027.224	788.641
59.403	18.796	1027.151	787.806
60.417	18.992	1025.854	787.643
61.432	18.801	1025.518	786.440
62.447	18.780	1024.574	785.548
63.461	18.759	1023.993	784.941
64.476	18.728	1022.519	783.596
65.490	18.666	1021.815	782.708
66.505	18.795	1020.890	782.517
67.520	18.695	1020.547	781.732
68.534	18.703	1019.696	781.045
69.549	18.759	1018.776	780.527
70.563	18.742	1017.571	779.457
71.578	18.628	1016.751	778.239
72.593	18.460	1016.093	776.907
73.607	18.413	1015.627	776.268
74.622	18.564	1014.951	776.369
75.636	18.531	1014.487	775.796
76.651	18.660	1013.737	775.735
77.666	18.552	1013.383	774.909
78.680	18.629	1012.273	774.338
79.695	18.685	1011.620	774.024
80.709	18.852	1011.403	774.541
81.724	18.968	1010.914	774.623
82.739	19.120	1009.882	774.445
83.753	19.360	1009.871	775.449
84.768	19.814	1009.022	776.767
85.782	19.883	1008.859	776.884
86.797	19.800	1007.734	775.576
87.812	19.675	1006.416	773.933
88.826	19.631	1005.679	773.098
89.841	19.829	1004.733	773.190
90.855	19.812	1004.104	772.561
91.870	19.734	1003.210	771.457
92.884	19.860	1002.083	771.086
93.899	19.693	1001.045	769.472
94.914	19.874	1000.276	769.617
95.928	19.854	999.424	768.807
96.943	19.650	998.541	767.154
97.957	19.723	997.668	766.737
98.972	19.613	996.949	765.632
99.987	19.669	996.193	765.231
101.001	19.666	995.250	764.426
102.016	19.474	994.558	762.978
103.030	19.770	993.604	763.484
104.045	19.655	992.914	762.382
105.060	19.586	991.941	761.263
106.074	19.272	990.612	758.791
107.089	18.936	989.476	756.377
108.103	18.846	988.459	755.136
109.118	18.722	987.751	753.984
110.133	18.896	986.036	753.373
111.147	18.734	985.541	752.216
112.162	18.765	985.328	752.122
113.176	19.016	984.296	752.367
114.191	19.082	983.833	752.235
115.206	19.066	982.792	751.304
116.220	18.879	982.025	749.836
117.235	18.937	980.716	749.022
118.249	18.923	980.195	748.498
119.264	18.734	979.395	746.998
120.279	18.722	978.481	746.180
121.293	18.652	977.669	745.192
122.308	18.439	977.070	743.745
123.322	18.545	975.410	742.875
124.337	18.476	974.422	741.758
125.352	18.408	973.612	740.781
126.366	18.451	972.384	739.968
127.381	18.572	971.948	740.092
128.395	18.605	971.055	739.488
129.410	18.707	970.121	739.154
130.424	18.625	969.644	738.370
131.439	18.962	968.796	739.110
132.454	18.902	968.403	738.483
133.468	18.957	967.589	738.037
134.483	19.073	966.352	737.524
135.497	19.094	965.736	737.079
136.512	19.118	964.649	736.287
137.527	19.018	964.175	735.432
138.541	19.047	963.530	734.997
139.556	19.063	963.078	734.658
140.570	19.330	962.605	735.371
141.585	19.583	961.634	735.642
142.600	19.570	961.097	735.109
143.614	19.739	960.490	735.301
144.629	19.655	959.588	734.185
145.643	19.667	958.206	733.114
146.658	19.509	956.888	731.372
147.673	19.179	955.772	729.058
148.687	19.056	955.009	727.890
149.702	19.093	953.726	727.005
150.716	19.086	952.812	726.214
151.731	19.240	952.172	726.310
152.746	19.176	951.930	725.795
153.760	19.326	950.946	725.610
154.775	19.398	950.690	725.653
155.789	19.305	950.283	724.890
156.804	19.430	949.477	724.735
157.819	19.626	948.331	724.620
158.833	19.683	948.423	724.861
159.848	19.735	947.445	724.269
160.862	19.651	946.313	722.988
161.877	19.265	944.966	720.282
162.892	19.024	943.833	718.347
163.906	19.021	942.669	717.386
164.921	18.908	942.311	716.580
165.935	19.092	941.325	716.533
166.950	19.323	939.959	716.388
167.964	19.295	939.281	715.691
168.979	19.152	938.474	714.421
169.994	19.236	937.550	714.001
171.008	19.271	937.060	713.713
172.023	19.511	936.714	714.381
173.037	19.661	935.764	714.212
174.052	19.457	935.089	712.792
175.067	19.301	933.827	711.122
176.081	19.040	933.636	709.834
177.096	19.128	932.780	709.486
178.110	19.030	932.244	708.613
179.125	19.168	931.743	708.734
180.140	19.214	931.443	708.633
181.154	19.465	931.351	709.533
182.169	19.700	930.574	709.844
183.183	19.544	930.408	709.014
184.198	19.663	929.145	708.478
185.213	19.623	928.962	708.110
186.227	19.646	928.165	707.533
187.242	19.805	927.745	707.801
188.256	20.036	927.148	708.230
189.271	19.943	926.492	707.286
190.286	19.438	925.328	704.272
191.300	18.993	924.122	701.477
192.315	18.766	923.510	700.028
193.329	18.957	922.938	700.309
194.344	19.089	922.513	700.460
195.359	19.235	921.897	700.527
196.373	19.438	921.337	700.862
197.388	19.656	921.222	701.599
198.402	19.935	920.738	702.300
199.417	20.018	920.197	702.162
200.432	20.065	919.919	702.077
201.446	20.183	919.530	702.198
202.461	20.205	919.057	701.863
203.475	20.238	917.781	700.960
204.490	19.877	917.002	698.844
205.504	19.667	916.572	697.606
206.519	19.668	915.486	696.724
207.534	19.632	914.868	696.047
208.548	19.644	914.548	695.788
209.563	19.621	913.915	695.153
210.577	19.768	913.077	695.045
211.592	20.083	912.624	695.904
212.607	20.104	911.755	695.264
213.621	20.118	910.702	694.456
214.636	19.957	910.437	693.550
215.650	20.001	909.724	693.121
216.665	20.074	909.462	693.153
217.680	20.303	908.613	693.358
218.694	20.285	907.947	692.716
219.709	20.158	907.330	691.676
220.723	20.050	906.737	690.735
221.738	19.981	906.248	690.025
222.753	20.042	905.527	689.658
223.767	20.256	904.668	689.792
224.782	20.435	904.292	690.159
225.796	20.340	904.141	689.602
226.811	20.192	903.427	688.410
227.826	19.964	902.783	686.955
228.840	20.072	901.709	686.505
229.855	20.012	900.634	685.386
230.869	19.888	900.272	684.560
231.884	19.892	899.310	683.787
232.899	19.813	898.252	682.607
233.913	19.775	897.326	681.694
234.928	19.672	897.212	681.141
235.942	19.470	897.040	680.153
236.957	19.649	896.122	680.102
237.972	19.651	895.455	679.546
238.986	19.521	895.046	678.661
240.001	19.601	894.387	678.417
241.015	19.754	894.004	678.668
242.030	20.031	893.265	679.133
243.045	19.967	892.678	678.374
244.059	19.957	892.144	677.870
245.074	20.193	891.421	678.183
246.088	20.177	891.174	677.873
247.103	20.303	890.860	678.067
248.117	20.505	890.504	678.524
249.132	20.981	890.073	679.992
250.147	21.086	889.385	679.816
251.161	21.203	888.692	679.683
252.176	21.122	888.541	679.190
253.190	21.133	887.792	678.602
254.205	21.156	887.159	678.145
255.220	21.103	886.379	677.286
256.234	21.079	885.628	676.561
257.249	21.065	885.040	675.996
258.263	20.914	884.189	674.700
259.278	21.027	883.572	674.608
260.293	21.058	883.297	674.456
261.307	21.226	882.658	674.559
262.322	21.296	882.394	674.569
263.336	21.252	881.505	673.658
264.351	21.224	880.494	672.719
265.366	21.265	879.830	672.311
266.380	21.294	879.009	671.734
267.395	21.104	878.795	670.782
268.409	20.936	878.107	669.553
269.424	20.997	877.081	668.945
270.439	20.770	876.503	667.573
271.453	20.813	875.813	667.155
272.468	20.837	874.807	666.419
273.482	20.827	874.266	665.910
274.497	20.759	873.925	665.333
275.512	20.795	873.465	665.062
276.526	20.867	872.864	664.818
277.541	20.932	872.597	664.803
278.555	21.133	871.970	665.034
279.570	21.376	871.584	665.605
280.585	21.207	870.864	664.355
281.599	20.949	870.300	662.885
282.614	20.927	868.986	661.741
283.628	20.885	868.291	660.993
284.643	20.981	868.154	661.194
285.657	21.033	866.952	660.418
286.672	21.093	866.300	660.089
287.687	21.133	865.983	659.943
288.701	21.072	865.350	659.169
289.716	21.065	865.025	658.838
290.730	21.079	864.507	658.438
291.745	21.054	864.069	657.954
292.760	21.291	863.469	658.329
293.774	21.408	862.866	658.252
294.789	21.320	862.252	657.394
295.803	21.101	861.113	655.644
296.818	21.003	860.398	654.675
297.833	21.119	860.120	654.840
298.847	21.075	859.152	653.880
299.862	21.099	859.173	653.930
300.876	21.204	858.854	654.024
301.891	21.430	858.190	654.303
302.906	21.556	857.649	654.307
303.920	21.632	857.600	654.494
304.935	21.652	856.649	653.787
305.949	21.636	856.304	653.404
306.964	21.356	855.633	651.791
307.979	21.461	854.638	651.367
308.993	21.483	854.493	651.280
310.008	21.514	853.777	650.792
311.022	21.358	853.654	650.059
312.037	21.361	852.301	648.984
313.052	21.174	851.634	647.725
314.066	20.951	850.971	646.335
315.081	20.979	850.404	645.951
316.095	20.970	849.602	645.252
317.110	20.889	849.285	644.653
318.125	20.891	848.755	644.201
319.139	20.948	848.075	643.839
320.154	20.902	847.987	643.545
321.168	21.051	847.294	643.514
322.183	21.258	846.600	643.690
323.197	21.194	846.669	643.453
324.212	21.333	845.556	643.062
325.227	21.123	844.994	641.803
326.241	21.035	844.686	641.188
327.256	21.026	844.161	640.702
328.270	21.128	843.418	640.456
329.285	21.168	842.738	640.027
330.300	20.922	842.161	638.633
331.314	21.125	841.757	639.013
332.329	21.502	841.524	640.159
333.343	21.451	841.007	639.524
334.358	21.452	840.802	639.314
335.373	21.644	840.157	639.466
336.387	21.530	840.241	639.060
337.402	21.774	839.697	639.478
338.416	21.875	839.515	639.654
339.431	22.114	839.378	640.363
340.446	22.201	838.783	640.168
341.460	22.166	838.232	639.562
342.475	22.109	838.345	639.385
343.489	22.292	837.860	639.626
344.504	22.267	837.460	639.172
345.519	22.137	837.254	638.486
346.533	22.213	836.436	638.083
347.548	21.961	835.250	636.206
348.562	21.600	834.694	634.418
349.577	21.697	833.693	633.955
350.592	21.488	833.191	632.761
351.606	21.489	832.502	632.183
352.621	21.576	831.654	631.798
353.635	21.685	831.180	631.774
354.650	21.735	830.960	631.734
355.665	21.800	830.563	631.610
356.679	21.889	829.450	631.026
357.694	21.733	829.108	630.149
358.708	21.789	828.486	629.822
359.723	21.947	827.919	629.903
360.738	21.947	826.916	629.086
361.752	21.961	826.559	628.806
362.767	22.300	826.329	629.789
363.781	22.198	826.138	629.226
364.796	22.524	825.219	629.634
365.810	22.568	825.292	629.791
366.825	22.576	824.872	629.444
367.840	22.413	824.358	628.415
368.854	22.339	823.974	627.801
369.869	22.204	823.479	626.886
370.883	22.386	822.636	626.839
371.898	22.447	822.746	627.083
372.913	22.353	822.554	626.548
373.927	22.423	821.318	625.799
374.942	22.331	821.135	625.277
375.956	22.460	821.313	625.816
376.971	22.784	820.153	626.025
377.986	22.722	820.103	625.712
379.000	22.762	819.629	625.437
380.015	22.624	819.115	624.501
381.029	22.651	818.088	623.759
382.044	22.818	817.540	623.876
383.059	22.730	817.139	623.206
384.073	22.475	816.386	621.673
385.088	22.514	815.306	620.937
386.102	22.220	814.996	619.608
387.117	22.314	814.316	619.367
388.132	22.274	813.813	618.789
389.146	22.249	813.455	618.374
390.161	22.569	813.401	619.404
391.175	22.590	812.718	618.903
392.190	22.333	812.163	617.522
393.205	22.281	811.419	616.719
394.219	22.096	811.407	616.009
395.234	22.148	810.613	615.531
396.248	22.001	810.123	614.592
397.263	21.896	809.504	613.700
398.278	21.858	809.378	613.418
399.292	22.017	808.588	613.320
400.307	22.022	807.767	612.661
401.321	21.974	807.723	612.406
402.336	22.117	807.550	612.717
403.350	22.294	807.099	612.939
404.365	22.558	806.565	613.398
405.380	22.720	806.103	613.555
406.394	22.796	805.755	613.499
407.409	22.896	805.569	613.653
408.423	22.952	805.062	613.407
409.438	22.997	805.077	613.520
410.453	23.115	804.508	613.443
411.467	23.099	804.232	613.121
412.482	23.218	803.669	613.049
413.496	23.198	803.934	613.127
414.511	23.045	803.170	611.963
415.526	23.061	802.536	611.480
416.540	23.121	802.044	611.258
417.555	23.194	801.278	610.873
418.569	23.054	801.049	610.161
419.584	23.047	800.506	609.669
420.599	23.031	800.521	609.572
421.613	165.312	1371.048	1797.944
422.628	143.687	1454.140	1798.017
