DTS Sentinel unit serial number:	SN413079Multiplexer serial number:	ORYXHardware model number:	OX4-SRSoftware version number:	ORYX F/W v4.00 Oryx Data Collector v3.7.2.0data status	okinstallation	princeton_trtdifferential loss correction	single-endedforward channel	channel 1reverse channel	N/Adate	2019/09/12time	16:48:11forward acquisition time	60.00reverse acquisition time	0.00gamma	496.2192k internal	0.2308k external	0.2308temperature offset calibration	1.0098default loss term (dB/km)	0.3790temperature slope calibration	1.0000multiplexer offset coefficient	1.0000multiplexer slope coefficient	1.0000fibre end	0.00T internal ref (°C)	36.34T ext. ref 1 (°C)	2.75T ext. ref 2 (°C)	29.58length (m)	temperature (°C)	Stokes	anti-Stokes-747.200	-200.000	0.017	-0.261
-746.185	-200.000	0.069	0.357
-745.171	-97.263	0.161	0.043
-744.156	800.000	0.071	0.283
-743.142	91.942	0.060	0.068
-742.127	-114.352	-0.102	0.020
-741.112	60.937	0.143	0.145
-740.098	-200.000	-0.068	0.407
-739.083	144.982	-0.083	-0.113
-738.069	-200.000	0.032	0.228
-737.054	32.323	0.099	-0.087
-736.039	54.261	-0.181	-0.177
-735.025	23.412	0.436	0.364
-734.010	116.593	-0.388	-0.484
-732.996	-37.880	-0.050	-0.027
-731.981	84.780	0.043	-0.048
-730.966	566.443	-0.106	-0.261
-729.952	-200.000	-0.030	-0.211
-728.937	-66.005	0.221	0.090
-727.923	-133.515	0.242	0.031
-726.908	-46.339	-0.392	0.196
-725.894	-200.000	0.003	-0.203
-724.879	197.364	0.061	0.095
-723.864	-40.282	-0.344	0.182
-722.850	59.244	0.077	0.077
-721.835	548.812	0.058	-0.141
-720.821	-147.753	-0.129	-0.011
-719.806	-200.000	0.030	-0.278
-718.791	800.000	-0.019	0.074
-717.777	114.928	0.108	0.134
-716.762	205.043	-0.313	-0.493
-715.748	458.009	0.047	-0.106
-714.733	-70.269	-0.237	0.091
-713.718	400.728	-0.024	0.051
-712.704	-200.000	0.044	0.220
-711.689	42.045	-0.187	0.172
-710.675	-200.000	-0.060	0.318
-709.660	-147.332	-0.519	0.045
-708.645	-88.555	0.117	-0.035
-707.631	285.750	0.128	0.234
-706.616	16.900	0.111	-0.089
-705.602	146.196	0.133	-0.182
-704.587	-102.188	-0.192	0.047
-703.572	-8.360	-0.147	0.100
-702.558	57.207	-0.138	0.137
-701.543	800.000	0.029	0.100
-700.529	-200.000	0.008	-0.102
-699.514	800.000	-0.018	-0.068
-698.499	-16.182	-0.064	-0.041
-697.485	23.107	-0.162	0.135
-696.470	-97.237	0.085	-0.023
-695.456	-165.861	-0.211	0.009
-694.441	300.223	0.269	0.504
-693.426	-144.092	0.084	0.008
-692.412	10.588	0.038	0.029
-691.397	-38.882	-0.209	0.112
-690.383	-10.761	0.137	-0.092
-689.368	-73.651	-0.368	0.136
-688.354	-114.878	-0.369	0.071
-687.339	146.729	-0.242	0.329
-686.324	800.000	0.131	0.374
-685.310	221.281	0.217	-0.354
-684.295	-38.105	0.460	0.248
-683.281	800.000	-0.085	-0.238
-682.266	466.805	-0.118	-0.268
-681.251	-76.930	0.123	0.043
-680.237	358.563	-0.056	0.114
-679.222	-42.900	-0.146	0.075
-678.208	-200.000	-0.055	0.386
-677.193	-200.000	0.023	0.135
-676.178	1.191	-0.195	-0.142
-675.164	132.489	0.197	0.257
-674.149	286.860	0.086	0.157
-673.135	800.000	-0.068	-0.298
-672.120	-44.704	0.160	0.081
-671.105	-147.115	-0.182	0.016
-670.091	-1.912	0.303	-0.216
-669.076	-200.000	-0.016	0.323
-668.062	171.298	0.258	0.376
-667.047	514.412	-0.069	-0.164
-666.032	422.276	0.139	-0.303
-665.018	409.392	0.142	0.305
-664.003	106.132	-0.165	-0.198
-662.989	116.849	-0.015	-0.019
-661.974	407.818	0.049	0.105
-660.959	119.191	0.115	-0.145
-659.945	50.069	-0.224	0.214
-658.930	-200.000	0.053	0.356
-657.916	46.999	-0.119	0.112
-656.901	-200.000	0.003	0.023
-655.886	220.219	-0.138	-0.224
-654.872	58.921	-0.246	-0.245
-653.857	579.426	-0.055	0.135
-652.843	110.297	0.100	0.122
-651.828	-143.743	0.130	-0.012
-650.814	-6.949	0.163	0.112
-649.799	-162.866	-0.321	0.016
-648.784	-169.865	0.041	-0.001
-647.770	-200.000	-0.006	-0.412
-646.755	168.126	-0.118	0.170
-645.741	-130.067	0.154	0.021
-644.726	0.796	-0.154	0.111
-643.711	62.706	0.173	-0.175
-642.697	25.652	0.145	0.123
-641.682	33.802	-0.185	-0.163
-640.668	-9.553	0.034	0.023
-639.653	-200.000	-0.030	-0.248
-638.638	-200.000	-0.040	-0.385
-637.624	195.381	-0.204	-0.314
-636.609	240.417	0.133	0.224
-635.595	225.911	-0.141	0.231
-634.580	140.582	-0.070	0.094
-633.565	-5.042	-0.205	0.143
-632.551	-64.891	-0.119	0.049
-631.536	-200.000	0.009	-0.113
-630.522	151.813	-0.035	0.048
-629.507	-50.614	-0.159	-0.076
-628.492	150.043	-0.071	-0.098
-627.478	-19.136	-0.137	-0.086
-626.463	122.204	0.090	-0.113
-625.449	145.290	0.167	-0.227
-624.434	-200.000	-0.036	-0.176
-623.419	200.262	0.054	0.084
-622.405	-144.277	0.257	0.024
-621.390	114.292	-0.140	0.172
-620.376	165.306	0.129	0.184
-619.361	125.689	-0.102	0.130
-618.346	65.591	-0.093	0.095
-617.332	-200.000	-0.053	-0.301
-616.317	-115.263	-0.328	0.063
-615.303	-162.458	0.059	0.003
-614.288	-168.483	-0.157	-0.006
-613.273	83.458	0.114	-0.126
-612.259	86.987	-0.169	0.189
-611.244	166.474	-0.061	0.087
-610.230	-35.067	-0.276	-0.152
-609.215	-2.122	-0.155	-0.110
-608.201	181.776	0.083	-0.123
-607.186	535.393	-0.132	-0.316
-606.171	800.000	0.076	-0.242
-605.157	-106.471	-0.089	-0.020
-604.142	-106.054	0.214	0.049
-603.128	468.977	-0.108	0.245
-602.113	-186.462	-0.287	-0.004
-601.098	167.469	0.048	-0.069
-600.084	-200.000	0.028	-0.368
-599.069	800.000	0.115	0.388
-598.055	-19.684	-0.234	-0.146
-597.040	209.469	-0.022	-0.035
-596.025	-138.761	0.245	-0.027
-595.011	123.003	-0.164	-0.208
-593.996	800.000	0.042	0.178
-592.982	-45.580	-0.214	0.107
-591.967	430.436	-0.143	-0.313
-590.952	800.000	0.104	-0.412
-589.938	-75.705	-0.180	-0.065
-588.923	800.000	-0.087	0.356
-587.909	-104.627	-0.191	-0.045
-586.894	-153.745	0.254	0.018
-585.879	182.992	0.238	0.355
-584.865	0.198	0.045	-0.032
-583.850	438.090	-0.121	-0.266
-582.836	737.042	-0.117	-0.318
-581.821	-132.963	-0.076	0.010
-580.806	-141.085	-0.246	-0.025
-579.792	98.818	-0.031	0.036
-578.777	-121.282	0.310	0.052
-577.763	453.746	0.130	-0.290
-576.748	-164.684	-0.404	-0.018
-575.733	-125.901	-0.180	-0.027
-574.719	-104.615	-0.185	-0.043
-573.704	160.440	-0.072	0.101
-572.690	-48.999	0.186	-0.090
-571.675	-200.000	0.008	-0.116
-570.661	-88.705	-0.038	-0.011
-569.646	-107.061	0.158	-0.035
-568.631	-74.600	0.282	-0.102
-567.617	-54.544	0.150	0.069
-566.602	800.000	0.058	-0.172
-565.588	-138.683	0.258	-0.028
-564.573	-105.960	-0.169	-0.038
-563.558	-124.331	0.302	0.048
-562.544	-200.000	0.051	0.227
-561.529	220.711	0.123	-0.200
-560.515	-200.000	0.010	-0.303
-559.500	-200.000	-0.003	-0.134
-558.485	800.000	0.041	-0.153
-557.471	-3.611	-0.259	0.182
-556.456	800.000	0.048	0.188
-555.442	-200.000	0.012	0.208
-554.427	732.110	-0.046	0.124
-553.412	259.794	0.059	-0.102
-552.398	-200.000	-0.003	-0.248
-551.383	-110.430	0.318	-0.067
-550.369	-126.495	0.232	-0.035
-549.354	800.000	0.040	0.147
-548.339	-110.448	0.239	-0.050
-547.325	749.722	-0.033	0.089
-546.310	113.511	0.130	0.159
-545.296	117.636	-0.166	0.206
-544.281	-98.666	0.028	0.007
-543.266	185.028	0.168	-0.251
-542.252	-121.870	0.156	-0.026
-541.237	-4.844	-0.061	-0.043
-540.223	146.659	0.115	0.156
-539.208	67.769	-0.195	-0.201
-538.193	478.755	0.070	0.159
-537.179	-56.219	-0.403	-0.181
-536.164	-200.000	0.007	0.198
-535.150	139.482	0.204	0.270
-534.135	-200.000	-0.020	-0.099
-533.121	800.000	0.102	-0.300
-532.106	284.468	0.016	0.029
-531.091	418.373	0.031	-0.068
-530.077	-23.699	0.242	0.146
-529.062	189.133	-0.274	-0.414
-528.048	194.479	0.042	0.065
-527.033	675.271	-0.075	-0.195
-526.018	-27.039	0.102	0.060
-525.004	-200.000	-0.070	0.351
-523.989	-197.177	-0.258	-0.002
-522.975	-0.296	0.132	0.095
-521.960	93.644	-0.286	0.326
-520.945	414.214	0.092	0.198
-519.931	187.601	0.037	-0.055
-518.916	-55.713	0.197	0.089
-517.902	800.000	-0.073	0.221
-516.887	-200.000	0.021	-0.166
-515.872	800.000	0.106	-0.414
-514.858	-32.124	-0.089	0.050
-513.843	-96.014	0.142	-0.038
-512.829	-200.000	0.008	-0.096
-511.814	800.000	0.112	0.318
-510.799	-88.158	0.119	-0.036
-509.785	297.931	0.086	0.160
-508.770	-40.228	-0.083	0.044
-507.756	-200.000	-0.078	-0.470
-506.741	-78.539	0.211	0.073
-505.726	-94.993	-0.185	0.050
-504.712	225.771	-0.175	-0.286
-503.697	-200.000	-0.047	-0.322
-502.683	112.362	-0.310	-0.378
-501.668	-124.992	-0.321	-0.050
-500.653	130.905	0.106	0.137
-499.639	-45.782	-0.099	0.049
-498.624	-154.032	-0.106	0.007
-497.610	-200.000	-0.013	-0.275
-496.595	184.185	-0.059	-0.088
-495.581	17.896	0.065	0.052
-494.566	-200.000	-0.044	0.207
-493.551	-200.000	0.002	0.197
-492.537	-42.183	0.308	-0.158
-491.522	-189.342	-0.098	0.001
-490.508	502.270	-0.021	0.048
-489.493	-200.000	-0.054	-0.558
-488.478	40.157	0.112	-0.102
-487.464	51.746	-0.102	0.097
-486.449	800.000	0.082	-0.302
-485.435	-79.947	-0.175	0.059
-484.420	249.095	0.067	-0.115
-483.405	-33.402	-0.161	-0.090
-482.391	800.000	-0.055	-0.220
-481.376	800.000	0.167	0.483
-480.362	-146.846	0.384	-0.033
-479.347	52.878	0.176	0.169
-478.332	-28.503	-0.211	-0.122
-477.318	-200.000	0.017	0.421
-476.303	-125.307	-0.246	-0.038
-475.289	217.314	-0.135	0.217
-474.274	-200.000	-0.019	0.101
-473.259	-200.000	-0.005	-0.149
-472.245	-116.750	-0.129	0.024
-471.230	-88.548	-0.096	0.029
-470.216	800.000	0.030	-0.105
-469.201	-200.000	-0.011	0.131
-468.186	215.195	0.099	0.158
-467.172	-42.119	0.171	0.088
-466.157	10.986	-0.025	-0.019
-465.143	3.167	-0.072	-0.053
-464.128	414.322	0.126	-0.269
-463.113	45.359	-0.060	0.056
-462.099	43.091	0.059	0.054
-461.084	-48.171	-0.306	-0.148
-460.070	-200.000	-0.016	0.187
-459.055	-200.000	-0.034	-0.155
-458.040	394.022	-0.133	0.277
-457.026	103.396	0.028	0.033
-456.011	-104.158	0.270	-0.063
-454.997	-43.848	-0.222	-0.113
-453.982	-123.466	0.325	-0.052
-452.968	249.963	-0.059	-0.101
-451.953	76.471	0.103	0.109
-450.938	-73.277	-0.015	0.005
-449.924	352.688	-0.016	-0.032
-448.909	-50.883	0.057	0.027
-447.895	-200.000	-0.056	0.405
-446.880	97.400	0.219	-0.252
-445.865	-200.000	0.038	0.362
-444.851	-146.317	0.263	-0.023
-443.836	-41.416	0.104	-0.054
-442.822	-58.092	-0.054	-0.023
-441.807	-8.272	0.132	0.089
-440.792	800.000	-0.018	-0.063
-439.778	-71.942	0.085	-0.032
-438.763	339.259	0.050	-0.098
-437.749	-143.040	-0.518	-0.050
-436.734	117.966	0.267	0.330
-435.719	-27.310	0.146	-0.086
-434.705	-200.000	-0.028	0.194
-433.690	-8.619	0.125	0.084
-432.676	75.632	0.098	0.104
-431.661	340.134	-0.237	-0.463
-430.646	-40.333	0.254	-0.133
-429.632	30.441	-0.064	0.055
-428.617	46.688	-0.139	0.129
-427.603	-82.025	0.246	-0.081
-426.588	108.740	0.150	0.179
-425.573	781.181	-0.076	-0.207
-424.559	209.510	-0.171	0.269
-423.544	145.905	0.134	-0.181
-422.530	-155.031	0.069	0.005
-421.515	132.751	-0.121	0.156
-420.500	-78.349	0.161	0.055
-419.486	246.272	0.091	-0.154
-418.471	-82.021	-0.149	0.049
-417.457	72.927	0.157	0.165
-416.442	25.647	0.059	-0.049
-415.428	-200.000	0.001	0.095
-414.413	-54.059	-0.196	-0.089
-413.398	-83.925	-0.496	0.158
-412.384	-82.846	-0.121	0.039
-411.369	800.000	0.043	0.182
-410.355	199.643	0.210	0.324
-409.340	-3.710	0.278	0.194
-408.325	-63.463	-0.258	0.106
-407.311	192.668	0.080	-0.121
-406.296	-116.671	-0.225	-0.041
-405.282	-189.254	0.088	-0.001
-404.267	181.142	-0.206	-0.304
-403.252	686.162	0.150	0.393
-402.238	356.564	0.044	-0.087
-401.223	-3.582	-0.105	-0.073
-400.209	-200.000	-0.042	0.253
-399.194	-44.240	0.239	0.120
-398.179	800.000	-0.054	-0.225
-397.165	562.154	-0.077	-0.187
-396.150	-200.000	0.065	-0.404
-395.136	155.226	-0.090	-0.124
-394.121	231.171	-0.273	-0.447
-393.106	800.000	0.032	0.139
-392.092	800.000	0.135	0.408
-391.077	484.002	-0.098	0.223
-390.063	245.321	0.117	0.198
-389.048	-200.000	-0.014	0.079
-388.033	-28.237	0.200	-0.116
-387.019	-66.236	0.203	0.081
-386.004	54.991	-0.088	-0.085
-384.990	137.148	-0.232	0.304
-383.975	-200.000	-0.008	-0.318
-382.960	256.646	-0.016	0.027
-381.946	-182.563	0.104	0.002
-380.931	-30.606	-0.101	0.057
-379.917	800.000	0.061	-0.213
-378.902	-80.030	0.453	0.152
-377.888	-200.000	0.007	0.195
-376.873	-57.095	-0.214	-0.095
-375.858	20.136	0.285	-0.230
-374.844	248.742	0.036	0.061
-373.829	326.007	0.155	-0.298
-372.815	-200.000	0.005	-0.070
-371.800	-200.000	-0.004	0.444
-370.785	800.000	-0.083	0.312
-369.771	73.623	0.049	-0.052
-368.756	399.214	-0.126	0.265
-367.742	-200.000	0.030	0.400
-366.727	-183.591	0.009	0.000
-365.712	-39.773	0.136	0.071
-364.698	-152.140	0.239	0.017
-363.683	-59.907	-0.210	-0.090
-362.669	-200.000	0.003	0.230
-361.654	223.423	0.150	0.243
-360.639	-200.000	-0.013	-0.177
-359.625	-200.000	-0.017	0.208
-358.610	18.806	-0.351	0.281
-357.596	800.000	0.036	-0.110
-356.581	268.409	-0.153	-0.269
-355.566	-100.689	-0.272	0.067
-354.552	-200.000	-0.013	-0.105
-353.537	492.550	-0.032	0.074
-352.523	-200.000	0.033	0.260
-351.508	-158.257	-0.302	0.018
-350.493	-149.010	0.186	0.015
-349.479	-70.895	-0.089	-0.033
-348.464	-200.000	-0.023	0.189
-347.450	800.000	-0.085	0.337
-346.435	-93.938	-0.171	0.047
-345.420	84.549	-0.159	0.174
-344.406	704.843	0.041	0.109
-343.391	3.574	0.221	0.161
-342.377	-78.205	-0.395	0.136
-341.362	800.000	0.029	-0.121
-340.348	-53.265	0.076	0.035
-339.333	51.898	0.237	0.226
-338.318	-200.000	0.049	-0.352
-337.304	97.722	-0.114	-0.131
-336.289	-200.000	-0.011	-0.079
-335.275	25.236	0.197	0.164
-334.260	215.137	-0.106	-0.168
-333.245	-200.000	0.026	0.219
-332.231	800.000	-0.017	0.050
-331.216	800.000	-0.126	0.388
-330.202	-47.151	0.048	-0.024
-329.187	247.054	0.045	0.075
-328.172	-97.084	0.150	0.039
-327.158	-52.150	0.313	0.145
-326.143	-176.887	-0.170	0.004
-325.129	4.259	0.206	0.151
-324.114	9.021	0.264	0.200
-323.099	78.605	-0.084	-0.090
-322.085	272.623	-0.154	-0.272
-321.070	335.360	-0.081	-0.158
-320.056	-200.000	-0.008	-0.242
-319.041	800.000	-0.094	-0.267
-318.026	-80.852	0.214	-0.071
-317.012	0.596	-0.307	0.219
-315.997	-200.000	-0.001	0.191
-314.983	800.000	0.061	-0.251
-313.968	280.396	0.200	-0.357
-312.953	-21.607	0.282	0.172
-311.939	15.323	-0.130	-0.102
-310.924	141.676	0.154	0.204
-309.910	-200.000	0.007	0.158
-308.895	43.221	-0.141	0.128
-307.880	800.000	0.064	0.229
-306.866	133.422	-0.108	-0.140
-305.851	-6.473	0.187	-0.127
-304.837	-12.714	0.228	-0.148
-303.822	-118.270	-0.474	0.084
-302.807	800.000	-0.070	-0.224
-301.793	84.914	0.089	-0.098
-300.778	-28.532	-0.144	-0.083
-299.764	800.000	0.037	-0.126
-298.749	-65.918	-0.374	0.149
-297.735	37.550	-0.190	-0.168
-296.720	-200.000	0.002	0.121
-295.705	-200.000	0.035	0.194
-294.691	-185.098	-0.173	-0.003
-293.676	-200.000	-0.017	0.097
-292.662	-4.473	-0.256	-0.177
-291.647	413.908	-0.150	0.319
-290.632	69.488	0.079	0.081
-289.618	0.794	-0.206	0.147
-288.603	-2.786	-0.228	-0.159
-287.589	135.722	0.099	0.129
-286.574	114.169	0.219	0.266
-285.559	108.109	0.059	-0.070
-284.545	-67.787	0.135	-0.053
-283.530	169.973	-0.069	0.099
-282.516	398.300	0.246	0.514
-281.501	292.528	-0.057	0.104
-280.486	746.840	-0.028	0.075
-279.472	-200.000	0.075	0.472
-278.457	23.987	-0.072	0.060
-277.443	154.201	0.175	-0.239
-276.428	181.274	0.168	-0.246
-275.413	-103.902	-0.356	0.083
-274.399	55.276	0.194	-0.187
-273.384	800.000	-0.078	-0.244
-272.370	-25.968	-0.255	-0.149
-271.355	63.213	0.094	0.094
-270.340	-22.898	-0.122	-0.073
-269.326	-58.640	0.064	0.028
-268.311	-133.168	-0.146	0.018
-267.297	-29.163	0.174	-0.100
-266.282	800.000	0.096	0.281
-265.267	4.150	-0.147	-0.107
-264.253	-200.000	-0.002	-0.071
-263.238	-78.918	0.228	-0.077
-262.224	747.387	0.117	0.313
-261.209	800.000	0.051	0.213
-260.195	800.000	0.014	0.043
-259.180	-118.093	-0.248	0.044
-258.165	112.705	0.090	-0.108
-257.151	800.000	-0.035	-0.119
-256.136	28.413	0.051	0.043
-255.122	-52.302	0.359	0.166
-254.107	180.257	0.108	0.158
-253.092	9.045	-0.219	-0.165
-252.078	133.229	-0.116	-0.150
-251.063	-158.769	0.216	-0.012
-250.049	-200.000	-0.063	-0.288
-249.034	320.977	0.096	-0.182
-248.019	37.994	0.174	0.154
-247.005	-30.049	-0.289	-0.164
-245.990	800.000	0.088	-0.247
-244.976	800.000	-0.066	-0.201
-243.961	-119.183	0.376	-0.065
-242.946	327.933	0.097	-0.186
-241.932	-117.439	0.228	-0.041
-240.917	303.826	0.211	-0.391
-239.903	211.665	-0.140	0.220
-238.888	800.000	0.048	-0.139
-237.873	-93.146	0.319	-0.088
-236.859	-200.000	-0.057	0.290
-235.844	-51.222	0.092	-0.043
-234.830	-50.071	-0.119	0.056
-233.815	-127.767	0.079	-0.011
-232.800	311.444	0.141	0.263
-231.786	-200.000	0.018	-0.153
-230.771	17.747	0.156	0.124
-229.757	-84.417	0.169	-0.053
-228.742	-85.747	-0.160	-0.050
-227.727	-95.838	0.150	-0.040
-226.713	-88.178	0.347	-0.104
-225.698	800.000	-0.100	-0.300
-224.684	147.957	0.054	0.073
-223.669	-0.323	-0.292	0.207
-222.655	569.213	0.131	0.317
-221.640	-54.731	0.199	0.089
-220.625	-200.000	-0.004	0.177
-219.611	-90.119	-0.075	-0.022
-218.596	27.187	0.258	-0.216
-217.582	800.000	0.093	-0.282
-216.567	50.134	0.072	0.068
-215.552	-143.639	0.207	-0.020
-214.538	-99.541	0.307	-0.077
-213.523	-200.000	0.016	-0.085
-212.509	286.039	-0.072	0.129
-211.494	-200.000	0.016	-0.258
-210.479	-101.912	-0.421	-0.101
-209.465	800.000	0.055	0.201
-208.450	-110.924	-0.158	0.032
-207.436	392.012	0.108	-0.223
-206.421	-99.433	-0.315	-0.079
-205.406	-186.499	0.169	-0.002
-204.392	-6.587	-0.229	0.155
-203.377	315.774	-0.066	0.124
-202.363	-142.738	0.191	-0.019
-201.348	-0.980	-0.127	0.089
-200.333	1.166	-0.146	0.104
-199.319	391.565	-0.227	0.469
-198.304	10.710	-0.146	-0.111
-197.290	-48.215	-0.334	-0.160
-196.275	-200.000	-0.253	0.000
-195.260	92.527	-0.106	-0.119
-194.246	183.777	0.251	0.369
-193.231	800.000	-0.079	-0.216
-192.217	-200.000	0.024	0.175
-191.202	-153.172	-0.137	-0.010
-190.187	412.005	0.039	-0.083
-189.173	-200.000	-0.022	-0.274
-188.158	-110.185	0.096	0.020
-187.144	-200.000	0.012	0.134
-186.129	9.415	-0.240	-0.180
-185.114	66.023	0.192	-0.194
-184.100	176.270	-0.072	0.103
-183.085	-108.715	0.284	-0.060
-182.071	800.000	-0.061	-0.236
-181.056	50.181	-0.235	-0.221
-180.042	43.921	-0.055	0.050
-179.027	517.018	-0.104	0.242
-178.012	255.565	-0.123	0.209
-176.998	0.547	-0.226	0.161
-175.983	91.767	0.279	0.312
-174.969	86.402	-0.164	0.180
-173.954	-30.575	0.481	-0.271
-172.939	106.130	-0.072	-0.085
-171.925	70.544	0.080	0.082
-170.910	-16.923	0.293	-0.184
-169.896	-200.000	-0.033	-0.284
-168.881	220.031	-0.158	0.252
-167.866	389.090	-0.105	-0.217
-166.852	-184.682	0.271	-0.004
-165.837	-101.899	-0.124	0.030
-164.823	-200.000	0.041	-0.310
-163.808	-6.630	-0.107	-0.073
-162.793	481.158	0.134	-0.301
-161.779	-1.630	-0.174	-0.122
-160.764	800.000	-0.039	0.152
-159.750	-41.913	0.122	-0.062
-158.735	149.118	0.154	0.208
-157.720	-200.000	0.028	0.269
-156.706	-200.000	0.040	0.299
-155.691	-136.888	0.173	0.020
-154.677	60.823	0.059	0.058
-153.662	371.989	0.098	-0.197
-152.647	-84.934	0.160	0.050
-151.633	37.670	-0.165	-0.146
-150.618	555.947	0.050	-0.119
-149.604	800.000	-0.149	-0.461
-148.589	-28.118	-0.448	0.257
-147.574	800.000	-0.034	-0.109
-146.560	-111.547	0.216	0.044
-145.545	-50.408	-0.207	0.097
-144.531	-200.000	0.024	0.413
-143.516	-200.000	0.032	-0.192
-142.502	-200.000	-0.017	-0.140
-141.487	-110.174	0.340	-0.070
-140.472	-200.000	-0.040	0.300
-139.458	159.420	0.077	0.107
-138.443	-200.000	-0.020	0.204
-137.429	-85.719	0.024	-0.007
-136.414	373.387	0.140	-0.283
-135.399	30.119	0.133	-0.112
-134.385	-122.543	-0.259	-0.042
-133.370	4.280	-0.218	-0.159
-132.356	233.119	-0.220	0.359
-131.341	-200.000	0.073	-0.336
-130.326	-120.145	0.211	0.036
-129.312	-200.000	0.063	-0.289
-128.297	-96.826	-0.375	0.098
-127.283	-200.000	-0.023	0.148
-126.268	17.458	0.131	-0.104
-125.253	-115.632	0.168	-0.031
-124.239	85.150	0.156	-0.169
-123.224	257.746	-0.122	0.209
-122.210	-107.940	-0.328	-0.071
-121.195	-200.000	-0.013	-0.465
-120.180	-27.385	0.219	-0.126
-119.166	800.000	0.014	0.056
-118.151	-59.319	-0.091	0.039
-117.137	-123.690	-0.142	-0.022
-116.122	-200.000	-0.043	-0.201
-115.107	-36.302	0.216	0.115
-114.093	192.635	0.402	0.602
-113.078	34.198	0.142	0.123
-112.064	-8.320	-0.149	-0.099
-111.049	-67.098	0.205	0.080
-110.034	-130.943	0.469	-0.062
-109.020	94.146	-0.197	0.222
-108.005	-200.000	0.018	-0.110
-106.991	-122.121	-0.071	-0.012
-105.976	-109.634	-0.133	-0.028
-104.962	9.973	0.187	-0.141
-103.947	-200.000	-0.012	-0.129
-102.932	-139.183	0.032	-0.003
-101.918	-25.294	-0.362	-0.212
-100.903	-200.000	-0.001	-0.324
-99.889	-2.127	-0.271	-0.189
-98.874	-200.000	-0.035	-0.301
-97.859	34.993	-0.285	-0.247
-96.845	800.000	0.119	0.355
-95.830	-71.004	0.306	0.114
-94.816	-41.736	-0.182	-0.092
-93.801	-200.000	0.046	-0.214
-92.786	-84.576	-0.322	0.101
-91.772	-72.206	0.236	0.087
-90.757	104.695	0.050	-0.058
-89.743	17.156	-0.115	-0.090
-88.728	-153.533	-0.377	-0.026
-87.713	-200.000	-0.003	0.038
-86.699	446.220	-0.225	0.491
-85.684	180.390	0.223	0.325
-84.670	-16.089	0.177	-0.111
-83.655	-54.822	0.127	-0.057
-82.640	-26.878	0.417	0.241
-81.626	-23.908	0.162	0.096
-80.611	529.026	0.137	-0.321
-79.597	60.334	0.145	-0.142
-78.582	149.827	-0.199	-0.268
-77.567	-70.855	-0.184	-0.069
-76.553	-117.876	0.333	0.059
-75.538	-200.000	0.036	-0.278
-74.524	-200.000	0.011	0.227
-73.509	-200.000	0.011	-0.210
-72.494	280.547	-0.149	-0.264
-71.480	-190.497	-0.150	0.002
-70.465	342.145	0.082	0.159
-69.451	-17.989	0.305	0.189
-68.436	184.630	0.131	0.192
-67.422	161.621	-0.190	-0.263
-66.407	-49.881	-0.049	0.023
-65.392	-200.000	-0.054	0.476
-64.378	167.295	-0.057	-0.080
-63.363	-200.000	0.000	0.059
-62.349	798.831	0.111	0.303
-61.334	10.274	-0.958	-0.721
-60.319	54.516	0.384	0.366
-59.305	800.000	-0.205	-0.647
-58.290	413.286	0.587	1.235
-57.276	800.000	0.538	1.533
-56.261	-200.000	93.542	563.481
-55.246	549.879	1369.825	3249.258
-54.232	153.205	2572.313	3481.851
-53.217	117.452	2169.153	2639.321
-52.203	48.181	1628.676	1506.890
-51.188	39.938	1364.905	1212.483
-50.173	36.525	1322.418	1154.348
-49.159	58.378	1370.369	1329.413
-48.144	62.610	1388.802	1372.901
-47.130	40.140	1343.129	1194.165
-46.115	36.524	1324.862	1156.295
-45.100	36.293	1320.823	1151.346
-44.086	36.190	1318.466	1148.633
-43.071	36.243	1315.820	1146.594
-42.057	36.064	1314.160	1144.044
-41.042	36.150	1312.072	1142.689
-40.027	36.209	1310.763	1141.854
-39.013	36.240	1308.891	1140.358
-37.998	36.324	1307.019	1139.182
-36.984	36.308	1305.463	1137.684
-35.969	36.376	1303.541	1136.361
-34.954	36.285	1302.017	1134.453
-33.940	36.320	1300.645	1133.419
-32.925	36.357	1299.316	1132.436
-31.911	36.470	1297.617	1131.568
-30.896	36.391	1296.389	1129.990
-29.881	36.483	1294.898	1129.184
-28.867	36.546	1293.136	1127.974
-27.852	36.486	1291.914	1126.512
-26.838	36.338	1290.981	1124.792
-25.823	36.475	1288.589	1123.456
-24.809	36.425	1287.759	1122.399
-23.794	36.533	1286.015	1121.463
-22.779	36.455	1284.405	1119.564
-21.765	36.377	1283.862	1118.594
-20.750	36.377	1282.472	1117.337
-19.736	36.305	1280.971	1115.566
-18.721	36.336	1279.612	1114.521
-17.706	36.240	1278.942	1113.336
-16.692	36.229	1277.640	1112.098
-15.677	36.309	1276.299	1111.348
-14.663	36.304	1274.873	1110.032
-13.648	36.298	1273.884	1109.092
-12.633	36.343	1272.964	1108.506
-11.619	36.259	1272.274	1107.377
-10.604	36.374	1271.244	1107.095
-9.590	36.286	1270.597	1105.988
-8.575	36.235	1269.720	1104.885
-7.560	36.295	1269.109	1104.655
-6.546	36.299	1268.096	1103.750
-5.531	36.249	1267.027	1102.492
-4.517	36.258	1266.392	1101.945
-3.502	36.209	1265.432	1100.786
-2.487	36.299	1264.038	1100.047
-1.473	36.096	1260.216	1095.520
-0.458	34.265	1244.259	1071.318
0.556	30.588	1224.124	1025.071
1.571	25.997	1228.084	1002.835
2.586	24.716	1242.755	1007.510
3.600	23.608	1231.835	992.378
4.615	17.369	1158.832	900.555
5.629	7.499	1081.091	791.092
6.644	3.163	1059.972	754.344
7.659	2.727	1057.025	750.050
8.673	2.493	1056.098	748.182
9.688	2.609	1054.265	747.384
10.702	2.944	1053.287	748.254
11.717	8.849	1061.675	783.071
12.731	18.922	1075.778	843.042
13.746	24.779	1083.498	877.856
14.761	26.188	1085.120	886.011
15.775	26.240	1084.400	885.599
16.790	26.026	1083.541	883.772
17.804	26.013	1083.236	883.377
18.819	26.104	1082.936	883.499
19.834	26.133	1082.664	883.344
20.848	26.277	1081.649	883.142
21.863	26.240	1081.320	882.611
22.877	26.161	1080.929	881.829
23.892	26.035	1080.293	880.618
24.907	26.226	1079.371	880.720
25.921	26.189	1077.839	879.214
26.936	26.131	1076.604	877.844
27.950	26.087	1075.524	876.671
28.965	25.929	1073.534	874.206
29.980	26.068	1072.186	873.705
30.994	26.294	1071.021	873.770
32.009	26.299	1069.774	872.702
33.023	26.019	1068.839	870.513
34.038	26.162	1068.060	870.489
35.053	26.201	1067.401	870.063
36.067	26.200	1066.697	869.404
37.082	26.217	1066.600	869.332
38.096	26.372	1065.726	869.287
39.111	26.535	1064.984	869.390
40.126	26.293	1063.401	866.859
41.140	25.957	1061.805	863.873
42.155	25.755	1060.489	861.756
43.169	25.851	1059.675	861.477
44.184	25.806	1058.945	860.594
45.199	25.728	1058.234	859.569
46.213	25.891	1057.039	859.300
47.228	25.922	1056.567	858.986
48.242	26.008	1055.764	858.667
49.257	26.238	1054.365	858.548
50.271	26.254	1053.796	858.085
51.286	26.283	1053.136	857.609
52.301	26.245	1052.311	856.680
53.315	26.108	1051.766	855.512
54.330	26.121	1050.300	854.303
55.344	26.125	1049.905	853.925
56.359	26.154	1048.581	852.911
57.374	25.905	1047.588	850.855
58.388	25.885	1047.573	850.670
59.403	25.753	1046.095	848.773
60.417	25.616	1045.696	847.727
61.432	25.876	1044.950	848.273
62.447	25.912	1044.187	847.749
63.461	25.902	1043.499	847.067
64.476	25.843	1042.529	845.926
65.490	25.855	1041.748	845.277
66.505	25.781	1041.006	844.251
67.520	25.875	1040.990	844.606
68.534	25.799	1039.161	842.692
69.549	25.428	1038.287	840.175
70.563	25.298	1037.788	839.086
71.578	25.274	1036.842	838.137
72.593	25.111	1036.245	836.819
73.607	25.356	1035.259	837.091
74.622	25.742	1035.084	838.673
75.636	25.765	1034.383	838.137
76.651	25.613	1032.721	836.013
77.666	25.401	1032.627	834.878
78.680	25.529	1031.689	834.640
79.695	25.560	1031.366	834.445
80.709	25.612	1031.035	834.347
81.724	25.685	1029.940	833.723
82.739	25.945	1028.927	834.035
83.753	26.215	1028.914	835.199
84.768	26.345	1028.214	835.159
85.782	26.517	1026.990	834.882
86.797	26.337	1026.182	833.320
87.812	26.260	1024.990	831.925
88.826	26.377	1024.399	831.912
89.841	26.404	1023.549	831.269
90.855	26.437	1022.222	830.272
91.870	26.278	1021.918	829.219
92.884	26.260	1020.584	827.982
93.899	26.247	1019.494	826.968
94.914	26.296	1018.922	826.654
95.928	26.260	1017.654	825.388
96.943	25.949	1016.167	822.690
97.957	25.773	1014.918	820.802
98.972	25.695	1013.911	819.562
99.987	25.923	1013.726	820.375
101.001	26.108	1013.053	820.602
102.016	26.143	1011.872	819.730
103.030	25.942	1010.843	817.912
104.045	25.988	1010.003	817.369
105.060	25.777	1008.863	815.418
106.074	25.840	1008.882	815.649
107.089	26.275	1007.703	816.588
108.103	25.865	1006.917	814.025
109.118	25.783	1005.704	812.605
110.133	25.817	1004.578	811.775
111.147	25.711	1003.814	810.610
112.162	25.526	1003.020	809.062
113.176	25.760	1002.173	809.362
114.191	25.722	1001.115	808.264
115.206	25.421	1000.192	806.095
116.220	25.387	999.554	805.358
117.235	25.523	998.897	805.368
118.249	25.540	998.069	804.705
119.264	25.408	996.856	803.064
120.279	25.501	996.239	802.915
121.293	25.584	996.008	803.028
122.308	25.467	994.945	801.579
123.322	25.514	993.824	800.810
124.337	25.312	992.470	798.753
125.352	24.784	990.865	795.042
126.366	24.891	989.725	794.532
127.381	25.594	989.930	797.746
128.395	26.041	989.213	799.078
129.410	26.066	988.688	798.694
130.424	26.142	988.049	798.446
131.439	26.108	987.031	797.399
132.454	26.079	986.442	796.726
133.468	26.094	985.251	795.759
134.483	26.180	984.481	795.445
135.497	26.202	984.039	795.116
136.512	26.285	983.432	794.920
137.527	26.326	982.064	793.922
138.541	26.374	981.683	793.758
139.556	26.392	980.655	792.932
140.570	26.369	980.072	792.294
141.585	26.303	979.587	791.539
142.600	26.180	978.355	789.936
143.614	26.518	977.575	790.714
144.629	26.698	976.520	790.576
145.643	26.485	975.513	788.764
146.658	26.334	974.167	786.948
147.673	26.223	972.838	785.323
148.687	26.154	971.896	784.190
149.702	26.128	971.059	783.335
150.716	25.971	970.216	781.904
151.731	26.208	969.475	782.266
152.746	26.315	969.178	782.417
153.760	26.396	968.464	782.122
154.775	26.564	967.850	782.286
155.789	26.468	966.694	780.869
156.804	26.490	965.837	780.203
157.819	26.578	964.904	779.757
158.833	26.548	964.171	778.966
159.848	26.593	963.458	778.514
160.862	26.520	961.891	776.865
161.877	26.393	961.569	775.995
162.892	26.477	960.745	775.620
163.906	26.481	959.082	774.227
164.921	26.507	958.231	773.581
165.935	26.411	957.922	772.853
166.950	26.436	956.637	771.853
167.964	26.420	955.757	771.007
168.979	26.207	954.729	769.203
169.994	26.250	953.449	768.288
171.008	26.593	953.045	769.352
172.023	26.597	952.140	768.572
173.037	26.351	951.285	766.768
174.052	26.132	950.086	764.807
175.067	26.134	949.315	764.124
176.081	26.194	949.447	764.418
177.096	26.168	948.635	763.589
178.110	25.943	947.316	761.507
179.125	25.730	946.847	760.164
180.140	25.847	946.280	760.137
181.154	25.885	946.554	760.448
182.169	26.130	946.667	761.504
183.183	26.490	945.831	762.283
184.198	26.318	944.697	760.576
185.213	26.348	943.900	759.994
186.227	26.523	943.145	760.056
187.242	26.559	942.588	759.690
188.256	26.519	942.121	759.078
189.271	26.694	941.132	758.949
190.286	26.215	940.299	756.203
191.300	25.711	938.518	752.598
192.315	24.743	937.252	747.471
193.329	24.836	936.743	747.389
194.344	25.602	937.283	750.955
195.359	26.368	936.834	753.721
196.373	26.381	936.690	753.595
197.388	26.312	936.279	752.908
198.402	26.290	935.627	752.227
199.417	26.427	934.664	751.954
200.432	26.003	933.970	749.568
201.446	25.944	933.209	748.648
202.461	26.023	932.907	748.664
203.475	25.141	930.946	743.371
204.490	24.298	929.703	738.820
205.504	25.292	929.757	742.917
206.519	25.899	929.345	745.028
207.534	25.991	928.889	744.980
208.548	26.438	928.867	746.740
209.563	26.185	928.210	745.103
210.577	26.174	927.389	744.333
211.592	26.508	927.447	745.692
212.607	26.501	926.514	744.844
213.621	26.497	925.902	744.270
214.636	26.663	925.103	744.246
215.650	26.432	924.218	742.517
216.665	26.659	924.071	743.268
217.680	26.448	922.989	741.467
218.694	26.151	921.882	739.294
219.709	25.996	921.219	738.065
220.723	26.190	920.898	738.536
221.738	26.395	919.994	738.581
222.753	26.277	919.440	737.591
223.767	26.381	919.493	737.990
224.782	26.710	918.953	738.833
225.796	26.442	918.845	737.590
226.811	26.069	916.622	734.222
227.826	25.379	915.355	730.338
228.840	25.533	915.098	730.692
229.855	25.580	914.299	730.182
230.869	25.229	913.010	727.664
231.884	25.672	913.397	729.706
232.899	26.322	913.390	732.271
233.913	26.274	912.599	731.377
234.928	26.243	912.151	730.828
235.942	26.135	911.670	729.943
236.957	25.994	910.554	728.415
237.972	25.828	910.176	727.376
238.986	26.064	909.519	727.737
240.001	26.032	908.722	726.909
241.015	26.112	908.311	726.838
242.030	26.148	908.356	726.955
243.045	26.478	907.522	727.550
244.059	26.594	907.081	727.598
245.074	26.410	905.844	725.802
246.088	25.979	905.348	723.612
247.103	26.216	905.186	724.368
248.117	26.761	904.930	726.282
249.132	26.986	904.522	726.795
250.147	27.190	904.226	727.305
251.161	27.179	903.644	726.732
252.176	27.175	903.163	726.264
253.190	27.119	902.813	725.693
254.205	27.460	902.086	726.406
255.220	27.395	901.601	725.692
256.234	27.206	900.842	724.264
257.249	27.236	899.593	723.316
258.263	27.262	899.488	723.271
259.278	27.346	898.532	722.773
260.293	27.198	898.340	721.966
261.307	27.175	897.342	721.010
262.322	26.963	896.597	719.505
263.336	26.343	894.558	715.355
264.351	25.263	892.848	709.653
265.366	25.366	892.359	709.610
266.380	26.318	893.329	714.080
267.395	26.761	893.078	715.569
268.409	26.784	892.337	715.000
269.424	26.990	891.850	715.360
270.439	27.157	890.990	715.266
271.453	27.105	890.792	714.838
272.468	27.261	890.398	715.070
273.482	27.314	889.703	714.658
274.497	26.974	888.451	712.253
275.512	26.519	887.698	709.804
276.526	26.885	887.842	711.290
277.541	27.160	887.304	711.875
278.555	26.846	886.981	710.324
279.570	26.808	885.566	708.980
280.585	26.930	885.296	709.174
281.599	26.815	884.211	707.797
282.614	26.317	882.922	704.761
283.628	26.265	882.909	704.485
284.643	26.774	882.353	705.960
285.657	26.184	881.560	702.969
286.672	26.045	880.283	701.346
287.687	26.601	880.408	703.545
288.701	26.627	879.863	703.150
289.716	26.229	879.471	701.227
290.730	26.256	878.347	700.375
291.745	25.950	877.536	698.481
292.760	26.312	877.654	699.917
293.774	27.383	877.685	704.024
294.789	27.685	877.490	704.973
295.803	27.659	877.134	704.522
296.818	27.590	876.113	703.376
297.833	27.118	875.134	700.708
298.847	26.935	874.434	699.379
299.862	27.400	874.311	701.010
300.876	27.593	874.330	701.705
301.891	27.442	873.705	700.561
302.906	27.044	872.675	698.145
303.920	27.250	872.241	698.525
304.935	27.615	871.884	699.580
305.949	27.612	871.026	698.818
306.964	27.348	870.444	697.278
307.979	27.347	870.012	696.868
308.993	27.599	869.803	697.600
310.008	27.663	869.604	697.624
311.022	27.406	868.380	695.600
312.037	27.325	867.690	694.677
313.052	27.012	866.738	692.658
314.066	26.060	865.326	687.843
315.081	25.750	864.711	686.109
316.095	26.542	865.367	689.591
317.110	27.122	864.844	691.319
318.125	26.429	863.135	687.260
319.139	25.322	861.522	681.712
320.154	25.301	861.012	681.171
321.168	26.056	861.782	684.583
322.183	26.950	861.953	688.050
323.197	27.069	861.755	688.283
324.212	27.275	861.510	688.807
325.227	27.196	860.689	687.792
326.241	27.206	859.661	686.947
327.256	27.050	859.218	685.944
328.270	26.977	858.751	685.233
329.285	26.864	857.665	683.881
330.300	26.773	856.728	682.731
331.314	26.900	856.776	683.184
332.329	27.272	856.917	684.639
333.343	27.391	856.270	684.509
334.358	27.454	855.630	684.173
335.373	27.449	855.471	683.967
336.387	27.673	855.631	684.874
337.402	27.846	855.317	685.212
338.416	27.627	855.051	684.118
339.431	27.870	854.543	684.560
340.446	28.273	854.227	685.756
341.460	27.926	853.432	683.760
342.475	27.800	852.866	682.774
343.489	27.856	852.668	682.765
344.504	28.182	852.169	683.523
345.519	28.213	852.359	683.729
346.533	28.267	852.052	683.625
347.548	28.198	851.362	682.755
348.562	28.152	850.620	681.926
349.577	28.247	849.688	681.471
350.592	28.116	849.086	680.442
351.606	28.131	848.712	680.138
352.621	27.962	847.646	678.597
353.635	27.959	846.938	677.957
354.650	27.468	844.907	674.457
355.665	26.345	843.721	669.292
356.679	26.740	843.785	670.747
357.694	27.199	843.294	671.996
358.708	27.033	843.065	671.138
359.723	27.514	842.692	672.560
360.738	27.891	842.189	673.488
361.752	27.959	841.664	673.261
362.767	28.386	841.651	674.764
363.781	28.477	841.547	674.955
364.796	28.450	840.962	674.327
365.810	28.707	840.552	674.880
366.825	28.708	840.047	674.421
367.840	28.321	839.162	672.232
368.854	27.769	838.354	669.500
369.869	27.852	838.230	669.643
370.883	27.973	837.602	669.526
371.898	27.944	836.966	668.853
372.913	28.023	836.570	668.767
373.927	28.142	836.476	669.069
374.942	28.239	835.909	668.910
375.956	28.245	835.509	668.551
376.971	28.503	834.978	669.012
377.986	28.569	834.627	668.910
379.000	28.674	833.986	668.720
380.015	28.347	833.676	667.220
381.029	28.444	833.128	667.076
382.044	28.618	832.458	667.115
383.059	28.637	832.039	666.789
384.073	28.629	831.526	666.290
385.088	28.616	830.561	665.409
386.102	28.294	829.792	663.569
387.117	28.247	829.413	663.036
388.132	27.834	828.324	660.614
389.146	27.479	827.304	658.459
390.161	27.953	827.445	660.226
391.175	28.182	827.195	660.793
392.190	27.904	826.073	658.836
393.205	26.486	823.879	651.924
394.219	24.998	821.941	644.980
395.234	25.104	821.485	644.947
396.248	26.558	823.260	651.519
397.263	28.047	824.065	657.458
398.278	28.059	824.020	657.409
399.292	27.842	823.133	655.863
400.307	27.754	822.674	655.121
401.321	27.977	821.889	655.241
402.336	28.301	822.389	656.741
403.350	28.703	822.416	658.148
404.365	29.056	822.109	659.106
405.380	29.057	821.936	658.914
406.394	29.287	821.122	659.024
407.409	29.243	820.435	658.258
408.423	29.106	820.157	657.488
409.438	29.313	819.854	657.925
410.453	29.385	819.093	657.515
411.467	29.191	818.703	656.452
412.482	29.154	818.436	656.048
413.496	29.366	817.981	656.379
414.511	29.329	817.694	655.960
415.526	29.177	817.191	654.956
416.540	29.126	816.506	654.168
417.555	28.918	815.818	652.821
418.569	29.026	815.433	652.838
419.584	28.867	815.227	652.052
420.599	28.857	814.520	651.392
421.613	106.413	1281.683	1433.799
422.628	92.006	1349.761	1433.920
