DTS Sentinel unit serial number:	SN413079Multiplexer serial number:	ORYXHardware model number:	OX4-SRSoftware version number:	ORYX F/W v4.00 Oryx Data Collector v3.7.2.0data status	okinstallation	princeton_trtdifferential loss correction	single-endedforward channel	channel 1reverse channel	N/Adate	2019/09/15time	00:30:35forward acquisition time	60.00reverse acquisition time	0.00gamma	496.2192k internal	0.2320k external	0.2320temperature offset calibration	0.9993default loss term (dB/km)	0.3790temperature slope calibration	1.0000multiplexer offset coefficient	1.0000multiplexer slope coefficient	1.0000fibre end	0.00T internal ref (°C)	32.12T ext. ref 1 (°C)	4.59T ext. ref 2 (°C)	27.19length (m)	temperature (°C)	Stokes	anti-Stokes-747.200	-67.435	-0.116	-0.046
-746.185	-2.597	-0.269	0.190
-745.171	800.000	0.136	0.482
-744.156	1.500	-0.159	0.115
-743.142	-69.736	0.008	0.003
-742.127	-146.480	-0.525	-0.046
-741.112	-121.223	0.143	-0.024
-740.098	-22.921	-0.247	0.151
-739.083	254.214	-0.111	-0.191
-738.069	528.537	-0.084	-0.199
-737.054	-35.014	-0.196	-0.108
-736.039	-200.000	-0.007	-0.127
-735.025	-57.569	0.261	-0.116
-734.010	483.184	0.087	0.201
-732.996	162.035	-0.103	-0.147
-731.981	800.000	-0.068	0.286
-730.966	-56.958	0.091	-0.041
-729.952	95.610	0.189	-0.218
-728.937	-167.102	0.095	-0.004
-727.923	-24.699	-0.138	0.083
-726.908	-105.992	0.218	0.050
-725.894	17.980	0.154	-0.124
-724.879	209.960	-0.144	-0.228
-723.864	259.007	0.058	-0.101
-722.850	-76.876	-0.259	-0.092
-721.835	-200.000	-0.005	-0.263
-720.821	-117.788	-0.357	0.065
-719.806	-200.000	0.023	-0.108
-718.791	-200.000	0.051	0.298
-717.777	102.274	-0.214	0.252
-716.762	800.000	0.024	0.084
-715.748	-59.445	0.148	-0.064
-714.733	233.807	0.156	-0.260
-713.718	-96.323	-0.292	0.078
-712.704	-90.900	-0.090	-0.026
-711.689	-53.747	-0.070	-0.032
-710.675	-77.752	-0.409	-0.143
-709.660	13.755	0.070	-0.055
-708.645	-3.635	-0.290	-0.204
-707.631	-130.712	-0.238	0.032
-706.616	112.503	-0.092	0.112
-705.602	148.833	-0.030	-0.041
-704.587	-124.764	0.294	-0.046
-703.572	57.795	-0.159	-0.157
-702.558	-200.000	0.040	0.382
-701.543	46.667	0.141	-0.132
-700.529	-31.108	0.194	-0.110
-699.514	-118.041	0.347	-0.063
-698.499	192.427	-0.184	-0.280
-697.485	-146.207	-0.260	-0.023
-696.470	-200.000	-0.082	-0.394
-695.456	17.855	-0.074	0.060
-694.441	-70.151	0.171	0.065
-693.426	218.673	-0.124	0.200
-692.412	138.349	0.144	-0.190
-691.397	184.369	-0.130	-0.195
-690.383	-200.000	-0.010	-0.102
-689.368	431.132	0.039	-0.084
-688.354	-200.000	0.103	0.455
-687.339	-123.494	-0.264	-0.042
-686.324	-50.891	-0.116	0.055
-685.310	62.946	-0.267	-0.270
-684.295	-9.858	0.051	0.034
-683.281	521.670	0.097	-0.229
-682.266	-200.000	0.028	0.225
-681.251	-72.770	-0.164	-0.061
-680.237	-200.000	0.013	0.105
-679.222	-200.000	-0.013	-0.098
-678.208	453.695	-0.112	-0.249
-677.193	-9.566	-0.413	0.278
-676.178	-65.469	-0.176	0.071
-675.164	-112.309	-0.303	-0.061
-674.149	-99.284	-0.359	0.091
-673.135	-67.194	0.231	-0.092
-672.120	-131.128	-0.360	0.048
-671.105	800.000	0.063	-0.226
-670.091	-17.616	0.255	0.161
-669.076	-51.647	-0.305	0.144
-668.062	-140.975	-0.129	-0.013
-667.047	388.783	-0.047	0.099
-666.032	800.000	-0.089	-0.317
-665.018	-59.817	-0.089	-0.038
-664.003	68.370	0.384	0.396
-662.989	-18.379	0.122	-0.077
-661.974	88.038	0.174	-0.195
-660.959	521.860	0.119	0.281
-659.945	411.198	0.101	-0.217
-658.930	-58.554	0.122	0.053
-657.916	800.000	0.016	0.065
-656.901	-36.854	0.131	0.071
-655.886	-127.422	0.202	0.030
-654.872	-176.715	0.170	0.004
-653.857	-130.658	-0.448	-0.061
-652.843	410.102	-0.035	-0.074
-651.828	26.540	-0.180	0.152
-650.814	44.790	0.101	0.093
-649.799	-122.590	0.135	-0.022
-648.784	57.168	0.245	-0.241
-647.770	-117.057	-0.163	0.030
-646.755	-47.962	-0.087	-0.042
-645.741	-200.000	0.070	0.356
-644.726	-200.000	-0.077	0.360
-643.711	-100.081	0.054	0.013
-642.697	228.107	-0.064	0.105
-641.682	-200.000	0.055	0.316
-640.668	-85.231	-0.118	0.037
-639.653	-10.774	-0.165	0.110
-638.638	-146.353	-0.161	-0.014
-637.624	76.500	0.227	0.243
-636.609	182.849	0.066	-0.098
-635.595	-74.450	-0.209	-0.076
-634.580	-200.000	-0.081	0.366
-633.565	800.000	-0.054	0.169
-632.551	199.116	0.104	0.161
-631.536	-200.000	0.010	0.092
-630.522	-0.661	-0.094	0.067
-629.507	280.665	-0.174	-0.314
-628.492	-200.000	-0.022	-0.454
-627.478	-200.000	0.029	0.161
-626.463	-102.900	0.246	0.059
-625.449	800.000	-0.054	-0.195
-624.434	481.860	-0.012	0.027
-623.419	-116.046	0.168	-0.032
-622.405	-200.000	-0.001	0.121
-621.390	-97.324	-0.032	-0.008
-620.376	-200.000	0.014	0.289
-619.361	-99.860	-0.230	0.058
-618.346	-200.000	-0.023	0.122
-617.332	-144.530	-0.240	0.022
-616.317	95.119	0.195	0.223
-615.303	59.817	0.099	-0.098
-614.288	578.087	0.016	0.041
-613.273	-31.214	-0.159	0.090
-612.259	-200.000	0.027	0.133
-611.244	-200.000	-0.005	0.107
-610.230	-145.866	0.436	0.039
-609.215	-114.635	-0.293	0.057
-608.201	800.000	-0.074	-0.263
-607.186	-114.505	-0.073	-0.014
-606.171	-200.000	0.013	0.356
-605.157	-115.103	-0.161	-0.031
-604.142	-200.000	0.002	0.258
-603.128	528.047	-0.188	-0.447
-602.113	19.878	-0.108	-0.088
-601.098	304.083	-0.192	0.358
-600.084	-127.285	0.204	-0.030
-599.069	-10.989	0.408	-0.270
-598.055	48.306	-0.172	0.162
-597.040	-154.414	0.262	-0.018
-596.025	-49.147	-0.072	-0.035
-595.011	14.020	-0.210	0.164
-593.996	-132.422	-0.467	0.060
-592.982	-198.835	-0.086	-0.000
-591.967	167.802	-0.203	-0.290
-590.952	-200.000	0.032	-0.270
-589.938	-147.935	0.196	-0.016
-588.923	48.655	-0.136	-0.128
-587.909	-18.773	-0.104	0.065
-586.894	-61.331	-0.161	-0.068
-585.879	-53.974	-0.199	0.091
-584.865	-32.512	-0.425	-0.238
-583.850	-200.000	0.037	-0.238
-582.836	-103.471	-0.115	0.027
-581.821	64.129	-0.253	-0.256
-580.806	-90.802	-0.055	-0.016
-579.792	-200.000	-0.016	0.177
-578.777	301.450	0.010	-0.018
-577.763	-39.921	0.094	-0.049
-576.748	-155.616	-0.144	0.009
-575.733	204.623	0.084	0.131
-574.719	-24.524	-0.211	-0.126
-573.704	33.585	-0.106	0.092
-572.690	356.230	-0.127	0.255
-571.675	-83.833	-0.213	0.068
-570.661	-118.707	0.102	0.018
-569.646	-121.877	0.155	-0.026
-568.631	-9.592	0.117	0.078
-567.617	35.420	0.345	-0.304
-566.602	131.028	-0.129	-0.167
-565.588	800.000	-0.047	-0.195
-564.573	-158.562	0.113	-0.007
-563.558	-42.414	-0.074	0.038
-562.544	-170.081	-0.257	0.009
-561.529	-126.103	0.122	0.018
-560.515	97.675	0.118	0.136
-559.500	111.026	0.124	-0.150
-558.485	238.672	-0.041	0.069
-557.471	-54.073	-0.176	0.080
-556.456	-200.000	0.008	0.344
-555.442	-200.000	0.021	-0.117
-554.427	168.992	-0.189	-0.270
-553.412	27.941	0.211	-0.178
-552.398	15.936	-0.174	-0.137
-551.383	4.321	-0.328	-0.241
-550.369	-200.000	0.042	0.372
-549.354	-200.000	0.049	0.216
-548.339	-23.437	0.149	0.090
-547.325	-139.178	0.271	-0.029
-546.310	-121.690	-0.141	0.023
-545.296	317.437	0.192	-0.364
-544.281	-128.520	-0.230	0.033
-543.266	65.328	-0.108	-0.109
-542.252	324.569	-0.046	-0.089
-541.237	-153.839	-0.191	-0.013
-540.223	3.353	-0.183	0.134
-539.208	706.297	0.079	-0.209
-538.193	-71.138	0.222	0.084
-537.179	69.906	0.092	-0.095
-536.164	334.231	-0.062	0.121
-535.150	800.000	0.067	0.264
-534.135	199.463	-0.037	0.057
-533.121	-39.983	0.032	0.017
-532.106	-9.625	0.106	0.071
-531.091	-83.165	0.294	-0.095
-530.077	222.831	-0.202	-0.327
-529.062	276.737	0.158	-0.282
-528.048	462.424	0.072	-0.162
-527.033	-200.000	0.030	0.438
-526.018	800.000	0.033	-0.129
-525.004	139.899	0.033	-0.044
-523.989	-45.004	0.024	-0.012
-522.975	259.274	0.109	0.188
-521.960	472.341	0.067	0.151
-520.945	-22.393	-0.029	-0.018
-519.931	-28.364	-0.181	-0.105
-518.916	-94.103	0.145	-0.040
-517.902	19.084	-0.408	-0.328
-516.887	-43.938	0.243	-0.122
-515.872	198.295	-0.054	-0.083
-514.858	313.779	-0.113	-0.213
-513.843	352.855	-0.055	0.109
-512.829	3.500	-0.294	0.214
-511.814	-200.000	0.002	-0.055
-510.799	800.000	0.094	0.334
-509.785	718.446	0.027	0.073
-508.770	-136.499	0.136	0.016
-507.756	-200.000	-0.003	0.144
-506.741	-200.000	0.021	-0.094
-505.726	800.000	0.066	0.191
-504.712	756.760	0.160	0.434
-503.697	47.976	-0.168	0.157
-502.683	141.456	0.041	0.055
-501.668	-33.062	-0.073	0.040
-500.653	-23.318	-0.166	0.100
-499.639	499.377	-0.125	-0.289
-498.624	-11.024	0.109	0.072
-497.610	-133.087	0.420	-0.053
-496.595	508.403	0.078	-0.181
-495.581	-192.918	0.217	-0.002
-494.566	476.196	0.037	0.085
-493.551	5.841	-0.173	0.128
-492.537	269.614	0.137	-0.242
-491.522	-70.878	0.163	-0.061
-490.508	-109.684	-0.140	-0.029
-489.493	-200.000	0.002	0.186
-488.478	285.014	-0.097	-0.176
-487.464	533.454	-0.058	0.137
-486.449	-200.000	-0.001	0.258
-485.435	-97.313	0.127	0.033
-484.420	800.000	-0.075	-0.308
-483.405	-200.000	-0.081	0.539
-482.391	-82.396	0.114	0.037
-481.376	110.777	-0.057	-0.068
-480.362	-25.496	0.183	-0.108
-479.347	-133.943	-0.148	0.018
-478.332	562.368	0.192	-0.465
-477.318	734.135	-0.093	-0.248
-476.303	336.437	-0.062	0.121
-475.289	-121.486	0.078	0.013
-474.274	-43.957	0.021	0.011
-473.259	-200.000	0.009	-0.296
-472.245	341.637	0.056	-0.110
-471.230	122.286	0.106	0.132
-470.216	-73.339	-0.201	0.073
-469.201	238.702	-0.044	0.073
-468.186	88.532	-0.086	-0.096
-467.172	32.458	-0.217	-0.188
-466.157	-23.417	0.177	0.106
-465.143	306.127	0.177	-0.330
-464.128	241.818	-0.021	-0.036
-463.113	-51.749	0.168	-0.078
-462.099	-200.000	-0.003	-0.325
-461.084	-85.554	0.139	0.043
-460.070	-200.000	0.007	-0.079
-459.055	25.603	-0.151	-0.126
-458.040	347.313	-0.159	-0.313
-457.026	-30.751	0.253	0.143
-456.011	-119.719	0.125	0.022
-454.997	17.327	-0.265	-0.210
-453.982	-126.912	-0.136	0.020
-452.968	-200.000	-0.007	0.047
-451.953	-25.785	-0.206	-0.122
-450.938	182.350	0.114	-0.168
-449.924	54.312	0.196	-0.188
-448.909	-10.066	-0.074	-0.049
-447.895	-107.325	-0.099	-0.022
-446.880	-40.929	0.237	0.122
-445.865	-200.000	0.002	0.066
-444.851	207.541	0.061	-0.095
-443.836	110.259	0.237	0.284
-442.822	-12.103	0.287	-0.188
-441.807	-200.000	-0.034	0.181
-440.792	334.087	0.089	0.172
-439.778	73.409	-0.132	0.138
-438.763	800.000	-0.101	0.285
-437.749	469.569	-0.062	-0.140
-436.734	74.608	-0.216	-0.227
-435.719	800.000	-0.058	-0.167
-434.705	-22.476	-0.170	-0.103
-433.690	-131.432	0.101	0.013
-432.676	-30.610	0.226	0.128
-431.661	235.024	-0.229	0.377
-430.646	-200.000	0.007	0.060
-429.632	800.000	-0.022	0.077
-428.617	3.910	0.412	-0.301
-427.603	-108.247	0.171	-0.037
-426.588	86.067	0.068	-0.075
-425.573	402.830	0.089	0.188
-424.559	-82.657	0.080	-0.026
-423.544	-125.025	-0.302	-0.046
-422.530	143.954	-0.090	0.120
-421.515	-128.242	-0.246	-0.035
-420.500	-5.684	0.202	0.138
-419.486	-147.932	-0.263	0.022
-418.471	-200.000	-0.018	-0.293
-417.457	-64.125	-0.273	0.111
-416.442	-21.340	0.057	0.035
-415.428	147.029	-0.149	0.200
-414.413	22.852	-0.349	-0.286
-413.398	-81.748	-0.271	0.089
-412.384	54.689	-0.347	0.334
-411.369	230.601	0.112	-0.183
-410.355	-116.484	0.144	0.027
-409.340	90.108	0.026	-0.029
-408.325	800.000	-0.052	-0.175
-407.311	115.437	-0.171	-0.208
-406.296	169.816	0.084	0.120
-405.282	-135.054	0.294	0.035
-404.267	365.809	0.036	-0.073
-403.252	746.456	-0.082	0.219
-402.238	47.381	-0.086	-0.080
-401.223	348.879	-0.100	-0.197
-400.209	-200.000	0.051	-0.231
-399.194	8.475	0.041	-0.031
-398.179	-68.774	0.205	-0.079
-397.165	637.136	-0.085	0.215
-396.150	340.530	0.108	0.211
-395.136	156.672	0.082	-0.112
-394.121	-103.649	0.219	-0.051
-393.106	-81.161	-0.177	-0.058
-392.092	800.000	0.067	-0.206
-391.077	10.073	-0.126	0.096
-390.063	-44.016	0.186	-0.093
-389.048	-59.224	0.088	0.038
-388.033	0.178	-0.037	-0.026
-387.019	-54.153	-0.130	-0.059
-386.004	800.000	-0.033	-0.132
-384.990	-200.000	0.070	-0.414
-383.975	13.581	0.032	0.025
-382.960	-200.000	0.024	-0.234
-381.946	575.920	0.072	0.176
-380.931	113.110	0.162	0.195
-379.917	-200.000	-0.012	0.157
-378.902	-9.917	-0.208	0.138
-377.888	800.000	-0.074	-0.320
-376.873	-200.000	-0.048	-0.296
-375.858	268.464	0.104	-0.182
-374.844	-200.000	-0.007	0.112
-373.829	-61.071	-0.197	-0.083
-372.815	15.187	0.165	-0.129
-371.800	7.587	0.284	0.212
-370.785	-200.000	0.003	0.133
-369.771	-41.627	0.246	0.126
-368.756	134.617	-0.044	-0.057
-367.742	359.931	-0.190	-0.378
-366.727	71.080	-0.212	-0.219
-365.712	800.000	0.076	0.214
-364.698	142.656	0.165	-0.219
-363.683	53.948	0.161	0.154
-362.669	-110.713	0.324	-0.067
-361.654	800.000	0.090	-0.280
-360.639	-40.985	0.349	-0.180
-359.625	347.153	-0.079	0.154
-358.610	-45.237	-0.123	0.061
-357.596	31.506	0.389	0.333
-356.581	-19.001	0.074	0.046
-355.566	800.000	0.070	-0.273
-354.552	-36.021	0.277	-0.149
-353.537	-128.945	0.139	0.019
-352.523	800.000	-0.060	0.188
-351.508	169.720	-0.213	-0.303
-350.493	-42.863	-0.170	-0.086
-349.479	-52.353	0.179	0.083
-348.464	84.422	-0.131	-0.143
-347.450	800.000	0.053	-0.192
-346.435	-109.693	0.316	-0.066
-345.420	-127.136	0.250	0.036
-344.406	159.052	0.083	-0.114
-343.391	142.340	-0.136	0.180
-342.377	341.558	-0.161	-0.314
-341.362	-200.000	0.039	0.177
-340.348	-128.325	0.051	-0.007
-339.333	800.000	0.181	0.528
-338.318	800.000	0.117	0.356
-337.304	800.000	0.092	-0.367
-336.289	101.888	-0.156	-0.181
-335.275	-112.061	0.426	-0.085
-334.260	-43.143	-0.147	-0.074
-333.245	10.661	-0.162	0.123
-332.231	800.000	-0.050	-0.203
-331.216	54.755	-0.103	-0.099
-330.202	-66.682	-0.359	-0.142
-329.187	186.399	0.202	-0.299
-328.172	-50.552	-0.048	0.022
-327.158	-137.157	-0.263	-0.030
-326.143	-171.749	0.311	-0.010
-325.129	-139.791	-0.207	-0.022
-324.114	49.349	0.114	0.107
-323.099	800.000	0.030	0.092
-322.085	-200.000	0.039	0.239
-321.070	-150.457	-0.224	-0.017
-320.056	435.328	-0.174	0.376
-319.041	-200.000	-0.001	0.187
-318.026	800.000	-0.087	0.242
-317.012	800.000	-0.048	-0.175
-315.997	-103.880	-0.188	0.044
-314.983	-132.430	0.097	0.012
-313.968	-148.234	-0.196	0.016
-312.953	127.985	-0.225	0.284
-311.939	91.752	-0.224	0.251
-310.924	56.144	-0.166	-0.161
-309.910	-33.331	0.182	-0.100
-308.895	-35.226	-0.385	0.209
-307.880	157.186	0.233	0.320
-306.866	107.436	0.227	0.268
-305.851	-33.684	-0.091	-0.050
-304.837	-112.781	0.272	-0.054
-303.822	73.984	0.109	0.114
-302.807	-81.484	-0.054	0.018
-301.793	-9.215	-0.262	0.174
-300.778	-118.302	0.231	-0.041
-299.764	57.310	0.181	0.176
-298.749	45.411	0.264	-0.242
-297.735	-200.000	-0.006	0.248
-296.720	143.077	-0.185	-0.245
-295.705	800.000	-0.019	-0.083
-294.691	38.280	0.048	-0.043
-293.676	35.663	-0.068	0.059
-292.662	-50.830	-0.114	0.053
-291.647	-92.015	-0.123	-0.035
-290.632	-200.000	-0.036	-0.235
-289.618	-111.805	-0.214	-0.043
-288.603	-43.874	-0.201	0.101
-287.589	78.120	0.163	-0.172
-286.574	690.267	-0.033	0.086
-285.559	686.157	-0.084	0.218
-284.545	162.064	0.084	-0.117
-283.530	10.391	-0.101	0.076
-282.516	164.029	-0.222	0.311
-281.501	-55.767	0.214	0.095
-280.486	139.041	-0.029	-0.037
-279.472	-30.408	0.193	-0.109
-278.457	-17.662	-0.208	0.130
-277.443	1.940	-0.222	0.159
-276.428	17.749	0.048	-0.038
-275.413	187.640	-0.063	-0.094
-274.399	-1.214	-0.230	-0.161
-273.384	121.227	0.244	0.302
-272.370	-65.672	0.106	0.042
-271.355	100.467	-0.080	-0.092
-270.340	555.925	-0.109	0.261
-269.326	-127.904	0.159	0.023
-268.311	86.778	-0.135	-0.148
-267.297	45.328	0.240	0.220
-266.282	236.452	0.048	0.078
-265.267	23.835	0.175	-0.143
-264.253	-200.000	-0.026	-0.173
-263.238	498.573	-0.051	0.117
-262.224	93.672	0.157	0.176
-261.209	194.917	-0.055	-0.083
-260.195	-200.000	-0.038	-0.316
-259.180	283.983	0.196	-0.349
-258.165	-51.753	-0.125	0.058
-257.151	-197.396	0.131	0.001
-256.136	800.000	0.022	0.091
-255.122	-200.000	-0.022	0.138
-254.107	607.213	-0.035	0.087
-253.092	-45.891	-0.077	0.038
-252.078	-121.847	0.218	0.036
-251.063	272.821	-0.032	0.056
-250.049	65.414	0.341	0.342
-249.034	-200.000	0.001	0.297
-248.019	-106.065	0.192	-0.043
-247.005	-200.000	0.007	0.249
-245.990	-200.000	0.030	0.156
-244.976	-200.000	0.021	-0.156
-243.961	36.956	-0.208	-0.182
-242.946	-96.387	-0.270	-0.071
-241.932	-96.128	-0.405	-0.107
-240.917	-51.888	-0.336	-0.155
-239.903	-13.547	0.278	-0.178
-238.888	286.942	-0.099	0.177
-237.873	-45.447	0.080	-0.039
-236.859	20.054	-0.284	0.227
-235.844	83.856	-0.107	-0.116
-234.830	-144.417	-0.083	-0.008
-233.815	61.768	0.251	0.247
-232.800	-200.000	0.002	-0.066
-231.786	195.215	0.074	0.111
-230.771	-44.869	0.394	0.195
-229.757	-200.000	0.017	0.426
-228.742	10.779	0.146	0.110
-227.727	189.541	0.190	-0.282
-226.713	-36.262	-0.192	0.103
-225.698	516.052	0.076	0.176
-224.684	-200.000	0.010	-0.168
-223.669	-35.258	-0.109	-0.059
-222.655	368.456	0.157	0.315
-221.640	800.000	-0.034	-0.102
-220.625	-103.450	0.284	-0.066
-219.611	10.690	-0.175	-0.132
-218.596	-35.706	0.026	-0.014
-217.582	-58.122	-0.144	-0.062
-216.567	6.021	-0.083	-0.061
-215.552	-108.604	-0.118	0.025
-214.538	800.000	-0.081	0.257
-213.523	-65.018	0.198	-0.079
-212.509	76.887	-0.051	-0.054
-211.494	-53.060	0.113	-0.052
-210.479	-55.856	0.073	0.032
-209.465	-163.362	0.279	0.013
-208.450	-57.383	0.144	-0.063
-207.436	-196.347	0.092	-0.001
-206.421	643.611	-0.104	-0.263
-205.406	140.068	-0.134	0.175
-204.392	3.204	-0.511	0.368
-203.377	-152.152	0.365	0.026
-202.363	267.406	0.070	-0.122
-201.348	274.754	0.084	0.146
-200.333	800.000	0.067	-0.212
-199.319	-48.739	-0.160	0.076
-198.304	147.293	-0.181	-0.241
-197.290	0.474	-0.199	-0.141
-196.275	-117.650	-0.051	-0.009
-195.260	-98.684	0.410	-0.103
-194.246	120.375	0.055	0.068
-193.231	480.384	0.116	0.261
-192.217	-200.000	0.031	-0.273
-191.202	152.461	-0.102	-0.138
-190.187	-61.704	-0.291	-0.121
-189.173	-159.569	0.137	0.008
-188.158	411.691	0.104	0.218
-187.144	100.138	-0.270	0.309
-186.129	88.018	0.205	-0.225
-185.114	-50.595	-0.378	-0.176
-184.100	-200.000	0.075	-0.423
-183.085	30.230	-0.126	0.107
-182.071	-99.059	0.175	-0.044
-181.056	800.000	-0.045	0.138
-180.042	-59.176	-0.167	0.071
-179.027	102.541	0.208	-0.240
-178.012	-27.104	0.318	-0.184
-176.998	87.531	0.096	-0.105
-175.983	202.081	-0.060	-0.092
-174.969	-44.324	0.070	-0.035
-173.954	-144.436	0.323	-0.030
-172.939	-74.245	-0.203	0.073
-171.925	-82.665	-0.182	-0.058
-170.910	-73.634	0.160	-0.058
-169.896	-67.732	-0.123	0.047
-168.881	-200.000	-0.021	0.146
-167.866	800.000	0.050	-0.144
-166.852	-106.314	0.112	-0.025
-165.837	41.014	0.252	0.225
-164.823	399.198	0.146	0.302
-163.808	69.539	-0.146	0.149
-162.793	-122.296	-0.165	-0.027
-161.779	624.023	-0.026	-0.065
-160.764	-200.000	0.004	0.292
-159.750	-89.114	-0.149	-0.044
-158.735	-150.886	0.455	-0.034
-157.720	550.540	0.065	0.153
-156.706	800.000	-0.037	0.123
-155.691	397.772	-0.091	-0.188
-154.677	800.000	0.078	-0.265
-153.662	-65.105	0.123	0.049
-152.647	800.000	0.081	-0.276
-151.633	-54.737	0.259	-0.116
-150.618	-100.585	0.443	-0.108
-149.604	-200.000	-0.017	-0.196
-148.589	-125.044	0.457	0.069
-147.574	-48.945	-0.588	0.278
-146.560	190.286	0.080	0.118
-145.545	391.415	0.111	0.228
-144.531	-121.366	0.197	-0.032
-143.516	174.043	-0.167	-0.238
-142.502	800.000	-0.103	-0.417
-141.487	-22.298	-0.226	-0.135
-140.472	-200.000	-0.008	0.059
-139.458	682.008	-0.041	-0.106
-138.443	286.976	-0.028	-0.049
-137.429	358.038	0.060	-0.119
-136.414	352.150	0.117	-0.229
-135.399	-99.139	-0.180	0.045
-134.385	800.000	-0.048	-0.171
-133.370	-15.113	-0.110	-0.069
-132.356	-86.937	0.099	0.030
-131.341	-129.912	0.367	-0.050
-130.326	-200.000	0.000	0.118
-129.312	286.426	-0.085	0.152
-128.297	13.098	-0.154	-0.118
-127.283	-142.732	-0.155	-0.015
-126.268	-85.939	0.171	0.052
-125.253	-82.662	0.236	0.075
-124.239	-200.000	0.012	0.104
-123.224	-55.877	-0.260	-0.114
-122.210	336.216	0.118	-0.226
-121.195	-200.000	0.012	-0.093
-120.180	-200.000	-0.007	-0.265
-119.166	-200.000	-0.012	-0.171
-118.151	800.000	-0.044	0.155
-117.137	-106.316	-0.132	-0.029
-116.122	-124.246	0.123	-0.019
-115.107	45.319	-0.217	0.197
-114.093	-88.910	-0.129	0.038
-113.078	275.742	0.173	0.302
-112.064	438.229	-0.100	0.216
-111.049	-200.000	-0.021	0.316
-110.034	-200.000	-0.026	0.365
-109.020	155.142	0.080	-0.109
-108.005	-119.857	-0.122	-0.021
-106.991	-113.324	0.136	0.026
-105.976	-200.000	-0.005	-0.145
-104.962	-9.142	-0.086	-0.056
-103.947	495.298	0.005	0.012
-102.932	-170.033	0.082	-0.003
-101.918	0.054	0.164	-0.115
-100.903	49.169	0.096	0.089
-99.889	-26.939	0.250	0.144
-98.874	800.000	-0.096	-0.300
-97.859	-189.923	-0.317	0.004
-96.845	382.171	0.151	0.306
-95.830	-200.000	-0.033	0.249
-94.816	-82.926	-0.361	-0.115
-93.801	-73.052	-0.201	0.073
-92.786	-139.350	-0.076	0.008
-91.772	800.000	0.086	-0.319
-90.757	800.000	-0.097	-0.322
-89.743	-157.182	-0.288	-0.017
-88.728	-151.825	0.383	-0.028
-87.713	116.392	0.128	0.154
-86.699	302.762	0.153	-0.278
-85.684	-66.875	0.104	0.040
-84.670	-140.340	0.560	0.058
-83.655	81.334	-0.079	0.084
-82.640	-32.152	-0.092	0.051
-81.626	800.000	-0.091	-0.289
-80.611	19.472	-0.084	-0.067
-79.597	30.762	-0.284	0.239
-78.582	-8.303	0.062	-0.041
-77.567	-200.000	-0.026	-0.269
-76.553	-13.332	-0.121	0.077
-75.538	-200.000	-0.044	0.343
-74.524	-200.000	-0.003	-0.161
-73.509	323.775	-0.178	0.335
-72.494	-200.000	-0.013	0.112
-71.480	-200.000	-0.008	0.154
-70.465	671.080	0.087	0.223
-69.451	471.202	0.057	0.126
-68.436	479.088	0.059	0.131
-67.422	216.027	0.210	0.328
-66.407	-200.000	0.030	0.303
-65.392	247.652	-0.083	0.138
-64.378	-31.039	-0.363	0.202
-63.363	-64.446	0.199	0.080
-62.349	-1.604	0.079	-0.055
-61.334	62.412	-0.906	-0.891
-60.319	626.851	0.234	0.583
-59.305	800.000	-0.310	-1.215
-58.290	320.107	0.582	1.087
-57.276	-200.000	0.262	1.424
-56.261	-200.000	95.566	592.444
-55.246	659.755	1367.122	3463.605
-54.232	200.447	2539.752	3841.146
-53.217	120.999	2138.669	2618.625
-52.203	44.255	1602.982	1447.583
-51.188	35.676	1341.199	1159.657
-50.173	32.538	1299.466	1105.146
-49.159	54.564	1346.527	1277.131
-48.144	56.568	1363.077	1304.726
-47.130	35.795	1322.733	1144.214
-46.115	32.301	1305.413	1108.632
-45.100	32.173	1300.098	1103.321
-44.086	32.058	1297.525	1100.420
-43.071	32.025	1295.079	1098.107
-42.057	32.034	1293.201	1096.528
-41.042	32.041	1291.295	1094.906
-40.027	32.165	1289.452	1094.024
-39.013	32.155	1288.017	1092.704
-37.998	32.063	1285.990	1090.408
-36.984	32.022	1284.592	1088.942
-35.969	32.137	1282.398	1087.704
-34.954	32.196	1280.733	1086.587
-33.940	32.110	1280.186	1085.581
-32.925	32.325	1277.913	1084.854
-31.911	32.248	1276.593	1083.245
-30.896	32.149	1275.447	1081.659
-29.881	32.158	1273.768	1080.247
-28.867	32.211	1272.471	1079.408
-27.852	32.464	1270.203	1078.892
-26.838	32.274	1269.414	1077.090
-25.823	32.366	1268.425	1076.738
-24.809	32.236	1267.097	1074.820
-23.794	32.253	1265.919	1073.879
-22.779	32.221	1264.408	1072.372
-21.765	32.215	1263.169	1071.242
-20.750	32.131	1262.370	1070.041
-19.736	32.064	1261.230	1068.656
-18.721	32.050	1259.639	1067.186
-17.706	32.070	1258.517	1066.303
-16.692	31.978	1257.461	1064.847
-15.677	32.063	1256.394	1064.380
-14.663	32.057	1255.050	1063.168
-13.648	32.061	1254.079	1062.324
-12.633	32.124	1252.770	1061.532
-11.619	32.004	1252.744	1060.786
-10.604	32.070	1251.259	1059.860
-9.590	32.033	1250.173	1058.691
-8.575	31.928	1249.271	1057.292
-7.560	32.013	1248.834	1057.358
-6.546	32.054	1247.717	1056.602
-5.531	31.981	1246.853	1055.417
-4.517	31.935	1246.243	1054.601
-3.502	32.102	1245.004	1054.446
-2.487	32.079	1244.082	1053.494
-1.473	32.048	1239.663	1049.537
-0.458	30.694	1224.773	1029.409
0.556	26.113	1207.708	992.182
1.571	22.434	1213.252	976.291
2.586	21.438	1227.951	982.440
3.600	20.912	1216.372	970.161
4.615	15.764	1145.556	886.537
5.629	8.043	1072.297	791.542
6.644	4.798	1052.711	761.173
7.659	4.509	1050.360	757.995
8.673	4.535	1049.252	757.254
9.688	4.509	1048.322	756.391
10.702	4.772	1046.440	756.244
11.717	8.991	1052.417	781.073
12.731	16.029	1062.082	822.646
13.746	18.995	1064.342	838.813
14.761	18.171	1063.389	833.972
15.775	17.087	1061.286	826.969
16.790	16.046	1059.200	820.207
17.804	15.249	1058.076	815.389
18.819	14.803	1056.855	812.209
19.834	14.692	1055.620	810.650
20.848	14.584	1054.849	809.460
21.863	14.367	1053.822	807.549
22.877	14.143	1053.658	806.268
23.892	14.098	1052.475	805.070
24.907	13.983	1052.148	804.194
25.921	14.221	1050.685	804.157
26.936	14.321	1049.452	803.622
27.950	14.270	1047.815	802.053
28.965	14.200	1046.989	801.011
29.980	14.499	1044.892	800.772
30.994	14.418	1043.750	799.442
32.009	14.456	1042.914	798.908
33.023	14.443	1042.123	798.170
34.038	14.388	1040.816	796.838
35.053	14.375	1039.825	795.947
36.067	14.268	1039.070	794.787
37.082	14.387	1038.376	794.753
38.096	14.471	1037.633	794.513
39.111	14.435	1036.662	793.532
40.126	14.197	1035.823	791.686
41.140	14.151	1034.527	790.407
42.155	14.140	1033.482	789.485
43.169	13.966	1032.245	787.644
44.184	14.031	1031.546	787.348
45.199	13.981	1030.506	786.249
46.213	14.120	1029.417	786.005
47.228	14.187	1028.431	785.501
48.242	14.348	1026.861	784.992
49.257	14.232	1026.344	783.980
50.271	14.259	1025.616	783.482
51.286	14.284	1024.696	782.825
52.301	14.264	1023.708	781.906
53.315	14.237	1022.707	780.947
54.330	14.199	1021.025	779.419
55.344	14.102	1020.886	778.786
56.359	14.211	1019.567	778.220
57.374	14.118	1018.686	777.046
58.388	14.083	1018.116	776.379
59.403	13.996	1017.334	775.306
60.417	13.945	1016.579	774.425
61.432	13.913	1015.854	773.656
62.447	14.018	1014.817	773.287
63.461	14.022	1013.842	772.496
64.476	13.865	1013.244	771.241
65.490	14.059	1012.096	771.199
66.505	14.136	1011.290	770.872
67.520	14.018	1011.043	770.072
68.534	14.116	1010.353	769.932
69.549	14.037	1009.446	768.804
70.563	13.969	1008.593	767.776
71.578	13.801	1008.194	766.625
72.593	14.004	1007.044	766.619
73.607	13.868	1006.821	765.757
74.622	13.920	1006.161	765.425
75.636	13.873	1005.307	764.494
76.651	13.968	1004.398	764.169
77.666	13.950	1004.285	763.933
78.680	13.930	1003.306	763.028
79.695	14.146	1002.486	763.329
80.709	14.092	1002.418	762.961
81.724	14.007	1001.909	762.117
82.739	14.232	1000.809	762.243
83.753	14.351	999.950	762.068
84.768	14.431	998.977	761.622
85.782	14.458	998.420	761.253
86.797	14.374	997.603	760.182
87.812	14.286	996.449	758.835
88.826	14.399	995.333	758.430
89.841	14.422	994.581	757.894
90.855	14.498	993.824	757.599
91.870	14.474	993.018	756.806
92.884	14.535	991.713	756.022
93.899	14.415	991.422	755.191
94.914	14.423	990.850	754.720
95.928	14.475	989.550	753.899
96.943	14.427	988.763	753.018
97.957	14.384	988.071	752.230
98.972	14.442	986.723	751.400
99.987	14.393	986.122	750.656
101.001	14.386	984.974	749.682
102.016	14.434	984.019	749.106
103.030	14.371	984.166	748.868
104.045	14.346	983.403	748.108
105.060	14.370	982.085	747.145
106.074	14.131	981.626	745.660
107.089	14.130	980.277	744.566
108.103	14.127	979.308	743.748
109.118	14.079	978.265	742.677
110.133	14.098	977.394	742.035
111.147	14.054	976.784	741.312
112.162	14.205	975.772	741.150
113.176	14.245	975.138	740.782
114.191	14.128	974.665	739.833
115.206	14.273	973.235	739.326
116.220	14.173	973.363	738.916
117.235	14.106	972.067	737.567
118.249	14.137	971.028	736.851
119.264	14.190	970.899	736.924
120.279	14.062	970.019	735.625
121.293	14.166	968.501	734.867
122.308	14.082	967.936	734.006
123.322	14.068	967.227	733.338
124.337	14.150	965.911	732.638
125.352	14.134	964.847	731.695
126.366	14.106	964.102	730.943
127.381	14.045	963.169	729.901
128.395	14.069	962.152	729.171
129.410	14.108	961.479	728.771
130.424	14.293	960.589	728.840
131.439	14.287	959.722	728.094
132.454	14.216	959.083	727.232
133.468	14.398	958.387	727.435
134.483	14.289	957.317	726.083
135.497	14.290	956.466	725.378
136.512	14.255	955.835	724.684
137.527	14.168	954.947	723.568
138.541	14.217	954.417	723.312
139.556	14.236	953.866	722.915
140.570	14.354	953.065	722.757
141.585	14.417	952.433	722.487
142.600	14.545	951.460	722.238
143.614	14.460	950.549	721.114
144.629	14.624	950.127	721.439
145.643	14.555	948.585	719.907
146.658	14.462	947.538	718.650
147.673	14.370	946.821	717.644
148.687	14.369	945.962	716.928
149.702	14.372	944.729	715.939
150.716	14.223	944.226	714.858
151.731	14.378	943.576	714.967
152.746	14.283	943.346	714.324
153.760	14.407	942.452	714.113
154.775	14.315	942.374	713.594
155.789	14.450	941.256	713.264
156.804	14.603	940.244	713.089
157.819	14.561	939.984	712.648
158.833	14.518	939.547	712.070
159.848	14.736	938.669	712.273
160.862	14.548	937.798	710.748
161.877	14.478	936.343	709.284
162.892	14.449	935.149	708.193
163.906	14.384	934.616	707.450
164.921	14.259	933.833	706.263
165.935	14.525	933.102	706.779
166.950	14.345	932.335	705.371
167.964	14.591	931.250	705.530
168.979	14.468	930.111	704.085
169.994	14.534	929.592	703.908
171.008	14.613	928.877	703.637
172.023	14.602	928.209	703.024
173.037	14.642	927.659	702.713
174.052	14.651	926.623	701.904
175.067	14.519	925.814	700.672
176.081	14.523	925.639	700.494
177.096	14.450	925.266	699.846
178.110	14.403	924.601	699.081
179.125	14.440	924.221	698.890
180.140	14.546	923.318	698.586
181.154	14.687	922.828	698.745
182.169	14.700	922.603	698.567
183.183	14.860	921.617	698.427
184.198	14.695	920.823	697.077
185.213	14.819	920.278	697.117
186.227	14.709	919.943	696.344
187.242	14.837	918.680	695.862
188.256	14.886	918.481	695.852
189.271	14.663	917.825	694.366
190.286	14.655	916.867	693.546
191.300	14.462	916.201	692.180
192.315	14.415	915.426	691.339
193.329	14.561	914.604	691.260
194.344	14.557	914.367	691.005
195.359	14.613	913.744	690.706
196.373	14.737	913.026	690.611
197.388	14.950	912.600	691.108
198.402	14.968	912.329	690.920
199.417	15.067	911.663	690.760
200.432	15.078	911.024	690.260
201.446	15.062	910.793	689.959
202.461	15.114	910.364	689.787
203.475	15.077	910.102	689.374
204.490	15.027	908.889	688.189
205.504	14.882	908.089	686.928
206.519	14.922	907.504	686.588
207.534	15.043	906.194	686.032
208.548	14.971	905.772	685.357
209.563	15.038	905.236	685.164
210.577	15.056	904.464	684.596
211.592	15.004	903.952	683.935
212.607	15.166	903.070	683.865
213.621	15.235	902.404	683.585
214.636	15.244	901.801	683.105
215.650	15.238	901.159	682.530
216.665	15.320	900.260	682.125
217.680	15.306	899.911	681.744
218.694	15.276	899.457	681.218
219.709	15.427	898.321	680.907
220.723	15.377	897.593	680.093
221.738	15.238	897.028	679.042
222.753	15.289	896.536	678.817
223.767	15.234	896.361	678.402
224.782	15.329	895.819	678.315
225.796	15.329	895.411	677.944
226.811	15.384	894.544	677.452
227.826	15.289	893.760	676.415
228.840	15.276	892.968	675.705
229.855	15.223	892.348	674.963
230.869	15.272	891.323	674.322
231.884	15.247	890.586	673.603
232.899	15.146	890.176	672.828
233.913	15.233	888.956	672.198
234.928	15.177	888.529	671.590
235.942	15.196	888.032	671.230
236.957	15.378	887.532	671.522
237.972	15.314	886.624	670.518
238.986	15.374	886.093	670.299
240.001	15.264	885.642	669.459
241.015	15.376	884.864	669.259
242.030	15.266	884.723	668.655
243.045	15.426	883.958	668.653
244.059	15.339	883.595	667.974
245.074	15.514	882.815	668.022
246.088	15.565	881.964	667.522
247.103	15.538	881.675	667.134
248.117	15.596	880.990	666.790
249.132	15.618	880.748	666.636
250.147	15.801	879.951	666.698
251.161	15.877	879.065	666.266
252.176	15.760	878.772	665.525
253.190	16.088	877.763	665.997
254.205	15.968	877.545	665.297
255.220	15.917	876.659	664.367
256.234	15.905	876.206	663.917
257.249	15.894	875.700	663.430
258.263	15.888	874.839	662.695
259.278	15.894	873.955	661.994
260.293	16.013	873.701	662.207
261.307	16.101	872.666	661.712
262.322	16.138	872.041	661.324
263.336	16.110	871.382	660.657
264.351	16.195	870.610	660.344
265.366	16.067	870.273	659.528
266.380	16.164	869.600	659.341
267.395	16.147	868.879	658.669
268.409	16.041	868.449	657.871
269.424	16.200	867.104	657.412
270.439	16.108	866.432	656.488
271.453	15.894	866.308	655.504
272.468	15.966	865.661	655.237
273.482	16.064	865.100	655.136
274.497	16.111	864.502	654.807
275.512	16.005	863.938	653.910
276.526	16.131	863.567	654.059
277.541	16.121	863.026	653.551
278.555	16.263	862.227	653.440
279.570	16.428	861.457	653.438
280.585	16.313	860.601	652.286
281.599	16.272	860.046	651.647
282.614	16.196	859.456	650.849
283.628	16.204	858.753	650.290
284.643	16.354	858.028	650.262
285.657	16.268	857.712	649.634
286.672	16.319	857.004	649.237
287.687	16.367	856.432	648.929
288.701	16.211	856.190	648.091
289.716	16.485	855.351	648.449
290.730	16.405	854.901	647.745
291.745	16.357	854.179	646.955
292.760	16.480	853.549	646.891
293.774	16.514	852.860	646.441
294.789	16.556	851.894	645.813
295.803	16.353	851.741	644.867
296.818	16.361	851.145	644.390
297.833	16.413	850.309	643.896
298.847	16.520	849.735	643.811
299.862	16.374	849.340	642.900
300.876	16.536	848.642	642.930
301.891	16.576	848.219	642.707
302.906	16.501	847.961	642.168
303.920	16.637	847.410	642.212
304.935	16.615	846.964	641.731
305.949	16.755	846.007	641.480
306.964	16.672	845.387	640.641
307.979	16.552	845.234	640.013
308.993	16.728	844.252	639.876
310.008	16.690	843.561	639.152
311.022	16.582	843.724	638.811
312.037	16.587	842.843	638.109
313.052	16.592	841.856	637.325
314.066	16.434	841.556	636.444
315.081	16.558	840.892	636.353
316.095	16.505	840.151	635.537
317.110	16.520	839.643	635.151
318.125	16.599	839.303	635.134
319.139	16.577	838.998	634.766
320.154	16.625	838.307	634.365
321.168	16.633	837.772	633.935
322.183	16.693	836.962	633.492
323.197	16.691	836.607	633.158
324.212	16.773	836.155	633.068
325.227	16.838	835.435	632.707
326.241	16.667	834.529	631.329
327.256	16.768	834.298	631.475
328.270	16.512	833.909	630.171
329.285	16.551	833.491	629.945
330.300	16.653	832.609	629.602
331.314	16.739	832.392	629.700
332.329	16.827	831.497	629.296
333.343	16.729	831.541	628.908
334.358	16.862	831.197	629.088
335.373	16.963	830.645	628.988
336.387	16.961	830.402	628.742
337.402	16.954	829.974	628.334
338.416	17.212	829.596	628.947
339.431	17.306	828.810	628.646
340.446	17.130	828.602	627.782
341.460	17.196	828.539	627.922
342.475	17.280	827.918	627.704
343.489	17.267	827.610	627.370
344.504	17.404	827.224	627.525
345.519	17.235	826.857	626.569
346.533	17.297	826.095	626.163
347.548	17.129	825.686	625.180
348.562	17.122	824.914	624.514
349.577	17.077	823.939	623.555
350.592	16.998	824.022	623.274
351.606	16.995	822.927	622.380
352.621	17.091	822.399	622.277
353.635	17.097	821.725	621.734
354.650	17.232	821.045	621.659
355.665	17.433	820.401	621.850
356.679	17.213	820.266	620.890
357.694	17.310	819.573	620.662
358.708	17.218	818.909	619.769
359.723	17.171	818.407	619.163
360.738	17.235	817.741	618.838
361.752	17.230	817.168	618.332
362.767	17.286	816.823	618.220
363.781	17.409	816.240	618.170
364.796	17.505	815.828	618.152
365.810	17.592	815.409	618.097
366.825	17.660	815.100	618.054
367.840	17.593	814.553	617.343
368.854	17.502	814.314	616.777
369.869	17.535	813.896	616.524
370.883	17.641	813.185	616.315
371.898	17.636	812.751	615.913
372.913	17.703	812.657	616.028
373.927	17.625	811.911	615.130
374.942	17.642	811.551	614.862
375.956	17.773	810.899	614.787
376.971	17.819	810.520	614.610
377.986	17.783	810.437	614.363
379.000	17.898	809.794	614.236
380.015	17.926	809.310	613.915
381.029	17.891	808.913	613.433
382.044	17.809	808.344	612.651
383.059	17.840	807.574	612.126
384.073	17.871	806.713	611.532
385.088	17.728	806.012	610.434
386.102	17.739	805.661	610.152
387.117	17.637	805.366	609.510
388.132	17.778	804.877	609.589
389.146	17.761	804.102	608.890
390.161	17.755	803.987	608.727
391.175	17.966	803.254	608.869
392.190	17.913	802.896	608.354
393.205	17.769	802.157	607.229
394.219	17.692	802.223	606.952
395.234	17.901	801.272	606.922
396.248	17.652	801.283	605.990
397.263	17.712	800.562	605.605
398.278	17.785	800.253	605.578
399.292	17.904	799.510	605.382
400.307	17.813	799.460	604.968
401.321	17.631	799.222	604.091
402.336	17.679	798.743	603.846
403.350	17.919	797.741	603.883
404.365	17.991	797.447	603.860
405.380	18.143	796.997	604.004
406.394	18.157	796.509	603.631
407.409	18.115	796.364	603.316
408.423	18.101	796.039	602.970
409.438	18.178	795.817	603.019
410.453	18.157	795.581	602.715
411.467	18.337	794.482	602.461
412.482	18.347	793.953	602.042
413.496	18.175	794.090	601.486
414.511	18.315	793.686	601.621
415.526	18.306	793.369	601.295
416.540	18.400	792.514	600.925
417.555	18.392	791.776	600.284
418.569	18.311	791.779	599.948
419.584	18.399	791.395	599.912
420.599	18.513	790.770	599.785
421.613	156.328	1370.210	1793.879
422.628	135.239	1454.658	1793.981
