DTS Sentinel unit serial number:	SN413079Multiplexer serial number:	ORYXHardware model number:	OX4-SRSoftware version number:	ORYX F/W v4.00 Oryx Data Collector v3.7.2.0data status	okinstallation	princeton_trtdifferential loss correction	single-endedforward channel	channel 1reverse channel	N/Adate	2019/09/18time	08:14:35forward acquisition time	60.00reverse acquisition time	0.00gamma	496.2192k internal	0.2337k external	0.2337temperature offset calibration	0.9978default loss term (dB/km)	0.3790temperature slope calibration	1.0000multiplexer offset coefficient	1.0000multiplexer slope coefficient	1.0000fibre end	0.00T internal ref (°C)	23.92T ext. ref 1 (°C)	0.21T ext. ref 2 (°C)	19.62length (m)	temperature (°C)	Stokes	anti-Stokes-747.200	800.000	-0.032	0.100
-746.185	-36.722	-0.118	0.063
-745.171	29.305	-0.429	0.366
-744.156	-73.543	-0.300	0.110
-743.142	-135.599	0.201	-0.024
-742.127	97.695	-0.161	0.185
-741.112	75.124	0.162	0.171
-740.098	93.595	-0.139	0.157
-739.083	-115.268	-0.028	0.005
-738.069	696.657	0.125	-0.329
-737.054	88.455	0.159	0.177
-736.039	-159.364	-0.314	0.018
-735.025	154.513	0.149	0.205
-734.010	135.876	-0.090	-0.118
-732.996	32.386	-0.200	-0.173
-731.981	118.098	-0.083	0.103
-730.966	-66.124	0.289	0.116
-729.952	-45.969	-0.358	0.177
-728.937	1.515	0.064	-0.046
-727.923	-124.823	-0.563	0.087
-726.908	-49.368	-0.054	0.026
-725.894	40.402	-0.250	-0.226
-724.879	173.094	0.035	0.051
-723.864	-200.000	0.009	-0.468
-722.850	147.313	0.233	-0.314
-721.835	622.602	0.116	-0.292
-720.821	-200.000	-0.019	-0.268
-719.806	29.037	0.108	-0.092
-718.791	78.023	0.205	0.219
-717.777	-25.445	-0.156	-0.093
-716.762	800.000	0.064	-0.199
-715.748	501.383	-0.113	0.261
-714.733	-4.178	-0.387	0.269
-713.718	-6.096	0.115	0.079
-712.704	21.189	-0.185	-0.150
-711.689	-69.711	-0.377	-0.145
-710.675	-200.000	-0.005	-0.277
-709.660	-200.000	-0.002	-0.075
-708.645	-162.393	-0.083	-0.004
-707.631	-24.951	-0.087	0.052
-706.616	223.676	0.215	0.348
-705.602	-200.000	-0.010	-0.161
-704.587	172.430	-0.034	0.049
-703.572	-79.271	-0.111	-0.038
-702.558	800.000	-0.054	-0.152
-701.543	48.941	-0.209	-0.197
-700.529	-108.324	0.315	0.068
-699.514	-80.575	-0.230	-0.077
-698.499	800.000	-0.067	-0.252
-697.485	440.276	0.165	0.362
-696.470	-96.255	0.313	0.083
-695.456	-77.784	0.084	-0.029
-694.441	291.884	0.120	0.219
-693.426	483.519	0.109	0.248
-692.412	-200.000	0.029	0.193
-691.397	-200.000	-0.003	-0.090
-690.383	62.573	0.140	0.141
-689.368	39.956	-0.126	-0.114
-688.354	-200.000	0.003	0.185
-687.339	-200.000	-0.045	-0.382
-686.324	-200.000	0.016	0.122
-685.310	-18.636	-0.056	0.035
-684.295	5.435	-0.040	-0.030
-683.281	-200.000	-0.054	0.339
-682.266	340.835	-0.131	-0.256
-681.251	21.936	-0.192	-0.157
-680.237	-98.220	-0.207	-0.053
-679.222	-145.545	0.293	-0.026
-678.208	-73.321	-0.201	0.074
-677.193	128.754	-0.115	-0.147
-676.178	68.985	-0.087	-0.090
-675.164	800.000	-0.097	0.318
-674.149	91.347	-0.159	0.179
-673.135	-111.974	-0.281	-0.057
-672.120	25.604	-0.336	0.280
-671.105	353.258	0.192	0.382
-670.091	523.654	0.107	-0.252
-669.076	-60.662	0.018	0.008
-668.062	-45.312	-0.194	-0.097
-667.047	361.864	-0.050	-0.101
-666.032	91.360	-0.100	-0.113
-665.018	-131.558	0.179	0.024
-664.003	-200.000	0.036	0.206
-662.989	-200.000	-0.017	-0.204
-661.974	445.351	-0.111	0.243
-660.959	-200.000	-0.011	0.060
-659.945	-200.000	0.010	-0.149
-658.930	421.582	-0.151	0.325
-657.916	525.861	0.072	0.170
-656.901	261.345	-0.156	-0.270
-655.886	129.628	0.069	-0.088
-654.872	-78.909	0.255	-0.087
-653.857	14.316	-0.155	-0.121
-652.843	-39.789	-0.236	0.123
-651.828	-153.191	0.207	-0.015
-650.814	777.262	-0.132	0.360
-649.799	178.987	-0.125	0.183
-648.784	-200.000	-0.005	-0.031
-647.770	-65.677	-0.116	0.046
-646.755	607.162	0.111	-0.276
-645.741	290.093	-0.271	-0.492
-644.726	-69.465	-0.314	-0.120
-643.711	-65.399	-0.191	0.077
-642.697	-52.500	0.049	0.023
-641.682	-126.300	-0.302	0.045
-640.668	800.000	-0.067	-0.193
-639.653	-107.195	-0.384	-0.084
-638.638	-200.000	-0.029	0.290
-637.624	593.670	0.085	0.211
-636.609	-200.000	0.014	-0.312
-635.595	-96.329	-0.415	0.110
-634.580	-110.500	0.259	-0.054
-633.565	-39.866	-0.346	0.181
-632.551	763.003	0.042	0.113
-631.536	-80.954	-0.219	0.072
-630.522	36.459	-0.174	-0.153
-629.507	98.098	0.291	-0.335
-628.492	18.378	-0.143	-0.114
-627.478	-200.000	0.059	0.373
-626.463	411.429	-0.065	0.138
-625.449	22.024	-0.167	-0.136
-624.434	-111.822	0.263	-0.053
-623.419	800.000	0.100	-0.276
-622.405	-200.000	0.019	0.147
-621.390	-200.000	-0.030	0.271
-620.376	-200.000	-0.003	0.134
-619.361	-132.281	0.355	-0.046
-618.346	-200.000	0.006	0.240
-617.332	-110.049	0.137	0.029
-616.317	31.502	0.139	0.119
-615.303	-10.919	0.340	-0.224
-614.288	20.156	-0.169	0.136
-613.273	60.403	-0.093	-0.092
-612.259	439.627	-0.112	-0.244
-611.244	225.415	0.087	-0.140
-610.230	-91.225	-0.043	-0.012
-609.215	-80.261	0.041	0.014
-608.201	491.393	0.107	0.245
-607.186	82.944	-0.226	-0.246
-606.171	-200.000	0.001	-0.222
-605.157	67.126	0.114	-0.116
-604.142	-94.814	0.081	-0.022
-603.128	-15.650	-0.258	0.164
-602.113	224.192	-0.137	0.220
-601.098	268.422	0.151	0.264
-600.084	800.000	0.145	-0.463
-599.069	288.401	0.093	-0.168
-598.055	800.000	0.069	-0.196
-597.040	30.069	0.383	0.326
-596.025	800.000	-0.025	0.101
-595.011	-200.000	-0.030	-0.136
-593.996	473.320	-0.171	-0.384
-592.982	-200.000	-0.003	0.298
-591.967	221.694	0.096	0.154
-590.952	-200.000	0.012	0.425
-589.938	63.816	-0.081	0.082
-588.923	95.715	0.209	-0.238
-587.909	-69.760	-0.243	-0.092
-586.894	18.170	0.143	0.114
-585.879	28.144	-0.203	0.171
-584.865	-40.927	0.076	0.039
-583.850	-154.495	0.456	0.030
-582.836	96.269	-0.286	0.326
-581.821	21.615	-0.288	-0.233
-580.806	-152.526	-0.204	0.015
-579.792	800.000	0.154	0.467
-578.777	62.500	0.165	0.164
-577.763	-103.281	0.187	0.044
-576.748	-90.146	0.272	-0.079
-575.733	-200.000	0.003	0.104
-574.719	1.948	0.340	0.245
-573.704	205.088	0.198	0.307
-572.690	-82.158	-0.261	0.085
-571.675	671.651	0.127	0.329
-570.661	-94.891	-0.269	0.073
-569.646	-182.454	-0.228	-0.004
-568.631	105.652	-0.182	-0.214
-567.617	800.000	-0.024	0.082
-566.602	-200.000	0.023	-0.111
-565.588	117.827	-0.230	-0.283
-564.573	16.607	0.185	-0.146
-563.558	-200.000	0.010	-0.236
-562.544	624.678	-0.056	-0.142
-561.529	203.869	0.095	0.147
-560.515	-107.173	0.190	0.042
-559.500	-159.069	-0.321	0.018
-558.485	-200.000	-0.004	-0.165
-557.471	249.939	-0.125	-0.212
-556.456	-48.024	0.133	-0.064
-555.442	36.455	0.217	-0.191
-554.427	227.199	-0.119	-0.193
-553.412	598.818	-0.079	-0.194
-552.398	24.015	0.199	-0.164
-551.383	-169.744	-0.086	0.003
-550.369	0.399	0.175	-0.125
-549.354	17.065	0.103	0.081
-548.339	-200.000	0.044	-0.257
-547.325	-200.000	-0.067	-0.381
-546.310	-128.844	0.272	-0.038
-545.296	-108.731	-0.276	-0.059
-544.281	112.810	-0.061	0.074
-543.266	23.450	-0.206	-0.169
-542.252	-2.155	0.375	-0.262
-541.237	764.858	-0.180	-0.487
-540.223	332.282	-0.092	-0.178
-539.208	-127.839	0.372	0.053
-538.193	-200.000	0.018	-0.198
-537.179	-56.042	-0.120	-0.053
-536.164	-200.000	0.069	-0.336
-535.150	67.716	-0.160	-0.162
-534.135	-121.507	-0.172	0.028
-533.121	176.021	-0.084	-0.121
-532.106	800.000	-0.075	-0.223
-531.091	-25.803	0.056	-0.033
-530.077	-90.955	-0.258	-0.074
-529.062	-200.000	0.019	0.206
-528.048	86.647	-0.168	0.185
-527.033	224.372	0.015	-0.025
-526.018	-200.000	-0.038	0.201
-525.004	326.963	0.152	0.290
-523.989	-188.760	0.259	0.003
-522.975	-200.000	-0.063	-0.275
-521.960	163.343	-0.214	-0.299
-520.945	483.477	-0.112	-0.254
-519.931	-33.981	0.193	-0.105
-518.916	156.931	0.127	0.174
-517.902	-19.754	-0.371	-0.228
-516.887	443.639	0.107	0.234
-515.872	48.903	0.121	0.113
-514.858	-73.369	-0.195	-0.071
-513.843	-32.121	0.142	0.079
-512.829	-69.590	-0.314	-0.120
-511.814	-131.514	0.114	0.015
-510.799	-73.623	0.066	-0.024
-509.785	76.826	-0.085	-0.090
-508.770	-123.057	-0.059	0.009
-507.756	-200.000	0.051	0.356
-506.741	298.953	0.117	-0.214
-505.726	225.589	-0.167	0.270
-504.712	508.369	-0.105	-0.243
-503.697	47.877	0.338	0.314
-502.683	49.951	0.244	-0.229
-501.668	-88.105	-0.344	-0.103
-500.653	-200.000	-0.006	-0.045
-499.639	-25.658	0.238	0.139
-498.624	800.000	-0.093	-0.256
-497.610	-200.000	-0.022	0.153
-496.595	608.682	-0.066	-0.163
-495.581	-200.000	0.070	0.381
-494.566	223.196	-0.196	0.314
-493.551	-200.000	-0.004	0.082
-492.537	800.000	-0.057	0.157
-491.522	306.535	-0.090	-0.167
-490.508	-181.956	-0.009	-0.000
-489.493	167.436	0.165	0.233
-488.478	-80.351	-0.185	-0.062
-487.464	240.845	-0.092	-0.152
-486.449	-16.198	-0.017	0.011
-485.435	-200.000	-0.026	-0.264
-484.420	30.131	-0.201	-0.171
-483.405	79.795	-0.371	0.396
-482.391	418.489	0.083	-0.177
-481.376	-135.159	-0.264	0.032
-480.362	133.031	-0.163	0.209
-479.347	-117.273	0.260	0.047
-478.332	-105.587	0.270	0.061
-477.318	612.790	0.109	-0.270
-476.303	-182.632	0.253	0.005
-475.289	141.375	0.010	0.013
-474.274	113.002	0.128	-0.155
-473.259	-19.054	-0.125	0.077
-472.245	-4.070	-0.144	-0.099
-471.230	3.669	0.271	0.197
-470.216	418.812	0.141	-0.299
-469.201	-92.586	-0.338	-0.094
-468.186	-200.000	0.029	0.446
-467.172	-200.000	-0.024	0.172
-466.157	23.215	0.151	0.123
-465.143	674.425	0.106	-0.272
-464.128	800.000	0.074	0.254
-463.113	-25.988	0.277	0.162
-462.099	6.934	-0.095	-0.071
-461.084	201.362	0.075	-0.115
-460.070	437.557	-0.013	0.028
-459.055	-200.000	-0.003	-0.195
-458.040	-63.513	-0.411	0.168
-457.026	38.309	0.284	-0.251
-456.011	108.246	-0.180	-0.213
-454.997	384.949	0.044	-0.089
-453.982	40.815	-0.141	0.127
-452.968	-110.121	-0.161	0.033
-451.953	-41.201	0.252	-0.129
-450.938	-42.902	0.252	-0.127
-449.924	90.817	-0.166	-0.185
-448.909	3.715	0.274	0.199
-447.895	-149.762	0.122	-0.010
-446.880	800.000	0.048	-0.145
-445.865	-37.992	0.187	0.098
-444.851	-200.000	0.015	0.093
-443.836	-140.350	0.223	-0.023
-442.822	-20.992	0.232	0.141
-441.807	18.662	-0.154	-0.122
-440.792	-21.382	-0.092	0.056
-439.778	-41.545	0.115	-0.059
-438.763	196.312	0.093	0.141
-437.749	25.103	-0.189	-0.156
-436.734	-15.275	0.030	0.019
-435.719	-65.591	0.222	-0.088
-434.705	800.000	-0.031	-0.106
-433.690	-127.852	0.114	0.016
-432.676	-64.688	0.214	-0.086
-431.661	467.542	-0.021	0.046
-430.646	-81.723	-0.050	0.016
-429.632	-167.809	0.217	-0.008
-428.617	780.534	-0.012	-0.032
-427.603	-157.707	-0.078	-0.005
-426.588	27.132	0.310	0.258
-425.573	207.071	-0.016	0.024
-424.559	10.340	-0.092	-0.069
-423.544	-148.107	-0.456	0.037
-422.530	-200.000	-0.046	-0.269
-421.515	70.543	0.097	-0.100
-420.500	668.869	0.128	0.329
-419.486	34.799	-0.083	-0.072
-418.471	-64.638	-0.049	0.020
-417.457	-200.000	-0.020	0.111
-416.442	575.158	0.038	0.092
-415.428	92.298	0.229	-0.256
-414.413	-71.650	0.286	0.106
-413.398	-80.766	0.111	-0.036
-412.384	-44.746	0.346	-0.171
-411.369	-43.247	-0.254	0.127
-410.355	-27.727	0.197	-0.113
-409.340	800.000	0.047	0.144
-408.325	-104.433	-0.315	-0.072
-407.311	-27.890	0.211	0.121
-406.296	-156.556	-0.189	0.012
-405.282	-126.256	-0.085	-0.013
-404.267	-24.195	0.249	-0.147
-403.252	-200.000	-0.001	0.198
-402.238	265.361	-0.129	0.223
-401.223	-67.363	-0.341	0.133
-400.209	163.166	-0.114	-0.159
-399.194	-200.000	0.003	0.080
-398.179	-200.000	0.022	0.234
-397.165	-140.663	0.137	0.014
-396.150	800.000	-0.070	0.291
-395.136	3.499	0.172	-0.124
-394.121	-200.000	-0.035	-0.358
-393.106	-69.289	-0.191	-0.073
-392.092	-200.000	-0.076	-0.477
-391.077	42.948	0.128	0.116
-390.063	574.901	0.052	0.125
-389.048	-159.164	0.258	0.014
-388.033	-118.018	0.263	-0.047
-387.019	-127.995	-0.197	-0.028
-386.004	-200.000	-0.021	0.118
-384.990	-131.467	-0.200	-0.026
-383.975	-113.919	0.374	0.072
-382.960	534.144	-0.090	-0.211
-381.946	-8.411	0.298	-0.198
-380.931	-200.000	0.053	0.404
-379.917	28.322	-0.232	0.194
-378.902	-58.456	-0.167	-0.072
-377.888	186.498	-0.236	-0.348
-376.873	-120.796	0.214	-0.036
-375.858	-200.000	0.006	0.032
-374.844	-89.479	0.271	0.079
-373.829	-200.000	-0.031	-0.166
-372.815	-78.856	-0.209	-0.071
-371.800	439.781	0.041	-0.089
-370.785	-200.000	0.015	-0.066
-369.771	-50.453	-0.210	0.098
-368.756	5.097	0.185	0.135
-367.742	-114.091	-0.198	-0.038
-366.727	29.072	0.289	0.243
-365.712	360.382	0.121	0.240
-364.698	-98.448	-0.231	-0.059
-363.683	-200.000	0.029	0.332
-362.669	-200.000	0.040	0.321
-361.654	-81.226	0.054	0.018
-360.639	138.873	-0.068	-0.089
-359.625	-200.000	0.000	0.023
-358.610	-200.000	-0.021	-0.427
-357.596	800.000	-0.088	-0.320
-356.581	-10.298	0.111	0.073
-355.566	800.000	-0.022	0.082
-354.552	-200.000	-0.027	-0.152
-353.537	78.830	0.279	-0.295
-352.523	800.000	-0.093	0.272
-351.508	50.122	-0.195	0.182
-350.493	-66.725	-0.127	0.050
-349.479	530.562	0.098	-0.230
-348.464	214.700	-0.096	-0.150
-347.450	126.754	-0.058	-0.072
-346.435	-200.000	0.047	-0.394
-345.420	800.000	0.055	0.158
-344.406	-54.617	0.295	0.132
-343.391	109.355	-0.135	-0.160
-342.377	202.485	0.077	0.118
-341.362	-72.818	-0.330	-0.120
-340.348	-68.470	-0.064	-0.024
-339.333	-68.626	0.382	-0.146
-338.318	-127.622	-0.189	-0.027
-337.304	10.858	0.140	-0.106
-336.289	-200.000	0.047	0.297
-335.275	800.000	0.065	-0.257
-334.260	-30.697	0.116	-0.065
-333.245	-36.449	-0.057	0.030
-332.231	-200.000	0.052	0.348
-331.216	38.273	0.188	-0.165
-330.202	287.862	0.019	-0.034
-329.187	-38.699	-0.267	0.139
-328.172	153.144	0.126	0.170
-327.158	-82.966	-0.184	0.059
-326.143	-86.432	-0.337	-0.102
-325.129	40.803	0.163	0.145
-324.114	-200.000	-0.078	0.353
-323.099	454.734	-0.122	0.267
-322.085	209.005	0.154	0.239
-321.070	-89.094	-0.122	0.036
-320.056	145.989	-0.097	-0.128
-319.041	-161.846	0.151	-0.008
-318.026	-109.660	0.139	-0.029
-317.012	800.000	0.016	0.050
-315.997	800.000	0.041	-0.131
-314.983	53.219	-0.044	-0.042
-313.968	-164.340	0.595	-0.027
-312.953	800.000	0.069	-0.248
-311.939	-200.000	-0.005	-0.046
-310.924	29.371	0.257	0.215
-309.910	-106.678	-0.350	-0.077
-308.895	223.503	0.212	0.337
-307.880	-31.349	-0.090	0.050
-306.866	531.542	-0.103	0.240
-305.851	-56.339	0.109	0.048
-304.837	-177.328	0.111	0.003
-303.822	-200.000	0.016	0.133
-302.807	-200.000	-0.037	-0.159
-301.793	-81.181	-0.263	0.086
-300.778	-144.969	-0.165	0.015
-299.764	313.542	-0.129	-0.239
-298.749	-47.044	0.123	0.059
-297.735	377.774	-0.098	0.198
-296.720	84.924	-0.238	-0.257
-295.705	3.204	-0.302	-0.217
-294.691	-13.543	-0.402	-0.257
-293.676	-137.745	-0.043	0.005
-292.662	38.650	-0.180	-0.158
-291.647	800.000	-0.080	0.221
-290.632	-113.673	0.185	0.036
-289.618	-159.497	-0.170	0.009
-288.603	-104.821	-0.378	0.086
-287.589	800.000	0.081	0.301
-286.574	505.600	0.130	0.298
-285.559	346.604	0.164	-0.318
-284.545	324.156	-0.071	-0.133
-283.530	-150.432	-0.565	-0.043
-282.516	144.544	-0.140	-0.184
-281.501	-200.000	-0.046	-0.245
-280.486	179.209	0.081	-0.117
-279.472	-52.901	0.225	-0.102
-278.457	-200.000	-0.002	0.162
-277.443	67.341	-0.116	0.117
-276.428	-200.000	0.000	0.010
-275.413	67.732	0.172	-0.173
-274.399	143.297	-0.030	0.039
-273.384	-107.913	-0.130	-0.028
-272.370	-135.049	-0.266	-0.032
-271.355	-15.169	0.303	-0.191
-270.340	210.988	-0.173	0.267
-269.326	22.970	-0.028	-0.023
-268.311	201.199	-0.087	0.132
-267.297	26.379	-0.128	0.105
-266.282	60.079	0.246	-0.240
-265.267	-200.000	-0.014	-0.126
-264.253	356.989	-0.090	0.176
-263.238	19.945	0.034	-0.027
-262.224	297.870	0.128	0.231
-261.209	27.411	-0.066	0.055
-260.195	-200.000	0.023	0.322
-259.180	-135.443	0.227	-0.027
-258.165	469.367	-0.017	-0.037
-257.151	-61.786	0.255	0.105
-256.136	800.000	0.066	0.246
-255.122	155.992	0.202	-0.274
-254.107	18.164	0.115	-0.091
-253.092	-200.000	0.045	-0.289
-252.078	-200.000	-0.052	0.288
-251.063	542.607	-0.093	-0.218
-250.049	613.206	-0.144	-0.355
-249.034	800.000	0.057	0.196
-248.019	18.068	0.166	-0.130
-247.005	796.070	-0.037	0.100
-245.990	-93.199	0.249	0.068
-244.976	-200.000	0.035	-0.281
-243.961	413.755	0.004	-0.008
-242.946	66.589	-0.063	0.063
-241.932	81.501	-0.096	-0.103
-240.917	-200.000	0.059	-0.268
-239.903	-42.886	-0.234	-0.117
-238.888	-143.436	0.134	0.013
-237.873	137.674	0.089	0.114
-236.859	74.115	0.137	-0.141
-235.844	47.254	-0.271	0.249
-234.830	19.145	0.342	0.270
-233.815	-114.402	0.291	0.055
-232.800	232.643	0.042	-0.068
-231.786	12.303	-0.131	-0.100
-230.771	173.447	-0.143	0.203
-229.757	800.000	-0.081	-0.262
-228.742	-200.000	-0.020	0.403
-227.727	617.110	-0.096	0.236
-226.713	193.734	-0.099	0.148
-225.698	-135.872	-0.087	0.010
-224.684	11.165	-0.070	-0.053
-223.669	-147.187	0.107	0.009
-222.655	-167.684	-0.176	-0.007
-221.640	17.961	-0.312	0.244
-220.625	800.000	-0.081	-0.224
-219.611	714.356	-0.050	0.132
-218.596	-154.078	-0.482	0.032
-217.582	-139.917	-0.453	-0.047
-216.567	-27.056	0.412	0.236
-215.552	-139.472	-0.324	0.034
-214.538	-153.296	0.357	0.024
-213.523	222.675	0.038	-0.061
-212.509	-133.406	0.179	-0.022
-211.494	64.502	0.350	-0.347
-210.479	-16.410	0.376	0.234
-209.465	5.140	-0.162	-0.117
-208.450	235.554	0.208	0.338
-207.436	-200.000	-0.073	0.374
-206.421	-26.107	0.245	0.142
-205.406	800.000	0.037	-0.155
-204.392	788.624	0.066	0.178
-203.377	50.981	-0.086	0.080
-202.363	-111.909	-0.346	-0.069
-201.348	284.588	-0.232	0.410
-200.333	800.000	0.008	-0.029
-199.319	18.956	0.237	-0.186
-198.304	15.519	-0.230	0.178
-197.290	-157.967	-0.179	-0.010
-196.275	-3.938	0.265	0.181
-195.260	198.439	-0.176	0.265
-194.246	-62.564	0.218	-0.089
-193.231	800.000	0.047	-0.147
-192.217	800.000	-0.133	-0.401
-191.202	-200.000	-0.041	0.180
-190.187	275.930	-0.037	-0.065
-189.173	800.000	-0.048	-0.187
-188.158	37.328	0.172	0.150
-187.144	145.733	0.046	0.061
-186.129	800.000	-0.071	0.222
-185.114	276.866	-0.076	0.133
-184.100	62.494	0.402	0.395
-183.085	-39.081	0.275	0.142
-182.071	167.032	0.163	-0.227
-181.056	-118.301	-0.280	-0.049
-180.042	327.217	0.029	-0.055
-179.027	-147.751	-0.289	0.024
-178.012	337.302	-0.138	0.263
-176.998	-12.656	0.288	-0.184
-175.983	-37.321	-0.073	-0.038
-174.969	-71.671	0.109	-0.040
-173.954	127.509	0.093	0.116
-172.939	28.026	0.056	-0.047
-171.925	-54.031	-0.165	-0.074
-170.910	-200.000	0.005	-0.152
-169.896	-95.034	-0.241	0.064
-168.881	204.500	0.041	-0.063
-167.866	-25.641	0.103	0.060
-166.852	243.332	0.159	-0.262
-165.837	149.656	0.234	0.312
-164.823	539.063	-0.116	0.271
-163.808	-88.069	-0.084	-0.025
-162.793	-48.906	0.305	-0.143
-161.779	243.341	0.110	0.182
-160.764	-65.082	-0.155	-0.061
-159.750	-7.405	-0.180	-0.120
-158.735	800.000	0.064	-0.181
-157.720	241.296	0.114	-0.187
-156.706	-54.545	-0.088	0.039
-155.691	-200.000	0.066	0.398
-154.677	-93.446	0.236	0.064
-153.662	-37.760	-0.125	0.065
-152.647	57.670	-0.031	0.030
-151.633	-80.942	-0.210	-0.068
-150.618	-37.246	0.138	-0.072
-149.604	53.886	0.165	0.156
-148.589	-68.234	0.266	-0.102
-147.574	-40.521	0.283	-0.144
-146.560	-31.387	0.059	0.033
-145.545	-200.000	0.044	0.306
-144.531	315.972	0.069	0.127
-143.516	54.780	0.186	-0.176
-142.502	651.191	0.095	-0.239
-141.487	716.695	0.049	-0.128
-140.472	-101.807	-0.217	0.051
-139.458	-124.045	-0.190	0.029
-138.443	-200.000	0.008	0.156
-137.429	-165.538	-0.338	-0.014
-136.414	171.444	0.248	0.349
-135.399	-63.519	-0.103	-0.041
-134.385	800.000	0.061	-0.178
-133.370	-89.250	-0.290	-0.084
-132.356	20.369	-0.167	-0.132
-131.341	-94.312	0.202	-0.054
-130.326	-54.926	0.081	0.036
-129.312	149.330	-0.156	-0.207
-128.297	-200.000	-0.037	0.186
-127.283	-57.985	-0.162	-0.069
-126.268	376.113	0.128	-0.256
-125.253	20.956	0.257	0.204
-124.239	-62.424	-0.259	0.106
-123.224	84.691	-0.076	0.082
-122.210	-167.287	-0.053	0.002
-121.195	-200.000	0.000	0.045
-120.180	-200.000	0.046	0.257
-119.166	800.000	-0.080	0.287
-118.151	196.323	0.220	-0.329
-117.137	649.982	0.022	0.055
-116.122	-116.068	0.153	-0.028
-115.107	-200.000	0.084	-0.484
-114.093	30.612	-0.246	-0.206
-113.078	-72.904	0.309	0.111
-112.064	171.954	0.050	0.070
-111.049	-58.452	0.133	-0.056
-110.034	47.900	0.117	-0.107
-109.020	-32.445	-0.133	0.072
-108.005	-21.846	0.269	-0.160
-106.991	-200.000	0.029	0.130
-105.976	16.198	-0.110	-0.085
-104.962	90.899	-0.064	-0.070
-103.947	-158.394	-0.039	-0.002
-102.932	745.685	0.082	0.216
-101.918	800.000	-0.142	0.418
-100.903	652.292	0.050	0.125
-99.889	63.642	-0.162	0.160
-98.874	122.263	-0.130	0.159
-97.859	-7.039	0.161	-0.107
-96.845	-59.928	0.099	0.042
-95.830	66.495	0.204	0.203
-94.816	58.591	-0.297	-0.285
-93.801	32.231	0.097	0.082
-92.786	48.692	-0.180	0.165
-91.772	-96.863	0.150	-0.039
-90.757	-200.000	-0.014	-0.150
-89.743	800.000	0.067	0.278
-88.728	800.000	0.058	0.190
-87.713	-58.782	0.100	0.042
-86.699	4.417	0.124	0.089
-85.684	-200.000	-0.056	-0.358
-84.670	386.673	0.113	-0.228
-83.655	-200.000	-0.027	0.198
-82.640	-22.970	0.050	0.029
-81.626	800.000	-0.035	-0.144
-80.611	195.056	0.124	-0.184
-79.597	-117.502	0.180	-0.032
-78.582	241.140	-0.195	0.318
-77.567	800.000	0.122	0.331
-76.553	-200.000	-0.005	0.240
-75.538	-180.369	-0.177	0.004
-74.524	-55.171	-0.405	-0.178
-73.509	66.440	-0.222	-0.221
-72.494	778.551	0.085	-0.228
-71.480	800.000	-0.012	0.048
-70.465	-30.175	-0.126	-0.070
-69.451	-24.101	0.121	-0.071
-68.436	-180.181	-0.052	-0.001
-67.422	53.158	-0.151	0.141
-66.407	-94.913	-0.116	0.031
-65.392	77.448	-0.125	-0.130
-64.378	18.038	-0.152	0.119
-63.363	422.389	0.221	-0.463
-62.349	800.000	0.029	-0.104
-61.334	97.339	-1.150	-1.291
-60.319	134.582	0.721	0.915
-59.305	-200.000	-0.167	-0.889
-58.290	316.907	0.701	1.296
-57.276	542.797	0.654	1.525
-56.261	-200.000	121.439	612.231
-55.246	394.854	1555.680	3169.171
-54.232	143.105	2718.430	3533.559
-53.217	95.072	2167.117	2411.150
-52.203	35.350	1598.662	1370.194
-51.188	27.107	1341.724	1100.254
-50.173	24.330	1304.282	1053.137
-49.159	50.368	1371.630	1266.595
-48.144	47.872	1383.276	1262.157
-47.130	27.212	1331.665	1092.465
-46.115	24.053	1312.729	1058.144
-45.100	23.923	1307.787	1053.347
-44.086	23.817	1305.244	1050.632
-43.071	23.837	1302.573	1048.559
-42.057	23.727	1301.210	1046.772
-41.042	23.837	1299.267	1045.815
-40.027	23.820	1297.875	1044.552
-39.013	23.976	1295.591	1043.587
-37.998	23.917	1293.846	1041.795
-36.984	23.892	1292.475	1040.505
-35.969	23.896	1290.573	1038.950
-34.954	23.879	1288.992	1037.539
-33.940	23.797	1288.235	1036.412
-32.925	23.975	1286.111	1035.698
-31.911	24.009	1285.043	1034.997
-30.896	24.021	1283.404	1033.704
-29.881	24.062	1282.232	1032.958
-28.867	24.022	1281.228	1031.877
-27.852	23.960	1280.105	1030.570
-26.838	24.133	1278.253	1030.039
-25.823	24.037	1276.934	1028.383
-24.809	23.977	1275.703	1027.001
-23.794	24.008	1274.374	1026.068
-22.779	24.047	1272.860	1025.032
-21.765	23.904	1272.066	1023.534
-20.750	24.084	1270.405	1023.189
-19.736	23.980	1268.975	1021.401
-18.721	23.789	1268.802	1020.125
-17.706	23.858	1267.382	1019.337
-16.692	23.907	1266.250	1018.669
-15.677	23.692	1265.056	1016.438
-14.663	23.960	1263.285	1016.501
-13.648	23.913	1262.468	1015.539
-12.633	23.796	1261.724	1014.232
-11.619	23.917	1260.805	1014.139
-10.604	23.881	1259.779	1013.072
-9.590	23.821	1258.982	1012.049
-8.575	23.834	1258.006	1011.300
-7.560	23.817	1257.388	1010.662
-6.546	23.914	1255.994	1010.056
-5.531	23.881	1255.251	1009.228
-4.517	23.767	1254.700	1008.101
-3.502	23.885	1254.072	1008.224
-2.487	23.781	1253.529	1007.159
-1.473	24.001	1248.626	1004.424
-0.458	22.618	1234.280	985.117
0.556	18.010	1219.103	951.032
1.571	14.765	1226.678	938.654
2.586	14.076	1241.816	946.234
3.600	14.015	1229.161	936.165
4.615	10.055	1157.307	860.318
5.629	3.353	1085.471	773.296
6.644	0.482	1067.738	746.409
7.659	0.126	1066.440	743.677
8.673	0.109	1065.269	742.710
9.688	0.124	1063.500	741.484
10.702	0.310	1062.046	741.319
11.717	4.380	1066.388	764.359
12.731	11.340	1075.949	805.622
13.746	15.689	1081.038	830.899
14.761	16.651	1081.491	835.928
15.775	15.994	1080.044	831.495
16.790	14.999	1078.328	825.194
17.804	14.353	1076.777	820.754
18.819	14.037	1075.492	818.144
19.834	13.774	1074.760	816.224
20.848	13.488	1073.855	814.060
21.863	13.264	1072.887	812.153
22.877	13.090	1072.511	810.939
23.892	13.305	1071.161	810.904
24.907	13.157	1071.012	809.991
25.921	13.162	1069.920	809.117
26.936	13.160	1069.068	808.396
27.950	13.271	1068.063	808.107
28.965	13.242	1066.968	807.062
29.980	13.227	1065.905	806.115
30.994	13.365	1064.533	805.678
32.009	13.493	1062.989	805.059
33.023	13.384	1062.180	803.846
34.038	13.283	1061.413	802.703
35.053	13.384	1060.060	802.100
36.067	13.319	1059.939	801.624
37.082	13.234	1058.598	800.125
38.096	13.307	1058.109	800.037
39.111	13.215	1057.584	799.128
40.126	13.262	1056.107	798.167
41.140	13.242	1054.729	796.959
42.155	13.149	1053.733	795.686
43.169	13.095	1052.986	794.794
44.184	13.062	1051.925	793.762
45.199	13.154	1050.847	793.323
46.213	13.108	1049.618	792.104
47.228	13.234	1048.134	791.518
48.242	13.088	1047.818	790.511
49.257	13.174	1046.610	789.937
50.271	13.254	1045.571	789.466
51.286	13.188	1045.053	788.692
52.301	13.345	1043.499	788.198
53.315	13.198	1042.659	786.790
54.330	13.165	1041.780	785.902
55.344	13.058	1041.294	784.957
56.359	13.045	1040.222	784.018
57.374	13.056	1039.323	783.321
58.388	13.200	1038.216	783.103
59.403	13.171	1037.024	781.997
60.417	13.069	1036.731	781.225
61.432	13.187	1035.774	780.992
62.447	13.113	1034.599	779.686
63.461	13.113	1033.956	779.134
64.476	13.029	1033.221	778.113
65.490	12.975	1032.399	777.173
66.505	13.048	1031.652	776.887
67.520	13.042	1031.163	776.419
68.534	13.163	1030.232	776.216
69.549	13.038	1029.730	775.186
70.563	13.076	1029.085	774.811
71.578	12.937	1028.133	773.371
72.593	13.080	1026.989	773.114
73.607	12.969	1026.958	772.499
74.622	12.962	1026.264	771.876
75.636	13.017	1025.529	771.512
76.651	12.972	1024.731	770.636
77.666	13.015	1024.197	770.367
78.680	13.024	1023.036	769.466
79.695	13.094	1022.660	769.442
80.709	13.036	1022.168	768.731
81.724	13.124	1021.146	768.306
82.739	13.018	1020.983	767.621
83.753	13.212	1019.745	767.524
84.768	13.269	1018.909	767.091
85.782	13.181	1017.744	765.739
86.797	13.289	1016.551	765.275
87.812	13.164	1016.363	764.486
88.826	13.180	1015.044	763.501
89.841	13.200	1014.342	762.996
90.855	13.269	1013.014	762.250
91.870	13.230	1012.568	761.664
92.884	13.321	1011.844	761.474
93.899	13.331	1010.614	760.528
94.914	13.336	1010.087	760.083
95.928	13.293	1009.054	759.045
96.943	13.370	1008.015	758.547
97.957	13.388	1007.278	758.011
98.972	13.161	1006.830	756.564
99.987	13.332	1005.461	756.250
101.001	13.413	1004.417	755.768
102.016	13.301	1003.557	754.544
103.030	13.291	1003.051	754.049
104.045	13.294	1002.190	753.349
105.060	13.415	1001.136	753.044
106.074	13.193	1000.460	751.460
107.089	13.205	999.334	750.598
108.103	13.191	998.552	749.884
109.118	13.026	997.988	748.643
110.133	13.152	997.016	748.422
111.147	13.086	995.943	747.248
112.162	13.279	995.142	747.457
113.176	13.267	994.370	746.754
114.191	13.177	993.776	745.836
115.206	13.225	992.838	745.284
116.220	13.237	991.947	744.601
117.235	13.249	990.879	743.789
118.249	13.314	989.852	743.243
119.264	13.151	989.442	742.137
120.279	13.239	988.721	741.926
121.293	13.135	987.890	740.771
122.308	13.203	986.935	740.295
123.322	13.212	985.707	739.348
124.337	13.173	985.096	738.649
125.352	13.134	984.169	737.714
126.366	13.119	982.793	736.554
127.381	13.181	981.432	735.743
128.395	13.297	980.808	735.724
129.410	13.165	980.137	734.572
130.424	13.188	979.377	734.039
131.439	13.273	978.424	733.636
132.454	13.302	977.792	733.226
133.468	13.328	977.119	732.773
134.483	13.209	975.755	731.159
135.497	13.267	974.938	730.738
136.512	13.294	973.910	730.021
137.527	13.233	973.541	729.409
138.541	13.270	972.737	728.906
139.556	13.328	972.066	728.595
140.570	13.304	971.749	728.187
141.585	13.523	970.105	727.852
142.600	13.437	969.880	727.242
143.614	13.481	968.770	726.541
144.629	13.563	967.838	726.133
145.643	13.352	966.912	724.455
146.658	13.414	965.971	723.955
147.673	13.456	964.795	723.190
148.687	13.367	964.346	722.405
149.702	13.460	963.218	721.900
150.716	13.389	962.562	721.036
151.731	13.486	961.609	720.679
152.746	13.395	961.471	720.116
153.760	13.520	960.604	719.949
154.775	13.546	959.977	719.524
155.789	13.456	959.414	718.649
156.804	13.525	958.790	718.418
157.819	13.628	957.501	717.836
158.833	13.596	957.429	717.580
159.848	13.558	956.681	716.793
160.862	13.539	955.298	715.610
161.877	13.551	954.016	714.636
162.892	13.435	953.440	713.641
163.906	13.417	952.391	712.716
164.921	13.589	951.938	713.053
165.935	13.569	951.077	712.260
166.950	13.657	949.627	711.488
167.964	13.658	948.931	710.908
168.979	13.524	948.573	710.003
169.994	13.558	946.925	708.854
171.008	13.484	947.132	708.627
172.023	13.625	946.300	708.548
173.037	13.761	945.054	708.131
174.052	13.641	944.306	706.997
175.067	13.722	943.695	706.821
176.081	13.678	942.916	705.990
177.096	13.629	942.929	705.726
178.110	13.628	941.768	704.793
179.125	13.638	941.512	704.580
180.140	13.812	940.622	704.590
181.154	13.648	940.779	703.950
182.169	13.735	940.147	703.782
183.183	13.780	939.107	703.132
184.198	13.900	938.111	702.831
185.213	13.845	937.540	702.108
186.227	13.873	937.044	701.796
187.242	13.952	936.719	701.822
188.256	14.013	935.892	701.397
189.271	13.783	935.475	700.055
190.286	13.821	933.936	698.999
191.300	13.676	933.696	698.148
192.315	13.792	932.916	697.991
193.329	13.707	932.636	697.364
194.344	13.865	931.575	697.169
195.359	13.890	930.756	696.603
196.373	13.790	930.462	695.901
197.388	13.940	929.714	695.909
198.402	13.916	929.726	695.754
199.417	14.083	928.421	695.416
200.432	14.119	927.762	695.009
201.446	14.159	927.450	694.883
202.461	14.180	926.737	694.376
203.475	14.232	926.397	694.275
204.490	14.194	925.287	693.222
205.504	14.002	924.902	692.074
206.519	14.081	924.015	691.680
207.534	14.106	923.202	691.112
208.548	14.067	922.875	690.644
209.563	14.060	922.162	690.022
210.577	14.066	921.627	689.584
211.592	14.280	921.058	689.982
212.607	14.365	919.630	689.206
213.621	14.265	919.301	688.484
214.636	14.178	918.730	687.637
215.650	14.270	917.611	687.116
216.665	14.415	916.701	686.971
217.680	14.239	916.461	686.006
218.694	14.287	915.787	685.639
219.709	14.327	915.046	685.187
220.723	14.431	914.029	684.792
221.738	14.305	913.724	683.988
222.753	14.290	913.033	683.346
223.767	14.438	912.066	683.170
224.782	14.360	912.047	682.776
225.796	14.453	911.516	682.698
226.811	14.516	910.781	682.343
227.826	14.285	910.327	681.001
228.840	14.434	909.354	680.819
229.855	14.445	908.527	680.185
230.869	14.388	907.824	679.369
231.884	14.339	907.425	678.807
232.899	14.410	906.641	678.452
233.913	14.394	905.927	677.790
234.928	14.382	905.024	677.007
235.942	14.466	904.413	676.831
236.957	14.401	904.059	676.244
237.972	14.465	902.977	675.631
238.986	14.368	902.493	674.818
240.001	14.455	901.818	674.605
241.015	14.390	901.703	674.199
242.030	14.446	901.136	673.940
243.045	14.650	900.032	673.879
244.059	14.584	899.766	673.353
245.074	14.602	898.895	672.716
246.088	14.672	898.213	672.427
247.103	14.708	897.518	671.993
248.117	14.757	897.265	671.938
249.132	14.817	896.330	671.422
250.147	14.884	895.671	671.137
251.161	14.716	895.490	670.269
252.176	14.907	894.182	669.996
253.190	14.844	893.947	669.507
254.205	14.950	893.228	669.336
255.220	14.827	892.633	668.338
256.234	14.940	892.125	668.350
257.249	14.941	891.340	667.704
258.263	14.896	890.626	666.931
259.278	14.970	889.979	666.684
260.293	14.826	889.815	665.927
261.307	15.011	888.868	665.895
262.322	15.083	888.427	665.794
263.336	15.037	887.517	664.869
264.351	15.217	886.483	664.752
265.366	15.205	885.973	664.262
266.380	15.068	885.831	663.553
267.395	15.150	884.740	663.003
268.409	15.070	883.964	662.045
269.424	15.280	883.059	662.140
270.439	15.104	882.835	661.216
271.453	15.095	882.223	660.665
272.468	15.225	881.782	660.789
273.482	15.117	881.002	659.720
274.497	15.177	880.298	659.371
275.512	15.159	880.195	659.166
276.526	15.197	879.121	658.453
277.541	15.314	878.718	658.552
278.555	15.370	877.848	658.061
279.570	15.276	877.206	657.153
280.585	15.264	876.894	656.812
281.599	15.280	875.708	655.928
282.614	15.306	875.342	655.699
283.628	15.208	874.791	654.845
284.643	15.410	874.016	654.995
285.657	15.414	873.460	654.536
286.672	15.413	873.022	654.147
287.687	15.461	872.246	653.693
288.701	15.399	871.521	652.851
289.716	15.479	870.860	652.609
290.730	15.488	870.384	652.232
291.745	15.485	869.895	651.797
292.760	15.478	869.243	651.223
293.774	15.483	868.628	650.723
294.789	15.517	867.874	650.233
295.803	15.506	867.487	649.844
296.818	15.522	866.703	649.259
297.833	15.571	866.136	648.967
298.847	15.468	865.400	647.960
299.862	15.591	864.676	647.834
300.876	15.575	864.398	647.509
301.891	15.705	863.390	647.197
302.906	15.722	862.829	646.782
303.920	15.807	862.196	646.578
304.935	15.747	861.912	646.079
305.949	15.773	861.096	645.507
306.964	15.864	860.572	645.406
307.979	15.769	860.187	644.698
308.993	15.810	859.321	644.150
310.008	15.885	858.497	643.760
311.022	15.793	858.173	643.109
312.037	15.775	857.530	642.499
313.052	15.726	857.462	642.207
314.066	15.653	856.666	641.274
315.081	15.867	856.073	641.589
316.095	15.842	855.010	640.640
317.110	15.729	855.113	640.232
318.125	15.727	854.384	639.621
319.139	15.734	854.354	639.569
320.154	15.813	853.592	639.244
321.168	15.834	852.766	638.649
322.183	15.824	852.430	638.301
323.197	15.831	852.077	638.008
324.212	15.948	851.363	637.857
325.227	15.929	850.689	637.227
326.241	15.839	850.178	636.447
327.256	15.894	849.475	636.072
328.270	16.025	848.927	636.100
329.285	15.962	848.290	635.328
330.300	15.882	848.251	634.940
331.314	16.118	847.008	634.844
332.329	16.012	846.659	634.125
333.343	16.058	846.062	633.797
334.358	16.141	845.721	633.797
335.373	16.058	845.623	633.356
336.387	16.140	845.097	633.214
337.402	16.138	844.967	633.051
338.416	16.155	844.862	632.982
339.431	16.202	844.208	632.613
340.446	16.047	843.848	631.705
341.460	16.253	843.481	632.146
342.475	16.301	842.940	631.863
343.489	16.354	842.550	631.713
344.504	16.405	841.980	631.422
345.519	16.225	841.970	630.686
346.533	16.275	841.083	630.151
347.548	16.351	840.599	630.017
348.562	16.137	840.244	628.897
349.577	16.237	839.549	628.695
350.592	16.506	838.643	628.959
351.606	16.396	838.075	628.071
352.621	16.355	837.508	627.436
353.635	16.442	836.694	627.094
354.650	16.502	836.124	626.835
355.665	16.382	835.783	626.077
356.679	16.430	835.192	625.758
357.694	16.274	834.601	624.682
358.708	16.534	833.606	624.845
359.723	16.511	833.260	624.443
360.738	16.505	832.678	623.931
361.752	16.639	831.857	623.754
362.767	16.494	831.732	623.071
363.781	16.661	830.849	622.966
364.796	16.491	830.747	622.212
365.810	16.630	829.883	622.018
366.825	16.862	829.388	622.446
367.840	16.740	829.060	621.697
368.854	16.604	828.820	620.964
369.869	16.603	828.531	620.688
370.883	16.704	827.868	620.504
371.898	16.665	827.614	620.120
372.913	16.687	827.026	619.705
373.927	16.761	826.683	619.661
374.942	16.752	826.320	619.303
375.956	16.886	825.622	619.215
376.971	16.930	825.183	618.989
377.986	16.934	824.644	618.544
379.000	16.911	824.355	618.189
380.015	16.952	823.674	617.774
381.029	17.111	823.044	617.824
382.044	17.055	822.440	617.114
383.059	17.114	822.051	616.983
384.073	17.014	821.022	615.791
385.088	16.844	821.337	615.358
386.102	16.936	820.207	614.789
387.117	16.978	819.834	614.608
388.132	16.923	819.502	614.105
389.146	17.021	818.641	613.760
390.161	17.008	818.440	613.509
391.175	17.025	817.861	613.082
392.190	17.003	817.295	612.523
393.205	16.961	817.020	612.110
394.219	16.972	816.382	611.620
395.234	17.016	816.225	611.604
396.248	17.135	815.850	611.701
397.263	17.017	814.968	610.561
398.278	17.090	814.905	610.720
399.292	17.049	814.501	610.216
400.307	16.946	814.016	609.431
401.321	17.091	813.553	609.548
402.336	17.024	813.085	608.904
403.350	17.040	812.950	608.807
404.365	17.259	811.787	608.668
405.380	17.120	811.641	608.005
406.394	17.201	811.162	607.884
407.409	17.300	810.532	607.709
408.423	17.340	810.207	607.555
409.438	17.359	810.188	607.555
410.453	17.412	809.433	607.124
411.467	17.366	809.062	606.627
412.482	17.438	808.297	606.259
413.496	17.470	808.161	606.216
414.511	17.465	808.057	606.068
415.526	17.548	807.279	605.725
416.540	17.531	806.932	605.352
417.555	17.640	806.332	605.233
418.569	17.612	805.893	604.750
419.584	17.605	805.335	604.254
420.599	17.536	805.283	603.919
421.613	113.436	1298.147	1486.704
422.628	97.923	1369.902	1486.782
