DTS Sentinel unit serial number:	SN413079Multiplexer serial number:	ORYXHardware model number:	OX4-SRSoftware version number:	ORYX F/W v4.00 Oryx Data Collector v3.7.2.0data status	okinstallation	princeton_trtdifferential loss correction	single-endedforward channel	channel 1reverse channel	N/Adate	2019/09/17time	23:22:35forward acquisition time	60.00reverse acquisition time	0.00gamma	496.2192k internal	0.2340k external	0.2340temperature offset calibration	0.9982default loss term (dB/km)	0.3790temperature slope calibration	1.0000multiplexer offset coefficient	1.0000multiplexer slope coefficient	1.0000fibre end	0.00T internal ref (°C)	24.37T ext. ref 1 (°C)	0.17T ext. ref 2 (°C)	17.59length (m)	temperature (°C)	Stokes	anti-Stokes-747.200	-200.000	-0.025	0.354
-746.185	800.000	0.090	0.391
-745.171	-174.110	0.537	0.016
-744.156	-32.775	-0.274	0.153
-743.142	-51.843	0.116	0.054
-742.127	-200.000	-0.005	-0.122
-741.112	-67.458	0.227	0.089
-740.098	148.369	0.025	0.035
-739.083	800.000	-0.185	0.566
-738.069	271.529	-0.112	-0.197
-737.054	800.000	0.054	-0.182
-736.039	-120.618	-0.423	0.072
-735.025	395.843	-0.050	-0.105
-734.010	-200.000	-0.002	-0.159
-732.996	-78.392	0.139	0.048
-731.981	26.736	-0.091	0.076
-730.966	314.612	-0.114	0.215
-729.952	-200.000	0.059	-0.412
-728.937	-127.500	-0.260	-0.038
-727.923	800.000	-0.097	0.292
-726.908	126.403	-0.095	-0.120
-725.894	800.000	-0.014	-0.047
-724.879	-62.354	0.287	-0.120
-723.864	800.000	-0.038	0.125
-722.850	-171.382	-0.071	0.002
-721.835	-200.000	0.071	0.369
-720.821	-37.280	-0.230	0.123
-719.806	-200.000	0.028	0.494
-718.791	-119.737	-0.255	-0.044
-717.777	800.000	0.045	-0.125
-716.762	565.908	-0.091	0.221
-715.748	-143.467	-0.238	0.023
-714.733	-200.000	-0.003	0.106
-713.718	800.000	-0.017	0.059
-712.704	-200.000	0.022	-0.167
-711.689	-200.000	-0.011	-0.177
-710.675	-200.000	0.005	0.058
-709.660	239.013	-0.113	0.189
-708.645	-133.630	-0.014	0.002
-707.631	-28.890	0.185	-0.107
-706.616	212.212	0.141	-0.223
-705.602	-123.259	-0.215	-0.034
-704.587	43.472	0.068	0.062
-703.572	7.381	0.337	0.252
-702.558	113.680	0.119	0.145
-701.543	248.107	-0.066	0.113
-700.529	-107.227	0.294	0.065
-699.514	82.076	-0.260	-0.282
-698.499	-151.597	0.333	0.025
-697.485	340.268	-0.155	0.304
-696.470	800.000	0.176	0.635
-695.456	-118.225	-0.308	0.055
-694.441	800.000	0.026	-0.085
-693.426	-47.988	-0.115	-0.056
-692.412	-155.241	0.196	0.013
-691.397	162.967	0.070	-0.098
-690.383	-38.793	0.278	-0.147
-689.368	700.052	0.110	-0.291
-688.354	-200.000	-0.035	-0.211
-687.339	-19.176	0.261	0.162
-686.324	-129.460	-0.131	0.018
-685.310	-95.819	0.158	-0.042
-684.295	25.754	-0.237	0.198
-683.281	-80.209	-0.094	-0.031
-682.266	59.381	0.092	0.090
-681.251	112.217	-0.105	-0.127
-680.237	-25.754	0.256	-0.151
-679.222	126.959	0.041	-0.052
-678.208	-158.072	0.263	0.015
-677.193	-159.601	-0.261	0.014
-676.178	541.142	-0.157	-0.374
-675.164	580.954	0.103	-0.253
-674.149	-32.335	-0.062	-0.034
-673.135	12.281	-0.236	-0.182
-672.120	14.880	0.114	-0.089
-671.105	-200.000	0.034	-0.204
-670.091	800.000	-0.030	0.095
-669.076	-133.677	-0.196	-0.024
-668.062	-200.000	-0.038	0.229
-667.047	800.000	0.071	-0.295
-666.032	125.375	0.083	0.104
-665.018	141.234	-0.088	0.117
-664.003	-60.201	0.180	-0.077
-662.989	-9.066	-0.184	0.123
-661.974	-26.928	-0.282	0.165
-660.959	-73.003	0.245	-0.090
-659.945	239.541	-0.124	-0.206
-658.930	-80.029	0.140	-0.047
-657.916	201.536	-0.115	0.176
-656.901	243.469	-0.085	0.142
-655.886	381.364	-0.104	-0.214
-654.872	230.201	0.008	-0.012
-653.857	353.761	0.144	0.286
-652.843	-200.000	-0.006	0.161
-651.828	552.219	-0.126	-0.303
-650.814	800.000	-0.041	-0.122
-649.799	-164.292	-0.129	0.006
-648.784	128.961	0.102	0.130
-647.770	285.553	-0.142	-0.255
-646.755	-22.157	-0.140	-0.085
-645.741	268.526	0.020	0.034
-644.726	-95.156	0.463	0.125
-643.711	-200.000	-0.053	0.475
-642.697	33.614	0.083	0.072
-641.682	77.888	0.060	-0.064
-640.668	-131.586	0.129	0.017
-639.653	563.268	0.008	-0.020
-638.638	92.073	-0.303	-0.340
-637.624	-51.633	-0.343	0.160
-636.609	390.677	-0.141	-0.292
-635.595	-73.977	-0.327	-0.118
-634.580	214.542	0.076	0.119
-633.565	800.000	0.052	-0.169
-632.551	30.533	-0.054	-0.046
-631.536	800.000	0.078	-0.299
-630.522	168.338	0.156	0.222
-629.507	182.254	-0.065	0.096
-628.492	-136.098	0.033	-0.004
-627.478	-200.000	-0.011	-0.287
-626.463	800.000	-0.046	-0.187
-625.449	82.402	-0.059	0.064
-624.434	754.992	0.117	-0.315
-623.419	-156.240	-0.147	-0.009
-622.405	-20.269	-0.112	0.069
-621.390	670.713	0.205	-0.530
-620.376	374.669	0.009	0.019
-619.361	492.871	0.063	-0.145
-618.346	-121.367	-0.069	-0.011
-617.332	398.303	0.043	0.089
-616.317	-200.000	0.037	-0.343
-615.303	-39.806	-0.126	-0.066
-614.288	-200.000	-0.012	-0.455
-613.273	-14.889	0.022	0.014
-612.259	94.657	0.077	-0.087
-611.244	-31.638	-0.176	-0.099
-610.230	-28.850	0.190	-0.109
-609.215	175.717	0.222	-0.321
-608.201	73.871	0.065	-0.068
-607.186	-200.000	-0.016	0.370
-606.171	-71.808	-0.140	0.052
-605.157	501.610	0.129	-0.298
-604.142	800.000	0.119	-0.351
-603.128	-38.315	-0.235	0.124
-602.113	-117.764	0.045	-0.008
-601.098	69.150	-0.171	0.175
-600.084	-47.692	0.087	-0.042
-599.069	143.762	-0.132	0.176
-598.055	45.093	0.102	-0.094
-597.040	-33.758	-0.184	0.101
-596.025	-197.093	0.179	-0.001
-595.011	-84.480	0.123	0.039
-593.996	-126.062	-0.215	0.032
-592.982	-26.513	0.312	-0.182
-591.967	-200.000	-0.043	0.252
-590.952	-137.506	0.215	-0.024
-589.938	208.143	-0.099	0.154
-588.923	800.000	0.027	0.098
-587.909	-154.647	0.061	0.004
-586.894	36.982	0.127	0.112
-585.879	-56.148	0.074	0.033
-584.865	-200.000	0.020	0.129
-583.850	259.020	0.013	0.023
-582.836	-162.922	-0.089	0.004
-581.821	-52.988	0.184	0.084
-580.806	-72.565	0.141	-0.052
-579.792	599.742	0.151	0.373
-578.777	-200.000	-0.035	-0.192
-577.763	-200.000	-0.006	0.154
-576.748	-36.944	-0.272	0.145
-575.733	-91.150	0.296	0.084
-574.719	-164.214	-0.236	0.011
-573.704	-1.974	0.078	0.055
-572.690	506.295	-0.171	0.394
-571.675	-200.000	0.032	-0.162
-570.661	-66.344	-0.298	0.118
-569.646	800.000	-0.023	0.091
-568.631	-131.674	-0.316	0.041
-567.617	18.285	0.197	0.157
-566.602	-24.375	-0.374	0.222
-565.588	-53.661	0.201	-0.091
-564.573	-57.171	0.023	0.010
-563.558	163.264	-0.189	0.264
-562.544	665.836	0.094	-0.243
-561.529	-127.477	0.244	0.035
-560.515	800.000	-0.029	-0.092
-559.500	20.135	0.028	-0.022
-558.485	-200.000	0.002	-0.051
-557.471	790.638	-0.037	0.103
-556.456	384.751	0.093	0.191
-555.442	37.705	0.037	-0.033
-554.427	-200.000	-0.014	0.179
-553.412	-200.000	0.010	-0.219
-552.398	111.616	-0.134	-0.161
-551.383	-51.355	0.181	-0.084
-550.369	-200.000	-0.034	-0.202
-549.354	-28.317	0.181	0.104
-548.339	96.188	0.128	-0.145
-547.325	28.002	-0.118	-0.099
-546.310	-200.000	-0.060	-0.282
-545.296	-200.000	-0.400	0.000
-544.281	-54.804	-0.059	0.026
-543.266	-12.574	0.108	-0.070
-542.252	73.239	-0.040	-0.042
-541.237	-174.489	-0.254	-0.007
-540.223	70.663	0.143	0.147
-539.208	800.000	0.038	0.136
-538.193	800.000	0.009	-0.038
-537.179	-200.000	-0.015	-0.536
-536.164	800.000	0.124	0.424
-535.150	-70.088	0.398	0.151
-534.135	-86.837	-0.082	-0.025
-533.121	-200.000	0.031	-0.143
-532.106	3.022	-0.039	-0.028
-531.091	5.175	0.212	0.156
-530.077	1.104	0.138	-0.099
-529.062	17.987	-0.170	0.134
-528.048	27.758	-0.154	-0.129
-527.033	361.435	0.053	-0.106
-526.018	43.157	0.198	-0.180
-525.004	-137.443	0.363	-0.041
-523.989	-200.000	-0.005	-0.178
-522.975	-200.000	0.002	0.259
-521.960	49.270	0.238	0.223
-520.945	414.154	-0.172	0.363
-519.931	-58.418	-0.299	-0.129
-518.916	800.000	-0.014	0.052
-517.902	-129.321	0.208	0.029
-516.887	200.226	-0.128	0.196
-515.872	-149.422	0.198	-0.016
-514.858	-126.945	0.188	-0.027
-513.843	-84.008	-0.189	-0.060
-512.829	333.421	-0.138	0.266
-511.814	-22.804	-0.352	0.211
-510.799	273.917	0.209	-0.366
-509.785	29.897	0.133	-0.113
-508.770	-142.442	-0.212	0.021
-507.756	95.434	0.046	-0.052
-506.741	-68.333	-0.284	-0.110
-505.726	205.491	0.109	-0.168
-504.712	86.728	0.180	0.198
-503.697	48.721	-0.306	0.285
-502.683	800.000	0.027	0.096
-501.668	-44.913	0.158	0.078
-500.653	48.832	-0.226	-0.210
-499.639	24.578	-0.112	-0.092
-498.624	-200.000	-0.013	0.102
-497.610	-48.643	0.337	-0.161
-496.595	-107.386	-0.244	-0.053
-495.581	-38.332	0.202	0.106
-494.566	800.000	0.041	-0.176
-493.551	32.154	0.168	-0.144
-492.537	-200.000	-0.005	-0.057
-491.522	-200.000	-0.011	-0.049
-490.508	331.789	-0.155	0.297
-489.493	-62.953	0.180	-0.074
-488.478	800.000	-0.054	0.177
-487.464	5.924	-0.082	0.061
-486.449	-28.143	-0.260	-0.149
-485.435	-79.013	-0.173	0.058
-484.420	800.000	0.048	0.204
-483.405	-40.164	0.328	-0.169
-482.391	279.702	0.026	-0.046
-481.376	-89.800	0.389	-0.113
-480.362	-106.891	0.437	0.096
-479.347	-200.000	-0.044	-0.463
-478.332	-107.783	-0.215	-0.047
-477.318	-134.221	0.311	-0.038
-476.303	-108.831	-0.535	-0.113
-475.289	-144.544	0.334	-0.031
-474.274	672.896	-0.096	-0.246
-473.259	-179.885	-0.223	0.005
-472.245	-200.000	-0.028	-0.230
-471.230	39.706	0.252	-0.224
-470.216	60.056	-0.113	0.111
-469.201	-116.338	0.333	0.061
-468.186	-115.701	-0.099	-0.018
-467.172	-200.000	0.019	0.315
-466.157	-192.139	0.395	0.004
-465.143	-67.488	0.369	0.144
-464.128	-13.964	0.144	-0.092
-463.113	800.000	0.044	-0.144
-462.099	373.521	0.178	-0.360
-461.084	-122.071	-0.130	-0.021
-460.070	-170.176	-0.052	0.002
-459.055	14.022	-0.226	0.174
-458.040	-160.633	0.189	0.010
-457.026	-94.870	-0.196	-0.053
-456.011	154.299	-0.108	0.147
-454.997	-200.000	0.031	-0.241
-453.982	-19.691	-0.175	0.107
-452.968	17.717	-0.212	0.168
-451.953	-96.872	0.177	0.046
-450.938	-100.337	0.257	-0.063
-449.924	51.069	-0.079	0.074
-448.909	-75.131	-0.159	0.056
-447.895	113.718	-0.196	0.237
-446.880	-200.000	0.042	-0.312
-445.865	654.263	-0.095	-0.241
-444.851	-200.000	0.067	-0.461
-443.836	-108.256	-0.095	-0.020
-442.822	176.618	0.134	-0.193
-441.807	-145.124	-0.130	-0.012
-440.792	127.698	-0.130	0.164
-439.778	784.854	-0.087	0.235
-438.763	459.159	-0.063	0.139
-437.749	-200.000	0.003	0.212
-436.734	35.037	-0.047	-0.041
-435.719	-129.722	0.115	0.016
-434.705	6.409	-0.165	-0.121
-433.690	453.713	0.076	-0.166
-432.676	172.516	-0.096	0.137
-431.661	-5.001	-0.215	-0.146
-430.646	18.899	0.195	-0.155
-429.632	107.031	0.296	-0.349
-428.617	-17.743	0.090	-0.056
-427.603	1.608	0.080	-0.057
-426.588	81.802	-0.043	-0.046
-425.573	-81.457	0.186	0.061
-424.559	800.000	0.108	-0.299
-423.544	800.000	-0.019	0.075
-422.530	573.660	0.085	0.204
-421.515	-131.495	-0.262	0.034
-420.500	423.963	0.036	0.076
-419.486	-145.564	0.405	-0.036
-418.471	3.014	0.207	-0.149
-417.457	-124.164	0.052	-0.008
-416.442	261.534	-0.232	-0.397
-415.428	-11.141	-0.274	-0.179
-414.413	-123.873	-0.260	-0.041
-413.398	110.777	0.088	0.104
-412.384	-200.000	-0.020	-0.160
-411.369	170.619	0.086	0.121
-410.355	-63.673	-0.381	0.155
-409.340	160.658	-0.122	-0.169
-408.325	-117.330	0.235	-0.042
-407.311	800.000	-0.009	-0.027
-406.296	-94.572	-0.233	-0.063
-405.282	-145.886	-0.119	0.010
-404.267	800.000	-0.044	-0.138
-403.252	212.335	0.069	0.108
-402.238	118.364	0.197	0.240
-401.223	-200.000	-0.015	-0.093
-400.209	95.302	0.110	0.124
-399.194	630.510	-0.021	0.051
-398.179	153.149	0.195	0.264
-397.165	240.725	-0.044	-0.072
-396.150	113.817	0.216	-0.260
-395.136	149.551	-0.035	0.046
-394.121	99.366	0.201	-0.230
-393.106	-200.000	-0.009	-0.100
-392.092	-48.124	-0.237	0.113
-391.077	176.104	0.241	0.345
-390.063	154.446	0.069	-0.094
-389.048	-85.099	0.066	-0.020
-388.033	-80.755	0.177	0.058
-387.019	-17.106	0.147	0.092
-386.004	-200.000	0.036	-0.341
-384.990	-200.000	-0.036	-0.295
-383.975	800.000	0.052	0.170
-382.960	-49.968	-0.219	0.103
-381.946	-48.590	-0.288	-0.137
-380.931	800.000	-0.041	-0.139
-379.917	-59.792	0.188	-0.080
-378.902	798.614	-0.112	-0.305
-377.888	32.956	0.138	0.118
-376.873	276.025	0.093	0.163
-375.858	441.165	0.051	0.109
-374.844	156.898	-0.121	0.166
-373.829	705.410	-0.173	0.451
-372.815	105.339	0.104	0.121
-371.800	-200.000	0.148	0.643
-370.785	-104.913	-0.169	0.038
-369.771	167.038	-0.116	-0.162
-368.756	-135.805	-0.283	-0.033
-367.742	-200.000	-0.019	0.141
-366.727	193.588	0.078	0.116
-365.712	259.381	-0.153	0.260
-364.698	121.733	-0.124	0.153
-363.683	375.687	-0.038	0.076
-362.669	33.649	0.329	-0.283
-361.654	286.879	0.095	0.169
-360.639	278.823	0.058	-0.101
-359.625	-200.000	-0.040	-0.247
-358.610	23.639	-0.030	-0.024
-357.596	89.253	0.184	0.202
-356.581	-200.000	0.000	-0.241
-355.566	-200.000	0.022	0.481
-354.552	-200.000	0.038	-0.268
-353.537	-173.247	0.380	-0.011
-352.523	-71.206	-0.134	-0.050
-351.508	-200.000	-0.201	-0.001
-350.493	-4.226	-0.096	-0.065
-349.479	-78.481	-0.430	-0.145
-348.464	-200.000	0.068	-0.305
-347.450	-200.000	0.064	-0.344
-346.435	800.000	0.030	0.131
-345.420	30.204	-0.175	-0.148
-344.406	-200.000	-0.035	0.237
-343.391	374.488	0.136	0.273
-342.377	-200.000	-0.037	-0.208
-341.362	52.687	0.205	-0.194
-340.348	57.658	-0.195	0.188
-339.333	78.749	-0.150	-0.158
-338.318	-122.006	0.127	0.021
-337.304	555.082	0.100	0.236
-336.289	68.105	0.144	0.145
-335.275	-181.566	-0.503	0.010
-334.260	-41.675	-0.309	-0.157
-333.245	-111.402	0.150	-0.030
-332.231	-46.840	-0.211	0.102
-331.216	18.253	-0.196	-0.154
-330.202	-200.000	0.020	0.431
-329.187	-200.000	0.004	0.040
-328.172	-31.504	0.072	-0.040
-327.158	255.581	0.127	-0.215
-326.143	-35.940	0.186	-0.099
-325.129	283.471	0.081	-0.144
-324.114	800.000	0.086	-0.271
-323.099	64.298	-0.197	0.195
-322.085	388.564	0.119	0.243
-321.070	115.923	0.173	0.209
-320.056	-30.141	-0.519	0.291
-319.041	-141.797	0.190	-0.019
-318.026	-26.064	-0.089	0.052
-317.012	-131.830	-0.373	0.048
-315.997	800.000	-0.030	0.125
-314.983	-48.289	-0.110	0.052
-313.968	-200.000	0.014	-0.075
-312.953	-127.632	-0.221	-0.032
-311.939	-21.195	0.274	-0.165
-310.924	-78.479	-0.136	0.046
-309.910	171.348	-0.178	0.252
-308.895	234.459	0.088	-0.143
-307.880	162.187	0.080	0.110
-306.866	265.564	-0.196	0.337
-305.851	299.023	-0.087	0.157
-304.837	-14.587	0.128	-0.081
-303.822	30.656	-0.078	0.066
-302.807	57.546	-0.141	0.136
-301.793	35.536	0.130	-0.112
-300.778	350.757	0.099	0.192
-299.764	3.850	0.219	-0.158
-298.749	594.963	0.035	-0.085
-297.735	131.915	-0.264	0.334
-296.720	65.895	0.271	0.270
-295.705	215.732	-0.167	0.261
-294.691	16.508	-0.221	0.172
-293.676	229.845	0.074	-0.120
-292.662	-200.000	-0.029	-0.165
-291.647	-108.690	-0.303	-0.064
-290.632	-200.000	0.006	-0.039
-289.618	-200.000	-0.139	-0.001
-288.603	30.905	0.165	0.140
-287.589	442.375	0.112	0.241
-286.574	202.954	-0.080	0.122
-285.559	-54.692	0.173	0.077
-284.545	151.143	0.255	0.342
-283.530	-200.000	-0.019	-0.189
-282.516	-4.395	-0.351	0.239
-281.501	187.244	-0.034	-0.050
-280.486	52.083	0.108	-0.101
-279.472	-23.095	-0.269	0.159
-278.457	-167.990	-0.290	-0.011
-277.443	800.000	0.134	0.378
-276.428	44.681	-0.088	-0.079
-275.413	74.718	-0.242	-0.251
-274.399	2.771	-0.205	0.147
-273.384	800.000	-0.085	0.265
-272.370	-61.052	0.119	-0.050
-271.355	-96.193	0.022	0.006
-270.340	-180.347	0.276	-0.006
-269.326	-78.416	-0.259	-0.087
-268.311	800.000	0.036	0.128
-267.297	-200.000	-0.069	-0.466
-266.282	-144.549	0.034	-0.003
-265.267	800.000	-0.041	-0.132
-264.253	78.275	-0.270	0.284
-263.238	478.015	-0.068	-0.152
-262.224	-24.691	0.048	0.028
-261.209	156.655	0.227	-0.308
-260.195	-123.150	0.380	0.060
-259.180	492.509	-0.029	-0.066
-258.165	-73.201	0.080	-0.029
-257.151	-78.896	0.131	-0.044
-256.136	-44.887	0.217	-0.106
-255.122	-200.000	0.007	-0.198
-254.107	-12.069	0.157	-0.101
-253.092	172.186	-0.166	0.234
-252.078	-200.000	-0.058	-0.311
-251.063	78.942	0.310	-0.327
-250.049	800.000	-0.076	-0.211
-249.034	-200.000	-0.036	0.236
-248.019	-200.000	-0.043	0.196
-247.005	172.321	-0.170	0.241
-245.990	-131.182	0.310	0.041
-244.976	-38.273	-0.243	0.126
-243.961	53.588	-0.181	-0.171
-242.946	-160.353	0.232	-0.012
-241.932	72.947	-0.142	0.146
-240.917	169.532	-0.072	0.102
-239.903	-139.870	-0.216	-0.022
-238.888	194.115	-0.163	-0.243
-237.873	497.120	0.089	-0.202
-236.859	-60.746	0.337	-0.140
-235.844	138.148	-0.189	-0.243
-234.830	-76.158	0.100	0.035
-233.815	-200.000	0.016	0.086
-232.800	-46.228	-0.117	-0.056
-231.786	110.398	-0.166	0.196
-230.771	-68.476	0.258	-0.098
-229.757	237.767	0.065	0.105
-228.742	800.000	0.103	0.317
-227.727	68.931	-0.112	-0.113
-226.713	403.210	-0.063	0.131
-225.698	-114.429	0.255	0.048
-224.684	800.000	-0.019	0.055
-223.669	-99.847	-0.134	0.033
-222.655	-54.146	0.314	0.140
-221.640	-70.097	0.239	0.089
-220.625	83.076	0.175	-0.187
-219.611	351.445	0.085	-0.165
-218.596	780.555	-0.101	0.272
-217.582	-164.605	-0.414	0.018
-216.567	-85.234	-0.244	-0.075
-215.552	79.960	-0.112	-0.119
-214.538	-200.000	-0.027	0.193
-213.523	800.000	-0.282	0.776
-212.509	-54.700	-0.100	0.044
-211.494	-200.000	0.005	0.028
-210.479	466.144	-0.014	0.030
-209.465	-85.115	-0.365	-0.112
-208.450	-136.067	0.425	0.049
-207.436	-200.000	0.027	-0.266
-206.421	-137.365	0.149	-0.017
-205.406	93.292	0.417	0.463
-204.392	210.210	0.147	-0.226
-203.377	-155.903	-0.290	0.018
-202.363	36.837	0.186	-0.162
-201.348	-140.467	0.144	-0.015
-200.333	-200.000	0.001	-0.057
-199.319	40.099	0.222	0.196
-198.304	-39.516	-0.064	0.033
-197.290	2.411	0.098	-0.070
-196.275	9.071	-0.232	0.172
-195.260	-187.800	0.207	0.003
-194.246	388.383	-0.252	-0.511
-193.231	800.000	-0.029	0.090
-192.217	-200.000	0.074	0.402
-191.202	335.043	-0.125	0.238
-190.187	-38.716	-0.265	0.137
-189.173	-134.089	0.148	-0.018
-188.158	800.000	-0.124	0.435
-187.144	-200.000	0.070	-0.308
-186.129	-148.543	0.202	-0.016
-185.114	164.730	0.081	0.111
-184.100	324.960	-0.067	0.125
-183.085	76.075	0.130	0.135
-182.071	-9.974	-0.384	-0.250
-181.056	-200.000	-0.008	0.295
-180.042	127.774	0.174	0.217
-179.027	800.000	0.031	-0.096
-178.012	800.000	0.063	0.213
-176.998	193.819	0.052	0.078
-175.983	-154.999	-0.217	0.014
-174.969	-200.000	0.030	-0.283
-173.954	248.723	-0.132	-0.220
-172.939	721.619	-0.134	-0.351
-171.925	-200.000	0.027	-0.195
-170.910	109.304	0.065	-0.077
-169.896	-200.000	0.039	-0.187
-168.881	-132.320	-0.095	-0.012
-167.866	-116.855	-0.194	-0.035
-166.852	-200.000	0.044	0.246
-165.837	800.000	0.040	0.147
-164.823	-93.976	0.204	0.055
-163.808	32.300	-0.185	-0.156
-162.793	-141.944	0.034	-0.003
-161.779	129.023	0.268	0.334
-160.764	-175.577	-0.313	0.008
-159.750	19.653	0.249	-0.196
-158.735	743.438	0.067	-0.178
-157.720	-200.000	-0.048	0.416
-156.706	-167.005	0.274	0.011
-155.691	800.000	-0.073	-0.277
-154.677	-129.033	-0.101	0.014
-153.662	324.428	0.103	-0.193
-152.647	422.795	0.128	-0.268
-151.633	142.925	0.117	-0.153
-150.618	8.189	0.205	0.150
-149.604	525.571	0.109	0.252
-148.589	20.877	-0.200	0.159
-147.574	509.590	-0.068	-0.154
-146.560	123.514	-0.209	0.256
-145.545	201.154	-0.186	0.281
-144.531	800.000	-0.051	0.202
-143.516	117.949	-0.129	0.156
-142.502	-111.767	-0.462	0.092
-141.487	41.998	0.088	-0.078
-140.472	-122.340	-0.074	0.012
-139.458	-127.889	-0.221	-0.031
-138.443	18.709	-0.289	0.227
-137.429	-200.000	0.063	0.373
-136.414	-169.359	-0.128	-0.005
-135.399	98.013	0.157	-0.177
-134.385	-58.144	-0.210	0.090
-133.370	31.211	-0.128	0.108
-132.356	80.024	0.043	0.045
-131.341	263.826	-0.113	0.192
-130.326	97.692	-0.184	0.207
-129.312	-121.513	0.395	0.064
-128.297	413.332	0.060	0.126
-127.283	-51.035	-0.042	0.019
-126.268	-200.000	-0.006	0.294
-125.253	314.453	-0.127	0.234
-124.239	-59.207	0.189	-0.080
-123.224	800.000	0.057	0.224
-122.210	593.152	0.157	-0.379
-121.195	363.415	-0.143	0.280
-120.180	-200.000	0.018	-0.155
-119.166	282.147	-0.079	0.138
-118.151	-22.432	0.307	-0.182
-117.137	-200.000	-0.005	-0.148
-116.122	26.083	-0.225	0.184
-115.107	-200.000	0.006	-0.065
-114.093	-136.585	0.390	0.044
-113.078	-65.547	-0.005	-0.002
-112.064	244.251	-0.137	0.225
-111.049	-200.000	-0.033	0.163
-110.034	-116.443	-0.274	0.049
-109.020	27.694	-0.094	-0.077
-108.005	-167.000	0.313	-0.012
-106.991	-200.000	0.046	0.301
-105.976	-63.990	0.153	-0.061
-104.962	-38.031	-0.241	0.125
-103.947	722.223	0.050	0.131
-102.932	-28.424	0.161	-0.091
-101.918	-200.000	0.004	0.142
-100.903	-54.305	0.197	0.087
-99.889	800.000	-0.062	0.218
-98.874	-1.904	0.251	0.172
-97.859	-167.575	0.088	-0.003
-96.845	98.456	0.191	-0.215
-95.830	-126.204	-0.220	-0.032
-94.816	-187.700	0.361	0.005
-93.801	640.101	-0.119	-0.296
-92.786	22.456	-0.295	-0.236
-91.772	-5.602	0.296	0.198
-90.757	41.376	0.162	0.143
-89.743	377.186	0.078	0.156
-88.728	-155.935	-0.277	-0.017
-87.713	291.098	-0.051	0.090
-86.699	-117.655	0.292	-0.051
-85.684	-148.664	0.174	-0.014
-84.670	-200.000	-0.018	0.094
-83.655	-80.766	-0.365	0.119
-82.640	-183.180	0.287	0.005
-81.626	-200.000	0.001	0.247
-80.611	16.628	0.229	0.177
-79.597	800.000	0.046	0.149
-78.582	423.097	-0.017	-0.035
-77.567	277.076	-0.213	-0.370
-76.553	-200.000	-0.003	0.025
-75.538	-138.721	-0.163	-0.017
-74.524	61.972	0.156	-0.152
-73.509	-34.462	0.159	-0.085
-72.494	-29.829	0.210	-0.117
-71.480	-61.050	0.137	0.056
-70.465	-46.535	-0.152	-0.073
-69.451	22.675	0.171	-0.137
-68.436	318.669	-0.017	-0.031
-67.422	-47.948	-0.148	-0.070
-66.407	354.340	0.131	0.254
-65.392	-57.733	0.201	0.086
-64.378	295.625	0.105	0.188
-63.363	-100.142	0.065	0.016
-62.349	-110.902	-0.108	-0.022
-61.334	79.139	-1.017	-1.063
-60.319	94.477	0.659	0.731
-59.305	320.497	-0.756	-1.401
-58.290	398.378	0.635	1.297
-57.276	358.769	0.749	1.461
-56.261	-200.000	121.747	637.903
-55.246	431.765	1528.964	3233.903
-54.232	149.831	2670.457	3532.847
-53.217	98.153	2127.218	2390.137
-52.203	35.673	1574.431	1349.870
-51.188	27.747	1320.930	1085.547
-50.173	25.075	1284.013	1039.689
-49.159	50.851	1351.226	1248.922
-48.144	48.501	1363.949	1246.600
-47.130	27.649	1312.869	1078.176
-46.115	24.492	1293.715	1043.974
-45.100	24.274	1288.653	1038.575
-44.086	24.270	1286.502	1036.777
-43.071	24.203	1284.140	1034.446
-42.057	24.199	1281.915	1032.586
-41.042	24.182	1280.824	1031.571
-40.027	24.393	1278.588	1030.947
-39.013	24.341	1277.205	1029.495
-37.998	24.366	1274.830	1027.681
-36.984	24.260	1273.635	1026.068
-35.969	24.261	1271.976	1024.696
-34.954	24.249	1270.468	1023.372
-33.940	24.393	1269.021	1022.990
-32.925	24.383	1267.799	1021.905
-31.911	24.514	1265.615	1020.856
-30.896	24.567	1264.360	1020.106
-29.881	24.585	1263.135	1019.178
-28.867	24.494	1262.379	1018.009
-27.852	24.428	1261.273	1016.699
-26.838	24.457	1259.919	1015.737
-25.823	24.387	1258.681	1014.299
-24.809	24.472	1256.956	1013.353
-23.794	24.407	1255.334	1011.637
-22.779	24.333	1255.092	1010.977
-21.765	24.476	1253.119	1010.159
-20.750	24.476	1251.848	1009.097
-19.736	24.425	1250.354	1007.564
-18.721	24.361	1249.897	1006.794
-17.706	24.423	1248.724	1006.157
-16.692	24.330	1247.606	1004.693
-15.677	24.304	1246.564	1003.668
-14.663	24.388	1245.467	1003.218
-13.648	24.435	1244.260	1002.467
-12.633	24.309	1243.409	1001.034
-11.619	24.339	1242.405	1000.358
-10.604	24.400	1241.458	999.897
-9.590	24.202	1240.865	998.267
-8.575	24.222	1240.247	997.844
-7.560	24.279	1238.746	996.918
-6.546	24.364	1237.815	996.604
-5.531	24.351	1237.597	996.313
-4.517	24.396	1236.826	995.904
-3.502	24.324	1235.821	994.654
-2.487	24.307	1234.671	993.596
-1.473	24.176	1230.790	989.705
-0.458	22.606	1215.476	968.735
0.556	17.449	1199.766	931.200
1.571	13.748	1206.803	916.177
2.586	13.015	1220.952	922.736
3.600	12.985	1209.156	913.575
4.615	9.493	1139.139	842.355
5.629	3.420	1068.824	760.406
6.644	0.452	1051.657	733.705
7.659	0.120	1050.059	730.913
8.673	0.025	1049.033	729.673
9.688	0.073	1047.825	729.000
10.702	0.393	1045.639	728.962
11.717	4.221	1049.914	750.432
12.731	11.320	1059.311	791.646
13.746	15.900	1065.002	818.134
14.761	16.846	1065.646	823.150
15.775	16.129	1063.553	817.984
16.790	14.994	1062.181	811.356
17.804	14.434	1060.585	807.357
18.819	14.084	1059.221	804.551
19.834	13.885	1058.356	802.863
20.848	13.631	1057.446	800.874
21.863	13.450	1056.781	799.422
22.877	13.203	1056.187	797.710
23.892	13.223	1055.302	797.070
24.907	13.244	1054.687	796.635
25.921	13.205	1053.841	795.737
26.936	13.280	1053.053	795.432
27.950	13.457	1051.758	795.236
28.965	13.273	1050.948	793.670
29.980	13.311	1050.131	793.163
30.994	13.345	1048.628	792.121
32.009	13.544	1047.302	792.000
33.023	13.451	1046.321	790.745
34.038	13.438	1045.603	790.070
35.053	13.386	1044.778	789.128
36.067	13.346	1043.682	788.041
37.082	13.430	1043.249	788.044
38.096	13.460	1042.098	787.246
39.111	13.426	1041.434	786.516
40.126	13.350	1040.181	785.137
41.140	13.300	1039.083	784.003
42.155	13.124	1037.899	782.205
43.169	13.185	1036.905	781.680
44.184	13.210	1035.917	780.980
45.199	13.223	1034.866	780.184
46.213	13.137	1034.324	779.298
47.228	13.244	1033.243	778.919
48.242	13.230	1031.912	777.783
49.257	13.296	1030.868	777.235
50.271	13.226	1030.315	776.423
51.286	13.339	1029.146	776.004
52.301	13.195	1028.480	774.757
53.315	13.289	1027.393	774.311
54.330	13.212	1026.048	772.865
55.344	13.275	1025.233	772.477
56.359	13.200	1024.376	771.413
57.374	13.208	1023.735	770.903
58.388	13.148	1023.112	770.084
59.403	13.238	1021.605	769.299
60.417	13.298	1020.978	769.039
61.432	13.175	1020.461	768.009
62.447	13.094	1019.574	766.897
63.461	13.101	1019.126	766.524
64.476	13.145	1017.718	765.604
65.490	13.111	1017.055	764.878
66.505	13.222	1015.921	764.473
67.520	13.140	1015.991	764.077
68.534	13.172	1014.965	763.388
69.549	13.237	1013.934	762.843
70.563	13.218	1013.400	762.285
71.578	13.075	1012.822	761.125
72.593	13.177	1011.703	760.687
73.607	13.091	1011.312	759.928
74.622	13.123	1010.625	759.494
75.636	13.015	1010.233	758.635
76.651	13.060	1009.335	758.099
77.666	13.179	1008.806	758.179
78.680	13.067	1008.092	757.065
79.695	13.076	1007.497	756.594
80.709	13.127	1006.683	756.145
81.724	13.162	1006.224	755.896
82.739	13.291	1005.095	755.569
83.753	13.403	1004.539	755.597
84.768	13.407	1003.454	754.733
85.782	13.292	1002.724	753.592
86.797	13.285	1002.178	753.084
87.812	13.346	1000.962	752.382
88.826	13.331	999.766	751.347
89.841	13.323	999.011	750.675
90.855	13.352	998.472	750.338
91.870	13.340	997.723	749.651
92.884	13.429	996.546	749.105
93.899	13.402	995.928	748.453
94.914	13.324	994.934	747.288
95.928	13.370	994.583	747.162
96.943	13.480	993.310	746.639
97.957	13.376	992.408	745.425
98.972	13.274	991.898	744.518
99.987	13.448	990.708	744.341
101.001	13.300	990.058	743.123
102.016	13.481	988.716	742.862
103.030	13.364	988.405	742.038
104.045	13.355	987.770	741.455
105.060	13.289	986.737	740.319
106.074	13.432	985.533	739.990
107.089	13.266	984.928	738.726
108.103	13.247	984.120	737.971
109.118	13.304	983.002	737.322
110.133	13.221	982.458	736.478
111.147	13.316	981.266	735.942
112.162	13.173	980.767	734.865
113.176	13.275	980.031	734.700
114.191	13.217	979.268	733.809
115.206	13.250	978.277	733.149
116.220	13.424	977.259	733.090
117.235	13.241	976.731	731.819
118.249	13.269	975.873	731.235
119.264	13.325	975.214	730.924
120.279	13.448	974.260	730.687
121.293	13.187	973.817	729.139
122.308	13.182	972.783	728.279
123.322	13.371	971.642	728.190
124.337	13.299	970.491	726.949
125.352	13.282	969.582	726.128
126.366	13.409	968.442	725.768
127.381	13.336	967.624	724.772
128.395	13.188	966.890	723.509
129.410	13.270	965.914	723.072
130.424	13.322	965.517	722.939
131.439	13.355	965.060	722.675
132.454	13.274	963.878	721.373
133.468	13.278	963.229	720.841
134.483	13.449	961.910	720.536
135.497	13.209	961.730	719.292
136.512	13.368	960.505	719.004
137.527	13.257	959.803	717.931
138.541	13.368	959.062	717.796
139.556	13.215	958.979	717.009
140.570	13.493	957.850	717.306
141.585	13.537	956.625	716.514
142.600	13.447	956.148	715.703
143.614	13.634	954.900	715.513
144.629	13.599	954.212	714.785
145.643	13.559	953.046	713.675
146.658	13.484	952.611	712.965
147.673	13.541	951.849	712.577
148.687	13.662	950.440	711.976
149.702	13.385	950.325	710.640
150.716	13.545	949.358	710.539
151.731	13.397	948.881	709.483
152.746	13.522	948.108	709.379
153.760	13.408	947.759	708.567
154.775	13.652	946.731	708.780
155.789	13.632	946.357	708.352
156.804	13.559	945.403	707.261
157.819	13.788	944.238	707.306
158.833	13.688	944.289	706.853
159.848	13.591	943.411	705.721
160.862	13.782	941.931	705.364
161.877	13.625	941.408	704.242
162.892	13.632	940.411	703.462
163.906	13.506	939.667	702.312
164.921	13.538	938.717	701.675
165.935	13.508	938.286	701.164
166.950	13.679	937.162	700.986
167.964	13.665	936.644	700.476
168.979	13.633	935.381	699.334
169.994	13.758	934.140	698.870
171.008	13.679	933.713	698.159
172.023	13.695	933.214	697.790
173.037	13.768	932.436	697.452
174.052	13.732	931.803	696.767
175.067	13.660	930.899	695.729
176.081	13.781	930.640	695.982
177.096	13.636	929.941	694.787
178.110	13.684	929.488	694.587
179.125	13.776	928.842	694.427
180.140	13.735	928.139	693.671
181.154	13.900	927.398	693.743
182.169	13.807	927.602	693.446
183.183	13.946	926.550	693.178
184.198	13.957	925.735	692.555
185.213	13.943	925.060	691.932
186.227	13.983	924.322	691.484
187.242	13.992	923.884	691.134
188.256	14.028	923.349	690.821
189.271	14.107	922.028	690.098
190.286	13.779	921.557	688.325
191.300	13.814	920.964	687.966
192.315	13.892	920.297	687.731
193.329	13.852	919.979	687.267
194.344	13.886	919.227	686.782
195.359	13.886	918.594	686.252
196.373	13.948	917.617	685.718
197.388	14.027	917.573	685.946
198.402	14.023	917.265	685.639
199.417	14.147	916.041	685.177
200.432	14.142	915.267	684.518
201.446	14.151	915.323	684.532
202.461	14.100	914.860	683.916
203.475	14.226	914.050	683.769
204.490	14.225	913.355	683.184
205.504	14.285	912.664	682.852
206.519	14.067	911.925	681.346
207.534	14.247	911.206	681.488
208.548	14.117	910.950	680.704
209.563	14.193	909.592	679.937
210.577	14.178	909.167	679.498
211.592	14.272	908.384	679.237
212.607	14.369	907.791	679.130
213.621	14.409	906.689	678.406
214.636	14.411	906.260	678.036
215.650	14.317	905.751	677.211
216.665	14.398	904.811	676.778
217.680	14.415	903.844	676.065
218.694	14.366	903.567	675.598
219.709	14.420	902.726	675.130
220.723	14.460	902.384	674.975
221.738	14.406	901.866	674.308
222.753	14.509	900.479	673.629
223.767	14.468	900.427	673.365
224.782	14.549	899.740	673.118
225.796	14.584	899.200	672.794
226.811	14.544	898.544	672.082
227.826	14.527	897.704	671.327
228.840	14.366	897.276	670.301
229.855	14.538	896.039	670.010
230.869	14.493	895.607	669.446
231.884	14.619	894.820	669.303
232.899	14.528	894.237	668.444
233.913	14.452	893.814	667.762
234.928	14.506	892.695	667.084
235.942	14.523	892.534	666.973
236.957	14.490	892.116	666.470
237.972	14.656	891.397	666.536
238.986	14.584	890.464	665.493
240.001	14.588	889.817	664.965
241.015	14.485	889.766	664.457
242.030	14.584	888.952	664.187
243.045	14.671	888.169	663.889
244.059	14.651	887.436	663.203
245.074	14.793	886.820	663.248
246.088	14.623	886.297	662.121
247.103	14.684	885.523	661.728
248.117	14.724	885.096	661.507
249.132	14.807	884.422	661.275
250.147	14.916	883.548	660.995
251.161	14.958	882.841	660.571
252.176	14.904	882.838	660.297
253.190	14.922	881.651	659.423
254.205	14.936	881.010	658.939
255.220	15.070	880.545	659.061
256.234	14.954	879.938	658.091
257.249	15.053	878.975	657.703
258.263	14.984	878.252	656.835
259.278	15.098	877.664	656.781
260.293	15.195	877.203	656.758
261.307	15.147	876.715	656.147
262.322	15.233	875.787	655.731
263.336	15.178	875.212	655.029
264.351	15.263	874.252	654.585
265.366	15.193	874.029	654.085
266.380	15.181	873.599	653.660
267.395	15.176	872.404	652.687
268.409	15.298	871.610	652.510
269.424	15.385	871.039	652.365
270.439	15.321	870.184	651.417
271.453	15.278	869.916	650.992
272.468	15.165	869.347	650.071
273.482	15.197	868.553	649.545
274.497	15.343	867.678	649.396
275.512	15.284	867.373	648.880
276.526	15.366	866.805	648.717
277.541	15.359	866.709	648.561
278.555	15.404	866.052	648.187
279.570	15.531	865.209	647.987
280.585	15.534	864.479	647.396
281.599	15.465	863.660	646.459
282.614	15.346	863.360	645.718
283.628	15.452	862.771	645.628
284.643	15.409	862.107	644.908
285.657	15.410	861.218	644.193
286.672	15.534	860.966	644.420
287.687	15.483	860.385	643.733
288.701	15.484	859.580	643.080
289.716	15.626	858.896	643.052
290.730	15.559	858.580	642.503
291.745	15.597	858.211	642.315
292.760	15.514	857.977	641.766
293.774	15.654	856.814	641.376
294.789	15.598	855.848	640.382
295.803	15.606	855.389	640.012
296.818	15.632	854.704	639.540
297.833	15.728	853.642	639.055
298.847	15.629	853.606	638.595
299.862	15.723	853.280	638.654
300.876	15.708	852.405	637.883
301.891	15.850	851.643	637.795
302.906	15.752	851.398	637.185
303.920	15.726	850.893	636.650
304.935	15.790	850.541	636.572
305.949	15.762	849.659	635.753
306.964	15.986	848.751	635.862
307.979	15.788	848.908	635.177
308.993	15.796	847.885	634.384
310.008	15.877	847.302	634.198
311.022	15.930	846.379	633.648
312.037	15.871	845.994	633.082
313.052	15.857	845.864	632.878
314.066	15.945	845.274	632.708
315.081	15.902	844.524	631.931
316.095	15.879	844.013	631.405
317.110	15.938	843.290	631.032
318.125	15.852	842.784	630.275
319.139	15.841	842.131	629.688
320.154	15.862	842.037	629.640
321.168	15.922	841.566	629.456
322.183	16.029	840.691	629.147
323.197	16.060	839.800	628.542
324.212	16.047	839.225	628.006
325.227	16.059	838.976	627.808
326.241	16.001	838.543	627.214
327.256	16.073	837.911	626.952
328.270	16.070	837.314	626.438
329.285	16.126	836.811	626.214
330.300	16.111	836.020	625.513
331.314	15.884	835.889	624.518
332.329	16.000	835.205	624.383
333.343	16.108	835.219	624.738
334.358	16.230	834.449	624.558
335.373	16.308	833.994	624.449
336.387	16.123	833.864	623.614
337.402	16.044	833.663	623.115
338.416	16.289	833.066	623.520
339.431	16.247	832.658	623.005
340.446	16.239	832.668	622.925
341.460	16.365	831.821	622.702
342.475	16.276	831.474	622.058
343.489	16.339	831.023	621.899
344.504	16.413	830.617	621.811
345.519	16.381	830.595	621.625
346.533	16.482	829.830	621.365
347.548	16.376	829.139	620.407
348.562	16.409	828.603	620.071
349.577	16.433	827.950	619.615
350.592	16.384	827.216	618.832
351.606	16.413	826.333	618.221
352.621	16.458	826.126	618.178
353.635	16.520	825.262	617.704
354.650	16.465	825.048	617.288
355.665	16.543	824.321	616.971
356.679	16.475	823.824	616.297
357.694	16.526	822.981	615.799
358.708	16.355	822.661	614.882
359.723	16.579	821.744	614.956
360.738	16.597	821.007	614.417
361.752	16.640	820.588	614.205
362.767	16.571	820.204	613.611
363.781	16.706	819.599	613.594
364.796	16.743	819.281	613.438
365.810	16.771	819.159	613.393
366.825	16.785	818.339	612.776
367.840	16.817	817.708	612.363
368.854	16.785	817.564	612.087
369.869	16.833	816.758	611.603
370.883	16.762	816.646	611.208
371.898	16.857	816.502	611.388
372.913	16.751	815.755	610.393
373.927	16.943	814.941	610.419
374.942	16.904	814.742	610.076
375.956	16.962	814.397	609.972
376.971	16.792	813.875	608.916
377.986	17.018	813.454	609.360
379.000	17.079	813.091	609.254
380.015	17.179	812.424	609.059
381.029	17.001	811.764	607.872
382.044	17.028	811.619	607.806
383.059	16.938	811.185	607.104
384.073	17.161	810.308	607.191
385.088	16.892	810.087	606.011
386.102	17.040	809.141	605.780
387.117	17.007	808.973	605.483
388.132	17.206	807.772	605.239
389.146	17.071	807.532	604.525
390.161	17.119	807.378	604.527
391.175	17.197	806.881	604.378
392.190	17.258	806.067	603.934
393.205	17.220	805.494	603.312
394.219	17.142	805.335	602.866
395.234	16.983	805.829	602.615
396.248	17.019	804.653	601.810
397.263	16.982	804.249	601.324
398.278	17.129	803.789	601.448
399.292	17.013	803.444	600.725
400.307	17.148	803.148	600.931
401.321	17.035	802.652	600.104
402.336	17.174	802.006	600.061
403.350	17.389	801.529	600.408
404.365	17.351	800.938	599.780
405.380	17.234	800.716	599.148
406.394	17.415	800.085	599.258
407.409	17.532	799.194	598.951
408.423	17.348	799.449	598.443
409.438	17.483	798.861	598.423
410.453	17.496	798.586	598.209
411.467	17.475	798.102	597.720
412.482	17.606	797.554	597.718
413.496	17.627	797.244	597.506
414.511	17.561	796.879	596.947
415.526	17.556	796.731	596.766
416.540	17.524	795.919	595.993
417.555	17.594	795.319	595.738
418.569	17.634	795.033	595.611
419.584	17.629	794.935	595.467
420.599	17.644	793.932	594.715
421.613	114.085	1296.865	1485.767
422.628	98.205	1370.105	1485.846
