DTS Sentinel unit serial number:	SN413079Multiplexer serial number:	ORYXHardware model number:	OX4-SRSoftware version number:	ORYX F/W v4.00 Oryx Data Collector v3.7.2.0data status	okinstallation	princeton_trtdifferential loss correction	single-endedforward channel	channel 1reverse channel	N/Adate	2019/09/18time	03:46:35forward acquisition time	60.00reverse acquisition time	0.00gamma	496.2192k internal	0.2339k external	0.2339temperature offset calibration	0.9979default loss term (dB/km)	0.3790temperature slope calibration	1.0000multiplexer offset coefficient	1.0000multiplexer slope coefficient	1.0000fibre end	0.00T internal ref (°C)	22.97T ext. ref 1 (°C)	0.17T ext. ref 2 (°C)	18.09length (m)	temperature (°C)	Stokes	anti-Stokes-747.200	-12.991	-0.044	0.029
-746.185	252.476	-0.080	0.138
-745.171	27.821	0.334	-0.282
-744.156	139.576	-0.228	0.301
-743.142	68.231	-0.228	-0.235
-742.127	138.092	-0.068	-0.090
-741.112	644.817	0.105	-0.269
-740.098	-155.487	-0.160	0.010
-739.083	-156.032	0.373	0.024
-738.069	-25.080	-0.232	-0.138
-737.054	17.262	0.096	0.076
-736.039	-54.121	-0.249	-0.114
-735.025	-200.000	-0.031	-0.331
-734.010	37.985	-0.202	-0.180
-732.996	385.983	-0.051	-0.106
-731.981	-200.000	-0.019	-0.177
-730.966	-47.627	-0.121	0.059
-729.952	32.473	-0.109	0.094
-728.937	800.000	-0.065	-0.216
-727.923	-200.000	-0.049	-0.298
-726.908	412.906	0.041	0.088
-725.894	24.029	-0.199	-0.165
-724.879	-140.326	0.130	0.014
-723.864	186.514	-0.287	0.429
-722.850	-200.000	0.019	-0.108
-721.835	386.727	-0.035	-0.073
-720.821	156.611	-0.099	0.137
-719.806	5.345	-0.082	-0.061
-718.791	-29.813	-0.341	0.195
-717.777	-117.383	-0.148	0.027
-716.762	-76.646	-0.093	-0.033
-715.748	-200.000	0.004	-0.290
-714.733	60.114	0.099	-0.098
-713.718	39.344	0.169	0.152
-712.704	63.507	0.126	0.127
-711.689	-17.075	-0.093	-0.059
-710.675	-75.971	0.301	-0.107
-709.660	54.287	-0.209	-0.202
-708.645	-200.000	0.027	-0.207
-707.631	-13.936	-0.139	0.090
-706.616	-200.000	-0.004	0.204
-705.602	10.543	0.044	-0.033
-704.587	-153.504	-0.106	0.007
-703.572	142.324	-0.203	0.270
-702.558	394.446	-0.072	0.149
-701.543	-200.000	0.041	0.232
-700.529	-74.250	0.246	0.089
-699.514	772.491	-0.139	0.380
-698.499	-92.520	-0.339	-0.095
-697.485	109.723	0.337	-0.404
-696.470	-65.890	-0.047	0.019
-695.456	-92.272	0.192	-0.054
-694.441	800.000	0.013	-0.036
-693.426	-146.390	0.060	0.005
-692.412	101.196	0.073	0.085
-691.397	-200.000	0.037	-0.180
-690.383	800.000	0.054	-0.161
-689.368	-100.224	-0.393	-0.098
-688.354	81.561	-0.111	-0.120
-687.339	162.505	-0.019	0.027
-686.324	317.760	-0.050	-0.096
-685.310	369.201	-0.092	-0.187
-684.295	-131.017	-0.253	-0.034
-683.281	-200.000	0.013	-0.179
-682.266	-116.682	-0.209	0.039
-681.251	69.481	-0.092	0.095
-680.237	63.381	0.246	-0.247
-679.222	-180.410	-0.110	-0.002
-678.208	700.994	-0.178	-0.468
-677.193	-55.991	0.283	0.126
-676.178	-200.000	-0.022	0.294
-675.164	-200.000	0.012	0.266
-674.149	85.641	-0.137	0.151
-673.135	25.394	-0.211	0.175
-672.120	-124.405	-0.127	0.020
-671.105	-105.314	-0.081	-0.018
-670.091	-43.013	0.236	-0.120
-669.076	-68.568	-0.114	-0.044
-668.062	-200.000	0.057	0.407
-667.047	402.565	-0.106	0.222
-666.032	800.000	0.026	0.102
-665.018	800.000	0.135	0.457
-664.003	408.648	-0.078	-0.165
-662.989	126.178	0.211	-0.267
-661.974	-200.000	0.015	-0.274
-660.959	800.000	0.109	-0.342
-659.945	-152.924	-0.182	0.013
-658.930	249.081	-0.097	-0.164
-657.916	395.107	-0.117	0.245
-656.901	-65.424	0.338	0.136
-655.886	-138.599	0.173	-0.019
-654.872	11.200	0.135	0.103
-653.857	84.709	-0.220	0.240
-652.843	800.000	-0.079	0.274
-651.828	175.094	-0.088	-0.128
-650.814	800.000	-0.050	-0.195
-649.799	173.123	0.083	-0.120
-648.784	53.741	0.222	-0.213
-647.770	271.221	0.207	-0.364
-646.755	6.868	0.161	-0.119
-645.741	-149.853	-0.274	-0.021
-644.726	-200.000	0.064	-0.402
-643.711	406.120	0.118	-0.250
-642.697	477.044	0.017	0.038
-641.682	203.695	-0.159	-0.245
-640.668	-200.000	0.005	0.074
-639.653	-118.019	-0.384	0.069
-638.638	-200.000	-0.044	0.210
-637.624	800.000	0.125	-0.432
-636.609	218.674	-0.123	-0.196
-635.595	-120.593	-0.199	-0.034
-634.580	800.000	-0.056	0.170
-633.565	-59.108	-0.280	-0.121
-632.551	35.937	0.099	-0.087
-631.536	48.705	0.199	-0.187
-630.522	19.835	-0.084	-0.067
-629.507	135.350	0.132	0.171
-628.492	209.584	-0.111	-0.173
-627.478	576.263	0.065	-0.158
-626.463	11.325	-0.058	-0.045
-625.449	-200.000	0.011	0.179
-624.434	4.378	-0.181	-0.133
-623.419	-27.795	0.135	-0.078
-622.405	323.174	0.106	0.202
-621.390	-52.584	-0.231	0.106
-620.376	-100.855	0.438	-0.108
-619.361	134.142	-0.090	0.117
-618.346	108.896	-0.037	0.045
-617.332	613.739	0.034	0.085
-616.317	172.253	0.101	0.144
-615.303	7.463	-0.111	0.083
-614.288	592.421	-0.089	0.219
-613.273	391.842	0.245	0.507
-612.259	-32.414	-0.065	-0.036
-611.244	-195.414	0.290	0.002
-610.230	-162.869	-0.090	-0.004
-609.215	212.913	0.132	-0.208
-608.201	37.680	0.228	-0.202
-607.186	-55.222	-0.230	-0.103
-606.171	-111.154	0.145	-0.030
-605.157	-110.573	0.301	0.062
-604.142	24.021	-0.334	-0.275
-603.128	109.893	-0.089	-0.106
-602.113	-183.580	0.324	-0.006
-601.098	-200.000	-0.013	-0.317
-600.084	-200.000	-0.017	0.348
-599.069	800.000	-0.046	0.184
-598.055	-50.843	-0.480	0.225
-597.040	145.387	-0.222	0.297
-596.025	-11.675	0.380	0.249
-595.011	77.949	-0.272	0.289
-593.996	-101.455	0.208	-0.050
-592.982	-31.319	-0.278	-0.156
-591.967	-135.685	0.041	-0.005
-590.952	287.815	0.207	0.373
-589.938	-22.376	0.170	0.103
-588.923	63.013	0.198	-0.198
-587.909	-200.000	0.030	-0.183
-586.894	-120.161	-0.299	0.051
-585.879	-200.000	0.002	0.010
-584.865	-46.856	-0.265	0.129
-583.850	-200.000	-0.013	0.208
-582.836	475.981	-0.193	-0.434
-581.821	-88.390	-0.164	0.049
-580.806	624.319	-0.020	0.051
-579.792	-82.305	0.337	-0.109
-578.777	406.710	0.080	-0.169
-577.763	37.025	-0.080	-0.070
-576.748	800.000	-0.049	-0.198
-575.733	-200.000	0.031	0.161
-574.719	-200.000	0.000	-0.161
-573.704	-66.746	0.164	0.065
-572.690	-6.274	-0.065	0.044
-571.675	325.332	0.121	-0.231
-570.661	-106.677	0.214	-0.047
-569.646	-49.007	0.193	0.092
-568.631	-24.748	-0.233	0.138
-567.617	-19.509	-0.046	0.028
-566.602	-75.227	-0.228	-0.081
-565.588	307.017	0.245	-0.454
-564.573	-43.182	-0.123	-0.062
-563.558	-12.782	-0.124	-0.081
-562.544	85.064	-0.036	0.040
-561.529	47.645	0.394	-0.366
-560.515	800.000	-0.058	0.165
-559.500	-200.000	-0.053	0.461
-558.485	-159.431	-0.025	0.001
-557.471	-200.000	-0.001	0.304
-556.456	53.633	-0.102	0.097
-555.442	30.246	-0.098	0.084
-554.427	-72.402	0.143	-0.052
-553.412	-32.896	0.155	0.085
-552.398	799.430	0.020	0.054
-551.383	87.829	-0.064	-0.071
-550.369	304.458	0.091	0.168
-549.354	451.387	0.134	0.295
-548.339	-21.785	0.266	-0.161
-547.325	-20.156	0.104	-0.064
-546.310	800.000	-0.022	-0.084
-545.296	85.107	-0.092	0.100
-544.281	3.862	-0.059	-0.043
-543.266	-112.121	-0.040	0.008
-542.252	49.416	-0.155	0.145
-541.237	-129.412	-0.194	0.027
-540.223	-133.927	0.223	0.028
-539.208	552.358	-0.065	-0.156
-538.193	160.001	0.103	0.142
-537.179	-30.268	0.299	0.169
-536.164	-192.450	-0.151	0.001
-535.150	800.000	-0.098	-0.331
-534.135	126.790	-0.207	-0.261
-533.121	-189.268	-0.324	0.004
-532.106	579.988	-0.109	-0.264
-531.091	-200.000	-0.038	-0.371
-530.077	59.074	0.211	-0.207
-529.062	271.692	0.101	-0.177
-528.048	800.000	0.054	0.227
-527.033	102.811	0.151	0.175
-526.018	100.016	0.155	-0.179
-525.004	24.026	-0.019	0.016
-523.989	126.445	0.234	0.294
-522.975	178.670	-0.119	0.172
-521.960	602.088	0.073	-0.179
-520.945	-200.000	-0.023	-0.137
-519.931	91.514	-0.141	-0.158
-518.916	96.990	-0.241	0.274
-517.902	800.000	-0.010	-0.038
-516.887	239.778	-0.077	-0.127
-515.872	-2.100	0.073	0.051
-514.858	-1.902	0.237	-0.166
-513.843	-47.245	-0.343	0.166
-512.829	-60.020	0.212	-0.090
-511.814	55.691	0.195	0.188
-510.799	-30.402	-0.227	-0.128
-509.785	131.434	0.175	0.224
-508.770	225.690	0.191	-0.308
-507.756	244.380	-0.085	-0.142
-506.741	800.000	-0.063	0.209
-505.726	218.066	0.141	0.223
-504.712	-94.258	0.183	0.050
-503.697	800.000	-0.115	0.483
-502.683	-44.783	0.139	-0.069
-501.668	-21.062	0.063	0.038
-500.653	317.320	0.212	-0.398
-499.639	328.798	0.162	-0.309
-498.624	-200.000	-0.030	0.156
-497.610	-200.000	0.001	0.033
-496.595	-140.635	-0.322	-0.033
-495.581	-200.000	-0.023	-0.173
-494.566	-200.000	-0.072	-0.399
-493.551	38.557	0.197	0.174
-492.537	-200.000	0.002	0.057
-491.522	465.126	-0.087	0.194
-490.508	-200.000	0.015	0.167
-489.493	130.863	-0.080	-0.102
-488.478	-85.687	0.304	-0.094
-487.464	-31.735	-0.164	0.091
-486.449	-62.442	0.322	-0.133
-485.435	-25.336	0.136	0.080
-484.420	22.210	0.100	0.081
-483.405	247.865	-0.035	-0.058
-482.391	-149.424	-0.313	-0.025
-481.376	800.000	-0.038	-0.109
-480.362	-200.000	-0.058	0.356
-479.347	-73.170	-0.088	-0.032
-478.332	-28.598	0.095	0.055
-477.318	-200.000	0.024	-0.146
-476.303	-141.901	-0.180	-0.018
-475.289	-200.000	0.003	-0.111
-474.274	800.000	0.071	-0.241
-473.259	309.020	0.197	-0.365
-472.245	-200.000	0.023	0.154
-471.230	-200.000	-0.012	-0.176
-470.216	-200.000	0.018	-0.123
-469.201	-200.000	0.008	0.065
-468.186	-116.931	-0.248	0.045
-467.172	-73.451	0.212	0.077
-466.157	75.317	-0.274	0.286
-465.143	-155.468	0.242	-0.016
-464.128	9.788	-0.102	-0.077
-463.113	800.000	0.084	0.262
-462.099	121.174	-0.234	-0.289
-461.084	-137.610	0.219	-0.024
-460.070	-116.937	0.325	0.059
-459.055	-93.771	-0.212	0.058
-458.040	250.398	0.028	-0.047
-457.026	800.000	-0.030	0.106
-456.011	-120.720	0.392	-0.066
-454.997	-40.000	-0.536	-0.277
-453.982	-94.962	0.200	0.054
-452.968	-66.360	0.181	0.071
-451.953	-130.627	0.308	-0.041
-450.938	-200.000	0.033	0.345
-449.924	800.000	0.068	0.259
-448.909	800.000	0.110	-0.408
-447.895	190.237	0.153	-0.227
-446.880	-102.461	0.146	-0.035
-445.865	-25.645	0.196	-0.114
-444.851	-200.000	-0.021	-0.096
-443.836	127.116	0.137	-0.172
-442.822	-200.000	0.042	0.278
-441.807	-200.000	0.003	0.309
-440.792	800.000	0.040	-0.121
-439.778	800.000	-0.093	0.285
-438.763	155.377	-0.205	0.279
-437.749	-200.000	-0.011	0.356
-436.734	-141.936	0.215	0.021
-435.719	-200.000	-0.009	0.266
-434.705	-200.000	-0.047	0.215
-433.690	187.943	0.225	0.333
-432.676	-42.548	0.126	-0.064
-431.661	800.000	0.078	-0.312
-430.646	530.321	0.059	0.138
-429.632	344.512	-0.186	-0.362
-428.617	44.634	0.176	0.160
-427.603	-62.573	-0.256	-0.105
-426.588	800.000	-0.031	0.108
-425.573	29.307	0.150	0.126
-424.559	-153.820	0.205	-0.014
-423.544	-127.395	-0.165	0.024
-422.530	-149.297	0.127	0.010
-421.515	135.446	-0.232	-0.299
-420.500	-111.125	0.245	0.050
-419.486	-13.880	0.229	0.146
-418.471	267.964	-0.194	0.337
-417.457	573.669	-0.092	-0.223
-416.442	-45.656	0.276	-0.135
-415.428	48.764	0.239	-0.222
-414.413	-41.793	0.038	-0.019
-413.398	374.385	-0.147	0.296
-412.384	-45.122	-0.304	-0.150
-411.369	61.725	-0.202	-0.199
-410.355	380.255	-0.044	-0.089
-409.340	-34.912	-0.165	0.089
-408.325	-64.487	0.304	0.122
-407.311	253.901	-0.146	-0.247
-406.296	-200.000	0.006	-0.094
-405.282	-42.692	-0.144	-0.073
-404.267	-80.959	0.310	0.102
-403.252	-19.748	-0.148	0.091
-402.238	-200.000	0.033	-0.228
-401.223	-104.455	-0.377	-0.086
-400.209	31.415	-0.098	0.083
-399.194	169.023	-0.136	0.192
-398.179	-64.954	0.072	-0.029
-397.165	-64.268	0.119	0.048
-396.150	31.626	0.257	0.218
-395.136	-200.000	-0.032	0.148
-394.121	210.662	0.247	0.384
-393.106	15.197	-0.128	-0.099
-392.092	749.046	-0.137	0.366
-391.077	-105.208	-0.272	0.061
-390.063	-10.460	-0.067	-0.044
-389.048	517.142	0.202	-0.467
-388.033	-200.000	0.282	-0.001
-387.019	141.409	0.058	0.076
-386.004	625.019	0.102	0.255
-384.990	-7.988	0.235	-0.157
-383.975	-143.211	-0.564	0.054
-382.960	-200.000	0.000	-0.021
-381.946	800.000	0.061	0.188
-380.931	-114.559	0.226	-0.043
-379.917	503.756	-0.238	-0.545
-378.902	27.848	-0.057	-0.047
-377.888	512.292	-0.071	-0.164
-376.873	187.591	0.164	-0.242
-375.858	-78.940	-0.168	-0.057
-374.844	-137.291	-0.188	-0.021
-373.829	80.588	-0.186	0.198
-372.815	207.332	-0.151	0.233
-371.800	-200.000	0.015	-0.223
-370.785	393.461	-0.108	-0.222
-369.771	-200.000	0.027	0.177
-368.756	199.070	0.088	-0.133
-367.742	-150.225	-0.148	0.011
-366.727	-200.000	0.018	0.177
-365.712	-200.000	-0.007	-0.174
-364.698	294.528	0.045	0.081
-363.683	-13.307	0.173	0.111
-362.669	79.434	0.028	-0.030
-361.654	-40.726	0.069	-0.035
-360.639	-200.000	0.044	-0.260
-359.625	-91.875	0.163	-0.046
-358.610	-55.993	-0.211	0.093
-357.596	-170.678	0.393	0.013
-356.581	-3.038	-0.148	0.102
-355.566	-200.000	0.004	0.150
-354.552	0.861	-0.233	0.165
-353.537	-92.046	0.221	-0.062
-352.523	286.625	-0.135	0.241
-351.508	-200.000	-0.004	0.259
-350.493	800.000	0.041	0.123
-349.479	-45.932	-0.103	-0.050
-348.464	-200.000	0.009	-0.124
-347.450	-118.555	0.405	0.071
-346.435	-59.153	0.179	-0.076
-345.420	68.907	0.109	0.111
-344.406	200.805	0.188	-0.285
-343.391	510.180	-0.102	-0.233
-342.377	18.469	-0.175	-0.138
-341.362	-97.381	0.038	-0.010
-340.348	332.062	-0.104	-0.199
-339.333	-70.856	-0.086	0.032
-338.318	226.987	-0.077	0.123
-337.304	44.977	-0.184	0.167
-336.289	-85.477	-0.208	0.064
-335.275	-200.000	0.001	0.057
-334.260	364.096	0.046	-0.092
-333.245	800.000	0.022	0.082
-332.231	55.832	-0.111	0.106
-331.216	-63.307	0.155	0.063
-330.202	-103.884	-0.469	-0.108
-329.187	66.196	0.123	-0.123
-328.172	-200.000	0.038	0.168
-327.158	-27.841	-0.249	-0.142
-326.143	125.436	-0.124	-0.154
-325.129	54.694	0.133	-0.127
-324.114	-200.000	-0.038	-0.322
-323.099	117.010	-0.044	-0.053
-322.085	-146.965	-0.143	-0.012
-321.070	-187.264	-0.083	0.001
-320.056	-42.173	-0.396	-0.200
-319.041	-29.632	-0.145	-0.081
-318.026	-92.893	0.123	-0.034
-317.012	-200.000	-0.080	-0.393
-315.997	-200.000	0.034	0.414
-314.983	27.224	-0.251	0.208
-313.968	-200.000	-0.021	-0.142
-312.953	-147.548	-0.229	0.019
-311.939	-44.096	-0.178	0.088
-310.924	213.433	-0.179	0.278
-309.910	389.798	-0.076	-0.156
-308.895	-190.017	0.142	-0.002
-307.880	-68.512	-0.169	-0.065
-306.866	147.817	-0.062	0.082
-305.851	800.000	0.109	-0.366
-304.837	-200.000	0.077	-0.556
-303.822	-200.000	0.014	-0.146
-302.807	-200.000	-0.076	0.435
-301.793	97.361	-0.098	0.111
-300.778	498.899	-0.089	0.202
-299.764	711.528	0.067	-0.175
-298.749	-200.000	0.016	0.137
-297.735	29.014	-0.140	0.117
-296.720	189.228	-0.134	-0.198
-295.705	-14.553	-0.026	0.016
-294.691	-130.741	-0.384	0.051
-293.676	-160.619	-0.200	0.010
-292.662	54.080	-0.050	0.047
-291.647	261.142	-0.080	0.137
-290.632	-200.000	0.027	-0.213
-289.618	-200.000	0.004	-0.249
-288.603	800.000	0.016	0.049
-287.589	-12.407	-0.165	-0.106
-286.574	-40.673	-0.162	-0.083
-285.559	-19.012	0.168	0.103
-284.545	800.000	0.099	-0.390
-283.530	395.389	-0.092	0.189
-282.516	534.762	-0.081	0.189
-281.501	-107.029	0.146	-0.032
-280.486	90.701	0.144	-0.159
-279.472	21.788	-0.172	-0.138
-278.457	-100.840	-0.138	-0.033
-277.443	-11.434	-0.242	-0.157
-276.428	609.855	0.167	0.410
-275.413	-22.860	0.316	0.187
-274.399	157.438	0.204	0.277
-273.384	-42.839	-0.081	0.040
-272.370	-5.543	-0.231	-0.156
-271.355	45.840	0.168	0.153
-270.340	0.023	0.238	0.167
-269.326	284.135	-0.211	0.373
-268.311	-200.000	0.023	0.180
-267.297	165.717	0.132	0.184
-266.282	-200.000	-0.004	0.036
-265.267	412.975	0.063	-0.132
-264.253	-200.000	-0.028	0.126
-263.238	-49.025	0.155	-0.073
-262.224	-51.236	-0.374	0.172
-261.209	103.629	-0.155	0.180
-260.195	-200.000	-0.013	0.163
-259.180	-53.976	-0.214	0.096
-258.165	-96.846	0.403	-0.104
-257.151	296.759	0.099	-0.178
-256.136	23.143	-0.452	0.365
-255.122	156.257	0.225	0.306
-254.107	764.380	0.028	-0.075
-253.092	800.000	-0.128	-0.468
-252.078	262.832	-0.149	-0.255
-251.063	-200.000	0.019	-0.229
-250.049	-47.259	0.132	-0.063
-249.034	231.626	0.163	0.264
-248.019	-113.889	-0.380	0.073
-247.005	397.268	0.097	-0.198
-245.990	306.498	0.034	-0.062
-244.976	-131.444	-0.266	-0.035
-243.961	42.070	0.100	-0.090
-242.946	282.225	0.023	-0.041
-241.932	-59.907	-0.146	-0.062
-240.917	156.091	-0.211	0.286
-239.903	-77.277	-0.271	-0.093
-238.888	440.599	0.164	0.353
-237.873	-200.000	-0.011	0.169
-236.859	-142.004	0.146	-0.014
-235.844	173.087	0.164	0.232
-234.830	-136.605	-0.060	0.007
-233.815	424.541	0.035	-0.075
-232.800	-189.410	-0.599	-0.007
-231.786	-200.000	0.063	0.319
-230.771	-32.351	-0.144	0.079
-229.757	-63.209	-0.151	0.061
-228.742	276.727	-0.093	0.162
-227.727	-200.000	-0.012	0.131
-226.713	800.000	0.045	0.177
-225.698	-46.531	0.200	0.096
-224.684	-144.105	-0.056	0.005
-223.669	-156.601	-0.281	0.017
-222.655	-200.000	0.020	0.346
-221.640	117.221	-0.013	-0.015
-220.625	152.306	-0.184	0.247
-219.611	440.266	-0.105	-0.224
-218.596	-89.478	-0.118	0.034
-217.582	-24.734	-0.178	0.104
-216.567	-70.285	0.136	0.051
-215.552	-36.194	-0.047	0.025
-214.538	285.896	-0.104	0.184
-213.523	201.607	0.072	-0.108
-212.509	37.054	-0.176	0.153
-211.494	-200.000	-0.034	-0.268
-210.479	800.000	0.069	0.220
-209.465	150.106	-0.075	0.100
-208.450	-200.000	0.028	-0.302
-207.436	-103.814	0.236	0.054
-206.421	-158.968	-0.121	-0.007
-205.406	-42.221	0.126	-0.063
-204.392	72.017	0.207	-0.211
-203.377	-200.000	0.024	-0.246
-202.363	31.925	0.048	-0.040
-201.348	-138.277	0.322	-0.035
-200.333	-200.000	-0.049	-0.271
-199.319	170.455	-0.186	-0.261
-198.304	-64.900	0.198	-0.079
-197.290	-142.993	-0.138	-0.013
-196.275	-74.752	-0.228	0.080
-195.260	-26.345	0.168	0.097
-194.246	-53.376	0.253	-0.114
-193.231	-196.958	0.129	-0.001
-192.217	57.848	0.136	0.131
-191.202	-200.000	0.000	-0.303
-190.187	198.758	0.123	0.184
-189.173	-51.044	-0.186	0.086
-188.158	-141.014	0.433	-0.044
-187.144	63.387	0.239	-0.235
-186.129	-5.711	0.215	0.145
-185.114	-26.022	-0.122	0.070
-184.100	-200.000	0.023	0.470
-183.085	-1.241	0.058	0.040
-182.071	99.910	0.125	0.143
-181.056	199.253	0.117	0.175
-180.042	151.676	-0.035	-0.046
-179.027	167.969	0.109	0.152
-178.012	662.529	-0.083	0.210
-176.998	-118.923	-0.138	0.024
-175.983	-200.000	-0.017	0.209
-174.969	155.127	0.146	-0.197
-173.954	69.491	0.129	0.131
-172.939	572.323	-0.084	0.200
-171.925	-200.000	-0.019	-0.513
-170.910	72.982	0.184	0.188
-169.896	800.000	0.029	0.122
-168.881	-108.291	-0.420	-0.089
-167.866	15.100	0.025	-0.020
-166.852	214.675	0.161	-0.250
-165.837	800.000	-0.040	0.115
-164.823	-200.000	0.044	-0.272
-163.808	-120.701	0.301	0.050
-162.793	109.317	-0.137	-0.161
-161.779	105.985	-0.117	0.136
-160.764	-200.000	-0.047	-0.530
-159.750	-24.449	0.054	0.032
-158.735	22.235	0.262	-0.209
-157.720	6.008	0.284	0.206
-156.706	-102.289	0.416	-0.098
-155.691	-200.000	0.005	0.087
-154.677	-84.249	-0.356	0.111
-153.662	-200.000	-0.043	-0.503
-152.647	-152.510	0.143	-0.010
-151.633	-200.000	0.018	0.156
-150.618	272.726	0.159	-0.275
-149.604	-80.301	-0.139	0.045
-148.589	-200.000	-0.117	0.633
-147.574	134.062	0.091	0.116
-146.560	-200.000	0.017	-0.311
-145.545	-98.246	0.232	-0.058
-144.531	771.474	-0.129	0.346
-143.516	179.760	0.072	0.103
-142.502	-200.000	-0.010	-0.145
-141.487	471.326	-0.166	-0.367
-140.472	-200.000	-0.006	0.272
-139.458	254.449	0.028	-0.047
-138.443	-200.000	0.040	-0.218
-137.429	-30.548	-0.404	-0.224
-136.414	18.446	0.123	0.096
-135.399	-97.812	0.132	0.033
-134.385	22.455	-0.362	-0.290
-133.370	-50.774	-0.307	0.142
-132.356	-200.000	0.008	0.065
-131.341	172.251	0.186	-0.262
-130.326	-200.000	0.018	-0.207
-129.312	45.505	-0.227	-0.205
-128.297	-155.980	0.097	0.006
-127.283	11.815	-0.230	-0.173
-126.268	-200.000	0.035	-0.171
-125.253	-162.185	0.381	0.019
-124.239	-119.551	0.193	0.033
-123.224	-4.136	-0.244	0.165
-122.210	800.000	0.094	0.281
-121.195	241.341	0.104	0.170
-120.180	180.992	0.082	0.118
-119.166	38.153	0.144	0.126
-118.151	-200.000	-0.016	0.351
-117.137	800.000	-0.069	0.249
-116.122	-200.000	-0.017	-0.232
-115.107	-200.000	-0.008	0.428
-114.093	-144.043	-0.268	-0.025
-113.078	-200.000	0.007	0.170
-112.064	295.599	0.063	-0.113
-111.049	-15.472	0.161	-0.101
-110.034	-104.035	-0.203	-0.046
-109.020	333.740	-0.130	0.246
-108.005	800.000	-0.098	0.285
-106.991	18.590	0.223	-0.175
-105.976	204.093	0.034	-0.051
-104.962	114.488	0.130	-0.155
-103.947	164.124	-0.130	-0.180
-102.932	111.194	0.146	-0.172
-101.918	-200.000	0.012	0.159
-100.903	-200.000	-0.009	0.133
-99.889	-12.624	-0.188	0.120
-98.874	800.000	0.043	0.154
-97.859	576.428	-0.068	0.163
-96.845	184.052	-0.048	-0.069
-95.830	-200.000	-0.000	0.317
-94.816	-47.786	-0.062	0.029
-93.801	-38.346	0.315	0.163
-92.786	-178.022	0.130	-0.003
-91.772	800.000	0.102	0.335
-90.757	-200.000	-0.005	0.270
-89.743	-45.496	0.237	-0.115
-88.728	217.197	-0.051	-0.079
-87.713	-70.370	-0.198	0.073
-86.699	-200.000	-0.006	-0.352
-85.684	-53.327	-0.079	0.035
-84.670	-7.646	-0.313	-0.207
-83.655	43.640	0.159	0.142
-82.640	-168.339	-0.042	0.002
-81.626	5.556	0.110	0.079
-80.611	184.953	0.137	-0.198
-79.597	37.055	-0.161	-0.139
-78.582	-42.846	0.377	-0.187
-77.567	16.517	-0.267	0.206
-76.553	-132.001	0.115	-0.015
-75.538	15.755	-0.096	-0.074
-74.524	152.728	0.138	0.184
-73.509	800.000	0.144	0.463
-72.494	800.000	0.034	0.131
-71.480	347.356	0.023	-0.043
-70.465	800.000	0.118	0.379
-69.451	-129.591	0.363	0.049
-68.436	280.675	0.182	0.317
-67.422	203.169	0.215	0.324
-66.407	-143.443	-0.098	-0.009
-65.392	-200.000	0.040	-0.243
-64.378	18.454	-0.088	-0.068
-63.363	-2.374	0.230	-0.158
-62.349	800.000	-0.067	0.197
-61.334	23.796	-1.500	-1.207
-60.319	64.358	0.649	0.639
-59.305	800.000	-0.397	-1.356
-58.290	450.150	0.700	1.509
-57.276	314.921	0.881	1.620
-56.261	-200.000	125.279	656.590
-55.246	410.587	1581.675	3274.249
-54.232	141.062	2738.573	3535.180
-53.217	95.356	2162.835	2406.371
-52.203	34.484	1594.100	1358.690
-51.188	26.108	1337.696	1089.776
-50.173	23.674	1299.875	1044.622
-49.159	52.495	1369.716	1276.230
-48.144	48.704	1381.114	1263.909
-47.130	26.282	1328.748	1083.361
-46.115	23.111	1309.863	1049.143
-45.100	22.823	1304.754	1043.310
-44.086	22.848	1301.986	1041.204
-43.071	22.816	1299.603	1039.067
-42.057	22.791	1297.504	1037.199
-41.042	22.830	1296.144	1036.304
-40.027	22.772	1295.195	1035.161
-39.013	22.927	1292.386	1033.785
-37.998	22.927	1290.881	1032.536
-36.984	22.877	1289.828	1031.364
-35.969	22.952	1287.676	1030.041
-34.954	22.986	1285.717	1028.628
-33.940	22.985	1284.618	1027.702
-32.925	22.931	1283.301	1026.296
-31.911	23.161	1281.465	1026.116
-30.896	23.108	1280.511	1025.005
-29.881	23.119	1279.249	1024.019
-28.867	23.055	1277.664	1022.341
-27.852	23.044	1276.379	1021.208
-26.838	23.098	1275.106	1020.459
-25.823	23.052	1273.901	1019.194
-24.809	23.164	1272.077	1018.336
-23.794	23.155	1270.969	1017.355
-22.779	22.985	1270.072	1015.624
-21.765	23.026	1268.287	1014.388
-20.750	22.986	1267.225	1013.270
-19.736	22.926	1265.736	1011.698
-18.721	22.884	1264.889	1010.740
-17.706	22.989	1263.461	1010.159
-16.692	22.905	1261.810	1008.320
-15.677	22.983	1261.066	1008.125
-14.663	22.970	1260.047	1007.201
-13.648	22.864	1259.025	1005.738
-12.633	22.812	1258.305	1004.826
-11.619	22.887	1257.619	1004.665
-10.604	23.030	1256.645	1004.663
-9.590	22.896	1255.537	1002.975
-8.575	22.896	1254.435	1002.051
-7.560	22.849	1254.145	1001.517
-6.546	22.854	1253.307	1000.835
-5.531	22.869	1252.297	1000.077
-4.517	22.825	1251.308	998.994
-3.502	22.933	1250.223	998.698
-2.487	22.949	1249.640	998.285
-1.473	22.864	1245.560	994.509
-0.458	21.513	1231.402	975.640
0.556	16.932	1216.755	942.156
1.571	13.773	1225.752	931.335
2.586	13.231	1241.506	940.136
3.600	13.404	1229.122	931.650
4.615	9.711	1156.882	857.217
5.629	3.171	1085.580	771.602
6.644	0.391	1068.505	745.663
7.659	0.173	1066.908	743.405
8.673	0.094	1066.157	742.429
9.688	0.023	1064.405	740.792
10.702	0.320	1061.675	740.286
11.717	4.139	1066.885	762.676
12.731	11.214	1076.025	804.161
13.746	15.808	1081.593	830.991
14.761	16.638	1082.509	835.718
15.775	15.877	1080.836	830.602
16.790	15.037	1078.836	824.850
17.804	14.359	1076.768	819.864
18.819	13.968	1076.335	817.537
19.834	13.906	1074.768	815.971
20.848	13.558	1074.400	813.907
21.863	13.248	1073.720	811.797
22.877	13.198	1072.875	810.842
23.892	13.105	1072.070	809.707
24.907	13.186	1071.201	809.374
25.921	13.132	1070.905	808.816
26.936	13.190	1069.666	808.093
27.950	13.366	1068.015	807.634
28.965	13.255	1067.343	806.513
29.980	13.214	1066.269	805.429
30.994	13.353	1065.051	805.114
32.009	13.373	1064.109	804.430
33.023	13.323	1062.671	803.027
34.038	13.313	1061.868	802.299
35.053	13.273	1061.364	801.656
36.067	13.206	1060.389	800.522
37.082	13.323	1059.368	800.247
38.096	13.293	1058.990	799.747
39.111	13.364	1057.591	798.963
40.126	13.229	1056.609	797.496
41.140	13.124	1055.507	796.091
42.155	13.251	1053.751	795.306
43.169	13.092	1053.738	794.461
44.184	13.119	1052.316	793.449
45.199	13.141	1051.139	792.594
46.213	13.177	1050.302	792.065
47.228	13.098	1049.472	790.992
48.242	13.177	1047.990	790.182
49.257	13.126	1047.588	789.564
50.271	13.219	1046.450	789.085
51.286	13.303	1045.475	788.681
52.301	13.149	1044.716	787.301
53.315	13.264	1043.695	787.012
54.330	13.446	1042.129	786.626
55.344	13.345	1041.227	785.396
56.359	13.219	1040.693	784.323
57.374	13.063	1040.254	783.183
58.388	13.098	1039.192	782.482
59.403	13.143	1038.070	781.779
60.417	13.092	1037.294	780.886
61.432	13.093	1036.237	780.024
62.447	13.063	1035.344	779.143
63.461	13.060	1034.988	778.792
64.476	13.061	1034.159	778.104
65.490	13.022	1033.335	777.232
66.505	13.120	1032.656	777.115
67.520	12.974	1032.203	776.016
68.534	13.034	1031.557	775.747
69.549	13.149	1030.150	775.157
70.563	13.028	1029.745	774.215
71.578	12.978	1028.967	773.330
72.593	13.004	1028.118	772.744
73.607	12.993	1027.390	772.078
74.622	12.906	1027.104	771.389
75.636	13.113	1025.901	771.382
76.651	12.878	1025.821	770.156
77.666	13.053	1024.799	770.139
78.680	12.964	1024.471	769.409
79.695	13.164	1023.426	769.488
80.709	12.989	1022.868	768.182
81.724	13.153	1022.151	768.339
82.739	13.127	1021.492	767.657
83.753	13.311	1020.375	767.605
84.768	13.293	1020.006	767.173
85.782	13.370	1018.856	766.596
86.797	13.353	1018.182	765.944
87.812	13.181	1017.283	764.406
88.826	13.237	1015.879	763.541
89.841	13.324	1015.178	763.350
90.855	13.361	1014.256	762.758
91.870	13.363	1013.320	761.997
92.884	13.281	1012.489	760.926
93.899	13.311	1011.751	760.443
94.914	13.337	1010.956	759.899
95.928	13.397	1010.246	759.569
96.943	13.284	1009.624	758.519
97.957	13.240	1008.936	757.734
98.972	13.330	1007.704	757.152
99.987	13.472	1006.678	756.963
101.001	13.315	1005.689	755.434
102.016	13.345	1004.670	754.739
103.030	13.427	1004.017	754.559
104.045	13.346	1003.365	753.633
105.060	13.310	1002.188	752.516
106.074	13.298	1001.749	752.068
107.089	13.223	1000.386	750.634
108.103	13.282	999.455	750.138
109.118	13.233	999.084	749.571
110.133	13.378	997.537	749.000
111.147	13.263	997.060	748.057
112.162	13.184	996.508	747.219
113.176	13.200	996.176	746.973
114.191	13.289	994.791	746.275
115.206	13.305	994.039	745.717
116.220	13.296	993.231	745.000
117.235	13.395	991.950	744.422
118.249	13.248	991.449	743.318
119.264	13.320	990.760	743.060
120.279	13.195	990.321	742.102
121.293	13.268	989.084	741.437
122.308	13.170	988.329	740.368
123.322	13.294	987.246	740.046
124.337	13.276	986.098	739.040
125.352	13.166	985.177	737.792
126.366	13.250	983.840	737.102
127.381	13.288	982.921	736.515
128.395	13.191	982.170	735.454
129.410	13.294	981.256	735.165
130.424	13.302	980.394	734.489
131.439	13.337	979.540	733.940
132.454	13.364	978.980	733.574
133.468	13.345	977.868	732.593
134.483	13.292	977.057	731.685
135.497	13.399	975.631	731.025
136.512	13.333	975.491	730.566
137.527	13.378	974.424	729.897
138.541	13.360	973.874	729.344
139.556	13.342	972.975	728.527
140.570	13.419	972.553	728.485
141.585	13.557	971.428	728.184
142.600	13.491	970.457	727.101
143.614	13.429	969.741	726.228
144.629	13.496	969.148	726.016
145.643	13.359	968.271	724.693
146.658	13.529	966.763	724.246
147.673	13.464	966.216	723.487
148.687	13.370	965.621	722.566
149.702	13.393	964.626	721.857
150.716	13.348	964.154	721.246
151.731	13.408	962.715	720.366
152.746	13.417	962.444	720.137
153.760	13.459	961.632	719.651
154.775	13.458	961.200	719.260
155.789	13.604	960.523	719.323
156.804	13.400	960.090	718.050
157.819	13.597	959.345	718.284
158.833	13.645	958.822	718.035
159.848	13.668	957.830	717.330
160.862	13.619	956.504	716.061
161.877	13.580	955.729	715.250
162.892	13.522	954.843	714.273
163.906	13.635	953.670	713.818
164.921	13.536	953.306	713.057
165.935	13.670	952.086	712.655
166.950	13.550	951.256	711.458
167.964	13.557	950.880	711.143
168.979	13.622	950.191	710.842
169.994	13.726	948.946	710.295
171.008	13.675	948.135	709.405
172.023	13.791	947.584	709.426
173.037	13.694	946.928	708.459
174.052	13.599	946.651	707.784
175.067	13.535	945.659	706.707
176.081	13.675	944.978	706.732
177.096	13.645	944.205	705.962
178.110	13.698	943.749	705.784
179.125	13.696	942.978	705.139
180.140	13.790	942.660	705.237
181.154	13.832	942.006	704.864
182.169	13.826	941.537	704.424
183.183	13.821	940.610	703.649
184.198	13.753	939.719	702.632
185.213	13.884	939.006	702.590
186.227	13.880	938.538	702.161
187.242	13.918	937.776	701.688
188.256	13.843	937.513	701.113
189.271	13.803	936.617	700.212
190.286	13.799	935.807	699.530
191.300	13.699	935.119	698.530
192.315	13.787	934.768	698.579
193.329	13.680	933.923	697.434
194.344	13.766	933.239	697.221
195.359	13.929	932.561	697.338
196.373	13.913	932.099	696.864
197.388	13.849	932.053	696.502
198.402	14.027	931.274	696.602
199.417	14.067	930.448	696.092
200.432	14.107	929.671	695.617
201.446	14.043	929.689	695.300
202.461	14.079	928.945	694.833
203.475	14.163	928.289	694.630
204.490	14.227	927.011	693.881
205.504	14.069	926.377	692.687
206.519	14.134	925.798	692.460
207.534	14.180	925.200	692.143
208.548	14.075	924.546	691.159
209.563	14.179	923.759	690.940
210.577	14.181	923.207	690.475
211.592	14.331	922.324	690.374
212.607	14.299	921.883	689.848
213.621	14.257	920.812	688.812
214.636	14.220	920.330	688.240
215.650	14.340	919.839	688.306
216.665	14.235	919.397	687.482
217.680	14.275	918.578	686.975
218.694	14.361	917.475	686.445
219.709	14.383	916.756	685.934
220.723	14.294	916.453	685.282
221.738	14.233	915.877	684.537
222.753	14.438	914.950	684.627
223.767	14.500	914.395	684.405
224.782	14.366	914.209	683.658
225.796	14.514	913.490	683.665
226.811	14.372	913.027	682.676
227.826	14.403	912.211	682.134
228.840	14.462	911.257	681.600
229.855	14.389	910.568	680.727
230.869	14.451	909.608	680.202
231.884	14.311	909.299	679.337
232.899	14.450	908.124	678.966
233.913	14.343	908.060	678.423
234.928	14.533	907.162	678.465
235.942	14.491	906.159	677.485
236.957	14.645	905.273	677.389
237.972	14.430	905.215	676.413
238.986	14.457	904.748	676.114
240.001	14.378	904.125	675.266
241.015	14.522	902.964	674.923
242.030	14.490	902.819	674.626
243.045	14.516	901.792	673.904
244.059	14.498	901.475	673.533
245.074	14.481	900.866	672.952
246.088	14.642	899.660	672.638
247.103	14.726	899.469	672.774
248.117	14.654	898.397	671.623
249.132	14.705	898.408	671.778
250.147	14.933	897.592	672.027
251.161	14.734	897.352	670.987
252.176	14.782	896.454	670.448
253.190	14.897	895.820	670.376
254.205	14.995	895.032	670.119
255.220	14.941	894.298	669.293
256.234	14.998	893.796	669.088
257.249	14.831	893.496	668.137
258.263	14.996	892.220	667.780
259.278	15.032	891.487	667.316
260.293	15.074	890.997	667.058
261.307	15.129	890.228	666.644
262.322	15.007	890.205	666.079
263.336	15.175	888.893	665.709
264.351	15.215	888.307	665.368
265.366	15.153	887.953	664.798
266.380	15.155	887.100	664.111
267.395	15.080	886.949	663.640
268.409	15.119	885.712	662.809
269.424	15.237	885.067	662.735
270.439	15.084	884.412	661.581
271.453	15.163	883.418	661.092
272.468	15.148	883.335	660.913
273.482	15.263	882.682	660.819
274.497	15.173	882.109	659.977
275.512	15.235	881.460	659.675
276.526	15.170	881.083	659.079
277.541	15.287	880.537	659.072
278.555	15.278	880.028	658.599
279.570	15.382	879.037	658.207
280.585	15.441	878.368	657.880
281.599	15.300	877.751	656.808
282.614	15.291	877.150	656.265
283.628	15.384	876.244	655.889
284.643	15.404	875.868	655.632
285.657	15.437	875.235	655.226
286.672	15.347	874.620	654.356
287.687	15.419	873.954	654.082
288.701	15.433	873.309	653.595
289.716	15.414	872.977	653.214
290.730	15.479	872.556	653.094
291.745	15.369	871.984	652.184
292.760	15.573	871.237	652.359
293.774	15.607	870.448	651.840
294.789	15.595	869.886	651.315
295.803	15.549	868.996	650.415
296.818	15.498	868.502	649.789
297.833	15.706	867.694	649.930
298.847	15.526	867.415	648.969
299.862	15.563	866.692	648.516
300.876	15.627	866.172	648.314
301.891	15.647	865.371	647.733
302.906	15.663	865.040	647.492
303.920	15.670	864.682	647.192
304.935	15.841	863.485	646.899
305.949	15.775	862.840	646.104
306.964	15.646	862.621	645.387
307.979	15.688	862.322	645.266
308.993	15.833	861.326	645.022
310.008	15.948	860.511	644.795
311.022	15.875	860.237	644.251
312.037	15.812	859.773	643.605
313.052	15.848	858.886	643.021
314.066	15.716	858.710	642.328
315.081	15.777	858.120	642.066
316.095	15.693	857.113	640.936
317.110	15.857	856.687	641.185
318.125	15.757	856.326	640.476
319.139	15.702	856.154	640.081
320.154	15.825	855.916	640.316
321.168	15.981	854.571	639.845
322.183	16.006	854.139	639.560
323.197	15.979	853.268	638.747
324.212	15.770	853.482	638.059
325.227	15.977	852.512	638.061
326.241	15.955	851.666	637.290
327.256	15.974	851.152	636.918
328.270	16.022	850.858	636.825
329.285	16.007	850.191	636.211
330.300	15.933	849.581	635.420
331.314	15.993	848.716	634.944
332.329	15.955	848.782	634.795
333.343	15.988	848.301	634.502
334.358	16.032	847.919	634.326
335.373	15.957	847.372	633.578
336.387	16.241	846.999	634.312
337.402	16.100	847.133	633.825
338.416	16.134	846.489	633.413
339.431	16.142	846.092	633.090
340.446	16.300	845.553	633.225
341.460	16.447	844.953	633.270
342.475	16.372	844.583	632.656
343.489	16.357	844.248	632.292
344.504	16.357	843.735	631.853
345.519	16.401	843.238	631.589
346.533	16.405	842.458	630.964
347.548	16.400	841.766	630.371
348.562	16.316	841.680	629.937
349.577	16.485	840.793	629.847
350.592	16.295	840.608	628.946
351.606	16.282	840.005	628.389
352.621	16.343	839.251	628.000
353.635	16.339	838.735	627.543
354.650	16.369	837.980	627.032
355.665	16.399	837.603	626.804
356.679	16.582	836.679	626.735
357.694	16.505	836.214	626.046
358.708	16.485	835.520	625.398
359.723	16.395	835.405	624.926
360.738	16.394	834.566	624.239
361.752	16.637	833.442	624.239
362.767	16.647	832.700	623.666
363.781	16.494	832.812	623.128
364.796	16.585	832.232	622.974
365.810	16.622	832.127	622.978
366.825	16.737	831.207	622.658
367.840	16.611	831.190	622.125
368.854	16.660	830.724	621.903
369.869	16.676	830.441	621.695
370.883	16.629	829.605	620.841
371.898	16.727	829.003	620.695
372.913	16.824	828.886	620.908
373.927	16.772	828.332	620.246
374.942	16.881	827.872	620.248
375.956	16.818	827.203	619.461
376.971	16.955	826.669	619.506
377.986	16.885	826.229	618.865
379.000	16.988	825.716	618.800
380.015	16.933	825.352	618.273
381.029	16.999	824.753	618.012
382.044	17.112	824.088	617.868
383.059	16.997	823.661	617.076
384.073	17.025	823.163	616.750
385.088	17.081	822.399	616.327
386.102	17.057	821.829	615.757
387.117	17.040	821.212	615.179
388.132	16.888	820.928	614.361
389.146	17.069	820.314	614.503
390.161	16.983	820.100	613.977
391.175	17.020	819.384	613.521
392.190	17.038	818.967	613.219
393.205	17.089	818.401	612.924
394.219	17.081	818.284	612.753
395.234	16.984	818.022	612.152
396.248	16.956	817.412	611.541
397.263	16.827	816.924	610.657
398.278	16.919	816.615	610.705
399.292	17.082	815.705	610.558
400.307	17.139	815.222	610.346
401.321	17.042	814.967	609.751
402.336	17.147	814.356	609.617
403.350	17.223	814.115	609.655
404.365	17.186	813.649	609.120
405.380	17.242	812.980	608.768
406.394	17.354	812.515	608.765
407.409	17.360	811.974	608.327
408.423	17.351	811.797	608.109
409.438	17.498	811.065	608.034
410.453	17.488	810.899	607.817
411.467	17.282	810.945	607.063
412.482	17.504	810.139	607.196
413.496	17.448	809.881	606.752
414.511	17.508	809.631	606.724
415.526	17.505	809.445	606.520
416.540	17.448	808.791	605.773
417.555	17.575	807.619	605.295
418.569	17.543	807.608	605.119
419.584	17.544	807.349	604.876
420.599	17.590	806.625	604.442
421.613	113.807	1299.156	1488.035
422.628	98.279	1370.894	1488.108
