DTS Sentinel unit serial number:	SN413079Multiplexer serial number:	ORYXHardware model number:	OX4-SRSoftware version number:	ORYX F/W v4.00 Oryx Data Collector v3.7.2.0data status	okinstallation	princeton_trtdifferential loss correction	single-endedforward channel	channel 1reverse channel	N/Adate	2019/09/12time	19:03:34forward acquisition time	15.00reverse acquisition time	0.00gamma	496.2192k internal	0.2319k external	0.2319temperature offset calibration	1.0118default loss term (dB/km)	0.3790temperature slope calibration	1.0000multiplexer offset coefficient	1.0000multiplexer slope coefficient	1.0000fibre end	0.00T internal ref (°C)	32.69T ext. ref 1 (°C)	3.04T ext. ref 2 (°C)	27.25length (m)	temperature (°C)	Stokes	anti-Stokes-747.200	-118.739	-0.510	0.091
-746.185	-128.039	-0.920	0.134
-745.171	52.825	0.433	0.419
-744.156	188.003	-0.229	-0.346
-743.142	-200.000	0.057	-0.806
-742.127	72.909	-0.185	0.196
-741.112	-18.639	-0.362	-0.228
-740.098	-14.838	-0.396	0.257
-739.083	-200.000	0.042	-0.475
-738.069	-200.000	-0.044	0.874
-737.054	-94.863	0.751	0.206
-736.039	6.994	0.375	0.283
-735.025	348.439	-0.075	-0.150
-734.010	175.480	-0.468	-0.687
-732.996	-96.501	-1.278	0.341
-731.981	-137.626	-0.430	0.049
-730.966	-200.000	0.002	-0.100
-729.952	532.341	0.152	-0.364
-728.937	33.675	-0.432	-0.380
-727.923	-59.226	-1.344	-0.585
-726.908	631.173	0.120	-0.308
-725.894	25.878	-0.368	-0.310
-724.879	-160.622	0.497	0.027
-723.864	-200.000	-0.019	-0.593
-722.850	44.280	-0.755	-0.700
-721.835	800.000	-0.140	-0.572
-720.821	361.605	0.286	-0.580
-719.806	339.755	-0.200	-0.395
-718.791	-64.659	0.585	0.240
-717.777	-7.025	-0.326	0.224
-716.762	204.831	-0.235	-0.369
-715.748	-22.870	-0.124	-0.076
-714.733	-188.541	0.023	0.000
-713.718	800.000	0.151	0.523
-712.704	98.217	0.156	0.182
-711.689	371.417	0.049	0.101
-710.675	398.555	-0.258	-0.545
-709.660	-163.874	-0.645	-0.030
-708.645	776.003	-0.500	-1.378
-707.631	-38.377	0.599	-0.320
-706.616	-200.000	0.051	-0.351
-705.602	-200.000	-0.007	0.464
-704.587	-42.219	0.742	-0.383
-703.572	-200.000	-0.096	0.441
-702.558	-66.076	-0.447	0.180
-701.543	714.048	0.104	-0.279
-700.529	-200.000	0.075	-0.609
-699.514	800.000	-0.106	0.468
-698.499	-200.000	0.009	0.349
-697.485	18.911	-0.389	0.315
-696.470	-200.000	-0.086	-0.406
-695.456	-66.272	-0.196	0.079
-694.441	12.289	-0.737	-0.573
-693.426	-18.558	-0.486	-0.306
-692.412	-107.060	0.231	0.052
-691.397	-56.563	0.711	0.318
-690.383	-47.236	0.411	-0.202
-689.368	75.218	0.391	-0.416
-688.354	800.000	0.154	-0.472
-687.339	53.525	-0.324	0.313
-686.324	181.704	-0.574	0.852
-685.310	-157.360	0.750	0.046
-684.295	-39.012	-0.535	0.284
-683.281	-62.566	-0.844	0.353
-682.266	-110.705	-0.222	0.046
-681.251	-66.987	-1.067	0.425
-680.237	-79.057	-0.722	0.248
-679.222	426.866	-0.136	-0.296
-678.208	-200.000	0.004	0.463
-677.193	-143.504	-0.136	0.013
-676.178	328.463	0.282	-0.546
-675.164	-200.000	-0.194	-0.965
-674.149	-94.407	-0.715	-0.197
-673.135	68.240	0.421	-0.434
-672.120	-200.000	-0.031	0.517
-671.105	-126.204	0.280	-0.042
-670.091	-200.000	0.046	1.051
-669.076	-26.680	0.600	-0.354
-668.062	696.566	-0.239	-0.632
-667.047	466.681	0.348	-0.785
-666.032	289.997	0.093	0.170
-665.018	-200.000	0.103	-0.597
-664.003	-200.000	-0.045	0.419
-662.989	800.000	-0.383	-1.453
-661.974	-200.000	-0.083	0.586
-660.959	-76.184	-0.431	-0.153
-659.945	184.804	0.257	-0.384
-658.930	-10.271	0.237	0.158
-657.916	41.599	0.352	-0.321
-656.901	-165.111	-0.631	-0.028
-655.886	164.536	-0.229	0.326
-654.872	-153.185	0.346	-0.024
-653.857	300.132	-0.055	0.102
-652.843	-54.663	-0.438	-0.200
-651.828	568.136	0.312	0.763
-650.814	-33.448	-0.470	0.262
-649.799	-200.000	0.070	-0.600
-648.784	59.650	-0.099	-0.098
-647.770	-178.470	0.266	-0.006
-646.755	-46.271	0.361	-0.179
-645.741	317.238	0.319	0.608
-644.726	-151.314	-0.114	-0.009
-643.711	-125.005	-0.168	0.026
-642.697	-200.000	-0.024	0.388
-641.682	24.353	0.380	-0.317
-640.668	-88.141	-0.422	0.127
-639.653	278.144	-0.689	-1.236
-638.638	9.185	-0.783	-0.596
-637.624	195.435	0.643	0.985
-636.609	-127.003	-0.937	0.139
-635.595	800.000	-0.032	0.091
-634.580	-73.188	-0.412	-0.152
-633.565	47.617	0.187	0.175
-632.551	-200.000	-0.013	-0.496
-631.536	-57.242	1.073	-0.476
-630.522	-24.358	-0.086	0.052
-629.507	-90.789	-0.526	0.153
-628.492	800.000	-0.253	1.026
-627.478	800.000	-0.044	0.189
-626.463	465.842	0.011	0.025
-625.449	-200.000	-0.095	-0.785
-624.434	531.204	0.155	0.369
-623.419	800.000	0.077	-0.287
-622.405	101.313	0.298	0.349
-621.390	-100.789	-0.060	0.015
-620.376	68.376	0.770	0.794
-619.361	256.257	0.238	0.412
-618.346	800.000	-0.152	-0.512
-617.332	61.220	0.526	-0.526
-616.317	-200.000	0.013	0.677
-615.303	800.000	0.293	0.821
-614.288	107.143	-0.845	-1.011
-613.273	-121.923	0.068	-0.011
-612.259	232.086	0.298	-0.493
-611.244	689.195	0.333	-0.877
-610.230	-3.354	-0.370	0.259
-609.215	-56.664	-0.120	0.053
-608.201	-200.000	-0.016	-0.227
-607.186	-200.000	-0.006	0.507
-606.171	10.381	-0.288	0.220
-605.157	-200.000	-0.002	-0.024
-604.142	57.207	0.356	0.349
-603.128	268.005	0.365	-0.643
-602.113	-200.000	-0.760	0.004
-601.098	-200.000	0.053	-0.726
-600.084	-12.279	0.832	0.547
-599.069	-41.994	0.529	0.273
-598.055	-34.260	-0.587	0.324
-597.040	-200.000	0.079	0.670
-596.025	97.879	-0.258	-0.299
-595.011	36.035	-0.271	0.240
-593.996	-147.475	-0.408	0.035
-592.982	-8.065	0.761	-0.515
-591.967	-200.000	-0.047	-0.308
-590.952	-23.693	-0.907	0.547
-589.938	252.506	-0.432	-0.741
-588.923	144.737	0.357	0.480
-587.909	-200.000	0.008	0.152
-586.894	-11.680	0.375	-0.247
-585.879	-200.000	0.022	-0.472
-584.865	261.035	-0.122	-0.213
-583.850	-86.609	-0.161	0.049
-582.836	-31.526	0.282	0.159
-581.821	-136.825	-0.195	0.023
-580.806	-200.000	-0.031	0.708
-579.792	-3.526	0.680	-0.476
-578.777	-49.649	-0.505	0.241
-577.763	-200.000	-0.000	0.188
-576.748	-200.000	0.001	0.916
-575.733	51.101	-0.500	-0.476
-574.719	800.000	0.036	0.135
-573.704	-200.000	0.022	0.313
-572.690	-32.251	0.995	0.559
-571.675	-30.392	-0.617	0.352
-570.661	800.000	-0.032	0.097
-569.646	615.488	0.475	1.195
-568.631	-28.613	-0.522	-0.302
-567.617	34.884	0.352	-0.309
-566.602	299.845	-0.094	-0.173
-565.588	29.036	0.397	-0.338
-564.573	-184.611	0.565	0.009
-563.558	-41.616	0.798	-0.412
-562.544	800.000	0.085	0.325
-561.529	-62.297	0.426	0.178
-560.515	800.000	0.183	-0.597
-559.500	262.360	-0.060	0.104
-558.485	324.359	-0.203	0.389
-557.471	-90.517	0.472	-0.137
-556.456	-28.865	-0.611	-0.353
-555.442	-200.000	-0.052	0.467
-554.427	-142.669	0.600	-0.059
-553.412	-33.118	0.505	0.281
-552.398	-161.153	-0.460	-0.024
-551.383	40.838	-0.484	-0.439
-550.369	-55.739	0.705	0.316
-549.354	129.225	0.257	0.329
-548.339	-200.000	0.026	0.239
-547.325	43.162	0.345	0.316
-546.310	-200.000	-0.038	-1.242
-545.296	51.218	-0.182	-0.173
-544.281	-77.014	-0.163	0.057
-543.266	45.237	-0.660	-0.611
-542.252	198.260	-0.296	-0.454
-541.237	-95.459	-0.271	0.073
-540.223	146.428	0.402	-0.542
-539.208	-10.329	0.281	-0.187
-538.193	-28.157	-1.073	0.622
-537.179	-34.888	-0.273	-0.149
-536.164	-166.913	0.310	0.013
-535.150	194.178	-1.004	-1.526
-534.135	-200.000	-0.020	-0.399
-533.121	26.362	0.750	0.629
-532.106	192.199	-0.434	-0.657
-531.091	89.097	0.305	0.341
-530.077	-18.591	-1.089	0.681
-529.062	199.365	-0.310	-0.477
-528.048	-189.581	-0.866	-0.010
-527.033	-38.832	0.664	-0.351
-526.018	504.745	-0.251	0.582
-525.004	-161.611	-0.409	-0.021
-523.989	123.118	0.443	0.557
-522.975	122.055	0.413	0.517
-521.960	-200.000	-0.008	0.302
-520.945	-151.441	0.185	0.014
-519.931	-62.601	0.836	0.348
-518.916	-69.194	0.573	0.221
-517.902	-81.434	-0.677	-0.224
-516.887	260.719	-0.203	0.352
-515.872	15.461	0.470	-0.370
-514.858	108.140	-0.434	0.519
-513.843	-75.521	-0.316	0.113
-512.829	27.080	0.268	0.226
-511.814	-28.166	0.551	0.319
-510.799	59.871	0.477	0.472
-509.785	407.166	-0.076	0.160
-508.770	-142.239	-0.436	-0.043
-507.756	-43.398	0.213	-0.108
-506.741	239.382	-0.339	0.565
-505.726	-34.868	0.310	0.170
-504.712	-53.205	-0.433	-0.199
-503.697	-26.167	-0.504	-0.297
-502.683	-200.000	0.005	0.245
-501.668	187.652	-0.516	0.772
-500.653	-200.000	0.202	0.960
-499.639	9.574	-0.837	-0.635
-498.624	800.000	0.072	0.203
-497.610	238.810	0.570	0.949
-496.595	-122.324	0.050	-0.008
-495.581	-119.041	-0.542	0.095
-494.566	783.010	-0.161	0.443
-493.551	131.511	-0.512	-0.660
-492.537	-200.000	-0.044	0.195
-491.522	-123.793	-0.212	-0.033
-490.508	800.000	0.247	-0.740
-489.493	-127.294	-0.570	-0.083
-488.478	-165.152	-1.097	-0.049
-487.464	-147.296	0.772	-0.066
-486.449	-40.570	0.520	-0.270
-485.435	-26.996	-0.305	-0.178
-484.420	-6.593	0.618	-0.421
-483.405	91.023	-0.315	0.354
-482.391	-37.023	-0.072	0.039
-481.376	-100.254	0.161	-0.040
-480.362	-200.000	-0.037	-0.525
-479.347	36.531	-0.444	-0.393
-478.332	-35.404	-0.361	-0.196
-477.318	-200.000	-0.024	0.366
-476.303	125.297	-0.474	-0.599
-475.289	18.997	-0.275	0.221
-474.274	-200.000	0.079	0.902
-473.259	-186.285	-0.779	0.011
-472.245	-104.194	0.494	-0.115
-471.230	-28.072	-0.813	0.471
-470.216	-200.000	0.060	0.506
-469.201	-138.131	0.655	0.073
-468.186	-60.785	0.503	-0.213
-467.172	800.000	-0.042	0.137
-466.157	130.551	-0.135	0.173
-465.143	-200.000	0.127	0.684
-464.128	-120.856	0.331	-0.056
-463.113	-200.000	0.028	0.745
-462.099	-4.883	-0.326	-0.225
-461.084	-116.791	-0.712	0.131
-460.070	-92.241	0.369	0.104
-459.055	-169.332	-0.166	0.006
-458.040	-41.902	-0.494	-0.253
-457.026	-85.683	0.234	0.073
-456.011	48.190	-0.376	-0.352
-454.997	52.780	-0.463	0.442
-453.982	54.059	-0.492	0.473
-452.968	136.397	-0.321	-0.419
-451.953	48.813	-0.162	-0.152
-450.938	-15.480	0.415	0.265
-449.924	249.302	0.194	0.329
-448.909	51.878	0.230	-0.219
-447.895	-74.322	-0.888	0.321
-446.880	-88.394	-0.378	0.113
-445.865	344.494	-0.276	0.541
-444.851	-200.000	0.063	0.309
-443.836	-139.180	-0.255	-0.028
-442.822	25.060	0.755	-0.627
-441.807	-19.847	0.474	0.293
-440.792	-200.000	-0.030	-0.985
-439.778	800.000	0.129	0.389
-438.763	-43.071	-0.322	0.163
-437.749	-200.000	-0.098	0.598
-436.734	-44.066	0.547	0.275
-435.719	-10.135	-0.990	-0.657
-434.705	800.000	0.131	-0.438
-433.690	-200.000	-0.001	0.106
-432.676	-117.185	0.660	0.120
-431.661	-70.338	0.424	-0.161
-430.646	249.553	-0.260	-0.441
-429.632	-181.020	0.379	0.008
-428.617	181.865	-0.288	0.424
-427.603	-25.026	0.288	-0.171
-426.588	-200.000	-0.003	-0.347
-425.573	165.709	0.549	0.776
-424.559	101.780	0.546	-0.636
-423.544	28.621	0.295	-0.250
-422.530	68.489	0.467	-0.478
-421.515	-200.000	-0.097	-0.702
-420.500	226.989	-0.274	-0.445
-419.486	800.000	-0.157	-0.470
-418.471	45.580	0.079	0.073
-417.457	699.037	-0.060	-0.157
-416.442	-88.061	0.308	-0.092
-415.428	-86.780	0.442	0.135
-414.413	121.084	-0.232	-0.288
-413.398	65.289	-0.647	0.653
-412.384	-92.538	0.427	0.120
-411.369	-73.451	-0.611	0.223
-410.355	-82.971	0.331	-0.106
-409.340	800.000	0.113	-0.390
-408.325	800.000	-0.270	-0.749
-407.311	-113.905	0.547	-0.106
-406.296	230.395	-0.224	0.365
-405.282	-20.299	-0.277	-0.170
-404.267	87.535	-0.198	0.218
-403.252	178.852	0.308	-0.449
-402.238	17.073	-0.538	-0.426
-401.223	-145.875	-0.137	-0.012
-400.209	-183.389	-0.455	-0.008
-399.194	83.602	0.185	-0.201
-398.179	307.826	0.124	-0.230
-397.165	21.580	0.176	0.143
-396.150	136.079	-0.374	0.486
-395.136	8.577	0.181	0.136
-394.121	800.000	-0.150	0.607
-393.106	-200.000	-0.015	-0.570
-392.092	17.177	-0.253	-0.200
-391.077	-130.080	-0.693	0.094
-390.063	124.699	-0.512	0.642
-389.048	-200.000	0.051	-0.514
-388.033	-60.608	0.935	-0.396
-387.019	27.712	0.128	-0.107
-386.004	-123.295	0.733	0.117
-384.990	303.554	-0.180	0.332
-383.975	558.563	0.217	0.522
-382.960	-123.508	0.435	0.069
-381.946	-200.000	-0.077	0.572
-380.931	-200.000	-0.014	0.437
-379.917	49.075	0.517	-0.485
-378.902	141.042	0.743	-0.980
-377.888	148.280	-0.343	0.461
-376.873	-11.246	-0.928	-0.610
-375.858	-21.518	-0.786	-0.478
-374.844	-179.468	0.587	-0.013
-373.829	84.395	0.167	0.182
-372.815	-141.875	-0.360	0.036
-371.800	800.000	-0.019	0.084
-370.785	-91.089	-0.529	-0.151
-369.771	-25.544	-0.577	0.340
-368.756	-80.350	0.392	0.130
-367.742	125.091	-0.275	0.346
-366.727	-200.000	0.054	0.883
-365.712	-22.055	0.827	-0.501
-364.698	11.127	0.772	0.588
-363.683	-89.153	-0.769	-0.226
-362.669	-123.582	1.212	-0.192
-361.654	-93.389	0.200	-0.055
-360.639	153.250	-0.347	-0.473
-359.625	800.000	-0.259	0.905
-358.610	-105.925	-0.613	0.138
-357.596	387.639	0.232	0.477
-356.581	390.021	-0.165	-0.340
-355.566	46.792	0.248	0.230
-354.552	-200.000	0.047	0.800
-353.537	-109.447	-0.870	0.183
-352.523	305.640	0.221	-0.409
-351.508	800.000	0.085	-0.253
-350.493	143.290	0.501	0.664
-349.479	-200.000	-0.099	0.704
-348.464	514.859	0.198	0.460
-347.450	40.660	0.392	-0.352
-346.435	-46.487	0.249	0.122
-345.420	122.869	-0.088	0.109
-344.406	800.000	-0.152	0.456
-343.391	60.683	0.261	0.258
-342.377	198.286	-0.303	-0.462
-341.362	93.136	0.752	-0.846
-340.348	-200.000	-0.016	-0.311
-339.333	-48.946	0.178	0.085
-338.318	239.079	0.351	-0.581
-337.304	-200.000	0.026	0.310
-336.289	-85.695	0.521	0.161
-335.275	212.636	0.383	-0.602
-334.260	743.071	0.212	0.567
-333.245	-35.147	0.608	0.330
-332.231	-200.000	0.022	0.239
-331.216	-183.798	-0.296	0.005
-330.202	-46.697	-0.402	0.196
-329.187	-118.848	-0.315	0.055
-328.172	-200.000	-0.026	0.206
-327.158	-157.802	0.697	-0.041
-326.143	5.185	-0.371	-0.272
-325.129	-200.000	0.026	-0.552
-324.114	-200.000	0.102	0.586
-323.099	337.473	0.336	0.650
-322.085	-21.954	-0.256	-0.155
-321.070	-200.000	-0.136	1.092
-320.056	-200.000	0.086	0.438
-319.041	800.000	-0.155	0.431
-318.026	26.038	-0.621	-0.516
-317.012	-89.411	0.598	0.175
-315.997	-138.324	0.522	0.057
-314.983	800.000	-0.075	0.314
-313.968	443.635	0.444	0.967
-312.953	39.637	0.560	0.499
-311.939	546.782	0.194	0.463
-310.924	479.758	-0.334	-0.753
-309.910	84.456	-0.268	-0.292
-308.895	-123.320	-0.335	-0.053
-307.880	-107.498	-0.521	0.113
-306.866	197.119	0.310	-0.470
-305.851	565.407	0.078	-0.189
-304.837	257.946	0.556	0.952
-303.822	132.962	0.520	0.667
-302.807	800.000	0.072	0.213
-301.793	-200.000	0.063	-0.862
-300.778	2.044	-0.414	-0.297
-299.764	193.868	-0.239	-0.359
-298.749	-69.033	0.777	0.298
-297.735	-200.000	-0.035	-0.322
-296.720	-111.290	-0.679	-0.138
-295.705	-4.896	0.257	0.176
-294.691	108.716	0.327	-0.388
-293.676	-25.513	-0.676	0.397
-292.662	-66.124	-0.891	-0.353
-291.647	-200.000	-0.034	0.153
-290.632	117.637	-0.068	-0.084
-289.618	-200.000	0.022	0.614
-288.603	-72.158	-0.558	-0.206
-287.589	-200.000	0.088	0.549
-286.574	-68.304	-0.419	-0.162
-285.559	-128.874	-0.372	0.052
-284.545	-43.848	0.425	0.213
-283.530	-123.776	-1.130	0.177
-282.516	-116.436	-0.506	-0.093
-281.501	-11.251	0.300	0.196
-280.486	-200.000	0.156	-0.711
-279.472	-17.402	-0.709	-0.443
-278.457	263.307	-0.157	-0.271
-277.443	800.000	0.477	-1.418
-276.428	800.000	0.233	-0.652
-275.413	-12.664	-0.304	-0.197
-274.399	-162.725	0.758	0.037
-273.384	-109.738	-0.320	-0.067
-272.370	36.050	0.111	0.097
-271.355	47.361	0.053	-0.049
-270.340	-200.000	-0.029	-0.357
-269.326	-8.386	0.449	-0.300
-268.311	287.766	0.297	-0.533
-267.297	-114.763	-0.951	0.180
-266.282	-200.000	-0.202	0.948
-265.267	122.961	0.076	0.095
-264.253	-200.000	-0.004	-0.121
-263.238	71.003	-0.476	0.490
-262.224	464.398	-0.145	-0.321
-261.209	280.539	-0.210	0.372
-260.195	42.859	0.432	-0.391
-259.180	156.017	-0.260	-0.356
-258.165	-200.000	0.134	0.870
-257.151	-200.000	0.000	1.118
-256.136	-56.562	0.269	0.118
-255.122	-200.000	0.064	-0.336
-254.107	-34.125	-0.284	0.155
-253.092	-67.049	-0.219	0.086
-252.078	6.561	0.634	-0.467
-251.063	-200.000	-0.008	-0.320
-250.049	170.710	0.249	0.354
-249.034	114.309	-0.219	-0.264
-248.019	98.258	-0.219	-0.251
-247.005	235.218	0.736	-1.205
-245.990	368.369	-0.293	-0.587
-244.976	250.581	-0.358	-0.603
-243.961	-88.201	-0.126	0.037
-242.946	800.000	0.077	-0.221
-241.932	-50.542	0.786	-0.367
-240.917	541.724	0.195	-0.461
-239.903	28.743	0.771	-0.648
-238.888	-156.610	1.034	-0.064
-237.873	800.000	0.207	0.570
-236.859	-200.000	0.025	0.493
-235.844	302.846	0.507	-0.931
-234.830	-95.804	-0.376	0.100
-233.815	-4.684	-0.401	0.275
-232.800	302.130	-0.261	0.479
-231.786	-200.000	0.035	0.317
-230.771	-26.837	0.627	-0.363
-229.757	-130.400	-0.568	0.076
-228.742	7.419	0.129	-0.095
-227.727	137.822	-0.418	-0.543
-226.713	800.000	0.208	-0.713
-225.698	-7.154	-0.811	0.545
-224.684	800.000	-0.279	0.959
-223.669	-66.970	-0.432	-0.169
-222.655	-200.000	0.003	-0.221
-221.640	800.000	-0.054	0.155
-220.625	152.286	-0.364	-0.493
-219.611	15.755	-0.330	0.257
-218.596	-63.061	0.333	-0.136
-217.582	-147.297	-0.378	0.032
-216.567	220.030	0.110	0.174
-215.552	-74.585	0.335	-0.119
-214.538	-181.302	0.915	-0.018
-213.523	149.667	-0.204	-0.274
-212.509	-156.434	0.321	0.020
-211.494	16.371	-0.384	0.300
-210.479	43.825	0.253	0.230
-209.465	31.795	-0.595	0.508
-208.450	197.871	-0.413	0.625
-207.436	39.332	-0.141	0.125
-206.421	800.000	-0.077	-0.222
-205.406	-3.369	-0.515	0.355
-204.392	-34.576	0.600	-0.325
-203.377	324.411	0.377	-0.713
-202.363	-200.000	-0.014	-0.316
-201.348	-143.021	-0.022	-0.002
-200.333	488.647	0.438	-0.990
-199.319	800.000	0.193	-0.661
-198.304	-86.222	-0.275	-0.084
-197.290	252.411	-0.340	-0.575
-196.275	14.209	0.452	0.349
-195.260	-13.117	-0.281	0.181
-194.246	129.013	0.133	-0.168
-193.231	175.210	-0.407	-0.584
-192.217	-103.629	1.016	-0.236
-191.202	800.000	0.131	0.436
-190.187	800.000	0.289	0.930
-189.173	-200.000	-0.074	0.346
-188.158	-118.529	-0.622	-0.109
-187.144	122.910	0.351	0.435
-186.129	83.362	0.723	-0.780
-185.114	92.366	0.238	0.266
-184.100	352.743	0.219	-0.429
-183.085	171.762	-0.220	-0.312
-182.071	130.835	-0.209	-0.266
-181.056	95.531	0.329	-0.371
-180.042	63.377	-0.452	-0.449
-179.027	-81.212	-0.371	-0.121
-178.012	7.461	0.688	0.509
-176.998	96.320	0.295	-0.333
-175.983	347.517	-0.093	0.181
-174.969	38.760	-0.670	-0.592
-173.954	96.403	-0.443	-0.501
-172.939	-200.000	-0.025	-0.206
-171.925	-200.000	0.121	-0.890
-170.910	-200.000	-0.034	0.169
-169.896	-48.629	-0.583	0.277
-168.881	-4.474	-0.339	0.232
-167.866	690.909	-0.205	0.532
-166.852	-200.000	-0.015	-0.179
-165.837	-100.543	0.634	0.155
-164.823	-200.000	-0.122	-0.552
-163.808	-121.269	-0.992	0.164
-162.793	419.108	0.294	-0.621
-161.779	800.000	0.206	-0.645
-160.764	496.501	0.223	0.507
-159.750	79.872	-0.041	-0.044
-158.735	-28.756	0.738	-0.420
-157.720	149.553	0.368	0.493
-156.706	-200.000	0.002	0.863
-155.691	98.901	0.716	0.817
-154.677	-200.000	0.005	0.262
-153.662	148.885	-0.419	-0.560
-152.647	49.339	0.699	-0.650
-151.633	65.224	0.415	-0.414
-150.618	-200.000	-0.089	-0.410
-149.604	800.000	0.221	-0.724
-148.589	-164.895	-0.400	-0.018
-147.574	31.477	0.313	0.266
-146.560	-200.000	-0.024	0.323
-145.545	309.805	-0.117	-0.217
-144.531	136.516	0.321	0.413
-143.516	166.145	0.140	-0.196
-142.502	10.133	0.261	-0.196
-141.487	-200.000	0.005	0.190
-140.472	51.212	0.484	-0.454
-139.458	-26.951	-0.317	-0.183
-138.443	-38.226	-0.763	-0.399
-137.429	651.675	0.274	0.692
-136.414	747.043	-0.119	-0.316
-135.399	162.023	-0.218	-0.302
-134.385	10.545	-0.414	0.312
-133.370	-111.254	1.214	-0.245
-132.356	24.333	-0.846	-0.691
-131.341	-200.000	-0.014	-0.624
-130.326	-88.475	0.484	-0.142
-129.312	-200.000	0.055	-0.541
-128.297	-200.000	-0.116	0.630
-127.283	-154.255	-1.116	-0.074
-126.268	-28.228	-0.281	-0.161
-125.253	437.622	0.331	-0.712
-124.239	465.404	0.186	-0.411
-123.224	753.122	0.112	-0.299
-122.210	116.952	-0.215	-0.260
-121.195	-113.184	0.654	-0.127
-120.180	-136.707	-0.184	0.021
-119.166	347.523	0.238	0.463
-118.151	-76.547	0.509	0.176
-117.137	-200.000	-0.018	0.886
-116.122	76.088	-0.220	0.229
-115.107	68.959	-0.390	0.396
-114.093	204.698	0.055	-0.084
-113.078	209.892	-0.266	0.412
-112.064	-89.292	-0.852	-0.248
-111.049	17.306	-0.552	0.432
-110.034	67.849	0.091	-0.092
-109.020	-109.534	-0.197	0.041
-108.005	-200.000	-0.101	0.473
-106.991	-200.000	-0.112	0.785
-105.976	800.000	0.087	0.364
-104.962	364.630	-0.502	-0.997
-103.947	-200.000	0.033	-0.451
-102.932	343.922	0.140	-0.271
-101.918	3.610	0.486	0.349
-100.903	744.312	0.302	0.800
-99.889	-73.214	-0.202	0.073
-98.874	-7.391	0.424	0.283
-97.859	-200.000	0.015	0.163
-96.845	178.240	-0.159	0.229
-95.830	618.430	0.255	-0.633
-94.816	800.000	0.184	0.523
-93.801	106.196	0.563	-0.658
-92.786	-131.213	-0.289	-0.038
-91.772	-179.231	0.525	0.012
-90.757	724.484	-0.090	-0.237
-89.743	-200.000	-0.109	0.658
-88.728	-200.000	0.012	-0.589
-87.713	-122.304	0.352	0.057
-86.699	-18.309	0.185	0.114
-85.684	279.639	0.301	-0.530
-84.670	-113.162	-0.087	0.017
-83.655	-200.000	0.003	-0.333
-82.640	-58.253	0.603	0.259
-81.626	-28.385	0.291	-0.166
-80.611	57.990	-0.565	-0.545
-79.597	63.769	-0.714	-0.707
-78.582	554.134	-0.184	0.436
-77.567	-200.000	-0.013	-0.895
-76.553	-165.525	-0.232	0.010
-75.538	327.403	0.250	0.473
-74.524	-31.871	-0.593	-0.328
-73.509	-200.000	0.115	-0.576
-72.494	-70.212	0.261	-0.098
-71.480	415.521	-0.363	-0.763
-70.465	16.609	-0.348	-0.271
-69.451	-73.948	-0.396	-0.141
-68.436	130.396	-0.509	-0.643
-67.422	-37.660	0.668	-0.351
-66.407	184.886	-0.119	-0.173
-65.392	-66.404	-0.849	-0.332
-64.378	141.380	-0.245	0.319
-63.363	192.348	-0.377	0.561
-62.349	132.459	0.411	-0.522
-61.334	-25.365	-0.882	-0.514
-60.319	221.499	0.641	1.015
-59.305	-200.000	-0.120	-0.775
-58.290	383.150	0.720	1.459
-57.276	12.589	1.620	1.231
-56.261	-200.000	95.586	584.340
-55.246	667.568	1358.818	3459.045
-54.232	203.699	2519.144	3838.669
-53.217	119.450	2121.340	2585.464
-52.203	44.640	1593.416	1442.183
-51.188	36.132	1334.422	1156.944
-50.173	33.004	1292.287	1102.154
-49.159	56.414	1341.660	1283.837
-48.144	57.327	1358.724	1305.534
-47.130	36.281	1316.536	1142.136
-46.115	33.101	1299.344	1108.567
-45.100	32.617	1294.494	1101.553
-44.086	32.627	1291.704	1099.194
-43.071	32.468	1290.503	1097.203
-42.057	32.516	1287.098	1094.542
-41.042	32.563	1286.085	1093.913
-40.027	32.832	1283.963	1093.623
-39.013	32.507	1282.697	1090.619
-37.998	32.604	1281.387	1090.024
-36.984	32.602	1278.782	1087.751
-35.969	32.738	1277.513	1087.416
-34.954	32.576	1276.764	1085.798
-33.940	32.768	1274.750	1085.151
-32.925	33.149	1272.329	1085.233
-31.911	32.860	1271.284	1082.638
-30.896	32.772	1270.218	1081.183
-29.881	32.626	1267.940	1078.366
-28.867	33.073	1265.787	1079.046
-27.852	32.786	1266.156	1077.676
-26.838	32.828	1263.510	1075.625
-25.823	32.824	1263.010	1075.130
-24.809	33.004	1261.307	1074.665
-23.794	32.842	1260.061	1072.637
-22.779	32.908	1259.500	1072.493
-21.765	32.665	1257.446	1069.326
-20.750	32.621	1256.783	1068.468
-19.736	32.636	1255.786	1067.665
-18.721	32.464	1253.933	1065.070
-17.706	32.657	1252.992	1065.322
-16.692	32.490	1252.751	1064.133
-15.677	32.499	1250.490	1062.220
-14.663	32.570	1250.623	1062.691
-13.648	32.342	1249.879	1060.729
-12.633	32.504	1248.003	1060.009
-11.619	32.666	1246.500	1059.598
-10.604	32.689	1245.567	1058.895
-9.590	32.673	1244.902	1058.197
-8.575	32.394	1244.446	1056.200
-7.560	32.622	1243.083	1056.281
-6.546	32.892	1241.842	1056.696
-5.531	32.747	1241.551	1055.598
-4.517	32.681	1241.658	1055.274
-3.502	32.559	1239.495	1052.715
-2.487	32.693	1239.633	1053.537
-1.473	32.519	1234.934	1048.535
-0.458	30.844	1220.749	1027.221
0.556	28.345	1201.988	987.701
1.571	24.755	1206.316	971.704
2.586	23.489	1221.910	977.206
3.600	23.270	1209.635	966.109
4.615	17.055	1139.193	877.730
5.629	7.727	1062.613	773.460
6.644	3.460	1043.342	738.952
7.659	2.956	1040.230	734.276
8.673	2.931	1038.362	732.774
9.688	2.814	1037.821	731.767
10.702	3.189	1036.862	732.814
11.717	9.423	1044.053	767.646
12.731	18.974	1057.085	823.083
13.746	23.671	1064.267	851.178
14.761	24.506	1065.246	855.891
15.775	24.190	1064.147	853.417
16.790	24.086	1061.806	850.970
17.804	23.886	1061.995	850.090
18.819	23.942	1060.823	849.343
19.834	24.282	1060.379	850.537
20.848	24.150	1061.196	850.484
21.863	23.946	1059.991	848.472
22.877	23.752	1059.704	847.239
23.892	23.629	1059.096	846.092
24.907	23.726	1057.775	845.424
25.921	23.885	1056.501	845.087
26.936	23.723	1055.309	843.291
27.950	23.805	1053.165	841.889
28.965	23.601	1052.057	839.964
29.980	23.728	1050.856	839.531
30.994	23.994	1050.405	840.352
32.009	24.016	1048.717	839.031
33.023	23.999	1048.629	838.810
34.038	23.992	1046.011	836.606
35.053	23.604	1046.932	835.446
36.067	23.706	1044.470	833.885
37.082	23.820	1043.928	833.912
38.096	23.968	1044.343	834.863
39.111	23.919	1043.712	834.055
40.126	23.848	1041.838	832.151
41.140	23.777	1040.197	830.437
42.155	23.497	1038.832	827.965
43.169	23.377	1037.608	826.358
44.184	23.579	1036.495	826.342
45.199	23.495	1035.333	824.950
46.213	23.714	1034.736	825.420
47.228	24.035	1034.138	826.358
48.242	23.920	1034.646	826.156
49.257	23.904	1034.102	825.578
50.271	24.274	1032.750	826.139
51.286	24.164	1032.264	825.167
52.301	24.184	1030.420	823.714
53.315	23.981	1030.604	822.847
54.330	24.001	1028.744	821.384
55.344	23.923	1028.146	820.474
56.359	23.750	1027.546	819.122
57.374	23.617	1027.112	818.091
58.388	23.614	1026.490	817.509
59.403	23.542	1025.035	815.950
60.417	23.234	1024.772	814.251
61.432	23.909	1022.771	815.685
62.447	24.055	1022.059	815.714
63.461	23.500	1022.501	813.449
64.476	23.269	1021.458	811.489
65.490	23.679	1019.332	811.605
66.505	23.377	1019.912	810.614
67.520	23.301	1019.726	810.045
68.534	23.327	1018.894	809.432
69.549	23.030	1017.549	806.934
70.563	23.117	1015.709	805.804
71.578	22.833	1014.762	803.687
72.593	22.765	1012.807	801.758
73.607	22.751	1013.373	802.073
74.622	22.872	1013.910	802.977
75.636	22.998	1013.566	803.205
76.651	22.867	1012.670	801.829
77.666	23.581	1010.434	803.221
78.680	23.274	1010.493	801.810
79.695	23.008	1009.496	799.743
80.709	23.120	1010.458	800.941
81.724	23.140	1009.199	799.962
82.739	23.349	1008.360	800.172
83.753	23.517	1008.588	801.039
84.768	24.302	1007.637	803.753
85.782	24.314	1006.628	802.929
86.797	24.410	1005.811	802.642
87.812	24.386	1004.343	801.291
88.826	24.038	1004.628	799.881
89.841	24.048	1003.456	798.925
90.855	24.320	1001.279	798.339
91.870	24.111	1001.481	797.491
92.884	23.984	1000.643	796.185
93.899	24.347	999.888	797.137
94.914	24.336	998.202	795.674
95.928	24.048	997.741	793.951
96.943	23.646	997.847	792.174
97.957	23.732	995.849	790.901
98.972	24.098	994.374	791.285
99.987	23.552	994.958	789.252
101.001	24.024	993.192	789.877
102.016	24.074	992.253	789.282
103.030	23.982	992.082	788.669
104.045	24.117	991.572	788.789
105.060	23.936	990.004	786.675
106.074	23.988	988.873	785.933
107.089	23.952	987.174	784.354
108.103	23.417	987.598	782.261
109.118	23.247	985.570	779.840
110.133	23.297	984.751	779.342
111.147	23.045	983.977	777.550
112.162	22.951	983.369	776.587
113.176	23.110	982.930	776.872
114.191	23.219	982.232	776.732
115.206	23.300	979.832	775.119
116.220	23.053	980.270	774.316
117.235	23.507	978.880	775.133
118.249	23.233	978.272	773.387
119.264	22.898	977.437	771.194
120.279	22.934	976.121	770.246
121.293	22.877	975.821	769.693
122.308	23.084	974.431	769.427
123.322	22.808	973.004	767.036
124.337	23.124	972.245	767.740
125.352	22.869	970.986	765.574
126.366	22.732	970.789	764.756
127.381	23.390	969.489	766.511
128.395	23.306	969.564	766.139
129.410	23.396	969.091	766.087
130.424	23.559	967.868	765.756
131.439	23.700	967.442	765.958
132.454	23.856	966.694	765.973
133.468	23.337	965.121	762.426
134.483	23.718	964.653	763.626
135.497	23.973	964.469	764.509
136.512	23.891	962.978	762.907
137.527	23.892	961.425	761.612
138.541	23.805	961.368	761.128
139.556	24.133	960.545	761.813
140.570	23.946	960.475	760.889
141.585	24.223	959.577	761.295
142.600	24.302	959.137	761.214
143.614	24.270	958.353	760.390
144.629	24.259	957.666	759.732
145.643	24.292	955.939	758.432
146.658	23.886	954.502	755.501
147.673	23.687	953.637	753.903
148.687	23.645	952.892	753.069
149.702	23.926	951.205	752.863
150.716	23.586	950.301	750.642
151.731	23.894	950.177	751.778
152.746	24.030	949.456	751.718
153.760	24.395	948.182	752.181
154.775	24.400	947.839	751.862
155.789	24.263	948.190	751.497
156.804	23.866	947.374	749.111
157.819	24.202	946.000	749.371
158.833	24.255	946.285	749.755
159.848	24.139	944.556	747.831
160.862	24.420	943.736	748.293
161.877	23.679	943.311	744.785
162.892	23.902	941.705	744.385
163.906	23.972	940.016	743.277
164.921	24.019	939.092	742.674
165.935	23.737	940.249	742.348
166.950	24.088	938.364	742.258
167.964	24.099	937.068	741.212
168.979	24.127	935.097	739.703
169.994	23.899	935.274	738.829
171.008	23.829	934.269	737.682
172.023	24.414	933.638	739.542
173.037	24.601	933.146	739.861
174.052	24.054	932.689	737.169
175.067	23.784	931.693	735.199
176.081	23.884	930.188	734.359
177.096	23.402	930.538	732.581
178.110	23.607	929.062	732.197
179.125	23.445	929.138	731.527
180.140	23.523	928.758	731.484
181.154	23.672	928.201	731.592
182.169	24.027	928.721	733.400
183.183	24.248	927.646	733.396
184.198	24.049	927.072	732.062
185.213	24.065	926.492	731.602
186.227	24.180	925.258	731.038
187.242	24.198	924.591	730.518
188.256	24.646	924.221	731.997
189.271	24.403	924.562	731.207
190.286	23.876	922.196	727.117
191.300	23.301	921.015	723.770
192.315	22.975	920.661	722.098
193.329	23.114	920.755	722.677
194.344	23.349	920.359	723.260
195.359	24.101	918.966	725.164
196.373	24.098	919.799	725.746
197.388	24.176	919.447	725.723
198.402	24.466	918.353	725.971
199.417	24.432	918.666	726.018
200.432	24.744	917.320	726.158
201.446	24.332	917.997	724.955
202.461	24.388	916.360	723.825
203.475	24.211	914.950	721.930
204.490	23.665	913.844	718.785
205.504	23.787	913.151	718.668
206.519	24.199	912.486	719.745
207.534	24.268	912.325	719.833
208.548	24.243	911.976	719.393
209.563	24.272	911.495	719.067
210.577	23.996	911.538	717.924
211.592	24.647	910.394	719.584
212.607	24.649	909.872	719.116
213.621	24.661	908.750	718.211
214.636	24.588	907.255	716.673
215.650	24.104	908.177	715.397
216.665	24.478	907.093	715.980
217.680	24.761	905.964	716.157
218.694	24.382	906.176	714.745
219.709	24.209	904.915	712.995
220.723	24.136	903.674	711.660
221.738	24.115	903.346	711.254
222.753	23.915	903.391	710.429
223.767	23.920	903.349	710.353
224.782	24.797	901.763	712.540
225.796	24.452	902.855	711.960
226.811	24.476	900.814	710.384
227.826	23.766	900.126	706.955
228.840	23.704	899.200	705.922
229.855	23.868	898.513	705.970
230.869	23.926	898.375	706.028
231.884	23.920	896.520	704.484
232.899	23.973	897.727	705.579
233.913	23.847	896.701	704.212
234.928	23.741	895.739	702.974
235.942	23.721	894.615	701.953
236.957	23.882	893.767	701.861
237.972	23.502	893.709	700.253
238.986	23.686	893.253	700.559
240.001	23.792	891.717	699.711
241.015	23.341	892.019	698.109
242.030	23.976	890.896	699.667
243.045	23.951	891.331	699.848
244.059	24.354	890.075	700.384
245.074	24.088	890.543	699.644
246.088	24.320	889.567	699.724
247.103	24.405	888.290	698.991
248.117	24.627	888.158	699.697
249.132	25.436	888.014	702.684
250.147	25.356	888.366	702.587
251.161	25.456	887.217	702.009
252.176	25.352	887.497	701.760
253.190	25.128	886.587	700.104
254.205	25.250	885.396	699.577
255.220	24.988	884.595	697.862
256.234	24.850	884.783	697.413
257.249	25.221	883.773	697.997
258.263	25.194	882.471	696.802
259.278	25.087	882.147	696.070
260.293	25.183	881.077	695.537
261.307	25.264	881.583	696.187
262.322	25.454	880.229	695.792
263.336	24.925	880.710	694.063
264.351	24.558	879.348	691.506
265.366	24.905	877.980	691.710
266.380	24.868	878.817	692.167
267.395	25.167	877.313	692.074
268.409	25.260	875.676	691.081
269.424	24.933	875.840	689.889
270.439	25.194	874.783	690.001
271.453	24.676	875.321	688.369
272.468	24.889	874.640	688.592
273.482	25.034	874.750	689.174
274.497	25.131	873.237	688.295
275.512	24.982	872.403	687.003
276.526	24.730	871.973	685.639
277.541	24.904	871.572	685.929
278.555	24.920	871.704	686.033
279.570	25.299	871.344	687.143
280.585	25.386	869.884	686.261
281.599	25.304	868.571	684.851
282.614	25.034	867.314	682.771
283.628	24.316	867.869	680.408
284.643	24.763	867.705	681.925
285.657	24.795	866.111	680.733
286.672	24.848	866.123	680.886
287.687	24.716	865.676	679.972
288.701	24.889	864.461	679.615
289.716	24.843	864.522	679.427
290.730	25.311	863.210	680.107
291.745	24.858	863.049	678.206
292.760	25.093	862.242	678.400
293.774	25.191	862.782	679.135
294.789	25.402	862.201	679.417
295.803	25.070	860.828	677.022
296.818	24.744	860.427	675.415
297.833	24.707	859.556	674.534
298.847	24.884	859.722	675.271
299.862	25.046	858.634	674.967
300.876	25.179	859.016	675.706
301.891	25.708	857.861	676.730
302.906	25.460	856.609	674.751
303.920	25.647	856.983	675.689
304.935	25.955	856.113	676.098
305.949	25.609	854.828	673.727
306.964	25.149	854.920	672.019
307.979	24.651	855.008	670.159
308.993	25.210	853.614	671.100
310.008	25.542	853.254	671.999
311.022	25.353	852.866	670.925
312.037	24.616	852.732	668.009
313.052	25.075	850.607	667.997
314.066	24.571	849.786	665.415
315.081	24.623	849.643	665.436
316.095	24.800	849.009	665.539
317.110	25.012	848.518	665.885
318.125	24.548	847.604	663.386
319.139	24.438	847.098	662.522
320.154	24.140	846.872	661.181
321.168	24.489	846.888	662.431
322.183	24.977	845.263	662.906
323.197	24.983	844.923	662.604
324.212	24.854	845.078	662.192
325.227	24.834	843.619	660.916
326.241	24.592	843.990	660.251
327.256	25.075	842.015	660.429
328.270	24.703	842.626	659.479
329.285	24.571	841.620	658.148
330.300	24.707	840.612	657.801
331.314	24.819	840.009	657.680
332.329	24.850	841.190	658.664
333.343	25.198	839.900	658.872
334.358	25.305	840.306	659.524
335.373	24.904	840.162	657.881
336.387	25.138	840.464	658.918
337.402	25.271	839.640	658.704
338.416	25.479	840.626	660.182
339.431	25.818	840.074	660.935
340.446	25.951	839.297	660.753
341.460	25.655	838.485	658.969
342.475	25.956	838.330	659.892
343.489	25.644	837.313	657.893
344.504	26.240	837.242	659.955
345.519	26.007	837.719	659.423
346.533	25.967	835.970	657.841
347.548	25.776	836.146	657.224
348.562	25.567	835.858	656.177
349.577	25.594	835.118	655.639
350.592	25.349	832.937	652.977
351.606	25.266	832.423	652.212
352.621	25.107	832.242	651.436
353.635	25.116	831.214	650.607
354.650	25.384	830.779	651.181
355.665	24.902	830.266	648.974
356.679	25.171	829.270	649.111
357.694	25.719	827.445	649.606
358.708	25.519	827.004	648.479
359.723	25.335	826.962	647.724
360.738	25.262	826.834	647.304
361.752	25.630	825.227	647.312
362.767	25.853	826.007	648.672
363.781	25.978	825.694	648.818
364.796	25.960	825.406	648.470
365.810	26.458	824.937	649.832
366.825	25.978	824.467	647.680
367.840	26.329	823.202	647.891
368.854	25.451	823.297	644.758
369.869	25.410	823.064	644.369
370.883	26.001	821.514	645.217
371.898	26.310	820.655	645.589
372.913	26.057	821.160	645.022
373.927	25.440	821.601	643.104
374.942	25.830	819.846	643.066
375.956	25.968	820.160	643.748
376.971	26.084	819.335	643.459
377.986	25.924	819.091	642.641
379.000	26.335	818.372	643.481
380.015	26.245	818.073	642.869
381.029	26.080	817.833	642.037
382.044	26.322	817.098	642.264
383.059	26.576	816.875	642.932
384.073	26.370	815.651	641.184
385.088	25.764	815.028	638.488
386.102	25.446	814.015	636.512
387.117	25.561	813.401	636.383
388.132	25.698	812.907	636.425
389.146	25.439	811.883	634.650
390.161	25.907	812.023	636.359
391.175	26.247	812.055	637.525
392.190	26.193	811.020	636.466
393.205	25.528	810.260	633.472
394.219	24.714	809.780	630.174
395.234	24.361	810.138	629.152
396.248	24.664	809.988	630.047
397.263	25.388	808.595	631.455
398.278	25.017	807.956	629.598
399.292	24.898	807.518	628.782
400.307	25.081	806.598	628.649
401.321	25.400	806.087	629.314
402.336	25.404	805.755	629.015
403.350	25.959	806.805	631.723
404.365	26.336	806.143	632.469
405.380	26.478	806.367	633.084
406.394	26.166	806.176	631.788
407.409	26.754	804.941	632.817
408.423	26.775	804.997	632.880
409.438	26.529	804.834	631.834
410.453	26.672	804.104	631.704
411.467	26.171	803.153	629.158
412.482	26.445	802.577	629.604
413.496	26.410	801.963	628.946
414.511	26.060	802.825	628.345
415.526	26.103	801.088	627.081
416.540	26.350	800.749	627.616
417.555	26.472	801.029	628.206
418.569	25.960	801.331	626.609
419.584	26.500	799.857	627.272
420.599	26.266	799.645	626.239
421.613	160.515	1370.202	1792.263
422.628	139.339	1453.298	1792.345
