DTS Sentinel unit serial number:	SN413079Multiplexer serial number:	ORYXHardware model number:	OX4-SRSoftware version number:	ORYX F/W v4.00 Oryx Data Collector v3.7.2.0data status	okinstallation	princeton_trtdifferential loss correction	single-endedforward channel	channel 1reverse channel	N/Adate	2019/09/18time	19:38:35forward acquisition time	60.00reverse acquisition time	0.00gamma	496.2192k internal	0.2325k external	0.2325temperature offset calibration	1.0033default loss term (dB/km)	0.3790temperature slope calibration	1.0000multiplexer offset coefficient	1.0000multiplexer slope coefficient	1.0000fibre end	0.00T internal ref (°C)	32.11T ext. ref 1 (°C)	1.08T ext. ref 2 (°C)	22.46length (m)	temperature (°C)	Stokes	anti-Stokes-747.200	795.054	0.035	0.098
-746.185	367.533	-0.123	-0.250
-745.171	-200.000	-0.015	-0.128
-744.156	-49.105	0.306	-0.148
-743.142	-200.000	0.001	0.110
-742.127	-86.818	0.256	0.079
-741.112	800.000	0.043	-0.180
-740.098	289.813	-0.120	0.219
-739.083	-146.077	0.100	-0.009
-738.069	95.762	0.116	0.134
-737.054	800.000	-0.028	-0.109
-736.039	214.067	0.111	-0.177
-735.025	-200.000	0.011	0.226
-734.010	87.494	-0.149	-0.166
-732.996	575.727	0.080	-0.198
-731.981	-116.224	-0.309	0.058
-730.966	623.045	0.039	-0.098
-729.952	-140.931	0.109	0.011
-728.937	38.594	-0.116	-0.104
-727.923	800.000	-0.099	-0.292
-726.908	-30.814	-0.167	-0.095
-725.894	92.760	0.046	0.052
-724.879	77.659	-0.247	-0.265
-723.864	590.119	-0.061	0.152
-722.850	53.914	0.146	-0.141
-721.835	-89.603	0.183	0.054
-720.821	538.745	-0.063	0.150
-719.806	800.000	0.015	-0.058
-718.791	1.631	-0.137	-0.099
-717.777	-200.000	0.006	0.178
-716.762	-200.000	-0.031	-0.198
-715.748	-121.087	-0.241	0.041
-714.733	800.000	-0.033	0.145
-713.718	172.967	0.329	0.478
-712.704	-72.671	-0.179	-0.067
-711.689	98.550	-0.143	0.166
-710.675	-194.002	-0.125	0.001
-709.660	-200.000	0.037	-0.287
-708.645	-45.474	-0.242	0.121
-707.631	58.365	0.154	0.152
-706.616	-39.346	0.284	-0.150
-705.602	-200.000	-0.083	-0.371
-704.587	-150.605	0.314	-0.024
-703.572	-134.784	-0.218	0.027
-702.558	-32.327	-0.320	-0.180
-701.543	147.587	0.152	-0.207
-700.529	555.551	-0.056	-0.137
-699.514	573.518	-0.033	-0.080
-698.499	260.434	-0.121	-0.211
-697.485	243.145	0.079	-0.134
-696.470	-58.349	-0.334	-0.146
-695.456	-200.000	-0.049	0.269
-694.441	20.719	0.180	0.147
-693.426	-42.800	0.204	0.105
-692.412	-200.000	-0.006	-0.056
-691.397	800.000	-0.095	-0.319
-690.383	-89.185	-0.268	-0.080
-689.368	31.915	-0.086	0.075
-688.354	133.783	-0.096	-0.125
-687.339	308.488	0.125	0.234
-686.324	-82.130	-0.331	0.109
-685.310	-149.169	-0.148	-0.012
-684.295	675.044	-0.116	0.303
-683.281	151.517	-0.207	0.284
-682.266	-121.046	-0.198	0.033
-681.251	-13.575	-0.101	-0.066
-680.237	800.000	0.038	0.128
-679.222	-200.000	0.007	-0.205
-678.208	28.913	-0.046	0.039
-677.193	293.915	0.094	-0.173
-676.178	776.274	0.087	-0.239
-675.164	106.579	0.112	-0.134
-674.149	800.000	0.060	-0.167
-673.135	-200.000	0.018	0.129
-672.120	-46.232	0.187	-0.093
-671.105	-200.000	0.016	0.141
-670.091	-41.579	-0.089	-0.046
-669.076	-29.950	-0.041	-0.024
-668.062	800.000	0.029	0.122
-667.047	-77.472	-0.226	-0.079
-666.032	-62.497	-0.217	-0.091
-665.018	12.589	0.200	0.155
-664.003	800.000	0.051	-0.203
-662.989	-112.040	0.180	-0.036
-661.974	-200.000	-0.044	-0.273
-660.959	-200.000	-0.001	0.166
-659.945	-125.114	-0.259	-0.040
-658.930	660.765	-0.025	-0.065
-657.916	685.152	0.061	-0.160
-656.901	21.849	-0.157	-0.128
-655.886	-107.921	0.336	0.073
-654.872	-71.730	0.091	-0.034
-653.857	-20.745	0.076	-0.047
-652.843	-200.000	-0.010	-0.093
-651.828	800.000	-0.078	-0.227
-650.814	-43.943	-0.115	0.058
-649.799	-46.488	-0.225	0.111
-648.784	800.000	0.012	0.038
-647.770	-200.000	0.019	0.509
-646.755	-200.000	-0.005	0.265
-645.741	-71.419	0.451	-0.170
-644.726	-200.000	-0.020	-0.155
-643.711	-200.000	-0.076	-0.384
-642.697	93.045	0.057	0.064
-641.682	63.690	-0.155	-0.156
-640.668	218.760	0.144	-0.231
-639.653	-200.000	0.009	0.208
-638.638	302.092	-0.092	0.172
-637.624	-54.571	-0.273	-0.124
-636.609	1.568	0.091	0.066
-635.595	-200.000	0.000	0.038
-634.580	19.281	0.282	-0.227
-633.565	-140.684	0.076	-0.008
-632.551	-21.470	-0.136	0.083
-631.536	-90.811	-0.220	0.064
-630.522	-56.849	-0.124	0.055
-629.507	-44.848	0.133	-0.066
-628.492	42.265	0.171	-0.156
-627.478	-200.000	0.019	0.118
-626.463	-120.488	0.302	0.051
-625.449	288.251	-0.294	0.534
-624.434	729.057	0.025	-0.067
-623.419	-41.135	0.410	-0.213
-622.405	-65.872	-0.185	0.074
-621.390	-102.534	-0.297	-0.071
-620.376	91.982	-0.064	-0.073
-619.361	-74.663	-0.079	-0.029
-618.346	-200.000	-0.054	-0.251
-617.332	800.000	0.048	-0.170
-616.317	34.546	0.158	-0.138
-615.303	-56.937	-0.299	-0.132
-614.288	-3.889	0.126	-0.088
-613.273	-42.012	-0.142	0.073
-612.259	256.898	0.037	-0.063
-611.244	91.924	0.239	0.270
-610.230	0.183	-0.185	0.132
-609.215	-31.300	-0.266	0.151
-608.201	32.842	-0.123	0.106
-607.186	160.114	0.172	-0.240
-606.171	14.681	0.211	0.166
-605.157	800.000	0.056	0.180
-604.142	-44.856	0.168	0.084
-603.128	791.208	0.031	-0.086
-602.113	-3.739	0.175	-0.122
-601.098	0.250	-0.120	-0.086
-600.084	-200.000	0.001	-0.305
-599.069	228.430	-0.123	-0.201
-598.055	-26.788	0.139	0.082
-597.040	53.802	0.043	0.042
-596.025	-48.474	-0.188	-0.091
-595.011	-119.762	0.252	-0.044
-593.996	-200.000	-0.050	0.469
-592.982	-71.736	-0.179	0.067
-591.967	89.443	-0.098	0.109
-590.952	154.555	0.155	0.213
-589.938	85.984	-0.205	-0.227
-588.923	-200.000	0.005	-0.039
-587.909	-200.000	0.027	-0.272
-586.894	800.000	0.027	-0.087
-585.879	275.417	-0.086	0.153
-584.865	-200.000	0.047	-0.239
-583.850	20.148	-0.077	0.062
-582.836	316.096	0.062	0.118
-581.821	308.985	-0.075	0.141
-580.806	-100.536	-0.149	-0.037
-579.792	-86.017	-0.322	0.100
-578.777	-64.099	-0.193	-0.079
-577.763	800.000	0.065	-0.188
-576.748	58.947	-0.170	-0.168
-575.733	435.226	-0.131	0.286
-574.719	-68.104	0.119	0.046
-573.704	-200.000	0.049	-0.227
-572.690	130.933	-0.369	-0.475
-571.675	271.051	-0.169	0.298
-570.661	-88.930	-0.088	0.026
-569.646	-200.000	0.008	0.088
-568.631	250.348	0.164	0.280
-567.617	-79.429	0.159	-0.054
-566.602	-49.152	0.030	0.015
-565.588	22.168	-0.171	-0.140
-564.573	314.442	-0.070	-0.133
-563.558	-116.439	0.159	0.030
-562.544	23.007	0.184	0.151
-561.529	68.496	-0.182	-0.187
-560.515	192.230	0.227	-0.343
-559.500	-107.416	0.167	0.037
-558.485	640.147	0.022	-0.057
-557.471	-200.000	-0.020	0.337
-556.456	-142.567	0.319	0.031
-555.442	193.347	-0.169	-0.257
-554.427	-64.625	-0.116	0.047
-553.412	800.000	-0.008	0.032
-552.398	-200.000	-0.009	0.049
-551.383	-66.190	0.298	0.119
-550.369	-112.593	-0.319	0.064
-549.354	800.000	-0.062	0.253
-548.339	-142.725	0.404	-0.039
-547.325	327.914	0.094	-0.181
-546.310	590.731	-0.113	0.279
-545.296	437.834	0.119	-0.259
-544.281	627.019	0.064	-0.162
-543.266	539.319	0.101	-0.239
-542.252	-34.892	0.167	0.091
-541.237	-18.681	-0.147	0.092
-540.223	-149.588	0.321	-0.025
-539.208	-49.747	-0.213	0.101
-538.193	-200.000	0.000	0.171
-537.179	-31.293	0.040	0.023
-536.164	800.000	-0.074	0.297
-535.150	30.092	0.135	-0.115
-534.135	-200.000	0.024	-0.257
-533.121	158.969	0.140	0.195
-532.106	-200.000	-0.014	0.169
-531.091	642.095	0.065	-0.167
-530.077	-130.449	-0.484	-0.065
-529.062	152.262	0.090	0.122
-528.048	800.000	-0.096	0.369
-527.033	-200.000	-0.075	0.432
-526.018	800.000	0.049	0.185
-525.004	534.603	0.155	-0.367
-523.989	800.000	0.045	-0.143
-522.975	-200.000	-0.015	-0.085
-521.960	483.239	-0.127	0.290
-520.945	115.739	-0.156	0.191
-519.931	-64.499	-0.238	0.097
-518.916	-200.000	-0.021	-0.147
-517.902	69.907	-0.093	0.096
-516.887	-153.983	-0.426	-0.029
-515.872	800.000	0.015	0.049
-514.858	-12.208	-0.242	0.158
-513.843	-117.472	0.091	-0.016
-512.829	92.711	0.109	-0.123
-511.814	45.393	-0.095	-0.087
-510.799	-72.156	0.386	-0.143
-509.785	-200.000	0.022	0.106
-508.770	-48.437	0.241	-0.116
-507.756	-200.000	-0.078	0.351
-506.741	485.670	-0.082	0.187
-505.726	124.007	0.208	0.261
-504.712	469.042	0.116	-0.261
-503.697	-26.023	0.173	0.101
-502.683	-20.694	-0.201	0.123
-501.668	-74.321	-0.400	0.145
-500.653	-121.119	0.179	-0.030
-499.639	800.000	-0.025	-0.104
-498.624	112.140	-0.131	-0.158
-497.610	-127.221	0.236	0.034
-496.595	72.091	-0.147	0.153
-495.581	800.000	0.101	0.373
-494.566	487.083	-0.104	-0.238
-493.551	105.912	-0.170	-0.201
-492.537	800.000	0.054	-0.157
-491.522	341.014	0.071	0.138
-490.508	-72.497	-0.091	-0.034
-489.493	-72.265	-0.103	0.038
-488.478	75.367	0.194	-0.204
-487.464	-68.523	0.284	0.110
-486.449	-82.535	-0.158	0.051
-485.435	-74.499	0.148	0.053
-484.420	157.643	-0.118	-0.164
-483.405	-154.613	0.453	0.030
-482.391	-156.038	-0.291	0.018
-481.376	38.152	-0.219	-0.195
-480.362	5.523	0.242	0.178
-479.347	-78.608	0.143	-0.049
-478.332	-64.065	-0.079	-0.032
-477.318	25.852	0.171	0.143
-476.303	-41.063	-0.116	-0.060
-475.289	-200.000	-0.033	0.239
-474.274	144.713	0.010	0.013
-473.259	80.837	0.070	-0.076
-472.245	135.292	0.241	-0.313
-471.230	-122.895	-0.319	0.051
-470.216	415.114	0.071	-0.150
-469.201	14.345	-0.272	-0.212
-468.186	474.461	0.112	0.253
-467.172	-123.164	-0.166	0.027
-466.157	384.065	0.138	-0.283
-465.143	376.591	0.106	-0.216
-464.128	14.916	-0.132	-0.103
-463.113	-200.000	0.007	-0.449
-462.099	194.642	-0.019	-0.029
-461.084	114.391	-0.110	-0.133
-460.070	7.032	0.176	-0.131
-459.055	-200.000	-0.010	0.060
-458.040	425.784	0.111	0.239
-457.026	80.201	-0.240	-0.258
-456.011	120.694	0.101	0.125
-454.997	800.000	-0.097	0.352
-453.982	354.614	0.167	0.330
-452.968	179.878	0.192	0.280
-451.953	538.285	0.086	-0.204
-450.938	-200.000	0.079	-0.438
-449.924	800.000	-0.085	0.296
-448.909	-71.574	-0.109	-0.041
-447.895	-200.000	-0.039	-0.262
-446.880	-200.000	0.011	0.076
-445.865	800.000	0.060	0.191
-444.851	263.408	-0.114	-0.198
-443.836	-200.000	0.019	-0.293
-442.822	10.655	0.119	0.090
-441.807	285.446	-0.066	-0.119
-440.792	-200.000	-0.051	0.328
-439.778	141.449	0.058	0.077
-438.763	-43.298	-0.095	-0.048
-437.749	139.473	0.177	-0.232
-436.734	-128.617	0.227	-0.032
-435.719	-149.641	0.215	0.017
-434.705	-200.000	0.005	-0.192
-433.690	-109.998	-0.258	0.054
-432.676	56.167	0.049	-0.048
-431.661	-141.519	-0.457	0.046
-430.646	800.000	0.063	0.180
-429.632	73.595	-0.233	0.243
-428.617	-116.413	-0.277	-0.051
-427.603	-184.436	0.144	0.002
-426.588	-2.359	-0.099	-0.069
-425.573	-78.666	-0.237	-0.081
-424.559	-200.000	0.001	0.177
-423.544	800.000	0.072	-0.229
-422.530	-18.758	-0.345	0.214
-421.515	-139.609	-0.211	-0.022
-420.500	223.026	0.150	-0.240
-419.486	-120.591	0.132	0.022
-418.471	-92.145	0.087	-0.024
-417.457	-145.704	-0.223	0.020
-416.442	-138.048	0.197	-0.022
-415.428	-30.949	-0.226	-0.127
-414.413	800.000	0.076	0.243
-413.398	-123.309	0.143	0.023
-412.384	13.757	0.161	0.125
-411.369	-111.157	-0.065	0.013
-410.355	800.000	-0.129	0.451
-409.340	207.633	0.070	-0.109
-408.325	-6.839	-0.405	0.274
-407.311	-149.243	0.445	-0.035
-406.296	142.771	-0.182	0.241
-405.282	258.366	-0.132	-0.226
-404.267	148.000	0.096	-0.129
-403.252	-152.763	0.209	0.015
-402.238	760.657	0.115	-0.312
-401.223	674.331	-0.079	-0.203
-400.209	-200.000	-0.016	-0.241
-399.194	216.785	0.161	0.255
-398.179	800.000	-0.100	-0.324
-397.165	109.935	-0.129	-0.155
-396.150	125.353	0.225	0.282
-395.136	800.000	-0.076	-0.225
-394.121	193.601	-0.145	-0.219
-393.106	-200.000	-0.040	0.193
-392.092	241.312	-0.126	-0.209
-391.077	-200.000	-0.077	0.508
-390.063	431.813	0.059	0.128
-389.048	-187.364	0.130	0.002
-388.033	0.427	-0.312	-0.222
-387.019	-129.406	-0.156	0.021
-386.004	-200.000	0.001	0.017
-384.990	124.495	-0.173	-0.216
-383.975	737.376	-0.104	-0.277
-382.960	240.775	0.035	0.057
-381.946	-70.792	0.305	-0.114
-380.931	464.005	-0.080	0.179
-379.917	269.883	-0.198	0.345
-378.902	-50.040	-0.367	-0.173
-377.888	-28.456	-0.073	-0.042
-376.873	195.312	-0.031	-0.047
-375.858	26.438	-0.094	0.078
-374.844	676.749	-0.067	-0.174
-373.829	-51.721	0.115	-0.053
-372.815	-200.000	0.011	-0.299
-371.800	-4.241	-0.277	-0.191
-370.785	-63.353	-0.238	0.097
-369.771	-181.357	-0.296	0.006
-368.756	-192.899	0.153	-0.001
-367.742	-194.702	0.039	0.000
-366.727	306.404	-0.129	0.239
-365.712	246.796	0.201	0.337
-364.698	-56.741	0.101	0.044
-363.683	798.554	0.081	-0.222
-362.669	-200.000	-0.010	0.427
-361.654	800.000	-0.078	-0.262
-360.639	-107.230	-0.075	0.016
-359.625	-131.597	-0.342	-0.045
-358.610	432.120	-0.106	0.229
-357.596	432.875	0.105	-0.227
-356.581	-200.000	-0.035	-0.292
-355.566	66.245	0.136	-0.138
-354.552	19.726	0.328	-0.262
-353.537	-200.000	0.045	0.296
-352.523	-109.813	-0.454	-0.095
-351.508	800.000	-0.077	0.268
-350.493	92.345	-0.134	-0.150
-349.479	25.035	0.232	0.191
-348.464	-200.000	0.005	-0.084
-347.450	750.664	-0.098	-0.262
-346.435	-200.000	0.045	-0.355
-345.420	-194.299	0.184	-0.001
-344.406	-107.351	0.263	-0.057
-343.391	-200.000	-0.052	-0.287
-342.377	-97.193	-0.222	-0.058
-341.362	39.662	-0.104	0.092
-340.348	136.399	-0.037	-0.048
-339.333	800.000	0.074	-0.231
-338.318	800.000	0.079	0.256
-337.304	-152.465	-0.261	0.019
-336.289	800.000	-0.067	-0.233
-335.275	145.806	0.072	0.095
-334.260	311.371	0.023	-0.043
-333.245	-32.280	0.269	0.149
-332.231	27.632	-0.016	0.013
-331.216	-147.423	-0.380	-0.032
-330.202	404.119	0.056	-0.117
-329.187	-19.878	-0.078	-0.048
-328.172	-200.000	0.028	0.000
-327.158	4.788	0.267	-0.195
-326.143	-113.451	-0.166	-0.032
-325.129	76.465	-0.199	0.210
-324.114	-200.000	-0.039	0.000
-323.099	227.149	0.120	-0.193
-322.085	283.676	-0.208	-0.371
-321.070	-76.465	0.212	-0.074
-320.056	800.000	-0.056	0.173
-319.041	800.000	-0.102	-0.303
-318.026	-187.000	0.376	0.005
-317.012	391.630	0.068	-0.139
-315.997	314.897	0.131	-0.244
-314.983	179.337	0.075	0.109
-313.968	409.893	0.089	-0.187
-312.953	800.000	0.029	0.080
-311.939	114.595	0.291	0.352
-310.924	800.000	0.026	-0.095
-309.910	699.830	-0.122	0.318
-308.895	120.115	0.172	0.212
-307.880	-117.528	0.117	0.021
-306.866	-44.586	-0.108	0.054
-305.851	-200.000	0.059	0.366
-304.837	-77.262	0.195	-0.067
-303.822	52.656	-0.104	-0.098
-302.807	15.560	0.077	0.060
-301.793	-111.334	0.207	0.042
-300.778	-156.569	0.082	-0.005
-299.764	115.845	0.135	-0.164
-298.749	48.609	-0.154	0.143
-297.735	-69.863	-0.311	0.118
-296.720	800.000	-0.071	0.254
-295.705	-122.754	-0.091	-0.015
-294.691	-87.450	0.435	-0.131
-293.676	706.189	-0.117	0.307
-292.662	-156.197	-0.438	0.027
-291.647	-200.000	0.040	-0.201
-290.632	-57.767	0.022	0.010
-289.618	-22.119	-0.220	0.132
-288.603	578.742	0.144	0.350
-287.589	-200.000	-0.013	0.154
-286.574	-159.271	-0.131	0.007
-285.559	37.362	0.269	0.236
-284.545	29.781	0.280	-0.237
-283.530	613.487	-0.157	-0.390
-282.516	-199.583	0.204	0.001
-281.501	-200.000	-0.017	-0.151
-280.486	-50.694	0.254	0.119
-279.472	172.364	-0.119	0.169
-278.457	-200.000	-0.004	0.064
-277.443	-200.000	0.012	0.165
-276.428	-57.769	-0.171	-0.074
-275.413	-43.062	0.183	-0.092
-274.399	-71.592	-0.255	-0.094
-273.384	-162.881	0.343	-0.017
-272.370	-74.871	0.257	-0.091
-271.355	800.000	0.040	-0.133
-270.340	-36.118	0.060	-0.032
-269.326	164.965	-0.239	0.334
-268.311	-77.960	0.093	-0.032
-267.297	-83.639	0.371	0.117
-266.282	-77.958	0.283	-0.097
-265.267	-118.163	-0.244	0.043
-264.253	-200.000	-0.041	0.263
-263.238	800.000	0.048	0.190
-262.224	-19.489	-0.259	-0.159
-261.209	119.654	0.319	-0.391
-260.195	-156.983	0.101	0.006
-259.180	800.000	0.053	0.168
-258.165	-200.000	0.087	0.459
-257.151	-18.893	0.320	-0.197
-256.136	10.213	0.069	0.052
-255.122	207.165	0.050	0.077
-254.107	-200.000	0.013	-0.331
-253.092	-18.169	-0.030	0.019
-252.078	50.257	0.314	-0.294
-251.063	-3.476	0.201	0.138
-250.049	-141.203	-0.066	0.007
-249.034	-200.000	-0.007	0.218
-248.019	-75.872	0.165	-0.058
-247.005	184.238	-0.163	-0.239
-245.990	-200.000	0.004	-0.029
-244.976	109.553	0.109	0.130
-243.961	85.277	0.117	0.127
-242.946	635.007	-0.033	0.084
-241.932	-200.000	-0.016	-0.097
-240.917	731.895	0.090	-0.238
-239.903	800.000	-0.060	-0.204
-238.888	-122.516	-0.313	-0.050
-237.873	234.055	0.011	-0.018
-236.859	-7.933	-0.411	0.274
-235.844	18.232	0.122	-0.096
-234.830	-94.776	0.154	0.041
-233.815	177.097	-0.067	0.097
-232.800	253.035	0.197	0.333
-231.786	-200.000	-0.018	0.423
-230.771	-94.614	-0.198	0.053
-229.757	800.000	0.037	0.156
-228.742	-200.000	-0.005	0.269
-227.727	-62.271	0.136	-0.056
-226.713	-200.000	0.018	0.081
-225.698	-7.660	0.087	0.058
-224.684	49.631	0.083	0.077
-223.669	133.296	0.134	0.171
-222.655	242.339	0.045	-0.074
-221.640	193.685	-0.082	-0.122
-220.625	-200.000	-0.001	-0.148
-219.611	-200.000	0.030	-0.149
-218.596	298.250	-0.098	0.178
-217.582	-200.000	0.099	-0.456
-216.567	-50.229	0.161	0.075
-215.552	-121.637	0.168	-0.027
-214.538	-11.411	-0.105	0.069
-213.523	-200.000	0.025	-0.203
-212.509	-88.939	0.111	0.032
-211.494	86.614	0.268	-0.292
-210.479	-143.068	-0.152	0.015
-209.465	77.785	-0.134	-0.141
-208.450	35.007	-0.024	-0.021
-207.436	800.000	-0.065	-0.271
-206.421	95.514	0.176	-0.198
-205.406	79.913	-0.069	0.073
-204.392	232.487	0.158	0.257
-203.377	-200.000	0.011	-0.122
-202.363	80.870	0.087	-0.092
-201.348	-113.454	0.219	0.042
-200.333	-153.290	-0.018	-0.001
-199.319	522.845	-0.163	0.377
-198.304	-28.595	0.389	0.221
-197.290	-200.000	-0.018	-0.171
-196.275	-144.368	0.261	-0.024
-195.260	99.655	-0.157	0.180
-194.246	157.326	0.092	0.126
-193.231	-200.000	-0.011	0.146
-192.217	-200.000	0.011	0.208
-191.202	-25.900	0.200	-0.116
-190.187	295.359	-0.031	-0.055
-189.173	-200.000	-0.005	0.290
-188.158	332.687	-0.136	0.259
-187.144	-200.000	0.000	0.265
-186.129	-123.213	0.245	0.039
-185.114	52.463	0.112	0.106
-184.100	10.373	-0.077	0.058
-183.085	209.011	0.107	0.165
-182.071	-200.000	0.028	0.154
-181.056	38.738	-0.196	-0.173
-180.042	54.972	-0.229	0.218
-179.027	-200.000	-0.038	-0.410
-178.012	-9.160	-0.075	-0.050
-176.998	8.974	-0.276	-0.206
-175.983	155.541	-0.066	-0.090
-174.969	62.072	-0.096	-0.094
-173.954	724.653	-0.111	-0.292
-172.939	800.000	0.038	0.132
-171.925	-0.924	0.023	-0.016
-170.910	-200.000	0.014	0.228
-169.896	-61.461	0.061	-0.025
-168.881	-175.656	0.084	0.002
-167.866	-130.779	-0.022	0.003
-166.852	-72.739	0.172	0.063
-165.837	-200.000	0.097	0.537
-164.823	-106.376	0.310	0.068
-163.808	-200.000	0.011	-0.068
-162.793	-28.398	-0.046	0.026
-161.779	-200.000	-0.023	-0.152
-160.764	-91.208	-0.229	-0.065
-159.750	9.445	-0.205	-0.153
-158.735	-26.670	-0.412	-0.238
-157.720	316.237	-0.109	-0.203
-156.706	800.000	0.011	-0.033
-155.691	257.166	-0.193	-0.327
-154.677	62.763	-0.218	-0.215
-153.662	-200.000	-0.014	-0.204
-152.647	-57.035	0.119	-0.052
-151.633	-200.000	-0.056	0.322
-150.618	42.023	0.081	0.073
-149.604	-106.541	0.250	-0.055
-148.589	-53.283	0.125	0.056
-147.574	429.395	-0.016	-0.034
-146.560	-84.198	0.250	0.078
-145.545	-5.991	-0.062	0.042
-144.531	243.470	-0.150	0.248
-143.516	-100.219	0.273	0.067
-142.502	800.000	0.119	-0.359
-141.487	-74.611	0.216	0.077
-140.472	525.879	-0.044	-0.102
-139.458	26.299	0.129	-0.106
-138.443	-83.118	0.394	0.125
-137.429	800.000	0.049	0.213
-136.414	22.312	-0.050	-0.040
-135.399	-28.384	0.242	0.138
-134.385	615.980	0.038	-0.094
-133.370	17.975	0.124	-0.097
-132.356	318.569	0.071	-0.133
-131.341	76.595	-0.301	-0.315
-130.326	-121.927	0.124	0.020
-129.312	800.000	-0.035	0.098
-128.297	800.000	0.139	-0.481
-127.283	-116.085	-0.253	0.046
-126.268	-200.000	-0.010	-0.367
-125.253	800.000	-0.066	-0.251
-124.239	-95.697	0.218	-0.057
-123.224	-200.000	-0.020	-0.118
-122.210	315.474	0.148	0.274
-121.195	-12.323	-0.260	0.167
-120.180	-64.457	-0.182	-0.073
-119.166	-71.183	-0.165	0.061
-118.151	-22.806	0.025	0.015
-117.137	-200.000	0.008	0.102
-116.122	-128.561	-0.289	-0.040
-115.107	116.617	-0.149	0.180
-114.093	231.224	-0.123	0.199
-113.078	37.231	0.106	-0.093
-112.064	-76.774	-0.069	0.024
-111.049	-97.553	-0.248	-0.063
-110.034	-59.613	0.339	-0.143
-109.020	-170.132	-0.263	0.009
-108.005	-200.000	0.056	-0.250
-106.991	-22.171	-0.198	-0.118
-105.976	800.000	-0.097	0.341
-104.962	721.968	0.141	0.369
-103.947	-111.906	0.298	0.059
-102.932	800.000	-0.067	0.235
-101.918	-6.775	-0.320	0.214
-100.903	-200.000	0.014	0.258
-99.889	-32.492	0.555	0.304
-98.874	-200.000	0.035	-0.263
-97.859	69.130	0.083	-0.084
-96.845	-142.840	-0.281	-0.027
-95.830	-144.242	0.199	0.018
-94.816	30.816	-0.037	0.031
-93.801	-53.065	-0.036	0.016
-92.786	800.000	-0.077	-0.308
-91.772	324.307	0.087	-0.163
-90.757	49.341	0.263	-0.243
-89.743	-200.000	-0.010	-0.079
-88.728	-91.751	0.326	0.091
-87.713	-60.496	-0.177	-0.074
-86.699	800.000	-0.044	-0.171
-85.684	-26.199	0.451	0.260
-84.670	-65.669	0.205	-0.081
-83.655	635.943	0.022	-0.054
-82.640	-13.932	0.374	-0.238
-81.626	800.000	-0.099	-0.396
-80.611	-122.409	-0.219	0.035
-79.597	-200.000	-0.026	0.279
-78.582	-200.000	-0.008	0.174
-77.567	-198.875	0.384	-0.002
-76.553	-193.356	0.057	-0.000
-75.538	-109.887	0.099	0.020
-74.524	800.000	0.042	0.126
-73.509	-59.690	0.102	-0.043
-72.494	800.000	0.102	0.322
-71.480	119.903	-0.055	0.067
-70.465	-54.877	0.244	0.108
-69.451	800.000	-0.041	0.173
-68.436	80.887	-0.138	0.146
-67.422	-200.000	-0.005	0.053
-66.407	26.445	0.071	-0.058
-65.392	-43.071	0.604	0.301
-64.378	-200.000	-0.020	0.379
-63.363	2.743	0.291	0.207
-62.349	-43.610	0.125	0.062
-61.334	10.151	-0.860	-0.642
-60.319	53.298	0.603	0.567
-59.305	472.890	-0.497	-1.100
-58.290	355.923	0.579	1.132
-57.276	773.911	0.576	1.544
-56.261	-200.000	101.882	592.334
-55.246	492.130	1437.864	3235.241
-54.232	153.308	2613.449	3512.785
-53.217	112.246	2149.639	2552.374
-52.203	44.013	1606.194	1445.643
-51.188	35.741	1345.569	1161.330
-50.173	32.437	1304.130	1106.138
-49.159	55.929	1354.457	1289.967
-48.144	57.577	1370.348	1314.896
-47.130	35.718	1327.845	1145.710
-46.115	32.272	1310.535	1110.420
-45.100	32.074	1305.275	1104.752
-44.086	32.069	1303.101	1102.843
-43.071	32.020	1300.458	1100.272
-42.057	31.909	1298.774	1098.155
-41.042	31.991	1296.730	1096.861
-40.027	32.056	1295.210	1095.912
-39.013	32.001	1293.720	1094.284
-37.998	31.995	1291.867	1092.640
-36.984	32.059	1290.444	1091.765
-35.969	32.155	1287.629	1089.899
-34.954	32.123	1286.382	1088.613
-33.940	32.139	1285.355	1087.793
-32.925	32.295	1283.571	1087.141
-31.911	32.218	1282.398	1085.663
-30.896	32.209	1281.028	1084.407
-29.881	32.352	1279.576	1083.958
-28.867	32.329	1277.975	1082.429
-27.852	32.263	1276.960	1081.148
-26.838	32.263	1275.377	1079.762
-25.823	32.215	1273.925	1078.216
-24.809	32.113	1272.814	1076.650
-23.794	32.138	1271.772	1075.867
-22.779	32.247	1269.987	1074.935
-21.765	32.076	1268.922	1073.014
-20.750	32.192	1267.565	1072.491
-19.736	32.112	1266.041	1070.700
-18.721	32.124	1264.770	1069.651
-17.706	32.035	1263.808	1068.286
-16.692	32.161	1262.373	1067.748
-15.677	32.067	1261.453	1066.396
-14.663	32.082	1260.466	1065.601
-13.648	31.974	1259.790	1064.379
-12.633	31.883	1258.993	1063.144
-11.619	32.077	1257.649	1063.066
-10.604	31.947	1257.246	1061.948
-9.590	32.030	1255.532	1060.925
-8.575	31.985	1255.078	1060.244
-7.560	32.085	1253.794	1059.682
-6.546	32.047	1253.148	1058.884
-5.531	31.961	1252.581	1057.879
-4.517	32.058	1251.792	1057.716
-3.502	32.157	1250.378	1057.034
-2.487	32.157	1249.538	1056.284
-1.473	31.845	1245.082	1050.723
-0.458	29.393	1228.773	1023.339
0.556	23.580	1208.854	973.148
1.571	18.342	1212.945	947.453
2.586	16.908	1227.144	950.425
3.600	16.574	1216.847	940.512
4.615	12.584	1146.769	865.323
5.629	5.204	1072.680	772.924
6.644	1.340	1053.219	740.030
7.659	0.924	1051.064	736.426
8.673	1.044	1050.151	736.307
9.688	1.023	1048.624	735.066
10.702	1.253	1047.090	735.041
11.717	5.520	1052.376	759.429
12.731	12.920	1062.145	802.538
13.746	17.135	1066.687	826.454
14.761	17.678	1066.944	829.220
15.775	16.968	1065.276	824.401
16.790	15.836	1063.622	817.553
17.804	15.198	1061.584	812.821
18.819	14.903	1060.347	810.371
19.834	14.629	1059.748	808.514
20.848	14.496	1058.511	806.856
21.863	14.209	1057.517	804.638
22.877	13.983	1057.217	803.249
23.892	13.877	1056.700	802.274
24.907	13.846	1055.775	801.350
25.921	13.978	1055.007	801.332
26.936	13.991	1054.049	800.595
27.950	14.068	1052.933	800.046
28.965	14.113	1052.150	799.596
29.980	14.244	1050.520	798.916
30.994	14.134	1049.821	797.786
32.009	14.204	1048.976	797.411
33.023	14.112	1047.694	795.923
34.038	14.186	1046.613	795.387
35.053	14.119	1046.164	794.658
36.067	14.104	1044.989	793.622
37.082	14.060	1044.244	792.775
38.096	14.072	1043.363	792.094
39.111	14.057	1042.761	791.496
40.126	14.079	1041.569	790.623
41.140	14.028	1040.540	789.529
42.155	14.036	1038.907	788.259
43.169	13.951	1038.117	787.190
44.184	13.949	1037.182	786.400
45.199	13.933	1036.292	785.583
46.213	14.002	1035.530	785.261
47.228	14.083	1034.036	784.438
48.242	13.921	1032.905	782.750
49.257	13.929	1032.418	782.347
50.271	14.023	1031.247	781.835
51.286	14.028	1030.426	781.164
52.301	14.111	1029.176	780.538
53.315	13.959	1028.308	779.099
54.330	13.886	1027.706	778.232
55.344	14.032	1026.282	777.769
56.359	13.954	1026.335	777.375
57.374	13.896	1025.255	776.214
58.388	14.002	1023.941	775.649
59.403	13.850	1023.377	774.444
60.417	13.919	1023.067	774.462
61.432	13.936	1022.048	773.701
62.447	13.856	1021.355	772.733
63.461	13.770	1020.668	771.748
64.476	13.866	1019.466	771.214
65.490	13.746	1019.025	770.255
66.505	13.865	1018.127	770.062
67.520	13.922	1017.205	769.560
68.534	13.983	1016.131	768.961
69.549	14.007	1015.720	768.693
70.563	13.859	1014.904	767.325
71.578	13.874	1014.211	766.800
72.593	13.969	1013.395	766.553
73.607	13.842	1012.742	765.407
74.622	13.834	1012.193	764.887
75.636	13.749	1011.693	764.052
76.651	13.887	1010.965	764.069
77.666	13.877	1010.157	763.346
78.680	13.978	1009.543	763.277
79.695	13.983	1008.637	762.546
80.709	13.926	1008.080	761.798
81.724	13.932	1007.393	761.238
82.739	13.982	1006.637	760.830
83.753	14.102	1005.723	760.618
84.768	14.109	1004.902	759.965
85.782	14.161	1003.728	759.244
86.797	14.114	1003.243	758.597
87.812	14.047	1002.334	757.537
88.826	13.926	1001.469	756.267
89.841	14.087	1000.578	756.259
90.855	14.139	999.733	755.788
91.870	14.082	999.082	754.973
92.884	14.047	998.035	753.955
93.899	14.093	997.619	753.784
94.914	14.028	996.469	752.550
95.928	14.150	995.668	752.432
96.943	14.156	994.307	751.365
97.957	14.086	993.867	750.651
98.972	14.092	992.937	749.907
99.987	14.104	992.262	749.385
101.001	14.219	991.277	749.092
102.016	14.215	990.414	748.358
103.030	14.154	989.999	747.703
104.045	14.141	988.934	746.775
105.060	14.030	988.388	745.798
106.074	14.020	987.179	744.775
107.089	14.048	986.226	744.114
108.103	13.992	985.274	743.080
109.118	14.106	984.036	742.588
110.133	13.986	983.694	741.730
111.147	13.997	982.879	741.097
112.162	14.065	981.817	740.536
113.176	14.161	980.903	740.210
114.191	14.062	980.415	739.335
115.206	14.027	979.647	738.534
116.220	14.066	979.025	738.175
117.235	14.059	978.167	737.432
118.249	14.099	976.995	736.658
119.264	14.134	975.993	735.992
120.279	14.114	975.704	735.621
121.293	14.111	974.395	734.556
122.308	13.995	974.141	733.787
123.322	14.007	972.864	732.811
124.337	14.008	971.722	731.891
125.352	14.058	970.590	731.194
126.366	14.013	969.555	730.153
127.381	14.036	968.774	729.600
128.395	14.010	967.879	728.747
129.410	14.074	967.019	728.318
130.424	14.082	965.800	727.372
131.439	14.080	965.315	726.930
132.454	14.211	964.333	726.698
133.468	14.146	963.685	725.861
134.483	14.076	963.272	725.183
135.497	14.089	961.963	724.189
136.512	14.213	960.741	723.745
137.527	14.282	960.102	723.501
138.541	14.145	959.757	722.579
139.556	14.245	959.119	722.470
140.570	14.207	957.821	721.262
141.585	14.281	957.066	720.952
142.600	14.296	956.264	720.348
143.614	14.293	955.591	719.764
144.629	14.405	954.516	719.377
145.643	14.358	954.060	718.767
146.658	14.280	952.799	717.414
147.673	14.158	952.241	716.407
148.687	14.259	951.339	716.100
149.702	14.328	950.281	715.536
150.716	14.253	949.710	714.723
151.731	14.162	949.233	713.906
152.746	14.361	948.646	714.257
153.760	14.319	947.979	713.513
154.775	14.379	947.365	713.242
155.789	14.342	946.447	712.331
156.804	14.347	946.125	712.046
157.819	14.544	945.077	712.034
158.833	14.484	944.522	711.298
159.848	14.500	944.020	710.924
160.862	14.274	943.057	709.177
161.877	14.330	942.170	708.684
162.892	14.446	941.144	708.345
163.906	14.387	940.340	707.425
164.921	14.314	939.643	706.528
165.935	14.236	939.046	705.684
166.950	14.336	937.689	705.024
167.964	14.465	936.683	704.753
168.979	14.383	936.266	704.030
169.994	14.363	935.502	703.309
171.008	14.546	934.574	703.321
172.023	14.512	933.683	702.444
173.037	14.433	933.444	701.869
174.052	14.612	932.469	701.826
175.067	14.431	932.128	700.750
176.081	14.540	931.365	700.571
177.096	14.445	930.825	699.705
178.110	14.443	930.784	699.604
179.125	14.388	929.802	698.570
180.140	14.547	929.223	698.743
181.154	14.638	928.441	698.473
182.169	14.376	928.528	697.379
183.183	14.683	927.379	697.739
184.198	14.660	926.882	697.206
185.213	14.819	925.550	696.805
186.227	14.679	925.586	696.186
187.242	14.581	925.140	695.382
188.256	14.805	923.811	695.253
189.271	14.725	923.162	694.369
190.286	14.661	922.496	693.542
191.300	14.530	921.802	692.417
192.315	14.635	921.014	692.197
193.329	14.590	921.343	692.196
194.344	14.534	920.361	691.165
195.359	14.742	919.316	691.182
196.373	14.787	918.896	690.991
197.388	14.676	918.516	690.182
198.402	14.971	917.806	690.808
199.417	14.828	917.443	689.883
200.432	14.872	916.834	689.547
201.446	14.968	916.173	689.385
202.461	14.964	915.702	688.951
203.475	14.958	914.908	688.271
204.490	14.929	914.499	687.780
205.504	14.836	913.477	686.568
206.519	14.949	912.429	686.183
207.534	14.980	912.134	686.027
208.548	14.855	911.882	685.267
209.563	14.990	910.979	685.080
210.577	15.085	909.950	684.634
211.592	15.155	909.030	684.166
212.607	15.057	908.822	683.551
213.621	15.159	907.779	683.121
214.636	15.113	907.092	682.355
215.650	15.080	906.771	681.919
216.665	15.014	906.200	681.160
217.680	15.197	904.973	680.922
218.694	15.092	904.499	680.079
219.709	15.041	904.304	679.665
220.723	15.075	903.498	679.140
221.738	15.182	902.766	678.962
222.753	15.188	901.931	678.299
223.767	15.244	901.568	678.191
224.782	15.218	900.878	677.507
225.796	15.345	900.248	677.488
226.811	15.260	899.959	676.865
227.826	15.287	898.959	676.164
228.840	15.166	898.563	675.314
229.855	15.280	897.418	674.855
230.869	15.248	896.868	674.253
231.884	15.372	895.757	673.857
232.899	15.339	895.202	673.246
233.913	15.381	894.552	672.867
234.928	15.250	894.068	671.920
235.942	15.282	893.695	671.706
236.957	15.346	892.738	671.186
237.972	15.233	892.762	670.692
238.986	15.415	891.443	670.368
240.001	15.436	891.030	670.082
241.015	15.377	890.302	669.238
242.030	15.419	889.796	668.967
243.045	15.300	889.383	668.125
244.059	15.382	888.650	667.838
245.074	15.386	888.246	667.495
246.088	15.550	886.899	667.073
247.103	15.445	886.888	666.588
248.117	15.629	885.671	666.345
249.132	15.676	885.298	666.193
250.147	15.722	884.723	665.883
251.161	15.697	884.434	665.505
252.176	15.799	883.170	664.898
253.190	15.709	883.037	664.384
254.205	15.845	882.210	664.242
255.220	15.738	881.702	663.376
256.234	15.903	880.841	663.321
257.249	15.792	880.184	662.333
258.263	15.685	879.606	661.415
259.278	15.885	878.905	661.617
260.293	15.817	878.357	660.877
261.307	15.863	877.697	660.505
262.322	15.815	876.895	659.654
263.336	15.827	876.497	659.342
264.351	15.854	876.040	659.047
265.366	15.971	875.173	658.793
266.380	15.950	874.213	657.931
267.395	16.089	873.615	657.963
268.409	15.958	872.972	656.914
269.424	16.089	871.986	656.622
270.439	16.140	871.374	656.300
271.453	16.026	871.101	655.596
272.468	15.985	870.552	654.965
273.482	16.004	870.058	654.608
274.497	15.972	869.616	654.094
275.512	16.058	868.998	653.903
276.526	15.951	868.433	653.007
277.541	16.131	867.764	653.141
278.555	16.170	867.379	652.945
279.570	16.287	866.550	652.717
280.585	16.213	865.795	651.806
281.599	16.121	864.938	650.745
282.614	16.194	864.075	650.320
283.628	16.190	864.015	650.203
284.643	16.310	863.009	649.851
285.657	16.205	862.693	649.149
286.672	16.196	861.984	648.528
287.687	16.229	861.338	648.110
288.701	16.393	860.692	648.194
289.716	16.311	860.036	647.330
290.730	16.345	859.566	647.046
291.745	16.420	858.554	646.515
292.760	16.322	858.492	646.037
293.774	16.447	857.753	645.903
294.789	16.419	857.286	645.388
295.803	16.415	856.646	644.830
296.818	16.280	856.222	643.941
297.833	16.377	855.250	643.522
298.847	16.489	854.755	643.518
299.862	16.578	854.117	643.321
300.876	16.593	853.250	642.669
301.891	16.407	853.239	641.894
302.906	16.656	852.124	641.946
303.920	16.633	852.070	641.761
304.935	16.564	851.531	641.037
305.949	16.548	850.972	640.499
306.964	16.523	850.179	639.750
307.979	16.705	849.427	639.814
308.993	16.688	849.255	639.564
310.008	16.690	848.412	638.880
311.022	16.745	847.786	638.562
312.037	16.510	847.661	637.525
313.052	16.547	846.820	636.972
314.066	16.684	846.528	637.212
315.081	16.716	845.716	636.666
316.095	16.709	844.867	635.945
317.110	16.701	844.411	635.516
318.125	16.629	844.288	635.098
319.139	16.553	843.877	634.445
320.154	16.527	843.267	633.833
321.168	16.862	842.231	634.251
322.183	16.812	841.976	633.817
323.197	16.730	841.555	633.138
324.212	16.775	841.081	632.894
325.227	16.659	840.682	632.104
326.241	16.853	839.527	631.904
327.256	16.873	838.777	631.356
328.270	16.834	838.544	630.982
329.285	16.795	837.980	630.355
330.300	16.785	837.210	629.681
331.314	16.777	836.799	629.289
332.329	16.921	836.561	629.587
333.343	16.972	835.884	629.213
334.358	16.976	835.324	628.751
335.373	16.896	835.421	628.470
336.387	16.934	835.017	628.251
337.402	16.944	834.717	628.008
338.416	17.052	834.274	628.018
339.431	17.082	833.678	627.627
340.446	17.039	833.403	627.203
341.460	17.111	832.988	627.101
342.475	17.224	832.838	627.349
343.489	17.143	831.883	626.279
344.504	17.219	831.794	626.434
345.519	17.177	830.895	625.549
346.533	17.175	830.536	625.213
347.548	17.130	830.231	624.764
348.562	17.152	829.454	624.205
349.577	17.101	828.982	623.607
350.592	17.221	828.431	623.579
351.606	17.148	827.585	622.619
352.621	17.210	826.700	622.126
353.635	17.172	826.659	621.899
354.650	17.344	825.668	621.729
355.665	17.251	825.343	621.089
356.679	17.123	824.927	620.254
357.694	17.528	823.910	620.911
358.708	17.395	823.246	619.871
359.723	17.312	822.579	619.012
360.738	17.310	822.214	618.675
361.752	17.427	821.530	618.530
362.767	17.451	820.994	618.159
363.781	17.434	820.338	617.550
364.796	17.441	819.961	617.235
365.810	17.528	819.423	617.091
366.825	17.611	819.167	617.146
367.840	17.626	818.608	616.722
368.854	17.621	818.225	616.360
369.869	17.485	817.990	615.639
370.883	17.508	817.465	615.274
371.898	17.597	817.252	615.380
372.913	17.660	816.806	615.215
373.927	17.645	816.325	614.746
374.942	17.666	815.775	614.354
375.956	17.673	815.674	614.247
376.971	17.746	814.876	613.856
377.986	17.824	814.325	613.665
379.000	17.799	814.056	613.321
380.015	17.729	813.599	612.669
381.029	17.801	812.898	612.347
382.044	17.870	812.252	612.053
383.059	17.822	811.859	611.529
384.073	17.800	811.193	610.896
385.088	17.770	811.150	610.703
386.102	17.846	809.982	610.040
387.117	17.890	809.512	609.789
388.132	17.932	808.896	609.421
389.146	17.898	808.459	608.917
390.161	17.828	808.323	608.511
391.175	17.826	807.926	608.149
392.190	17.893	807.059	607.684
393.205	17.841	806.834	607.275
394.219	17.908	806.358	607.102
395.234	17.812	805.834	606.310
396.248	17.796	805.667	606.075
397.263	17.885	805.144	605.944
398.278	17.837	804.891	605.529
399.292	17.772	804.426	604.897
400.307	17.936	803.684	604.866
401.321	17.916	803.279	604.436
402.336	17.994	802.952	604.412
403.350	18.124	802.362	604.374
404.365	18.109	801.412	603.552
405.380	18.217	801.133	603.671
406.394	18.241	800.944	603.559
407.409	18.103	800.538	602.713
408.423	18.220	800.041	602.697
409.438	18.233	800.120	602.751
410.453	18.330	799.321	602.435
411.467	18.214	799.074	601.788
412.482	18.279	798.397	601.455
413.496	18.442	797.859	601.566
414.511	18.331	798.041	601.262
415.526	18.387	797.192	600.764
416.540	18.307	796.857	600.181
417.555	18.467	796.309	600.272
418.569	18.420	796.011	599.831
419.584	18.453	795.278	599.341
420.599	18.519	794.921	599.250
421.613	110.885	1290.696	1464.801
422.628	95.399	1362.907	1464.885
