DTS Sentinel unit serial number:	SN413079Multiplexer serial number:	ORYXHardware model number:	OX4-SRSoftware version number:	ORYX F/W v4.00 Oryx Data Collector v3.7.2.0data status	okinstallation	princeton_trtdifferential loss correction	single-endedforward channel	channel 1reverse channel	N/Adate	2019/09/15time	01:46:35forward acquisition time	60.00reverse acquisition time	0.00gamma	496.2192k internal	0.2322k external	0.2322temperature offset calibration	0.9979default loss term (dB/km)	0.3790temperature slope calibration	1.0000multiplexer offset coefficient	1.0000multiplexer slope coefficient	1.0000fibre end	0.00T internal ref (°C)	31.81T ext. ref 1 (°C)	4.50T ext. ref 2 (°C)	26.71length (m)	temperature (°C)	Stokes	anti-Stokes-747.200	-200.000	-0.007	-0.099
-746.185	-65.269	0.119	0.048
-745.171	135.801	0.109	0.143
-744.156	276.960	-0.130	0.233
-743.142	318.159	0.116	0.222
-742.127	-200.000	0.006	0.214
-741.112	-200.000	-0.004	0.032
-740.098	245.527	0.064	0.109
-739.083	-107.533	0.088	-0.020
-738.069	800.000	0.027	0.110
-737.054	-200.000	-0.008	-0.058
-736.039	-161.331	-0.134	0.007
-735.025	-49.784	0.342	-0.164
-734.010	-148.709	-0.468	-0.038
-732.996	539.354	0.086	-0.206
-731.981	-32.995	0.201	-0.113
-730.966	-83.017	0.249	0.081
-729.952	-50.919	-0.156	-0.074
-728.937	42.837	-0.142	-0.131
-727.923	800.000	0.014	-0.045
-726.908	-44.677	-0.075	0.038
-725.894	-52.785	0.246	0.114
-724.879	14.196	-0.188	-0.148
-723.864	3.171	0.119	-0.088
-722.850	31.738	0.251	0.218
-721.835	62.049	-0.217	0.218
-720.821	-120.519	-0.143	-0.025
-719.806	9.641	-0.122	0.093
-718.791	-75.418	0.360	-0.129
-717.777	30.260	-0.183	-0.158
-716.762	-114.363	-0.136	0.027
-715.748	-200.000	0.056	-0.297
-714.733	29.215	0.063	0.054
-713.718	-151.168	0.249	0.019
-712.704	234.440	-0.074	-0.123
-711.689	-150.965	0.105	-0.008
-710.675	-200.000	-0.011	0.099
-709.660	800.000	-0.069	0.252
-708.645	484.152	0.177	0.406
-707.631	-150.813	0.118	-0.009
-706.616	-200.000	0.037	-0.281
-705.602	-200.000	0.026	0.168
-704.587	-79.476	-0.276	0.094
-703.572	-110.546	0.289	-0.060
-702.558	-200.000	0.005	-0.310
-701.543	87.877	-0.093	0.104
-700.529	112.729	0.022	0.027
-699.514	-162.224	-0.141	-0.007
-698.499	-153.179	0.119	0.008
-697.485	-188.201	-0.349	0.004
-696.470	539.443	-0.084	-0.200
-695.456	-119.095	-0.141	-0.025
-694.441	-110.689	0.126	0.026
-693.426	231.503	0.062	0.102
-692.412	-8.359	-0.132	0.090
-691.397	169.805	0.134	-0.193
-690.383	-1.801	-0.324	-0.230
-689.368	-121.684	-0.379	-0.063
-688.354	-87.797	0.480	-0.146
-687.339	-130.555	-0.087	-0.012
-686.324	-190.072	-0.073	0.001
-685.310	107.220	-0.050	-0.060
-684.295	-142.758	-0.180	-0.018
-683.281	4.370	-0.401	0.296
-682.266	561.545	-0.087	-0.211
-681.251	31.901	-0.115	0.100
-680.237	-134.868	-0.210	-0.026
-679.222	27.785	0.222	-0.189
-678.208	800.000	0.052	-0.161
-677.193	-0.881	0.015	0.011
-676.178	185.992	-0.018	-0.027
-675.164	24.226	0.170	-0.141
-674.149	-132.872	0.256	-0.033
-673.135	102.737	0.162	-0.192
-672.120	-200.000	-0.033	0.210
-671.105	35.481	0.218	-0.193
-670.091	-53.716	-0.228	-0.105
-669.076	800.000	0.103	-0.351
-668.062	-24.741	-0.368	-0.220
-667.047	38.116	-0.012	-0.011
-666.032	379.458	0.084	-0.173
-665.018	0.380	0.040	0.029
-664.003	64.960	0.063	0.064
-662.989	10.441	0.301	0.231
-661.974	-111.434	0.174	0.036
-660.959	-48.911	0.283	-0.137
-659.945	-200.000	-0.025	0.120
-658.930	-113.641	0.165	0.032
-657.916	78.203	-0.180	-0.193
-656.901	128.871	-0.035	-0.045
-655.886	725.530	-0.092	-0.246
-654.872	800.000	0.050	0.158
-653.857	800.000	-0.078	-0.322
-652.843	-200.000	-0.075	0.422
-651.828	-37.180	-0.348	0.187
-650.814	-200.000	0.043	0.196
-649.799	-200.000	-0.025	-0.124
-648.784	-30.812	-0.160	0.091
-647.770	-75.872	0.341	-0.122
-646.755	-200.000	-0.004	-0.161
-645.741	-89.005	0.266	-0.079
-644.726	109.478	-0.110	-0.133
-643.711	85.514	0.155	0.171
-642.697	-127.121	0.307	0.045
-641.682	93.595	-0.129	-0.147
-640.668	51.035	0.106	-0.101
-639.653	800.000	-0.043	-0.144
-638.638	80.153	-0.181	0.196
-637.624	-45.814	-0.219	0.109
-636.609	-200.000	0.072	-0.399
-635.595	473.118	0.154	-0.350
-634.580	421.937	-0.128	-0.276
-633.565	242.903	0.081	0.136
-632.551	171.887	0.130	0.188
-631.536	-200.000	0.020	-0.255
-630.522	-57.363	-0.059	0.026
-629.507	-53.955	0.084	0.038
-628.492	45.327	0.182	0.169
-627.478	-9.563	0.238	-0.160
-626.463	752.973	-0.074	-0.201
-625.449	122.055	-0.095	0.119
-624.434	-200.000	0.059	-0.540
-623.419	63.080	-0.096	0.097
-622.405	59.140	-0.136	0.134
-621.390	-106.863	-0.187	-0.042
-620.376	-147.677	0.161	-0.014
-619.361	-200.000	-0.001	0.138
-618.346	-200.000	-0.054	0.344
-617.332	-84.983	0.117	0.037
-616.317	-174.075	0.110	-0.003
-615.303	-200.000	-0.033	-0.307
-614.288	-200.000	-0.007	-0.075
-613.273	502.240	-0.084	0.194
-612.259	112.907	-0.214	0.261
-611.244	-62.931	-0.255	-0.106
-610.230	-131.941	-0.087	0.011
-609.215	-71.682	0.129	-0.048
-608.201	-200.000	-0.026	0.231
-607.186	-67.632	-0.176	0.069
-606.171	-200.000	0.024	-0.326
-605.157	148.389	-0.070	-0.095
-604.142	100.951	-0.266	-0.311
-603.128	-129.297	-0.145	-0.020
-602.113	612.357	-0.154	-0.387
-601.098	-200.000	-0.037	0.229
-600.084	-17.946	-0.072	0.045
-599.069	92.498	0.115	0.130
-598.055	216.523	0.123	-0.196
-597.040	-200.000	-0.001	-0.086
-596.025	-89.174	0.265	-0.079
-595.011	65.432	0.271	-0.275
-593.996	-166.182	0.227	0.010
-592.982	137.267	0.153	-0.201
-591.967	188.055	-0.465	0.698
-590.952	-33.042	0.351	0.196
-589.938	691.094	-0.081	0.214
-588.923	166.260	-0.105	-0.149
-587.909	-200.000	0.009	0.190
-586.894	-115.067	0.073	-0.014
-585.879	-2.292	0.316	-0.223
-584.865	-200.000	0.010	-0.269
-583.850	-103.676	-0.298	-0.070
-582.836	7.053	0.133	0.100
-581.821	251.560	-0.031	-0.052
-580.806	-152.566	-0.323	-0.023
-579.792	-200.000	-0.010	0.179
-578.777	800.000	-0.027	0.082
-577.763	17.696	-0.222	-0.178
-576.748	179.743	-0.104	-0.153
-575.733	250.372	0.057	-0.097
-574.719	-9.999	-0.063	-0.042
-573.704	-115.937	0.284	0.053
-572.690	167.640	0.089	0.127
-571.675	-200.000	0.049	0.335
-570.661	-200.000	-0.092	0.413
-569.646	-94.987	0.221	0.060
-568.631	-97.704	-0.198	-0.052
-567.617	-31.547	0.188	0.106
-566.602	800.000	-0.040	-0.124
-565.588	-182.262	-0.232	0.004
-564.573	408.230	-0.028	0.059
-563.558	-83.791	0.229	-0.073
-562.544	-200.000	-0.013	-0.306
-561.529	68.477	-0.019	0.020
-560.515	-22.843	0.098	0.059
-559.500	-92.545	0.313	-0.088
-558.485	20.991	-0.302	-0.246
-557.471	-30.739	0.541	-0.307
-556.456	219.351	-0.176	-0.283
-555.442	365.622	-0.086	0.174
-554.427	-200.000	-0.024	-0.181
-553.412	-25.491	0.232	0.137
-552.398	-100.879	0.185	0.046
-551.383	-103.573	-0.510	0.120
-550.369	-108.397	0.155	0.033
-549.354	191.756	-0.093	0.140
-548.339	-200.000	-0.064	0.351
-547.325	69.086	0.166	-0.171
-546.310	-172.022	0.108	0.003
-545.296	-2.700	0.119	0.083
-544.281	-200.000	-0.025	0.199
-543.266	39.612	-0.184	0.165
-542.252	-14.674	-0.284	-0.183
-541.237	100.339	0.072	0.084
-540.223	-200.000	0.027	0.391
-539.208	-50.788	0.290	0.137
-538.193	-76.539	0.175	-0.062
-537.179	49.207	-0.174	-0.164
-536.164	-200.000	0.010	0.124
-535.150	-104.244	-0.219	-0.051
-534.135	800.000	0.065	0.257
-533.121	24.550	0.125	0.103
-532.106	-78.829	-0.189	-0.065
-531.091	-200.000	-0.046	0.403
-530.077	-151.749	-0.055	-0.004
-529.062	-200.000	0.009	0.245
-528.048	-99.542	-0.340	-0.086
-527.033	-200.000	-0.023	0.138
-526.018	-119.162	0.173	0.030
-525.004	-200.000	-0.002	0.125
-523.989	-144.482	-0.167	-0.016
-522.975	713.018	0.111	-0.296
-521.960	800.000	0.027	0.092
-520.945	-90.081	-0.263	0.077
-519.931	-85.510	0.048	-0.015
-518.916	310.894	-0.092	-0.172
-517.902	-200.000	-0.007	0.296
-516.887	800.000	-0.134	-0.410
-515.872	-200.000	0.002	-0.267
-514.858	3.085	-0.120	-0.087
-513.843	73.649	-0.123	-0.129
-512.829	163.973	0.196	0.276
-511.814	350.710	-0.168	0.332
-510.799	-43.893	-0.277	0.140
-509.785	94.953	-0.028	0.032
-508.770	-200.000	0.025	-0.214
-507.756	800.000	-0.010	-0.029
-506.741	-73.877	-0.286	-0.104
-505.726	-84.548	-0.224	0.071
-504.712	141.240	0.065	-0.086
-503.697	-6.661	0.044	0.030
-502.683	41.022	-0.101	0.091
-501.668	-101.394	-0.141	-0.034
-500.653	-78.566	-0.230	0.079
-499.639	21.933	-0.141	-0.115
-498.624	-200.000	-0.077	-0.488
-497.610	800.000	0.057	-0.210
-496.595	82.140	0.202	-0.219
-495.581	-200.000	-0.013	-0.086
-494.566	-200.000	0.078	0.594
-493.551	-31.537	0.259	-0.146
-492.537	760.135	0.113	0.307
-491.522	-72.132	0.332	-0.123
-490.508	800.000	-0.046	0.162
-489.493	31.471	0.252	0.216
-488.478	-73.446	0.133	0.049
-487.464	-200.000	0.001	-0.142
-486.449	-200.000	0.025	-0.176
-485.435	-102.494	-0.193	0.046
-484.420	-64.085	0.162	-0.066
-483.405	-109.935	-0.293	-0.061
-482.391	17.143	0.131	0.104
-481.376	-81.371	-0.175	0.058
-480.362	-141.155	0.157	0.016
-479.347	51.711	-0.238	0.227
-478.332	-181.995	0.226	-0.004
-477.318	18.693	-0.082	0.066
-476.303	253.322	0.112	-0.191
-475.289	-36.456	-0.126	0.068
-474.274	259.324	-0.020	-0.034
-473.259	302.764	0.104	-0.192
-472.245	-22.441	-0.109	0.066
-471.230	-50.861	-0.289	-0.136
-470.216	-107.776	-0.211	-0.046
-469.201	-122.771	0.434	0.070
-468.186	-89.962	-0.233	-0.068
-467.172	-47.576	0.291	-0.141
-466.157	279.374	-0.065	-0.117
-465.143	-33.754	-0.056	0.031
-464.128	-29.749	0.204	0.116
-463.113	-27.833	-0.030	-0.017
-462.099	85.625	-0.111	-0.122
-461.084	-200.000	-0.001	-0.061
-460.070	-200.000	-0.026	0.367
-459.055	-200.000	-0.088	-0.432
-458.040	-200.000	0.068	0.350
-457.026	800.000	0.073	0.225
-456.011	-87.783	-0.107	-0.032
-454.997	-46.417	0.287	0.141
-453.982	0.102	-0.264	-0.188
-452.968	-96.187	-0.662	0.175
-451.953	-104.835	0.349	-0.080
-450.938	-147.057	-0.355	-0.030
-449.924	163.770	0.113	0.159
-448.909	206.236	-0.016	0.025
-447.895	-2.200	0.235	0.165
-446.880	-14.608	-0.125	-0.080
-445.865	800.000	0.032	0.094
-444.851	-172.961	0.113	-0.003
-443.836	-76.709	0.223	-0.078
-442.822	105.897	0.340	0.402
-441.807	-45.977	0.199	0.098
-440.792	800.000	-0.092	-0.267
-439.778	800.000	0.114	-0.338
-438.763	-8.583	0.450	0.301
-437.749	-66.900	0.044	0.018
-436.734	-48.043	-0.251	-0.121
-435.719	800.000	0.078	-0.334
-434.705	190.458	-0.218	0.328
-433.690	-76.797	-0.178	-0.062
-432.676	231.818	-0.305	-0.499
-431.661	-128.643	0.106	-0.015
-430.646	-62.740	0.146	-0.060
-429.632	-78.685	-0.151	0.051
-428.617	65.326	-0.215	0.217
-427.603	-200.000	0.011	0.142
-426.588	138.336	0.182	-0.239
-425.573	-14.927	0.161	-0.103
-424.559	-88.476	0.197	0.059
-423.544	-153.599	0.312	-0.022
-422.530	161.237	-0.166	0.232
-421.515	-200.000	-0.015	0.100
-420.500	-127.637	-0.134	0.019
-419.486	409.725	-0.034	0.072
-418.471	154.462	0.141	0.193
-417.457	-200.000	0.034	0.297
-416.442	773.356	-0.096	-0.260
-415.428	-200.000	0.013	-0.104
-414.413	-26.258	-0.145	0.085
-413.398	-200.000	-0.058	0.301
-412.384	19.719	0.148	0.119
-411.369	-59.059	0.326	0.140
-410.355	71.018	-0.291	-0.300
-409.340	800.000	-0.049	-0.199
-408.325	384.548	-0.013	-0.027
-407.311	210.405	-0.089	0.139
-406.296	710.235	-0.053	0.139
-405.282	-67.574	0.155	0.060
-404.267	-175.462	-0.216	-0.006
-403.252	800.000	0.103	0.292
-402.238	363.528	0.041	0.082
-401.223	178.864	-0.083	-0.121
-400.209	-35.530	0.149	0.081
-399.194	87.044	-0.092	0.101
-398.179	-157.137	-0.344	-0.021
-397.165	12.237	-0.162	-0.124
-396.150	642.340	-0.039	-0.099
-395.136	446.818	-0.168	0.369
-394.121	147.672	0.119	-0.159
-393.106	25.966	0.210	-0.175
-392.092	312.149	0.131	-0.245
-391.077	-46.551	-0.266	0.130
-390.063	58.142	0.162	-0.159
-389.048	74.756	0.248	0.260
-388.033	143.782	0.138	-0.183
-387.019	800.000	-0.005	0.015
-386.004	-200.000	-0.005	-0.234
-384.990	63.614	-0.332	0.332
-383.975	-36.655	0.282	0.151
-382.960	157.172	-0.052	0.071
-381.946	-83.357	-0.435	0.139
-380.931	-200.000	-0.004	-0.128
-379.917	-119.703	-0.233	0.040
-378.902	-4.909	0.370	0.254
-377.888	-200.000	0.129	0.000
-376.873	227.021	-0.065	-0.106
-375.858	-69.800	0.077	-0.029
-374.844	-32.291	-0.301	-0.167
-373.829	-76.449	-0.216	-0.076
-372.815	53.958	0.326	-0.312
-371.800	-99.089	0.061	-0.016
-370.785	259.453	-0.044	-0.075
-369.771	40.237	0.095	0.085
-368.756	-200.000	0.030	0.217
-367.742	271.510	-0.136	0.239
-366.727	598.389	0.079	0.196
-365.712	-11.256	0.286	0.187
-364.698	143.593	-0.009	0.012
-363.683	-200.000	-0.005	-0.446
-362.669	-45.320	-0.285	-0.141
-361.654	163.023	-0.183	0.255
-360.639	-15.811	0.147	0.093
-359.625	-53.533	-0.397	0.181
-358.610	423.972	-0.100	0.213
-357.596	508.798	0.045	-0.103
-356.581	26.709	-0.100	-0.084
-355.566	591.154	0.167	-0.411
-354.552	-97.223	0.229	0.059
-353.537	800.000	0.012	0.039
-352.523	-200.000	-0.006	-0.106
-351.508	106.726	0.150	-0.178
-350.493	96.881	-0.372	-0.425
-349.479	9.403	-0.223	-0.168
-348.464	-189.436	-0.087	-0.001
-347.450	-200.000	-0.031	0.255
-346.435	-200.000	-0.002	0.032
-345.420	-46.141	0.287	0.140
-344.406	-110.974	0.317	0.065
-343.391	-62.563	0.037	0.015
-342.377	800.000	-0.082	-0.315
-341.362	-200.000	-0.003	-0.155
-340.348	-4.920	0.275	-0.188
-339.333	69.649	-0.100	0.103
-338.318	-111.445	0.386	0.078
-337.304	91.332	0.134	0.149
-336.289	709.273	0.042	0.111
-335.275	-97.019	-0.399	-0.104
-334.260	-115.226	-0.100	0.019
-333.245	-133.261	0.280	-0.035
-332.231	541.728	-0.105	0.249
-331.216	-190.332	0.144	0.002
-330.202	519.811	0.108	0.251
-329.187	800.000	0.024	0.097
-328.172	-200.000	-0.020	-0.280
-327.158	800.000	-0.075	0.305
-326.143	607.314	-0.088	-0.218
-325.129	-66.359	0.095	-0.038
-324.114	800.000	-0.115	-0.466
-323.099	-98.552	0.339	0.086
-322.085	8.231	0.058	-0.044
-321.070	40.237	-0.119	0.107
-320.056	-35.382	-0.192	0.104
-319.041	-123.802	0.041	0.006
-318.026	800.000	-0.070	-0.227
-317.012	-126.181	-0.363	-0.054
-315.997	800.000	-0.054	-0.216
-314.983	524.273	0.054	-0.126
-313.968	800.000	-0.082	0.250
-312.953	800.000	0.074	-0.221
-311.939	-12.179	-0.052	0.034
-310.924	232.148	0.079	0.128
-309.910	485.431	-0.095	0.215
-308.895	36.188	-0.034	-0.029
-307.880	-81.054	0.065	0.021
-306.866	-66.647	0.273	-0.108
-305.851	-162.248	-0.243	0.012
-304.837	171.550	0.053	0.075
-303.822	585.917	-0.139	0.340
-302.807	74.776	-0.107	-0.112
-301.793	76.720	-0.146	0.154
-300.778	-152.357	-0.065	0.005
-299.764	-186.598	0.265	0.004
-298.749	-128.904	-0.281	-0.039
-297.735	-200.000	-0.009	-0.270
-296.720	66.719	-0.167	-0.169
-295.705	181.989	0.079	-0.115
-294.691	-22.410	0.142	0.085
-293.676	-42.431	0.142	-0.072
-292.662	65.524	0.125	-0.126
-291.647	-137.679	-0.098	-0.011
-290.632	12.561	-0.157	-0.121
-289.618	-200.000	0.032	0.273
-288.603	-200.000	0.002	-0.039
-287.589	183.109	-0.058	-0.085
-286.574	-118.004	-0.261	-0.046
-285.559	-107.212	-0.094	-0.020
-284.545	91.405	0.216	-0.241
-283.530	-58.183	-0.150	0.065
-282.516	319.790	0.137	0.258
-281.501	203.286	0.329	-0.505
-280.486	800.000	-0.117	0.351
-279.472	-124.029	-0.103	0.016
-278.457	-4.855	0.253	0.173
-277.443	231.905	0.005	-0.009
-276.428	108.920	-0.170	0.202
-275.413	-200.000	0.014	0.094
-274.399	574.899	-0.039	0.096
-273.384	800.000	0.086	-0.319
-272.370	-42.231	0.257	0.130
-271.355	800.000	0.028	-0.079
-270.340	-24.905	-0.191	0.112
-269.326	-107.619	-0.042	-0.009
-268.311	293.245	0.072	0.131
-267.297	85.416	0.126	0.137
-266.282	-200.000	-0.040	0.284
-265.267	-131.621	-0.158	-0.021
-264.253	16.111	-0.023	0.018
-263.238	-200.000	0.045	-0.320
-262.224	93.638	0.212	-0.239
-261.209	-90.531	0.449	0.129
-260.195	800.000	-0.082	0.304
-259.180	800.000	-0.021	0.088
-258.165	800.000	-0.088	-0.344
-257.151	-138.695	-0.073	0.008
-256.136	-198.199	-0.217	-0.001
-255.122	-95.495	0.288	-0.077
-254.107	324.711	-0.144	0.273
-253.092	-138.846	0.193	0.021
-252.078	-200.000	-0.018	0.281
-251.063	-200.000	-0.087	-0.556
-250.049	178.659	-0.168	0.243
-249.034	-70.718	-0.025	0.010
-248.019	374.990	0.091	-0.185
-247.005	104.549	0.154	0.180
-245.990	768.198	-0.036	-0.096
-244.976	-46.817	-0.239	0.116
-243.961	-40.465	-0.022	0.011
-242.946	800.000	0.022	0.087
-241.932	62.828	0.302	0.300
-240.917	444.163	-0.056	-0.122
-239.903	-175.196	0.117	0.003
-238.888	-200.000	-0.052	-0.240
-237.873	-101.199	-0.282	-0.068
-236.859	-96.275	-0.032	-0.008
-235.844	-192.971	0.159	0.001
-234.830	-80.672	-0.077	0.025
-233.815	-141.657	0.224	0.022
-232.800	-12.549	-0.072	-0.047
-231.786	-101.216	-0.056	-0.014
-230.771	206.670	0.106	-0.163
-229.757	-137.424	0.059	0.007
-228.742	-55.524	0.454	-0.201
-227.727	-50.427	0.318	-0.149
-226.713	-83.967	-0.358	0.113
-225.698	800.000	-0.057	-0.230
-224.684	146.202	-0.166	0.220
-223.669	-200.000	-0.040	-0.355
-222.655	800.000	-0.128	-0.351
-221.640	-75.145	-0.245	0.087
-220.625	51.208	-0.173	-0.163
-219.611	800.000	-0.049	-0.158
-218.596	-200.000	-0.004	-0.072
-217.582	800.000	0.036	-0.106
-216.567	478.261	0.222	0.498
-215.552	87.000	0.221	0.242
-214.538	18.316	0.196	0.155
-213.523	-200.000	0.051	-0.232
-212.509	-200.000	0.018	0.338
-211.494	128.527	-0.168	0.212
-210.479	-56.065	0.450	-0.198
-209.465	-76.751	0.226	0.078
-208.450	-16.546	-0.155	-0.097
-207.436	800.000	0.049	0.144
-206.421	-200.000	-0.025	0.263
-205.406	101.808	0.159	0.184
-204.392	25.512	-0.232	0.191
-203.377	640.901	0.157	0.395
-202.363	38.826	-0.110	0.097
-201.348	-115.753	-0.045	0.008
-200.333	184.805	0.156	-0.229
-199.319	-154.933	0.165	-0.011
-198.304	-137.218	-0.501	-0.056
-197.290	23.355	-0.074	-0.060
-196.275	-200.000	0.025	0.138
-195.260	-200.000	-0.017	-0.261
-194.246	-134.328	-0.387	-0.047
-193.231	-88.079	0.210	0.062
-192.217	-200.000	-0.001	0.079
-191.202	-12.417	-0.103	0.066
-190.187	-200.000	-0.006	-0.043
-189.173	-131.872	-0.187	0.024
-188.158	-174.521	0.025	-0.001
-187.144	33.536	0.295	0.253
-186.129	0.231	-0.183	0.129
-185.114	-62.970	0.306	-0.125
-184.100	-66.496	-0.213	-0.083
-183.085	-96.222	0.066	-0.017
-182.071	103.277	-0.291	-0.338
-181.056	-70.545	-0.176	0.066
-180.042	51.321	-0.047	0.044
-179.027	-23.249	0.066	0.039
-178.012	184.937	0.255	0.374
-176.998	139.317	0.167	-0.217
-175.983	800.000	0.150	-0.454
-174.969	91.710	-0.189	-0.210
-173.954	-61.950	-0.317	-0.131
-172.939	-106.175	0.108	-0.024
-171.925	-200.000	0.031	0.191
-170.910	102.511	0.258	-0.298
-169.896	-146.560	-0.282	0.024
-168.881	190.887	0.125	-0.185
-167.866	-12.305	-0.166	0.107
-166.852	800.000	0.081	-0.287
-165.837	118.018	-0.164	0.200
-164.823	-133.977	0.144	0.018
-163.808	350.958	0.131	-0.256
-162.793	-94.355	-0.487	-0.131
-161.779	-49.564	0.217	-0.102
-160.764	-200.000	-0.004	0.374
-159.750	-125.521	0.230	0.034
-158.735	-11.909	0.278	-0.180
-157.720	207.600	0.115	-0.177
-156.706	-58.383	0.238	0.102
-155.691	-146.312	0.223	-0.019
-154.677	-200.000	0.012	0.426
-153.662	-128.139	-0.413	0.058
-152.647	319.147	0.142	0.267
-151.633	621.311	-0.097	-0.240
-150.618	7.680	0.247	0.182
-149.604	-98.544	-0.185	0.047
-148.589	-200.000	-0.002	-0.071
-147.574	-200.000	-0.002	0.077
-146.560	308.228	-0.099	-0.182
-145.545	58.288	-0.040	-0.039
-144.531	800.000	-0.019	0.065
-143.516	-178.465	0.128	-0.003
-142.502	-200.000	0.005	-0.294
-141.487	-30.170	0.198	0.111
-140.472	22.683	0.095	0.077
-139.458	324.308	0.133	-0.250
-138.443	-156.489	-0.136	-0.008
-137.429	357.305	0.102	0.200
-136.414	-120.617	-0.114	-0.019
-135.399	800.000	0.022	0.066
-134.385	-108.235	-0.341	0.073
-133.370	70.834	0.107	0.110
-132.356	-41.037	0.175	0.089
-131.341	-114.875	-0.155	0.029
-130.326	120.503	0.029	-0.036
-129.312	46.315	-0.143	0.131
-128.297	-119.532	0.301	0.051
-127.283	-1.289	-0.085	0.059
-126.268	-200.000	0.010	-0.447
-125.253	-186.416	-0.170	0.002
-124.239	25.395	-0.440	-0.361
-123.224	-105.681	0.103	-0.023
-122.210	-99.107	-0.215	-0.054
-121.195	348.300	-0.078	-0.151
-120.180	-158.857	-0.107	0.006
-119.166	-0.841	0.159	-0.111
-118.151	-147.828	0.024	0.002
-117.137	-40.314	-0.104	0.053
-116.122	620.855	-0.081	-0.201
-115.107	456.389	-0.159	0.347
-114.093	800.000	0.062	-0.210
-113.078	-200.000	-0.051	0.257
-112.064	-54.313	0.047	-0.021
-111.049	-7.477	-0.153	0.102
-110.034	800.000	-0.033	0.096
-109.020	-105.930	-0.270	0.060
-108.005	-28.080	0.345	-0.196
-106.991	-200.000	-0.212	0.001
-105.976	-200.000	-0.006	0.066
-104.962	-159.805	-0.295	-0.016
-103.947	90.065	0.125	-0.137
-102.932	197.088	-0.167	0.251
-101.918	-96.444	-0.179	0.047
-100.903	-84.160	0.172	0.054
-99.889	-38.689	-0.415	0.216
-98.874	27.173	0.039	-0.032
-97.859	59.130	0.233	0.226
-96.845	-62.453	0.164	0.067
-95.830	-200.000	0.006	-0.081
-94.816	-13.049	0.199	-0.127
-93.801	-200.000	0.116	0.524
-92.786	-200.000	0.037	0.216
-91.772	84.103	0.143	0.154
-90.757	-124.740	-0.084	0.013
-89.743	220.131	-0.117	0.184
-88.728	76.893	-0.198	0.207
-87.713	13.741	-0.130	0.100
-86.699	98.332	0.137	0.156
-85.684	-155.885	-0.034	-0.002
-84.670	422.001	0.097	0.205
-83.655	800.000	0.131	0.376
-82.640	-118.116	0.282	0.050
-81.626	-66.407	0.105	0.041
-80.611	-200.000	0.070	0.328
-79.597	787.930	0.078	-0.211
-78.582	800.000	0.069	-0.246
-77.567	39.880	-0.106	0.094
-76.553	11.144	0.183	-0.138
-75.538	61.813	-0.063	0.061
-74.524	-200.000	-0.030	-0.219
-73.509	800.000	0.053	0.146
-72.494	77.263	0.162	0.169
-71.480	-200.000	-0.018	-0.597
-70.465	555.693	0.073	-0.173
-69.451	1.355	0.246	0.174
-68.436	85.793	-0.205	-0.222
-67.422	255.800	0.172	-0.289
-66.407	330.069	-0.072	-0.136
-65.392	159.948	0.255	-0.350
-64.378	-12.477	0.231	-0.148
-63.363	10.766	0.238	0.178
-62.349	-153.300	0.416	0.029
-61.334	50.362	-1.078	-1.002
-60.319	201.453	0.272	0.412
-59.305	-200.000	-0.233	-1.239
-58.290	168.511	0.774	1.085
-57.276	527.214	0.742	1.720
-56.261	-200.000	96.688	599.728
-55.246	648.249	1375.237	3458.986
-54.232	198.815	2550.280	3840.769
-53.217	121.214	2137.383	2617.253
-52.203	43.971	1599.966	1441.957
-51.188	35.358	1337.747	1154.051
-50.173	32.250	1295.501	1099.419
-49.159	54.499	1343.760	1273.345
-48.144	56.832	1359.333	1301.917
-47.130	35.549	1318.366	1138.282
-46.115	31.989	1301.299	1102.632
-45.100	31.747	1296.753	1097.314
-44.086	31.754	1293.990	1094.974
-43.071	31.563	1291.911	1092.059
-42.057	31.706	1289.549	1090.853
-41.042	31.794	1287.663	1089.728
-40.027	31.736	1286.728	1088.554
-39.013	31.617	1284.555	1085.980
-37.998	31.707	1283.015	1085.160
-36.984	31.860	1281.085	1084.370
-35.969	31.788	1279.339	1082.433
-34.954	31.895	1277.493	1081.446
-33.940	31.888	1276.586	1080.590
-32.925	31.929	1274.647	1079.147
-31.911	31.855	1273.445	1077.656
-30.896	31.862	1272.036	1076.461
-29.881	31.912	1270.798	1075.661
-28.867	31.907	1269.020	1074.085
-27.852	31.966	1267.588	1073.165
-26.838	31.977	1266.025	1071.861
-25.823	31.853	1265.020	1070.263
-24.809	31.908	1263.723	1069.436
-23.794	31.886	1262.838	1068.519
-22.779	31.970	1261.162	1067.538
-21.765	31.908	1260.044	1066.197
-20.750	31.811	1258.493	1064.290
-19.736	31.831	1257.481	1063.506
-18.721	31.830	1256.078	1062.269
-17.706	31.714	1255.557	1061.131
-16.692	31.892	1253.803	1060.611
-15.677	31.722	1252.757	1058.725
-14.663	31.774	1251.704	1058.087
-13.648	31.836	1250.120	1057.053
-12.633	31.709	1249.704	1055.948
-11.619	31.728	1248.470	1054.971
-10.604	31.781	1247.733	1054.605
-9.590	31.770	1246.767	1053.682
-8.575	31.617	1246.339	1052.417
-7.560	31.699	1245.193	1051.870
-6.546	31.750	1244.421	1051.463
-5.531	31.693	1243.375	1050.218
-4.517	31.835	1242.123	1049.912
-3.502	31.759	1241.731	1049.112
-2.487	31.762	1240.984	1048.458
-1.473	31.693	1236.952	1044.625
-0.458	30.251	1221.831	1023.861
0.556	25.493	1204.271	986.738
1.571	21.866	1209.743	971.091
2.586	20.940	1224.664	977.791
3.600	20.394	1213.808	966.001
4.615	15.436	1143.114	883.619
5.629	7.856	1070.506	789.919
6.644	4.630	1051.723	760.238
7.659	4.362	1049.171	757.021
8.673	4.617	1047.784	757.193
9.688	4.401	1046.838	755.394
10.702	4.557	1044.853	754.649
11.717	8.817	1050.413	779.357
12.731	15.792	1060.306	820.764
13.746	18.546	1063.450	836.583
14.761	17.863	1061.674	831.782
15.775	16.799	1059.668	824.960
16.790	15.657	1058.040	818.062
17.804	15.091	1056.292	813.890
18.819	14.744	1055.022	811.154
19.834	14.442	1054.249	809.021
20.848	14.248	1053.289	807.275
21.863	14.079	1052.447	805.736
22.877	14.013	1051.221	804.411
23.892	13.960	1050.832	803.785
24.907	13.931	1050.237	803.118
25.921	13.899	1048.982	801.931
26.936	14.025	1047.969	801.694
27.950	13.821	1046.739	799.701
28.965	14.080	1045.043	799.577
29.980	14.170	1043.268	798.583
30.994	14.071	1042.422	797.389
32.009	14.250	1041.836	797.726
33.023	14.261	1040.199	796.456
34.038	14.083	1039.800	795.229
35.053	14.105	1038.464	794.240
36.067	14.014	1037.759	793.197
37.082	14.071	1036.692	792.584
38.096	14.119	1036.073	792.269
39.111	14.031	1035.580	791.404
40.126	13.990	1034.210	790.091
41.140	13.826	1033.073	788.375
42.155	13.879	1031.296	787.201
43.169	13.787	1030.786	786.306
44.184	13.671	1029.914	785.021
45.199	13.762	1028.497	784.300
46.213	13.816	1027.213	783.506
47.228	14.068	1026.315	783.941
48.242	14.003	1025.620	783.038
49.257	14.017	1024.424	782.122
50.271	14.109	1023.644	781.888
51.286	14.098	1022.956	781.242
52.301	14.106	1021.762	780.300
53.315	13.960	1020.667	778.708
54.330	14.003	1019.202	777.722
55.344	13.889	1019.086	777.031
56.359	13.894	1018.232	776.334
57.374	13.858	1017.336	775.415
58.388	13.754	1016.664	774.349
59.403	13.796	1015.714	773.751
60.417	13.841	1014.684	773.111
61.432	13.751	1013.823	771.968
62.447	13.648	1013.665	771.300
63.461	13.795	1012.299	770.872
64.476	13.700	1011.187	769.516
65.490	13.773	1010.172	769.016
66.505	13.801	1009.941	768.902
67.520	13.776	1009.191	768.147
68.534	13.775	1008.640	767.657
69.549	13.692	1007.743	766.523
70.563	13.617	1007.078	765.601
71.578	13.717	1006.003	765.175
72.593	13.711	1005.339	764.575
73.607	13.556	1004.886	763.451
74.622	13.595	1004.048	762.925
75.636	13.578	1003.668	762.489
76.651	13.596	1002.666	761.745
77.666	13.589	1002.366	761.420
78.680	13.622	1001.405	760.774
79.695	13.721	1000.795	760.697
80.709	13.731	1000.399	760.375
81.724	13.933	999.577	760.608
82.739	13.965	998.962	760.219
83.753	14.063	998.001	759.866
84.768	14.128	997.545	759.750
85.782	14.280	996.471	759.558
86.797	14.261	995.194	758.429
87.812	14.110	994.559	757.193
88.826	14.129	993.396	756.326
89.841	14.074	992.728	755.500
90.855	14.152	991.964	755.205
91.870	14.285	990.888	754.924
92.884	14.219	990.051	753.920
93.899	14.193	989.279	753.148
94.914	14.274	988.853	753.122
95.928	14.292	987.853	752.378
96.943	14.118	987.004	750.878
97.957	14.030	986.509	750.036
98.972	14.088	985.508	749.473
99.987	14.117	984.749	748.960
101.001	14.235	983.406	748.400
102.016	14.068	983.115	747.364
103.030	14.153	982.024	746.850
104.045	14.257	981.370	746.754
105.060	14.145	980.351	745.409
106.074	13.955	979.343	743.727
107.089	13.880	978.421	742.624
108.103	13.821	977.846	741.859
109.118	13.898	976.881	741.403
110.133	13.741	976.230	740.143
111.147	13.829	975.167	739.664
112.162	13.882	974.598	739.403
113.176	13.955	973.565	738.882
114.191	13.957	973.069	738.448
115.206	14.045	971.984	737.947
116.220	13.966	971.300	737.015
117.235	13.964	969.982	735.938
118.249	13.945	969.280	735.260
119.264	13.848	969.035	734.577
120.279	13.960	967.864	734.121
121.293	13.790	967.363	732.924
122.308	13.858	966.476	732.488
123.322	13.793	965.179	731.155
124.337	13.781	964.080	730.204
125.352	13.788	963.223	729.521
126.366	13.912	961.932	729.024
127.381	13.802	961.572	728.205
128.395	13.763	960.555	727.199
129.410	13.885	959.565	726.916
130.424	13.955	958.955	726.698
131.439	13.933	958.070	725.864
132.454	14.003	957.378	725.583
133.468	14.061	956.647	725.220
134.483	14.005	955.751	724.231
135.497	14.038	954.678	723.496
136.512	14.030	953.771	722.712
137.527	13.890	953.259	721.649
138.541	14.054	952.513	721.736
139.556	14.017	952.008	721.129
140.570	14.172	951.051	721.013
141.585	14.245	950.179	720.600
142.600	14.231	949.469	719.938
143.614	14.262	948.759	719.471
144.629	14.213	948.063	718.667
145.643	14.314	946.904	718.162
146.658	14.098	945.875	716.386
147.673	14.090	945.094	715.699
148.687	14.001	944.515	714.813
149.702	14.038	943.119	713.852
150.716	13.997	942.582	713.205
151.731	14.183	941.622	713.215
152.746	14.091	940.877	712.192
153.760	14.209	940.370	712.249
154.775	14.285	939.713	712.016
155.789	14.229	939.088	711.241
156.804	14.272	938.307	710.767
157.819	14.272	938.168	710.602
158.833	14.231	937.678	709.991
159.848	14.355	936.444	709.523
160.862	14.275	935.769	708.607
161.877	14.224	934.617	707.455
162.892	14.153	933.579	706.305
163.906	14.063	932.914	705.360
164.921	14.253	931.692	705.179
165.935	14.200	930.972	704.347
166.950	14.146	930.222	703.487
167.964	14.251	929.578	703.383
168.979	14.214	928.261	702.167
169.994	14.269	927.470	701.738
171.008	14.251	926.877	701.153
172.023	14.220	926.321	700.538
173.037	14.321	925.865	700.556
174.052	14.300	924.895	699.674
175.067	14.133	924.482	698.598
176.081	14.178	923.398	697.905
177.096	14.217	923.203	697.861
178.110	14.331	922.735	697.923
179.125	14.273	921.999	697.061
180.140	14.413	921.492	697.203
181.154	14.374	921.172	696.734
182.169	14.432	920.703	696.561
183.183	14.443	920.050	696.051
184.198	14.437	919.486	695.538
185.213	14.396	918.405	694.489
186.227	14.506	917.579	694.259
187.242	14.583	917.322	694.322
188.256	14.738	916.723	694.451
189.271	14.722	915.593	693.470
190.286	14.397	914.926	691.554
191.300	14.149	914.119	689.853
192.315	14.145	913.747	689.498
193.329	14.252	913.074	689.372
194.344	14.365	912.169	689.096
195.359	14.337	911.538	688.439
196.373	14.527	911.142	688.867
197.388	14.615	910.844	688.943
198.402	14.823	910.198	689.250
199.417	14.863	909.594	688.898
200.432	14.848	909.311	688.560
201.446	14.836	908.892	688.132
202.461	14.760	908.244	687.270
203.475	14.869	907.620	687.184
204.490	14.658	906.980	685.770
205.504	14.612	906.038	684.810
206.519	14.676	905.251	684.417
207.534	14.597	904.906	683.772
208.548	14.712	903.994	683.491
209.563	14.690	903.473	682.950
210.577	14.856	902.692	682.976
211.592	14.891	902.345	682.798
212.607	14.970	901.525	682.439
213.621	14.945	900.596	681.574
214.636	14.880	900.127	680.893
215.650	14.907	899.294	680.311
216.665	15.020	898.524	680.130
217.680	14.961	897.710	679.210
218.694	14.998	897.674	679.276
219.709	15.075	896.705	678.793
220.723	15.065	895.954	678.125
221.738	14.870	895.501	676.933
222.753	14.953	894.843	676.712
223.767	14.997	894.356	676.461
224.782	15.242	893.501	676.742
225.796	15.184	893.018	676.083
226.811	15.160	892.285	675.371
227.826	15.049	891.639	674.375
228.840	14.996	890.955	673.585
229.855	15.057	890.312	673.284
230.869	15.223	889.212	673.062
231.884	15.044	888.870	672.023
232.899	14.907	888.105	670.837
233.913	15.062	887.166	670.688
234.928	14.879	886.849	669.656
235.942	14.908	886.279	669.283
236.957	14.974	885.626	668.996
237.972	14.994	885.251	668.733
238.986	14.979	884.376	667.950
240.001	15.066	883.672	667.707
241.015	15.149	883.399	667.773
242.030	15.129	882.406	666.885
243.045	15.068	882.347	666.538
244.059	15.100	881.984	666.331
245.074	15.228	881.057	666.081
246.088	15.285	879.970	665.428
247.103	15.182	879.854	664.874
248.117	15.392	879.516	665.390
249.132	15.671	878.670	665.797
250.147	15.513	878.198	664.753
251.161	15.634	877.565	664.694
252.176	15.550	876.814	663.734
253.190	15.684	876.077	663.648
254.205	15.647	875.477	662.991
255.220	15.778	874.635	662.810
256.234	15.670	874.175	661.977
257.249	15.728	873.766	661.834
258.263	15.671	873.031	660.998
259.278	15.705	872.365	660.569
260.293	15.843	871.572	660.452
261.307	15.702	871.264	659.606
262.322	15.838	870.601	659.578
263.336	15.741	869.755	658.500
264.351	15.793	868.973	658.050
265.366	15.902	868.476	658.042
266.380	15.893	867.976	657.571
267.395	15.766	867.152	656.394
268.409	15.901	866.026	656.008
269.424	15.704	865.827	655.031
270.439	15.741	864.675	654.248
271.453	15.820	864.046	654.021
272.468	15.738	864.062	653.657
273.482	15.800	863.395	653.335
274.497	15.741	862.656	652.489
275.512	15.908	861.817	652.442
276.526	15.825	861.943	652.158
277.541	15.870	861.450	651.904
278.555	15.980	860.432	651.499
279.570	16.033	859.924	651.262
280.585	15.966	859.079	650.306
281.599	15.979	858.109	649.565
282.614	15.890	857.742	648.885
283.628	15.956	857.320	648.766
284.643	16.066	856.435	648.461
285.657	16.008	855.974	647.832
286.672	16.006	855.234	647.207
287.687	16.005	854.833	646.841
288.701	15.946	854.258	646.124
289.716	15.909	853.371	645.255
290.730	16.006	853.379	645.572
291.745	16.064	852.281	644.907
292.760	16.108	851.813	644.666
293.774	16.254	851.326	644.797
294.789	16.160	850.530	643.780
295.803	15.993	849.947	642.644
296.818	16.128	849.030	642.407
297.833	16.127	848.265	641.767
298.847	16.101	847.843	641.294
299.862	16.110	847.979	641.371
300.876	16.370	846.918	641.501
301.891	16.292	846.275	640.661
302.906	16.341	846.105	640.661
303.920	16.368	845.849	640.516
304.935	16.542	845.002	640.475
305.949	16.527	844.016	639.613
306.964	16.337	843.678	638.582
307.979	16.378	843.326	638.417
308.993	16.499	842.427	638.134
310.008	16.464	842.260	637.821
311.022	16.362	841.635	636.904
312.037	16.384	840.679	636.207
313.052	16.236	840.359	635.353
314.066	16.184	839.930	634.776
315.081	16.196	839.234	634.238
316.095	16.278	838.829	634.185
317.110	16.419	838.016	634.042
318.125	16.342	837.484	633.295
319.139	16.276	837.366	632.904
320.154	16.284	836.687	632.363
321.168	16.270	836.283	631.952
322.183	16.478	835.119	631.792
323.197	16.543	834.939	631.844
324.212	16.436	834.404	630.984
325.227	16.372	833.590	630.075
326.241	16.438	833.247	630.006
327.256	16.423	832.802	629.556
328.270	16.396	831.894	628.716
329.285	16.378	831.424	628.235
330.300	16.444	830.932	628.056
331.314	16.543	830.577	628.097
332.329	16.597	829.958	627.775
333.343	16.652	829.590	627.645
334.358	16.653	829.136	627.248
335.373	16.703	828.900	627.198
336.387	16.691	828.432	626.747
337.402	16.686	828.473	626.702
338.416	16.814	827.759	626.579
339.431	16.928	827.321	626.614
340.446	16.865	827.210	626.242
341.460	16.883	826.709	625.873
342.475	16.905	826.639	625.846
343.489	16.907	825.987	625.307
344.504	17.060	825.168	625.192
345.519	17.109	824.930	625.138
346.533	17.205	824.087	624.799
347.548	16.970	824.010	623.818
348.562	16.927	823.445	623.181
349.577	16.683	822.770	621.716
350.592	16.835	821.788	621.478
351.606	16.903	820.961	621.047
352.621	16.866	820.326	620.375
353.635	16.943	819.800	620.206
354.650	17.025	819.236	620.024
355.665	17.055	818.791	619.741
356.679	17.001	818.129	618.988
357.694	17.033	817.860	618.848
358.708	17.148	816.640	618.288
359.723	16.965	816.675	617.592
360.738	16.965	816.395	617.326
361.752	16.978	815.321	616.508
362.767	17.125	814.481	616.349
363.781	17.169	814.297	616.315
364.796	17.422	813.538	616.603
365.810	17.379	813.523	616.381
366.825	17.430	813.273	616.322
367.840	17.374	812.484	615.469
368.854	17.270	812.072	614.724
369.869	17.390	811.470	614.647
370.883	17.274	811.370	614.098
371.898	17.252	811.542	614.095
372.913	17.343	810.896	613.882
373.927	17.378	810.426	613.598
374.942	17.387	810.086	613.320
375.956	17.494	809.133	612.929
376.971	17.441	808.727	612.375
377.986	17.512	808.194	612.174
379.000	17.476	808.228	612.016
380.015	17.488	807.556	611.496
381.029	17.485	806.926	610.952
382.044	17.504	806.178	610.401
383.059	17.656	805.790	610.596
384.073	17.548	805.358	609.830
385.088	17.644	804.163	609.215
386.102	17.384	804.317	608.348
387.117	17.447	803.534	607.927
388.132	17.470	802.897	607.472
389.146	17.717	802.172	607.752
390.161	17.552	802.131	607.079
391.175	17.540	801.730	606.676
392.190	17.683	800.751	606.392
393.205	17.574	800.265	605.584
394.219	17.576	800.380	605.622
395.234	17.476	799.889	604.844
396.248	17.449	799.016	604.034
397.263	17.670	798.541	604.406
398.278	17.421	798.755	603.629
399.292	17.548	798.195	603.604
400.307	17.432	797.706	602.769
401.321	17.392	797.254	602.232
402.336	17.629	796.233	602.245
403.350	17.711	796.105	602.387
404.365	17.689	796.052	602.215
405.380	17.770	795.705	602.185
406.394	17.821	794.651	601.514
407.409	17.978	794.404	601.826
408.423	17.812	794.379	601.172
409.438	17.940	793.689	601.044
410.453	18.060	793.014	600.901
411.467	18.021	793.107	600.784
412.482	17.994	792.436	600.127
413.496	17.925	792.697	600.029
414.511	18.085	791.961	599.979
415.526	18.015	791.449	599.294
416.540	18.050	790.881	598.933
417.555	18.115	790.744	599.005
418.569	18.156	789.830	598.401
419.584	17.977	789.575	597.528
420.599	17.889	789.539	597.141
421.613	155.728	1371.005	1793.440
422.628	134.652	1455.712	1793.559
