DTS Sentinel unit serial number:	SN413079Multiplexer serial number:	ORYXHardware model number:	OX4-SRSoftware version number:	ORYX F/W v4.00 Oryx Data Collector v3.7.2.0data status	okinstallation	princeton_trtdifferential loss correction	single-endedforward channel	channel 1reverse channel	N/Adate	2019/09/18time	12:54:35forward acquisition time	60.00reverse acquisition time	0.00gamma	496.2192k internal	0.2316k external	0.2316temperature offset calibration	0.9982default loss term (dB/km)	0.3790temperature slope calibration	1.0000multiplexer offset coefficient	1.0000multiplexer slope coefficient	1.0000fibre end	0.00T internal ref (°C)	33.19T ext. ref 1 (°C)	0.56T ext. ref 2 (°C)	29.48length (m)	temperature (°C)	Stokes	anti-Stokes-747.200	-15.243	-0.108	0.070
-746.185	-200.000	0.003	0.065
-745.171	-200.000	-0.003	0.208
-744.156	571.616	-0.155	0.383
-743.142	91.420	-0.252	0.286
-742.127	-93.111	-0.292	-0.082
-741.112	127.544	0.035	-0.044
-740.098	-182.378	-0.205	0.004
-739.083	-128.657	-0.146	0.021
-738.069	800.000	-0.140	0.404
-737.054	682.786	0.058	0.152
-736.039	-139.918	-0.401	-0.043
-735.025	283.391	0.186	-0.339
-734.010	-64.792	0.151	0.062
-732.996	-93.754	-0.360	-0.100
-731.981	413.363	0.047	0.100
-730.966	226.506	0.114	-0.188
-729.952	-200.000	0.021	0.254
-728.937	174.987	0.059	0.087
-727.923	800.000	-0.064	-0.251
-726.908	-130.580	0.266	0.036
-725.894	-0.891	-0.205	0.147
-724.879	-200.000	-0.082	-0.454
-723.864	-132.694	-0.285	0.037
-722.850	-125.078	0.144	0.022
-721.835	800.000	-0.134	0.532
-720.821	-200.000	0.091	0.435
-719.806	71.350	-0.075	0.079
-718.791	55.105	-0.324	-0.317
-717.777	-200.000	-0.050	-0.306
-716.762	-132.779	0.218	-0.028
-715.748	-86.086	-0.274	-0.086
-714.733	800.000	0.043	0.128
-713.718	-146.797	0.051	-0.004
-712.704	440.559	0.099	-0.219
-711.689	800.000	0.083	-0.314
-710.675	-164.853	0.208	0.009
-709.660	-200.000	0.013	-0.104
-708.645	497.580	-0.111	0.259
-707.631	-4.162	-0.346	0.243
-706.616	413.706	-0.134	0.289
-705.602	-151.603	0.345	0.026
-704.587	103.001	-0.220	0.260
-703.572	-129.490	-0.478	0.067
-702.558	164.807	0.132	0.189
-701.543	-66.330	-0.156	-0.063
-700.529	409.567	-0.092	-0.198
-699.514	115.342	-0.185	0.229
-698.499	-200.000	0.055	0.277
-697.485	-37.123	-0.267	0.145
-696.470	-97.848	-0.519	0.136
-695.456	232.539	-0.159	-0.263
-694.441	183.295	-0.240	0.359
-693.426	-100.889	-0.295	0.073
-692.412	-200.000	0.024	0.348
-691.397	-143.533	-0.213	-0.021
-690.383	-123.277	0.218	-0.035
-689.368	-172.561	0.176	0.006
-688.354	-200.000	0.009	-0.202
-687.339	674.276	-0.025	0.066
-686.324	-200.000	0.046	0.266
-685.310	-152.252	-0.167	-0.012
-684.295	-79.427	0.209	-0.071
-683.281	45.766	-0.129	-0.121
-682.266	719.299	0.112	-0.300
-681.251	108.541	0.163	0.197
-680.237	-64.181	-0.133	0.055
-679.222	45.012	0.240	-0.223
-678.208	38.177	0.170	-0.153
-677.193	139.808	0.043	-0.057
-676.178	71.425	-0.218	0.229
-675.164	-200.000	-0.034	-0.420
-674.149	227.510	-0.151	-0.248
-673.135	-13.948	-0.183	-0.120
-672.120	-200.000	0.004	0.133
-671.105	-200.000	0.058	-0.298
-670.091	-200.000	0.009	0.314
-669.076	-200.000	0.010	0.100
-668.062	-65.099	0.264	0.108
-667.047	511.564	-0.043	0.101
-666.032	-200.000	0.417	-0.002
-665.018	-200.000	-0.002	0.265
-664.003	1.641	-0.112	-0.082
-662.989	737.637	0.007	-0.018
-661.974	-60.956	-0.135	0.058
-660.959	-48.354	-0.093	0.045
-659.945	122.863	0.151	-0.191
-658.930	67.682	-0.020	0.021
-657.916	-42.808	0.047	0.024
-656.901	-148.145	-0.162	-0.014
-655.886	-48.078	-0.115	0.056
-654.872	-200.000	-0.021	-0.146
-653.857	327.284	-0.153	-0.296
-652.843	-132.227	0.142	-0.019
-651.828	-200.000	0.017	0.168
-650.814	800.000	0.020	0.083
-649.799	-200.000	0.034	-0.194
-648.784	800.000	0.071	-0.293
-647.770	30.426	-0.257	0.222
-646.755	800.000	-0.038	0.115
-645.741	354.669	0.077	0.154
-644.726	174.078	0.160	-0.234
-643.711	-14.566	-0.093	0.060
-642.697	332.526	0.139	-0.271
-641.682	-109.953	-0.362	0.076
-640.668	13.379	-0.142	0.111
-639.653	-200.000	-0.014	-0.081
-638.638	-178.921	-0.240	0.005
-637.624	-122.522	0.123	0.020
-636.609	-68.141	-0.248	-0.097
-635.595	-200.000	0.003	0.170
-634.580	-200.000	0.034	0.262
-633.565	-37.453	-0.268	-0.144
-632.551	-200.000	0.046	-0.241
-631.536	-200.000	0.006	0.095
-630.522	319.378	0.094	0.181
-629.507	-58.791	-0.153	0.067
-628.492	14.490	-0.102	-0.080
-627.478	-61.979	0.011	0.005
-626.463	-200.000	0.040	-0.351
-625.449	-52.214	0.310	-0.145
-624.434	800.000	0.047	-0.189
-623.419	101.671	0.193	0.227
-622.405	210.603	0.198	-0.313
-621.390	526.531	-0.092	-0.218
-620.376	800.000	-0.136	0.519
-619.361	150.627	-0.125	0.171
-618.346	800.000	0.068	-0.237
-617.332	-155.601	-0.081	-0.005
-616.317	800.000	0.025	-0.094
-615.303	-108.429	0.256	-0.056
-614.288	-169.582	-0.150	-0.006
-613.273	800.000	0.048	0.155
-612.259	-67.837	-0.222	-0.088
-611.244	55.950	0.180	-0.176
-610.230	6.997	0.095	-0.071
-609.215	41.813	-0.195	-0.178
-608.201	-96.756	0.107	0.028
-607.186	-200.000	-0.026	0.338
-606.171	-28.207	-0.065	-0.038
-605.157	46.903	0.283	-0.265
-604.142	158.613	0.200	0.280
-603.128	-37.199	-0.176	-0.095
-602.113	1.678	0.188	0.137
-601.098	-131.620	0.231	-0.031
-600.084	-93.294	-0.118	-0.033
-599.069	-46.188	0.201	0.099
-598.055	-79.260	0.230	0.078
-597.040	84.540	-0.073	0.081
-596.025	-197.788	-0.150	-0.001
-595.011	15.542	-0.216	0.171
-593.996	241.281	-0.119	0.199
-592.982	40.432	-0.234	0.212
-591.967	147.813	-0.108	-0.146
-590.952	61.747	-0.145	0.146
-589.938	184.129	0.140	0.209
-588.923	800.000	-0.081	0.318
-587.909	117.991	0.136	0.169
-586.894	-13.976	0.099	-0.065
-585.879	496.768	-0.119	0.274
-584.865	800.000	-0.059	0.181
-583.850	-103.412	-0.267	0.063
-582.836	-178.735	0.390	-0.009
-581.821	-200.000	-0.026	0.125
-580.806	-184.733	-0.411	0.007
-579.792	-200.000	-0.013	0.351
-578.777	-200.000	0.012	0.225
-577.763	-11.272	-0.203	0.134
-576.748	240.374	0.204	0.341
-575.733	80.953	0.095	-0.103
-574.719	180.972	-0.267	0.394
-573.704	402.249	0.072	-0.152
-572.690	368.896	0.037	-0.075
-571.675	373.517	-0.067	-0.137
-570.661	-200.000	-0.008	-0.247
-569.646	50.162	0.042	-0.040
-568.631	-141.834	0.495	0.050
-567.617	-84.764	0.143	-0.045
-566.602	-59.269	0.216	-0.094
-565.588	-40.886	0.133	0.069
-564.573	-11.015	0.237	0.157
-563.558	-12.872	-0.291	0.190
-562.544	-200.000	-0.002	0.011
-561.529	-200.000	-0.016	-0.284
-560.515	-47.853	0.244	-0.119
-559.500	-166.188	-0.419	-0.018
-558.485	22.719	-0.180	-0.148
-557.471	73.934	0.190	-0.200
-556.456	-96.105	0.457	-0.122
-555.442	519.637	-0.053	-0.126
-554.427	64.499	-0.105	-0.106
-553.412	-104.500	0.441	0.102
-552.398	194.158	-0.156	-0.237
-551.383	-200.000	0.017	0.293
-550.369	800.000	0.079	-0.267
-549.354	62.671	-0.381	-0.382
-548.339	-159.937	-0.212	0.012
-547.325	-120.687	-0.230	0.039
-546.310	-195.220	0.304	-0.002
-545.296	-77.218	-0.158	-0.055
-544.281	93.889	0.155	-0.177
-543.266	-50.465	0.241	0.114
-542.252	-200.000	-0.028	-0.306
-541.237	73.932	0.327	-0.345
-540.223	377.945	-0.118	-0.242
-539.208	-200.000	-0.023	-0.176
-538.193	-161.270	-0.101	0.005
-537.179	-106.871	-0.247	-0.055
-536.164	800.000	-0.095	-0.344
-535.150	-177.669	-0.286	0.007
-534.135	-3.222	0.210	0.147
-533.121	222.710	0.175	-0.283
-532.106	17.951	-0.114	0.091
-531.091	-98.111	0.106	0.027
-530.077	351.874	-0.026	-0.051
-529.062	178.407	0.145	-0.213
-528.048	-200.000	-0.013	0.308
-527.033	191.632	-0.159	-0.240
-526.018	-163.407	-0.169	0.008
-525.004	-57.928	-0.131	0.057
-523.989	-149.651	0.181	-0.014
-522.975	28.141	0.250	-0.212
-521.960	-41.113	-0.492	-0.255
-520.945	159.629	-0.129	0.181
-519.931	-170.888	-0.063	0.002
-518.916	-128.748	0.121	0.017
-517.902	168.949	0.053	-0.076
-516.887	-200.000	-0.080	-0.384
-515.872	616.527	0.078	0.196
-514.858	220.345	-0.083	0.133
-513.843	11.313	-0.249	-0.192
-512.829	0.747	0.248	0.178
-511.814	-154.099	-0.167	-0.011
-510.799	800.000	0.029	-0.094
-509.785	572.867	0.036	0.088
-508.770	155.378	-0.185	0.256
-507.756	147.381	0.045	-0.060
-506.741	66.721	0.257	0.263
-505.726	545.736	0.055	-0.132
-504.712	-200.000	0.016	0.191
-503.697	-84.842	-0.229	-0.072
-502.683	8.605	0.365	0.276
-501.668	-41.422	0.054	-0.028
-500.653	-200.000	0.036	-0.245
-499.639	-140.797	0.041	0.004
-498.624	-200.000	-0.001	0.078
-497.610	328.896	0.152	0.293
-496.595	14.552	-0.242	-0.190
-495.581	81.067	0.380	0.411
-494.566	-13.506	-0.248	0.162
-493.551	-47.054	-0.149	0.073
-492.537	-64.452	0.101	-0.041
-491.522	281.916	-0.066	-0.118
-490.508	466.510	-0.103	-0.231
-489.493	-200.000	0.033	0.157
-488.478	-200.000	0.002	0.034
-487.464	533.093	-0.066	-0.157
-486.449	-200.000	0.047	-0.238
-485.435	376.765	-0.007	0.014
-484.420	-48.581	-0.178	0.086
-483.405	800.000	-0.066	0.189
-482.391	-115.409	0.167	-0.031
-481.376	140.076	-0.100	-0.132
-480.362	-95.248	0.066	-0.018
-479.347	14.908	0.221	-0.173
-478.332	497.010	-0.106	-0.244
-477.318	-67.747	0.230	0.090
-476.303	-127.432	-0.148	0.022
-475.289	800.000	0.098	-0.419
-474.274	-131.478	-0.247	-0.033
-473.259	21.894	0.065	-0.053
-472.245	54.694	0.222	-0.215
-471.230	124.990	0.189	-0.238
-470.216	-16.400	-0.116	0.073
-469.201	-18.125	-0.246	-0.154
-468.186	-157.198	0.125	-0.008
-467.172	57.482	-0.193	-0.189
-466.157	-200.000	0.125	-0.000
-465.143	800.000	0.035	0.149
-464.128	-200.000	0.012	0.431
-463.113	-48.488	-0.067	0.032
-462.099	26.358	0.244	0.204
-461.084	-118.823	-0.103	-0.018
-460.070	-200.000	0.035	0.271
-459.055	800.000	-0.059	0.190
-458.040	-165.502	-0.088	0.004
-457.026	288.857	-0.205	-0.372
-456.011	-7.494	-0.472	-0.320
-454.997	-111.874	0.265	-0.054
-453.982	496.643	0.117	0.270
-452.968	-5.198	-0.105	0.072
-451.953	800.000	0.086	0.270
-450.938	-200.000	0.010	0.070
-449.924	800.000	0.054	-0.196
-448.909	-142.539	0.143	-0.014
-447.895	-200.000	-0.121	0.000
-446.880	-200.000	-0.022	0.148
-445.865	-23.942	0.192	-0.115
-444.851	48.585	0.090	-0.084
-443.836	176.238	0.059	-0.086
-442.822	-200.000	-0.035	-0.255
-441.807	291.526	-0.045	-0.082
-440.792	-50.954	-0.139	0.065
-439.778	78.464	0.175	0.187
-438.763	1.507	-0.258	-0.186
-437.749	-28.317	-0.123	-0.071
-436.734	-38.729	-0.087	0.046
-435.719	719.154	-0.062	0.164
-434.705	-102.216	-0.134	-0.032
-433.690	-200.000	-0.014	0.462
-432.676	-182.994	-0.221	0.004
-431.661	-35.116	0.119	0.065
-430.646	138.493	-0.081	0.106
-429.632	-81.983	0.185	0.061
-428.617	-22.738	-0.488	0.295
-427.603	-200.000	0.010	-0.097
-426.588	-200.000	0.002	0.032
-425.573	74.405	-0.019	-0.020
-424.559	-12.333	-0.126	0.082
-423.544	150.173	-0.114	0.155
-422.530	-200.000	-0.052	0.325
-421.515	209.679	-0.085	0.133
-420.500	-62.847	-0.542	-0.224
-419.486	52.384	-0.233	0.222
-418.471	-65.685	0.065	-0.026
-417.457	-96.061	-0.395	0.105
-416.442	800.000	0.116	-0.466
-415.428	-45.450	0.220	-0.109
-414.413	234.115	0.103	-0.170
-413.398	-200.000	0.002	0.190
-412.384	256.065	-0.232	-0.399
-411.369	-200.000	0.001	0.022
-410.355	-145.027	0.170	-0.016
-409.340	-200.000	0.021	-0.329
-408.325	-100.117	0.198	-0.049
-407.311	449.607	-0.024	0.052
-406.296	3.345	-0.105	-0.076
-405.282	-133.153	0.192	0.024
-404.267	369.071	0.046	0.093
-403.252	17.064	0.167	0.132
-402.238	322.225	-0.132	0.252
-401.223	-142.412	-0.462	-0.045
-400.209	800.000	-0.125	-0.432
-399.194	13.669	-0.189	-0.146
-398.179	-141.295	0.417	-0.042
-397.165	-24.940	0.316	0.187
-396.150	800.000	0.085	-0.257
-395.136	800.000	-0.059	0.222
-394.121	-200.000	0.046	0.222
-393.106	89.402	-0.028	0.031
-392.092	-32.958	0.117	-0.065
-391.077	-200.000	-0.064	-0.518
-390.063	22.166	0.166	0.135
-389.048	82.276	0.387	0.419
-388.033	-19.711	0.198	0.122
-387.019	242.905	-0.169	0.282
-386.004	-200.000	0.022	0.248
-384.990	-62.170	0.072	-0.030
-383.975	800.000	-0.103	-0.349
-382.960	-101.076	0.280	0.068
-381.946	27.423	0.309	0.260
-380.931	-200.000	-0.002	-0.460
-379.917	-200.000	-0.006	-0.082
-378.902	34.770	-0.169	-0.148
-377.888	-127.779	0.294	-0.042
-376.873	80.484	0.057	-0.061
-375.858	212.374	0.095	-0.149
-374.844	-42.986	0.141	0.071
-373.829	-85.694	0.060	-0.019
-372.815	27.310	0.135	-0.113
-371.800	-28.404	-0.128	-0.074
-370.785	-124.175	0.548	-0.086
-369.771	12.419	0.200	-0.154
-368.756	-2.500	0.210	-0.147
-367.742	279.000	0.018	-0.033
-366.727	-79.972	0.314	0.105
-365.712	440.766	-0.078	0.169
-364.698	270.161	-0.073	0.128
-363.683	-94.695	-0.264	0.072
-362.669	-200.000	0.037	0.180
-361.654	22.263	-0.196	0.160
-360.639	221.119	-0.099	0.159
-359.625	-45.135	0.166	-0.082
-358.610	800.000	-0.111	-0.330
-357.596	678.503	0.140	-0.362
-356.581	33.601	-0.149	-0.129
-355.566	-200.000	-0.013	-0.087
-354.552	-43.875	-0.305	-0.153
-353.537	103.733	-0.218	-0.255
-352.523	366.851	-0.046	-0.092
-351.508	-20.251	-0.262	-0.161
-350.493	86.434	0.110	-0.121
-349.479	-200.000	-0.063	0.291
-348.464	50.731	-0.069	0.065
-347.450	-29.197	0.216	-0.123
-346.435	298.099	0.073	-0.135
-345.420	-19.585	-0.204	-0.126
-344.406	-30.770	0.308	0.174
-343.391	800.000	0.075	-0.230
-342.377	136.595	0.076	-0.099
-341.362	-200.000	-0.031	0.242
-340.348	-49.551	0.218	-0.104
-339.333	28.098	0.231	-0.195
-338.318	-96.650	0.148	-0.039
-337.304	-200.000	-0.004	-0.215
-336.289	31.684	0.144	-0.124
-335.275	-125.468	0.194	0.029
-334.260	30.785	0.283	0.242
-333.245	311.337	-0.045	0.084
-332.231	-37.949	0.231	-0.122
-331.216	-200.000	-0.010	0.056
-330.202	800.000	0.069	0.226
-329.187	-200.000	-0.009	0.116
-328.172	56.415	0.229	-0.221
-327.158	-200.000	-0.023	0.259
-326.143	-119.607	-0.275	0.047
-325.129	-80.633	0.300	-0.099
-324.114	487.693	-0.124	0.282
-323.099	-148.529	0.338	0.028
-322.085	-200.000	-0.006	0.339
-321.070	439.208	0.080	-0.175
-320.056	800.000	0.110	-0.364
-319.041	78.637	0.193	-0.206
-318.026	101.150	-0.194	-0.224
-317.012	-66.175	0.157	-0.062
-315.997	-97.138	-0.165	-0.043
-314.983	-96.531	-0.234	0.062
-313.968	115.021	-0.114	0.138
-312.953	105.197	0.120	-0.141
-311.939	-56.369	0.153	-0.068
-310.924	-98.473	-0.338	0.086
-309.910	-28.500	0.161	0.092
-308.895	-71.065	0.133	0.050
-307.880	-73.455	-0.126	-0.046
-306.866	-187.882	-0.189	-0.002
-305.851	-9.148	-0.173	0.115
-304.837	187.048	-0.076	-0.113
-303.822	-200.000	0.019	-0.277
-302.807	82.111	-0.369	0.398
-301.793	800.000	-0.025	0.107
-300.778	-72.221	0.318	0.118
-299.764	5.981	-0.091	0.067
-298.749	265.188	-0.231	0.400
-297.735	-200.000	0.023	0.187
-296.720	33.510	-0.298	-0.258
-295.705	-58.209	0.214	-0.093
-294.691	-39.423	0.341	-0.178
-293.676	-200.000	0.044	-0.316
-292.662	-123.151	0.069	-0.011
-291.647	-200.000	-0.011	0.131
-290.632	-37.199	0.196	-0.104
-289.618	19.708	0.196	0.157
-288.603	-148.253	-0.205	0.017
-287.589	-171.884	-0.248	-0.008
-286.574	-200.000	0.009	0.236
-285.559	89.325	-0.178	-0.198
-284.545	114.201	0.162	0.196
-283.530	0.945	0.327	0.233
-282.516	331.797	0.246	0.472
-281.501	800.000	0.009	-0.036
-280.486	588.672	-0.159	0.390
-279.472	-152.889	0.143	0.010
-278.457	-200.000	-0.049	0.257
-277.443	138.999	-0.106	0.138
-276.428	-172.946	0.267	-0.008
-275.413	-169.742	-0.269	-0.010
-274.399	800.000	0.037	0.110
-273.384	-120.787	0.458	-0.077
-272.370	800.000	-0.060	-0.169
-271.355	40.653	-0.161	0.144
-270.340	-68.843	0.091	-0.035
-269.326	-171.555	0.217	-0.007
-268.311	-200.000	-0.045	-0.356
-267.297	800.000	0.010	-0.031
-266.282	15.429	-0.301	0.235
-265.267	511.959	-0.053	0.123
-264.253	49.184	-0.286	0.267
-263.238	44.687	-0.139	-0.127
-262.224	36.017	-0.134	-0.117
-261.209	-114.392	0.254	0.049
-260.195	-7.357	-0.071	0.048
-259.180	-200.000	-0.018	-0.253
-258.165	-115.386	0.194	0.036
-257.151	48.886	-0.182	0.170
-256.136	23.216	0.228	-0.186
-255.122	365.660	0.028	-0.056
-254.107	-162.628	-0.445	0.022
-253.092	-146.268	0.487	0.042
-252.078	-75.426	-0.157	-0.056
-251.063	28.367	-0.215	0.181
-250.049	-200.000	-0.023	0.195
-249.034	800.000	-0.019	0.076
-248.019	-200.000	0.041	0.188
-247.005	800.000	-0.053	-0.157
-245.990	59.032	-0.004	-0.004
-244.976	321.637	-0.156	-0.295
-243.961	-90.286	-0.174	-0.050
-242.946	-200.000	-0.004	0.073
-241.932	-147.873	-0.228	-0.019
-240.917	-80.853	-0.185	-0.061
-239.903	65.059	0.168	-0.168
-238.888	144.208	0.226	-0.299
-237.873	800.000	0.024	0.074
-236.859	623.764	-0.170	-0.425
-235.844	494.637	0.064	0.145
-234.830	-5.873	0.211	0.143
-233.815	-200.000	-0.008	0.218
-232.800	-200.000	-0.013	-0.242
-231.786	-112.116	-0.189	0.038
-230.771	-127.861	-0.081	0.012
-229.757	114.892	-0.102	0.123
-228.742	-120.804	0.284	0.047
-227.727	220.375	-0.104	-0.165
-226.713	-152.557	-0.146	0.010
-225.698	44.154	-0.211	0.192
-224.684	800.000	-0.073	0.283
-223.669	44.145	-0.145	0.132
-222.655	342.717	-0.052	-0.101
-221.640	-153.377	0.248	-0.017
-220.625	134.316	-0.210	-0.270
-219.611	20.687	-0.220	-0.177
-218.596	-183.653	-0.429	-0.007
-217.582	-67.681	0.426	-0.165
-216.567	348.833	0.080	0.157
-215.552	92.182	-0.159	-0.178
-214.538	800.000	0.101	0.348
-213.523	566.161	0.137	0.329
-212.509	-62.910	-0.217	0.089
-211.494	491.164	0.033	0.076
-210.479	413.467	0.079	-0.167
-209.465	-15.380	0.187	0.119
-208.450	800.000	-0.029	0.095
-207.436	782.099	0.015	0.041
-206.421	-15.628	0.220	0.139
-205.406	31.239	0.219	-0.186
-204.392	800.000	-0.063	0.253
-203.377	296.067	-0.106	-0.193
-202.363	-11.977	0.171	-0.111
-201.348	-199.198	-0.097	-0.001
-200.333	696.298	0.064	0.167
-199.319	-200.000	0.035	-0.198
-198.304	678.955	0.082	0.212
-197.290	-200.000	-0.062	-0.360
-196.275	-82.732	-0.036	0.011
-195.260	-200.000	-0.005	-0.146
-194.246	-74.308	-0.318	0.114
-193.231	-147.114	-0.210	0.018
-192.217	-55.641	0.313	-0.139
-191.202	96.178	-0.095	-0.108
-190.187	-152.414	-0.289	0.021
-189.173	-200.000	0.008	-0.104
-188.158	26.223	-0.192	0.159
-187.144	125.566	0.180	0.226
-186.129	119.919	-0.168	0.206
-185.114	79.725	0.169	0.179
-184.100	64.682	0.053	-0.053
-183.085	-200.000	0.189	0.000
-182.071	-200.000	0.070	-0.346
-181.056	15.228	-0.181	0.141
-180.042	247.359	-0.094	-0.157
-179.027	-200.000	0.004	-0.326
-178.012	-28.998	-0.288	-0.164
-176.998	91.105	0.226	0.251
-175.983	-200.000	-0.005	0.193
-174.969	265.518	0.071	-0.123
-173.954	800.000	-0.046	0.168
-172.939	637.475	0.053	0.134
-171.925	-39.530	-0.230	0.119
-170.910	-73.593	-0.355	0.128
-169.896	800.000	0.111	0.411
-168.881	189.742	0.028	-0.042
-167.866	785.389	0.026	-0.071
-166.852	-33.431	0.241	0.132
-165.837	169.098	0.093	0.131
-164.823	-200.000	-0.016	-0.109
-163.808	103.259	-0.006	-0.007
-162.793	72.643	0.179	0.185
-161.779	-158.534	-0.189	0.011
-160.764	-94.981	-0.341	0.091
-159.750	-200.000	-0.013	-0.443
-158.735	-114.139	0.170	0.032
-157.720	386.056	-0.093	-0.190
-156.706	-114.111	0.147	0.028
-155.691	-200.000	-0.048	0.213
-154.677	800.000	0.081	0.269
-153.662	-200.000	0.034	-0.194
-152.647	-153.156	0.279	-0.019
-151.633	-71.567	-0.306	0.113
-150.618	800.000	0.060	0.228
-149.604	-200.000	-0.024	0.167
-148.589	-71.497	-0.217	0.080
-147.574	-27.641	-0.244	0.140
-146.560	417.174	0.056	-0.119
-145.545	-200.000	0.025	0.137
-144.531	127.143	0.320	0.402
-143.516	38.530	-0.100	0.089
-142.502	-124.649	0.134	-0.021
-141.487	-38.641	-0.216	0.113
-140.472	630.669	0.117	-0.294
-139.458	65.928	-0.173	-0.173
-138.443	21.724	-0.053	-0.043
-137.429	-118.508	0.225	-0.039
-136.414	-200.000	-0.007	-0.183
-135.399	-112.884	0.236	0.046
-134.385	133.777	0.286	-0.366
-133.370	158.679	0.075	0.102
-132.356	-59.176	0.354	0.151
-131.341	-164.384	0.381	-0.017
-130.326	207.138	-0.065	0.100
-129.312	-200.000	0.050	0.224
-128.297	-129.859	0.264	-0.036
-127.283	-41.468	0.237	-0.121
-126.268	37.944	-0.364	-0.320
-125.253	404.961	0.118	-0.245
-124.239	104.801	-0.094	-0.109
-123.224	-104.350	-0.058	-0.013
-122.210	-31.774	-0.173	0.096
-121.195	-46.102	0.204	-0.099
-120.180	-200.000	-0.038	0.298
-119.166	-108.729	-0.301	-0.064
-118.151	-105.686	0.283	0.063
-117.137	38.345	-0.156	-0.137
-116.122	-42.021	0.327	-0.166
-115.107	181.476	-0.142	-0.206
-114.093	-145.922	-0.108	0.009
-113.078	-37.279	-0.210	-0.111
-112.064	373.922	-0.071	-0.143
-111.049	-100.440	0.314	0.077
-110.034	-99.201	0.236	0.059
-109.020	800.000	-0.080	0.240
-108.005	15.551	-0.238	0.184
-106.991	-94.059	0.078	0.021
-105.976	417.247	0.096	-0.203
-104.962	-84.547	-0.071	0.022
-103.947	-41.300	0.017	-0.009
-102.932	-123.986	0.038	0.006
-101.918	-3.353	-0.110	-0.076
-100.903	-21.430	0.333	0.201
-99.889	19.800	0.075	0.060
-98.874	-200.000	0.030	-0.196
-97.859	128.781	-0.139	0.175
-96.845	409.176	-0.078	-0.164
-95.830	-124.232	0.140	0.022
-94.816	-200.000	-0.004	0.257
-93.801	-61.403	-0.201	0.083
-92.786	-139.833	0.107	-0.011
-91.772	109.340	0.163	0.192
-90.757	-60.207	0.127	-0.054
-89.743	-59.683	0.068	-0.029
-88.728	46.281	-0.241	-0.221
-87.713	-9.206	0.128	-0.084
-86.699	794.806	0.081	0.220
-85.684	-50.491	-0.394	-0.184
-84.670	-76.018	-0.254	0.088
-83.655	-65.847	0.236	-0.093
-82.640	75.195	0.223	-0.232
-81.626	125.864	0.156	-0.194
-80.611	57.085	-0.121	0.117
-79.597	-200.000	-0.008	0.065
-78.582	-127.468	-0.051	0.007
-77.567	44.294	-0.076	0.069
-76.553	-65.770	-0.128	-0.051
-75.538	-25.265	-0.209	0.122
-74.524	101.874	0.235	0.271
-73.509	-44.698	-0.170	0.084
-72.494	-117.003	0.020	0.004
-71.480	47.535	-0.136	-0.126
-70.465	51.914	0.016	0.015
-69.451	13.855	0.174	0.133
-68.436	-35.333	0.353	-0.189
-67.422	156.979	0.158	-0.215
-66.407	-99.869	-0.252	0.062
-65.392	-92.342	0.081	-0.023
-64.378	24.623	0.038	0.031
-63.363	-85.905	0.062	-0.019
-62.349	55.163	0.075	0.071
-61.334	200.131	-0.569	-0.862
-60.319	-20.398	0.653	0.396
-59.305	260.072	-0.446	-0.760
-58.290	115.780	0.681	0.821
-57.276	329.044	0.744	1.410
-56.261	-200.000	95.040	539.750
-55.246	480.135	1436.967	3212.218
-54.232	146.660	2643.464	3501.562
-53.217	108.685	2217.870	2611.878
-52.203	44.606	1656.417	1500.904
-51.188	36.640	1386.915	1207.193
-50.173	33.568	1343.751	1150.965
-49.159	54.608	1389.841	1320.669
-48.144	56.817	1407.220	1350.751
-47.130	36.829	1365.534	1189.558
-46.115	33.431	1348.019	1153.602
-45.100	33.091	1343.653	1147.755
-44.086	33.042	1341.486	1145.558
-43.071	33.077	1338.803	1143.437
-42.057	33.038	1337.079	1141.681
-41.042	33.171	1335.023	1140.682
-40.027	33.140	1333.783	1139.392
-39.013	33.096	1331.868	1137.444
-37.998	33.012	1330.371	1135.615
-36.984	33.247	1328.326	1135.235
-35.969	33.267	1326.561	1133.803
-34.954	33.223	1324.786	1131.981
-33.940	33.305	1323.067	1130.956
-32.925	33.349	1321.937	1130.209
-31.911	33.319	1320.376	1128.648
-30.896	33.218	1318.738	1126.604
-29.881	33.362	1317.253	1126.148
-28.867	33.354	1315.702	1124.726
-27.852	33.435	1314.218	1123.895
-26.838	33.322	1313.104	1122.229
-25.823	33.249	1312.405	1121.154
-24.809	33.244	1310.548	1119.493
-23.794	33.243	1309.308	1118.383
-22.779	33.237	1307.534	1116.790
-21.765	33.232	1306.414	1115.757
-20.750	33.254	1305.073	1114.698
-19.736	33.099	1304.154	1112.955
-18.721	33.117	1302.873	1111.925
-17.706	33.163	1301.770	1111.208
-16.692	33.225	1299.982	1110.004
-15.677	33.094	1299.688	1108.939
-14.663	33.046	1298.798	1107.853
-13.648	33.028	1297.408	1106.519
-12.633	33.089	1296.125	1105.739
-11.619	33.088	1295.366	1105.040
-10.604	33.149	1294.202	1104.361
-9.590	33.148	1293.264	1103.508
-8.575	33.054	1292.499	1102.268
-7.560	33.110	1291.619	1101.799
-6.546	33.105	1290.456	1100.734
-5.531	33.109	1289.880	1100.224
-4.517	33.052	1288.953	1099.058
-3.502	33.059	1287.954	1098.202
-2.487	33.063	1287.339	1097.657
-1.473	33.146	1283.232	1094.588
-0.458	32.094	1268.569	1076.017
0.556	27.158	1250.908	1036.448
1.571	23.387	1256.227	1019.123
2.586	21.753	1271.409	1021.828
3.600	20.409	1259.505	1004.403
4.615	14.903	1183.293	913.545
5.629	5.578	1103.466	804.136
6.644	0.881	1081.947	764.689
7.659	0.514	1079.308	760.906
8.673	0.478	1078.785	760.291
9.688	0.388	1077.609	758.940
10.702	0.757	1075.545	759.274
11.717	5.957	1082.813	790.573
12.731	14.400	1093.632	841.190
13.746	17.502	1097.241	859.574
14.761	17.268	1095.663	857.085
15.775	16.274	1094.689	851.234
16.790	15.358	1092.076	844.520
17.804	14.511	1090.839	839.225
18.819	14.317	1089.415	837.084
19.834	13.944	1088.090	834.116
20.848	13.614	1087.821	832.181
21.863	13.551	1086.680	830.920
22.877	13.295	1085.893	828.957
23.892	13.366	1084.790	828.397
24.907	13.246	1084.198	827.276
25.921	13.378	1083.358	827.218
26.936	13.271	1083.198	826.488
27.950	13.424	1081.826	826.132
28.965	13.396	1080.484	824.894
29.980	13.476	1079.296	824.312
30.994	13.523	1077.977	823.470
32.009	13.597	1077.264	823.217
33.023	13.529	1076.255	822.038
34.038	13.496	1075.375	821.127
35.053	13.496	1074.278	820.217
36.067	13.520	1073.210	819.447
37.082	13.472	1072.567	818.647
38.096	13.457	1071.880	817.975
39.111	13.541	1071.036	817.676
40.126	13.401	1070.176	816.254
41.140	13.383	1068.874	815.103
42.155	13.343	1067.786	814.005
43.169	13.388	1066.775	813.380
44.184	13.339	1065.571	812.150
45.199	13.285	1064.575	811.057
46.213	13.354	1063.363	810.396
47.228	13.370	1062.274	809.574
48.242	13.320	1061.547	808.707
49.257	13.365	1060.491	808.050
50.271	13.439	1059.213	807.365
51.286	13.573	1058.449	807.365
52.301	13.446	1057.613	806.035
53.315	13.374	1056.504	804.770
54.330	13.249	1055.883	803.614
55.344	13.355	1054.862	803.281
56.359	13.315	1054.116	802.449
57.374	13.329	1053.088	801.663
58.388	13.248	1052.586	800.818
59.403	13.338	1051.358	800.250
60.417	13.227	1050.695	799.135
61.432	13.281	1049.585	798.482
62.447	13.369	1048.773	798.217
63.461	13.164	1048.134	796.671
64.476	13.259	1047.169	796.330
65.490	13.321	1046.499	796.048
66.505	13.390	1045.573	795.603
67.520	13.285	1045.155	794.710
68.534	13.406	1043.774	794.170
69.549	13.284	1043.578	793.367
70.563	13.202	1043.131	792.562
71.578	13.185	1041.645	791.282
72.593	13.189	1041.186	790.884
73.607	13.276	1040.489	790.700
74.622	13.201	1039.891	789.815
75.636	13.200	1039.141	789.173
76.651	13.291	1038.307	788.901
77.666	13.134	1038.470	788.207
78.680	13.184	1037.321	787.506
79.695	13.343	1036.174	787.319
80.709	13.378	1035.364	786.802
81.724	13.282	1034.850	785.886
82.739	13.269	1034.370	785.389
83.753	13.448	1033.527	785.529
84.768	13.494	1032.579	784.958
85.782	13.443	1031.379	783.737
86.797	13.444	1030.395	782.922
87.812	13.398	1029.345	781.837
88.826	13.501	1028.441	781.568
89.841	13.508	1027.723	780.988
90.855	13.527	1026.588	780.145
91.870	13.598	1025.697	779.733
92.884	13.557	1025.073	778.996
93.899	13.488	1024.386	778.082
94.914	13.506	1023.300	777.271
95.928	13.518	1022.412	776.584
96.943	13.483	1021.681	775.798
97.957	13.457	1021.030	775.113
98.972	13.383	1020.051	773.952
99.987	13.504	1018.907	773.581
101.001	13.534	1018.116	773.055
102.016	13.511	1017.481	772.395
103.030	13.594	1015.965	771.566
104.045	13.513	1015.719	770.931
105.060	13.502	1014.659	770.005
106.074	13.396	1013.766	768.768
107.089	13.339	1012.835	767.732
108.103	13.374	1011.957	767.159
109.118	13.303	1011.195	766.183
110.133	13.362	1010.313	765.722
111.147	13.451	1009.240	765.253
112.162	13.387	1008.373	764.230
113.176	13.482	1007.522	763.956
114.191	13.410	1007.303	763.391
115.206	13.431	1006.329	762.681
116.220	13.424	1005.375	761.860
117.235	13.437	1004.611	761.274
118.249	13.524	1003.383	760.675
119.264	13.498	1002.442	759.777
120.279	13.442	1001.558	758.780
121.293	13.502	1001.180	758.704
122.308	13.482	1000.244	757.835
123.322	13.467	999.617	757.226
124.337	13.444	998.376	756.114
125.352	13.493	997.629	755.701
126.366	13.522	996.120	754.626
127.381	13.567	994.644	753.646
128.395	13.550	993.702	752.785
129.410	13.506	993.326	752.235
130.424	13.540	992.253	751.512
131.439	13.578	991.501	751.048
132.454	13.521	990.906	750.274
133.468	13.567	989.795	749.574
134.483	13.644	988.974	749.235
135.497	13.613	987.823	748.157
136.512	13.551	987.217	747.348
137.527	13.446	986.285	746.105
138.541	13.578	985.788	746.256
139.556	13.548	985.099	745.536
140.570	13.626	984.234	745.164
141.585	13.771	983.330	745.066
142.600	13.672	982.537	743.954
143.614	13.727	981.145	743.082
144.629	13.787	980.791	743.016
145.643	13.827	979.481	742.136
146.658	13.700	978.803	740.989
147.673	13.683	978.048	740.278
148.687	13.653	977.096	739.359
149.702	13.600	976.542	738.636
150.716	13.599	976.031	738.182
151.731	13.577	974.978	737.222
152.746	13.622	974.478	736.979
153.760	13.571	973.894	736.245
154.775	13.634	973.373	736.066
155.789	13.737	972.413	735.733
156.804	13.775	971.472	735.121
157.819	13.680	971.151	734.392
158.833	13.832	970.451	734.471
159.848	13.886	969.359	733.819
160.862	13.788	968.701	732.824
161.877	13.734	967.390	731.528
162.892	13.626	966.749	730.501
163.906	13.793	965.573	730.287
164.921	13.828	964.860	729.832
165.935	13.881	963.702	729.127
166.950	13.793	962.998	728.144
167.964	13.741	962.078	727.154
168.979	13.725	961.277	726.415
169.994	13.783	960.170	725.768
171.008	13.806	959.346	725.184
172.023	14.001	958.752	725.520
173.037	13.856	958.055	724.298
174.052	13.854	957.372	723.705
175.067	13.835	956.606	722.979
176.081	13.777	956.342	722.467
177.096	13.747	955.726	721.808
178.110	13.826	955.095	721.610
179.125	13.820	954.406	720.999
180.140	13.981	953.368	720.848
181.154	13.990	953.096	720.618
182.169	13.956	952.663	720.081
183.183	14.083	952.020	720.079
184.198	14.074	950.788	719.045
185.213	13.980	950.629	718.454
186.227	13.951	949.937	717.745
187.242	14.150	949.004	717.833
188.256	14.103	948.886	717.480
189.271	14.053	947.842	716.409
190.286	13.974	946.860	715.266
191.300	13.904	946.454	714.591
192.315	13.839	946.161	714.027
193.329	13.910	945.487	713.762
194.344	13.957	944.752	713.348
195.359	14.086	944.032	713.295
196.373	14.098	943.408	712.812
197.388	14.208	943.104	712.988
198.402	14.286	942.195	712.571
199.417	14.124	941.927	711.611
200.432	14.217	941.424	711.566
201.446	14.391	940.816	711.787
202.461	14.379	940.075	711.114
203.475	14.422	939.671	710.926
204.490	14.307	939.073	709.924
205.504	14.262	938.031	708.880
206.519	14.289	937.303	708.384
207.534	14.109	936.926	707.268
208.548	14.297	935.891	707.226
209.563	14.297	935.359	706.761
210.577	14.297	934.568	706.099
211.592	14.375	933.789	705.781
212.607	14.408	933.280	705.472
213.621	14.588	932.017	705.217
214.636	14.446	931.663	704.285
215.650	14.511	930.879	703.905
216.665	14.533	930.707	703.803
217.680	14.524	930.013	703.181
218.694	14.486	929.507	702.576
219.709	14.457	928.594	701.700
220.723	14.569	927.851	701.550
221.738	14.506	927.025	700.596
222.753	14.575	926.136	700.154
223.767	14.579	925.687	699.769
224.782	14.645	925.058	699.508
225.796	14.644	924.862	699.294
226.811	14.637	924.352	698.814
227.826	14.610	923.342	697.877
228.840	14.655	922.466	697.340
229.855	14.579	921.786	696.450
230.869	14.613	920.849	695.821
231.884	14.579	920.431	695.303
232.899	14.674	919.450	694.894
233.913	14.738	918.995	694.754
234.928	14.571	918.192	693.393
235.942	14.551	917.569	692.777
236.957	14.650	917.431	693.025
237.972	14.711	916.436	692.465
238.986	14.702	915.816	691.899
240.001	14.833	915.046	691.794
241.015	14.772	914.475	691.052
242.030	14.634	914.551	690.475
243.045	14.693	913.527	689.888
244.059	14.733	912.661	689.336
245.074	14.672	912.311	688.759
246.088	14.754	911.735	688.602
247.103	14.814	910.900	688.158
248.117	14.952	910.258	688.177
249.132	14.924	909.640	687.536
250.147	15.020	908.747	687.195
251.161	15.012	908.429	686.859
252.176	15.055	907.747	686.460
253.190	15.103	907.141	686.137
254.205	15.179	906.005	685.526
255.220	15.093	905.779	684.946
256.234	15.173	905.021	684.639
257.249	15.125	904.498	683.987
258.263	15.179	903.267	683.214
259.278	15.249	902.738	683.040
260.293	15.205	902.143	682.350
261.307	15.260	901.631	682.126
262.322	15.306	901.167	681.903
263.336	15.393	900.305	681.542
264.351	15.347	899.621	680.779
265.366	15.410	898.579	680.186
266.380	15.353	898.426	679.776
267.395	15.380	897.577	679.184
268.409	15.428	896.785	678.719
269.424	15.306	896.357	677.840
270.439	15.294	895.462	677.056
271.453	15.341	894.996	676.833
272.468	15.312	894.546	676.318
273.482	15.452	893.318	675.893
274.497	15.348	892.907	675.104
275.512	15.514	892.373	675.306
276.526	15.469	891.787	674.622
277.541	15.444	892.018	674.637
278.555	15.436	891.149	673.887
279.570	15.527	890.216	673.487
280.585	15.630	889.076	672.977
281.599	15.441	888.893	672.022
282.614	15.554	887.888	671.657
283.628	15.574	887.445	671.342
284.643	15.624	886.687	670.907
285.657	15.536	886.466	670.333
286.672	15.610	885.568	669.886
287.687	15.679	884.872	669.577
288.701	15.688	884.442	669.226
289.716	15.614	883.760	668.357
290.730	15.643	883.175	667.972
291.745	15.734	882.611	667.847
292.760	15.876	882.066	667.940
293.774	15.710	881.474	666.774
294.789	15.659	880.570	665.831
295.803	15.749	880.059	665.739
296.818	15.655	879.180	664.643
297.833	15.666	878.659	664.234
298.847	15.762	877.955	664.024
299.862	15.843	877.191	663.706
300.876	15.911	876.749	663.582
301.891	15.769	876.229	662.570
302.906	15.815	875.856	662.409
303.920	15.885	875.227	662.150
304.935	15.971	874.689	662.024
305.949	16.013	873.843	661.489
306.964	15.771	873.654	660.340
307.979	15.894	872.946	660.225
308.993	15.902	872.273	659.691
310.008	16.032	871.763	659.757
311.022	16.102	871.063	659.440
312.037	16.104	870.386	658.877
313.052	15.979	869.963	658.010
314.066	15.922	869.512	657.388
315.081	16.061	869.086	657.551
316.095	16.084	868.116	656.851
317.110	16.106	867.391	656.328
318.125	16.117	867.070	656.068
319.139	15.943	866.965	655.254
320.154	16.113	865.824	654.996
321.168	16.224	865.494	655.120
322.183	16.194	864.710	654.352
323.197	16.105	864.560	653.833
324.212	16.184	863.880	653.570
325.227	16.083	863.303	652.684
326.241	16.167	862.677	652.476
327.256	16.225	861.942	652.088
328.270	16.197	861.420	651.526
329.285	16.159	861.027	651.024
330.300	16.249	860.374	650.820
331.314	16.174	860.128	650.287
332.329	16.174	859.403	649.683
333.343	16.279	859.271	649.929
334.358	16.237	858.522	649.145
335.373	16.323	857.891	648.939
336.387	16.266	857.496	648.365
337.402	16.271	857.736	648.507
338.416	16.367	857.449	648.603
339.431	16.489	856.556	648.338
340.446	16.428	856.123	647.720
341.460	16.423	855.883	647.460
342.475	16.441	855.557	647.227
343.489	16.467	855.375	647.128
344.504	16.663	854.424	647.103
345.519	16.574	853.832	646.256
346.533	16.500	853.631	645.766
347.548	16.555	853.111	645.523
348.562	16.621	852.296	645.102
349.577	16.606	851.550	644.424
350.592	16.526	851.147	643.757
351.606	16.544	850.635	643.382
352.621	16.578	849.665	642.720
353.635	16.592	848.960	642.183
354.650	16.554	848.603	641.712
355.665	16.654	848.090	641.646
356.679	16.639	847.380	640.996
357.694	16.591	846.857	640.361
358.708	16.689	845.812	639.886
359.723	16.711	845.741	639.858
360.738	16.830	844.558	639.355
361.752	16.644	844.289	638.392
362.767	16.756	843.562	638.211
363.781	16.827	843.317	638.236
364.796	16.853	842.654	637.775
365.810	16.823	842.450	637.452
366.825	16.898	842.063	637.384
367.840	16.923	841.376	636.902
368.854	16.977	840.897	636.685
369.869	16.797	840.778	635.862
370.883	16.879	839.881	635.435
371.898	17.061	839.769	635.976
372.913	16.899	839.516	635.123
373.927	17.077	838.321	634.825
374.942	17.009	838.496	634.651
375.956	17.071	837.949	634.412
376.971	17.107	837.572	634.202
377.986	17.006	836.830	633.210
379.000	17.112	836.543	633.331
380.015	17.182	835.916	633.063
381.029	17.092	835.301	632.204
382.044	17.108	834.420	631.543
383.059	17.239	834.220	631.822
384.073	17.206	833.643	631.203
385.088	17.209	832.936	630.626
386.102	17.159	832.631	630.152
387.117	17.271	832.036	630.064
388.132	17.197	831.363	629.222
389.146	17.263	830.630	628.857
390.161	17.491	829.778	628.999
391.175	17.478	829.353	628.573
392.190	17.340	828.871	627.643
393.205	17.184	829.019	627.123
394.219	17.231	828.547	626.886
395.234	17.313	827.943	626.672
396.248	17.299	827.777	626.443
397.263	17.318	827.389	626.163
398.278	17.160	827.039	625.259
399.292	17.325	826.289	625.245
400.307	17.379	825.876	625.076
401.321	17.330	825.497	624.554
402.336	17.214	824.929	623.643
403.350	17.389	824.574	623.961
404.365	17.446	823.991	623.675
405.380	17.492	823.338	623.290
406.394	17.393	823.411	622.928
407.409	17.497	822.540	622.596
408.423	17.537	822.141	622.384
409.438	17.572	821.723	622.140
410.453	17.611	821.132	621.781
411.467	17.685	820.816	621.758
412.482	17.708	820.125	621.262
413.496	17.730	819.713	620.977
414.511	17.629	819.695	620.540
415.526	17.712	819.352	620.525
416.540	17.711	818.639	619.928
417.555	17.828	818.195	619.962
418.569	17.773	818.127	619.655
419.584	17.702	817.405	618.795
420.599	17.765	816.831	618.534
421.613	106.525	1288.459	1453.597
422.628	92.044	1357.188	1453.680
