DTS Sentinel unit serial number:	SN413079Multiplexer serial number:	ORYXHardware model number:	OX4-SRSoftware version number:	ORYX F/W v4.00 Oryx Data Collector v3.7.2.0data status	okinstallation	princeton_trtdifferential loss correction	single-endedforward channel	channel 1reverse channel	N/Adate	2019/09/18time	15:10:35forward acquisition time	60.00reverse acquisition time	0.00gamma	496.2192k internal	0.2305k external	0.2305temperature offset calibration	0.9987default loss term (dB/km)	0.3790temperature slope calibration	1.0000multiplexer offset coefficient	1.0000multiplexer slope coefficient	1.0000fibre end	0.00T internal ref (°C)	35.44T ext. ref 1 (°C)	0.75T ext. ref 2 (°C)	32.71length (m)	temperature (°C)	Stokes	anti-Stokes-747.200	-108.016	-0.105	0.023
-746.185	-65.255	-0.113	0.046
-745.171	6.528	-0.120	0.091
-744.156	-200.000	0.074	0.564
-743.142	86.670	-0.270	-0.304
-742.127	-200.000	-0.068	0.489
-741.112	210.779	-0.170	-0.272
-740.098	475.220	-0.021	-0.049
-739.083	800.000	0.109	0.409
-738.069	379.227	0.085	0.177
-737.054	-102.834	-0.164	0.040
-736.039	52.836	0.175	0.171
-735.025	-178.329	0.233	0.006
-734.010	-67.410	-0.393	-0.157
-732.996	-175.916	-0.287	0.008
-731.981	-132.914	0.253	0.033
-730.966	-42.217	0.177	-0.092
-729.952	-200.000	0.017	0.174
-728.937	-69.728	0.092	0.036
-727.923	691.403	-0.061	-0.163
-726.908	-200.000	0.032	-0.149
-725.894	463.819	0.031	-0.070
-724.879	-70.127	-0.220	0.085
-723.864	-63.361	0.221	-0.093
-722.850	234.262	0.128	-0.215
-721.835	-5.408	-0.189	0.132
-720.821	-168.487	0.192	0.007
-719.806	800.000	0.051	0.152
-718.791	-170.411	-0.236	-0.008
-717.777	-200.000	0.020	-0.238
-716.762	-110.112	-0.415	-0.088
-715.748	437.552	0.062	0.137
-714.733	800.000	-0.077	-0.251
-713.718	-200.000	0.053	-0.351
-712.704	2.276	-0.166	-0.122
-711.689	229.634	-0.104	0.173
-710.675	-200.000	-0.002	0.147
-709.660	197.183	-0.172	0.267
-708.645	136.403	-0.133	-0.176
-707.631	288.107	0.138	0.254
-706.616	-112.597	-0.341	-0.069
-705.602	-191.462	-0.067	-0.001
-704.587	50.608	0.295	-0.284
-703.572	9.362	-0.249	0.191
-702.558	666.865	-0.040	0.106
-701.543	4.035	-0.123	0.091
-700.529	-121.025	-0.154	0.026
-699.514	-55.120	0.164	0.075
-698.499	694.588	0.095	0.252
-697.485	-200.000	0.005	-0.095
-696.470	412.270	-0.156	-0.338
-695.456	800.000	-0.055	0.229
-694.441	-99.419	-0.228	-0.058
-693.426	128.895	-0.111	-0.144
-692.412	-77.196	-0.234	0.083
-691.397	178.049	-0.036	0.054
-690.383	41.725	-0.239	-0.220
-689.368	-10.223	0.180	-0.121
-688.354	-200.000	-0.053	-0.358
-687.339	-101.771	-0.245	0.060
-686.324	-11.981	-0.230	0.153
-685.310	-122.446	0.334	0.055
-684.295	-154.025	-0.328	-0.023
-683.281	-172.220	0.281	-0.009
-682.266	-78.979	0.042	0.014
-681.251	560.647	0.072	0.177
-680.237	364.749	-0.117	0.239
-679.222	-35.066	-0.152	-0.084
-678.208	-83.617	0.161	-0.052
-677.193	52.591	0.111	-0.107
-676.178	493.319	0.130	-0.302
-675.164	-200.000	-0.032	-0.181
-674.149	-51.575	-0.220	0.104
-673.135	-200.000	0.034	0.202
-672.120	-84.968	0.218	-0.069
-671.105	-200.000	-0.014	0.073
-670.091	-200.000	-0.034	0.319
-669.076	141.160	0.060	-0.081
-668.062	-128.655	0.184	-0.026
-667.047	361.593	-0.138	0.282
-666.032	-71.762	-0.171	-0.065
-665.018	18.879	0.337	-0.274
-664.003	-200.000	0.012	-0.169
-662.989	48.340	-0.182	-0.172
-661.974	-65.398	0.257	0.105
-660.959	238.319	-0.092	-0.156
-659.945	-200.000	-0.083	-0.456
-658.930	-200.000	-0.157	0.000
-657.916	-200.000	0.010	0.046
-656.901	575.168	-0.125	-0.308
-655.886	301.991	0.026	-0.049
-654.872	482.009	-0.070	-0.161
-653.857	10.969	0.226	-0.175
-652.843	-200.000	-0.013	-0.120
-651.828	-143.435	0.094	0.009
-650.814	9.743	0.376	-0.289
-649.799	-200.000	-0.032	-0.247
-648.784	-200.000	0.055	-0.355
-647.770	-103.660	0.351	-0.083
-646.755	-200.000	0.015	-0.115
-645.741	-89.589	0.364	0.108
-644.726	489.573	-0.040	-0.093
-643.711	-200.000	-0.006	-0.400
-642.697	492.451	0.026	-0.061
-641.682	-158.577	0.233	-0.014
-640.668	-200.000	-0.000	0.044
-639.653	253.274	-0.164	0.284
-638.638	-115.285	-0.191	-0.037
-637.624	-26.768	-0.047	0.028
-636.609	-85.447	-0.322	-0.102
-635.595	-2.143	0.162	0.115
-634.580	-200.000	-0.001	-0.084
-633.565	-200.000	-0.031	-0.464
-632.551	-28.170	-0.197	0.115
-631.536	-85.360	-0.223	0.070
-630.522	-105.217	-0.096	0.022
-629.507	-44.429	-0.185	-0.094
-628.492	800.000	0.056	-0.248
-627.478	-118.658	-0.146	0.026
-626.463	53.786	-0.119	0.116
-625.449	-200.000	-0.048	-0.326
-624.434	800.000	-0.044	-0.191
-623.419	-170.425	-0.103	-0.004
-622.405	-134.626	-0.229	0.028
-621.390	-4.116	-0.220	0.154
-620.376	-170.133	-0.288	-0.010
-619.361	-130.420	0.165	-0.023
-618.346	38.599	0.081	0.073
-617.332	79.397	-0.145	-0.158
-616.317	800.000	-0.044	-0.139
-615.303	800.000	0.038	0.111
-614.288	18.656	-0.071	-0.057
-613.273	-137.147	0.158	0.018
-612.259	-66.533	-0.098	-0.039
-611.244	-131.237	-0.091	0.012
-610.230	-158.386	0.397	0.023
-609.215	46.259	0.166	-0.156
-608.201	108.388	-0.222	0.269
-607.186	-138.215	0.157	0.018
-606.171	87.892	-0.049	-0.055
-605.157	-185.815	0.337	0.005
-604.142	-200.000	0.033	0.329
-603.128	54.102	-0.253	-0.246
-602.113	-3.591	0.175	0.123
-601.098	111.993	0.076	0.093
-600.084	-72.664	0.218	0.081
-599.069	-36.035	-0.128	-0.070
-598.055	677.994	0.021	-0.054
-597.040	193.070	-0.197	-0.302
-596.025	707.730	-0.035	0.094
-595.011	-34.018	-0.378	0.211
-593.996	-28.760	-0.237	-0.138
-592.982	-55.247	-0.206	0.094
-591.967	522.745	-0.050	-0.118
-590.952	147.320	-0.178	-0.242
-589.938	-111.376	-0.206	-0.043
-588.923	-200.000	-0.046	0.307
-587.909	-70.291	0.299	0.115
-586.894	138.770	-0.143	0.189
-585.879	3.426	-0.150	-0.110
-584.865	58.811	-0.223	-0.222
-583.850	-14.905	-0.200	-0.130
-582.836	591.074	-0.064	-0.160
-581.821	-37.451	-0.285	-0.154
-580.806	-20.535	-0.093	0.058
-579.792	-200.000	0.020	-0.162
-578.777	800.000	0.103	-0.380
-577.763	-107.884	-0.340	-0.075
-576.748	800.000	-0.012	0.053
-575.733	-33.778	-0.249	0.139
-574.719	800.000	-0.097	-0.288
-573.704	315.548	-0.042	-0.080
-572.690	800.000	-0.074	-0.263
-571.675	-200.000	-0.045	-0.226
-570.661	-166.195	0.165	-0.007
-569.646	-118.843	-0.080	-0.014
-568.631	800.000	-0.036	-0.129
-567.617	479.135	0.052	0.118
-566.602	-47.072	0.212	0.105
-565.588	-62.933	0.283	0.118
-564.573	800.000	0.025	0.112
-563.558	-117.495	0.139	-0.025
-562.544	38.562	-0.111	-0.100
-561.529	619.488	-0.009	-0.023
-560.515	-90.673	-0.168	-0.049
-559.500	33.925	-0.082	-0.072
-558.485	534.401	-0.040	0.095
-557.471	-200.000	0.042	0.257
-556.456	259.157	-0.060	0.104
-555.442	-200.000	-0.030	0.297
-554.427	-108.662	-0.399	0.086
-553.412	-152.538	0.190	0.014
-552.398	-200.000	-0.016	-0.108
-551.383	-123.066	-0.293	-0.048
-550.369	-117.700	-0.201	-0.037
-549.354	-104.101	0.283	0.067
-548.339	-91.052	0.493	0.143
-547.325	-103.952	0.082	-0.019
-546.310	-138.832	0.276	0.030
-545.296	-27.956	0.107	0.063
-544.281	-31.360	0.182	0.104
-543.266	-108.363	0.408	0.089
-542.252	-198.478	-0.163	0.001
-541.237	-27.960	0.331	-0.194
-540.223	-95.438	-0.214	-0.058
-539.208	-99.549	-0.182	0.046
-538.193	-49.771	0.234	-0.112
-537.179	-142.013	-0.389	-0.039
-536.164	800.000	-0.031	0.119
-535.150	800.000	-0.098	-0.325
-534.135	800.000	0.085	-0.288
-533.121	155.701	0.094	0.131
-532.106	-14.297	-0.094	0.061
-531.091	109.829	0.105	0.127
-530.077	158.203	-0.167	0.234
-529.062	-200.000	0.009	0.128
-528.048	-200.000	-0.057	0.359
-527.033	-138.398	0.037	0.004
-526.018	295.313	-0.107	0.198
-525.004	48.738	0.129	-0.122
-523.989	-107.854	0.036	0.008
-522.975	800.000	0.050	-0.187
-521.960	185.965	0.049	-0.074
-520.945	176.209	0.063	-0.092
-519.931	-122.046	0.019	0.003
-518.916	37.574	0.075	0.067
-517.902	383.137	0.026	-0.054
-516.887	-129.655	-0.146	0.020
-515.872	-85.145	0.265	0.084
-514.858	-87.128	0.326	0.100
-513.843	165.605	0.109	-0.155
-512.829	-97.817	-0.280	0.073
-511.814	-200.000	-0.030	0.332
-510.799	-69.319	-0.270	0.105
-509.785	-200.000	0.010	0.360
-508.770	-109.023	-0.173	-0.037
-507.756	587.725	0.119	0.297
-506.741	-200.000	0.042	-0.199
-505.726	-86.762	-0.207	0.064
-504.712	-68.882	0.248	0.097
-503.697	-95.790	0.415	-0.112
-502.683	-134.805	0.315	-0.039
-501.668	505.136	0.144	0.336
-500.653	-170.822	0.126	0.004
-499.639	-62.216	-0.338	0.142
-498.624	9.868	-0.222	-0.170
-497.610	800.000	0.048	0.149
-496.595	-162.014	-0.066	-0.003
-495.581	800.000	-0.082	-0.245
-494.566	92.988	0.348	-0.397
-493.551	140.278	0.101	-0.135
-492.537	800.000	0.064	-0.222
-491.522	81.742	0.098	-0.107
-490.508	-10.012	-0.280	-0.188
-489.493	-110.505	-0.260	0.054
-488.478	78.147	-0.141	-0.152
-487.464	-23.525	-0.141	-0.085
-486.449	16.090	0.095	-0.075
-485.435	-45.356	0.071	0.036
-484.420	375.630	-0.029	0.059
-483.405	-91.011	0.402	-0.116
-482.391	261.239	-0.077	0.135
-481.376	-200.000	-0.064	-0.376
-480.362	-75.661	0.244	-0.087
-479.347	750.784	-0.096	-0.260
-478.332	79.673	0.151	0.164
-477.318	800.000	-0.015	0.048
-476.303	-200.000	0.053	0.709
-475.289	-74.754	0.304	0.110
-474.274	181.543	0.225	0.334
-473.259	-108.219	0.171	0.037
-472.245	-200.000	0.011	0.166
-471.230	-67.943	0.148	-0.058
-470.216	154.840	0.040	0.055
-469.201	800.000	0.065	0.205
-468.186	63.089	0.140	0.142
-467.172	255.504	-0.130	0.224
-466.157	167.031	0.140	-0.199
-465.143	-98.914	0.153	0.039
-464.128	-12.036	-0.203	-0.134
-463.113	-100.426	-0.256	0.064
-462.099	144.137	0.048	0.065
-461.084	-102.050	-0.130	-0.032
-460.070	-100.924	0.022	0.005
-459.055	62.099	-0.163	-0.163
-458.040	269.663	-0.050	0.089
-457.026	-200.000	-0.004	0.031
-456.011	-200.000	0.011	0.453
-454.997	-66.691	-0.398	-0.159
-453.982	-59.253	-0.207	-0.090
-452.968	-127.256	-0.322	0.047
-451.953	734.879	0.052	0.139
-450.938	800.000	0.027	-0.096
-449.924	41.020	0.178	-0.162
-448.909	-83.605	0.173	0.056
-447.895	-86.636	0.328	-0.101
-446.880	-36.243	-0.286	0.155
-445.865	800.000	-0.047	0.199
-444.851	800.000	-0.068	-0.298
-443.836	800.000	0.073	-0.255
-442.822	-70.282	0.374	0.143
-441.807	-69.904	-0.099	-0.038
-440.792	-200.000	0.012	0.233
-439.778	400.845	-0.092	-0.195
-438.763	334.327	0.110	0.214
-437.749	31.762	0.173	-0.150
-436.734	-14.831	-0.119	0.076
-435.719	490.469	-0.095	0.219
-434.705	-72.390	-0.331	0.123
-433.690	257.988	-0.085	-0.146
-432.676	-27.484	0.148	-0.086
-431.661	-200.000	-0.024	-0.365
-430.646	-50.133	-0.174	-0.083
-429.632	-130.145	-0.244	0.033
-428.617	800.000	0.062	0.206
-427.603	-91.390	0.531	-0.153
-426.588	-155.026	0.343	0.023
-425.573	-11.687	0.172	0.114
-424.559	265.487	-0.068	0.119
-423.544	-125.743	0.072	-0.011
-422.530	187.057	-0.223	-0.333
-421.515	800.000	-0.083	-0.236
-420.500	-179.317	-0.209	0.005
-419.486	162.143	-0.276	-0.388
-418.471	-67.740	-0.155	0.061
-417.457	-200.000	-0.012	0.252
-416.442	-145.373	0.060	-0.005
-415.428	-23.069	-0.123	-0.074
-414.413	-200.000	-0.011	-0.118
-413.398	136.936	-0.079	0.103
-412.384	169.949	0.064	-0.092
-411.369	-95.803	0.244	-0.066
-410.355	-200.000	0.075	0.368
-409.340	-81.706	0.160	0.053
-408.325	800.000	-0.081	0.306
-407.311	5.233	0.297	-0.220
-406.296	-200.000	0.054	-0.476
-405.282	-88.525	-0.387	-0.116
-404.267	-1.474	0.148	0.105
-403.252	237.082	-0.073	-0.122
-402.238	-47.770	0.239	-0.116
-401.223	411.600	0.051	0.108
-400.209	-66.290	-0.132	-0.053
-399.194	-200.000	0.024	-0.181
-398.179	157.194	-0.034	0.048
-397.165	66.304	-0.122	0.125
-396.150	-200.000	0.021	-0.246
-395.136	-58.212	0.100	0.044
-394.121	-131.329	-0.047	-0.006
-393.106	628.630	0.053	0.135
-392.092	484.856	0.168	0.383
-391.077	565.586	-0.059	0.143
-390.063	199.511	-0.274	-0.422
-389.048	24.021	-0.088	0.073
-388.033	796.868	0.016	-0.045
-387.019	-24.237	-0.404	-0.242
-386.004	-200.000	-0.045	-0.222
-384.990	-76.389	0.229	0.081
-383.975	-136.390	-0.407	0.048
-382.960	-200.000	0.008	-0.113
-381.946	-58.442	0.158	-0.069
-380.931	-109.081	0.352	0.075
-379.917	800.000	-0.065	-0.277
-378.902	-144.127	0.302	0.028
-377.888	351.753	0.084	0.166
-376.873	343.646	-0.148	-0.291
-375.858	-200.000	-0.022	0.107
-374.844	10.152	-0.254	-0.194
-373.829	-87.190	0.289	0.088
-372.815	800.000	-0.115	0.454
-371.800	-150.078	-0.188	-0.015
-370.785	-185.945	-0.396	-0.006
-369.771	115.853	-0.033	-0.040
-368.756	-57.760	0.355	-0.156
-367.742	-92.836	-0.160	-0.045
-366.727	-200.000	0.024	-0.109
-365.712	800.000	0.082	0.258
-364.698	199.574	-0.051	-0.079
-363.683	86.412	0.132	-0.146
-362.669	108.822	-0.052	0.062
-361.654	131.613	-0.145	-0.187
-360.639	-200.000	0.025	-0.345
-359.625	-130.863	0.178	0.024
-358.610	94.581	-0.052	-0.059
-357.596	27.110	0.026	0.022
-356.581	-33.766	-0.076	-0.042
-355.566	-121.345	-0.275	0.046
-354.552	-200.000	0.018	-0.173
-353.537	-114.239	0.123	0.024
-352.523	-21.385	-0.087	0.053
-351.508	-194.023	-0.405	-0.003
-350.493	-200.000	-0.013	-0.242
-349.479	321.298	-0.152	-0.289
-348.464	-18.501	0.191	0.120
-347.450	-124.156	-0.265	-0.042
-346.435	-105.723	0.254	-0.058
-345.420	-44.166	0.281	0.141
-344.406	-200.000	0.070	-0.473
-343.391	222.007	0.117	0.189
-342.377	-73.260	-0.027	-0.010
-341.362	-159.065	-0.069	0.004
-340.348	-200.000	0.013	0.127
-339.333	800.000	0.102	0.408
-338.318	316.688	-0.102	0.192
-337.304	-74.261	0.236	-0.085
-336.289	107.729	0.199	0.238
-335.275	-34.713	-0.141	-0.077
-334.260	4.447	-0.357	-0.262
-333.245	97.476	0.077	-0.088
-332.231	126.376	-0.161	0.204
-331.216	-23.315	-0.022	0.013
-330.202	-37.309	-0.072	-0.039
-329.187	56.387	-0.253	0.246
-328.172	97.247	-0.156	0.180
-327.158	258.475	-0.202	0.348
-326.143	-70.043	-0.179	0.068
-325.129	800.000	-0.024	0.101
-324.114	180.326	-0.198	0.291
-323.099	146.680	0.110	0.148
-322.085	-89.000	0.345	0.102
-321.070	-27.387	-0.128	0.075
-320.056	800.000	0.107	-0.355
-319.041	800.000	0.078	-0.227
-318.026	-142.419	0.268	-0.026
-317.012	-156.595	-0.242	0.015
-315.997	196.371	0.041	0.062
-314.983	95.239	-0.030	0.034
-313.968	-200.000	-0.053	-0.292
-312.953	-76.530	-0.015	-0.005
-311.939	87.203	0.128	0.142
-310.924	76.357	0.202	-0.214
-309.910	19.629	0.189	-0.152
-308.895	106.273	0.110	-0.131
-307.880	-35.716	-0.309	-0.167
-306.866	246.258	-0.198	-0.334
-305.851	66.844	0.130	-0.132
-304.837	349.844	0.082	-0.162
-303.822	-1.420	-0.059	-0.042
-302.807	47.399	-0.241	-0.224
-301.793	800.000	0.152	0.430
-300.778	-200.000	0.011	-0.232
-299.764	-200.000	-0.071	-0.339
-298.749	-130.936	0.390	0.052
-297.735	54.308	-0.127	0.122
-296.720	198.473	-0.259	-0.396
-295.705	800.000	0.005	0.014
-294.691	-24.092	-0.120	0.071
-293.676	-129.455	-0.160	-0.022
-292.662	-200.000	0.002	-0.027
-291.647	306.531	-0.107	0.199
-290.632	-200.000	-0.003	0.110
-289.618	800.000	0.066	-0.203
-288.603	-200.000	-0.070	-0.438
-287.589	120.428	0.206	-0.256
-286.574	-76.373	0.150	0.053
-285.559	-78.580	0.267	-0.091
-284.545	726.577	-0.076	0.202
-283.530	-89.299	-0.167	0.049
-282.516	-102.110	-0.096	0.023
-281.501	-106.647	0.535	0.119
-280.486	187.180	0.184	0.275
-279.472	92.364	0.182	0.205
-278.457	387.225	-0.047	0.096
-277.443	84.483	0.167	0.182
-276.428	232.963	-0.095	0.157
-275.413	37.301	-0.195	-0.173
-274.399	29.569	0.249	0.212
-273.384	362.948	0.023	0.046
-272.370	82.543	-0.099	0.108
-271.355	-200.000	0.004	0.121
-270.340	-49.267	0.259	-0.124
-269.326	-29.152	-0.310	-0.177
-268.311	106.267	0.303	0.359
-267.297	-71.126	0.478	0.180
-266.282	-78.429	-0.151	0.052
-265.267	-26.511	-0.156	0.091
-264.253	23.002	0.187	-0.153
-263.238	102.189	0.202	0.236
-262.224	151.698	0.078	0.107
-261.209	-8.135	0.200	-0.135
-260.195	144.778	0.203	0.271
-259.180	118.203	-0.161	0.199
-258.165	-44.713	-0.104	-0.052
-257.151	97.452	-0.148	0.170
-256.136	341.932	0.050	-0.097
-255.122	-28.618	-0.212	0.122
-254.107	-37.181	0.117	0.062
-253.092	800.000	0.047	0.201
-252.078	192.144	0.148	-0.224
-251.063	38.911	-0.105	-0.094
-250.049	-68.713	-0.188	0.072
-249.034	-135.310	-0.128	0.015
-248.019	-51.618	-0.255	0.119
-247.005	-174.081	0.220	0.006
-245.990	27.678	-0.118	0.099
-244.976	-13.770	-0.138	0.089
-243.961	343.684	-0.145	0.284
-242.946	112.332	-0.166	-0.200
-241.932	374.643	0.015	-0.030
-240.917	18.195	-0.120	-0.095
-239.903	33.563	0.277	0.240
-238.888	148.244	-0.059	-0.079
-237.873	74.350	-0.209	-0.219
-236.859	159.731	-0.171	0.237
-235.844	-106.803	0.197	0.044
-234.830	-84.659	0.208	0.066
-233.815	-18.597	-0.395	0.246
-232.800	-113.964	-0.468	0.091
-231.786	-118.698	-0.362	-0.064
-230.771	5.506	-0.265	0.195
-229.757	-115.694	-0.311	0.058
-228.742	66.101	0.229	0.232
-227.727	-200.000	-0.000	0.123
-226.713	275.654	-0.065	-0.114
-225.698	204.811	0.041	0.064
-224.684	-200.000	-0.032	0.170
-223.669	-110.893	0.228	-0.047
-222.655	-143.499	0.275	0.026
-221.640	118.222	0.265	-0.326
-220.625	-111.654	0.393	0.079
-219.611	-200.000	0.104	0.000
-218.596	99.210	-0.184	-0.213
-217.582	-93.135	0.167	-0.046
-216.567	800.000	-0.113	-0.321
-215.552	-128.587	0.272	-0.038
-214.538	124.827	0.142	0.179
-213.523	-200.000	0.056	0.247
-212.509	800.000	-0.068	0.201
-211.494	-31.924	0.481	-0.269
-210.479	28.011	0.140	0.117
-209.465	-79.992	-0.101	-0.034
-208.450	-128.733	0.084	-0.012
-207.436	-7.802	0.272	-0.183
-206.421	54.525	-0.318	-0.305
-205.406	800.000	-0.017	-0.056
-204.392	24.802	-0.396	0.327
-203.377	-200.000	0.017	0.275
-202.363	-200.000	0.024	-0.211
-201.348	-200.000	-0.025	-0.204
-200.333	62.706	0.246	0.245
-199.319	53.320	0.129	-0.123
-198.304	-126.434	-0.290	0.043
-197.290	77.369	0.238	-0.252
-196.275	157.569	-0.062	-0.086
-195.260	-29.668	0.287	0.163
-194.246	179.702	-0.045	-0.065
-193.231	265.326	-0.013	-0.023
-192.217	-20.960	0.159	0.097
-191.202	208.155	-0.032	0.050
-190.187	305.091	0.065	-0.121
-189.173	122.288	0.032	-0.039
-188.158	-66.039	0.309	0.123
-187.144	217.445	-0.091	-0.145
-186.129	-15.010	-0.298	0.190
-185.114	-135.747	-0.432	0.051
-184.100	26.266	-0.216	-0.180
-183.085	-111.908	0.251	0.051
-182.071	-200.000	-0.056	0.281
-181.056	800.000	-0.122	0.355
-180.042	284.378	0.105	0.188
-179.027	-76.725	0.132	-0.046
-178.012	-200.000	0.021	0.287
-176.998	-199.243	-0.233	0.001
-175.983	-200.000	0.002	0.012
-174.969	-23.118	0.276	0.165
-173.954	285.628	0.087	-0.157
-172.939	-16.266	0.224	0.141
-171.925	115.467	0.162	0.197
-170.910	-133.296	0.175	0.022
-169.896	-200.000	-0.004	-0.063
-168.881	-200.000	0.028	-0.360
-167.866	-21.902	0.061	-0.037
-166.852	60.432	0.255	0.251
-165.837	-164.966	0.082	0.004
-164.823	-75.883	-0.077	0.027
-163.808	-200.000	0.035	0.179
-162.793	-59.151	-0.063	0.027
-161.779	-126.805	0.197	-0.029
-160.764	79.596	0.229	0.244
-159.750	267.981	0.168	0.293
-158.735	-178.283	0.068	-0.002
-157.720	-200.000	-0.013	0.235
-156.706	21.248	-0.303	-0.245
-155.691	-200.000	0.040	-0.223
-154.677	54.779	0.211	-0.202
-153.662	207.176	-0.141	-0.219
-152.647	800.000	0.026	0.082
-151.633	245.769	-0.064	0.107
-150.618	800.000	-0.091	0.303
-149.604	142.609	0.070	0.093
-148.589	-71.463	-0.313	-0.116
-147.574	800.000	-0.127	-0.471
-146.560	-52.010	-0.231	-0.107
-145.545	0.107	-0.278	-0.197
-144.531	-25.549	0.430	0.252
-143.516	800.000	0.038	0.124
-142.502	-107.957	0.293	-0.063
-141.487	-22.304	0.190	-0.114
-140.472	-200.000	-0.013	-0.116
-139.458	128.826	0.258	-0.327
-138.443	-37.367	-0.053	-0.028
-137.429	800.000	0.021	-0.081
-136.414	-77.841	0.101	0.035
-135.399	-200.000	-0.027	-0.121
-134.385	429.667	-0.183	-0.394
-133.370	-125.035	0.224	0.034
-132.356	337.379	0.163	-0.315
-131.341	-79.327	0.193	-0.065
-130.326	-90.460	0.173	-0.050
-129.312	800.000	0.040	-0.127
-128.297	725.539	-0.124	0.329
-127.283	129.227	-0.104	0.132
-126.268	20.052	0.236	-0.189
-125.253	91.880	0.108	0.121
-124.239	-200.000	0.005	-0.126
-123.224	-107.070	0.232	-0.051
-122.210	170.972	-0.083	0.118
-121.195	-2.194	0.174	0.121
-120.180	-200.000	-0.041	-0.211
-119.166	-134.919	-0.275	0.033
-118.151	222.970	0.167	0.267
-117.137	-200.000	0.029	0.331
-116.122	-200.000	-0.022	0.331
-115.107	731.688	-0.042	-0.112
-114.093	12.761	0.078	0.060
-113.078	-200.000	-0.010	0.067
-112.064	-126.888	0.281	0.041
-111.049	74.912	0.189	-0.198
-110.034	-30.597	0.089	0.050
-109.020	250.181	-0.168	0.283
-108.005	436.268	0.089	-0.193
-106.991	35.572	-0.141	0.123
-105.976	-200.000	-0.029	0.185
-104.962	100.892	0.150	-0.174
-103.947	-13.427	-0.218	-0.140
-102.932	-32.532	0.126	-0.070
-101.918	-200.000	0.006	-0.268
-100.903	-200.000	0.026	-0.184
-99.889	259.703	0.032	-0.055
-98.874	-200.000	-0.074	0.416
-97.859	-142.222	-0.211	-0.021
-96.845	81.074	-0.053	0.057
-95.830	241.696	-0.104	-0.172
-94.816	-115.573	0.230	0.043
-93.801	-60.101	0.151	-0.064
-92.786	-104.700	0.321	-0.073
-91.772	188.005	-0.125	-0.186
-90.757	34.976	0.287	-0.249
-89.743	-38.933	-0.135	-0.070
-88.728	-34.944	0.392	0.212
-87.713	-200.000	-0.006	0.415
-86.699	-141.798	-0.157	0.016
-85.684	-64.181	-0.105	0.043
-84.670	-52.353	0.140	-0.065
-83.655	-90.059	-0.220	0.064
-82.640	29.064	0.178	-0.150
-81.626	-12.932	0.327	-0.211
-80.611	-90.538	-0.181	-0.052
-79.597	311.313	-0.237	0.440
-78.582	252.561	0.025	0.043
-77.567	314.039	0.162	0.303
-76.553	-108.119	0.287	-0.062
-75.538	-200.000	0.038	-0.192
-74.524	-63.277	-0.225	-0.092
-73.509	800.000	-0.048	0.145
-72.494	-200.000	0.034	0.282
-71.480	800.000	0.047	-0.166
-70.465	-200.000	0.071	-0.317
-69.451	800.000	0.050	-0.145
-68.436	-200.000	-0.004	-0.115
-67.422	102.039	0.083	0.096
-66.407	146.916	-0.109	-0.145
-65.392	-107.946	0.274	0.059
-64.378	103.810	0.064	0.075
-63.363	-138.480	0.308	0.034
-62.349	50.529	0.168	0.158
-61.334	-1.381	-0.988	-0.691
-60.319	21.096	0.475	0.382
-59.305	654.675	-0.320	-0.814
-58.290	800.000	0.279	0.817
-57.276	691.302	0.557	1.447
-56.261	-200.000	93.327	546.545
-55.246	500.381	1414.174	3232.845
-54.232	145.262	2629.425	3487.150
-53.217	112.725	2223.926	2668.594
-52.203	47.066	1667.282	1536.879
-51.188	38.897	1398.732	1238.022
-50.173	35.637	1355.531	1179.768
-49.159	55.164	1403.120	1343.608
-48.144	59.008	1421.794	1385.462
-47.130	39.197	1376.570	1220.074
-46.115	35.617	1358.803	1182.301
-45.100	35.428	1353.795	1176.742
-44.086	35.299	1351.260	1173.701
-43.071	35.233	1349.105	1171.376
-42.057	35.277	1346.808	1169.608
-41.042	35.283	1345.300	1168.286
-40.027	35.386	1343.467	1167.274
-39.013	35.349	1341.720	1165.488
-37.998	35.322	1339.891	1163.687
-36.984	35.470	1337.850	1162.764
-35.969	35.362	1336.255	1160.679
-34.954	35.489	1334.421	1159.808
-33.940	35.496	1333.085	1158.643
-32.925	35.549	1331.778	1157.781
-31.911	35.599	1329.641	1156.177
-30.896	35.561	1328.598	1154.998
-29.881	35.507	1327.372	1153.557
-28.867	35.653	1325.497	1152.758
-27.852	35.577	1324.431	1151.333
-26.838	35.543	1322.568	1149.462
-25.823	35.537	1321.721	1148.648
-24.809	35.483	1319.888	1146.682
-23.794	35.493	1319.001	1145.926
-22.779	35.558	1316.974	1144.512
-21.765	35.570	1315.714	1143.440
-20.750	35.571	1314.450	1142.301
-19.736	35.522	1313.238	1140.909
-18.721	35.373	1312.236	1139.110
-17.706	35.422	1310.944	1138.233
-16.692	35.518	1309.259	1137.296
-15.677	35.444	1308.458	1136.117
-14.663	35.353	1307.571	1134.766
-13.648	35.422	1306.093	1133.843
-12.633	35.382	1305.726	1133.244
-11.619	35.305	1304.603	1131.768
-10.604	35.215	1303.575	1130.301
-9.590	35.271	1303.079	1130.159
-8.575	35.322	1301.854	1129.348
-7.560	35.308	1301.152	1128.615
-6.546	35.264	1300.579	1127.812
-5.531	35.290	1299.103	1126.641
-4.517	35.330	1297.821	1125.719
-3.502	35.379	1296.769	1125.047
-2.487	35.285	1296.343	1124.082
-1.473	35.503	1292.257	1121.770
-0.458	34.629	1278.073	1104.364
0.556	30.105	1260.146	1065.969
1.571	25.898	1265.256	1045.846
2.586	24.154	1279.553	1047.321
3.600	22.666	1267.519	1028.711
4.615	16.487	1190.551	932.194
5.629	6.227	1108.646	815.056
6.644	1.145	1086.319	772.719
7.659	0.546	1084.262	768.139
8.673	0.680	1082.415	767.444
9.688	0.631	1081.140	766.224
10.702	0.793	1079.470	765.793
11.717	6.389	1087.517	799.919
12.731	14.971	1099.089	852.251
13.746	17.944	1102.201	869.757
14.761	17.330	1100.524	865.230
15.775	16.488	1098.452	859.246
16.790	15.487	1095.876	852.079
17.804	14.758	1094.672	847.373
18.819	14.386	1093.785	844.725
19.834	14.163	1092.785	842.749
20.848	13.722	1092.091	839.906
21.863	13.593	1091.017	838.349
22.877	13.540	1090.291	837.451
23.892	13.446	1088.944	835.866
24.907	13.408	1088.579	835.323
25.921	13.369	1087.893	834.527
26.936	13.534	1086.950	834.560
27.950	13.583	1085.704	833.777
28.965	13.495	1084.675	832.471
29.980	13.585	1083.383	831.858
30.994	13.693	1081.875	831.167
32.009	13.656	1081.529	830.641
33.023	13.624	1080.219	829.403
34.038	13.680	1078.703	828.445
35.053	13.557	1078.248	827.406
36.067	13.605	1077.146	826.726
37.082	13.609	1076.192	825.943
38.096	13.686	1075.601	825.801
39.111	13.609	1075.099	824.959
40.126	13.622	1073.776	823.933
41.140	13.453	1072.436	821.993
42.155	13.384	1071.359	820.751
43.169	13.351	1070.727	820.034
44.184	13.334	1069.476	818.920
45.199	13.332	1068.821	818.335
46.213	13.488	1066.831	817.507
47.228	13.475	1066.065	816.783
48.242	13.509	1065.184	816.206
49.257	13.555	1063.468	815.045
50.271	13.578	1062.934	814.676
51.286	13.585	1062.056	813.964
52.301	13.526	1061.247	812.983
53.315	13.527	1061.030	812.753
54.330	13.464	1059.729	811.373
55.344	13.378	1058.817	810.181
56.359	13.373	1057.785	809.298
57.374	13.345	1057.184	808.629
58.388	13.389	1055.926	807.808
59.403	13.474	1054.983	807.429
60.417	13.353	1054.558	806.444
61.432	13.430	1053.576	805.998
62.447	13.253	1052.932	804.573
63.461	13.405	1051.864	804.423
64.476	13.350	1050.806	803.278
65.490	13.335	1050.258	802.713
66.505	13.383	1049.523	802.314
67.520	13.438	1048.799	801.953
68.534	13.560	1047.703	801.636
69.549	13.419	1047.440	800.683
70.563	13.277	1046.598	799.280
71.578	13.262	1046.019	798.697
72.593	13.352	1044.608	797.984
73.607	13.247	1044.556	797.368
74.622	13.295	1043.467	796.696
75.636	13.291	1042.891	796.163
76.651	13.247	1042.486	795.572
77.666	13.250	1041.496	794.763
78.680	13.238	1041.016	794.269
79.695	13.337	1040.116	793.988
80.709	13.320	1039.669	793.492
81.724	13.368	1038.833	793.016
82.739	13.450	1038.017	792.714
83.753	13.478	1037.528	792.408
84.768	13.521	1036.171	791.503
85.782	13.632	1034.970	791.048
86.797	13.609	1034.431	790.457
87.812	13.509	1033.737	789.376
88.826	13.569	1032.435	788.599
89.841	13.528	1031.807	787.854
90.855	13.627	1030.441	787.211
91.870	13.665	1030.241	787.171
92.884	13.550	1029.235	785.789
93.899	13.547	1028.205	784.919
94.914	13.691	1027.280	784.825
95.928	13.713	1026.593	784.333
96.943	13.528	1025.699	782.707
97.957	13.669	1024.718	782.554
98.972	13.591	1024.220	781.734
99.987	13.687	1023.330	781.439
101.001	13.539	1022.419	779.977
102.016	13.600	1021.455	779.462
103.030	13.588	1020.685	778.748
104.045	13.598	1019.853	778.093
105.060	13.667	1018.770	777.520
106.074	13.580	1018.092	776.524
107.089	13.556	1017.067	775.562
108.103	13.468	1016.035	774.295
109.118	13.546	1014.736	773.603
110.133	13.487	1014.094	772.770
111.147	13.398	1013.483	771.820
112.162	13.423	1012.773	771.327
113.176	13.600	1011.661	771.238
114.191	13.694	1010.490	770.712
115.206	13.664	1009.569	769.803
116.220	13.608	1009.274	769.247
117.235	13.595	1008.088	768.218
118.249	13.622	1007.205	767.599
119.264	13.502	1006.658	766.560
120.279	13.464	1006.283	766.033
121.293	13.597	1004.394	765.138
122.308	13.517	1003.935	764.354
123.322	13.499	1003.262	763.692
124.337	13.343	1002.775	762.531
125.352	13.456	1001.167	761.765
126.366	13.583	999.681	761.150
127.381	13.625	999.015	760.765
128.395	13.605	997.873	759.739
129.410	13.578	996.948	758.841
130.424	13.680	996.213	758.682
131.439	13.701	995.209	757.946
132.454	13.693	994.627	757.402
133.468	13.612	993.749	756.293
134.483	13.654	992.562	755.516
135.497	13.611	992.131	754.925
136.512	13.790	990.762	754.631
137.527	13.551	990.895	753.576
138.541	13.510	989.902	752.571
139.556	13.618	988.708	752.084
140.570	13.608	988.224	751.606
141.585	13.680	987.153	751.053
142.600	13.872	985.986	750.965
143.614	13.874	985.336	750.413
144.629	13.840	984.356	749.446
145.643	13.738	983.690	748.414
146.658	13.854	982.363	747.860
147.673	13.657	981.405	746.178
148.687	13.657	980.688	745.567
149.702	13.706	979.741	744.999
150.716	13.725	979.132	744.557
151.731	13.704	978.217	743.704
152.746	13.699	977.625	743.165
153.760	13.764	977.229	743.089
154.775	13.745	976.486	742.370
155.789	13.767	975.636	741.756
156.804	13.770	975.264	741.423
157.819	13.893	974.252	741.136
158.833	13.864	973.545	740.404
159.848	13.893	972.965	740.027
160.862	13.893	971.742	739.032
161.877	13.872	970.935	738.257
162.892	13.866	969.543	737.107
163.906	13.816	969.085	736.471
164.921	13.784	968.159	735.562
165.935	13.836	967.431	735.175
166.950	13.928	966.116	734.517
167.964	13.919	965.251	733.757
168.979	13.924	964.579	733.202
169.994	13.958	963.310	732.323
171.008	13.833	963.093	731.539
172.023	14.002	962.685	731.911
173.037	14.065	961.204	730.998
174.052	14.072	960.855	730.697
175.067	13.963	959.877	729.411
176.081	13.976	959.717	729.282
177.096	13.934	959.064	728.535
178.110	13.946	958.520	728.114
179.125	13.974	958.095	727.847
180.140	13.954	957.208	727.021
181.154	13.949	956.895	726.699
182.169	14.081	956.127	726.626
183.183	14.176	955.316	726.362
184.198	14.147	954.415	725.486
185.213	14.190	953.974	725.276
186.227	14.139	953.256	724.442
187.242	14.212	952.382	724.031
188.256	14.221	951.952	723.678
189.271	14.203	950.934	722.763
190.286	14.050	950.255	721.518
191.300	13.905	949.769	720.458
192.315	13.956	949.260	720.229
193.329	14.050	948.464	719.965
194.344	14.165	947.677	719.805
195.359	14.149	947.245	719.342
196.373	14.234	946.543	719.113
197.388	14.255	945.970	718.707
198.402	14.290	945.950	718.776
199.417	14.350	944.919	718.189
200.432	14.386	944.089	717.650
201.446	14.294	944.005	717.126
202.461	14.469	943.195	717.200
203.475	14.392	942.772	716.484
204.490	14.357	942.106	715.766
205.504	14.401	941.225	715.221
206.519	14.297	940.587	714.226
207.534	14.354	939.684	713.723
208.548	14.425	938.701	713.218
209.563	14.400	938.138	712.616
210.577	14.506	937.285	712.362
211.592	14.563	936.709	712.101
212.607	14.681	935.624	711.718
213.621	14.446	935.543	710.593
214.636	14.446	934.534	709.763
215.650	14.429	933.832	709.094
216.665	14.649	932.973	709.314
217.680	14.643	932.493	708.862
218.694	14.639	931.473	708.005
219.709	14.607	931.097	707.520
220.723	14.592	930.403	706.868
221.738	14.536	929.590	705.953
222.753	14.604	928.801	705.577
223.767	14.645	928.670	705.590
224.782	14.600	928.201	704.977
225.796	14.828	927.194	705.114
226.811	14.719	926.651	704.180
227.826	14.806	925.843	703.868
228.840	14.685	925.116	702.747
229.855	14.704	924.414	702.231
230.869	14.730	923.773	701.790
231.884	14.605	923.545	701.029
232.899	14.688	922.387	700.435
233.913	14.667	921.808	699.847
234.928	14.712	921.117	699.448
235.942	14.777	920.238	698.993
236.957	14.809	920.144	698.991
237.972	14.872	919.277	698.534
238.986	14.803	918.408	697.527
240.001	14.809	917.752	696.988
241.015	14.648	917.622	696.156
242.030	14.877	916.391	696.118
243.045	14.865	916.186	695.850
244.059	14.857	915.569	695.286
245.074	14.767	915.009	694.424
246.088	14.849	913.836	693.813
247.103	14.880	913.465	693.598
248.117	14.999	912.766	693.501
249.132	15.070	912.606	693.609
250.147	15.118	911.824	693.154
251.161	15.028	911.219	692.260
252.176	15.012	910.603	691.663
253.190	15.112	909.371	691.082
254.205	15.157	909.139	691.030
255.220	15.166	908.083	690.201
256.234	15.130	907.915	689.864
257.249	15.178	906.986	689.295
258.263	15.165	906.471	688.788
259.278	15.245	905.556	688.365
260.293	15.173	905.032	687.609
261.307	15.313	904.197	687.485
262.322	15.341	903.947	687.350
263.336	15.344	903.300	686.808
264.351	15.481	902.207	686.478
265.366	15.462	901.771	686.009
266.380	15.493	901.211	685.650
267.395	15.412	900.452	684.681
268.409	15.402	899.487	683.843
269.424	15.433	898.541	683.192
270.439	15.526	897.960	683.068
271.453	15.398	897.476	682.116
272.468	15.411	897.236	681.929
273.482	15.328	896.501	680.973
274.497	15.482	895.555	680.818
275.512	15.499	894.889	680.320
276.526	15.382	894.869	679.770
277.541	15.583	894.373	680.147
278.555	15.614	893.675	679.681
279.570	15.675	893.267	679.556
280.585	15.765	891.992	678.892
281.599	15.532	891.497	677.512
282.614	15.626	890.942	677.412
283.628	15.516	890.163	676.317
284.643	15.614	889.730	676.324
285.657	15.654	889.024	675.886
286.672	15.547	888.576	675.057
287.687	15.719	887.786	675.088
288.701	15.764	886.932	674.557
289.716	15.741	886.716	674.243
290.730	15.816	885.880	673.848
291.745	15.736	885.538	673.207
292.760	15.795	884.710	672.753
293.774	15.881	883.745	672.303
294.789	15.878	883.306	671.898
295.803	15.748	882.640	670.814
296.818	15.865	881.825	670.602
297.833	15.953	881.025	670.282
298.847	15.935	880.622	669.846
299.862	15.916	880.103	669.318
300.876	15.872	879.404	668.551
301.891	15.958	878.747	668.336
302.906	15.965	878.353	668.005
303.920	15.992	877.787	667.619
304.935	15.947	877.443	667.121
305.949	15.984	876.942	666.830
306.964	15.848	876.390	665.810
307.979	16.192	875.265	666.255
308.993	15.985	875.291	665.400
310.008	16.185	874.097	665.220
311.022	16.097	873.664	664.488
312.037	16.020	873.148	663.734
313.052	16.193	872.180	663.617
314.066	16.026	872.056	662.807
315.081	16.154	871.307	662.684
316.095	16.142	870.699	662.117
317.110	16.165	870.096	661.687
318.125	16.069	869.873	661.083
319.139	16.219	869.416	661.264
320.154	16.200	868.926	660.760
321.168	16.168	868.135	659.976
322.183	16.283	867.298	659.729
323.197	16.250	867.104	659.395
324.212	16.266	866.294	658.782
325.227	16.277	865.684	658.303
326.241	16.381	864.933	658.080
327.256	16.121	864.747	656.865
328.270	16.272	864.001	656.828
329.285	16.320	863.404	656.503
330.300	16.360	862.484	655.901
331.314	16.290	862.598	655.661
332.329	16.184	861.921	654.676
333.343	16.430	861.282	655.087
334.358	16.449	860.916	654.822
335.373	16.369	860.542	654.170
336.387	16.504	860.247	654.412
337.402	16.414	859.877	653.724
338.416	16.312	859.727	653.156
339.431	16.385	859.296	653.053
340.446	16.433	858.901	652.880
341.460	16.442	858.521	652.571
342.475	16.615	857.831	652.653
343.489	16.571	857.683	652.315
344.504	16.592	856.663	651.562
345.519	16.625	856.640	651.613
346.533	16.688	855.672	651.063
347.548	16.723	855.050	650.664
348.562	16.551	854.989	649.900
349.577	16.637	854.461	649.770
350.592	16.578	853.717	648.921
351.606	16.538	853.082	648.230
352.621	16.616	852.253	647.842
353.635	16.574	851.653	647.165
354.650	16.607	851.077	646.798
355.665	16.611	850.167	646.066
356.679	16.689	849.809	646.032
357.694	16.800	849.021	645.799
358.708	16.699	848.688	645.103
359.723	16.693	847.893	644.422
360.738	16.780	847.313	644.252
361.752	16.770	846.581	643.600
362.767	16.899	845.861	643.486
363.781	16.878	845.489	643.067
364.796	16.967	844.894	642.897
365.810	17.078	844.475	642.940
366.825	16.943	844.378	642.298
367.840	17.055	843.967	642.354
368.854	17.002	843.243	641.544
369.869	16.957	842.826	641.002
370.883	16.912	842.748	640.714
371.898	17.085	841.940	640.695
372.913	17.010	841.611	640.104
373.927	17.001	840.937	639.505
374.942	17.170	840.408	639.679
375.956	17.197	840.019	639.430
376.971	17.079	839.829	638.786
377.986	17.276	839.068	638.888
379.000	17.331	838.333	638.482
380.015	17.197	838.281	637.882
381.029	17.329	837.435	637.677
382.044	17.232	836.971	636.902
383.059	17.315	836.332	636.672
384.073	17.266	835.775	636.005
385.088	17.282	835.341	635.680
386.102	17.189	834.970	634.995
387.117	17.415	833.913	634.978
388.132	17.261	833.739	634.214
389.146	17.129	833.359	633.377
390.161	17.282	832.578	633.298
391.175	17.284	832.045	632.843
392.190	17.322	831.535	632.540
393.205	17.424	831.339	632.715
394.219	17.291	830.941	631.859
395.234	17.369	830.504	631.762
396.248	17.401	830.003	631.443
397.263	17.380	829.489	630.919
398.278	17.373	829.165	630.590
399.292	17.391	828.509	630.104
400.307	17.319	827.823	629.261
401.321	17.472	827.358	629.417
402.336	17.420	827.029	628.918
403.350	17.447	826.483	628.547
404.365	17.524	825.996	628.405
405.380	17.503	825.510	627.903
406.394	17.681	824.968	628.092
407.409	17.445	825.027	627.212
408.423	17.667	824.440	627.524
409.438	17.697	823.945	627.205
410.453	17.770	823.336	626.955
411.467	17.589	822.999	625.975
412.482	17.762	822.612	626.262
413.496	17.688	822.002	625.471
414.511	17.734	821.914	625.518
415.526	17.693	821.919	625.314
416.540	17.759	821.121	624.894
417.555	17.763	820.392	624.299
418.569	17.777	820.126	624.092
419.584	17.958	819.329	624.091
420.599	17.933	819.250	623.887
421.613	103.036	1285.120	1439.067
422.628	88.959	1352.982	1439.199
