DTS Sentinel unit serial number:	SN413079Multiplexer serial number:	ORYXHardware model number:	OX4-SRSoftware version number:	ORYX F/W v4.00 Oryx Data Collector v3.7.2.0data status	okinstallation	princeton_trtdifferential loss correction	single-endedforward channel	channel 1reverse channel	N/Adate	2019/09/17time	16:18:35forward acquisition time	60.00reverse acquisition time	0.00gamma	496.2192k internal	0.2292k external	0.2292temperature offset calibration	0.9959default loss term (dB/km)	0.3790temperature slope calibration	1.0000multiplexer offset coefficient	1.0000multiplexer slope coefficient	1.0000fibre end	0.00T internal ref (°C)	41.02T ext. ref 1 (°C)	0.36T ext. ref 2 (°C)	38.88length (m)	temperature (°C)	Stokes	anti-Stokes-747.200	109.692	0.198	-0.243
-746.185	283.771	0.149	0.275
-745.171	-154.931	0.121	-0.008
-744.156	-71.931	-0.116	0.044
-743.142	64.534	0.220	-0.227
-742.127	-86.381	0.097	-0.030
-741.112	-40.229	0.212	0.113
-740.098	800.000	0.048	0.171
-739.083	-200.000	0.006	-0.186
-738.069	-82.452	-0.194	0.064
-737.054	12.270	0.111	-0.088
-736.039	168.048	-0.043	-0.062
-735.025	123.295	0.174	-0.223
-734.010	-102.771	-0.169	-0.041
-732.996	-200.000	0.004	-0.037
-731.981	800.000	-0.056	-0.234
-730.966	32.865	-0.256	-0.227
-729.952	-46.441	-0.261	0.131
-728.937	-152.786	0.160	0.012
-727.923	-200.000	-0.000	-0.262
-726.908	-57.301	-0.088	0.040
-725.894	255.781	-0.269	-0.472
-724.879	-36.233	-0.311	-0.172
-723.864	-78.911	-0.107	0.037
-722.850	-129.932	-0.127	0.018
-721.835	310.049	-0.234	-0.448
-720.821	527.006	-0.099	0.239
-719.806	619.854	0.119	-0.305
-718.791	-200.000	0.008	-0.254
-717.777	-192.783	-0.303	0.003
-716.762	234.598	-0.104	0.176
-715.748	-82.643	0.148	0.049
-714.733	-89.300	-0.162	-0.049
-713.718	-71.627	-0.170	0.065
-712.704	-71.831	-0.145	0.055
-711.689	78.436	0.257	-0.281
-710.675	234.331	0.160	-0.270
-709.660	-101.688	0.207	-0.051
-708.645	190.740	0.036	0.056
-707.631	41.721	-0.147	0.136
-706.616	-43.650	-0.095	0.049
-705.602	800.000	0.137	-0.415
-704.587	-86.202	0.187	-0.059
-703.572	-200.000	0.018	-0.088
-702.558	-174.076	-0.049	-0.001
-701.543	316.077	0.050	-0.096
-700.529	311.077	-0.180	-0.345
-699.514	787.695	0.040	-0.113
-698.499	-200.000	-0.014	-0.133
-697.485	-92.789	0.309	0.088
-696.470	-18.560	0.127	-0.081
-695.456	-37.899	0.154	-0.084
-694.441	-200.000	0.021	-0.208
-693.426	-121.025	0.268	0.046
-692.412	85.661	0.085	-0.095
-691.397	-81.025	0.368	-0.125
-690.383	-200.000	0.063	-0.357
-689.368	39.171	0.252	-0.231
-688.354	-136.731	-0.072	0.008
-687.339	-58.635	-0.122	0.054
-686.324	-93.736	0.155	-0.044
-685.310	129.158	0.174	-0.227
-684.295	735.959	0.095	-0.261
-683.281	667.090	-0.005	-0.013
-682.266	-9.914	-0.223	-0.151
-681.251	521.226	-0.122	0.292
-680.237	88.932	0.214	0.243
-679.222	-22.586	0.173	-0.107
-678.208	279.552	-0.249	-0.454
-677.193	-27.408	-0.217	-0.129
-676.178	-133.246	0.037	0.005
-675.164	746.743	-0.043	0.120
-674.149	800.000	-0.101	0.310
-673.135	-73.923	-0.072	0.027
-672.120	-125.408	0.230	-0.036
-671.105	-200.000	-0.039	-0.423
-670.091	14.998	-0.281	0.225
-669.076	438.149	0.048	-0.107
-668.062	-128.120	-0.547	-0.080
-667.047	-21.327	-0.202	-0.126
-666.032	-110.671	-0.147	0.031
-665.018	6.727	-0.310	-0.235
-664.003	-138.274	-0.224	0.025
-662.989	-57.728	-0.164	-0.073
-661.974	471.633	-0.076	-0.175
-660.959	52.235	-0.103	-0.100
-659.945	125.737	0.276	-0.356
-658.930	-101.452	0.102	0.025
-657.916	-84.241	-0.047	-0.015
-656.901	55.894	0.018	-0.018
-655.886	-200.000	0.083	-0.420
-654.872	-200.000	0.025	0.292
-653.857	277.348	-0.066	-0.119
-652.843	-130.607	0.364	0.050
-651.828	142.752	-0.109	0.148
-650.814	-164.390	0.207	-0.010
-649.799	11.578	-0.243	0.190
-648.784	-25.009	-0.292	0.176
-647.770	98.349	-0.148	0.174
-646.755	165.873	0.073	0.105
-645.741	386.563	0.116	-0.243
-644.726	-200.000	-0.013	-0.136
-643.711	-141.057	0.128	0.013
-642.697	245.850	-0.124	0.213
-641.682	-58.782	-0.117	0.052
-640.668	800.000	0.083	-0.285
-639.653	140.313	-0.135	0.182
-638.638	106.861	0.052	0.063
-637.624	-200.000	-0.014	0.208
-636.609	133.873	-0.236	0.311
-635.595	-145.226	-0.230	0.021
-634.580	-118.932	-0.104	-0.019
-633.565	-160.279	0.329	-0.018
-632.551	-118.935	0.282	-0.050
-631.536	800.000	0.071	-0.302
-630.522	179.744	-0.055	-0.082
-629.507	120.405	0.110	-0.140
-628.492	800.000	0.070	-0.291
-627.478	-11.627	0.126	-0.085
-626.463	-64.114	0.134	0.056
-625.449	-39.245	0.210	-0.112
-624.434	-157.914	0.160	-0.010
-623.419	-200.000	0.025	-0.202
-622.405	286.125	0.067	-0.123
-621.390	422.062	-0.050	0.109
-620.376	497.145	-0.023	-0.054
-619.361	180.164	-0.001	-0.002
-618.346	287.878	0.059	-0.109
-617.332	-17.690	-0.355	-0.227
-616.317	-200.000	-0.054	0.265
-615.303	-152.901	-0.318	-0.023
-614.288	-30.810	-0.217	-0.125
-613.273	50.618	-0.075	0.072
-612.259	34.528	-0.177	-0.158
-611.244	-200.000	-0.050	-0.366
-610.230	-74.736	0.186	0.068
-609.215	-58.139	0.291	-0.129
-608.201	-60.528	0.223	-0.096
-607.186	-100.227	-0.143	0.036
-606.171	0.314	0.141	-0.103
-605.157	181.296	-0.180	0.269
-604.142	161.566	0.115	-0.164
-603.128	208.713	0.165	0.264
-602.113	-66.548	-0.192	-0.077
-601.098	-121.459	-0.440	-0.075
-600.084	113.605	-0.120	-0.148
-599.069	94.289	-0.082	0.094
-598.055	-71.907	-0.441	-0.167
-597.040	800.000	0.047	0.193
-596.025	71.619	-0.047	0.050
-595.011	3.342	-0.208	0.154
-593.996	-69.505	0.269	-0.105
-592.982	-124.927	-0.072	-0.011
-591.967	64.690	-0.097	0.100
-590.952	203.134	0.090	-0.142
-589.938	-200.000	-0.001	0.081
-588.923	104.710	0.095	0.114
-587.909	-127.197	0.298	0.044
-586.894	800.000	-0.100	-0.367
-585.879	-200.000	-0.000	-0.308
-584.865	16.167	-0.060	-0.048
-583.850	-83.840	-0.160	0.052
-582.836	-149.646	-0.022	0.002
-581.821	-106.894	-0.287	-0.065
-580.806	-100.135	-0.369	0.093
-579.792	183.647	-0.162	0.243
-578.777	800.000	-0.064	0.188
-577.763	800.000	-0.087	-0.318
-576.748	3.973	-0.199	-0.148
-575.733	-128.392	-0.196	0.028
-574.719	532.525	0.039	0.095
-573.704	-200.000	0.057	0.285
-572.690	-99.133	0.506	-0.130
-571.675	800.000	0.045	-0.184
-570.661	-15.799	-0.152	-0.099
-569.646	-10.756	0.108	-0.073
-568.631	-200.000	0.035	0.421
-567.617	-53.959	-0.448	-0.208
-566.602	800.000	-0.079	0.304
-565.588	800.000	0.062	0.246
-564.573	-107.965	-0.224	-0.049
-563.558	72.573	0.214	0.227
-562.544	-131.870	0.217	0.029
-561.529	-200.000	0.022	-0.275
-560.515	-74.939	-0.166	0.060
-559.500	-121.325	-0.011	-0.002
-558.485	32.507	0.107	-0.094
-557.471	23.180	0.095	-0.080
-556.456	3.662	0.218	0.162
-555.442	-200.000	-0.042	-0.241
-554.427	-32.142	-0.242	-0.137
-553.412	310.732	0.019	-0.037
-552.398	800.000	-0.094	0.283
-551.383	-76.932	-0.315	-0.112
-550.369	9.564	0.061	0.047
-549.354	800.000	-0.014	0.040
-548.339	227.180	-0.148	0.245
-547.325	76.060	-0.086	-0.092
-546.310	278.238	0.102	-0.184
-545.296	167.057	-0.027	-0.039
-544.281	-94.943	-0.253	-0.070
-543.266	-75.009	-0.167	0.061
-542.252	-116.349	0.296	-0.056
-541.237	800.000	0.132	-0.388
-540.223	-60.581	0.079	0.034
-539.208	-77.344	0.098	0.034
-538.193	-200.000	0.070	-0.400
-537.179	144.397	0.083	0.113
-536.164	800.000	-0.037	-0.123
-535.150	7.509	-0.250	-0.190
-534.135	-200.000	0.099	-0.456
-533.121	-65.047	0.100	-0.041
-532.106	-73.189	-0.187	0.070
-531.091	-200.000	-0.033	0.234
-530.077	800.000	0.099	-0.383
-529.062	-76.233	-0.172	0.062
-528.048	6.780	0.341	-0.258
-527.033	138.081	-0.210	-0.279
-526.018	-52.872	-0.284	0.133
-525.004	311.815	0.080	0.152
-523.989	-123.976	0.030	0.005
-522.975	-31.784	0.161	-0.092
-521.960	-74.869	0.212	0.077
-520.945	-74.452	-0.081	-0.030
-519.931	-200.000	-0.035	-0.166
-518.916	342.311	-0.086	-0.171
-517.902	800.000	-0.061	0.190
-516.887	-110.755	0.214	-0.045
-515.872	800.000	-0.046	0.169
-514.858	86.210	-0.147	0.164
-513.843	800.000	-0.061	-0.195
-512.829	110.196	0.248	-0.302
-511.814	-200.000	0.008	0.136
-510.799	370.864	0.136	-0.281
-509.785	215.463	-0.074	0.119
-508.770	800.000	-0.119	0.403
-507.756	-200.000	-0.015	-0.179
-506.741	1.780	-0.143	-0.105
-505.726	336.323	0.125	0.246
-504.712	738.271	-0.109	0.297
-503.697	800.000	0.087	0.305
-502.683	229.682	-0.079	0.131
-501.668	-118.917	0.142	-0.025
-500.653	-200.000	0.023	0.150
-499.639	54.794	0.149	0.146
-498.624	-73.904	-0.256	0.094
-497.610	-17.055	-0.218	-0.140
-496.595	-73.266	0.333	-0.123
-495.581	54.370	-0.135	-0.131
-494.566	-76.077	0.217	0.078
-493.551	151.505	0.088	0.122
-492.537	-135.929	-0.086	-0.010
-491.522	195.474	-0.017	0.026
-490.508	697.682	-0.089	0.238
-489.493	-115.408	0.125	0.024
-488.478	172.897	-0.054	0.079
-487.464	-67.905	-0.418	-0.165
-486.449	125.837	-0.117	-0.149
-485.435	-125.452	-0.078	0.012
-484.420	-29.509	-0.356	0.206
-483.405	800.000	-0.017	0.077
-482.391	-33.636	-0.321	0.180
-481.376	-186.511	-0.350	0.005
-480.362	150.265	0.261	0.359
-479.347	-2.626	0.267	0.189
-478.332	-84.484	0.341	-0.109
-477.318	-27.041	-0.231	-0.137
-476.303	339.153	-0.168	-0.331
-475.289	120.809	0.125	-0.157
-474.274	-200.000	0.054	-0.344
-473.259	800.000	-0.110	-0.459
-472.245	-114.474	0.176	0.034
-471.230	-70.208	-0.336	0.129
-470.216	222.735	0.194	0.316
-469.201	-63.951	-0.374	0.155
-468.186	-200.000	0.027	-0.224
-467.172	-125.969	0.140	-0.021
-466.157	-110.423	0.430	0.090
-465.143	67.170	-0.305	-0.315
-464.128	-200.000	-0.007	-0.118
-463.113	-100.500	-0.135	0.034
-462.099	118.394	-0.079	-0.098
-461.084	-133.308	0.161	0.021
-460.070	-26.050	-0.053	0.032
-459.055	66.314	-0.140	0.144
-458.040	800.000	-0.087	-0.271
-457.026	800.000	-0.074	-0.320
-456.011	-35.649	0.134	-0.074
-454.997	-146.796	0.298	0.026
-453.982	11.628	-0.091	0.071
-452.968	-2.775	0.278	-0.197
-451.953	-41.847	0.456	-0.237
-450.938	770.952	0.078	0.214
-449.924	-102.480	0.234	-0.057
-448.909	-200.000	0.012	-0.148
-447.895	-200.000	0.043	0.345
-446.880	30.433	0.162	-0.140
-445.865	432.815	0.130	0.284
-444.851	249.108	-0.105	-0.180
-443.836	-125.578	0.300	0.046
-442.822	800.000	0.036	-0.105
-441.807	800.000	0.048	0.153
-440.792	-200.000	0.002	-0.087
-439.778	-140.055	0.402	-0.043
-438.763	399.827	-0.053	-0.113
-437.749	412.651	0.100	-0.214
-436.734	-170.088	-0.170	0.006
-435.719	431.983	0.091	-0.198
-434.705	-166.646	-0.174	0.007
-433.690	25.328	0.205	0.172
-432.676	6.725	0.134	0.101
-431.661	800.000	0.056	0.170
-430.646	800.000	0.030	0.088
-429.632	800.000	0.057	0.182
-428.617	-70.653	-0.183	-0.070
-427.603	59.481	0.149	0.149
-426.588	-10.984	-0.280	0.187
-425.573	-99.152	0.088	0.023
-424.559	-52.109	0.234	0.110
-423.544	90.051	0.183	-0.206
-422.530	-52.250	-0.187	0.088
-421.515	142.194	-0.108	0.145
-420.500	-182.354	0.238	0.004
-419.486	800.000	-0.047	-0.180
-418.471	-34.639	0.255	0.141
-417.457	-200.000	-0.011	0.068
-416.442	-200.000	0.002	-0.042
-415.428	-39.204	0.162	-0.086
-414.413	189.895	-0.046	0.069
-413.398	375.543	0.043	0.088
-412.384	478.228	0.054	-0.124
-411.369	106.880	-0.182	0.218
-410.355	85.631	-0.099	0.110
-409.340	800.000	0.064	0.259
-408.325	372.839	-0.054	0.110
-407.311	153.465	0.070	0.097
-406.296	-19.227	-0.160	-0.101
-405.282	105.248	-0.137	0.163
-404.267	295.375	0.092	-0.170
-403.252	-158.277	-0.570	-0.034
-402.238	87.463	0.152	0.170
-401.223	-27.388	0.118	0.069
-400.209	701.765	0.162	-0.431
-399.194	47.477	-0.035	-0.033
-398.179	-200.000	0.007	-0.091
-397.165	-65.227	-0.214	-0.087
-396.150	-72.598	-0.182	-0.068
-395.136	270.811	0.078	-0.138
-394.121	196.833	-0.145	0.224
-393.106	-200.000	0.019	0.154
-392.092	436.772	0.095	0.209
-391.077	428.905	-0.086	-0.188
-390.063	459.625	0.114	-0.257
-389.048	80.035	-0.285	0.310
-388.033	-178.103	0.341	-0.008
-387.019	-44.936	-0.215	0.108
-386.004	370.695	-0.094	0.192
-384.990	48.031	0.111	-0.105
-383.975	95.947	-0.039	-0.045
-382.960	112.821	0.167	0.204
-381.946	-29.992	0.289	-0.166
-380.931	125.913	0.248	-0.316
-379.917	-145.017	0.158	-0.015
-378.902	28.675	0.308	-0.263
-377.888	800.000	-0.098	0.288
-376.873	-47.247	-0.077	-0.038
-375.858	-200.000	0.042	0.215
-374.844	-0.535	-0.300	0.215
-373.829	800.000	-0.146	-0.577
-372.815	122.810	-0.399	0.504
-371.800	472.320	-0.165	0.375
-370.785	800.000	0.060	0.219
-369.771	145.108	0.117	0.157
-368.756	-99.566	-0.121	0.031
-367.742	101.489	0.151	0.178
-366.727	243.630	-0.147	0.249
-365.712	-182.259	-0.206	0.004
-364.698	-117.352	-0.162	0.030
-363.683	-200.000	0.005	0.234
-362.669	192.791	-0.031	0.048
-361.654	-200.000	-0.000	0.137
-360.639	800.000	-0.036	-0.144
-359.625	800.000	-0.032	-0.111
-358.610	-77.469	-0.183	0.064
-357.596	196.855	0.074	0.114
-356.581	-12.872	0.219	-0.144
-355.566	-200.000	-0.011	-0.256
-354.552	32.140	0.186	-0.162
-353.537	-200.000	0.018	0.198
-352.523	202.847	0.164	-0.256
-351.508	-200.000	0.014	0.128
-350.493	-200.000	0.367	0.000
-349.479	36.361	0.119	-0.105
-348.464	-167.064	-0.271	0.011
-347.450	-136.166	-0.108	-0.013
-346.435	394.992	0.017	-0.035
-345.420	744.230	0.125	0.339
-344.406	465.003	0.128	-0.288
-343.391	-50.299	-0.209	0.099
-342.377	278.834	0.112	0.201
-341.362	21.455	0.195	-0.160
-340.348	-148.427	-0.097	0.008
-339.333	-55.146	-0.303	0.137
-338.318	-200.000	0.018	0.282
-337.304	800.000	-0.084	0.322
-336.289	5.240	0.004	0.003
-335.275	-159.044	0.195	-0.011
-334.260	474.183	-0.037	0.085
-333.245	208.809	-0.197	0.311
-332.231	20.961	-0.140	-0.114
-331.216	-200.000	-0.057	0.321
-330.202	168.496	-0.142	-0.204
-329.187	800.000	-0.064	-0.267
-328.172	66.431	-0.196	-0.201
-327.158	800.000	0.018	-0.066
-326.143	-200.000	-0.002	-0.129
-325.129	187.006	0.225	0.338
-324.114	-122.920	0.029	0.005
-323.099	271.018	0.073	-0.130
-322.085	84.824	-0.144	-0.159
-321.070	-28.930	-0.308	0.178
-320.056	-200.000	0.013	-0.080
-319.041	-137.651	0.075	0.008
-318.026	154.006	-0.080	0.110
-317.012	284.707	0.106	-0.193
-315.997	175.110	-0.160	0.233
-314.983	-200.000	0.092	-0.442
-313.968	377.551	-0.066	-0.136
-312.953	-140.465	-0.211	-0.022
-311.939	-84.097	-0.197	-0.063
-310.924	341.978	0.110	-0.217
-309.910	-200.000	-0.029	-0.425
-308.895	328.518	-0.079	-0.153
-307.880	596.337	0.108	0.270
-306.866	-200.000	0.051	0.240
-305.851	-200.000	-0.006	-0.273
-304.837	205.364	-0.021	0.033
-303.822	-129.665	0.201	-0.028
-302.807	175.191	0.153	-0.223
-301.793	152.700	-0.134	-0.184
-300.778	-50.739	0.376	-0.178
-299.764	246.668	0.134	-0.228
-298.749	-200.000	-0.011	-0.076
-297.735	-200.000	0.007	0.155
-296.720	108.929	0.255	0.307
-295.705	800.000	0.075	-0.265
-294.691	32.239	0.163	0.141
-293.676	-200.000	-0.024	-0.354
-292.662	-16.931	0.146	0.093
-291.647	641.781	0.136	0.348
-290.632	109.033	-0.107	-0.129
-289.618	-200.000	-0.012	0.130
-288.603	-83.792	0.179	-0.057
-287.589	115.919	0.136	-0.168
-286.574	-16.532	-0.280	0.178
-285.559	540.510	-0.019	-0.045
-284.545	694.144	-0.095	0.251
-283.530	-17.528	0.064	-0.041
-282.516	-5.243	-0.084	0.058
-281.501	-200.000	0.056	-0.294
-280.486	168.604	0.073	0.104
-279.472	-3.441	-0.092	0.065
-278.457	-200.000	0.075	0.422
-277.443	-14.065	-0.217	0.141
-276.428	313.333	-0.128	-0.242
-275.413	49.965	-0.168	0.160
-274.399	-200.000	-0.032	0.333
-273.384	-42.242	0.081	0.042
-272.370	-62.134	-0.157	-0.066
-271.355	-200.000	-0.009	-0.175
-270.340	-200.000	0.005	-0.032
-269.326	-166.629	0.181	-0.008
-268.311	-200.000	0.003	0.113
-267.297	-27.662	-0.386	0.225
-266.282	16.597	0.149	-0.119
-265.267	-142.856	0.312	0.030
-264.253	-62.054	0.049	0.020
-263.238	-0.816	-0.039	-0.028
-262.224	-47.583	0.114	-0.056
-261.209	-22.185	-0.387	0.236
-260.195	326.135	0.012	0.023
-259.180	118.656	0.060	0.074
-258.165	800.000	0.065	-0.186
-257.151	-200.000	0.010	0.077
-256.136	800.000	-0.062	-0.202
-255.122	-71.398	0.210	-0.079
-254.107	-200.000	0.039	-0.311
-253.092	17.893	0.033	0.026
-252.078	-101.757	0.124	0.030
-251.063	-200.000	-0.060	-0.273
-250.049	800.000	-0.103	0.406
-249.034	650.957	0.048	-0.124
-248.019	-87.241	0.209	-0.064
-247.005	89.968	0.062	-0.069
-245.990	-14.610	0.233	0.150
-244.976	-30.849	0.409	-0.232
-243.961	160.282	0.088	-0.124
-242.946	81.485	-0.056	0.061
-241.932	-200.000	0.040	-0.266
-240.917	-200.000	-0.022	0.254
-239.903	-41.363	-0.300	0.155
-238.888	-48.844	0.308	0.148
-237.873	566.146	0.055	-0.134
-236.859	800.000	0.094	0.289
-235.844	800.000	-0.061	0.181
-234.830	800.000	0.006	0.025
-233.815	-94.347	0.332	0.091
-232.800	800.000	-0.070	0.222
-231.786	-111.004	0.325	0.067
-230.771	12.753	-0.214	-0.166
-229.757	-85.914	-0.174	0.054
-228.742	-0.978	-0.158	-0.112
-227.727	248.846	0.161	-0.274
-226.713	91.426	-0.106	-0.119
-225.698	-10.699	-0.169	0.112
-224.684	-18.054	-0.206	-0.130
-223.669	184.347	-0.126	-0.187
-222.655	336.964	0.138	0.269
-221.640	-46.689	-0.183	-0.090
-220.625	19.181	0.089	-0.072
-219.611	-55.136	-0.187	-0.084
-218.596	584.620	0.082	0.201
-217.582	149.584	0.118	-0.160
-216.567	-108.753	0.178	0.038
-215.552	-73.681	0.185	-0.068
-214.538	-81.371	-0.168	-0.056
-213.523	-53.017	0.246	0.113
-212.509	-200.000	-0.009	0.209
-211.494	100.686	0.108	0.125
-210.479	-200.000	0.027	0.299
-209.465	-200.000	-0.012	-0.285
-208.450	307.598	0.231	0.432
-207.436	-5.952	0.071	-0.049
-206.421	-41.506	0.056	0.029
-205.406	-200.000	0.018	0.139
-204.392	-12.228	-0.111	-0.073
-203.377	-82.827	0.177	-0.057
-202.363	-109.509	-0.306	0.065
-201.348	-77.156	0.200	-0.070
-200.333	-133.393	0.167	-0.021
-199.319	-32.929	0.333	0.185
-198.304	-200.000	0.013	-0.401
-197.290	-113.277	-0.409	-0.081
-196.275	194.204	0.065	-0.098
-195.260	-103.897	-0.323	0.076
-194.246	-17.610	0.167	0.105
-193.231	-3.514	-0.335	0.234
-192.217	2.589	0.208	-0.151
-191.202	-200.000	0.064	-0.317
-190.187	312.896	0.138	0.260
-189.173	93.117	0.235	0.266
-188.158	-27.498	-0.184	-0.107
-187.144	-49.420	0.211	0.101
-186.129	-96.917	-0.263	0.069
-185.114	185.311	0.205	-0.304
-184.100	-65.945	0.212	-0.085
-183.085	-200.000	0.018	-0.380
-182.071	719.832	-0.189	0.504
-181.056	-117.776	-0.126	0.023
-180.042	-24.940	-0.043	-0.025
-179.027	568.203	0.078	-0.189
-178.012	283.486	-0.113	0.203
-176.998	-200.000	0.002	0.150
-175.983	62.652	-0.196	-0.196
-174.969	-137.826	-0.251	0.028
-173.954	308.079	0.057	-0.106
-172.939	-29.197	0.268	0.154
-171.925	449.219	-0.036	0.079
-170.910	-117.390	0.252	0.046
-169.896	98.733	-0.032	-0.037
-168.881	-69.054	-0.092	0.035
-167.866	-114.448	-0.120	-0.023
-166.852	-200.000	-0.007	0.081
-165.837	-44.059	0.266	-0.134
-164.823	321.947	0.125	0.239
-163.808	711.554	0.103	0.274
-162.793	741.284	0.116	-0.313
-161.779	-106.313	0.115	-0.026
-160.764	441.511	0.016	-0.035
-159.750	-114.653	0.081	0.016
-158.735	318.346	0.048	0.092
-157.720	-48.237	-0.222	-0.107
-156.706	-15.340	-0.381	-0.244
-155.691	-67.844	-0.143	0.056
-154.677	-126.921	-0.073	0.011
-153.662	-200.000	-0.030	0.185
-152.647	-33.410	0.027	-0.015
-151.633	-137.126	0.199	-0.023
-150.618	-130.785	-0.222	0.030
-149.604	9.734	0.278	-0.211
-148.589	231.487	0.089	0.146
-147.574	-118.371	0.122	0.022
-146.560	-110.913	-0.147	-0.030
-145.545	66.319	-0.199	0.203
-144.531	-200.000	0.090	0.409
-143.516	-114.707	-0.253	-0.048
-142.502	-39.320	0.249	-0.131
-141.487	-61.481	0.287	-0.121
-140.472	-96.928	0.195	-0.051
-139.458	-200.000	0.041	-0.209
-138.443	650.113	0.066	0.169
-137.429	-200.000	-0.012	0.338
-136.414	800.000	-0.065	-0.232
-135.399	19.938	-0.295	-0.238
-134.385	-62.163	-0.269	-0.112
-133.370	129.020	0.237	-0.303
-132.356	104.698	0.086	-0.102
-131.341	-23.634	0.151	-0.090
-130.326	-106.217	0.265	-0.059
-129.312	-200.000	0.035	0.254
-128.297	-144.714	0.357	0.033
-127.283	224.579	-0.157	0.254
-126.268	-200.000	-0.003	-0.053
-125.253	-200.000	0.025	-0.166
-124.239	14.122	0.267	0.208
-123.224	800.000	0.030	0.128
-122.210	-73.163	0.251	0.092
-121.195	-132.136	0.325	-0.042
-120.180	-117.492	0.289	0.052
-119.166	242.725	0.147	0.247
-118.151	361.389	0.102	0.204
-117.137	36.977	-0.163	0.144
-116.122	-90.763	-0.121	0.035
-115.107	-200.000	0.000	0.048
-114.093	-200.000	-0.018	0.166
-113.078	800.000	-0.103	-0.358
-112.064	800.000	-0.032	0.128
-111.049	-86.999	-0.181	0.055
-110.034	800.000	0.074	0.320
-109.020	128.878	-0.103	-0.132
-108.005	84.539	-0.103	-0.113
-106.991	-86.811	-0.509	-0.155
-105.976	-130.115	-0.164	0.022
-104.962	-149.893	0.038	0.003
-103.947	371.631	0.105	0.213
-102.932	622.335	0.041	0.104
-101.918	-91.966	0.122	-0.035
-100.903	11.785	-0.154	-0.118
-99.889	58.319	-0.284	-0.278
-98.874	380.230	-0.059	0.121
-97.859	-82.893	0.177	-0.057
-96.845	15.900	0.336	-0.264
-95.830	-27.491	0.201	0.116
-94.816	507.776	-0.118	-0.273
-93.801	-95.087	0.138	0.037
-92.786	-8.590	0.245	-0.164
-91.772	227.651	0.085	0.138
-90.757	-103.843	-0.306	0.071
-89.743	-85.450	0.094	0.029
-88.728	-158.835	0.159	0.009
-87.713	-91.116	0.223	0.064
-86.699	544.400	0.114	-0.272
-85.684	-200.000	0.227	0.001
-84.670	-146.170	0.132	-0.012
-83.655	-180.410	-0.359	0.007
-82.640	-48.185	0.037	0.018
-81.626	-200.000	-0.047	-0.303
-80.611	800.000	-0.077	-0.223
-79.597	-93.748	-0.273	0.075
-78.582	498.786	0.042	0.097
-77.567	-200.000	-0.017	-0.226
-76.553	-52.963	-0.097	0.045
-75.538	217.087	-0.072	-0.115
-74.524	44.629	-0.092	0.085
-73.509	-200.000	-0.022	0.364
-72.494	139.362	0.172	-0.225
-71.480	-200.000	0.029	0.310
-70.465	755.583	-0.062	0.168
-69.451	69.537	0.157	0.161
-68.436	-171.095	0.475	0.016
-67.422	257.295	0.130	-0.222
-66.407	800.000	0.090	0.251
-65.392	-116.517	0.441	-0.081
-64.378	-118.874	0.110	0.019
-63.363	800.000	-0.111	0.328
-62.349	-110.272	0.399	-0.083
-61.334	39.134	-0.758	-0.676
-60.319	160.261	0.133	-0.185
-59.305	-200.000	0.073	-0.878
-58.290	74.855	0.463	0.485
-57.276	779.591	0.567	1.546
-56.261	-200.000	76.277	520.199
-55.246	503.225	1352.463	3116.583
-54.232	137.227	2615.795	3408.622
-53.217	116.738	2262.166	2766.211
-52.203	53.167	1688.560	1611.315
-51.188	44.680	1405.562	1287.839
-50.173	41.063	1358.985	1222.935
-49.159	59.474	1394.467	1369.438
-48.144	66.530	1412.587	1430.835
-47.130	45.254	1375.561	1263.701
-46.115	41.239	1358.383	1223.278
-45.100	40.917	1353.966	1217.279
-44.086	40.702	1351.720	1213.902
-43.071	40.803	1349.001	1212.028
-42.057	40.818	1346.077	1209.441
-41.042	40.914	1344.436	1208.502
-40.027	40.962	1342.794	1207.273
-39.013	40.935	1341.071	1205.513
-37.998	40.985	1338.823	1203.747
-36.984	40.955	1337.426	1202.261
-35.969	41.058	1335.674	1201.261
-34.954	41.127	1333.854	1199.990
-33.940	41.060	1332.941	1198.720
-32.925	41.100	1331.108	1197.262
-31.911	41.094	1329.749	1195.957
-30.896	41.104	1328.549	1194.890
-29.881	41.155	1326.993	1193.748
-28.867	41.200	1325.544	1192.668
-27.852	41.110	1323.786	1190.500
-26.838	41.105	1322.597	1189.356
-25.823	41.100	1320.988	1187.829
-24.809	40.949	1320.204	1186.177
-23.794	41.054	1318.090	1184.857
-22.779	41.036	1316.911	1183.641
-21.765	41.191	1315.497	1183.245
-20.750	41.144	1313.794	1181.389
-19.736	41.060	1312.431	1179.618
-18.721	41.130	1310.981	1178.679
-17.706	41.021	1310.261	1177.341
-16.692	40.934	1309.147	1175.781
-15.677	40.941	1307.749	1174.517
-14.663	40.981	1306.550	1173.630
-13.648	40.855	1306.131	1172.463
-12.633	40.967	1304.672	1171.769
-11.619	40.933	1303.822	1170.758
-10.604	40.923	1303.102	1170.010
-9.590	40.946	1301.665	1168.807
-8.575	40.937	1300.355	1167.532
-7.560	40.893	1299.992	1166.902
-6.546	40.879	1299.266	1166.117
-5.531	40.914	1298.016	1165.155
-4.517	40.916	1297.878	1165.001
-3.502	41.001	1296.319	1164.050
-2.487	40.964	1295.254	1162.833
-1.473	41.119	1291.953	1160.728
-0.458	40.719	1277.882	1145.727
0.556	35.743	1259.263	1106.843
1.571	30.941	1261.993	1081.361
2.586	28.533	1275.371	1078.587
3.600	26.304	1262.969	1055.007
4.615	18.777	1183.977	947.570
5.629	6.720	1099.051	817.420
6.644	0.861	1074.231	769.169
7.659	0.325	1071.480	764.413
8.673	0.125	1070.600	762.702
9.688	0.132	1069.071	761.583
10.702	0.407	1067.829	762.019
11.717	6.148	1076.092	797.019
12.731	15.471	1087.870	853.264
13.746	18.195	1091.148	869.622
14.761	17.156	1088.817	862.417
15.775	16.309	1086.215	855.986
16.790	15.155	1084.483	848.705
17.804	14.458	1082.252	843.355
18.819	14.089	1081.513	840.840
19.834	13.749	1080.692	838.409
20.848	13.417	1079.706	835.896
21.863	13.286	1078.617	834.315
22.877	13.101	1077.768	832.654
23.892	13.138	1076.963	832.142
24.907	13.095	1076.535	831.522
25.921	13.123	1075.908	831.104
26.936	13.075	1074.836	829.963
27.950	13.170	1073.426	829.280
28.965	13.077	1072.761	828.222
29.980	13.289	1070.934	827.801
30.994	13.299	1070.152	827.174
32.009	13.324	1069.276	826.546
33.023	13.356	1068.028	825.669
34.038	13.238	1067.517	824.611
35.053	13.237	1066.513	823.760
36.067	13.255	1065.642	823.106
37.082	13.277	1064.760	822.460
38.096	13.234	1064.350	821.854
39.111	13.259	1063.564	821.302
40.126	13.225	1062.097	819.924
41.140	13.149	1060.881	818.540
42.155	13.184	1059.319	817.432
43.169	13.117	1059.093	816.855
44.184	13.076	1057.844	815.616
45.199	13.027	1056.851	814.537
46.213	13.257	1055.260	814.372
47.228	13.103	1054.665	813.086
48.242	13.197	1053.541	812.608
49.257	13.233	1052.387	811.822
50.271	13.220	1051.507	811.007
51.286	13.287	1050.337	810.360
52.301	13.207	1050.013	809.648
53.315	13.172	1048.657	808.360
54.330	13.161	1047.565	807.394
55.344	13.276	1046.688	807.206
56.359	13.063	1046.064	805.615
57.374	13.066	1045.621	805.220
58.388	13.156	1044.410	804.651
59.403	13.061	1043.487	803.409
60.417	13.006	1042.672	802.443
61.432	13.104	1041.624	802.040
62.447	12.956	1040.953	800.736
63.461	12.927	1040.293	800.013
64.476	13.087	1038.869	799.626
65.490	13.093	1038.037	798.943
66.505	13.151	1037.496	798.737
67.520	13.070	1036.816	797.749
68.534	13.108	1036.041	797.265
69.549	13.021	1035.426	796.301
70.563	13.077	1034.722	795.962
71.578	12.960	1033.715	794.553
72.593	13.013	1033.372	794.474
73.607	12.968	1032.794	793.742
74.622	13.058	1031.633	793.214
75.636	12.989	1030.982	792.311
76.651	13.126	1029.967	792.115
77.666	13.045	1029.351	791.186
78.680	12.993	1029.242	790.780
79.695	12.980	1028.643	790.191
80.709	12.997	1027.963	789.677
81.724	12.955	1027.099	788.744
82.739	13.086	1026.306	788.690
83.753	13.241	1025.536	788.769
84.768	13.310	1024.439	788.183
85.782	13.274	1023.148	786.950
86.797	13.182	1022.605	786.025
87.812	13.246	1021.430	785.357
88.826	13.191	1020.828	784.565
89.841	13.243	1019.909	784.037
90.855	13.220	1019.209	783.317
91.870	13.312	1018.299	782.983
92.884	13.263	1017.543	782.103
93.899	13.421	1016.173	781.727
94.914	13.417	1015.300	780.968
95.928	13.437	1014.537	780.405
96.943	13.276	1013.950	779.128
97.957	13.324	1013.323	778.801
98.972	13.295	1012.427	777.907
99.987	13.381	1011.010	777.153
101.001	13.463	1010.179	776.833
102.016	13.291	1009.416	775.370
103.030	13.196	1008.952	774.501
104.045	13.300	1008.201	774.341
105.060	13.210	1007.396	773.235
106.074	13.258	1006.331	772.573
107.089	13.271	1004.927	771.487
108.103	13.154	1004.315	770.405
109.118	13.163	1003.255	769.565
110.133	13.093	1002.730	768.767
111.147	13.132	1001.904	768.249
112.162	13.067	1000.850	767.070
113.176	13.321	999.637	767.251
114.191	13.309	999.249	766.830
115.206	13.337	998.494	766.309
116.220	13.266	997.364	765.047
117.235	13.269	996.904	764.642
118.249	13.227	996.077	763.743
119.264	13.279	995.031	763.116
120.279	13.084	994.528	761.762
121.293	13.265	993.234	761.539
122.308	13.225	992.452	760.687
123.322	13.121	991.906	759.723
124.337	13.137	990.275	758.479
125.352	13.187	989.493	758.042
126.366	13.112	988.902	757.177
127.381	13.123	987.595	756.160
128.395	13.182	986.735	755.704
129.410	13.305	985.644	755.367
130.424	13.193	984.881	754.203
131.439	13.181	984.326	753.655
132.454	13.376	983.198	753.615
133.468	13.373	982.580	753.058
134.483	13.371	981.526	752.175
135.497	13.312	980.465	751.028
136.512	13.461	979.780	751.113
137.527	13.320	979.171	749.942
138.541	13.404	978.174	749.493
139.556	13.479	977.509	749.256
140.570	13.479	976.987	748.789
141.585	13.528	976.008	748.195
142.600	13.477	974.769	746.947
143.614	13.549	974.552	747.041
144.629	13.658	973.642	746.767
145.643	13.509	972.244	744.960
146.658	13.494	971.400	744.181
147.673	13.396	970.524	743.001
148.687	13.301	970.202	742.262
149.702	13.460	968.393	741.525
150.716	13.377	967.660	740.529
151.731	13.305	967.179	739.773
152.746	13.338	966.547	739.370
153.760	13.443	965.870	739.258
154.775	13.473	965.312	738.899
155.789	13.449	964.786	738.321
156.804	13.443	964.103	737.708
157.819	13.535	963.090	737.279
158.833	13.536	962.738	736.946
159.848	13.571	961.539	736.121
160.862	13.550	960.920	735.486
161.877	13.564	959.912	734.711
162.892	13.480	959.071	733.631
163.906	13.369	957.846	732.138
164.921	13.522	957.020	732.117
165.935	13.522	955.915	731.207
166.950	13.590	955.156	730.864
167.964	13.507	954.385	729.845
168.979	13.527	953.344	729.072
169.994	13.555	952.639	728.588
171.008	13.601	951.584	727.922
172.023	13.740	951.229	728.197
173.037	13.579	950.610	726.950
174.052	13.610	949.767	726.379
175.067	13.580	949.108	725.678
176.081	13.524	948.490	724.896
177.096	13.596	947.698	724.542
178.110	13.666	947.230	724.427
179.125	13.544	946.823	723.519
180.140	13.646	946.294	723.496
181.154	13.646	945.712	722.987
182.169	13.724	944.854	722.606
183.183	13.738	944.448	722.293
184.198	13.735	943.805	721.723
185.213	13.774	942.850	721.097
186.227	13.888	942.238	721.061
187.242	13.797	941.932	720.369
188.256	13.824	941.116	719.799
189.271	13.796	940.370	719.041
190.286	13.860	939.196	718.357
191.300	13.696	938.625	717.146
192.315	13.686	937.967	716.538
193.329	13.648	937.724	716.124
194.344	13.674	937.152	715.736
195.359	13.819	935.846	715.302
196.373	13.758	935.659	714.831
197.388	13.897	934.986	714.854
198.402	14.059	934.694	715.266
199.417	13.986	934.342	714.617
200.432	13.979	933.704	714.034
201.446	13.999	932.969	713.496
202.461	14.058	932.969	713.685
203.475	13.950	931.811	712.277
204.490	14.012	931.099	711.934
205.504	14.014	930.443	711.377
206.519	14.162	929.567	711.280
207.534	14.115	928.834	710.454
208.548	14.055	928.551	709.917
209.563	14.100	927.173	708.992
210.577	14.143	926.651	708.715
211.592	14.270	925.926	708.636
212.607	14.226	925.156	707.800
213.621	14.125	924.475	706.785
214.636	14.132	924.003	706.393
215.650	14.226	922.819	705.823
216.665	14.224	922.411	705.440
217.680	14.301	921.804	705.241
218.694	14.430	920.592	704.796
219.709	14.354	920.400	704.265
220.723	14.419	919.813	704.027
221.738	14.176	919.445	702.657
222.753	14.282	918.501	702.322
223.767	14.382	917.636	702.019
224.782	14.399	917.112	701.629
225.796	14.372	916.729	701.158
226.811	14.565	915.800	701.198
227.826	14.321	915.226	699.673
228.840	14.443	914.462	699.539
229.855	14.357	913.707	698.538
230.869	14.406	913.087	698.205
231.884	14.437	912.262	697.643
232.899	14.423	911.650	697.058
233.913	14.523	910.926	696.860
234.928	14.417	910.170	695.778
235.942	14.343	909.700	695.047
236.957	14.446	909.030	694.903
237.972	14.504	908.415	694.612
238.986	14.445	907.732	693.782
240.001	14.423	907.024	693.091
241.015	14.477	906.770	693.060
242.030	14.441	905.684	692.017
243.045	14.368	905.266	691.332
244.059	14.606	904.849	691.941
245.074	14.406	904.366	690.680
246.088	14.573	903.289	690.489
247.103	14.576	902.770	690.043
248.117	14.574	902.390	689.684
249.132	14.758	901.341	689.581
250.147	14.653	900.908	688.757
251.161	14.891	899.872	688.885
252.176	14.782	899.547	688.124
253.190	14.779	899.042	687.665
254.205	14.799	898.376	687.176
255.220	14.887	897.561	686.853
256.234	14.943	897.362	686.871
257.249	14.988	895.926	685.896
258.263	14.906	895.875	685.459
259.278	14.943	895.274	685.091
260.293	15.012	894.246	684.528
261.307	15.110	893.628	684.395
262.322	15.150	892.994	684.011
263.336	15.135	892.213	683.289
264.351	15.078	891.478	682.433
265.366	15.152	891.188	682.452
266.380	15.109	890.448	681.650
267.395	15.124	889.690	681.073
268.409	15.105	889.072	680.464
269.424	14.927	888.342	679.121
270.439	15.004	887.370	678.631
271.453	15.054	887.068	678.541
272.468	15.171	886.142	678.246
273.482	15.092	885.449	677.337
274.497	15.154	885.096	677.257
275.512	15.162	884.599	676.851
276.526	15.182	884.243	676.596
277.541	15.205	883.656	676.182
278.555	15.275	882.936	675.853
279.570	15.317	882.348	675.513
280.585	15.362	881.751	675.177
281.599	15.321	880.952	674.340
282.614	15.248	880.201	673.411
283.628	15.388	879.568	673.432
284.643	15.367	878.859	672.744
285.657	15.259	878.299	671.825
286.672	15.326	878.111	671.887
287.687	15.334	877.167	671.137
288.701	15.341	876.478	670.580
289.716	15.479	876.004	670.709
290.730	15.507	875.151	670.107
291.745	15.510	874.687	669.708
292.760	15.393	874.238	668.837
293.774	15.534	873.530	668.796
294.789	15.523	872.954	668.255
295.803	15.597	871.701	667.528
296.818	15.505	871.174	666.702
297.833	15.464	870.757	666.160
298.847	15.635	870.312	666.441
299.862	15.724	869.148	665.839
300.876	15.554	869.012	665.004
301.891	15.573	868.779	664.841
302.906	15.682	867.788	664.458
303.920	15.775	867.494	664.540
304.935	15.761	866.997	664.046
305.949	15.653	866.335	663.054
306.964	15.713	865.776	662.801
307.979	15.728	865.058	662.253
308.993	15.823	864.937	662.477
310.008	15.853	864.049	661.857
311.022	15.929	863.170	661.422
312.037	15.680	863.156	660.376
313.052	15.791	862.235	660.048
314.066	15.686	861.505	659.018
315.081	15.894	861.083	659.452
316.095	15.813	860.552	658.669
317.110	15.711	859.932	657.741
318.125	15.736	859.343	657.329
319.139	15.654	859.245	656.873
320.154	15.784	858.467	656.728
321.168	15.801	857.889	656.295
322.183	15.782	857.733	656.045
323.197	15.924	856.799	655.825
324.212	15.988	856.065	655.452
325.227	15.876	855.963	654.882
326.241	15.879	855.209	654.258
327.256	15.844	854.814	653.764
328.270	15.827	854.037	653.045
329.285	15.914	853.226	652.704
330.300	15.876	852.860	652.219
331.314	15.825	852.429	651.634
332.329	15.963	851.848	651.666
333.343	16.038	851.286	651.470
334.358	16.028	850.712	650.932
335.373	15.995	850.526	650.607
336.387	16.183	850.208	651.031
337.402	15.893	850.140	649.800
338.416	16.010	849.815	649.947
339.431	16.144	849.116	649.869
340.446	16.187	848.773	649.716
341.460	16.233	848.171	649.375
342.475	16.219	847.790	648.973
343.489	16.243	847.551	648.825
344.504	16.365	846.868	648.713
345.519	16.320	846.653	648.316
346.533	16.329	845.978	647.776
347.548	16.177	845.474	646.752
348.562	16.248	844.825	646.471
349.577	16.207	844.251	645.815
350.592	16.247	843.156	645.076
351.606	16.281	842.738	644.829
352.621	16.320	842.234	644.533
353.635	16.381	841.678	644.285
354.650	16.271	841.259	643.489
355.665	16.419	840.263	643.230
356.679	16.331	839.701	642.410
357.694	16.414	838.877	642.037
358.708	16.515	838.127	641.792
359.723	16.520	837.534	641.299
360.738	16.487	837.512	641.101
361.752	16.389	836.699	640.049
362.767	16.463	836.210	639.898
363.781	16.585	835.581	639.824
364.796	16.565	835.118	639.334
365.810	16.689	834.822	639.523
366.825	16.598	834.438	638.825
367.840	16.593	834.098	638.491
368.854	16.568	833.604	637.963
369.869	16.653	832.639	637.486
370.883	16.663	832.501	637.364
371.898	16.650	832.367	637.155
372.913	16.732	832.010	637.136
373.927	16.692	831.362	636.429
374.942	16.841	830.672	636.407
375.956	16.843	830.553	636.268
376.971	16.917	829.632	635.783
377.986	16.752	829.568	635.059
379.000	16.939	829.045	635.303
380.015	16.933	828.356	634.695
381.029	16.732	828.091	633.683
382.044	16.867	827.422	633.622
383.059	16.962	826.780	633.427
384.073	16.917	826.259	632.804
385.088	16.864	825.618	632.060
386.102	16.998	824.818	631.889
387.117	16.987	824.394	631.469
388.132	17.125	823.727	631.417
389.146	16.960	822.931	630.138
390.161	16.951	822.999	630.101
391.175	16.897	822.537	629.490
392.190	16.940	821.715	628.963
393.205	16.943	821.621	628.847
394.219	16.915	821.288	628.432
395.234	16.955	820.893	628.222
396.248	16.917	820.373	627.629
397.263	16.999	819.676	627.344
398.278	16.995	819.428	627.083
399.292	16.961	819.191	626.723
400.307	17.038	818.625	626.517
401.321	16.980	818.024	625.789
402.336	17.036	817.566	625.590
403.350	17.142	817.062	625.538
404.365	17.176	816.551	625.216
405.380	17.288	816.153	625.268
406.394	17.302	815.412	624.696
407.409	17.194	815.139	624.034
408.423	17.282	814.966	624.171
409.438	17.450	814.365	624.271
410.453	17.488	813.908	624.005
411.467	17.422	813.457	623.363
412.482	17.295	813.115	622.579
413.496	17.445	812.596	622.676
414.511	17.412	812.311	622.283
415.526	17.465	811.765	622.003
416.540	17.448	811.438	621.635
417.555	17.487	810.907	621.318
418.569	17.477	810.561	620.958
419.584	17.513	810.139	620.713
420.599	17.461	809.900	620.285
421.613	90.323	1261.656	1360.555
422.628	77.309	1327.498	1360.672
