DTS Sentinel unit serial number:	SN413079Multiplexer serial number:	ORYXHardware model number:	OX4-SRSoftware version number:	ORYX F/W v4.00 Oryx Data Collector v3.7.2.0data status	okinstallation	princeton_trtdifferential loss correction	single-endedforward channel	channel 1reverse channel	N/Adate	2019/09/17time	20:02:35forward acquisition time	60.00reverse acquisition time	0.00gamma	496.2192k internal	0.2325k external	0.2325temperature offset calibration	0.9977default loss term (dB/km)	0.3790temperature slope calibration	1.0000multiplexer offset coefficient	1.0000multiplexer slope coefficient	1.0000fibre end	0.00T internal ref (°C)	33.05T ext. ref 1 (°C)	0.22T ext. ref 2 (°C)	22.80length (m)	temperature (°C)	Stokes	anti-Stokes-747.200	305.869	-0.203	-0.381
-746.185	800.000	0.057	0.211
-745.171	-141.669	0.156	0.016
-744.156	81.117	0.083	-0.091
-743.142	-200.000	-0.007	0.180
-742.127	-200.000	0.043	0.316
-741.112	-164.398	0.337	0.016
-740.098	79.410	-0.257	0.278
-739.083	48.003	-0.146	0.138
-738.069	800.000	0.055	0.230
-737.054	-200.000	-0.086	0.396
-736.039	34.085	-0.262	-0.230
-735.025	128.701	0.166	0.213
-734.010	172.741	-0.334	0.486
-732.996	87.934	-0.227	-0.254
-731.981	-54.117	0.211	-0.097
-730.966	196.718	0.146	-0.225
-729.952	-127.805	-0.296	-0.043
-728.937	105.954	-0.165	-0.197
-727.923	-57.063	-0.480	0.213
-726.908	-32.505	0.126	0.071
-725.894	273.952	-0.162	-0.289
-724.879	-18.181	-0.091	-0.057
-723.864	-69.410	-0.215	0.083
-722.850	-124.531	-0.334	0.052
-721.835	-200.000	-0.025	-0.172
-720.821	-34.797	-0.415	0.229
-719.806	-149.836	0.330	-0.026
-718.791	-24.235	-0.258	-0.155
-717.777	160.624	-0.178	0.250
-716.762	800.000	-0.083	0.301
-715.748	26.113	0.081	-0.068
-714.733	60.817	0.200	0.200
-713.718	381.669	0.128	0.265
-712.704	-30.381	-0.029	-0.017
-711.689	31.200	-0.320	0.277
-710.675	549.076	-0.073	-0.177
-709.660	-200.000	-0.039	-0.258
-708.645	-200.000	0.018	0.194
-707.631	-100.961	-0.261	0.065
-706.616	-106.274	0.275	-0.062
-705.602	-37.867	-0.113	0.061
-704.587	178.015	-0.180	-0.265
-703.572	118.003	0.023	0.029
-702.558	262.762	-0.087	0.152
-701.543	-135.332	-0.383	0.046
-700.529	-135.226	0.059	-0.007
-699.514	124.003	-0.178	0.225
-698.499	-104.041	-0.131	0.031
-697.485	62.890	0.317	-0.320
-696.470	32.719	-0.247	0.215
-695.456	800.000	0.085	0.251
-694.441	45.917	-0.260	-0.242
-693.426	800.000	0.058	-0.168
-692.412	204.425	-0.158	-0.247
-691.397	-113.865	-0.320	0.063
-690.383	800.000	-0.087	-0.302
-689.368	-200.000	0.054	-0.445
-688.354	-69.272	0.153	-0.059
-687.339	-184.312	-0.562	0.009
-686.324	394.375	0.117	-0.245
-685.310	-113.485	0.151	-0.030
-684.295	-192.770	-0.042	0.000
-683.281	-200.000	-0.022	0.285
-682.266	-200.000	0.075	0.343
-681.251	79.070	-0.178	0.192
-680.237	800.000	-0.063	-0.202
-679.222	-55.583	-0.094	-0.042
-678.208	-0.027	-0.205	0.147
-677.193	-105.490	0.199	-0.046
-676.178	-200.000	0.007	-0.113
-675.164	29.300	0.051	0.043
-674.149	-122.140	-0.157	0.026
-673.135	85.067	0.130	0.143
-672.120	243.433	-0.157	-0.265
-671.105	-70.140	-0.310	-0.118
-670.091	-30.707	0.272	0.155
-669.076	-137.772	0.058	-0.007
-668.062	800.000	-0.035	-0.145
-667.047	145.211	0.054	0.073
-666.032	-48.536	-0.264	-0.128
-665.018	-152.840	-0.139	0.010
-664.003	637.851	0.106	0.272
-662.989	-172.280	0.209	-0.007
-661.974	-41.149	0.165	-0.086
-660.959	800.000	-0.047	-0.168
-659.945	-25.112	-0.223	-0.133
-658.930	481.191	-0.006	-0.013
-657.916	-141.373	-0.424	-0.043
-656.901	-200.000	-0.003	-0.111
-655.886	-3.846	0.160	0.112
-654.872	389.293	-0.036	0.074
-653.857	118.601	-0.158	0.196
-652.843	209.889	0.054	-0.085
-651.828	-95.535	0.283	0.076
-650.814	-61.660	0.105	0.044
-649.799	322.486	0.131	0.251
-648.784	-89.257	0.157	-0.047
-647.770	-110.186	0.180	-0.038
-646.755	524.374	-0.103	-0.243
-645.741	-17.312	0.157	-0.100
-644.726	-80.912	0.244	-0.081
-643.711	212.464	-0.060	0.095
-642.697	-119.062	0.359	-0.063
-641.682	-59.351	0.087	0.038
-640.668	-200.000	-0.099	0.444
-639.653	-149.188	-0.374	-0.030
-638.638	800.000	-0.054	-0.185
-637.624	24.629	0.095	0.079
-636.609	395.832	-0.072	0.151
-635.595	-18.317	-0.061	-0.038
-634.580	36.493	0.095	-0.085
-633.565	-92.843	0.018	0.005
-632.551	-200.000	0.001	-0.194
-631.536	-81.765	0.249	-0.082
-630.522	-32.209	0.213	-0.119
-629.507	-191.281	0.309	-0.003
-628.492	148.176	-0.269	-0.364
-627.478	491.475	-0.111	0.255
-626.463	80.083	0.166	0.179
-625.449	618.729	0.125	0.316
-624.434	-118.652	-0.371	-0.066
-623.419	-125.445	0.219	0.034
-622.405	65.855	-0.266	-0.271
-621.390	159.906	0.064	-0.090
-620.376	168.109	-0.143	-0.205
-619.361	800.000	-0.112	-0.319
-618.346	800.000	0.036	0.119
-617.332	-162.564	-0.518	0.026
-616.317	-159.118	-0.164	0.009
-615.303	-138.651	-0.408	0.045
-614.288	-57.663	-0.260	0.114
-613.273	637.022	0.126	0.320
-612.259	-200.000	-0.029	-0.289
-611.244	-200.000	0.018	-0.184
-610.230	-200.000	-0.044	-0.252
-609.215	-130.320	0.218	-0.030
-608.201	800.000	0.027	0.109
-607.186	-200.000	0.025	-0.126
-606.171	-71.790	-0.157	-0.059
-605.157	97.551	0.297	-0.342
-604.142	202.475	0.113	0.175
-603.128	721.023	-0.057	-0.153
-602.113	106.012	0.202	-0.241
-601.098	14.048	0.252	-0.197
-600.084	-200.000	0.026	0.637
-599.069	800.000	0.030	-0.111
-598.055	-200.000	0.036	0.432
-597.040	-22.770	-0.201	-0.122
-596.025	-40.425	0.220	0.115
-595.011	-123.387	0.176	0.028
-593.996	11.324	-0.078	0.060
-592.982	42.018	-0.132	-0.120
-591.967	-50.275	-0.304	-0.144
-590.952	-97.510	-0.058	0.015
-589.938	-39.583	0.118	0.062
-588.923	507.346	-0.067	0.157
-587.909	-90.388	-0.273	-0.079
-586.894	-29.071	-0.114	0.065
-585.879	323.534	-0.112	-0.213
-584.865	-65.811	-0.216	0.087
-583.850	193.257	-0.053	0.081
-582.836	-174.703	-0.404	-0.011
-581.821	348.998	-0.064	0.126
-580.806	168.430	0.112	0.160
-579.792	800.000	-0.118	-0.409
-578.777	-98.099	0.126	0.032
-577.763	63.272	0.154	-0.155
-576.748	-200.000	-0.014	-0.309
-575.733	-200.000	-0.031	0.152
-574.719	-167.725	0.031	-0.001
-573.704	31.975	0.184	-0.159
-572.690	-96.224	0.099	-0.026
-571.675	-5.874	-0.218	-0.150
-570.661	-80.072	0.118	0.040
-569.646	276.681	-0.140	0.249
-568.631	115.327	0.296	-0.363
-567.617	159.283	0.126	0.176
-566.602	-86.402	0.212	0.065
-565.588	47.629	0.214	-0.200
-564.573	-200.000	0.010	-0.161
-563.558	30.635	0.096	-0.082
-562.544	539.933	0.076	0.181
-561.529	800.000	-0.074	0.280
-560.515	-133.329	0.101	0.013
-559.500	527.552	0.099	0.235
-558.485	101.641	0.164	-0.191
-557.471	160.232	0.131	0.183
-556.456	800.000	-0.125	0.375
-555.442	-147.261	0.219	-0.019
-554.427	-17.682	-0.178	0.112
-553.412	-89.749	-0.168	-0.049
-552.398	-200.000	0.014	-0.342
-551.383	263.470	0.110	-0.191
-550.369	9.639	0.310	-0.235
-549.354	-168.010	0.283	0.011
-548.339	737.095	-0.036	-0.096
-547.325	-6.688	0.205	0.140
-546.310	800.000	0.072	-0.202
-545.296	-200.000	-0.035	0.340
-544.281	-7.674	-0.267	0.181
-543.266	-139.218	0.235	0.025
-542.252	546.259	-0.126	0.301
-541.237	83.601	-0.181	-0.197
-540.223	800.000	0.065	-0.250
-539.208	-200.000	-0.062	-0.488
-538.193	469.359	0.102	0.229
-537.179	-130.797	-0.088	0.012
-536.164	86.410	0.137	0.151
-535.150	50.463	0.176	0.167
-534.135	-76.008	0.230	0.081
-533.121	163.277	-0.115	-0.162
-532.106	77.843	0.088	0.094
-531.091	-79.881	0.108	0.036
-530.077	800.000	0.050	0.155
-529.062	-134.422	0.086	0.010
-528.048	34.511	0.241	-0.211
-527.033	-200.000	0.034	-0.214
-526.018	-200.000	-0.017	-0.100
-525.004	-40.398	-0.182	-0.095
-523.989	-144.607	-0.220	0.020
-522.975	657.286	0.054	0.140
-521.960	-200.000	-0.034	0.157
-520.945	-150.043	0.379	-0.029
-519.931	-107.275	0.177	-0.039
-518.916	276.719	-0.142	0.253
-517.902	-200.000	0.022	0.341
-516.887	-200.000	-0.008	-0.280
-515.872	-34.360	-0.255	0.140
-514.858	-13.031	0.010	0.007
-513.843	75.280	-0.088	-0.093
-512.829	50.237	-0.274	0.259
-511.814	-18.585	-0.154	-0.096
-510.799	104.437	-0.127	-0.149
-509.785	104.958	-0.063	-0.074
-508.770	434.461	-0.084	0.183
-507.756	-111.817	0.171	-0.035
-506.741	800.000	0.022	-0.086
-505.726	81.712	0.169	0.183
-504.712	-44.283	0.147	0.074
-503.697	-12.547	-0.072	0.047
-502.683	-74.694	0.044	-0.016
-501.668	288.779	-0.078	-0.141
-500.653	-21.120	-0.248	0.152
-499.639	-104.917	-0.277	0.064
-498.624	-62.651	0.163	0.067
-497.610	564.152	-0.109	0.263
-496.595	-200.000	0.014	0.282
-495.581	462.722	-0.118	-0.262
-494.566	236.342	0.162	-0.268
-493.551	72.273	0.098	-0.102
-492.537	-200.000	0.015	-0.226
-491.522	-200.000	-0.018	-0.198
-490.508	-200.000	-0.020	-0.247
-489.493	-200.000	-0.023	-0.213
-488.478	260.028	0.207	-0.357
-487.464	185.946	0.104	0.154
-486.449	-91.143	0.243	-0.070
-485.435	-200.000	0.022	-0.135
-484.420	800.000	-0.049	-0.137
-483.405	-67.314	0.213	-0.084
-482.391	256.764	-0.079	0.136
-481.376	-18.281	0.014	0.009
-480.362	31.182	-0.063	-0.054
-479.347	-159.586	0.414	-0.023
-478.332	191.446	-0.196	-0.296
-477.318	800.000	0.057	-0.221
-476.303	-200.000	-0.034	-0.217
-475.289	-200.000	-0.036	0.195
-474.274	-155.566	-0.232	-0.015
-473.259	-62.949	-0.170	-0.070
-472.245	-162.114	-0.194	-0.010
-471.230	-127.629	-0.320	0.046
-470.216	134.920	-0.010	-0.013
-469.201	-175.058	-0.132	0.004
-468.186	-55.974	0.243	-0.108
-467.172	-16.191	-0.242	0.153
-466.157	-65.733	-0.306	-0.122
-465.143	-96.357	-0.207	-0.055
-464.128	-6.796	0.150	-0.102
-463.113	-70.340	-0.225	-0.085
-462.099	468.241	-0.090	0.202
-461.084	-1.445	-0.146	0.103
-460.070	-200.000	-0.033	0.262
-459.055	169.474	0.174	0.248
-458.040	800.000	-0.043	-0.180
-457.026	-136.434	-0.263	-0.031
-456.011	3.567	0.278	0.203
-454.997	-98.617	0.171	-0.043
-453.982	-30.406	0.242	0.137
-452.968	-177.499	0.186	0.005
-451.953	-102.466	0.423	0.101
-450.938	-200.000	-0.006	-0.245
-449.924	-200.000	-0.030	-0.228
-448.909	-200.000	-0.001	0.113
-447.895	-200.000	0.015	-0.110
-446.880	244.845	-0.161	0.270
-445.865	218.825	-0.127	-0.202
-444.851	-90.369	-0.372	-0.108
-443.836	800.000	-0.101	-0.279
-442.822	430.028	-0.027	0.059
-441.807	308.128	-0.103	-0.191
-440.792	-47.300	-0.229	0.111
-439.778	-52.158	-0.045	0.021
-438.763	-22.709	-0.181	-0.109
-437.749	-165.884	0.307	-0.013
-436.734	51.787	-0.252	0.239
-435.719	-200.000	0.007	0.103
-434.705	-200.000	0.006	-0.123
-433.690	53.214	0.272	0.260
-432.676	-125.785	-0.204	0.031
-431.661	-44.679	-0.118	0.059
-430.646	33.761	-0.330	-0.286
-429.632	109.313	0.156	0.186
-428.617	771.458	0.058	0.158
-427.603	168.144	-0.049	0.069
-426.588	17.855	-0.169	-0.134
-425.573	183.174	0.067	0.098
-424.559	15.900	0.260	0.204
-423.544	-200.000	-0.074	0.460
-422.530	148.855	0.278	-0.375
-421.515	-92.679	0.219	-0.061
-420.500	-164.443	0.148	-0.007
-419.486	11.300	0.118	-0.090
-418.471	-75.191	0.150	0.053
-417.457	143.286	-0.156	-0.207
-416.442	-83.045	-0.171	0.055
-415.428	-128.205	-0.429	0.061
-414.413	-23.099	-0.155	0.093
-413.398	118.509	-0.160	0.197
-412.384	-4.965	0.226	-0.155
-411.369	-82.527	0.608	0.197
-410.355	379.063	-0.030	-0.061
-409.340	57.539	0.110	-0.107
-408.325	-200.000	0.009	0.052
-407.311	39.422	-0.161	0.144
-406.296	117.232	0.106	0.129
-405.282	487.120	0.031	-0.070
-404.267	-59.331	-0.535	-0.229
-403.252	275.153	0.119	-0.211
-402.238	-39.496	0.186	-0.097
-401.223	-200.000	-0.000	-0.077
-400.209	-31.097	0.274	-0.154
-399.194	-159.955	-0.356	-0.019
-398.179	-12.055	0.331	-0.216
-397.165	-136.285	0.137	-0.016
-396.150	135.059	-0.247	0.319
-395.136	-22.691	-0.156	0.094
-394.121	-28.866	0.156	-0.089
-393.106	-53.490	-0.215	0.098
-392.092	-22.977	0.333	0.200
-391.077	-23.987	-0.159	-0.095
-390.063	-80.340	-0.228	-0.076
-389.048	-56.310	0.224	-0.099
-388.033	-161.305	-0.336	0.017
-387.019	-200.000	0.000	0.137
-386.004	-200.000	-0.090	-0.416
-384.990	11.087	0.199	0.151
-383.975	-200.000	-0.010	0.093
-382.960	-122.480	0.165	-0.027
-381.946	-112.546	0.116	0.023
-380.931	-87.807	0.425	-0.128
-379.917	-49.180	-0.188	-0.089
-378.902	545.471	-0.045	-0.107
-377.888	-58.715	-0.132	-0.057
-376.873	13.011	-0.182	-0.140
-375.858	-137.377	0.196	0.022
-374.844	281.558	0.133	-0.237
-373.829	351.011	-0.033	-0.065
-372.815	71.728	-0.148	-0.153
-371.800	-165.806	-0.137	-0.006
-370.785	-20.414	-0.115	-0.070
-369.771	-54.517	-0.277	-0.125
-368.756	-89.444	-0.231	0.068
-367.742	-13.920	0.054	-0.035
-366.727	323.630	0.124	-0.235
-365.712	-165.626	0.201	-0.009
-364.698	-200.000	-0.053	0.231
-363.683	43.315	-0.298	0.270
-362.669	132.866	0.043	-0.055
-361.654	211.784	-0.035	-0.054
-360.639	-80.797	0.218	-0.072
-359.625	800.000	0.073	0.240
-358.610	-25.308	0.104	0.061
-357.596	16.888	0.248	-0.195
-356.581	-76.338	-0.099	-0.035
-355.566	64.387	0.142	-0.142
-354.552	32.740	-0.020	-0.017
-353.537	-24.663	-0.155	-0.092
-352.523	214.590	0.169	0.266
-351.508	156.125	-0.100	-0.137
-350.493	64.563	0.101	-0.102
-349.479	232.843	0.297	-0.484
-348.464	-27.145	0.128	0.074
-347.450	535.237	0.041	0.096
-346.435	250.055	-0.085	0.144
-345.420	0.023	0.144	0.102
-344.406	292.401	-0.098	0.177
-343.391	43.095	0.057	-0.052
-342.377	-103.147	0.120	0.028
-341.362	-30.142	-0.205	0.116
-340.348	19.457	-0.150	0.120
-339.333	-200.000	0.001	0.008
-338.318	631.192	0.008	0.019
-337.304	786.346	-0.076	0.208
-336.289	-200.000	-0.034	0.224
-335.275	-33.970	0.342	0.187
-334.260	-200.000	-0.022	0.368
-333.245	148.402	-0.166	-0.222
-332.231	-79.277	-0.082	-0.028
-331.216	199.092	0.071	0.109
-330.202	-200.000	0.050	0.313
-329.187	-24.398	0.083	-0.049
-328.172	-33.776	-0.066	-0.036
-327.158	335.850	0.154	0.297
-326.143	433.124	0.098	0.212
-325.129	252.053	0.073	-0.124
-324.114	-119.304	-0.290	-0.050
-323.099	-65.575	-0.428	0.171
-322.085	292.557	0.093	-0.167
-321.070	-125.600	-0.248	0.037
-320.056	-200.000	0.038	-0.213
-319.041	800.000	0.066	0.211
-318.026	-200.000	-0.012	-0.367
-317.012	-107.426	-0.431	-0.094
-315.997	-66.548	-0.066	-0.026
-314.983	-125.715	0.325	0.049
-313.968	227.846	-0.034	-0.056
-312.953	-200.000	0.016	-0.124
-311.939	13.241	-0.203	-0.156
-310.924	-200.000	0.015	-0.085
-309.910	30.326	-0.281	0.239
-308.895	-40.169	-0.105	0.054
-307.880	14.581	-0.114	-0.088
-306.866	2.317	-0.152	-0.109
-305.851	-66.350	0.114	0.045
-304.837	-76.985	0.135	0.047
-303.822	800.000	-0.073	-0.250
-302.807	704.131	-0.109	-0.286
-301.793	-124.964	-0.248	0.038
-300.778	110.783	0.078	-0.093
-299.764	-200.000	0.021	-0.470
-298.749	-101.106	0.082	0.020
-297.735	341.802	-0.117	0.226
-296.720	32.363	-0.320	-0.274
-295.705	91.279	-0.264	-0.294
-294.691	-88.589	0.236	0.070
-293.676	28.630	0.246	-0.207
-292.662	-38.037	-0.255	0.134
-291.647	63.645	0.148	0.147
-290.632	-136.897	0.251	-0.029
-289.618	329.625	0.084	0.160
-288.603	-141.378	-0.361	0.036
-287.589	-91.230	0.579	-0.164
-286.574	-61.739	0.324	0.135
-285.559	123.584	0.075	-0.093
-284.545	57.462	-0.155	-0.151
-283.530	800.000	0.011	-0.043
-282.516	16.924	0.397	0.311
-281.501	-200.000	0.003	-0.261
-280.486	56.706	0.108	0.104
-279.472	25.745	-0.131	-0.108
-278.457	-64.560	0.178	0.072
-277.443	253.282	-0.191	0.323
-276.428	-150.519	-0.121	0.009
-275.413	-200.000	-0.028	-0.168
-274.399	451.768	0.105	0.230
-273.384	-200.000	0.032	-0.208
-272.370	-151.620	0.241	0.018
-271.355	-155.547	0.264	0.017
-270.340	-23.629	-0.439	-0.261
-269.326	230.907	-0.201	0.325
-268.311	218.583	-0.058	0.092
-267.297	13.335	-0.205	0.157
-266.282	800.000	-0.032	0.109
-265.267	-188.143	-0.180	-0.002
-264.253	181.168	0.274	0.399
-263.238	207.508	-0.142	0.219
-262.224	-10.933	0.181	0.119
-261.209	-90.691	-0.080	0.023
-260.195	-200.000	-0.070	-0.666
-259.180	-200.000	0.002	0.305
-258.165	800.000	0.079	0.341
-257.151	356.086	0.214	-0.422
-256.136	-95.331	0.099	0.026
-255.122	-7.903	-0.190	0.127
-254.107	-74.456	0.383	-0.137
-253.092	-10.033	-0.277	0.182
-252.078	-200.000	-0.019	0.185
-251.063	97.134	0.124	-0.141
-250.049	684.296	0.091	0.234
-249.034	-2.335	-0.151	-0.105
-248.019	-200.000	0.039	-0.335
-247.005	-150.582	-0.258	0.020
-245.990	800.000	0.004	-0.018
-244.976	690.758	0.041	0.106
-243.961	-165.844	0.082	0.004
-242.946	93.851	0.185	0.207
-241.932	800.000	0.048	0.142
-240.917	800.000	0.043	0.170
-239.903	-200.000	-0.003	0.210
-238.888	-200.000	-0.010	-0.096
-237.873	112.576	-0.064	0.076
-236.859	276.694	-0.133	-0.233
-235.844	-62.918	0.057	0.023
-234.830	-20.435	0.175	-0.107
-233.815	800.000	-0.071	0.203
-232.800	-53.994	0.134	0.061
-231.786	7.075	-0.236	0.174
-230.771	94.942	-0.133	-0.150
-229.757	-200.000	0.028	-0.139
-228.742	722.815	-0.064	-0.169
-227.727	-65.379	0.281	-0.112
-226.713	-196.319	-0.080	0.001
-225.698	-107.609	0.265	0.057
-224.684	142.778	-0.081	0.106
-223.669	-172.913	0.113	-0.003
-222.655	17.562	-0.035	-0.028
-221.640	96.121	0.131	0.148
-220.625	541.458	0.057	-0.135
-219.611	68.403	0.139	0.141
-218.596	800.000	-0.096	0.391
-217.582	-122.668	0.211	0.034
-216.567	142.714	0.064	-0.084
-215.552	361.632	-0.108	-0.214
-214.538	43.597	-0.349	0.315
-213.523	-200.000	-0.009	0.203
-212.509	66.167	0.201	0.202
-211.494	67.016	0.110	-0.111
-210.479	494.600	-0.126	0.286
-209.465	-106.267	-0.077	0.017
-208.450	-53.637	0.291	-0.131
-207.436	-200.000	0.034	0.253
-206.421	-200.000	-0.035	-0.173
-205.406	-90.983	-0.195	0.055
-204.392	-100.877	0.308	-0.075
-203.377	-155.947	-0.195	-0.012
-202.363	275.460	0.131	-0.229
-201.348	-200.000	0.020	0.240
-200.333	-200.000	-0.026	0.197
-199.319	800.000	0.035	-0.149
-198.304	-62.475	-0.210	0.086
-197.290	-40.889	0.196	0.100
-196.275	559.213	0.249	0.595
-195.260	-173.803	-0.206	0.006
-194.246	281.958	-0.125	0.221
-193.231	177.381	0.207	-0.298
-192.217	-137.725	-0.042	-0.005
-191.202	654.086	-0.069	0.176
-190.187	-200.000	0.041	-0.271
-189.173	14.529	-0.295	-0.227
-188.158	-90.423	-0.190	0.054
-187.144	98.829	0.101	-0.115
-186.129	641.848	0.127	-0.318
-185.114	-118.169	0.216	0.038
-184.100	130.149	-0.250	0.316
-183.085	-200.000	-0.021	0.223
-182.071	800.000	0.125	0.371
-181.056	633.018	-0.157	-0.393
-180.042	800.000	-0.040	-0.170
-179.027	230.296	-0.125	-0.201
-178.012	-133.825	-0.099	0.012
-176.998	-85.175	-0.118	0.036
-175.983	-188.792	-0.214	-0.003
-174.969	-153.630	-0.086	-0.006
-173.954	170.349	-0.119	-0.169
-172.939	-101.449	0.118	0.028
-171.925	91.418	0.059	-0.066
-170.910	-81.356	-0.285	-0.093
-169.896	-81.832	0.273	0.088
-168.881	-56.922	-0.187	-0.081
-167.866	800.000	-0.056	0.166
-166.852	-72.849	-0.116	-0.042
-165.837	416.619	0.053	0.111
-164.823	-136.873	-0.421	-0.048
-163.808	287.879	-0.116	0.207
-162.793	-152.917	0.203	-0.014
-161.779	-123.583	0.021	0.003
-160.764	711.549	0.088	0.230
-159.750	-115.275	-0.129	0.024
-158.735	800.000	0.057	-0.206
-157.720	-99.534	-0.185	0.046
-156.706	-15.921	-0.042	-0.027
-155.691	-49.274	0.235	0.111
-154.677	-40.104	0.134	0.069
-153.662	-97.050	0.144	-0.037
-152.647	-200.000	0.009	0.462
-151.633	-130.227	0.356	0.048
-150.618	-42.038	-0.087	0.044
-149.604	143.880	-0.142	-0.186
-148.589	99.290	-0.106	-0.121
-147.574	499.822	-0.061	0.138
-146.560	-54.451	-0.222	-0.099
-145.545	41.589	0.209	-0.186
-144.531	23.638	0.164	0.133
-143.516	-60.649	-0.281	0.117
-142.502	483.690	0.036	-0.080
-141.487	302.314	-0.192	0.351
-140.472	174.215	-0.040	0.057
-139.458	322.599	-0.102	-0.192
-138.443	115.386	0.175	0.211
-137.429	266.911	-0.114	0.196
-136.414	294.585	0.161	0.290
-135.399	129.084	0.094	0.119
-134.385	-200.000	-0.010	-0.163
-133.370	-65.198	0.378	0.150
-132.356	-100.747	-0.222	0.054
-131.341	-96.285	0.290	-0.076
-130.326	199.776	0.159	-0.240
-129.312	-177.234	-0.138	0.003
-128.297	-100.730	0.019	-0.005
-127.283	-95.427	-0.088	-0.023
-126.268	800.000	-0.060	-0.245
-125.253	-86.300	-0.108	-0.033
-124.239	13.982	0.114	0.088
-123.224	291.768	0.151	0.271
-122.210	-141.766	-0.241	0.024
-121.195	447.249	-0.093	0.200
-120.180	800.000	-0.072	0.305
-119.166	73.911	-0.165	-0.171
-118.151	-39.216	0.217	-0.112
-117.137	-200.000	-0.003	-0.066
-116.122	-139.035	-0.302	0.032
-115.107	-146.005	-0.155	0.013
-114.093	312.303	0.101	0.186
-113.078	403.087	-0.048	-0.098
-112.064	-200.000	0.008	0.121
-111.049	-200.000	-0.005	-0.298
-110.034	-200.000	-0.013	0.130
-109.020	-35.604	0.173	0.092
-108.005	364.013	-0.136	0.270
-106.991	-200.000	0.012	-0.082
-105.976	743.523	0.043	-0.113
-104.962	-89.196	-0.364	0.106
-103.947	-125.965	0.156	-0.023
-102.932	4.957	0.157	0.114
-101.918	-200.000	0.020	0.354
-100.903	-69.890	0.207	0.078
-99.889	-34.335	-0.304	-0.164
-98.874	800.000	0.111	0.364
-97.859	-46.052	-0.310	-0.150
-96.845	-200.000	-0.041	-0.337
-95.830	-155.460	-0.043	0.003
-94.816	-200.000	-0.072	0.320
-93.801	-15.191	-0.161	-0.101
-92.786	-200.000	0.002	0.292
-91.772	-200.000	0.009	0.180
-90.757	-31.294	0.219	0.121
-89.743	-170.593	-0.534	0.018
-88.728	-96.753	0.400	-0.103
-87.713	-136.063	-0.322	-0.037
-86.699	142.445	-0.191	-0.249
-85.684	542.097	0.151	0.355
-84.670	-200.000	0.013	-0.236
-83.655	-96.768	0.205	-0.053
-82.640	-92.525	-0.103	-0.028
-81.626	728.643	-0.062	-0.163
-80.611	63.029	-0.120	-0.118
-79.597	29.303	-0.096	0.080
-78.582	10.279	-0.076	-0.057
-77.567	240.617	0.085	-0.139
-76.553	90.187	-0.139	0.153
-75.538	-135.841	-0.338	-0.039
-74.524	-82.961	-0.115	0.036
-73.509	161.652	0.080	-0.109
-72.494	-200.000	-0.055	0.255
-71.480	295.835	0.165	0.297
-70.465	175.273	-0.076	0.108
-69.451	90.325	0.117	0.129
-68.436	44.762	-0.174	-0.158
-67.422	-118.080	-0.127	-0.022
-66.407	381.546	-0.022	-0.045
-65.392	-200.000	0.000	-0.119
-64.378	800.000	-0.077	0.233
-63.363	-19.520	0.209	0.127
-62.349	215.246	0.266	0.414
-61.334	65.196	-1.013	-1.006
-60.319	166.942	0.379	0.528
-59.305	-200.000	-0.226	-1.256
-58.290	412.652	0.586	1.223
-57.276	327.997	0.796	1.501
-56.261	-200.000	95.554	580.889
-55.246	530.385	1382.342	3208.412
-54.232	162.503	2546.722	3508.845
-53.217	112.626	2137.585	2541.746
-52.203	44.514	1605.979	1449.281
-51.188	36.567	1345.847	1166.767
-50.173	33.256	1304.309	1111.304
-49.159	56.002	1351.840	1288.145
-48.144	57.933	1368.841	1315.813
-47.130	36.729	1328.171	1152.228
-46.115	33.382	1310.471	1117.119
-45.100	33.058	1305.943	1111.310
-44.086	33.002	1302.834	1108.291
-43.071	32.882	1300.807	1105.822
-42.057	32.905	1298.767	1104.178
-41.042	32.863	1297.099	1102.473
-40.027	32.944	1295.937	1101.915
-39.013	32.955	1293.645	1099.984
-37.998	33.026	1291.388	1098.434
-36.984	32.961	1289.904	1096.749
-35.969	32.996	1288.435	1095.659
-34.954	33.022	1286.547	1094.160
-33.940	33.145	1285.151	1093.647
-32.925	33.153	1284.153	1092.796
-31.911	33.059	1283.034	1091.256
-30.896	33.144	1281.127	1090.083
-29.881	33.193	1279.679	1089.089
-28.867	33.244	1278.091	1087.992
-27.852	33.219	1276.747	1086.661
-26.838	33.216	1275.582	1085.607
-25.823	33.183	1274.067	1084.087
-24.809	33.235	1272.937	1083.378
-23.794	33.109	1271.674	1081.539
-22.779	33.119	1270.378	1080.451
-21.765	33.165	1269.105	1079.590
-20.750	33.091	1267.882	1078.083
-19.736	32.957	1266.982	1076.511
-18.721	33.013	1265.683	1075.684
-17.706	33.001	1264.596	1074.651
-16.692	32.937	1263.012	1072.898
-15.677	32.997	1262.144	1072.458
-14.663	33.004	1260.875	1071.379
-13.648	33.109	1259.752	1070.976
-12.633	32.987	1258.708	1069.356
-11.619	32.953	1258.367	1068.831
-10.604	33.006	1257.014	1067.938
-9.590	32.838	1256.427	1066.445
-8.575	32.963	1255.372	1066.213
-7.560	33.008	1254.376	1065.583
-6.546	32.908	1253.709	1064.407
-5.531	32.903	1253.254	1063.952
-4.517	32.989	1251.818	1063.175
-3.502	32.971	1251.140	1062.452
-2.487	33.029	1249.772	1061.578
-1.473	32.801	1245.537	1056.662
-0.458	30.278	1228.535	1028.235
0.556	23.342	1208.004	976.785
1.571	18.079	1211.322	950.202
2.586	16.551	1225.979	953.013
3.600	16.130	1214.962	942.010
4.615	11.892	1144.674	865.088
5.629	4.301	1071.008	771.699
6.644	0.530	1051.210	738.932
7.659	0.140	1049.400	735.687
8.673	0.099	1048.257	734.619
9.688	0.112	1047.205	733.882
10.702	0.381	1044.686	733.359
11.717	4.685	1050.649	758.499
12.731	12.382	1060.840	803.562
13.746	16.643	1065.544	827.943
14.761	16.892	1065.220	828.832
15.775	16.082	1063.757	823.664
16.790	15.121	1061.578	817.219
17.804	14.344	1060.052	812.186
18.819	14.020	1058.977	809.710
19.834	13.697	1057.743	807.125
20.848	13.737	1056.416	806.235
21.863	13.271	1056.117	803.668
22.877	13.087	1055.590	802.301
23.892	13.133	1054.641	801.732
24.907	13.150	1054.171	801.389
25.921	13.104	1053.242	800.391
26.936	13.210	1052.425	800.208
27.950	13.229	1051.238	799.328
28.965	13.289	1050.286	798.825
29.980	13.342	1049.079	798.093
30.994	13.433	1047.546	797.294
32.009	13.400	1047.236	796.828
33.023	13.252	1046.483	795.473
34.038	13.297	1045.184	794.630
35.053	13.237	1044.212	793.534
36.067	13.387	1043.340	793.521
37.082	13.383	1042.425	792.736
38.096	13.334	1041.922	792.045
39.111	13.241	1041.065	790.880
40.126	13.297	1040.046	790.302
41.140	13.129	1038.739	788.437
42.155	13.169	1037.862	787.896
43.169	12.991	1036.695	786.093
44.184	13.103	1035.667	785.773
45.199	13.102	1034.408	784.746
46.213	13.131	1033.712	784.284
47.228	13.234	1032.541	783.817
48.242	13.201	1031.693	782.946
49.257	13.169	1030.945	782.161
50.271	13.227	1030.099	781.722
51.286	13.268	1029.125	781.106
52.301	13.255	1028.209	780.283
53.315	13.330	1027.154	779.768
54.330	13.293	1026.076	778.705
55.344	13.215	1025.099	777.528
56.359	13.253	1024.462	777.151
57.374	13.139	1023.638	775.922
58.388	13.222	1022.356	775.273
59.403	13.100	1022.064	774.409
60.417	13.091	1021.574	773.930
61.432	12.975	1020.653	772.618
62.447	13.063	1019.618	772.179
63.461	13.100	1018.875	771.721
64.476	13.034	1018.040	770.710
65.490	13.059	1017.354	770.241
66.505	13.074	1016.897	769.896
67.520	13.119	1015.830	769.230
68.534	13.104	1015.384	768.756
69.549	13.162	1014.355	768.176
70.563	13.267	1013.185	767.713
71.578	13.136	1013.019	766.911
72.593	12.953	1012.288	765.438
73.607	13.032	1011.418	765.078
74.622	13.006	1010.765	764.396
75.636	12.887	1010.742	763.759
76.651	13.013	1009.336	763.215
77.666	13.007	1009.474	763.222
78.680	12.976	1008.120	761.989
79.695	13.043	1007.604	761.841
80.709	12.910	1007.299	760.929
81.724	13.095	1006.667	761.238
82.739	13.251	1005.147	760.739
83.753	13.215	1004.695	760.165
84.768	13.282	1003.697	759.651
85.782	13.382	1003.085	759.579
86.797	13.251	1002.276	758.298
87.812	13.233	1001.178	757.315
88.826	13.153	1000.494	756.364
89.841	13.237	999.453	755.896
90.855	13.386	998.322	755.652
91.870	13.307	997.785	754.821
92.884	13.373	996.960	754.429
93.899	13.355	996.193	753.699
94.914	13.459	995.132	753.307
95.928	13.438	994.614	752.751
96.943	13.380	993.540	751.607
97.957	13.329	992.783	750.738
98.972	13.422	991.423	750.066
99.987	13.265	991.114	749.052
101.001	13.248	990.027	748.090
102.016	13.289	989.159	747.552
103.030	13.451	988.423	747.662
104.045	13.367	987.516	746.530
105.060	13.400	986.546	745.879
106.074	13.263	985.707	744.562
107.089	13.207	985.032	743.733
108.103	13.066	984.665	742.756
109.118	13.233	983.258	742.378
110.133	13.343	982.403	742.163
111.147	13.192	981.070	740.412
112.162	13.107	981.028	739.935
113.176	13.262	979.983	739.773
114.191	13.370	979.192	739.595
115.206	13.324	978.718	738.964
116.220	13.286	977.162	737.557
117.235	13.298	976.596	737.116
118.249	13.416	975.604	736.829
119.264	13.301	975.009	735.802
120.279	13.251	974.370	735.034
121.293	13.246	973.127	734.010
122.308	13.271	972.464	733.553
123.322	13.264	971.364	732.627
124.337	13.110	970.535	731.257
125.352	13.384	968.895	731.166
126.366	13.201	968.351	729.882
127.381	13.339	967.322	729.654
128.395	13.222	966.771	728.659
129.410	13.190	966.044	727.904
130.424	13.279	965.120	727.533
131.439	13.373	964.037	727.064
132.454	13.383	963.608	726.721
133.468	13.410	962.736	726.117
134.483	13.453	961.539	725.340
135.497	13.296	961.041	724.214
136.512	13.378	959.697	723.495
137.527	13.523	958.618	723.249
138.541	13.345	958.822	722.562
139.556	13.308	958.437	722.048
140.570	13.411	957.077	721.406
141.585	13.460	956.650	721.234
142.600	13.464	955.717	720.486
143.614	13.468	954.879	719.808
144.629	13.521	954.210	719.470
145.643	13.638	953.012	719.009
146.658	13.485	952.321	717.762
147.673	13.396	951.248	716.505
148.687	13.519	950.321	716.274
149.702	13.397	949.791	715.287
150.716	13.362	948.999	714.473
151.731	13.492	948.045	714.253
152.746	13.450	947.401	713.523
153.760	13.409	946.782	712.818
154.775	13.462	946.499	712.771
155.789	13.592	945.710	712.672
156.804	13.592	944.849	711.962
157.819	13.654	943.674	711.280
158.833	13.530	944.133	711.029
159.848	13.746	942.405	710.592
160.862	13.677	941.617	709.639
161.877	13.614	940.619	708.554
162.892	13.403	940.228	707.293
163.906	13.549	939.203	707.085
164.921	13.396	938.437	705.790
165.935	13.550	937.473	705.660
166.950	13.529	937.010	705.161
167.964	13.541	936.083	704.449
168.979	13.654	934.573	703.735
169.994	13.588	934.117	703.049
171.008	13.673	933.413	702.815
172.023	13.753	932.769	702.607
173.037	13.846	931.983	702.345
174.052	13.718	931.567	701.428
175.067	13.608	930.830	700.349
176.081	13.662	929.833	699.762
177.096	13.582	929.601	699.188
178.110	13.657	928.857	698.886
179.125	13.780	928.003	698.698
180.140	13.704	927.301	697.790
181.154	13.670	927.246	697.542
182.169	13.771	926.669	697.471
183.183	13.877	926.188	697.490
184.198	13.916	925.054	696.740
185.213	13.758	924.822	695.840
186.227	13.807	924.201	695.519
187.242	13.871	923.596	695.270
188.256	13.954	922.976	695.088
189.271	13.974	921.982	694.361
190.286	13.767	921.128	692.791
191.300	13.690	920.483	691.923
192.315	13.741	919.918	691.652
193.329	13.732	919.595	691.312
194.344	13.838	918.802	691.094
195.359	13.766	918.309	690.362
196.373	13.959	917.217	690.283
197.388	13.948	917.140	690.117
198.402	13.908	916.800	689.635
199.417	13.985	916.135	689.392
200.432	14.065	915.452	689.150
201.446	14.037	914.995	688.629
202.461	14.084	914.744	688.571
203.475	14.095	913.772	687.827
204.490	14.075	913.191	687.244
205.504	13.953	912.676	686.292
206.519	14.036	911.849	685.951
207.534	14.007	911.074	685.188
208.548	14.054	910.258	684.710
209.563	14.125	909.594	684.440
210.577	14.164	908.876	684.002
211.592	14.305	907.992	683.853
212.607	14.155	907.208	682.586
213.621	14.204	906.762	682.392
214.636	14.299	905.942	682.104
215.650	14.234	905.325	681.312
216.665	14.293	904.578	680.932
217.680	14.300	904.359	680.734
218.694	14.430	903.072	680.236
219.709	14.400	902.438	679.578
220.723	14.385	901.927	679.070
221.738	14.272	900.906	677.781
222.753	14.457	900.284	678.006
223.767	14.369	900.454	677.717
224.782	14.568	899.458	677.713
225.796	14.553	899.219	677.414
226.811	14.461	898.371	676.343
227.826	14.423	897.549	675.510
228.840	14.373	896.981	674.819
229.855	14.581	896.024	674.882
230.869	14.324	895.522	673.406
231.884	14.445	895.100	673.519
232.899	14.436	893.897	672.515
233.913	14.461	893.227	672.051
234.928	14.389	892.805	671.387
235.942	14.617	892.092	671.709
236.957	14.387	892.250	670.842
237.972	14.490	891.226	670.425
238.986	14.511	890.633	670.007
240.001	14.537	889.971	669.552
241.015	14.632	889.273	669.351
242.030	14.544	888.613	668.439
243.045	14.616	887.997	668.207
244.059	14.639	887.960	668.212
245.074	14.617	886.852	667.230
246.088	14.692	886.339	667.084
247.103	14.733	885.132	666.280
248.117	14.895	884.500	666.393
249.132	14.853	884.259	665.984
250.147	14.750	884.010	665.328
251.161	14.841	883.067	664.921
252.176	14.822	882.564	664.410
253.190	14.953	881.505	664.073
254.205	14.980	881.174	663.871
255.220	15.034	880.335	663.396
256.234	14.914	879.899	662.531
257.249	15.006	879.265	662.361
258.263	14.944	878.375	661.386
259.278	15.162	877.165	661.279
260.293	15.089	877.210	660.966
261.307	15.074	876.880	660.598
262.322	15.043	876.263	659.954
263.336	15.089	875.347	659.385
264.351	15.083	874.719	658.832
265.366	15.157	873.910	658.452
266.380	15.371	873.399	658.850
267.395	15.305	872.444	657.814
268.409	15.143	871.951	656.749
269.424	15.207	870.916	656.163
270.439	15.215	870.708	655.979
271.453	15.050	870.337	654.994
272.468	15.068	869.525	654.395
273.482	15.072	868.924	653.901
274.497	15.309	868.029	654.095
275.512	15.076	867.990	653.099
276.526	15.264	867.235	653.206
277.541	15.382	866.559	653.097
278.555	15.369	865.949	652.528
279.570	15.378	865.419	652.109
280.585	15.369	864.574	651.379
281.599	15.385	863.944	650.909
282.614	15.353	863.431	650.342
283.628	15.398	862.592	649.825
284.643	15.462	862.210	649.727
285.657	15.496	861.630	649.363
286.672	15.425	860.824	648.424
287.687	15.536	860.024	648.192
288.701	15.629	859.545	648.133
289.716	15.458	859.200	647.159
290.730	15.402	859.133	646.835
291.745	15.574	858.077	646.641
292.760	15.500	857.458	645.835
293.774	15.582	856.934	645.697
294.789	15.618	856.187	645.217
295.803	15.600	855.428	644.518
296.818	15.566	854.647	643.742
297.833	15.628	853.909	643.367
298.847	15.558	853.407	642.663
299.862	15.525	853.251	642.364
300.876	15.534	852.905	642.082
301.891	15.662	851.989	641.823
302.906	15.643	851.557	641.368
303.920	15.582	851.024	640.678
304.935	15.790	850.007	640.649
305.949	15.835	849.318	640.243
306.964	15.800	849.027	639.833
307.979	15.802	848.812	639.622
308.993	15.750	848.096	638.828
310.008	16.012	847.197	639.091
311.022	15.953	846.764	638.481
312.037	15.859	846.001	637.494
313.052	15.794	845.731	636.987
314.066	15.849	845.243	636.773
315.081	15.791	844.660	636.059
316.095	15.911	843.940	635.914
317.110	15.720	843.259	634.623
318.125	15.835	842.923	634.747
319.139	15.860	842.374	634.373
320.154	15.835	841.954	633.905
321.168	16.055	840.968	633.936
322.183	15.874	840.498	632.844
323.197	15.997	840.133	632.976
324.212	16.012	839.622	632.589
325.227	15.914	839.435	632.024
326.241	15.884	838.749	631.340
327.256	15.890	838.263	630.942
328.270	15.914	837.479	630.387
329.285	16.049	836.766	630.297
330.300	16.021	836.206	629.715
331.314	15.988	835.803	629.234
332.329	16.057	835.186	628.969
333.343	16.114	834.934	628.938
334.358	15.974	834.620	628.124
335.373	16.055	834.445	628.239
336.387	16.037	833.914	627.714
337.402	15.990	833.689	627.317
338.416	16.127	833.250	627.438
339.431	16.182	832.743	627.207
340.446	16.350	832.115	627.304
341.460	16.231	831.698	626.491
342.475	16.262	831.807	626.633
343.489	16.365	831.008	626.356
344.504	16.368	830.332	625.802
345.519	16.487	830.113	626.022
346.533	16.472	829.391	625.368
347.548	16.265	829.183	624.392
348.562	16.279	828.266	623.696
349.577	16.480	827.751	623.993
350.592	16.291	827.185	622.814
351.606	16.516	826.199	622.846
352.621	16.374	826.130	622.215
353.635	16.262	825.787	621.492
354.650	16.372	824.605	620.951
355.665	16.462	824.030	620.794
356.679	16.398	823.480	620.088
357.694	16.456	823.073	619.941
358.708	16.616	822.275	619.872
359.723	16.504	821.647	618.935
360.738	16.535	820.971	618.481
361.752	16.643	820.515	618.478
362.767	16.542	819.819	617.533
363.781	16.562	819.610	617.391
364.796	16.680	819.292	617.527
365.810	16.637	818.938	617.051
366.825	16.716	818.638	617.057
367.840	16.867	817.604	616.773
368.854	16.688	817.603	616.067
369.869	16.678	817.131	615.619
370.883	16.558	816.459	614.624
371.898	16.688	816.893	615.369
372.913	16.813	815.798	614.941
373.927	16.763	815.538	614.511
374.942	16.880	814.946	614.435
375.956	16.902	814.457	614.092
376.971	17.033	813.913	614.098
377.986	16.948	813.495	613.423
379.000	16.900	812.841	612.704
380.015	16.993	812.390	612.643
381.029	17.050	811.900	612.424
382.044	16.980	811.390	611.733
383.059	16.893	811.222	611.239
384.073	17.021	810.316	610.964
385.088	17.149	809.771	610.960
386.102	16.973	809.405	609.998
387.117	16.962	808.674	609.352
388.132	17.065	807.978	609.144
389.146	16.894	807.669	608.245
390.161	16.997	807.309	608.289
391.175	17.050	806.508	607.821
392.190	17.089	806.227	607.694
393.205	17.017	806.010	607.218
394.219	17.144	805.266	607.060
395.234	17.037	805.215	606.585
396.248	16.953	804.895	605.991
397.263	16.924	804.335	605.411
398.278	16.970	803.865	605.167
399.292	17.065	803.350	605.066
400.307	17.084	802.935	604.766
401.321	17.040	802.134	603.953
402.336	17.141	801.950	604.122
403.350	17.298	801.321	604.152
404.365	17.210	800.791	603.385
405.380	17.239	800.433	603.166
406.394	17.394	799.771	603.163
407.409	17.319	799.513	602.649
408.423	17.259	799.523	602.389
409.438	17.378	798.956	602.331
410.453	17.401	798.728	602.187
411.467	17.357	797.915	601.366
412.482	17.522	797.383	601.493
413.496	17.599	797.110	601.506
414.511	17.638	796.916	601.446
415.526	17.620	796.266	600.836
416.540	17.521	795.967	600.210
417.555	17.357	795.627	599.325
418.569	17.383	795.332	599.140
419.584	17.533	794.490	598.979
420.599	17.528	794.287	598.756
421.613	108.669	1289.489	1460.907
422.628	93.359	1361.645	1461.009
