DTS Sentinel unit serial number:	SN413079Multiplexer serial number:	ORYXHardware model number:	OX4-SRSoftware version number:	ORYX F/W v4.00 Oryx Data Collector v3.7.2.0data status	okinstallation	princeton_trtdifferential loss correction	single-endedforward channel	channel 1reverse channel	N/Adate	2019/09/11time	04:28:11forward acquisition time	60.00reverse acquisition time	0.00gamma	496.2192k internal	0.2331k external	0.2331temperature offset calibration	0.9926default loss term (dB/km)	0.3790temperature slope calibration	1.0000multiplexer offset coefficient	1.0000multiplexer slope coefficient	1.0000fibre end	0.00T internal ref (°C)	29.56T ext. ref 1 (°C)	-0.28T ext. ref 2 (°C)	23.43length (m)	temperature (°C)	Stokes	anti-Stokes-747.200	22.699	-0.152	-0.125
-746.185	521.682	-0.064	0.152
-745.171	-138.250	0.184	-0.021
-744.156	-83.045	-0.296	0.096
-743.142	121.489	0.304	-0.381
-742.127	7.027	-0.360	0.270
-741.112	-200.000	0.063	-0.472
-740.098	-44.104	-0.395	0.200
-739.083	712.359	-0.071	0.189
-738.069	-159.431	-0.403	-0.023
-737.054	-200.000	0.032	-0.175
-736.039	-85.477	-0.340	0.107
-735.025	-91.307	0.463	-0.133
-734.010	-143.600	-0.558	0.053
-732.996	-23.298	-0.203	0.123
-731.981	-200.000	-0.018	-0.082
-730.966	136.832	-0.101	0.133
-729.952	42.094	0.082	0.075
-728.937	476.472	-0.080	0.183
-727.923	-200.000	0.004	-0.066
-726.908	164.382	0.087	0.124
-725.894	-21.226	0.221	-0.136
-724.879	225.328	-0.211	-0.343
-723.864	131.946	-0.108	0.140
-722.850	46.955	0.062	-0.058
-721.835	188.322	-0.096	0.144
-720.821	-142.260	-0.153	-0.015
-719.806	-130.590	-0.297	-0.040
-718.791	725.326	-0.081	-0.216
-717.777	-27.317	-0.273	-0.160
-716.762	800.000	0.056	0.195
-715.748	774.810	-0.059	-0.162
-714.733	-24.228	0.220	0.132
-713.718	399.713	-0.059	0.124
-712.704	-137.296	0.168	-0.019
-711.689	-200.000	-0.043	-0.204
-710.675	-128.476	0.344	-0.049
-709.660	142.210	-0.113	-0.151
-708.645	-24.630	-0.193	0.116
-707.631	-40.013	-0.297	-0.156
-706.616	-72.898	0.216	0.080
-705.602	-200.000	0.032	0.412
-704.587	-141.314	-0.396	-0.040
-703.572	35.274	-0.244	0.215
-702.558	143.742	-0.111	-0.149
-701.543	-200.000	-0.014	-0.176
-700.529	-98.673	0.441	-0.113
-699.514	800.000	-0.023	-0.083
-698.499	535.181	0.118	-0.282
-697.485	9.106	0.058	-0.044
-696.470	29.944	0.054	0.046
-695.456	219.310	-0.061	-0.098
-694.441	69.785	0.242	-0.250
-693.426	-137.194	-0.089	0.010
-692.412	-200.000	-0.020	-0.256
-691.397	-200.000	-0.416	-0.001
-690.383	16.477	0.205	0.163
-689.368	128.701	0.082	-0.105
-688.354	-103.825	-0.646	0.152
-687.339	-67.847	-0.193	0.076
-686.324	745.809	0.143	0.386
-685.310	-103.581	-0.308	-0.073
-684.295	494.722	0.091	0.209
-683.281	800.000	-0.026	-0.095
-682.266	-43.960	-0.089	-0.045
-681.251	-51.089	0.209	0.098
-680.237	-126.548	-0.329	-0.049
-679.222	-192.671	-0.245	-0.002
-678.208	-29.144	0.239	0.138
-677.193	-99.538	0.179	-0.045
-676.178	800.000	0.042	0.121
-675.164	800.000	0.048	-0.207
-674.149	92.860	0.327	0.371
-673.135	124.940	-0.095	0.120
-672.120	800.000	-0.072	-0.291
-671.105	75.136	-0.188	-0.199
-670.091	-79.090	-0.069	0.023
-669.076	-24.224	0.142	-0.085
-668.062	245.767	-0.102	-0.172
-667.047	55.684	0.122	0.119
-666.032	125.968	-0.219	-0.278
-665.018	800.000	-0.047	0.183
-664.003	-139.740	0.097	0.010
-662.989	-11.977	-0.059	0.039
-661.974	800.000	0.041	-0.128
-660.959	-98.790	0.178	0.046
-659.945	-54.671	0.145	0.066
-658.930	-4.375	-0.083	-0.058
-657.916	529.779	-0.073	0.173
-656.901	106.605	0.108	-0.128
-655.886	-200.000	-0.036	-0.424
-654.872	-24.939	0.185	-0.110
-653.857	77.897	0.068	-0.073
-652.843	-8.762	0.271	-0.182
-651.828	-200.000	-0.068	-0.318
-650.814	-77.502	-0.175	0.061
-649.799	657.917	0.077	0.199
-648.784	-44.421	0.273	0.137
-647.770	-89.526	-0.071	-0.021
-646.755	-48.575	-0.081	0.039
-645.741	55.159	0.135	-0.131
-644.726	649.039	-0.015	0.037
-643.711	35.245	-0.118	0.104
-642.697	-136.726	-0.330	-0.038
-641.682	-83.191	-0.229	0.074
-640.668	129.266	-0.236	-0.302
-639.653	-200.000	0.009	-0.500
-638.638	169.500	-0.102	-0.145
-637.624	-200.000	0.053	-0.375
-636.609	57.291	-0.155	-0.152
-635.595	111.738	-0.148	0.179
-634.580	315.610	-0.071	0.134
-633.565	-125.496	-0.547	-0.083
-632.551	394.495	0.130	0.272
-631.536	-61.089	0.235	0.100
-630.522	-129.921	-0.126	0.017
-629.507	-73.748	0.142	-0.052
-628.492	616.406	-0.062	0.157
-627.478	800.000	-0.044	0.161
-626.463	345.729	-0.147	-0.289
-625.449	173.684	0.258	0.373
-624.434	-3.348	-0.421	0.294
-623.419	-53.735	-0.174	-0.080
-622.405	35.178	0.195	0.172
-621.390	-200.000	-0.049	-0.215
-620.376	193.203	0.200	-0.303
-619.361	800.000	-0.006	0.017
-618.346	128.699	-0.034	0.044
-617.332	101.994	-0.377	0.440
-616.317	539.054	0.146	-0.347
-615.303	-200.000	-0.012	-0.208
-614.288	800.000	0.073	-0.287
-613.273	68.738	0.095	-0.098
-612.259	-34.688	0.254	-0.139
-611.244	-130.063	0.452	0.062
-610.230	75.301	-0.093	-0.098
-609.215	-22.058	0.249	-0.151
-608.201	-200.000	0.058	0.306
-607.186	44.606	-0.027	-0.025
-606.171	-106.674	-0.078	-0.017
-605.157	-84.623	0.318	0.100
-604.142	114.051	-0.195	-0.238
-603.128	286.355	-0.172	0.311
-602.113	-184.934	-0.218	-0.003
-601.098	-200.000	-0.029	-0.139
-600.084	-200.000	-0.033	0.165
-599.069	-136.624	-0.335	-0.039
-598.055	-53.237	0.240	0.110
-597.040	800.000	-0.076	0.259
-596.025	-62.177	0.161	0.067
-595.011	-10.693	0.100	0.066
-593.996	74.571	-0.042	0.044
-592.982	86.508	-0.183	-0.202
-591.967	36.180	0.111	0.098
-590.952	88.202	0.213	-0.236
-589.938	196.120	-0.023	-0.035
-588.923	83.795	-0.096	0.105
-587.909	-200.000	0.012	0.238
-586.894	-200.000	0.031	-0.155
-585.879	-200.000	-0.014	-0.171
-584.865	485.813	-0.003	0.006
-583.850	-74.630	0.356	0.128
-582.836	800.000	-0.033	-0.112
-581.821	-180.726	-0.111	-0.002
-580.806	635.177	0.055	0.139
-579.792	83.617	-0.093	0.101
-578.777	3.487	0.161	-0.117
-577.763	-55.183	-0.558	-0.251
-576.748	376.307	0.224	-0.458
-575.733	136.621	0.099	-0.129
-574.719	800.000	-0.051	-0.195
-573.704	-83.650	-0.076	-0.024
-572.690	216.167	-0.169	-0.269
-571.675	-200.000	-0.026	-0.202
-570.661	-145.992	-0.316	0.028
-569.646	-76.182	-0.335	-0.118
-568.631	272.659	-0.128	-0.227
-567.617	-200.000	0.022	0.159
-566.602	-100.712	0.245	-0.060
-565.588	-200.000	0.024	-0.127
-564.573	99.990	-0.169	0.196
-563.558	378.554	-0.056	-0.115
-562.544	-84.943	-0.249	-0.078
-561.529	-42.596	-0.197	0.100
-560.515	687.936	-0.041	-0.108
-559.500	-200.000	-0.025	-0.178
-558.485	-48.120	-0.234	0.113
-557.471	196.438	-0.169	-0.257
-556.456	-200.000	-0.052	-0.319
-555.442	-114.740	-0.099	0.019
-554.427	794.718	0.124	0.342
-553.412	-46.619	-0.119	-0.058
-552.398	5.676	-0.211	-0.156
-551.383	182.859	0.117	0.172
-550.369	204.268	-0.109	-0.169
-549.354	800.000	0.018	-0.056
-548.339	-164.319	-0.200	0.009
-547.325	83.156	0.108	-0.118
-546.310	-200.000	-0.016	-0.081
-545.296	246.746	0.126	0.211
-544.281	-23.786	-0.192	-0.115
-543.266	-63.933	-0.114	0.046
-542.252	-200.000	-0.065	-0.449
-541.237	-94.886	0.168	0.045
-540.223	185.733	-0.102	-0.152
-539.208	-200.000	0.019	-0.262
-538.193	13.201	-0.196	-0.151
-537.179	-29.080	0.409	-0.234
-536.164	198.715	0.177	0.271
-535.150	-29.333	0.321	-0.183
-534.135	157.405	-0.208	0.288
-533.121	29.666	0.127	0.108
-532.106	619.303	0.068	-0.170
-531.091	115.322	0.102	0.124
-530.077	800.000	0.106	0.305
-529.062	-57.406	0.055	-0.024
-528.048	307.918	-0.107	0.199
-527.033	276.789	-0.041	0.073
-526.018	69.600	0.309	0.317
-525.004	-200.000	-0.023	0.146
-523.989	800.000	-0.052	-0.215
-522.975	800.000	-0.040	-0.131
-521.960	-200.000	0.000	0.224
-520.945	91.778	-0.251	0.282
-519.931	645.059	0.179	-0.457
-518.916	-137.235	0.098	0.011
-517.902	-28.582	-0.142	-0.082
-516.887	488.402	0.045	0.102
-515.872	-200.000	0.029	-0.243
-514.858	-56.074	-0.109	0.048
-513.843	520.340	0.140	0.328
-512.829	-36.887	0.112	0.060
-511.814	-135.873	-0.128	-0.015
-510.799	-185.637	-0.022	-0.000
-509.785	-200.000	-0.006	0.110
-508.770	214.103	0.068	-0.107
-507.756	339.028	-0.226	0.439
-506.741	-151.959	0.201	0.015
-505.726	163.751	0.068	-0.096
-504.712	-34.370	-0.047	0.025
-503.697	-162.296	-0.225	-0.011
-502.683	-129.257	0.220	0.031
-501.668	-200.000	-0.023	0.112
-500.653	262.502	-0.139	-0.241
-499.639	75.814	-0.195	-0.205
-498.624	-69.026	0.089	-0.034
-497.610	167.619	-0.121	-0.171
-496.595	491.188	0.019	0.042
-495.581	78.069	-0.175	-0.186
-494.566	-122.346	-0.603	0.098
-493.551	-20.973	-0.076	-0.047
-492.537	-74.718	-0.138	0.049
-491.522	254.334	0.202	0.344
-490.508	264.572	0.184	0.318
-489.493	160.743	0.128	0.178
-488.478	-163.413	-0.243	0.012
-487.464	-144.930	-0.097	0.009
-486.449	800.000	0.058	-0.187
-485.435	-172.788	-0.303	0.009
-484.420	98.907	-0.032	0.037
-483.405	-169.855	0.334	0.012
-482.391	-21.624	-0.102	-0.062
-481.376	800.000	0.084	0.305
-480.362	-4.151	0.039	-0.027
-479.347	-77.040	0.503	0.175
-478.332	43.914	-0.128	0.116
-477.318	800.000	-0.069	-0.283
-476.303	107.211	-0.184	0.218
-475.289	-200.000	0.042	0.252
-474.274	75.688	0.237	0.249
-473.259	-183.042	-0.473	-0.008
-472.245	-132.029	-0.119	-0.015
-471.230	239.458	-0.040	-0.067
-470.216	-109.864	0.060	0.013
-469.201	-91.674	0.461	0.131
-468.186	-200.000	-0.000	-0.285
-467.172	-200.000	0.051	-0.272
-466.157	497.149	-0.060	0.136
-465.143	265.956	-0.041	-0.071
-464.128	14.695	-0.407	0.316
-463.113	-28.628	-0.288	-0.165
-462.099	500.884	0.080	-0.184
-461.084	-67.933	0.350	-0.136
-460.070	12.428	-0.245	0.188
-459.055	800.000	-0.050	-0.199
-458.040	-200.000	-0.021	-0.217
-457.026	20.716	0.073	0.059
-456.011	-101.269	-0.076	-0.018
-454.997	-66.583	-0.136	0.054
-453.982	63.343	0.164	-0.164
-452.968	-200.000	0.091	0.500
-451.953	155.581	0.183	0.251
-450.938	-10.844	0.176	-0.116
-449.924	800.000	-0.076	0.278
-448.909	-200.000	-0.003	-0.191
-447.895	106.466	0.250	0.295
-446.880	-200.000	0.004	0.330
-445.865	-174.949	0.111	0.003
-444.851	-18.757	-0.096	-0.059
-443.836	-167.785	0.037	0.001
-442.822	380.747	0.044	0.091
-441.807	800.000	-0.093	0.375
-440.792	800.000	-0.015	0.048
-439.778	726.408	-0.089	0.235
-438.763	-15.687	0.362	-0.229
-437.749	230.508	-0.136	-0.221
-436.734	-200.000	-0.030	-0.318
-435.719	-200.000	0.009	0.222
-434.705	7.033	0.146	-0.108
-433.690	-124.380	-0.119	-0.018
-432.676	10.983	0.233	-0.177
-431.661	-91.230	-0.193	0.055
-430.646	265.547	0.066	0.115
-429.632	-200.000	-0.019	0.347
-428.617	20.888	0.273	0.220
-427.603	426.963	0.057	-0.123
-426.588	800.000	0.047	0.194
-425.573	-200.000	0.007	0.099
-424.559	-153.706	0.081	-0.006
-423.544	-3.728	0.217	0.150
-422.530	-98.977	-0.290	-0.073
-421.515	-15.876	0.072	0.046
-420.500	474.525	0.047	-0.104
-419.486	-73.195	-0.153	-0.056
-418.471	-200.000	0.007	-0.215
-417.457	-40.291	-0.023	-0.012
-416.442	800.000	-0.075	-0.248
-415.428	-200.000	-0.001	-0.308
-414.413	-200.000	0.032	-0.151
-413.398	164.315	-0.074	-0.104
-412.384	68.444	0.039	0.040
-411.369	-200.000	-0.026	0.413
-410.355	575.899	0.055	0.133
-409.340	-120.789	0.614	0.103
-408.325	-138.982	0.269	-0.029
-407.311	-200.000	-0.005	0.058
-406.296	57.866	-0.115	-0.112
-405.282	150.450	0.018	-0.024
-404.267	32.522	0.177	0.152
-403.252	29.597	-0.205	-0.173
-402.238	-82.382	-0.135	-0.044
-401.223	688.010	0.037	0.095
-400.209	-100.649	0.217	-0.053
-399.194	20.972	-0.215	0.173
-398.179	74.058	0.166	0.173
-397.165	-200.000	-0.023	0.267
-396.150	800.000	-0.082	0.226
-395.136	-200.000	0.002	0.251
-394.121	800.000	0.068	0.213
-393.106	100.884	0.140	0.161
-392.092	-161.628	-0.393	0.020
-391.077	-92.731	0.412	-0.115
-390.063	-146.546	-0.097	0.008
-389.048	-117.411	-0.203	-0.037
-388.033	338.498	0.030	0.059
-387.019	-92.947	0.250	0.069
-386.004	32.950	0.239	0.205
-384.990	51.637	-0.214	0.202
-383.975	-200.000	-0.038	0.230
-382.960	97.225	-0.148	-0.168
-381.946	279.055	0.128	-0.226
-380.931	-10.755	0.065	-0.042
-379.917	-200.000	0.012	0.193
-378.902	-200.000	0.056	-0.597
-377.888	-39.952	0.124	0.064
-376.873	568.766	-0.154	0.371
-375.858	-57.435	0.229	0.100
-374.844	800.000	-0.079	-0.268
-373.829	-37.683	0.130	0.069
-372.815	-69.398	-0.339	0.129
-371.800	151.489	-0.120	0.161
-370.785	258.054	-0.106	0.181
-369.771	75.386	-0.148	0.155
-368.756	-154.701	-0.191	0.013
-367.742	-127.346	-0.112	0.016
-366.727	-109.252	0.183	0.038
-365.712	208.824	0.139	-0.215
-364.698	-200.000	0.016	0.117
-363.683	-70.488	-0.343	0.129
-362.669	725.340	-0.116	0.306
-361.654	-89.240	0.118	-0.034
-360.639	91.598	0.251	0.279
-359.625	132.552	0.037	-0.047
-358.610	-97.831	0.096	-0.025
-357.596	-86.934	0.078	0.024
-356.581	800.000	-0.076	-0.286
-355.566	164.531	0.198	-0.277
-354.552	-200.000	-0.032	-0.149
-353.537	-78.849	0.111	0.038
-352.523	800.000	-0.070	0.201
-351.508	94.343	-0.273	0.307
-350.493	800.000	0.036	0.147
-349.479	-99.210	0.128	0.032
-348.464	-47.333	-0.233	-0.113
-347.450	-200.000	-0.048	0.239
-346.435	52.341	0.238	0.225
-345.420	43.762	-0.320	-0.290
-344.406	242.897	-0.131	-0.218
-343.391	548.617	0.084	0.199
-342.377	27.654	0.332	-0.277
-341.362	-99.799	-0.153	-0.038
-340.348	179.598	0.210	-0.304
-339.333	483.020	-0.002	0.005
-338.318	-93.863	-0.161	0.044
-337.304	-200.000	0.009	-0.045
-336.289	-137.952	-0.308	-0.034
-335.275	-117.588	0.166	-0.030
-334.260	43.510	0.028	0.026
-333.245	170.810	-0.124	0.176
-332.231	-183.698	-0.323	0.005
-331.216	-67.868	0.147	-0.057
-330.202	731.250	-0.094	0.248
-329.187	-50.237	-0.167	0.078
-328.172	113.346	-0.248	-0.298
-327.158	351.011	0.152	-0.297
-326.143	-62.181	0.186	0.077
-325.129	67.664	0.165	-0.167
-324.114	-97.898	-0.165	0.042
-323.099	-60.586	0.098	-0.041
-322.085	-200.000	0.004	-0.262
-321.070	157.562	-0.132	-0.180
-320.056	-77.774	-0.312	0.107
-319.041	800.000	0.034	0.113
-318.026	-200.000	0.031	0.139
-317.012	69.821	0.216	-0.221
-315.997	-15.101	0.112	0.071
-314.983	177.907	-0.132	0.191
-313.968	-145.810	0.232	0.020
-312.953	64.412	0.102	0.102
-311.939	-73.098	-0.021	-0.008
-310.924	-99.123	0.178	-0.045
-309.910	139.008	0.049	-0.064
-308.895	-120.676	0.360	0.060
-307.880	800.000	0.054	-0.176
-306.866	-65.384	-0.018	-0.007
-305.851	361.442	-0.036	-0.071
-304.837	30.737	0.131	-0.111
-303.822	-200.000	-0.000	-0.354
-302.807	800.000	-0.025	-0.087
-301.793	113.074	-0.075	0.090
-300.778	-137.873	0.092	-0.010
-299.764	183.386	0.042	-0.062
-298.749	-200.000	-0.001	-0.181
-297.735	719.468	-0.132	-0.348
-296.720	109.752	-0.294	0.348
-295.705	221.576	0.096	-0.152
-294.691	-86.448	-0.456	-0.138
-293.676	800.000	0.112	-0.366
-292.662	-200.000	-0.006	0.076
-291.647	193.304	-0.091	-0.137
-290.632	385.908	-0.103	-0.211
-289.618	-42.807	0.020	-0.010
-288.603	-36.601	-0.201	-0.107
-287.589	800.000	0.024	-0.072
-286.574	800.000	-0.007	-0.023
-285.559	-112.805	-0.208	-0.041
-284.545	-200.000	0.009	0.133
-283.530	129.340	-0.126	0.159
-282.516	-25.474	0.130	-0.076
-281.501	246.836	0.076	0.126
-280.486	-159.305	0.296	0.016
-279.472	181.190	0.181	-0.264
-278.457	-75.013	-0.345	-0.122
-277.443	-200.000	-0.029	0.153
-276.428	800.000	0.044	0.170
-275.413	800.000	-0.078	-0.274
-274.399	-139.834	0.092	0.010
-273.384	-200.000	0.008	0.136
-272.370	-44.894	0.066	-0.033
-271.355	36.877	0.249	0.217
-270.340	-200.000	-0.001	0.393
-269.326	460.314	-0.023	-0.050
-268.311	38.650	0.225	-0.199
-267.297	-7.187	-0.208	-0.139
-266.282	-138.456	0.417	0.045
-265.267	-64.773	-0.356	0.142
-264.253	56.338	0.237	-0.227
-263.238	681.846	0.100	-0.258
-262.224	-56.938	-0.208	0.090
-261.209	56.773	0.116	0.111
-260.195	443.099	0.104	-0.225
-259.180	-114.918	0.200	0.038
-258.165	604.928	-0.045	-0.111
-257.151	75.567	-0.236	0.246
-256.136	386.143	0.251	0.511
-255.122	-200.000	0.010	0.121
-254.107	98.500	-0.088	0.101
-253.092	61.466	-0.154	-0.151
-252.078	333.891	0.100	0.192
-251.063	-116.324	0.205	0.037
-250.049	505.822	0.053	0.122
-249.034	-200.000	0.051	-0.305
-248.019	-200.000	-0.002	-0.394
-247.005	134.327	0.166	-0.212
-245.990	-46.302	-0.081	0.039
-244.976	-200.000	0.015	-0.080
-243.961	29.329	-0.191	0.160
-242.946	-66.071	0.239	0.094
-241.932	-45.497	0.133	-0.065
-240.917	319.095	0.303	-0.566
-239.903	147.641	-0.220	-0.293
-238.888	-104.197	0.187	0.043
-237.873	-133.553	-0.326	-0.040
-236.859	-165.731	-0.309	0.013
-235.844	176.064	0.217	0.310
-234.830	-113.608	0.276	-0.053
-233.815	230.658	0.113	0.182
-232.800	-70.108	0.033	-0.012
-231.786	-200.000	-0.047	0.386
-230.771	800.000	0.134	-0.398
-229.757	-53.755	-0.344	-0.155
-228.742	248.905	0.076	-0.127
-227.727	175.388	-0.166	-0.237
-226.713	-77.692	-0.173	-0.059
-225.698	-34.072	-0.125	0.068
-224.684	-32.238	0.254	0.140
-223.669	-200.000	-0.103	-0.477
-222.655	93.809	-0.222	0.248
-221.640	2.228	-0.202	0.144
-220.625	-151.605	0.179	0.013
-219.611	37.856	0.149	0.130
-218.596	377.049	-0.081	0.162
-217.582	-1.493	-0.300	0.209
-216.567	8.909	0.172	-0.128
-215.552	92.078	0.157	-0.175
-214.538	151.194	-0.223	0.299
-213.523	-0.029	-0.359	-0.252
-212.509	800.000	-0.064	-0.244
-211.494	800.000	-0.028	-0.081
-210.479	-82.753	0.265	-0.084
-209.465	648.476	0.082	0.206
-208.450	-105.434	-0.069	0.015
-207.436	50.390	-0.229	0.213
-206.421	-77.345	0.157	-0.054
-205.406	-200.000	-0.009	-0.320
-204.392	800.000	-0.031	-0.105
-203.377	262.485	0.207	-0.354
-202.363	-15.101	0.174	0.110
-201.348	-200.000	0.080	-0.358
-200.333	-171.652	0.159	0.005
-199.319	146.071	-0.018	0.023
-198.304	46.793	-0.035	-0.032
-197.290	123.009	0.153	0.188
-196.275	-200.000	-0.070	0.469
-195.260	-52.863	-0.431	0.196
-194.246	-188.383	-0.333	0.004
-193.231	34.176	-0.278	0.238
-192.217	216.151	-0.065	-0.102
-191.202	62.373	0.188	0.185
-190.187	-200.000	0.014	0.370
-189.173	192.771	0.077	0.114
-188.158	130.782	-0.109	0.138
-187.144	-5.208	-0.192	0.130
-186.129	-184.569	0.133	-0.002
-185.114	-200.000	0.042	0.438
-184.100	-113.459	0.183	-0.035
-183.085	210.402	-0.028	-0.043
-182.071	41.055	-0.331	0.294
-181.056	-191.155	0.154	0.002
-180.042	228.527	0.114	0.182
-179.027	-6.767	-0.067	-0.045
-178.012	-0.718	0.279	-0.194
-176.998	-55.486	-0.106	0.047
-175.983	-41.116	0.364	-0.185
-174.969	117.609	0.207	0.250
-173.954	361.741	-0.068	-0.134
-172.939	102.489	0.114	-0.131
-171.925	70.415	0.255	-0.259
-170.910	-7.601	-0.200	-0.133
-169.896	-40.382	-0.243	-0.124
-168.881	800.000	0.058	-0.182
-167.866	-1.236	0.327	0.227
-166.852	-107.926	0.235	0.050
-165.837	684.200	0.087	-0.223
-164.823	4.849	-0.075	-0.054
-163.808	271.018	0.131	-0.227
-162.793	-200.000	-0.010	0.053
-161.779	-183.886	0.512	-0.008
-160.764	12.248	0.255	0.193
-159.750	-61.622	0.286	0.118
-158.735	-123.706	0.043	-0.007
-157.720	-141.967	-0.260	0.025
-156.706	141.750	0.158	-0.206
-155.691	150.797	0.119	0.158
-154.677	-31.357	0.302	-0.167
-153.662	-128.643	-0.219	0.030
-152.647	800.000	-0.073	0.232
-151.633	99.338	0.043	-0.049
-150.618	800.000	0.067	-0.273
-149.604	-60.615	-0.349	0.146
-148.589	-130.647	0.259	-0.034
-147.574	36.231	-0.094	0.081
-146.560	216.738	0.092	0.144
-145.545	48.023	0.144	0.133
-144.531	80.254	-0.132	0.140
-143.516	-115.383	0.194	0.036
-142.502	-161.864	0.457	0.023
-141.487	-15.787	-0.209	0.131
-140.472	278.747	0.189	0.332
-139.458	-181.688	0.358	0.007
-138.443	-55.947	-0.227	-0.100
-137.429	185.700	0.156	0.228
-136.414	261.930	-0.057	0.098
-135.399	144.566	0.176	0.231
-134.385	150.699	0.123	0.164
-133.370	-200.000	-0.047	-0.207
-132.356	-73.060	0.306	0.110
-131.341	-200.000	-0.005	0.069
-130.326	458.629	-0.105	-0.230
-129.312	96.185	-0.201	-0.226
-128.297	24.070	0.148	-0.120
-127.283	-193.956	0.168	-0.001
-126.268	-72.236	0.119	0.043
-125.253	800.000	0.064	-0.186
-124.239	189.289	0.135	-0.198
-123.224	-137.229	-0.226	-0.025
-122.210	-200.000	-0.011	-0.224
-121.195	-143.471	-0.073	-0.007
-120.180	-200.000	0.058	-0.275
-119.166	395.446	0.171	-0.349
-118.151	-159.733	-0.067	-0.004
-117.137	800.000	0.088	-0.285
-116.122	136.025	-0.222	-0.284
-115.107	-140.923	0.042	-0.004
-114.093	-200.000	-0.023	-0.148
-113.078	-200.000	0.029	-0.417
-112.064	95.166	-0.165	-0.184
-111.049	200.435	0.113	-0.171
-110.034	16.487	0.183	0.142
-109.020	103.118	-0.057	-0.066
-108.005	-200.000	-0.049	0.314
-106.991	-132.902	0.126	-0.016
-105.976	-200.000	0.002	0.103
-104.962	-200.000	-0.019	-0.194
-103.947	800.000	0.079	0.317
-102.932	-200.000	-0.002	0.146
-101.918	99.681	0.038	-0.043
-100.903	72.214	-0.122	-0.125
-99.889	617.023	0.166	0.409
-98.874	13.389	0.121	-0.092
-97.859	0.128	0.136	0.095
-96.845	110.667	-0.051	0.060
-95.830	-137.711	-0.311	0.034
-94.816	650.648	0.057	-0.144
-93.801	-44.418	-0.045	-0.022
-92.786	-118.528	-0.162	0.028
-91.772	-184.563	0.108	0.002
-90.757	-200.000	0.274	-0.001
-89.743	4.895	0.186	-0.134
-88.728	-200.000	0.018	-0.227
-87.713	-63.989	0.105	-0.042
-86.699	-200.000	0.061	0.268
-85.684	800.000	-0.038	-0.137
-84.670	308.114	0.163	0.298
-83.655	313.984	-0.076	-0.140
-82.640	-34.263	0.100	0.054
-81.626	-3.610	-0.093	0.063
-80.611	-200.000	0.055	-0.252
-79.597	63.583	-0.186	-0.183
-78.582	-200.000	-0.028	0.348
-77.567	60.291	0.071	-0.068
-76.553	689.513	-0.048	0.124
-75.538	-71.455	0.223	-0.082
-74.524	259.243	-0.030	-0.050
-73.509	-136.660	-0.153	0.017
-72.494	-57.020	-0.113	-0.049
-71.480	-200.000	0.001	-0.078
-70.465	-49.318	-0.052	0.024
-69.451	454.408	0.119	0.258
-68.436	539.791	0.115	0.269
-67.422	-200.000	0.038	0.369
-66.407	-200.000	-0.004	-0.021
-65.392	151.853	0.064	-0.086
-64.378	-21.889	-0.223	-0.133
-63.363	-43.849	-0.292	0.144
-62.349	19.011	0.357	0.280
-61.334	74.812	-0.904	-0.933
-60.319	21.602	0.501	0.400
-59.305	800.000	-0.286	-0.935
-58.290	327.683	0.687	1.291
-57.276	400.406	0.704	1.446
-56.261	-200.000	106.425	615.565
-55.246	505.226	1508.862	3423.222
-54.232	176.494	2701.066	3844.930
-53.217	111.951	2164.679	2560.960
-52.203	41.630	1598.330	1417.895
-51.188	33.042	1332.722	1131.092
-50.173	30.079	1290.989	1078.415
-49.159	54.657	1345.369	1270.496
-48.144	54.854	1361.040	1286.416
-47.130	33.158	1315.939	1117.357
-46.115	29.873	1297.851	1082.771
-45.100	29.532	1293.220	1076.874
-44.086	29.575	1290.721	1074.998
-43.071	29.383	1288.059	1071.626
-42.057	29.546	1285.701	1070.569
-41.042	29.472	1284.876	1069.407
-40.027	29.476	1283.051	1067.869
-39.013	29.569	1280.681	1066.395
-37.998	29.417	1279.303	1064.324
-36.984	29.502	1277.385	1063.176
-35.969	29.576	1275.685	1062.146
-34.954	29.537	1274.005	1060.482
-33.940	29.559	1273.131	1059.838
-32.925	29.658	1271.651	1059.129
-31.911	29.609	1270.421	1057.784
-30.896	29.647	1268.610	1056.450
-29.881	29.739	1266.930	1055.537
-28.867	29.671	1265.850	1054.208
-27.852	29.652	1264.136	1052.630
-26.838	29.598	1263.143	1051.451
-25.823	29.547	1262.053	1050.214
-24.809	29.637	1260.632	1049.499
-23.794	29.689	1258.882	1048.295
-22.779	29.563	1257.776	1046.619
-21.765	29.695	1256.554	1046.307
-20.750	29.710	1254.829	1044.916
-19.736	29.490	1253.791	1042.769
-18.721	29.446	1252.877	1041.718
-17.706	29.531	1251.389	1040.918
-16.692	29.537	1250.469	1040.143
-15.677	29.473	1249.830	1039.210
-14.663	29.603	1247.964	1038.351
-13.648	29.553	1247.173	1037.370
-12.633	29.697	1246.033	1037.188
-11.619	29.576	1245.036	1035.638
-10.604	29.440	1244.816	1034.651
-9.590	29.525	1243.316	1033.841
-8.575	29.433	1243.093	1033.100
-7.560	29.484	1241.962	1032.403
-6.546	29.464	1241.185	1031.606
-5.531	29.523	1240.049	1030.950
-4.517	29.674	1239.017	1030.892
-3.502	29.488	1238.850	1029.677
-2.487	29.545	1237.212	1028.593
-1.473	29.504	1233.468	1025.212
-0.458	28.218	1218.081	1005.323
0.556	22.354	1201.610	968.423
1.571	18.818	1206.693	952.854
2.586	18.089	1221.022	959.994
3.600	18.053	1210.429	951.380
4.615	13.485	1140.012	871.950
5.629	4.714	1065.442	771.508
6.644	0.070	1045.624	734.456
7.659	-0.327	1042.518	730.277
8.673	-0.354	1041.323	729.245
9.688	-0.488	1040.177	727.725
10.702	0.133	1038.813	729.718
11.717	6.215	1047.196	765.201
12.731	15.131	1060.240	818.411
13.746	19.615	1065.547	844.408
14.761	20.541	1066.774	849.835
15.775	20.599	1066.171	849.561
16.790	20.516	1065.137	848.258
17.804	20.352	1064.713	847.043
18.819	20.420	1064.352	847.015
19.834	20.492	1063.987	846.998
20.848	20.639	1063.366	847.145
21.863	20.598	1063.009	846.587
22.877	20.539	1062.117	845.513
23.892	20.515	1061.285	844.660
24.907	20.662	1060.560	844.721
25.921	20.498	1059.660	843.136
26.936	20.551	1058.656	842.518
27.950	20.456	1056.899	840.588
28.965	20.466	1054.439	838.603
29.980	20.426	1052.967	837.166
30.994	20.591	1052.104	837.199
32.009	20.620	1051.137	836.498
33.023	20.507	1049.484	834.562
34.038	20.457	1049.157	833.991
35.053	20.669	1048.515	834.424
36.067	20.681	1047.428	833.542
37.082	20.659	1046.933	832.968
38.096	20.742	1046.142	832.662
39.111	20.957	1045.244	832.903
40.126	20.641	1044.075	830.389
41.140	20.437	1042.025	827.715
42.155	20.140	1041.028	825.435
43.169	20.323	1039.797	825.252
44.184	20.203	1039.297	824.214
45.199	20.196	1038.002	823.082
46.213	20.300	1037.089	822.778
47.228	20.503	1036.286	823.031
48.242	20.450	1035.174	821.822
49.257	20.518	1034.474	821.516
50.271	20.625	1033.814	821.425
51.286	20.700	1032.536	820.688
52.301	20.577	1032.189	819.759
53.315	20.618	1030.830	818.804
54.330	20.555	1029.941	817.727
55.344	20.638	1029.386	817.607
56.359	20.515	1028.230	816.035
57.374	20.451	1027.552	815.127
58.388	20.495	1026.399	814.347
59.403	20.355	1025.846	813.182
60.417	20.186	1025.430	811.987
61.432	20.321	1024.838	812.078
62.447	20.453	1023.502	811.564
63.461	20.442	1023.044	811.079
64.476	20.454	1021.783	810.064
65.490	20.354	1021.034	808.932
66.505	20.258	1020.365	807.881
67.520	20.476	1019.715	808.310
68.534	20.274	1018.144	806.054
69.549	19.929	1017.311	803.724
70.563	19.990	1016.326	803.155
71.578	19.915	1015.687	802.231
72.593	19.962	1014.425	801.380
73.607	20.074	1013.928	801.436
74.622	20.190	1014.011	801.967
75.636	20.488	1012.608	802.165
76.651	20.108	1012.174	799.993
77.666	19.944	1011.592	798.708
78.680	19.999	1011.220	798.597
79.695	20.177	1010.028	798.406
80.709	20.209	1009.181	797.811
81.724	20.180	1008.613	797.157
82.739	20.325	1007.798	797.108
83.753	20.605	1007.163	797.823
84.768	20.800	1006.711	798.286
85.782	20.944	1005.263	797.726
86.797	20.728	1004.931	796.406
87.812	20.660	1003.294	794.725
88.826	20.695	1002.916	794.516
89.841	20.784	1002.041	794.158
90.855	20.842	1001.040	793.562
91.870	20.843	999.695	792.428
92.884	20.668	998.780	790.837
93.899	20.797	997.281	790.167
94.914	20.843	997.139	790.193
95.928	20.656	995.932	788.319
96.943	20.490	994.602	786.447
97.957	20.197	993.674	784.315
98.972	20.046	992.238	782.431
99.987	20.363	991.353	783.094
101.001	20.624	991.135	784.030
102.016	20.482	990.232	782.607
103.030	20.452	989.178	781.570
104.045	20.312	987.962	779.909
105.060	20.204	987.012	778.606
106.074	20.324	986.461	778.644
107.089	20.790	985.742	780.094
108.103	20.611	984.891	778.552
109.118	20.344	983.775	776.404
110.133	20.555	982.625	776.371
111.147	20.192	981.498	773.793
112.162	20.137	980.453	772.653
113.176	20.359	980.018	773.233
114.191	20.264	978.795	771.777
115.206	19.943	977.615	769.354
116.220	19.909	977.139	768.759
117.235	20.166	976.296	769.167
118.249	20.072	975.314	767.907
119.264	19.926	974.884	766.857
120.279	20.106	973.706	766.659
121.293	20.061	972.782	765.665
122.308	20.199	971.696	765.351
123.322	20.116	970.629	764.077
124.337	19.976	969.560	762.549
125.352	19.496	967.502	758.754
126.366	19.383	966.951	757.761
127.381	20.203	966.607	761.023
128.395	20.604	965.676	761.980
129.410	20.574	965.038	761.277
130.424	20.547	964.397	760.587
131.439	20.467	963.035	759.094
132.454	20.555	962.255	758.798
133.468	20.565	961.358	758.068
134.483	20.682	960.528	757.854
135.497	20.763	960.266	757.936
136.512	20.797	959.304	757.256
137.527	20.783	958.573	756.551
138.541	20.798	957.561	755.749
139.556	20.904	956.597	755.381
140.570	20.868	955.986	754.675
141.585	20.897	954.771	753.777
142.600	20.850	953.456	752.468
143.614	20.990	953.486	753.027
144.629	21.047	952.316	752.284
145.643	20.875	950.905	750.364
146.658	20.707	950.210	749.027
147.673	20.688	949.046	747.960
148.687	20.681	947.630	746.747
149.702	20.650	946.541	745.688
150.716	20.559	945.740	744.603
151.731	20.705	945.487	744.963
152.746	20.901	945.046	745.387
153.760	20.903	944.187	744.656
154.775	20.939	943.346	744.077
155.789	20.926	942.442	743.243
156.804	20.875	941.645	742.331
157.819	20.973	941.075	742.234
158.833	21.003	940.486	741.833
159.848	21.137	939.133	741.268
160.862	20.788	938.405	739.148
161.877	20.948	937.164	738.781
162.892	21.107	935.998	738.469
163.906	20.899	935.266	736.950
164.921	20.898	934.584	736.341
165.935	20.974	933.764	735.952
166.950	21.002	932.663	735.135
167.964	21.044	931.867	734.619
168.979	20.733	930.462	732.141
169.994	20.865	929.910	732.195
171.008	20.939	929.293	731.957
172.023	20.987	928.488	731.458
173.037	20.736	927.295	729.403
174.052	20.653	926.238	728.158
175.067	20.711	925.945	728.106
176.081	20.780	925.528	728.003
177.096	20.716	924.524	726.882
178.110	20.507	923.620	725.234
179.125	20.395	922.697	723.979
180.140	20.416	922.427	723.791
181.154	20.443	922.666	724.028
182.169	20.781	922.118	724.939
183.183	20.933	921.528	725.042
184.198	20.786	920.448	723.519
185.213	20.922	919.542	723.307
186.227	20.959	918.970	722.947
187.242	21.049	917.838	722.365
188.256	20.970	917.831	721.970
189.271	21.022	916.991	721.458
190.286	20.932	915.481	719.838
191.300	20.150	914.264	715.588
192.315	19.553	912.892	711.991
193.329	19.470	912.589	711.349
194.344	20.300	913.026	715.049
195.359	20.861	912.530	716.907
196.373	20.939	912.062	716.796
197.388	20.647	911.789	715.317
198.402	20.632	911.069	714.629
199.417	20.881	910.256	714.948
200.432	20.465	909.279	712.411
201.446	20.354	908.572	711.341
202.461	20.403	907.698	710.793
203.475	19.454	905.850	705.404
204.490	18.911	904.634	702.181
205.504	19.773	905.114	706.010
206.519	20.283	904.998	707.937
207.534	20.511	904.921	708.744
208.548	21.061	904.362	710.485
209.563	20.788	903.187	708.388
210.577	20.545	903.188	707.342
211.592	21.066	902.342	708.733
212.607	20.987	901.107	707.379
213.621	21.002	900.861	707.183
214.636	21.092	900.105	706.894
215.650	20.868	899.653	705.568
216.665	21.148	898.698	705.888
217.680	21.137	897.947	705.190
218.694	20.515	896.959	701.844
219.709	20.456	895.959	700.762
220.723	20.719	895.904	701.714
221.738	20.837	895.221	701.595
222.753	20.827	894.634	701.032
223.767	20.997	893.963	701.128
224.782	21.075	894.154	701.528
225.796	20.989	893.252	700.412
226.811	20.392	891.789	696.808
227.826	19.861	890.585	693.679
228.840	20.063	890.260	694.172
229.855	20.084	889.394	693.523
230.869	19.715	888.126	690.996
231.884	20.165	888.146	692.748
232.899	20.885	887.942	695.403
233.913	20.793	887.402	694.553
234.928	20.774	886.958	694.069
235.942	20.742	886.324	693.382
236.957	20.426	885.064	691.080
237.972	20.558	884.894	691.410
238.986	20.621	884.421	691.230
240.001	20.553	883.927	690.511
241.015	20.741	883.275	690.689
242.030	20.832	882.258	690.190
243.045	20.968	882.100	690.546
244.059	20.968	881.754	690.212
245.074	20.716	880.627	688.273
246.088	20.514	879.502	686.535
247.103	20.939	879.228	687.939
248.117	21.232	879.354	689.132
249.132	21.442	879.024	689.641
250.147	21.641	877.921	689.498
251.161	21.688	877.974	689.662
252.176	21.532	877.162	688.352
253.190	21.816	876.711	689.054
254.205	21.800	876.333	688.633
255.220	21.711	875.866	687.856
256.234	21.734	874.580	686.875
257.249	21.620	873.868	685.807
258.263	21.676	873.237	685.470
259.278	21.719	872.628	685.101
260.293	21.751	872.022	684.689
261.307	21.684	871.349	683.839
262.322	21.464	870.723	682.428
263.336	20.689	868.176	677.359
264.351	19.631	866.440	671.829
265.366	19.797	866.418	672.400
266.380	20.714	867.631	676.851
267.395	21.213	867.022	678.253
268.409	21.145	866.442	677.477
269.424	21.373	865.702	677.720
270.439	21.470	865.030	677.511
271.453	21.375	865.137	677.166
272.468	21.668	864.477	677.724
273.482	21.748	863.926	677.542
274.497	21.362	862.375	674.774
275.512	20.986	861.806	672.818
276.526	21.363	861.770	674.184
277.541	21.355	861.338	673.759
278.555	21.353	860.041	672.676
279.570	20.972	859.519	670.743
280.585	21.465	858.545	671.815
281.599	21.331	857.960	670.785
282.614	20.780	856.634	667.579
283.628	20.776	856.196	667.160
284.643	21.144	855.676	668.106
285.657	20.702	854.840	665.704
286.672	20.436	854.203	664.131
287.687	21.061	853.985	666.291
288.701	21.218	853.167	666.193
289.716	20.831	852.577	664.200
290.730	20.743	851.944	663.310
291.745	20.462	850.935	661.397
292.760	20.853	850.692	662.638
293.774	21.756	851.383	666.551
294.789	21.983	851.012	667.066
295.803	22.085	850.585	667.060
296.818	22.132	849.819	666.580
297.833	21.602	848.778	663.694
298.847	21.719	847.667	663.210
299.862	21.973	847.431	663.928
300.876	22.210	847.186	664.574
301.891	21.936	846.789	663.169
302.906	21.495	845.785	660.659
303.920	21.617	845.484	660.823
304.935	21.984	845.320	662.022
305.949	21.968	844.365	661.153
306.964	21.762	843.655	659.767
307.979	21.775	843.455	659.601
308.993	22.212	843.059	660.873
310.008	22.183	842.550	660.309
311.022	21.949	841.413	658.481
312.037	21.769	841.234	657.609
313.052	21.454	840.195	655.558
314.066	20.907	838.395	652.047
315.081	20.530	837.721	650.056
316.095	21.200	838.548	653.149
317.110	21.713	838.389	654.885
318.125	20.833	836.527	650.089
319.139	19.909	835.328	645.652
320.154	19.934	834.650	645.166
321.168	20.876	834.915	648.826
322.183	21.549	835.326	651.593
323.197	21.565	834.594	651.024
324.212	21.893	834.479	652.094
325.227	21.838	834.151	651.575
326.241	21.704	833.600	650.592
327.256	21.687	832.617	649.703
328.270	21.448	832.654	648.788
329.285	21.362	831.268	647.334
330.300	21.174	830.444	645.937
331.314	21.305	830.237	646.203
332.329	21.760	830.035	647.671
333.343	21.913	829.945	648.108
334.358	21.847	829.046	647.104
335.373	22.057	828.727	647.576
336.387	22.248	828.925	648.378
337.402	22.377	828.613	648.550
338.416	22.283	828.073	647.725
339.431	22.552	827.561	648.257
340.446	22.446	827.627	647.860
341.460	22.385	826.665	646.824
342.475	22.247	826.211	645.905
343.489	22.311	826.050	645.957
344.504	22.480	825.889	646.394
345.519	22.682	825.379	646.681
346.533	22.682	824.942	646.281
347.548	22.777	824.581	646.287
348.562	22.747	824.066	645.717
349.577	22.682	823.076	644.646
350.592	22.759	822.170	644.163
351.606	22.510	822.082	643.128
352.621	22.484	821.236	642.315
353.635	22.403	820.129	641.095
354.650	21.848	818.513	637.757
355.665	20.890	817.712	633.596
356.679	21.233	817.300	634.468
357.694	21.776	816.641	635.869
358.708	21.551	816.357	634.776
359.723	22.095	816.489	636.795
360.738	22.347	816.154	637.391
361.752	22.498	815.204	637.138
362.767	22.752	815.015	637.852
363.781	22.900	814.842	638.195
364.796	22.989	814.254	637.998
365.810	23.022	813.764	637.678
366.825	22.946	813.388	637.052
367.840	22.554	812.739	635.078
368.854	22.377	811.861	633.697
369.869	22.382	811.625	633.474
370.883	22.419	810.882	632.972
371.898	22.218	810.516	631.909
372.913	22.462	809.832	632.193
373.927	22.684	809.463	632.645
374.942	22.694	809.341	632.532
375.956	22.805	808.727	632.395
376.971	22.839	808.682	632.422
377.986	23.057	808.337	632.877
379.000	22.976	807.623	631.972
380.015	22.802	806.736	630.602
381.029	22.840	806.700	630.654
382.044	23.031	805.821	630.594
383.059	23.057	805.045	630.020
384.073	23.080	804.978	629.994
385.088	22.942	804.643	629.187
386.102	22.639	803.893	627.466
387.117	22.739	803.143	627.183
388.132	22.495	801.619	625.070
389.146	22.045	800.815	622.792
390.161	22.403	800.738	623.947
391.175	22.677	800.586	624.744
392.190	22.347	799.847	622.943
393.205	21.031	797.692	616.561
394.219	19.700	796.135	610.602
395.234	19.654	795.914	610.218
396.248	21.360	797.119	617.116
397.263	22.851	797.712	622.781
398.278	22.677	797.419	621.887
399.292	22.427	796.830	620.491
400.307	22.410	796.545	620.155
401.321	22.353	796.304	619.711
402.336	22.912	795.763	621.202
403.350	23.226	795.702	622.203
404.365	23.361	795.604	622.544
405.380	23.707	795.306	623.471
406.394	23.705	794.965	623.142
407.409	23.597	794.293	622.181
408.423	23.563	794.002	621.778
409.438	23.593	793.494	621.432
410.453	23.768	792.979	621.585
411.467	23.616	792.355	620.512
412.482	23.628	791.801	620.065
413.496	23.680	791.521	619.969
414.511	23.596	791.536	619.634
415.526	23.680	790.881	619.360
416.540	23.600	790.064	618.386
417.555	23.311	789.404	616.808
418.569	23.527	789.122	617.288
419.584	23.431	788.482	616.398
420.599	23.186	787.857	615.002
421.613	158.139	1364.510	1798.551
422.628	136.901	1448.494	1798.640
