DTS Sentinel unit serial number:	SN413079Multiplexer serial number:	ORYXHardware model number:	OX4-SRSoftware version number:	ORYX F/W v4.00 Oryx Data Collector v3.7.2.0data status	okinstallation	princeton_trtdifferential loss correction	single-endedforward channel	channel 1reverse channel	N/Adate	2019/09/12time	19:39:34forward acquisition time	15.00reverse acquisition time	0.00gamma	496.2192k internal	0.2322k external	0.2322temperature offset calibration	1.0117default loss term (dB/km)	0.3790temperature slope calibration	1.0000multiplexer offset coefficient	1.0000multiplexer slope coefficient	1.0000fibre end	0.00T internal ref (°C)	32.12T ext. ref 1 (°C)	3.24T ext. ref 2 (°C)	26.68length (m)	temperature (°C)	Stokes	anti-Stokes-747.200	-29.749	0.909	0.524
-746.185	51.829	-0.088	0.084
-745.171	366.199	0.091	-0.186
-744.156	-106.589	0.028	0.006
-743.142	-164.428	0.790	0.036
-742.127	-200.000	-0.147	0.730
-741.112	58.585	0.306	0.303
-740.098	224.931	0.404	0.661
-739.083	-200.000	0.025	-0.600
-738.069	-32.729	0.340	-0.191
-737.054	-102.155	-1.050	0.255
-736.039	3.049	0.910	0.668
-735.025	-3.097	0.310	-0.218
-734.010	715.601	0.224	0.599
-732.996	304.742	-0.130	-0.243
-731.981	-158.437	-0.257	-0.015
-730.966	48.156	0.216	0.204
-729.952	-125.017	0.295	-0.046
-728.937	299.436	-0.465	-0.865
-727.923	-168.979	0.212	0.008
-726.908	-200.000	-0.118	-0.637
-725.894	-113.076	0.499	0.099
-724.879	800.000	-0.107	0.310
-723.864	49.706	0.251	0.239
-722.850	46.270	-0.333	-0.311
-721.835	252.483	-0.381	-0.656
-720.821	800.000	0.095	-0.379
-719.806	-200.000	-0.008	0.178
-718.791	34.079	-0.256	0.225
-717.777	74.302	-0.710	0.753
-716.762	-200.000	-0.013	0.835
-715.748	800.000	0.222	-0.893
-714.733	328.046	-0.246	-0.477
-713.718	-121.122	-0.978	-0.165
-712.704	-200.000	-0.022	-0.291
-711.689	-119.014	-0.939	0.166
-710.675	-112.842	-0.720	-0.144
-709.660	-31.227	0.752	-0.427
-708.645	-94.583	0.244	0.067
-707.631	-200.000	-0.081	0.625
-706.616	8.328	-0.212	0.161
-705.602	80.329	-0.846	0.918
-704.587	57.332	-0.461	0.454
-703.572	-200.000	0.075	0.343
-702.558	-200.000	-0.176	0.802
-701.543	22.033	0.503	0.413
-700.529	-128.672	0.537	0.076
-699.514	-29.808	-0.235	-0.135
-698.499	-200.000	-0.019	-0.379
-697.485	330.311	-0.349	0.678
-696.470	-21.980	0.351	0.215
-695.456	800.000	0.121	-0.361
-694.441	212.526	-0.060	0.096
-693.426	480.224	-0.288	-0.658
-692.412	172.836	0.204	0.296
-691.397	800.000	-0.057	-0.200
-690.383	46.640	-0.567	0.531
-689.368	234.773	0.482	0.802
-688.354	-170.494	-0.108	0.004
-687.339	724.356	0.088	-0.237
-686.324	-60.951	-0.714	-0.304
-685.310	-22.287	0.707	0.432
-684.295	-119.530	-0.443	-0.077
-683.281	-91.549	0.802	-0.230
-682.266	46.354	-0.326	0.305
-681.251	160.960	-0.145	-0.204
-680.237	233.365	-0.201	-0.333
-679.222	-48.418	0.547	-0.266
-678.208	90.067	0.255	-0.288
-677.193	-141.300	-0.476	-0.049
-676.178	278.560	0.293	0.527
-675.164	122.786	0.394	0.497
-674.149	800.000	-0.183	-0.674
-673.135	-72.353	-0.170	-0.063
-672.120	-58.997	-0.686	0.298
-671.105	-5.572	0.531	-0.367
-670.091	15.986	0.191	0.152
-669.076	-122.736	0.464	0.076
-668.062	-75.101	-1.209	-0.436
-667.047	-200.000	-0.085	-0.410
-666.032	191.229	0.151	-0.229
-665.018	25.041	0.710	0.593
-664.003	231.808	-0.433	-0.715
-662.989	-6.481	0.294	0.202
-661.974	79.794	0.776	0.840
-660.959	273.646	-0.184	0.327
-659.945	800.000	0.269	-0.798
-658.930	-101.850	0.626	-0.153
-657.916	-200.000	0.067	-0.931
-656.901	-87.723	0.589	-0.179
-655.886	-84.570	-0.621	-0.197
-654.872	-149.981	0.262	0.021
-653.857	-53.422	-1.004	0.463
-652.843	-80.644	0.230	-0.077
-651.828	-122.696	0.540	0.088
-650.814	-40.425	0.033	0.017
-649.799	-73.809	-0.298	0.109
-648.784	207.694	-0.671	-1.055
-647.770	-200.000	-0.015	-0.437
-646.755	498.649	-0.189	0.437
-645.741	800.000	-0.149	-0.457
-644.726	-132.968	0.547	0.070
-643.711	-183.420	0.244	0.004
-642.697	285.791	-0.282	0.511
-641.682	-74.742	0.184	-0.067
-640.668	-200.000	-0.005	0.063
-639.653	-103.120	0.500	0.119
-638.638	209.275	-0.487	-0.768
-637.624	-200.000	-0.050	0.285
-636.609	-88.277	1.015	-0.306
-635.595	-23.697	-0.232	0.140
-634.580	-108.308	0.376	-0.082
-633.565	83.707	0.460	-0.505
-632.551	168.688	-0.433	0.620
-631.536	163.470	0.327	0.463
-630.522	-87.976	0.165	0.050
-629.507	-4.922	-0.449	0.311
-628.492	-200.000	-0.013	-0.321
-627.478	-191.871	0.501	0.005
-626.463	9.915	-0.427	-0.326
-625.449	-200.000	0.113	1.075
-624.434	-127.751	0.689	0.100
-623.419	800.000	0.176	-0.620
-622.405	-200.000	0.108	1.004
-621.390	83.325	0.188	-0.206
-620.376	800.000	-0.195	-0.737
-619.361	-60.982	-0.208	-0.088
-618.346	-200.000	0.021	-0.561
-617.332	26.931	-0.754	0.635
-616.317	-86.094	1.072	0.333
-615.303	49.969	0.293	-0.278
-614.288	53.726	-0.476	-0.459
-613.273	-133.752	-0.316	-0.040
-612.259	-16.191	-0.371	-0.237
-611.244	800.000	-0.188	0.610
-610.230	-108.526	0.486	0.105
-609.215	-112.920	-0.184	0.037
-608.201	120.275	0.260	-0.325
-607.186	563.427	0.057	-0.138
-606.171	-200.000	-0.143	0.921
-605.157	-200.000	-0.069	1.078
-604.142	-103.995	0.163	0.038
-603.128	5.431	-0.943	-0.699
-602.113	398.010	0.111	-0.234
-601.098	-200.000	0.085	0.615
-600.084	177.475	0.178	-0.260
-599.069	-21.832	-0.528	-0.323
-598.055	-147.538	0.561	0.048
-597.040	-200.000	-0.011	-0.469
-596.025	136.992	-0.218	-0.286
-595.011	-75.589	0.078	0.028
-593.996	-114.619	-0.404	-0.078
-592.982	-21.362	0.315	-0.193
-591.967	101.995	-0.448	0.525
-590.952	-200.000	0.048	-0.271
-589.938	-200.000	-0.004	-0.544
-588.923	-149.139	0.638	0.051
-587.909	-67.917	-0.728	-0.285
-586.894	800.000	-0.290	0.828
-585.879	287.898	-0.356	0.648
-584.865	-161.581	-0.302	-0.016
-583.850	-112.069	-0.557	-0.113
-582.836	-18.440	-0.474	0.297
-581.821	-103.061	0.251	-0.060
-580.806	132.359	-0.571	-0.738
-579.792	800.000	0.030	-0.130
-578.777	109.042	-0.830	0.996
-577.763	-115.563	0.576	0.109
-576.748	-200.000	0.102	0.808
-575.733	-200.000	-0.023	-0.261
-574.719	59.627	0.657	0.650
-573.704	159.155	0.154	0.215
-572.690	263.622	0.245	-0.427
-571.675	-68.090	0.705	0.276
-570.661	222.258	-0.632	-1.020
-569.646	-123.798	0.244	-0.039
-568.631	131.638	-0.717	0.925
-567.617	-55.354	-0.593	0.267
-566.602	-28.711	-0.311	-0.180
-565.588	-162.610	-0.622	-0.031
-564.573	640.429	-0.271	-0.691
-563.558	800.000	0.067	-0.241
-562.544	25.376	0.386	0.322
-561.529	320.499	0.234	-0.445
-560.515	-2.858	0.533	-0.373
-559.500	-116.999	-0.716	0.131
-558.485	-200.000	0.071	0.326
-557.471	800.000	0.094	0.261
-556.456	800.000	-0.079	-0.273
-555.442	-81.290	0.509	0.168
-554.427	-13.412	-0.460	0.299
-553.412	602.650	0.233	0.581
-552.398	800.000	0.115	-0.390
-551.383	-36.490	-0.406	0.219
-550.369	182.644	0.454	0.671
-549.354	-200.000	-0.017	0.558
-548.339	30.114	-0.386	-0.330
-547.325	800.000	0.164	-0.699
-546.310	-200.000	0.033	-0.363
-545.296	-0.057	-0.130	0.092
-544.281	-116.427	0.375	0.069
-543.266	434.252	-0.293	0.637
-542.252	355.465	0.129	-0.257
-541.237	342.794	-0.346	-0.679
-540.223	-40.233	0.349	0.182
-539.208	36.135	0.567	0.501
-538.193	-198.351	0.670	-0.004
-537.179	800.000	-0.046	0.185
-536.164	42.317	0.263	0.239
-535.150	800.000	-0.108	0.401
-534.135	734.090	-0.180	0.482
-533.121	113.074	0.617	0.750
-532.106	375.452	0.230	0.469
-531.091	-47.961	-0.153	0.074
-530.077	94.518	-0.450	-0.513
-529.062	512.683	0.256	-0.598
-528.048	-200.000	-0.079	-0.533
-527.033	57.725	0.139	0.136
-526.018	104.673	0.367	-0.433
-525.004	-200.000	0.017	-0.268
-523.989	800.000	-0.247	0.761
-522.975	800.000	0.250	-0.763
-521.960	161.998	0.150	-0.211
-520.945	311.858	0.123	0.231
-519.931	31.084	-0.197	-0.169
-518.916	-119.430	-0.511	-0.089
-517.902	-51.056	-0.907	-0.426
-516.887	-200.000	-0.115	-0.670
-515.872	295.131	0.491	0.900
-514.858	-112.236	-0.128	0.026
-513.843	800.000	-0.158	-0.610
-512.829	-93.066	0.381	0.106
-511.814	108.652	-0.244	-0.292
-510.799	800.000	0.119	-0.421
-509.785	-84.515	-0.071	0.022
-508.770	-5.783	0.181	0.124
-507.756	-23.866	0.710	0.425
-506.741	596.820	-0.106	0.263
-505.726	104.943	-0.170	-0.201
-504.712	-200.000	0.093	-0.471
-503.697	200.455	0.609	0.937
-502.683	-52.102	-0.142	0.066
-501.668	800.000	-0.236	-0.793
-500.653	800.000	-0.268	-0.912
-499.639	21.805	0.682	-0.556
-498.624	770.050	-0.152	-0.415
-497.610	201.663	0.464	0.715
-496.595	199.957	0.158	0.242
-495.581	259.212	-0.399	0.688
-494.566	68.549	0.350	0.359
-493.551	800.000	0.167	-0.574
-492.537	712.821	0.072	-0.192
-491.522	11.980	-0.186	-0.143
-490.508	-200.000	0.076	0.498
-489.493	-200.000	0.010	0.105
-488.478	133.510	-0.334	0.431
-487.464	38.477	0.234	0.208
-486.449	45.174	0.434	0.400
-485.435	127.863	0.471	0.598
-484.420	-34.074	0.480	0.264
-483.405	61.215	0.374	-0.372
-482.391	117.235	-0.552	-0.679
-481.376	800.000	-0.248	-0.875
-480.362	-18.682	0.415	0.258
-479.347	131.087	-0.395	0.507
-478.332	-75.413	-0.594	0.212
-477.318	18.809	0.129	-0.103
-476.303	-86.115	0.213	0.066
-475.289	-200.000	-0.128	0.660
-474.274	-139.659	0.426	0.045
-473.259	-122.435	-0.368	-0.060
-472.245	-125.449	-0.118	0.018
-471.230	-73.226	0.757	0.277
-470.216	-102.462	-0.440	0.105
-469.201	245.770	0.087	-0.147
-468.186	-200.000	0.276	0.001
-467.172	-130.931	-0.122	-0.016
-466.157	40.143	0.338	0.303
-465.143	135.322	0.191	0.248
-464.128	-62.728	0.391	0.162
-463.113	800.000	-0.074	0.280
-462.099	-130.153	-0.530	0.072
-461.084	57.890	0.258	-0.252
-460.070	237.671	0.119	0.197
-459.055	-72.993	0.395	-0.145
-458.040	577.169	-0.562	1.372
-457.026	-43.515	0.159	-0.080
-456.011	-80.164	0.659	0.221
-454.997	-145.190	-0.385	0.035
-453.982	101.743	-0.105	0.122
-452.968	10.106	-0.480	0.364
-451.953	558.928	0.206	0.497
-450.938	-44.482	-0.610	-0.305
-449.924	29.152	-0.624	0.529
-448.909	-93.156	-0.612	-0.170
-447.895	800.000	0.232	0.694
-446.880	-2.019	-0.208	0.146
-445.865	86.311	-0.971	-1.068
-444.851	193.308	-0.157	0.237
-443.836	800.000	-0.254	0.987
-442.822	264.498	0.417	0.725
-441.807	-136.702	-0.298	-0.034
-440.792	104.313	-0.271	-0.319
-439.778	-79.358	-0.499	0.168
-438.763	-7.370	0.106	-0.071
-437.749	198.034	-0.132	0.201
-436.734	-11.828	-0.915	-0.599
-435.719	-135.187	-0.589	-0.071
-434.705	-58.006	-0.654	-0.285
-433.690	49.827	0.317	0.298
-432.676	79.880	-0.460	-0.494
-431.661	174.625	-0.473	0.683
-430.646	15.423	0.198	0.155
-429.632	625.884	-0.095	0.240
-428.617	80.177	-0.867	0.930
-427.603	-200.000	-0.010	-0.469
-426.588	-182.814	-0.484	0.009
-425.573	-200.000	-0.002	0.066
-424.559	115.491	0.282	-0.344
-423.544	709.694	0.138	0.365
-422.530	-200.000	-0.050	0.716
-421.515	-200.000	-0.050	0.313
-420.500	248.140	-0.170	0.287
-419.486	-23.855	0.366	-0.218
-418.471	7.402	-0.446	-0.333
-417.457	-200.000	-0.023	0.240
-416.442	381.104	0.293	-0.600
-415.428	-78.473	-1.059	0.362
-414.413	-83.981	-0.428	0.136
-413.398	-120.030	-0.767	-0.131
-412.384	-200.000	0.001	-0.869
-411.369	-200.000	-0.161	0.761
-410.355	231.573	-0.148	-0.241
-409.340	48.726	0.395	-0.369
-408.325	-19.634	-0.368	0.227
-407.311	-59.506	-0.491	0.210
-406.296	117.151	-0.082	-0.100
-405.282	-135.772	-0.463	-0.055
-404.267	-118.302	-0.591	0.105
-403.252	-200.000	-0.096	-0.800
-402.238	-78.482	0.602	-0.206
-401.223	-51.343	0.370	0.173
-400.209	-137.150	-0.235	0.027
-399.194	800.000	0.079	-0.242
-398.179	430.760	0.198	0.427
-397.165	-200.000	0.026	-0.359
-396.150	173.754	0.289	-0.415
-395.136	-142.818	-0.435	0.042
-394.121	278.320	-0.331	0.588
-393.106	25.394	0.756	-0.627
-392.092	-23.041	-0.499	-0.299
-391.077	-200.000	0.004	-0.347
-390.063	241.867	0.096	-0.161
-389.048	7.655	-0.695	0.519
-388.033	800.000	0.151	0.550
-387.019	-118.852	0.142	0.025
-386.004	800.000	0.154	-0.648
-384.990	57.960	0.469	0.457
-383.975	303.171	0.261	0.481
-382.960	-75.874	-0.373	-0.132
-381.946	281.163	0.344	0.613
-380.931	-44.612	-0.591	0.294
-379.917	190.660	-0.294	-0.440
-378.902	26.619	-0.397	-0.331
-377.888	649.564	-0.063	-0.159
-376.873	41.639	-0.481	-0.434
-375.858	-87.738	0.308	-0.093
-374.844	-94.437	-0.333	-0.090
-373.829	-200.000	0.143	-0.665
-372.815	800.000	-0.262	0.721
-371.800	800.000	-0.036	-0.139
-370.785	-200.000	-0.056	0.296
-369.771	-114.260	0.511	0.098
-368.756	-200.000	-0.122	-1.124
-367.742	-200.000	0.165	-0.737
-366.727	144.986	-0.907	-1.208
-365.712	-200.000	-0.187	-0.974
-364.698	-107.168	-0.491	0.108
-363.683	-21.180	0.322	0.196
-362.669	-91.211	-0.344	0.098
-361.654	3.736	-0.460	0.334
-360.639	-61.101	0.569	-0.239
-359.625	-127.972	0.274	-0.039
-358.610	-33.579	0.574	0.315
-357.596	55.901	-0.326	0.315
-356.581	290.316	0.477	-0.862
-355.566	-114.378	-0.086	-0.017
-354.552	34.791	-0.268	-0.233
-353.537	341.409	0.167	-0.324
-352.523	136.320	0.198	-0.257
-351.508	-200.000	0.010	0.211
-350.493	-112.836	-0.590	0.116
-349.479	-40.194	0.309	-0.160
-348.464	34.552	0.321	-0.279
-347.450	-186.001	0.734	-0.011
-346.435	454.325	0.334	0.736
-345.420	-200.000	0.050	-0.264
-344.406	3.451	0.743	0.538
-343.391	-0.268	0.843	-0.596
-342.377	73.792	-1.058	1.103
-341.362	-200.000	0.004	0.174
-340.348	790.659	-0.340	-0.929
-339.333	119.262	-0.265	0.326
-338.318	-59.012	0.166	0.071
-337.304	-173.398	0.873	0.026
-336.289	-111.946	0.433	-0.087
-335.275	556.420	-0.133	0.320
-334.260	-101.748	-0.341	0.082
-333.245	-200.000	-0.081	0.879
-332.231	18.996	0.239	-0.191
-331.216	-81.182	0.625	-0.205
-330.202	82.989	0.487	-0.527
-329.187	-200.000	-0.047	-1.033
-328.172	-200.000	0.012	0.654
-327.158	800.000	-0.154	-0.611
-326.143	-41.636	-0.429	0.219
-325.129	452.125	-0.178	0.392
-324.114	-200.000	0.053	0.351
-323.099	-59.059	-0.944	0.405
-322.085	140.335	0.323	0.423
-321.070	-200.000	-0.119	0.931
-320.056	-200.000	0.086	0.480
-319.041	24.022	0.470	-0.385
-318.026	87.888	0.069	0.076
-317.012	-113.085	-0.454	-0.089
-315.997	-4.568	0.654	-0.449
-314.983	800.000	-0.255	-1.063
-313.968	-19.520	0.414	-0.255
-312.953	-200.000	-0.001	0.548
-311.939	-10.477	-0.800	0.526
-310.924	-5.469	0.425	0.290
-309.910	187.244	0.340	0.504
-308.895	57.036	0.583	-0.564
-307.880	-200.000	-0.067	0.609
-306.866	-200.000	0.134	-1.061
-305.851	186.869	-0.191	-0.283
-304.837	-1.861	0.684	0.478
-303.822	-48.819	0.253	-0.121
-302.807	3.794	-0.289	-0.209
-301.793	800.000	-0.066	-0.239
-300.778	35.640	-0.266	-0.232
-299.764	13.893	-0.585	-0.452
-298.749	-113.032	0.789	0.155
-297.735	-66.264	-0.164	0.065
-296.720	-200.000	0.004	0.349
-295.705	800.000	-0.109	-0.305
-294.691	-146.654	0.494	0.043
-293.676	0.674	-0.276	-0.196
-292.662	-20.946	0.210	-0.128
-291.647	348.767	0.192	-0.376
-290.632	129.276	0.029	-0.037
-289.618	56.073	-0.458	-0.442
-288.603	63.420	0.593	-0.590
-287.589	329.488	0.312	-0.595
-286.574	-200.000	0.053	-0.251
-285.559	666.986	-0.099	0.254
-284.545	61.556	-0.765	0.755
-283.530	-152.725	-0.891	-0.063
-282.516	-81.311	-0.392	-0.128
-281.501	-79.330	0.318	0.107
-280.486	5.829	0.399	0.293
-279.472	86.040	-0.600	0.656
-278.457	541.208	0.352	0.833
-277.443	762.770	-0.073	-0.196
-276.428	800.000	0.121	-0.345
-275.413	-200.000	0.023	-0.277
-274.399	800.000	0.280	-0.972
-273.384	-200.000	0.009	-0.864
-272.370	80.738	0.305	-0.326
-271.355	69.249	0.291	-0.297
-270.340	-116.609	0.442	-0.081
-269.326	423.489	0.180	-0.383
-268.311	-200.000	0.115	0.588
-267.297	33.189	0.274	0.236
-266.282	-89.062	-1.194	0.350
-265.267	800.000	0.094	0.307
-264.253	-200.000	0.016	0.732
-263.238	-200.000	-0.022	-0.339
-262.224	358.557	-0.336	-0.666
-261.209	-99.954	0.596	-0.148
-260.195	800.000	0.242	-0.794
-259.180	800.000	0.195	-0.718
-258.165	800.000	0.040	-0.135
-257.151	-172.097	0.623	0.020
-256.136	433.718	-0.554	-1.193
-255.122	800.000	0.181	-0.775
-254.107	-200.000	0.036	-0.391
-253.092	77.937	0.357	0.377
-252.078	567.009	-0.177	0.425
-251.063	40.295	0.701	0.625
-250.049	50.494	0.322	0.301
-249.034	-24.736	0.269	-0.158
-248.019	573.434	0.369	-0.893
-247.005	-56.984	-0.522	-0.228
-245.990	-200.000	0.054	0.807
-244.976	43.379	-0.412	-0.373
-243.961	-200.000	0.020	0.323
-242.946	800.000	-0.261	0.851
-241.932	-20.926	-0.282	0.171
-240.917	800.000	-0.210	-0.615
-239.903	800.000	0.111	0.380
-238.888	-5.034	-0.639	0.436
-237.873	800.000	-0.106	-0.420
-236.859	15.765	-0.492	-0.383
-235.844	57.371	-0.495	-0.478
-234.830	-99.588	0.556	0.138
-233.815	-200.000	-0.033	0.483
-232.800	-59.466	0.407	0.173
-231.786	-158.745	-0.793	0.045
-230.771	-92.244	0.574	0.160
-229.757	419.824	0.076	-0.162
-228.742	50.580	0.400	-0.375
-227.727	191.168	0.164	0.244
-226.713	800.000	-0.141	0.500
-225.698	-200.000	0.122	-0.697
-224.684	345.269	-0.247	0.480
-223.669	355.617	-0.142	0.280
-222.655	-100.923	-0.483	-0.117
-221.640	-200.000	0.062	0.615
-220.625	9.551	0.586	-0.439
-219.611	800.000	-0.224	-0.777
-218.596	34.846	0.447	-0.387
-217.582	5.130	0.307	-0.224
-216.567	372.595	0.267	-0.538
-215.552	101.015	-0.273	-0.314
-214.538	-189.722	-0.216	-0.002
-213.523	48.123	-0.431	0.399
-212.509	-200.000	-0.077	-0.369
-211.494	-4.557	0.764	0.522
-210.479	13.492	0.601	-0.462
-209.465	98.220	-0.462	0.526
-208.450	-24.373	-0.282	-0.166
-207.436	-200.000	-0.016	-0.434
-206.421	-79.592	1.108	0.370
-205.406	-72.522	0.746	0.273
-204.392	310.366	0.142	-0.263
-203.377	301.514	0.171	-0.313
-202.363	158.172	0.093	-0.127
-201.348	800.000	-0.145	0.421
-200.333	-104.227	-0.687	-0.158
-199.319	-73.837	0.434	0.156
-198.304	152.972	-0.413	0.558
-197.290	95.992	-0.285	-0.322
-196.275	84.319	0.603	-0.652
-195.260	408.222	0.279	-0.584
-194.246	17.824	0.546	-0.430
-193.231	-200.000	-0.024	-0.765
-192.217	-111.264	-0.696	0.141
-191.202	-151.018	-0.601	0.045
-190.187	113.268	0.511	-0.612
-189.173	-138.665	0.990	-0.107
-188.158	-42.769	-0.669	-0.336
-187.144	533.933	0.109	-0.255
-186.129	46.482	0.585	0.536
-185.114	-73.984	-1.000	0.359
-184.100	-65.225	0.408	-0.162
-183.085	-200.000	-0.151	0.805
-182.071	-200.000	0.088	0.974
-181.056	1.667	0.324	-0.230
-180.042	-160.013	0.549	0.030
-179.027	-200.000	0.038	0.386
-178.012	14.951	0.507	0.392
-176.998	378.983	-0.282	0.570
-175.983	-69.384	0.357	0.135
-174.969	598.482	0.087	0.213
-173.954	-200.000	0.103	0.472
-172.939	361.164	0.217	-0.429
-171.925	88.613	-0.245	0.269
-170.910	-94.265	0.515	0.139
-169.896	-200.000	-0.191	-1.293
-168.881	3.707	1.016	0.733
-167.866	-56.498	0.582	0.255
-166.852	-64.516	-0.470	-0.188
-165.837	155.533	-0.667	-0.907
-164.823	-128.928	-0.558	-0.077
-163.808	-58.720	0.234	0.100
-162.793	-200.000	-0.017	0.558
-161.779	221.141	0.302	-0.479
-160.764	214.441	0.496	-0.776
-159.750	800.000	-0.281	0.791
-158.735	800.000	-0.091	-0.264
-157.720	379.919	-0.548	1.108
-156.706	187.442	-0.337	0.496
-155.691	110.759	0.645	-0.766
-154.677	-200.000	0.132	0.592
-153.662	135.140	-0.521	0.668
-152.647	-62.304	0.310	0.127
-151.633	-115.475	1.164	-0.216
-150.618	800.000	0.096	-0.344
-149.604	7.496	0.220	-0.163
-148.589	6.978	0.686	0.505
-147.574	76.648	-0.740	0.775
-146.560	641.867	0.074	0.186
-145.545	-200.000	0.026	0.330
-144.531	193.259	0.162	-0.242
-143.516	800.000	0.100	0.426
-142.502	-87.393	-0.201	-0.060
-141.487	-200.000	-0.101	0.463
-140.472	684.454	-0.311	-0.802
-139.458	-89.985	0.671	-0.193
-138.443	210.802	-0.224	0.347
-137.429	93.044	0.286	0.319
-136.414	-200.000	0.019	-0.698
-135.399	800.000	-0.077	0.327
-134.385	196.068	-0.214	0.322
-133.370	800.000	-0.164	-0.508
-132.356	800.000	-0.258	-1.107
-131.341	-61.620	0.261	0.108
-130.326	180.284	-0.586	0.848
-129.312	-31.166	-1.142	-0.635
-128.297	206.966	0.243	0.373
-127.283	161.218	0.828	1.142
-126.268	-43.081	-0.119	0.059
-125.253	-109.034	0.889	-0.187
-124.239	178.518	0.107	0.154
-123.224	-172.096	0.269	-0.009
-122.210	-80.089	0.085	0.028
-121.195	-200.000	0.028	-0.767
-120.180	-19.744	0.277	0.169
-119.166	-116.930	1.141	0.206
-118.151	78.289	-0.232	0.244
-117.137	513.688	0.280	0.645
-116.122	278.761	0.195	-0.343
-115.107	-144.440	-0.732	0.067
-114.093	-200.000	0.119	-0.525
-113.078	784.503	0.219	0.592
-112.064	-155.830	0.453	-0.028
-111.049	-97.308	0.911	-0.234
-110.034	-200.000	0.033	-0.686
-109.020	-200.000	-0.071	0.320
-108.005	800.000	0.138	0.468
-106.991	93.623	-0.370	0.413
-105.976	-61.212	0.502	-0.209
-104.962	-200.000	-0.077	0.434
-103.947	-51.107	0.510	0.236
-102.932	25.073	-1.071	0.876
-101.918	-131.004	1.115	-0.147
-100.903	290.501	-0.151	0.271
-99.889	-1.745	-0.363	-0.252
-98.874	-31.657	0.862	0.477
-97.859	-167.986	-0.328	-0.013
-96.845	155.049	0.087	0.118
-95.830	-77.377	0.376	0.129
-94.816	-158.563	-0.137	-0.008
-93.801	62.801	-0.627	0.618
-92.786	3.074	0.541	-0.387
-91.772	-126.637	-0.846	0.123
-90.757	65.615	0.422	0.421
-89.743	-200.000	0.004	-0.230
-88.728	-38.424	0.060	0.031
-87.713	-85.160	-0.131	-0.040
-86.699	254.189	-0.464	0.782
-85.684	-111.099	-0.806	0.163
-84.670	98.859	0.388	-0.441
-83.655	599.378	0.216	0.528
-82.640	272.014	0.217	0.377
-81.626	246.057	-0.322	-0.534
-80.611	31.857	0.037	-0.031
-79.597	-45.833	0.259	-0.126
-78.582	-200.000	0.000	-0.141
-77.567	-200.000	0.057	-0.841
-76.553	800.000	0.088	0.332
-75.538	389.118	-0.170	0.347
-74.524	153.545	0.316	0.426
-73.509	-93.425	0.163	0.045
-72.494	-112.615	0.553	-0.108
-71.480	-45.922	1.370	-0.665
-70.465	-67.356	-0.808	-0.313
-69.451	55.289	-0.215	0.204
-68.436	800.000	-0.251	-0.791
-67.422	-93.559	-0.351	-0.095
-66.407	33.774	0.756	-0.647
-65.392	-67.249	0.268	-0.104
-64.378	-0.884	0.492	0.343
-63.363	-200.000	0.040	-1.143
-62.349	-142.325	1.225	-0.119
-61.334	-12.074	-1.383	-0.891
-60.319	107.410	-0.242	0.283
-59.305	800.000	0.262	-0.838
-58.290	303.861	0.539	0.983
-57.276	787.744	0.514	1.386
-56.261	-200.000	97.137	603.690
-55.246	665.921	1355.700	3443.588
-54.232	204.280	2520.014	3840.033
-53.217	120.073	2117.062	2582.172
-52.203	44.146	1588.587	1432.522
-51.188	35.492	1328.738	1146.749
-50.173	32.834	1287.118	1095.379
-49.159	56.540	1337.386	1278.873
-48.144	57.354	1354.287	1299.795
-47.130	35.698	1312.632	1133.883
-46.115	32.451	1294.926	1099.612
-45.100	32.180	1290.341	1094.099
-44.086	31.838	1287.204	1089.410
-43.071	31.969	1284.814	1088.103
-42.057	31.856	1283.022	1085.886
-41.042	32.006	1280.694	1084.737
-40.027	32.206	1278.837	1084.275
-39.013	32.045	1277.502	1082.174
-37.998	31.957	1275.966	1080.325
-36.984	31.840	1274.664	1078.505
-35.969	32.294	1271.045	1078.003
-34.954	31.978	1270.861	1075.995
-33.940	32.251	1269.037	1075.969
-32.925	32.174	1268.083	1074.679
-31.911	32.211	1266.596	1073.586
-30.896	32.384	1264.314	1072.594
-29.881	32.208	1263.545	1070.901
-28.867	32.236	1262.329	1069.984
-27.852	32.207	1260.965	1068.624
-26.838	32.522	1258.216	1068.038
-25.823	32.215	1258.428	1066.433
-24.809	31.990	1257.032	1063.929
-23.794	32.050	1255.668	1063.074
-22.779	32.382	1253.940	1063.446
-21.765	32.284	1252.829	1061.909
-20.750	32.345	1250.783	1060.477
-19.736	32.322	1250.635	1060.180
-18.721	32.168	1249.300	1058.141
-17.706	31.769	1249.647	1056.141
-16.692	32.063	1246.738	1055.292
-15.677	31.863	1246.838	1054.213
-14.663	32.057	1245.178	1053.859
-13.648	32.191	1243.563	1053.200
-12.633	31.899	1243.468	1051.438
-11.619	31.928	1242.891	1051.073
-10.604	32.198	1241.375	1051.257
-9.590	32.017	1240.108	1049.133
-8.575	32.242	1238.427	1048.923
-7.560	32.134	1238.484	1048.330
-6.546	32.136	1237.350	1047.337
-5.531	31.935	1236.922	1045.812
-4.517	32.092	1235.440	1045.396
-3.502	31.897	1235.741	1044.522
-2.487	32.016	1233.881	1043.569
-1.473	31.852	1230.388	1039.663
-0.458	30.495	1214.724	1018.950
0.556	27.824	1197.104	979.703
1.571	23.929	1202.081	962.655
2.586	22.796	1217.077	968.365
3.600	22.161	1205.720	955.794
4.615	16.952	1133.190	871.524
5.629	7.459	1059.150	768.711
6.644	3.405	1039.906	735.365
7.659	3.093	1036.978	731.749
8.673	3.322	1035.305	731.587
9.688	3.141	1033.308	729.255
10.702	3.460	1032.470	730.110
11.717	9.119	1041.265	763.228
12.731	18.458	1054.022	817.250
13.746	23.401	1059.838	845.324
14.761	24.273	1059.846	849.416
15.775	23.702	1058.641	845.653
16.790	23.593	1058.239	844.740
17.804	22.954	1057.029	840.660
18.819	22.903	1056.723	840.101
19.834	23.440	1054.811	841.056
20.848	23.222	1056.466	841.262
21.863	23.055	1055.517	839.639
22.877	23.034	1054.359	838.547
23.892	22.947	1053.429	837.317
24.907	22.935	1052.654	836.574
25.921	22.952	1050.269	834.683
26.936	22.811	1049.961	833.699
27.950	22.545	1047.965	830.785
28.965	22.648	1047.523	830.846
29.980	22.996	1045.406	830.729
30.994	23.003	1044.485	829.961
32.009	22.935	1043.815	829.033
33.023	22.937	1044.118	829.210
34.038	22.889	1043.098	828.104
35.053	22.674	1041.559	825.800
36.067	22.584	1041.215	825.031
37.082	22.460	1039.903	823.340
38.096	22.930	1039.253	824.947
39.111	23.022	1038.259	824.515
40.126	22.766	1037.082	822.315
41.140	22.494	1035.789	819.950
42.155	22.197	1034.243	817.273
43.169	22.342	1032.608	816.583
44.184	22.204	1032.120	815.484
45.199	22.319	1031.132	815.166
46.213	22.197	1031.433	814.766
47.228	22.705	1030.715	816.477
48.242	22.926	1029.797	816.702
49.257	23.201	1028.229	816.653
50.271	23.252	1028.507	817.040
51.286	23.267	1027.437	816.185
52.301	23.418	1025.705	815.431
53.315	23.254	1026.335	815.106
54.330	22.924	1024.844	812.331
55.344	22.820	1024.027	811.132
56.359	22.893	1023.212	810.752
57.374	22.828	1021.521	809.042
58.388	22.487	1021.943	807.744
59.403	22.339	1020.790	806.082
60.417	22.243	1020.112	805.034
61.432	22.571	1018.919	805.521
62.447	22.358	1017.781	803.576
63.461	22.588	1017.142	804.054
64.476	22.330	1016.412	802.230
65.490	22.344	1015.007	801.113
66.505	22.376	1015.665	801.705
67.520	22.271	1014.457	800.205
68.534	21.979	1014.111	798.532
69.549	21.998	1012.512	797.287
70.563	21.969	1011.659	796.412
71.578	21.843	1010.848	795.134
72.593	21.508	1009.195	792.246
73.607	21.440	1010.170	792.633
74.622	21.888	1008.389	793.194
75.636	21.706	1009.223	792.956
76.651	21.584	1008.331	791.632
77.666	22.035	1006.573	792.218
78.680	22.172	1004.789	791.359
79.695	22.009	1005.203	790.881
80.709	22.468	1005.010	792.728
81.724	22.285	1003.809	790.887
82.739	22.426	1003.483	791.193
83.753	23.160	1002.996	794.035
84.768	23.519	1002.095	794.862
85.782	23.357	1002.540	794.416
86.797	23.293	1001.470	793.212
87.812	22.981	1001.116	791.463
88.826	23.299	998.961	791.111
89.841	23.233	998.905	790.701
90.855	23.494	997.473	790.662
91.870	23.500	997.165	790.376
92.884	23.235	996.080	788.266
93.899	23.123	994.904	786.764
94.914	23.379	993.477	786.707
95.928	23.228	992.223	784.975
96.943	23.060	991.550	783.624
97.957	22.781	991.440	782.234
98.972	23.221	989.739	782.769
99.987	23.062	989.395	781.724
101.001	23.295	987.356	781.074
102.016	22.869	987.911	779.563
103.030	23.170	986.639	779.817
104.045	23.182	986.690	779.840
105.060	22.900	985.713	777.758
106.074	23.207	983.798	777.529
107.089	22.950	982.116	775.000
108.103	22.560	981.655	772.858
109.118	22.319	980.555	770.868
110.133	22.116	979.062	768.739
111.147	22.151	978.293	768.222
112.162	22.179	977.451	767.614
113.176	22.172	978.337	768.211
114.191	22.228	976.142	766.665
115.206	22.153	975.774	765.979
116.220	22.341	974.508	765.736
117.235	22.070	974.068	764.145
118.249	22.028	973.601	763.528
119.264	21.959	971.852	761.789
120.279	21.945	971.408	761.313
121.293	21.872	970.388	760.129
122.308	21.894	969.036	759.100
123.322	21.460	968.451	756.696
124.337	21.514	967.312	755.974
125.352	21.353	966.547	754.612
126.366	21.521	965.807	754.694
127.381	22.443	963.675	756.925
128.395	22.234	963.687	755.969
129.410	22.182	962.588	754.816
130.424	22.407	963.019	756.054
131.439	22.566	962.147	755.986
132.454	22.573	961.798	755.676
133.468	22.687	959.580	754.353
134.483	22.636	958.841	753.488
135.497	22.605	959.050	753.452
136.512	22.463	958.359	752.234
137.527	22.522	956.531	750.986
138.541	22.406	956.973	750.772
139.556	22.519	956.360	750.706
140.570	22.514	955.637	750.051
141.585	22.930	955.541	751.681
142.600	22.898	955.035	751.077
143.614	23.210	954.220	751.699
144.629	23.983	951.923	753.092
145.643	23.575	950.948	750.531
146.658	22.990	949.858	747.131
147.673	22.838	948.730	745.537
148.687	22.648	947.540	743.736
149.702	22.534	947.089	742.834
150.716	22.728	945.476	742.321
151.731	22.685	945.352	741.976
152.746	22.974	944.289	742.291
153.760	23.219	943.301	742.474
154.775	22.873	944.387	741.812
155.789	23.046	943.979	742.153
156.804	22.937	942.398	740.385
157.819	22.874	942.787	740.361
158.833	23.104	942.133	740.747
159.848	23.372	940.479	740.501
160.862	23.454	938.630	739.322
161.877	22.842	938.052	736.250
162.892	22.433	937.291	733.883
163.906	22.718	935.799	733.834
164.921	22.427	935.246	732.125
165.935	22.721	934.593	732.771
166.950	22.835	933.834	732.586
167.964	22.922	933.203	732.388
168.979	22.547	932.328	730.083
169.994	22.743	931.241	729.978
171.008	22.892	930.397	729.864
172.023	22.931	929.779	729.478
173.037	23.101	929.034	729.529
174.052	23.035	928.036	728.411
175.067	22.855	926.853	726.678
176.081	22.410	926.090	724.183
177.096	22.514	924.927	723.638
178.110	22.393	924.821	722.993
179.125	22.403	924.050	722.367
180.140	22.255	925.045	722.472
181.154	22.695	924.785	724.012
182.169	22.876	924.018	724.090
183.183	23.050	922.943	723.895
184.198	22.880	922.644	722.902
185.213	22.737	922.949	722.492
186.227	22.973	921.595	722.332
187.242	23.507	919.908	723.125
188.256	23.614	919.229	722.961
189.271	23.217	918.688	720.857
190.286	23.043	917.091	718.833
191.300	22.469	916.449	715.932
192.315	22.160	915.939	714.214
193.329	22.205	915.018	713.618
194.344	22.359	915.429	714.499
195.359	22.676	915.255	715.589
196.373	23.002	915.206	716.807
197.388	23.530	913.349	717.427
198.402	23.449	914.863	718.223
199.417	23.550	913.321	717.358
200.432	23.600	913.263	717.453
201.446	23.668	912.670	717.197
202.461	23.743	912.220	717.084
203.475	23.256	912.197	715.033
204.490	22.785	910.004	711.353
205.504	22.925	909.904	711.777
206.519	23.122	908.339	711.283
207.534	23.265	907.286	710.967
208.548	23.372	906.582	710.785
209.563	23.116	906.733	709.811
210.577	23.251	906.415	710.043
211.592	23.661	906.018	711.311
212.607	23.389	905.456	709.719
213.621	23.565	905.236	710.186
214.636	23.198	904.030	707.712
215.650	23.279	903.387	707.468
216.665	23.490	902.155	707.282
217.680	23.444	902.720	707.480
218.694	23.363	901.258	705.947
219.709	23.410	899.688	704.844
220.723	23.246	899.687	704.128
221.738	23.013	898.908	702.531
222.753	22.579	899.259	701.014
223.767	23.314	898.542	703.314
224.782	23.729	897.246	703.882
225.796	23.651	897.363	703.605
226.811	23.246	897.386	701.955
227.826	22.829	895.005	698.380
228.840	23.032	894.549	698.765
229.855	22.656	893.993	696.784
230.869	22.662	893.231	696.151
231.884	22.882	892.876	696.680
232.899	23.097	892.568	697.229
233.913	23.002	891.172	695.702
234.928	22.670	890.572	693.865
235.942	22.616	890.682	693.678
236.957	22.534	889.341	692.249
237.972	22.918	887.793	692.487
238.986	22.669	887.537	691.250
240.001	22.700	888.053	691.714
241.015	22.788	887.382	691.474
242.030	22.821	887.652	691.755
243.045	22.932	886.022	690.854
244.059	23.297	885.557	691.858
245.074	23.132	885.210	690.882
246.088	23.060	885.650	690.882
247.103	23.551	883.878	691.353
248.117	23.852	884.669	693.086
249.132	24.216	883.921	693.853
250.147	24.258	884.352	694.294
251.161	24.498	883.530	694.521
252.176	24.660	882.571	694.337
253.190	24.652	882.316	694.045
254.205	25.092	880.554	694.299
255.220	24.023	881.226	690.621
256.234	24.235	879.282	689.858
257.249	24.266	878.843	689.574
258.263	24.035	878.675	688.487
259.278	24.430	878.061	689.474
260.293	24.240	878.253	688.827
261.307	24.345	878.209	689.138
262.322	24.834	875.470	688.809
263.336	24.305	875.743	686.925
264.351	23.944	875.420	685.222
265.366	24.041	874.314	684.668
266.380	24.463	873.557	685.638
267.395	24.516	873.347	685.614
268.409	24.185	872.506	683.623
269.424	24.009	872.808	683.124
270.439	24.075	871.521	682.308
271.453	23.978	870.169	680.818
272.468	24.024	869.368	680.308
273.482	23.710	869.709	679.312
274.497	24.040	868.353	679.456
275.512	24.159	868.819	680.213
276.526	24.300	867.824	679.913
277.541	24.221	867.174	679.042
278.555	24.276	867.779	679.664
279.570	24.611	866.028	679.507
280.585	24.137	866.468	677.988
281.599	24.128	865.121	676.842
282.614	23.635	864.198	674.186
283.628	23.584	863.463	673.361
284.643	23.870	862.147	673.360
285.657	23.692	862.331	672.767
286.672	23.779	861.870	672.678
287.687	24.126	861.263	673.456
288.701	23.935	860.981	672.457
289.716	23.919	859.849	671.451
290.730	24.080	859.902	672.040
291.745	23.943	859.568	671.204
292.760	23.978	858.777	670.657
293.774	24.359	858.720	671.992
294.789	24.311	857.905	671.112
295.803	24.255	857.567	670.578
296.818	24.036	856.602	668.939
297.833	24.392	853.735	667.978
298.847	23.919	854.449	666.705
299.862	23.862	854.846	666.738
300.876	24.390	854.248	668.194
301.891	24.663	853.400	668.492
302.906	24.758	853.497	668.865
303.920	24.749	853.451	668.735
304.935	24.866	852.696	668.522
305.949	24.649	851.888	667.018
306.964	24.405	850.748	665.158
307.979	24.074	850.347	663.552
308.993	24.583	849.981	665.101
310.008	24.281	849.191	663.301
311.022	24.217	848.761	662.670
312.037	24.105	847.689	661.360
313.052	23.842	847.267	659.993
314.066	23.670	846.344	658.580
315.081	23.676	845.963	658.245
316.095	23.670	845.752	658.001
317.110	23.915	844.407	657.804
318.125	23.888	843.932	657.276
319.139	23.487	843.492	655.394
320.154	23.481	842.829	654.799
321.168	24.034	842.565	656.575
322.183	23.599	842.867	655.145
323.197	23.959	841.591	655.426
324.212	23.535	841.276	653.560
325.227	23.834	840.190	653.757
326.241	23.753	839.535	652.891
327.256	23.667	839.296	652.333
328.270	23.459	838.444	650.849
329.285	23.786	838.028	651.668
330.300	23.010	837.851	648.625
331.314	23.570	837.061	650.008
332.329	24.241	836.530	651.995
333.343	24.319	836.406	652.126
334.358	24.278	837.122	652.475
335.373	24.386	836.484	652.317
336.387	24.313	835.984	651.601
337.402	24.622	836.289	652.910
338.416	24.713	836.310	653.202
339.431	24.687	835.698	652.570
340.446	25.246	833.918	653.158
341.460	24.830	834.411	651.974
342.475	25.349	833.872	653.382
343.489	25.106	834.062	652.589
344.504	25.003	833.149	651.442
345.519	25.339	832.623	652.196
346.533	25.410	832.329	652.165
347.548	25.038	831.084	649.783
348.562	24.760	830.519	648.277
349.577	24.976	830.601	649.064
350.592	24.104	829.761	645.192
351.606	24.420	828.775	645.514
352.621	24.462	827.090	644.294
353.635	24.455	827.263	644.348
354.650	24.247	826.242	642.746
355.665	23.971	827.373	642.570
356.679	24.373	825.839	642.772
357.694	24.136	825.082	641.272
358.708	24.158	823.963	640.425
359.723	24.494	822.836	640.699
360.738	24.163	823.784	640.190
361.752	24.522	822.106	640.118
362.767	25.215	822.137	642.570
363.781	24.792	822.565	641.331
364.796	25.271	821.209	641.929
365.810	25.106	821.468	641.486
366.825	25.343	820.671	641.653
367.840	25.026	820.359	640.220
368.854	24.627	819.285	637.900
369.869	24.762	819.023	638.121
370.883	24.912	818.900	638.503
371.898	25.424	818.012	639.579
372.913	24.897	818.146	637.751
373.927	25.165	816.379	637.271
374.942	24.946	816.353	636.415
375.956	25.423	816.576	638.227
376.971	25.141	816.563	637.157
377.986	25.420	816.086	637.719
379.000	25.518	815.055	637.204
380.015	25.452	813.992	636.085
381.029	25.225	813.931	635.178
382.044	25.497	813.770	635.958
383.059	25.651	813.043	635.879
384.073	25.188	812.495	633.756
385.088	24.699	811.073	630.865
386.102	24.489	811.205	630.173
387.117	24.423	810.663	629.462
388.132	24.749	808.818	629.123
389.146	24.667	808.051	628.180
390.161	24.955	808.180	629.236
391.175	25.822	807.877	631.991
392.190	25.083	807.591	629.118
393.205	24.885	806.467	627.493
394.219	24.326	806.347	625.382
395.234	24.155	805.288	623.908
396.248	24.207	805.178	623.951
397.263	24.533	805.102	624.977
398.278	24.005	805.890	623.682
399.292	24.357	803.377	622.911
400.307	24.306	803.546	622.810
401.321	24.349	802.737	622.276
402.336	24.611	803.307	623.578
403.350	24.904	803.018	624.322
404.365	25.700	801.897	626.164
405.380	25.617	802.727	626.470
406.394	25.718	802.285	626.422
407.409	25.792	800.725	625.404
408.423	25.383	800.849	624.026
409.438	25.418	801.550	624.637
410.453	25.996	799.838	625.251
411.467	25.738	799.804	624.277
412.482	25.622	800.114	624.060
413.496	26.095	798.445	624.341
414.511	26.017	798.360	623.948
415.526	25.608	797.898	622.117
416.540	25.624	797.668	621.939
417.555	25.089	797.958	620.260
418.569	25.781	796.720	621.632
419.584	25.873	795.698	621.095
420.599	25.901	795.366	620.881
421.613	161.149	1370.284	1793.200
422.628	139.754	1454.080	1793.310
