DTS Sentinel unit serial number:	SN413079Multiplexer serial number:	ORYXHardware model number:	OX4-SRSoftware version number:	ORYX F/W v4.00 Oryx Data Collector v3.7.2.0data status	okinstallation	princeton_trtdifferential loss correction	single-endedforward channel	channel 1reverse channel	N/Adate	2019/09/19time	04:22:35forward acquisition time	60.00reverse acquisition time	0.00gamma	496.2192k internal	0.2342k external	0.2342temperature offset calibration	1.0024default loss term (dB/km)	0.3790temperature slope calibration	1.0000multiplexer offset coefficient	1.0000multiplexer slope coefficient	1.0000fibre end	0.00T internal ref (°C)	20.25T ext. ref 1 (°C)	0.64T ext. ref 2 (°C)	13.44length (m)	temperature (°C)	Stokes	anti-Stokes-747.200	-89.464	0.104	0.031
-746.185	-10.768	-0.158	0.104
-745.171	-102.051	0.486	-0.117
-744.156	800.000	0.036	-0.126
-743.142	-67.434	-0.117	0.046
-742.127	276.711	0.115	0.204
-741.112	269.642	0.247	-0.434
-740.098	800.000	-0.042	0.157
-739.083	800.000	0.041	0.156
-738.069	-200.000	0.100	0.568
-737.054	173.738	0.085	-0.122
-736.039	-107.200	-0.307	0.068
-735.025	-120.050	0.283	-0.049
-734.010	31.339	-0.255	-0.219
-732.996	142.065	0.283	-0.376
-731.981	-147.730	0.428	0.036
-730.966	84.738	0.264	-0.289
-729.952	-200.000	0.017	-0.094
-728.937	-38.963	-0.372	-0.196
-727.923	-200.000	0.105	0.491
-726.908	414.102	0.034	0.072
-725.894	-129.592	-0.240	-0.033
-724.879	318.573	0.060	0.115
-723.864	-159.178	-0.150	0.008
-722.850	150.814	-0.100	-0.136
-721.835	-200.000	-0.033	-0.175
-720.821	48.651	-0.290	-0.272
-719.806	-104.525	0.388	0.090
-718.791	-200.000	-0.036	0.451
-717.777	233.822	-0.070	-0.115
-716.762	286.236	-0.109	-0.198
-715.748	-141.909	-0.419	0.042
-714.733	19.346	0.196	-0.158
-713.718	2.799	0.124	0.090
-712.704	625.901	0.014	0.035
-711.689	-85.825	-0.216	0.067
-710.675	-101.564	0.255	-0.062
-709.660	-99.119	0.158	0.040
-708.645	-48.028	-0.106	-0.051
-707.631	800.000	-0.013	0.056
-706.616	-54.411	0.238	-0.108
-705.602	800.000	-0.057	0.198
-704.587	463.058	-0.010	-0.022
-703.572	-151.037	-0.268	-0.020
-702.558	-87.657	0.404	0.122
-701.543	-200.000	-0.000	-0.265
-700.529	121.854	0.173	0.216
-699.514	-95.181	-0.114	0.031
-698.499	32.059	-0.101	0.087
-697.485	-200.000	0.012	-0.284
-696.470	52.161	0.233	-0.222
-695.456	-91.725	0.253	0.072
-694.441	-139.959	-0.148	0.016
-693.426	800.000	0.030	0.126
-692.412	-200.000	-0.017	-0.133
-691.397	-92.540	-0.453	0.127
-690.383	-200.000	-0.010	-0.367
-689.368	80.872	0.105	-0.113
-688.354	382.284	0.153	-0.315
-687.339	-43.267	-0.208	0.105
-686.324	800.000	0.069	0.238
-685.310	-151.137	-0.139	0.010
-684.295	-38.620	0.076	-0.040
-683.281	-88.435	-0.279	0.083
-682.266	-17.650	-0.179	0.112
-681.251	398.457	-0.048	-0.101
-680.237	-100.942	-0.506	-0.124
-679.222	800.000	0.063	0.275
-678.208	44.265	0.142	-0.131
-677.193	41.308	-0.160	0.144
-676.178	-174.447	0.096	0.003
-675.164	5.181	0.229	-0.168
-674.149	-200.000	0.012	-0.163
-673.135	266.823	-0.081	0.142
-672.120	53.482	0.053	-0.051
-671.105	-151.398	0.229	-0.017
-670.091	497.768	0.124	-0.286
-669.076	-143.334	-0.074	0.007
-668.062	224.009	-0.091	-0.146
-667.047	-96.592	-0.294	0.077
-666.032	-78.357	-0.032	0.011
-665.018	-32.052	0.138	-0.077
-664.003	-55.903	0.277	-0.124
-662.989	41.060	0.164	0.148
-661.974	-109.436	0.328	0.069
-660.959	-200.000	-0.039	-0.240
-659.945	-200.000	-0.044	-0.258
-658.930	-7.288	0.084	0.057
-657.916	256.401	-0.218	-0.373
-656.901	800.000	0.060	-0.175
-655.886	240.812	0.217	-0.362
-654.872	44.193	-0.164	0.150
-653.857	-200.000	-0.012	-0.146
-652.843	-157.139	-0.340	-0.021
-651.828	-52.478	-0.238	-0.110
-650.814	143.243	0.190	0.252
-649.799	40.676	-0.127	-0.114
-648.784	-145.974	-0.225	-0.020
-647.770	-6.004	0.179	0.122
-646.755	113.145	0.157	0.190
-645.741	80.223	-0.198	0.212
-644.726	-162.070	-0.186	-0.009
-643.711	-62.473	0.370	0.153
-642.697	-200.000	0.019	0.398
-641.682	-14.627	0.113	-0.073
-640.668	-49.612	0.205	0.097
-639.653	24.135	0.086	-0.071
-638.638	800.000	0.024	0.085
-637.624	27.521	-0.235	0.197
-636.609	-200.000	-0.001	0.190
-635.595	-59.059	0.305	0.131
-634.580	800.000	0.158	-0.455
-633.565	167.188	0.096	0.135
-632.551	116.661	-0.275	-0.336
-631.536	-200.000	0.043	-0.323
-630.522	-45.288	-0.149	0.074
-629.507	-200.000	0.002	-0.020
-628.492	-50.733	0.094	-0.044
-627.478	800.000	-0.092	-0.341
-626.463	25.799	0.180	0.150
-625.449	56.370	-0.196	-0.189
-624.434	341.386	0.102	-0.198
-623.419	91.370	0.199	-0.222
-622.405	237.935	0.066	0.109
-621.390	-73.002	-0.277	-0.101
-620.376	-150.798	0.374	-0.028
-619.361	162.856	-0.082	-0.115
-618.346	-47.857	-0.222	0.107
-617.332	136.819	-0.087	0.113
-616.317	212.207	0.227	0.357
-615.303	-90.811	-0.358	0.103
-614.288	-82.054	-0.112	0.036
-613.273	101.921	-0.157	0.182
-612.259	-103.156	-0.184	0.043
-611.244	-200.000	-0.062	-0.609
-610.230	-88.438	-0.283	0.084
-609.215	206.970	0.159	0.247
-608.201	800.000	-0.096	0.274
-607.186	-43.102	0.053	0.027
-606.171	-87.179	0.261	-0.079
-605.157	-57.284	-0.184	-0.081
-604.142	213.575	0.108	0.170
-603.128	-148.120	-0.265	0.022
-602.113	-200.000	0.003	-0.127
-601.098	-18.338	-0.232	0.145
-600.084	800.000	0.049	0.163
-599.069	50.318	-0.259	0.244
-598.055	673.730	0.139	0.358
-597.040	-65.013	-0.310	-0.125
-596.025	64.147	0.096	0.096
-595.011	-85.836	0.203	0.063
-593.996	7.582	0.055	-0.041
-592.982	102.911	0.147	-0.171
-591.967	91.964	0.169	-0.189
-590.952	-92.083	0.259	-0.073
-589.938	-30.361	-0.041	0.023
-588.923	-96.062	0.292	0.077
-587.909	298.063	0.215	0.394
-586.894	-200.000	0.024	0.270
-585.879	-60.994	-0.149	0.062
-584.865	-28.137	0.301	0.173
-583.850	146.340	0.108	0.145
-582.836	85.925	0.180	-0.197
-581.821	244.706	-0.168	0.281
-580.806	10.853	-0.157	-0.119
-579.792	-23.584	0.304	-0.182
-578.777	-25.374	-0.239	-0.141
-577.763	-136.762	-0.272	0.031
-576.748	766.550	0.057	0.155
-575.733	-29.568	0.040	0.023
-574.719	43.781	0.235	0.214
-573.704	-200.000	-0.035	-0.272
-572.690	-200.000	0.006	0.240
-571.675	-55.875	-0.235	-0.105
-570.661	643.964	0.065	-0.164
-569.646	203.466	0.155	0.238
-568.631	-107.762	0.051	-0.011
-567.617	150.338	-0.082	-0.110
-566.602	174.031	-0.121	0.174
-565.588	-200.000	0.029	-0.205
-564.573	-188.067	0.215	0.003
-563.558	108.661	0.149	0.177
-562.544	-131.317	0.155	0.020
-561.529	-29.723	-0.055	0.031
-560.515	-57.466	0.192	-0.084
-559.500	-15.224	0.090	0.057
-558.485	-39.771	-0.070	-0.036
-557.471	-155.927	-0.474	-0.030
-556.456	519.737	0.138	0.321
-555.442	-200.000	0.008	0.078
-554.427	66.083	0.203	-0.204
-553.412	372.649	-0.071	0.144
-552.398	800.000	-0.120	0.415
-551.383	-112.527	0.107	-0.021
-550.369	-25.970	-0.079	-0.046
-549.354	-54.164	0.200	-0.090
-548.339	-118.129	-0.240	0.042
-547.325	-157.518	0.421	0.025
-546.310	256.798	-0.040	-0.069
-545.296	-155.559	0.394	-0.025
-544.281	246.515	0.110	-0.184
-543.266	7.314	0.133	0.098
-542.252	144.264	-0.086	-0.113
-541.237	408.241	-0.052	0.109
-540.223	255.196	0.111	0.188
-539.208	-21.011	0.069	-0.042
-538.193	-14.381	-0.140	0.090
-537.179	188.658	0.106	-0.157
-536.164	-37.219	0.032	0.017
-535.150	-60.798	-0.174	0.073
-534.135	-200.000	-0.003	0.147
-533.121	-200.000	-0.057	-0.251
-532.106	-200.000	0.001	0.074
-531.091	511.820	0.225	-0.521
-530.077	800.000	-0.053	-0.157
-529.062	46.159	-0.323	-0.297
-528.048	-200.000	-0.009	0.051
-527.033	-131.589	0.328	0.043
-526.018	-49.064	-0.220	0.104
-525.004	-200.000	-0.077	0.388
-523.989	-77.185	-0.131	0.045
-522.975	800.000	-0.034	0.106
-521.960	-93.042	-0.320	-0.089
-520.945	627.545	-0.159	0.398
-519.931	147.446	0.104	-0.139
-518.916	-29.349	-0.209	0.119
-517.902	-200.000	-0.039	-0.315
-516.887	-130.268	0.518	0.070
-515.872	-36.452	-0.341	0.182
-514.858	-10.823	0.142	-0.093
-513.843	-1.087	0.296	-0.207
-512.829	-32.043	-0.193	-0.107
-511.814	-36.171	0.047	0.025
-510.799	-200.000	-0.015	-0.114
-509.785	9.886	-0.052	0.039
-508.770	232.456	-0.178	0.291
-507.756	800.000	-0.048	0.153
-506.741	171.655	-0.095	0.136
-505.726	-156.498	-0.239	0.015
-504.712	65.314	-0.158	-0.159
-503.697	-101.772	0.368	-0.088
-502.683	76.285	-0.122	-0.128
-501.668	-134.197	0.105	0.013
-500.653	706.056	0.186	0.488
-499.639	102.268	-0.076	0.089
-498.624	-6.205	-0.140	-0.095
-497.610	312.620	0.025	0.047
-496.595	473.878	0.151	-0.338
-495.581	-200.000	-0.010	-0.098
-494.566	800.000	0.090	0.297
-493.551	745.396	-0.024	0.064
-492.537	252.798	-0.167	-0.282
-491.522	-29.771	-0.316	-0.179
-490.508	-200.000	-0.014	0.518
-489.493	101.836	0.149	0.173
-488.478	-77.454	-0.200	-0.069
-487.464	-63.529	-0.137	-0.056
-486.449	478.629	0.091	0.204
-485.435	-107.873	-0.323	0.070
-484.420	-110.344	0.060	0.012
-483.405	800.000	-0.068	-0.208
-482.391	-200.000	-0.041	0.245
-481.376	800.000	-0.085	-0.298
-480.362	-55.980	-0.375	0.166
-479.347	-200.000	-0.055	-0.323
-478.332	13.790	-0.085	-0.066
-477.318	-134.947	0.372	0.045
-476.303	-126.253	-0.378	0.056
-475.289	48.527	-0.108	0.100
-474.274	195.449	-0.102	-0.154
-473.259	55.142	-0.077	-0.074
-472.245	-168.583	0.177	-0.007
-471.230	-84.400	0.202	-0.063
-470.216	-200.000	0.005	0.318
-469.201	-200.000	-0.011	0.049
-468.186	-55.612	0.106	-0.047
-467.172	303.835	0.129	-0.236
-466.157	779.014	-0.066	0.180
-465.143	-146.351	-0.323	-0.028
-464.128	78.657	0.020	-0.022
-463.113	-36.573	-0.245	-0.131
-462.099	53.225	0.199	0.189
-461.084	800.000	0.053	-0.210
-460.070	-9.114	-0.045	-0.030
-459.055	-40.163	0.195	-0.100
-458.040	102.053	-0.112	-0.129
-457.026	-64.600	0.200	0.080
-456.011	-45.396	-0.245	-0.120
-454.997	-154.231	-0.094	0.006
-453.982	50.749	0.206	-0.194
-452.968	-136.855	-0.306	-0.035
-451.953	-130.986	0.209	-0.028
-450.938	-79.802	0.410	0.137
-449.924	-25.809	0.570	-0.332
-448.909	-200.000	0.023	0.239
-447.895	-200.000	0.051	0.343
-446.880	800.000	-0.102	0.311
-445.865	201.154	-0.052	0.079
-444.851	273.446	-0.048	-0.083
-443.836	-93.783	0.111	-0.030
-442.822	-92.427	0.097	-0.027
-441.807	259.913	0.160	-0.274
-440.792	4.285	0.118	0.086
-439.778	-35.864	-0.253	-0.135
-438.763	-106.887	-0.257	-0.056
-437.749	18.884	0.106	0.084
-436.734	-63.058	-0.136	0.056
-435.719	180.526	0.123	-0.179
-434.705	-81.153	-0.149	-0.049
-433.690	-200.000	-0.021	-0.172
-432.676	-23.117	0.063	-0.038
-431.661	800.000	0.062	-0.196
-430.646	449.942	-0.076	0.166
-429.632	56.520	0.007	-0.007
-428.617	18.892	-0.347	-0.275
-427.603	184.580	0.157	0.230
-426.588	800.000	0.106	-0.368
-425.573	-12.396	-0.336	-0.217
-424.559	-100.630	0.264	-0.064
-423.544	-131.139	0.159	-0.021
-422.530	128.224	-0.139	0.175
-421.515	57.721	0.342	-0.331
-420.500	98.977	0.165	-0.188
-419.486	-119.671	0.135	-0.023
-418.471	-149.594	-0.176	0.014
-417.457	-118.808	0.175	0.030
-416.442	249.782	-0.023	-0.039
-415.428	184.057	0.142	0.208
-414.413	-115.945	-0.214	0.039
-413.398	264.629	-0.109	0.187
-412.384	122.495	0.098	-0.121
-411.369	-27.130	0.179	-0.103
-410.355	-200.000	-0.014	0.306
-409.340	-67.578	-0.188	0.073
-408.325	-122.711	0.120	-0.019
-407.311	-69.928	0.165	-0.062
-406.296	224.293	-0.158	-0.252
-405.282	59.971	-0.057	0.056
-404.267	-104.464	-0.262	0.060
-403.252	-44.588	0.047	-0.023
-402.238	-112.251	-0.181	-0.036
-401.223	43.476	0.118	-0.106
-400.209	-141.782	-0.203	0.020
-399.194	40.587	-0.148	-0.132
-398.179	234.185	0.137	-0.222
-397.165	-200.000	-0.072	-0.349
-396.150	42.552	0.082	0.074
-395.136	-113.591	0.180	-0.035
-394.121	-200.000	-0.061	-0.267
-393.106	241.342	-0.162	0.267
-392.092	-132.029	0.420	0.054
-391.077	-9.162	-0.125	0.082
-390.063	-54.700	0.334	0.149
-389.048	-99.823	0.265	0.065
-388.033	800.000	0.053	-0.157
-387.019	-149.184	0.190	0.015
-386.004	119.859	0.091	-0.112
-384.990	-7.500	-0.134	-0.090
-383.975	562.182	-0.094	-0.226
-382.960	-200.000	-0.021	-0.092
-381.946	-200.000	-0.016	-0.275
-380.931	-80.009	0.050	-0.017
-379.917	-200.000	0.064	0.285
-378.902	81.561	0.138	0.148
-377.888	-108.257	-0.157	0.034
-376.873	-200.000	-0.028	-0.121
-375.858	800.000	0.070	0.206
-374.844	54.533	0.106	-0.101
-373.829	-45.802	-0.153	-0.075
-372.815	-47.670	0.315	0.151
-371.800	-96.016	-0.131	-0.034
-370.785	-3.830	-0.205	-0.140
-369.771	800.000	-0.006	0.025
-368.756	55.657	0.100	0.096
-367.742	75.442	0.182	-0.190
-366.727	-31.703	-0.172	-0.095
-365.712	800.000	0.074	0.231
-364.698	566.078	0.129	-0.309
-363.683	-200.000	-0.027	-0.128
-362.669	27.108	-0.036	0.030
-361.654	301.913	0.063	0.115
-360.639	70.040	-0.276	0.281
-359.625	126.493	-0.182	0.227
-358.610	-200.000	0.008	-0.179
-357.596	-31.065	-0.227	-0.127
-356.581	-115.720	-0.055	0.010
-355.566	800.000	0.044	-0.140
-354.552	536.310	0.096	-0.225
-353.537	800.000	-0.077	0.280
-352.523	800.000	-0.048	-0.142
-351.508	-140.062	0.161	-0.017
-350.493	-6.949	-0.177	0.118
-349.479	800.000	0.074	-0.293
-348.464	800.000	0.050	-0.200
-347.450	-200.000	0.044	-0.216
-346.435	-81.759	-0.363	0.117
-345.420	28.470	0.153	0.128
-344.406	-60.476	0.141	-0.059
-343.391	250.562	0.174	0.292
-342.377	800.000	-0.050	-0.137
-341.362	510.156	-0.109	-0.250
-340.348	800.000	0.057	-0.216
-339.333	336.032	-0.122	0.233
-338.318	-200.000	0.020	-0.399
-337.304	66.328	-0.225	0.226
-336.289	20.686	0.138	0.110
-335.275	358.192	0.122	0.241
-334.260	-200.000	0.089	-0.464
-333.245	-11.461	-0.117	-0.076
-332.231	-111.931	-0.093	-0.019
-331.216	-117.816	0.291	0.052
-330.202	-91.883	0.164	0.046
-329.187	279.229	-0.100	0.175
-328.172	-106.965	-0.207	-0.045
-327.158	399.192	0.196	-0.405
-326.143	54.757	-0.208	-0.198
-325.129	800.000	-0.037	-0.123
-324.114	-113.937	0.014	-0.003
-323.099	-115.080	-0.082	0.015
-322.085	-46.820	-0.344	0.166
-321.070	-0.639	0.130	-0.091
-320.056	800.000	0.059	-0.188
-319.041	-177.466	0.157	-0.004
-318.026	-200.000	0.042	0.365
-317.012	-2.856	-0.322	-0.222
-315.997	762.813	0.083	-0.221
-314.983	-33.084	0.242	0.132
-313.968	229.169	0.141	-0.227
-312.953	-75.324	-0.202	-0.071
-311.939	800.000	0.027	-0.077
-310.924	150.254	0.087	0.117
-309.910	-200.000	-0.001	0.132
-308.895	397.135	0.055	0.114
-307.880	800.000	-0.049	-0.148
-306.866	-82.551	0.187	-0.060
-305.851	-61.380	-0.142	0.059
-304.837	-36.531	0.301	-0.159
-303.822	-54.844	0.157	-0.070
-302.807	-200.000	-0.031	0.308
-301.793	-48.185	0.164	-0.078
-300.778	-135.430	-0.238	0.028
-299.764	-106.723	0.328	0.072
-298.749	247.416	-0.175	-0.291
-297.735	190.214	-0.217	-0.320
-296.720	-200.000	-0.020	0.262
-295.705	204.738	-0.271	-0.414
-294.691	62.369	0.094	0.092
-293.676	-84.984	-0.078	0.024
-292.662	-200.000	0.022	0.160
-291.647	-200.000	-0.301	-0.000
-290.632	-13.802	0.121	-0.077
-289.618	88.635	0.118	0.129
-288.603	279.284	-0.224	0.393
-287.589	-5.277	-0.310	-0.210
-286.574	-200.000	0.025	0.120
-285.559	-143.978	-0.077	-0.007
-284.545	-21.487	0.149	-0.089
-283.530	-200.000	-0.024	0.276
-282.516	-179.019	-0.171	-0.004
-281.501	610.597	-0.115	-0.283
-280.486	-200.000	-0.066	-0.340
-279.472	-97.742	0.056	-0.014
-278.457	800.000	0.061	-0.242
-277.443	9.602	0.237	-0.177
-276.428	800.000	0.116	-0.332
-275.413	64.054	0.147	-0.146
-274.399	-116.308	-0.278	-0.051
-273.384	10.031	0.061	0.046
-272.370	47.878	-0.073	-0.067
-271.355	50.850	0.105	0.098
-270.340	800.000	0.032	-0.119
-269.326	-74.156	-0.065	-0.023
-268.311	800.000	-0.050	0.175
-267.297	-113.275	-0.141	0.027
-266.282	-46.683	0.206	0.099
-265.267	-200.000	0.019	0.176
-264.253	-31.623	-0.272	-0.150
-263.238	218.603	0.259	0.406
-262.224	800.000	0.015	0.049
-261.209	-77.372	-0.162	-0.055
-260.195	107.935	0.037	-0.044
-259.180	-121.509	-0.135	-0.022
-258.165	-145.713	-0.146	-0.013
-257.151	202.380	0.034	-0.051
-256.136	-183.318	0.375	0.006
-255.122	-62.845	0.094	-0.038
-254.107	-200.000	-0.014	-0.115
-253.092	-200.000	-0.012	0.197
-252.078	-200.000	0.049	0.239
-251.063	-50.897	0.073	-0.034
-250.049	800.000	-0.183	0.552
-249.034	437.962	0.084	0.180
-248.019	164.447	-0.150	-0.208
-247.005	60.376	0.121	0.117
-245.990	-200.000	0.010	0.253
-244.976	-200.000	0.007	-0.197
-243.961	72.124	0.370	0.378
-242.946	-51.247	-0.451	-0.208
-241.932	-200.000	-0.017	-0.231
-240.917	-200.000	-0.037	-0.255
-239.903	37.539	0.093	-0.081
-238.888	-63.732	-0.198	0.080
-237.873	-153.221	0.098	0.007
-236.859	-131.109	0.202	0.026
-235.844	-67.479	0.299	0.115
-234.830	-25.957	-0.229	-0.132
-233.815	-70.290	-0.083	0.031
-232.800	-67.083	-0.462	0.179
-231.786	-200.000	-0.032	0.167
-230.771	157.387	0.140	-0.190
-229.757	-14.107	0.070	-0.045
-228.742	-11.159	-0.157	0.102
-227.727	19.061	0.235	0.185
-226.713	800.000	-0.075	-0.253
-225.698	29.872	-0.160	0.134
-224.684	-135.242	-0.218	-0.026
-223.669	44.524	-0.187	-0.169
-222.655	60.149	0.084	-0.081
-221.640	-58.293	0.345	0.147
-220.625	-156.733	-0.188	-0.011
-219.611	-22.556	-0.232	0.138
-218.596	800.000	-0.024	0.080
-217.582	-17.987	-0.206	0.126
-216.567	629.007	0.048	-0.120
-215.552	11.756	0.088	-0.066
-214.538	-111.816	-0.182	0.036
-213.523	226.548	0.131	-0.209
-212.509	251.396	-0.174	-0.290
-211.494	800.000	-0.069	-0.249
-210.479	-27.168	0.333	0.190
-209.465	44.340	-0.204	0.184
-208.450	-12.591	-0.357	0.228
-207.436	-91.127	0.066	0.018
-206.421	444.480	-0.111	0.239
-205.406	-121.115	0.194	-0.032
-204.392	-129.417	-0.049	-0.007
-203.377	-200.000	-0.006	0.292
-202.363	-103.863	0.050	-0.011
-201.348	-47.777	-0.079	-0.038
-200.333	-100.228	0.079	0.019
-199.319	441.562	0.125	0.268
-198.304	283.335	0.074	0.130
-197.290	144.985	0.107	-0.141
-196.275	-200.000	-0.007	-0.184
-195.260	779.261	0.154	-0.412
-194.246	-200.000	-0.054	0.378
-193.231	8.298	0.267	-0.197
-192.217	536.074	0.042	0.098
-191.202	114.031	-0.088	0.105
-190.187	69.978	-0.249	-0.252
-189.173	-21.576	0.078	-0.047
-188.158	-200.000	0.032	0.153
-187.144	207.907	0.096	0.147
-186.129	-200.000	-0.032	0.254
-185.114	-200.000	0.056	0.423
-184.100	-167.888	-0.162	-0.006
-183.085	198.602	-0.219	0.328
-182.071	291.816	-0.063	0.112
-181.056	82.825	0.135	-0.144
-180.042	-10.392	0.407	-0.264
-179.027	-135.224	0.213	-0.025
-178.012	-117.195	0.260	-0.046
-176.998	729.620	0.077	0.200
-175.983	-121.660	-0.182	0.030
-174.969	793.290	-0.031	-0.083
-173.954	-11.249	-0.287	0.185
-172.939	59.587	-0.069	-0.067
-171.925	-144.044	0.074	-0.007
-170.910	-64.713	0.212	-0.084
-169.896	-123.714	0.147	0.023
-168.881	121.030	-0.078	-0.095
-167.866	44.702	0.131	0.118
-166.852	-149.430	-0.407	0.032
-165.837	245.818	-0.078	0.128
-164.823	-83.167	0.222	0.070
-163.808	-64.551	0.235	-0.093
-162.793	800.000	0.037	0.111
-161.779	725.610	-0.028	0.074
-160.764	6.410	0.278	0.202
-159.750	-200.000	0.156	0.000
-158.735	287.514	-0.060	-0.107
-157.720	800.000	-0.040	0.111
-156.706	173.751	-0.111	-0.157
-155.691	-200.000	-0.080	-0.417
-154.677	-50.253	-0.073	0.034
-153.662	121.608	-0.160	-0.195
-152.647	800.000	-0.078	-0.252
-151.633	800.000	-0.196	0.578
-150.618	-34.420	0.121	-0.065
-149.604	800.000	0.064	-0.210
-148.589	69.105	0.358	-0.361
-147.574	-81.028	0.040	0.013
-146.560	243.128	0.045	-0.075
-145.545	167.509	0.094	0.131
-144.531	16.667	-0.111	0.086
-143.516	310.856	-0.107	0.196
-142.502	-200.000	-0.018	-0.380
-141.487	-139.505	0.421	-0.044
-140.472	-200.000	-0.041	0.511
-139.458	800.000	-0.108	0.299
-138.443	-200.000	-0.086	0.458
-137.429	800.000	-0.054	0.185
-136.414	-200.000	-0.032	-0.162
-135.399	-200.000	-0.015	-0.386
-134.385	-160.019	-0.068	-0.004
-133.370	63.147	-0.198	0.194
-132.356	456.331	0.062	-0.135
-131.341	-49.998	0.073	0.034
-130.326	-200.000	-0.001	0.140
-129.312	-200.000	-0.007	0.264
-128.297	-25.928	0.175	0.101
-127.283	-200.000	0.009	-0.088
-126.268	59.806	0.280	-0.270
-125.253	-104.637	0.162	0.036
-124.239	290.625	0.114	0.202
-123.224	22.810	0.148	-0.119
-122.210	175.235	0.166	-0.235
-121.195	95.545	-0.148	-0.165
-120.180	-103.967	0.205	0.047
-119.166	418.196	-0.094	-0.197
-118.151	419.469	-0.064	-0.134
-117.137	93.193	0.264	-0.292
-116.122	800.000	-0.036	0.112
-115.107	-4.375	-0.335	0.227
-114.093	706.620	0.058	-0.149
-113.078	-200.000	0.009	0.130
-112.064	42.416	0.210	0.187
-111.049	698.584	0.126	-0.323
-110.034	256.494	-0.055	-0.093
-109.020	-158.424	-0.168	0.010
-108.005	-200.000	0.008	0.077
-106.991	218.785	0.045	0.070
-105.976	-118.214	0.147	-0.026
-104.962	23.934	-0.172	0.138
-103.947	-94.923	0.277	0.073
-102.932	-35.552	-0.181	-0.096
-101.918	800.000	-0.015	-0.063
-100.903	-122.405	0.188	0.030
-99.889	-36.069	-0.347	-0.183
-98.874	-200.000	0.003	0.117
-97.859	-41.237	-0.114	0.057
-96.845	93.124	0.049	-0.054
-95.830	-40.632	-0.146	-0.074
-94.816	61.673	-0.038	-0.037
-93.801	328.142	-0.122	0.229
-92.786	-30.772	0.188	0.104
-91.772	-200.000	-0.002	-0.127
-90.757	-200.000	0.015	0.120
-89.743	-200.000	-0.012	0.196
-88.728	-145.237	0.072	-0.006
-87.713	-200.000	0.001	0.167
-86.699	93.008	-0.161	0.178
-85.684	-200.000	-0.014	0.158
-84.670	53.478	0.037	-0.034
-83.655	-135.557	0.390	-0.045
-82.640	51.941	-0.259	-0.240
-81.626	800.000	-0.102	-0.310
-80.611	24.550	-0.007	-0.006
-79.597	134.784	-0.129	-0.163
-78.582	800.000	-0.061	0.183
-77.567	-147.927	0.267	-0.022
-76.553	800.000	-0.023	-0.087
-75.538	-18.394	-0.180	-0.110
-74.524	-55.075	0.056	-0.025
-73.509	61.874	0.100	0.098
-72.494	357.666	0.076	0.148
-71.480	-146.006	0.221	-0.019
-70.465	357.436	-0.078	0.151
-69.451	-70.066	-0.245	0.091
-68.436	-190.774	0.128	-0.001
-67.422	-76.735	0.362	0.124
-66.407	-18.243	-0.108	0.066
-65.392	-125.558	0.270	-0.040
-64.378	-200.000	0.056	0.379
-63.363	-46.103	0.327	0.157
-62.349	-1.705	0.262	-0.180
-61.334	78.141	-1.338	-1.392
-60.319	32.577	0.856	0.722
-59.305	-200.000	-0.046	-1.191
-58.290	199.099	0.987	1.475
-57.276	157.307	0.910	1.228
-56.261	-200.000	136.580	647.022
-55.246	335.564	1662.286	3142.381
-54.232	134.985	2793.097	3536.971
-53.217	84.683	2167.778	2313.746
-52.203	30.965	1601.325	1337.773
-51.188	23.157	1352.431	1082.250
-50.173	21.194	1317.108	1042.237
-49.159	48.299	1390.998	1268.797
-48.144	44.119	1400.379	1251.586
-47.130	23.471	1347.531	1080.072
-46.115	20.348	1329.381	1046.685
-45.100	20.157	1323.493	1040.863
-44.086	20.219	1321.090	1039.299
-43.071	20.160	1318.721	1037.041
-42.057	20.097	1316.921	1035.212
-41.042	20.130	1315.555	1034.293
-40.027	20.084	1314.377	1033.053
-39.013	20.210	1312.036	1031.917
-37.998	20.149	1310.314	1030.164
-36.984	20.231	1308.547	1029.222
-35.969	20.263	1306.831	1028.017
-34.954	20.231	1305.236	1026.535
-33.940	20.213	1304.744	1025.996
-32.925	20.330	1302.288	1024.719
-31.911	20.299	1300.883	1023.389
-30.896	20.331	1299.803	1022.686
-29.881	20.444	1298.315	1022.140
-28.867	20.389	1297.004	1020.747
-27.852	20.301	1295.979	1019.381
-26.838	20.333	1294.124	1018.070
-25.823	20.440	1292.712	1017.547
-24.809	20.248	1291.989	1015.813
-23.794	20.386	1290.212	1015.179
-22.779	20.371	1288.966	1014.073
-21.765	20.303	1287.693	1012.632
-20.750	20.239	1286.704	1011.442
-19.736	20.322	1285.086	1010.615
-18.721	20.184	1284.327	1009.175
-17.706	20.286	1282.804	1008.530
-16.692	20.192	1282.210	1007.475
-15.677	20.166	1280.553	1005.986
-14.663	20.148	1279.331	1004.881
-13.648	20.137	1278.546	1004.161
-12.633	20.311	1277.334	1004.173
-11.619	20.183	1276.760	1002.944
-10.604	20.227	1275.638	1002.277
-9.590	20.282	1274.571	1001.714
-8.575	20.154	1273.852	1000.374
-7.560	20.050	1273.494	999.454
-6.546	20.236	1272.078	999.370
-5.531	20.131	1271.561	998.324
-4.517	20.182	1270.539	997.773
-3.502	20.180	1269.450	996.867
-2.487	20.157	1268.970	996.320
-1.473	20.197	1264.609	993.082
-0.458	18.476	1248.523	970.674
0.556	13.952	1233.022	932.404
1.571	10.293	1240.938	917.601
2.586	9.533	1256.799	924.884
3.600	9.580	1244.203	915.801
4.615	7.291	1172.724	850.835
5.629	2.847	1103.883	778.328
6.644	0.816	1088.594	757.315
7.659	0.569	1086.795	754.764
8.673	0.541	1086.212	754.154
9.688	0.624	1084.748	753.484
10.702	0.811	1081.861	752.341
11.717	3.627	1084.176	767.906
12.731	9.556	1093.128	803.842
13.746	15.242	1100.072	837.358
14.761	17.342	1102.132	849.354
15.775	16.491	1100.939	844.114
16.790	15.569	1099.028	837.974
17.804	15.010	1096.942	833.526
18.819	14.710	1096.341	831.503
19.834	14.426	1095.463	829.351
20.848	14.157	1094.501	827.211
21.863	13.968	1093.270	825.269
22.877	13.868	1092.778	824.324
23.892	13.759	1091.853	823.014
24.907	13.704	1091.614	822.487
25.921	13.711	1091.120	822.081
26.936	13.827	1089.515	821.371
27.950	13.855	1088.515	820.682
28.965	13.964	1087.523	820.402
29.980	13.802	1086.359	818.650
30.994	13.969	1084.828	818.249
32.009	14.050	1083.835	817.824
33.023	14.015	1083.328	817.199
34.038	13.867	1082.262	815.594
35.053	13.929	1081.076	814.931
36.067	13.879	1080.116	813.893
37.082	13.889	1079.707	813.558
38.096	14.057	1078.452	813.366
39.111	13.880	1077.976	812.067
40.126	13.930	1076.601	811.206
41.140	13.736	1075.583	809.419
42.155	13.753	1074.309	808.473
43.169	13.824	1072.694	807.531
44.184	13.710	1072.445	806.717
45.199	13.828	1071.285	806.346
46.213	13.748	1070.140	805.024
47.228	13.921	1068.248	804.367
48.242	13.874	1067.342	803.386
49.257	13.698	1067.372	802.487
50.271	13.829	1066.252	802.206
51.286	13.830	1065.281	801.409
52.301	13.973	1063.828	800.938
53.315	13.809	1063.322	799.696
54.330	13.826	1061.979	798.693
55.344	13.851	1061.331	798.260
56.359	13.828	1060.067	797.127
57.374	13.739	1059.173	795.955
58.388	13.809	1058.206	795.495
59.403	13.683	1057.982	794.651
60.417	13.769	1056.965	794.230
61.432	13.674	1056.157	793.097
62.447	13.709	1055.175	792.458
63.461	13.596	1054.320	791.205
64.476	13.789	1053.475	791.421
65.490	13.681	1052.545	790.138
66.505	13.679	1052.067	789.701
67.520	13.704	1051.394	789.244
68.534	13.767	1050.262	788.624
69.549	13.830	1049.270	788.109
70.563	13.754	1048.593	787.169
71.578	13.660	1048.019	786.223
72.593	13.690	1047.242	785.714
73.607	13.713	1046.674	785.329
74.622	13.580	1045.908	784.053
75.636	13.658	1045.120	783.761
76.651	13.629	1044.434	783.041
77.666	13.662	1043.356	782.321
78.680	13.666	1043.134	782.104
79.695	13.788	1042.164	781.883
80.709	13.676	1041.855	781.054
81.724	13.793	1040.997	780.890
82.739	13.775	1040.458	780.335
83.753	13.848	1039.696	780.033
84.768	13.884	1038.201	779.013
85.782	13.869	1037.624	778.442
86.797	13.815	1036.704	777.428
87.812	13.747	1036.286	776.729
88.826	13.857	1034.240	775.641
89.841	13.797	1033.748	774.921
90.855	13.816	1033.089	774.449
91.870	13.792	1032.190	773.595
92.884	13.977	1031.002	773.496
93.899	13.957	1030.002	772.584
94.914	13.947	1029.183	771.855
95.928	13.985	1028.598	771.526
96.943	13.961	1027.425	770.468
97.957	13.832	1027.153	769.597
98.972	14.035	1026.047	769.640
99.987	14.067	1024.887	768.848
101.001	13.918	1024.074	767.482
102.016	13.880	1023.598	766.884
103.030	14.013	1021.990	766.225
104.045	14.015	1021.741	765.977
105.060	13.972	1021.187	765.296
106.074	13.906	1019.846	763.922
107.089	13.928	1018.661	763.065
108.103	13.796	1018.337	762.150
109.118	13.816	1017.506	761.554
110.133	13.855	1016.017	760.549
111.147	13.816	1015.549	759.954
112.162	13.848	1014.893	759.542
113.176	13.757	1014.006	758.392
114.191	13.740	1013.053	757.535
115.206	13.984	1011.789	757.637
116.220	13.818	1011.540	756.628
117.235	13.912	1010.112	755.922
118.249	13.887	1009.459	755.249
119.264	13.858	1008.836	754.585
120.279	13.808	1008.181	753.801
121.293	13.756	1007.413	752.924
122.308	13.828	1006.331	752.376
123.322	13.930	1005.584	752.213
124.337	13.845	1004.440	750.909
125.352	13.841	1003.413	750.057
126.366	13.862	1001.632	748.750
127.381	13.851	1000.919	748.100
128.395	13.800	1000.302	747.346
129.410	13.861	998.887	746.498
130.424	13.736	998.474	745.561
131.439	13.832	997.610	745.279
132.454	13.919	996.637	744.879
133.468	13.751	996.335	743.830
134.483	13.845	994.994	743.185
135.497	13.827	994.414	742.608
136.512	13.956	993.106	742.142
137.527	13.916	992.635	741.545
138.541	13.945	991.733	740.934
139.556	13.917	991.386	740.486
140.570	13.929	990.508	739.819
141.585	14.068	989.119	739.331
142.600	14.064	988.473	738.768
143.614	14.113	987.921	738.507
144.629	14.060	987.330	737.765
145.643	14.090	986.163	736.960
146.658	14.118	984.776	735.983
147.673	14.059	984.164	735.200
148.687	14.132	983.198	734.733
149.702	14.047	982.375	733.681
150.716	13.960	981.560	732.622
151.731	13.964	980.933	732.107
152.746	14.037	980.136	731.770
153.760	14.070	979.530	731.395
154.775	14.063	979.191	731.049
155.789	14.218	977.811	730.632
156.804	14.105	977.300	729.692
157.819	14.227	976.653	729.680
158.833	14.200	976.058	729.050
159.848	14.406	975.303	729.324
160.862	14.316	973.943	727.849
161.877	14.156	973.392	726.672
162.892	14.200	972.358	726.031
163.906	14.087	971.626	724.928
164.921	14.125	970.643	724.295
165.935	14.208	969.696	723.885
166.950	14.131	969.237	723.145
167.964	14.230	968.002	722.589
168.979	14.299	966.753	721.893
169.994	14.261	966.038	721.130
171.008	14.329	965.700	721.108
172.023	14.271	964.765	720.094
173.037	14.278	964.338	719.740
174.052	14.431	963.050	719.378
175.067	14.381	962.432	718.637
176.081	14.240	962.375	717.924
177.096	14.291	961.710	717.581
178.110	14.269	961.040	716.923
179.125	14.393	960.310	716.851
180.140	14.341	960.406	716.634
181.154	14.371	959.577	716.083
182.169	14.427	958.607	715.535
183.183	14.471	958.074	715.263
184.198	14.456	957.226	714.499
185.213	14.565	956.489	714.357
186.227	14.429	956.193	713.490
187.242	14.564	955.064	713.160
188.256	14.558	954.615	712.738
189.271	14.534	953.850	712.000
190.286	14.480	952.933	711.022
191.300	14.377	952.694	710.343
192.315	14.285	951.876	709.276
193.329	14.301	951.586	709.067
194.344	14.361	950.892	708.740
195.359	14.484	949.951	708.499
196.373	14.600	949.003	708.221
197.388	14.597	948.857	708.038
198.402	14.661	948.072	707.661
199.417	14.839	947.161	707.672
200.432	14.636	946.831	706.503
201.446	14.703	946.120	706.192
202.461	14.719	945.699	705.885
203.475	14.797	945.497	706.003
204.490	14.703	944.331	704.673
205.504	14.791	943.318	704.222
206.519	14.829	942.425	703.654
207.534	14.740	942.058	702.944
208.548	14.634	941.463	701.993
209.563	14.701	941.144	701.976
210.577	14.869	939.803	701.618
211.592	14.869	939.250	701.143
212.607	14.867	938.538	700.539
213.621	14.929	937.692	700.104
214.636	14.915	937.002	699.471
215.650	14.831	936.404	698.609
216.665	14.894	935.603	698.214
217.680	14.976	934.908	697.977
218.694	14.859	934.578	697.182
219.709	14.955	933.774	696.920
220.723	14.947	933.023	696.262
221.738	14.928	932.197	695.507
222.753	14.982	931.551	695.187
223.767	15.018	931.377	695.144
224.782	15.114	930.852	695.090
225.796	15.136	930.150	694.598
226.811	14.950	929.748	693.464
227.826	15.081	928.629	693.110
228.840	15.166	927.655	692.675
229.855	15.128	926.817	691.830
230.869	15.107	926.419	691.383
231.884	15.077	925.682	690.648
232.899	15.089	925.169	690.253
233.913	15.103	924.078	689.438
234.928	15.046	923.410	688.643
235.942	15.118	922.612	688.284
236.957	15.122	921.981	687.770
237.972	15.216	921.189	687.503
238.986	15.132	920.934	686.907
240.001	15.075	920.295	686.134
241.015	15.187	919.590	686.008
242.030	15.213	919.182	685.748
243.045	15.280	918.271	685.281
244.059	15.363	917.909	685.289
245.074	15.218	917.269	684.161
246.088	15.172	916.653	683.452
247.103	15.274	915.971	683.300
248.117	15.297	915.191	682.751
249.132	15.329	914.863	682.575
250.147	15.486	913.607	682.218
251.161	15.466	913.390	681.913
252.176	15.555	912.766	681.748
253.190	15.490	912.148	680.965
254.205	15.458	911.568	680.339
255.220	15.574	910.900	680.252
256.234	15.555	910.225	679.609
257.249	15.590	909.604	679.228
258.263	15.522	908.622	678.159
259.278	15.619	907.892	677.946
260.293	15.517	907.652	677.296
261.307	15.706	906.901	677.436
262.322	15.665	906.396	676.832
263.336	15.678	905.522	676.175
264.351	15.879	904.622	676.250
265.366	15.796	903.780	675.229
266.380	15.763	903.296	674.674
267.395	15.709	902.658	673.920
268.409	15.783	901.873	673.570
269.424	15.799	901.099	672.998
270.439	15.781	900.665	672.543
271.453	15.760	899.808	671.759
272.468	15.855	899.049	671.510
273.482	15.794	898.708	670.955
274.497	15.800	898.613	670.848
275.512	15.877	897.667	670.388
276.526	15.775	896.936	669.378
277.541	15.983	896.233	669.620
278.555	16.004	895.930	669.417
279.570	15.990	895.311	668.840
280.585	16.027	893.983	667.936
281.599	16.008	893.527	667.460
282.614	15.977	892.942	666.843
283.628	16.003	892.364	666.456
284.643	15.975	891.978	665.996
285.657	15.951	891.365	665.386
286.672	16.061	890.333	664.989
287.687	16.068	889.755	664.527
288.701	16.132	889.138	664.260
289.716	16.153	888.571	663.861
290.730	16.114	888.018	663.236
291.745	16.254	886.969	662.941
292.760	16.145	886.703	662.257
293.774	16.186	886.106	661.913
294.789	16.197	885.240	661.250
295.803	16.214	884.487	660.696
296.818	16.227	883.906	660.257
297.833	16.223	883.178	659.636
298.847	16.223	882.517	659.087
299.862	16.197	882.340	658.792
300.876	16.370	881.449	658.746
301.891	16.230	880.833	657.679
302.906	16.334	880.442	657.734
303.920	16.365	879.771	657.295
304.935	16.427	879.150	657.016
305.949	16.395	878.534	656.373
306.964	16.385	877.977	655.861
307.979	16.340	877.785	655.482
308.993	16.427	877.060	655.223
310.008	16.490	875.927	654.563
311.022	16.505	875.602	654.319
312.037	16.430	874.859	653.417
313.052	16.438	874.644	653.229
314.066	16.482	873.966	652.834
315.081	16.407	873.296	651.985
316.095	16.423	872.698	651.543
317.110	16.521	871.835	651.219
318.125	16.368	871.663	650.442
319.139	16.393	871.265	650.187
320.154	16.544	870.637	650.239
321.168	16.514	869.877	649.501
322.183	16.459	869.354	648.839
323.197	16.577	868.998	648.968
324.212	16.494	868.189	647.991
325.227	16.544	867.497	647.609
326.241	16.532	867.089	647.201
327.256	16.464	866.476	646.426
328.270	16.615	865.321	646.082
329.285	16.707	865.042	646.169
330.300	16.472	864.869	645.087
331.314	16.511	864.549	644.940
332.329	16.711	863.606	644.940
333.343	16.576	863.344	644.174
334.358	16.743	862.654	644.237
335.373	16.768	862.200	643.936
336.387	16.636	862.362	643.499
337.402	16.695	862.182	643.531
338.416	16.740	861.453	643.098
339.431	16.884	860.942	643.206
340.446	16.779	860.595	642.494
341.460	16.918	859.824	642.388
342.475	16.972	859.697	642.441
343.489	16.944	859.465	642.106
344.504	17.085	858.655	641.976
345.519	16.948	858.204	641.065
346.533	16.951	857.752	640.682
347.548	16.985	857.200	640.340
348.562	16.887	856.679	639.525
349.577	16.928	856.111	639.200
350.592	17.078	854.875	638.783
351.606	16.986	854.485	638.091
352.621	17.057	853.609	637.648
353.635	16.970	853.456	637.148
354.650	16.975	852.811	636.631
355.665	17.073	852.051	636.372
356.679	17.086	851.505	635.957
357.694	17.225	850.644	635.777
358.708	17.089	850.359	635.003
359.723	17.110	849.842	634.636
360.738	17.242	848.945	634.404
361.752	17.134	848.285	633.451
362.767	17.183	848.061	633.412
363.781	17.226	847.136	632.826
364.796	17.309	846.836	632.853
365.810	17.427	846.209	632.767
366.825	17.365	845.983	632.313
367.840	17.425	845.522	632.135
368.854	17.337	845.188	631.503
369.869	17.319	844.785	631.078
370.883	17.263	844.566	630.650
371.898	17.354	843.962	630.481
372.913	17.425	843.520	630.358
373.927	17.292	843.178	629.555
374.942	17.575	842.476	630.022
375.956	17.568	842.007	629.590
376.971	17.530	841.928	629.335
377.986	17.665	840.621	628.800
379.000	17.696	840.680	628.902
380.015	17.724	840.069	628.494
381.029	17.665	839.254	627.609
382.044	17.629	838.687	626.997
383.059	17.689	838.289	626.868
384.073	17.606	837.902	626.217
385.088	17.571	837.179	625.490
386.102	17.660	836.660	625.373
387.117	17.518	835.909	624.239
388.132	17.545	835.458	623.945
389.146	17.606	834.948	623.733
390.161	17.628	834.684	623.561
391.175	17.792	834.189	623.736
392.190	17.762	833.805	623.282
393.205	17.755	832.765	622.427
394.219	17.883	832.431	622.587
395.234	17.951	831.740	622.264
396.248	17.754	831.410	621.244
397.263	17.657	831.454	620.867
398.278	17.702	831.143	620.745
399.292	17.687	830.529	620.175
400.307	17.728	830.154	619.990
401.321	17.716	829.729	619.575
402.336	17.813	828.898	619.253
403.350	17.799	828.774	619.053
404.365	17.906	827.860	618.705
405.380	17.838	827.454	618.100
406.394	17.961	827.206	618.305
407.409	17.992	826.580	617.894
408.423	17.974	826.531	617.739
409.438	17.972	826.250	617.465
410.453	18.092	825.703	617.437
411.467	18.060	825.154	616.855
412.482	18.007	824.258	615.939
413.496	18.034	824.326	616.034
414.511	18.157	824.145	616.285
415.526	18.055	823.459	615.351
416.540	18.103	822.871	615.032
417.555	18.144	822.727	615.018
418.569	18.246	821.893	614.705
419.584	18.115	821.533	613.913
420.599	18.232	821.263	614.076
421.613	115.846	1301.743	1492.171
422.628	100.556	1371.689	1492.259
