DTS Sentinel unit serial number:	SN413079Multiplexer serial number:	ORYXHardware model number:	OX4-SRSoftware version number:	ORYX F/W v4.00 Oryx Data Collector v3.7.2.0data status	okinstallation	princeton_trtdifferential loss correction	single-endedforward channel	channel 1reverse channel	N/Adate	2019/09/16time	18:54:35forward acquisition time	60.00reverse acquisition time	0.00gamma	496.2192k internal	0.2310k external	0.2310temperature offset calibration	0.9943default loss term (dB/km)	0.3790temperature slope calibration	1.0000multiplexer offset coefficient	1.0000multiplexer slope coefficient	1.0000fibre end	0.00T internal ref (°C)	35.80T ext. ref 1 (°C)	0.07T ext. ref 2 (°C)	29.12length (m)	temperature (°C)	Stokes	anti-Stokes-747.200	180.017	0.163	0.242
-746.185	4.988	0.217	0.162
-745.171	-1.012	-0.202	-0.145
-744.156	-135.698	0.217	-0.026
-743.142	800.000	-0.176	-0.509
-742.127	-99.531	-0.377	-0.096
-741.112	-131.383	0.399	0.054
-740.098	-200.000	-0.028	0.494
-739.083	-149.094	0.223	0.018
-738.069	-85.208	-0.040	-0.013
-737.054	96.790	-0.105	0.122
-736.039	-120.823	-0.155	-0.027
-735.025	-142.571	-0.210	0.021
-734.010	-65.629	-0.229	-0.093
-732.996	-71.149	-0.325	-0.124
-731.981	-92.309	-0.342	-0.098
-730.966	800.000	0.037	-0.143
-729.952	-200.000	-0.070	-0.378
-728.937	137.913	-0.081	-0.108
-727.923	151.862	0.007	0.010
-726.908	800.000	0.041	-0.151
-725.894	-77.507	-0.125	-0.044
-724.879	52.113	-0.072	0.069
-723.864	-75.328	-0.479	-0.173
-722.850	800.000	0.124	-0.348
-721.835	-158.008	-0.082	-0.005
-720.821	165.464	-0.261	-0.375
-719.806	-200.000	0.015	-0.097
-718.791	-200.000	0.017	-0.217
-717.777	-37.041	-0.308	0.167
-716.762	-200.000	0.031	0.183
-715.748	77.740	0.158	0.171
-714.733	800.000	-0.076	-0.318
-713.718	800.000	0.081	-0.344
-712.704	-200.000	-0.083	-0.390
-711.689	-116.298	-0.405	0.076
-710.675	68.201	0.183	0.191
-709.660	-200.000	0.017	0.174
-708.645	-25.065	-0.364	-0.219
-707.631	-156.084	0.146	0.009
-706.616	-21.376	-0.094	-0.058
-705.602	-137.236	0.159	-0.018
-704.587	117.088	0.022	-0.028
-703.572	401.613	0.217	0.463
-702.558	283.101	0.131	-0.239
-701.543	-53.270	0.092	0.043
-700.529	-200.000	0.036	0.179
-699.514	-64.241	0.074	-0.031
-698.499	-53.534	-0.040	0.018
-697.485	-200.000	-0.070	0.349
-696.470	-67.898	-0.325	0.129
-695.456	608.352	0.049	-0.124
-694.441	108.294	0.088	-0.107
-693.426	-153.011	-0.503	0.036
-692.412	64.525	0.135	-0.138
-691.397	-200.000	0.007	0.087
-690.383	-20.639	0.284	-0.177
-689.368	105.262	-0.295	-0.353
-688.354	-139.551	0.176	0.019
-687.339	129.551	-0.087	-0.113
-686.324	-200.000	0.019	0.280
-685.310	-131.377	-0.390	-0.052
-684.295	497.630	-0.079	-0.183
-683.281	115.440	0.057	0.070
-682.266	51.436	0.036	0.035
-681.251	126.752	-0.052	0.066
-680.237	5.269	-0.271	0.203
-679.222	644.879	-0.106	-0.275
-678.208	-90.220	-0.101	0.030
-677.193	40.962	0.066	0.060
-676.178	191.092	0.105	0.159
-675.164	-113.113	0.234	-0.047
-674.149	206.503	-0.134	-0.211
-673.135	-9.722	-0.168	0.113
-672.120	-75.115	-0.074	-0.027
-671.105	326.709	-0.103	0.201
-670.091	800.000	-0.063	0.238
-669.076	-133.145	-0.208	-0.027
-668.062	633.684	-0.152	-0.390
-667.047	134.252	-0.190	-0.249
-666.032	36.165	-0.396	0.353
-665.018	-200.000	-0.030	0.426
-664.003	760.731	-0.053	-0.145
-662.989	621.073	0.135	-0.344
-661.974	-63.959	0.179	0.074
-660.959	484.990	-0.052	-0.121
-659.945	-94.555	-0.177	0.049
-658.930	494.607	-0.028	0.066
-657.916	25.122	0.199	-0.168
-656.901	463.142	-0.077	0.175
-655.886	800.000	-0.111	0.386
-654.872	442.343	-0.077	-0.170
-653.857	-43.955	0.378	-0.192
-652.843	222.424	-0.166	-0.271
-651.828	-116.781	-0.086	0.016
-650.814	-157.923	0.238	0.014
-649.799	-200.000	0.000	-0.212
-648.784	-47.504	0.380	0.187
-647.770	315.282	-0.175	-0.333
-646.755	-109.372	-0.324	-0.069
-645.741	-200.000	-0.065	-0.301
-644.726	40.424	-0.244	0.222
-643.711	-16.918	0.185	0.119
-642.697	-200.000	-0.007	-0.282
-641.682	-66.075	-0.336	0.135
-640.668	-200.000	-0.021	0.225
-639.653	237.982	-0.083	-0.139
-638.638	114.543	0.235	-0.290
-637.624	86.756	-0.152	-0.170
-636.609	-105.253	0.197	0.045
-635.595	563.327	0.019	-0.047
-634.580	-200.000	0.013	0.081
-633.565	-13.957	0.211	-0.138
-632.551	280.431	-0.096	0.173
-631.536	268.195	-0.053	-0.094
-630.522	-102.598	-0.261	-0.063
-629.507	5.503	-0.169	-0.127
-628.492	434.146	0.159	0.350
-627.478	800.000	-0.093	0.267
-626.463	-121.701	0.648	0.108
-625.449	-200.000	0.000	0.208
-624.434	-200.000	-0.054	0.285
-623.419	440.556	0.098	0.218
-622.405	-86.064	0.320	-0.100
-621.390	-3.404	-0.294	-0.207
-620.376	260.099	0.029	0.051
-619.361	-44.695	0.100	-0.050
-618.346	-200.000	0.020	-0.126
-617.332	16.529	-0.209	0.167
-616.317	46.056	-0.159	-0.149
-615.303	395.944	-0.196	-0.414
-614.288	800.000	0.060	-0.217
-613.273	-165.327	-0.183	0.008
-612.259	-141.711	-0.204	-0.021
-611.244	656.074	0.021	-0.054
-610.230	-200.000	0.032	0.339
-609.215	161.114	0.153	-0.216
-608.201	263.054	0.088	-0.154
-607.186	-200.000	-0.022	-0.212
-606.171	54.994	0.170	-0.166
-605.157	-104.028	-0.232	0.055
-604.142	-139.258	0.183	0.020
-603.128	800.000	-0.070	-0.240
-602.113	-9.090	-0.077	0.052
-601.098	100.215	0.144	-0.169
-600.084	-54.091	0.264	0.121
-599.069	-56.200	0.118	0.053
-598.055	-91.016	0.268	-0.078
-597.040	-103.509	-0.348	-0.083
-596.025	2.282	-0.263	0.192
-595.011	-66.120	-0.222	0.089
-593.996	629.718	-0.064	-0.164
-592.982	-200.000	0.014	0.258
-591.967	679.873	0.063	-0.167
-590.952	800.000	0.045	-0.126
-589.938	-200.000	0.001	0.211
-588.923	-44.856	0.327	0.165
-587.909	-152.538	-0.043	-0.003
-586.894	375.291	0.080	-0.165
-585.879	352.107	0.209	-0.419
-584.865	-200.000	0.073	-0.329
-583.850	-56.687	0.114	-0.051
-582.836	-200.000	-0.045	0.206
-581.821	-143.660	-0.089	-0.008
-580.806	-200.000	-0.001	-0.200
-579.792	154.358	-0.203	-0.281
-578.777	643.517	0.108	-0.277
-577.763	-200.000	-0.023	-0.310
-576.748	107.857	0.087	-0.105
-575.733	-200.000	-0.003	-0.266
-574.719	800.000	-0.057	0.180
-573.704	38.773	0.196	-0.177
-572.690	-84.701	0.314	-0.100
-571.675	-11.299	-0.036	0.024
-570.661	161.072	0.223	0.315
-569.646	156.398	-0.173	-0.241
-568.631	-149.250	-0.121	-0.010
-567.617	26.569	-0.174	-0.147
-566.602	-93.365	0.118	-0.033
-565.588	-53.028	-0.202	0.094
-564.573	-200.000	-0.018	0.093
-563.558	-56.774	-0.189	0.084
-562.544	-200.000	0.010	0.205
-561.529	800.000	0.048	0.182
-560.515	108.556	0.300	-0.362
-559.500	800.000	0.035	-0.114
-558.485	800.000	-0.065	-0.254
-557.471	-200.000	-0.035	-0.298
-556.456	-200.000	-0.037	-0.411
-555.442	79.150	-0.165	-0.178
-554.427	-89.451	0.092	-0.027
-553.412	219.512	-0.235	-0.379
-552.398	-31.879	-0.385	0.218
-551.383	-200.000	-0.015	0.140
-550.369	-200.000	-0.059	-0.590
-549.354	-52.165	-0.280	-0.131
-548.339	373.362	-0.050	-0.102
-547.325	67.889	0.040	-0.041
-546.310	-2.854	-0.181	0.128
-545.296	-200.000	0.007	0.176
-544.281	-200.000	0.091	0.449
-543.266	71.063	0.147	0.153
-542.252	387.106	0.078	-0.162
-541.237	-200.000	-0.017	0.268
-540.223	254.962	0.111	0.191
-539.208	-61.728	0.271	-0.115
-538.193	-86.408	0.142	0.044
-537.179	250.911	0.236	-0.405
-536.164	-166.074	0.182	0.008
-535.150	-74.742	0.048	0.017
-534.135	-70.087	0.270	0.104
-533.121	-200.000	-0.063	-0.467
-532.106	12.984	-0.072	-0.056
-531.091	-124.351	0.216	-0.034
-530.077	179.041	-0.135	0.199
-529.062	800.000	-0.056	0.244
-528.048	134.751	0.227	-0.296
-527.033	-52.662	0.294	0.137
-526.018	-39.029	-0.051	-0.027
-525.004	-60.588	0.091	-0.039
-523.989	-65.354	0.191	-0.077
-522.975	-129.901	-0.354	0.049
-521.960	408.257	0.076	0.161
-520.945	800.000	-0.082	0.349
-519.931	132.893	-0.103	0.134
-518.916	-26.312	0.191	0.113
-517.902	321.341	-0.159	0.304
-516.887	-71.124	0.203	-0.077
-515.872	-99.487	-0.230	-0.058
-514.858	79.910	0.113	0.122
-513.843	-105.493	-0.194	-0.044
-512.829	117.972	0.164	-0.203
-511.814	-200.000	0.001	0.142
-510.799	-200.000	-0.031	-0.166
-509.785	235.238	0.145	0.241
-508.770	645.094	0.056	0.145
-507.756	254.905	0.071	0.122
-506.741	661.122	0.012	-0.031
-505.726	-25.263	0.414	0.247
-504.712	150.781	-0.171	-0.234
-503.697	-78.313	-0.207	0.072
-502.683	-200.000	0.034	-0.280
-501.668	-19.367	0.187	-0.116
-500.653	-70.660	0.208	-0.079
-499.639	517.523	0.090	-0.213
-498.624	-181.759	0.237	0.005
-497.610	205.699	-0.053	-0.083
-496.595	435.994	0.105	0.230
-495.581	-186.356	-0.128	-0.002
-494.566	122.690	0.167	0.210
-493.551	636.502	-0.020	0.050
-492.537	304.959	0.150	-0.281
-491.522	89.222	0.118	0.132
-490.508	-18.508	0.124	0.078
-489.493	-11.013	-0.194	-0.128
-488.478	59.572	-0.197	-0.196
-487.464	-25.198	0.367	-0.219
-486.449	177.878	-0.116	0.170
-485.435	-200.000	-0.006	0.159
-484.420	-200.000	-0.002	0.048
-483.405	-146.272	-0.166	0.015
-482.391	-140.810	-0.151	-0.016
-481.376	-200.000	0.015	-0.209
-480.362	-29.367	-0.217	-0.125
-479.347	-164.535	-0.083	0.004
-478.332	-32.358	0.307	0.172
-477.318	-162.408	0.389	0.019
-476.303	-69.130	-0.280	-0.108
-475.289	7.973	0.153	-0.116
-474.274	-3.500	-0.137	-0.096
-473.259	276.589	-0.153	0.274
-472.245	224.035	-0.188	0.305
-471.230	-172.631	0.275	-0.009
-470.216	-68.090	0.203	0.079
-469.201	49.517	-0.096	0.091
-468.186	-200.000	0.312	0.001
-467.172	-130.100	-0.396	-0.054
-466.157	461.276	0.044	-0.097
-465.143	-15.516	0.135	0.087
-464.128	800.000	-0.081	0.277
-463.113	-200.000	-0.053	0.373
-462.099	40.789	-0.075	0.068
-461.084	-200.000	-0.045	-0.361
-460.070	800.000	0.027	-0.117
-459.055	115.742	0.125	0.154
-458.040	17.917	0.163	0.130
-457.026	800.000	-0.072	0.223
-456.011	-200.000	0.025	0.235
-454.997	132.573	0.080	0.104
-453.982	406.849	0.064	0.135
-452.968	800.000	-0.102	-0.360
-451.953	800.000	0.076	-0.257
-450.938	264.822	-0.044	-0.077
-449.924	-29.574	-0.166	0.095
-448.909	800.000	0.034	-0.134
-447.895	59.257	0.089	-0.088
-446.880	-200.000	0.011	0.121
-445.865	-17.710	-0.240	-0.151
-444.851	149.541	0.103	0.140
-443.836	800.000	-0.088	-0.311
-442.822	85.383	0.198	0.218
-441.807	800.000	-0.039	0.118
-440.792	-84.981	0.220	-0.069
-439.778	35.742	0.122	-0.108
-438.763	-85.688	-0.117	-0.036
-437.749	-196.630	0.130	0.001
-436.734	-36.765	-0.241	-0.130
-435.719	-3.211	-0.109	0.076
-434.705	-200.000	0.009	0.255
-433.690	159.830	0.222	-0.310
-432.676	-200.000	0.002	-0.334
-431.661	8.770	0.275	-0.208
-430.646	-41.842	-0.539	-0.277
-429.632	-200.000	0.025	0.179
-428.617	124.148	-0.098	0.123
-427.603	-5.094	-0.171	-0.118
-426.588	124.334	-0.170	0.214
-425.573	-100.762	0.031	-0.008
-424.559	-113.467	-0.296	0.058
-423.544	-142.556	0.215	-0.021
-422.530	-97.468	0.246	0.064
-421.515	267.377	-0.096	0.168
-420.500	277.907	-0.185	0.330
-419.486	-17.791	0.168	0.106
-418.471	-28.289	-0.411	0.238
-417.457	-9.397	-0.278	0.186
-416.442	42.444	0.054	0.049
-415.428	-200.000	-0.025	-0.154
-414.413	-12.581	-0.140	0.092
-413.398	-41.106	0.043	-0.022
-412.384	-119.139	-0.052	0.009
-411.369	167.629	-0.068	0.097
-410.355	-200.000	0.030	0.277
-409.340	-101.936	0.224	-0.054
-408.325	188.194	-0.099	-0.148
-407.311	-80.950	-0.249	0.083
-406.296	-200.000	-0.016	0.109
-405.282	50.453	-0.345	0.327
-404.267	-38.808	0.212	0.112
-403.252	-200.000	-0.012	0.144
-402.238	-70.182	0.227	0.086
-401.223	195.253	-0.204	0.310
-400.209	-80.349	0.089	-0.030
-399.194	96.251	-0.043	0.049
-398.179	655.539	0.114	0.294
-397.165	-157.379	0.222	-0.013
-396.150	156.076	0.171	0.236
-395.136	-121.203	-0.233	-0.039
-394.121	800.000	0.058	0.222
-393.106	131.549	-0.220	0.283
-392.092	82.089	0.178	0.193
-391.077	147.160	0.165	0.223
-390.063	800.000	-0.170	0.527
-389.048	-80.223	0.252	0.085
-388.033	15.521	-0.170	0.134
-387.019	-200.000	0.007	-0.174
-386.004	-200.000	-0.027	0.138
-384.990	32.228	-0.350	-0.303
-383.975	11.937	-0.088	0.068
-382.960	52.290	0.059	-0.056
-381.946	-200.000	-0.002	-0.040
-380.931	30.153	0.083	0.071
-379.917	-130.331	0.119	0.016
-378.902	800.000	0.032	0.124
-377.888	-200.000	-0.034	-0.244
-376.873	242.234	0.136	0.227
-375.858	-83.333	0.307	0.099
-374.844	156.178	0.084	0.116
-373.829	-170.806	-0.292	0.010
-372.815	74.109	0.112	-0.117
-371.800	93.933	0.104	0.119
-370.785	777.484	0.081	-0.220
-369.771	-10.454	-0.090	0.059
-368.756	-11.884	-0.197	0.129
-367.742	-137.563	0.097	0.011
-366.727	117.571	0.074	0.092
-365.712	476.928	0.054	-0.123
-364.698	-100.963	0.210	0.052
-363.683	800.000	-0.051	-0.161
-362.669	44.786	-0.315	-0.290
-361.654	121.810	0.252	0.314
-360.639	358.198	0.135	0.270
-359.625	800.000	-0.033	0.110
-358.610	-181.648	-0.162	-0.003
-357.596	800.000	-0.029	0.115
-356.581	20.548	-0.141	0.114
-355.566	-6.376	-0.183	0.125
-354.552	-70.004	0.096	-0.037
-353.537	-140.705	0.272	0.028
-352.523	-41.588	-0.137	-0.070
-351.508	367.713	-0.071	0.143
-350.493	-174.992	-0.352	-0.010
-349.479	-25.521	0.268	-0.158
-348.464	-51.186	0.261	0.122
-347.450	88.363	-0.132	-0.146
-346.435	800.000	-0.053	0.219
-345.420	-200.000	0.011	0.174
-344.406	427.048	-0.075	0.163
-343.391	800.000	-0.175	0.540
-342.377	800.000	0.083	-0.335
-341.362	349.603	0.046	0.090
-340.348	111.425	-0.147	0.178
-339.333	-200.000	0.020	-0.092
-338.318	251.860	0.054	0.093
-337.304	216.318	0.233	-0.370
-336.289	-177.622	-0.109	0.003
-335.275	-51.156	-0.053	0.025
-334.260	-97.239	0.248	-0.065
-333.245	278.749	-0.085	0.151
-332.231	-200.000	0.024	0.201
-331.216	-117.497	-0.125	0.023
-330.202	-77.265	-0.232	0.081
-329.187	-200.000	-0.063	-0.381
-328.172	-112.397	-0.169	0.034
-327.158	-102.401	0.174	0.042
-326.143	53.892	-0.101	-0.097
-325.129	253.883	0.183	0.312
-324.114	800.000	0.089	0.265
-323.099	212.391	0.056	0.089
-322.085	21.346	0.320	-0.260
-321.070	-18.350	-0.230	0.143
-320.056	-38.110	-0.197	0.104
-319.041	549.079	-0.121	0.290
-318.026	-153.991	0.328	-0.022
-317.012	-73.819	-0.246	-0.089
-315.997	313.651	0.046	0.087
-314.983	-27.851	-0.110	-0.064
-313.968	-44.314	0.139	0.070
-312.953	153.280	0.155	-0.211
-311.939	414.351	-0.128	0.272
-310.924	800.000	-0.060	-0.192
-309.910	-119.837	0.510	-0.088
-308.895	-200.000	0.007	0.076
-307.880	-70.686	0.218	-0.082
-306.866	-72.754	-0.138	0.051
-305.851	-200.000	-0.008	-0.334
-304.837	341.068	0.056	0.109
-303.822	-9.335	-0.022	-0.015
-302.807	800.000	-0.051	-0.201
-301.793	398.095	-0.164	-0.343
-300.778	331.346	-0.151	-0.290
-299.764	-18.717	-0.236	0.147
-298.749	-82.931	0.202	0.065
-297.735	7.445	-0.105	-0.078
-296.720	746.473	-0.120	-0.322
-295.705	800.000	0.056	-0.184
-294.691	141.748	-0.190	0.252
-293.676	-23.145	-0.243	0.146
-292.662	-160.622	0.275	-0.015
-291.647	350.828	-0.070	-0.137
-290.632	144.792	-0.020	0.026
-289.618	-145.732	0.220	0.020
-288.603	266.997	-0.090	-0.157
-287.589	-98.711	-0.458	-0.116
-286.574	-200.000	-0.026	0.240
-285.559	800.000	0.030	0.108
-284.545	800.000	-0.085	-0.313
-283.530	261.990	-0.158	-0.273
-282.516	-125.191	-0.425	0.065
-281.501	-142.556	0.156	0.015
-280.486	800.000	-0.056	0.225
-279.472	-120.205	-0.592	-0.101
-278.457	157.106	0.038	-0.052
-277.443	210.205	0.039	-0.061
-276.428	-200.000	-0.005	0.048
-275.413	260.102	-0.121	0.208
-274.399	-135.303	0.193	-0.023
-273.384	-200.000	0.049	-0.429
-272.370	-200.000	0.036	-0.323
-271.355	-2.993	0.177	-0.123
-270.340	-101.008	0.099	0.024
-269.326	302.688	-0.041	-0.077
-268.311	-200.000	-0.060	-0.279
-267.297	800.000	0.008	-0.032
-266.282	800.000	-0.162	-0.461
-265.267	800.000	0.018	-0.050
-264.253	84.271	0.053	0.058
-263.238	-161.298	0.184	-0.010
-262.224	-91.164	-0.091	-0.026
-261.209	-121.829	-0.267	0.044
-260.195	-200.000	0.002	-0.217
-259.180	-200.000	-0.038	0.283
-258.165	-56.733	0.262	0.116
-257.151	-64.756	0.200	-0.081
-256.136	468.892	0.064	-0.143
-255.122	152.961	0.094	-0.129
-254.107	-31.890	-0.116	0.065
-253.092	-128.648	-0.561	-0.079
-252.078	36.376	-0.131	-0.115
-251.063	-102.452	-0.077	-0.018
-250.049	-200.000	0.008	-0.087
-249.034	-63.507	0.104	0.043
-248.019	-48.066	-0.221	0.107
-247.005	-100.664	-0.112	-0.028
-245.990	56.061	0.297	-0.287
-244.976	-200.000	0.018	0.138
-243.961	204.371	-0.056	0.086
-242.946	-200.000	0.015	0.274
-241.932	705.871	-0.065	0.170
-240.917	800.000	0.015	-0.057
-239.903	247.888	-0.093	0.156
-238.888	236.448	-0.212	0.349
-237.873	-144.917	0.322	-0.029
-236.859	800.000	0.046	0.135
-235.844	-200.000	-0.023	0.370
-234.830	81.345	-0.214	0.231
-233.815	800.000	0.070	-0.229
-232.800	800.000	0.033	-0.125
-231.786	71.365	-0.202	-0.208
-230.771	111.974	-0.100	-0.120
-229.757	-83.748	0.094	0.030
-228.742	173.471	-0.083	0.119
-227.727	13.002	-0.132	-0.102
-226.713	-96.338	-0.188	-0.049
-225.698	-200.000	0.030	-0.287
-224.684	-200.000	-0.026	-0.119
-223.669	12.589	-0.096	-0.074
-222.655	17.283	-0.279	-0.220
-221.640	171.262	-0.068	0.097
-220.625	748.843	0.091	0.244
-219.611	0.615	-0.134	0.095
-218.596	-200.000	0.047	0.422
-217.582	-200.000	0.018	-0.352
-216.567	-2.084	0.061	0.043
-215.552	-195.385	0.333	0.002
-214.538	5.249	-0.129	0.095
-213.523	257.072	0.076	0.130
-212.509	-89.470	0.170	0.050
-211.494	-99.013	-0.222	-0.056
-210.479	223.444	0.090	0.145
-209.465	-200.000	-0.002	-0.105
-208.450	-57.989	0.294	0.128
-207.436	83.842	0.233	0.253
-206.421	-147.204	-0.100	0.008
-205.406	-31.208	-0.239	0.134
-204.392	-26.085	0.086	-0.050
-203.377	241.017	0.170	-0.282
-202.363	118.887	0.134	0.164
-201.348	438.819	0.078	-0.169
-200.333	-12.563	0.244	-0.158
-199.319	-200.000	0.014	-0.121
-198.304	-200.000	-0.065	-0.386
-197.290	-200.000	0.027	0.130
-196.275	332.072	-0.039	0.075
-195.260	293.387	0.161	-0.292
-194.246	37.297	0.161	0.142
-193.231	157.459	0.183	0.251
-192.217	-200.000	0.027	0.198
-191.202	800.000	0.098	0.320
-190.187	-99.781	0.242	0.060
-189.173	251.632	-0.177	0.299
-188.158	-63.492	-0.354	0.145
-187.144	267.240	0.056	0.097
-186.129	101.734	0.122	-0.141
-185.114	30.359	0.121	-0.103
-184.100	-10.823	0.335	0.220
-183.085	-126.343	-0.223	0.033
-182.071	-160.197	0.295	0.016
-181.056	-200.000	-0.031	-0.327
-180.042	149.865	-0.212	-0.285
-179.027	197.263	0.176	-0.267
-178.012	-151.948	-0.088	-0.006
-176.998	-83.033	-0.082	-0.026
-175.983	800.000	-0.074	-0.319
-174.969	-150.478	0.278	0.021
-173.954	80.125	-0.028	-0.030
-172.939	-200.000	0.024	0.213
-171.925	-200.000	0.028	-0.294
-170.910	-200.000	0.008	-0.076
-169.896	610.278	-0.018	-0.044
-168.881	-200.000	0.011	0.245
-167.866	-200.000	-0.019	-0.164
-166.852	340.196	-0.053	-0.103
-165.837	21.685	-0.241	0.195
-164.823	-97.498	-0.085	-0.022
-163.808	-136.748	-0.335	-0.038
-162.793	-41.193	0.106	0.054
-161.779	-54.051	0.185	0.084
-160.764	23.059	0.141	-0.115
-159.750	46.229	-0.212	0.195
-158.735	800.000	0.053	-0.166
-157.720	800.000	-0.026	0.085
-156.706	-5.076	0.177	-0.121
-155.691	-98.299	-0.075	-0.019
-154.677	-200.000	0.012	-0.093
-153.662	-78.649	-0.166	0.056
-152.647	800.000	0.062	0.190
-151.633	0.972	0.105	-0.075
-150.618	249.053	-0.076	-0.127
-149.604	-27.888	-0.300	-0.173
-148.589	-200.000	0.000	-0.172
-147.574	535.928	-0.031	-0.074
-146.560	153.725	0.080	-0.109
-145.545	-65.715	-0.008	-0.003
-144.531	29.161	0.102	0.086
-143.516	92.024	-0.063	0.071
-142.502	-65.235	-0.048	-0.019
-141.487	-33.881	0.320	0.175
-140.472	-15.086	0.064	0.041
-139.458	357.878	-0.186	-0.368
-138.443	157.661	-0.218	-0.299
-137.429	-8.613	0.181	-0.121
-136.414	26.408	-0.204	0.169
-135.399	-200.000	0.024	0.130
-134.385	-200.000	0.046	0.367
-133.370	-200.000	-0.012	0.233
-132.356	-26.152	0.092	0.054
-131.341	-172.090	0.177	-0.006
-130.326	304.158	0.130	-0.240
-129.312	800.000	-0.104	0.290
-128.297	-200.000	0.058	0.302
-127.283	800.000	0.094	0.343
-126.268	287.699	0.081	0.145
-125.253	-97.403	0.137	0.035
-124.239	176.313	-0.234	0.336
-123.224	-47.445	0.195	0.094
-122.210	-182.339	0.263	0.005
-121.195	38.768	0.068	0.061
-120.180	-99.745	0.042	-0.010
-119.166	-36.676	0.196	-0.104
-118.151	317.842	0.032	-0.060
-117.137	335.694	-0.050	-0.096
-116.122	73.650	0.216	-0.224
-115.107	-77.706	0.306	0.105
-114.093	-27.764	0.112	-0.064
-113.078	33.392	0.200	-0.172
-112.064	293.104	0.138	-0.250
-111.049	93.365	0.172	0.192
-110.034	-4.750	0.257	0.176
-109.020	75.212	-0.070	-0.073
-108.005	-113.105	-0.214	0.042
-106.991	800.000	0.142	0.451
-105.976	800.000	0.070	0.238
-104.962	800.000	-0.022	0.077
-103.947	-200.000	-0.022	-0.129
-102.932	-137.767	-0.145	-0.016
-101.918	256.885	0.193	-0.328
-100.903	-126.939	0.216	0.031
-99.889	-200.000	0.027	-0.142
-98.874	-91.479	-0.293	-0.083
-97.859	-118.227	0.192	-0.034
-96.845	-28.608	-0.075	-0.043
-95.830	137.129	-0.201	0.260
-94.816	776.540	-0.074	0.201
-93.801	-200.000	-0.021	0.162
-92.786	-39.108	0.154	0.080
-91.772	800.000	0.058	0.199
-90.757	224.825	-0.189	0.302
-89.743	-74.836	-0.100	0.035
-88.728	-143.579	-0.095	-0.009
-87.713	-1.367	-0.185	0.129
-86.699	-116.396	-0.211	0.039
-85.684	242.365	0.102	-0.169
-84.670	-16.305	-0.059	0.037
-83.655	33.350	-0.185	-0.159
-82.640	-112.775	-0.546	0.107
-81.626	-2.505	0.252	0.175
-80.611	134.611	-0.114	0.146
-79.597	43.327	-0.206	-0.186
-78.582	30.189	-0.090	-0.076
-77.567	-14.422	-0.006	-0.004
-76.553	592.842	-0.128	0.312
-75.538	-19.896	0.038	-0.023
-74.524	-83.727	0.147	0.046
-73.509	800.000	0.034	-0.117
-72.494	-200.000	-0.025	-0.118
-71.480	-200.000	0.024	-0.289
-70.465	95.754	0.346	0.391
-69.451	-149.662	0.007	0.001
-68.436	377.747	-0.099	-0.200
-67.422	389.332	0.160	-0.328
-66.407	207.821	0.082	0.126
-65.392	-61.831	-0.169	0.070
-64.378	440.308	0.171	0.369
-63.363	800.000	-0.075	-0.246
-62.349	-35.578	0.089	0.048
-61.334	168.657	-0.810	-1.142
-60.319	22.881	0.468	0.380
-59.305	387.445	-0.434	-0.887
-58.290	743.481	0.314	0.835
-57.276	800.000	0.380	1.645
-56.261	-200.000	95.001	561.598
-55.246	547.750	1377.676	3261.014
-54.232	153.669	2571.564	3483.358
-53.217	116.277	2171.723	2630.921
-52.203	47.479	1629.771	1502.005
-51.188	39.245	1366.182	1208.703
-50.173	36.094	1323.034	1151.689
-49.159	56.940	1371.348	1321.004
-48.144	61.302	1389.477	1364.915
-47.130	39.688	1344.098	1191.655
-46.115	35.963	1326.337	1153.595
-45.100	35.765	1321.759	1148.387
-44.086	35.684	1319.217	1145.652
-43.071	35.698	1316.681	1143.483
-42.057	35.536	1315.258	1141.239
-41.042	35.648	1313.241	1140.110
-40.027	35.599	1312.058	1138.752
-39.013	35.633	1309.942	1137.067
-37.998	35.636	1307.846	1135.224
-36.984	35.787	1306.121	1134.567
-35.969	35.783	1304.296	1132.917
-34.954	35.788	1302.711	1131.521
-33.940	35.923	1301.184	1130.944
-32.925	35.955	1299.905	1129.978
-31.911	35.912	1298.244	1128.234
-30.896	35.856	1297.034	1126.812
-29.881	35.928	1295.973	1126.266
-28.867	36.012	1294.195	1125.166
-27.852	35.960	1292.690	1123.511
-26.838	35.959	1291.346	1122.293
-25.823	35.919	1290.337	1121.138
-24.809	35.882	1288.909	1119.639
-23.794	35.877	1287.265	1118.134
-22.779	35.874	1286.114	1117.072
-21.765	35.830	1285.025	1115.831
-20.750	35.810	1284.170	1114.925
-19.736	35.786	1282.703	1113.471
-18.721	35.770	1281.291	1112.105
-17.706	35.682	1279.966	1110.404
-16.692	35.741	1278.937	1109.808
-15.677	35.793	1277.375	1108.709
-14.663	35.855	1276.258	1108.052
-13.648	35.748	1275.551	1106.779
-12.633	35.697	1274.510	1105.541
-11.619	35.712	1273.713	1104.888
-10.604	35.601	1273.144	1103.712
-9.590	35.734	1271.650	1103.139
-8.575	35.652	1271.200	1102.234
-7.560	35.805	1269.689	1101.755
-6.546	35.778	1269.508	1101.400
-5.531	35.650	1268.386	1099.654
-4.517	35.665	1267.463	1098.894
-3.502	35.723	1266.995	1098.772
-2.487	35.674	1265.584	1097.227
-1.473	35.701	1261.296	1093.619
-0.458	33.949	1245.950	1070.418
0.556	27.787	1226.626	1026.924
1.571	23.537	1231.225	1006.621
2.586	22.236	1246.391	1011.453
3.600	21.507	1236.238	998.967
4.615	16.022	1162.300	909.608
5.629	5.857	1082.339	795.628
6.644	0.583	1059.509	752.543
7.659	-0.051	1057.205	747.688
8.673	-0.096	1055.726	746.349
9.688	-0.143	1054.822	745.411
10.702	0.120	1053.192	745.500
11.717	6.088	1061.061	780.719
12.731	15.306	1073.512	835.963
13.746	18.274	1075.843	852.506
14.761	17.108	1073.841	845.047
15.775	15.912	1071.462	837.156
16.790	14.745	1069.966	830.118
17.804	14.244	1067.957	825.998
18.819	13.854	1066.904	823.178
19.834	13.560	1065.759	820.765
20.848	13.197	1065.239	818.493
21.863	13.072	1063.952	816.814
22.877	12.879	1063.468	815.417
23.892	12.906	1062.567	814.788
24.907	12.898	1061.957	814.210
25.921	13.039	1060.997	814.096
26.936	12.997	1060.439	813.390
27.950	13.064	1059.805	813.161
28.965	13.025	1058.824	812.144
29.980	13.174	1056.829	811.276
30.994	13.197	1055.973	810.656
32.009	13.196	1055.414	810.150
33.023	13.155	1054.469	809.156
34.038	13.089	1053.463	807.989
35.053	13.189	1052.486	807.653
36.067	13.184	1051.582	806.868
37.082	13.163	1050.792	806.084
38.096	13.179	1049.887	805.396
39.111	13.113	1049.396	804.630
40.126	12.893	1048.884	803.096
41.140	12.968	1046.852	801.832
42.155	12.832	1045.941	800.401
43.169	12.789	1045.132	799.505
44.184	12.900	1043.831	798.978
45.199	12.991	1042.654	798.446
46.213	12.973	1041.965	797.760
47.228	13.062	1040.777	797.210
48.242	12.943	1040.387	796.265
49.257	13.030	1039.119	795.646
50.271	12.984	1038.436	794.828
51.286	13.067	1037.080	794.119
52.301	13.216	1035.995	793.935
53.315	12.978	1035.348	792.225
54.330	12.888	1034.545	791.111
55.344	12.998	1033.578	790.829
56.359	13.025	1032.913	790.376
57.374	12.886	1031.744	788.747
58.388	12.925	1030.631	788.016
59.403	12.994	1030.126	787.886
60.417	12.862	1029.168	786.458
61.432	12.826	1028.866	785.984
62.447	12.830	1027.772	785.099
63.461	12.786	1026.915	784.165
64.476	12.822	1026.135	783.672
65.490	12.792	1025.541	783.003
66.505	12.934	1024.602	782.894
67.520	12.885	1023.997	782.127
68.534	12.891	1023.041	781.357
69.549	12.831	1022.366	780.490
70.563	12.869	1021.545	779.972
71.578	12.763	1021.212	779.149
72.593	12.716	1020.134	778.036
73.607	12.741	1019.551	777.638
74.622	12.761	1019.219	777.411
75.636	12.766	1018.025	776.456
76.651	12.751	1017.576	775.976
77.666	12.760	1016.887	775.424
78.680	12.843	1016.167	775.193
79.695	12.958	1014.937	774.728
80.709	12.881	1014.733	774.141
81.724	12.911	1014.251	773.846
82.739	12.813	1013.633	772.848
83.753	13.054	1012.585	773.110
84.768	13.094	1012.081	772.842
85.782	13.145	1010.842	772.068
86.797	13.106	1010.017	771.187
87.812	13.035	1008.748	769.819
88.826	13.032	1007.975	769.148
89.841	13.051	1007.463	768.775
90.855	13.117	1006.284	768.116
91.870	13.050	1006.126	767.614
92.884	13.127	1004.950	767.008
93.899	13.228	1003.974	766.665
94.914	13.233	1002.834	765.749
95.928	13.123	1002.482	764.900
96.943	13.131	1001.503	764.124
97.957	13.125	1000.452	763.229
98.972	13.148	1000.086	762.988
99.987	13.232	998.504	762.101
101.001	13.098	998.034	761.055
102.016	13.042	996.730	759.737
103.030	13.013	996.809	759.596
104.045	13.115	995.697	759.151
105.060	13.135	994.407	758.191
106.074	13.137	993.209	757.221
107.089	13.033	992.404	756.061
108.103	12.927	991.916	755.137
109.118	12.950	990.850	754.365
110.133	12.935	989.970	753.562
111.147	12.927	989.011	752.729
112.162	12.868	988.268	751.825
113.176	13.032	987.797	752.149
114.191	13.117	986.738	751.661
115.206	13.033	986.046	750.688
116.220	13.001	984.999	749.678
117.235	13.056	984.196	749.252
118.249	13.040	983.498	748.581
119.264	13.063	982.708	748.017
120.279	12.986	982.132	747.163
121.293	13.003	981.438	746.646
122.308	12.984	980.218	745.565
123.322	12.981	979.231	744.739
124.337	13.144	978.071	744.523
125.352	12.967	977.194	742.993
126.366	13.072	975.721	742.279
127.381	13.052	974.739	741.376
128.395	13.047	974.361	740.999
129.410	12.960	973.728	740.062
130.424	13.120	972.675	739.914
131.439	13.007	972.167	738.956
132.454	13.176	971.186	738.902
133.468	13.105	970.447	737.956
134.483	13.097	969.545	737.170
135.497	13.135	968.661	736.602
136.512	13.035	968.176	735.720
137.527	13.205	967.030	735.541
138.541	13.093	966.376	734.480
139.556	13.167	965.729	734.255
140.570	13.212	965.126	733.930
141.585	13.202	964.157	733.083
142.600	13.336	962.994	732.731
143.614	13.166	962.564	731.583
144.629	13.318	961.718	731.550
145.643	13.292	960.719	730.609
146.658	13.295	959.315	729.490
147.673	13.202	958.735	728.576
148.687	13.173	957.872	727.728
149.702	13.228	956.971	727.218
150.716	13.154	955.954	726.059
151.731	13.186	955.673	725.921
152.746	13.337	954.779	725.842
153.760	13.194	954.458	724.904
154.775	13.299	953.903	724.880
155.789	13.220	953.020	723.798
156.804	13.139	952.736	723.163
157.819	13.304	951.956	723.231
158.833	13.448	950.713	722.852
159.848	13.351	950.118	721.912
160.862	13.359	948.921	720.970
161.877	13.361	947.960	720.185
162.892	13.304	947.178	719.281
163.906	13.286	946.412	718.558
164.921	13.224	945.877	717.819
165.935	13.424	944.651	717.691
166.950	13.473	943.461	716.936
167.964	13.312	942.901	715.751
168.979	13.298	942.183	715.083
169.994	13.357	941.023	714.392
171.008	13.519	940.481	714.617
172.023	13.394	940.361	713.924
173.037	13.451	939.225	713.243
174.052	13.436	938.636	712.670
175.067	13.433	937.719	711.897
176.081	13.349	937.504	711.309
177.096	13.292	937.122	710.709
178.110	13.356	936.236	710.250
179.125	13.436	935.532	709.998
180.140	13.487	935.490	710.120
181.154	13.494	934.963	709.689
182.169	13.524	934.385	709.314
183.183	13.444	934.018	708.633
184.198	13.595	932.660	708.186
185.213	13.559	932.009	707.475
186.227	13.576	931.390	707.013
187.242	13.725	930.878	707.196
188.256	13.743	930.211	706.704
189.271	13.634	929.914	705.952
190.286	13.452	928.820	704.287
191.300	13.490	927.680	703.521
192.315	13.411	927.424	702.927
193.329	13.398	926.844	702.370
194.344	13.463	926.039	701.973
195.359	13.521	925.377	701.656
196.373	13.732	924.760	702.020
197.388	13.782	924.170	701.721
198.402	13.816	923.849	701.560
199.417	13.857	923.207	701.181
200.432	13.891	922.740	700.911
201.446	13.866	922.440	700.517
202.461	13.942	921.820	700.303
203.475	13.843	921.687	699.721
204.490	13.835	920.486	698.714
205.504	13.709	919.898	697.675
206.519	13.833	918.786	697.293
207.534	13.901	918.264	697.118
208.548	13.766	917.346	695.793
209.563	13.884	916.908	695.893
210.577	13.985	916.189	695.711
211.592	14.040	915.394	695.275
212.607	14.076	914.385	694.597
213.621	14.057	914.059	694.210
214.636	14.057	913.383	693.636
215.650	13.968	912.873	692.818
216.665	14.063	911.822	692.352
217.680	14.041	911.170	691.705
218.694	14.081	910.985	691.669
219.709	14.153	909.773	690.985
220.723	14.188	909.378	690.772
221.738	14.078	908.797	689.812
222.753	14.194	908.112	689.711
223.767	14.186	907.291	688.994
224.782	14.263	906.881	688.941
225.796	14.158	906.473	688.134
226.811	14.218	905.917	687.900
227.826	14.186	905.095	687.083
228.840	14.246	904.486	686.806
229.855	14.185	903.701	685.898
230.869	14.166	902.665	684.974
231.884	14.200	902.076	684.609
232.899	14.151	901.477	683.890
233.913	14.092	900.834	683.099
234.928	14.116	900.146	682.618
235.942	14.137	899.785	682.369
236.957	14.181	898.962	681.863
237.972	14.199	898.545	681.559
238.986	14.244	898.123	681.363
240.001	14.212	897.319	680.564
241.015	14.181	896.801	679.984
242.030	14.343	895.700	679.749
243.045	14.338	895.381	679.426
244.059	14.356	894.668	678.899
245.074	14.395	894.000	678.491
246.088	14.321	893.590	677.821
247.103	14.460	892.884	677.791
248.117	14.567	892.275	677.703
249.132	14.428	891.758	676.683
250.147	14.644	890.877	676.831
251.161	14.662	890.323	676.424
252.176	14.672	889.809	676.013
253.190	14.763	888.882	675.620
254.205	14.650	888.845	675.074
255.220	14.679	888.074	674.544
256.234	14.694	887.425	674.054
257.249	14.745	886.575	673.551
258.263	14.753	885.656	672.828
259.278	14.739	885.201	672.365
260.293	14.706	884.667	671.767
261.307	14.901	884.117	672.073
262.322	14.928	883.041	671.305
263.336	14.777	882.725	670.401
264.351	14.961	881.824	670.393
265.366	15.026	881.271	670.174
266.380	14.904	880.726	669.213
267.395	14.891	879.922	668.492
268.409	14.838	879.130	667.618
269.424	14.874	878.350	667.109
270.439	14.971	877.727	666.965
271.453	14.953	876.841	666.163
272.468	14.908	876.880	665.952
273.482	14.858	876.221	665.193
274.497	14.953	875.654	665.084
275.512	14.799	875.142	664.021
276.526	15.035	874.130	664.131
277.541	15.018	873.635	663.630
278.555	15.071	872.946	663.258
279.570	15.151	872.281	663.011
280.585	15.131	871.665	662.405
281.599	15.063	871.214	661.736
282.614	15.077	870.401	661.114
283.628	14.982	870.069	660.427
284.643	15.096	869.326	660.256
285.657	15.106	868.716	659.772
286.672	15.097	867.992	659.129
287.687	15.230	867.245	659.029
288.701	15.231	866.655	658.524
289.716	15.243	866.366	658.294
290.730	15.076	865.973	657.281
291.745	15.112	865.063	656.673
292.760	15.251	864.425	656.677
293.774	15.324	863.902	656.506
294.789	15.358	863.136	655.998
295.803	15.314	862.384	655.199
296.818	15.253	861.833	654.482
297.833	15.442	861.050	654.569
298.847	15.291	860.533	653.528
299.862	15.335	860.490	653.610
300.876	15.365	859.272	652.744
301.891	15.526	859.011	653.113
302.906	15.494	858.031	652.187
303.920	15.585	857.605	652.157
304.935	15.497	857.344	651.558
305.949	15.567	856.764	651.334
306.964	15.435	856.193	650.330
307.979	15.516	855.446	650.018
308.993	15.547	854.921	649.683
310.008	15.562	854.454	649.329
311.022	15.578	854.032	649.012
312.037	15.580	853.105	648.257
313.052	15.484	852.514	647.382
314.066	15.469	851.852	646.764
315.081	15.487	851.625	646.604
316.095	15.501	850.979	646.108
317.110	15.544	850.189	645.615
318.125	15.555	849.864	645.356
319.139	15.577	849.271	644.933
320.154	15.602	848.724	644.556
321.168	15.496	848.303	643.774
322.183	15.528	847.932	643.558
323.197	15.700	847.428	643.777
324.212	15.652	846.808	643.065
325.227	15.632	846.017	642.329
326.241	15.595	845.157	641.481
327.256	15.731	844.719	641.608
328.270	15.711	844.285	641.145
329.285	15.646	843.544	640.279
330.300	15.781	842.934	640.273
331.314	15.575	842.810	639.337
332.329	15.867	842.211	639.937
333.343	15.782	842.051	639.436
334.358	15.837	841.294	639.015
335.373	15.779	841.001	638.516
336.387	15.795	840.885	638.433
337.402	15.866	840.731	638.525
338.416	15.912	840.280	638.303
339.431	15.795	839.923	637.532
340.446	15.956	839.512	637.771
341.460	15.982	838.991	637.419
342.475	16.153	838.269	637.458
343.489	16.043	837.810	636.640
344.504	16.106	837.605	636.663
345.519	16.025	837.234	636.023
346.533	16.134	836.529	635.838
347.548	16.009	836.201	635.063
348.562	16.079	835.266	634.559
349.577	16.024	835.037	634.124
350.592	16.023	833.941	633.231
351.606	16.131	833.364	633.145
352.621	16.127	832.805	632.646
353.635	16.039	832.457	631.995
354.650	16.008	831.881	631.388
355.665	16.066	831.207	631.036
356.679	16.092	830.191	630.307
357.694	16.171	829.551	630.060
358.708	16.100	829.192	629.466
359.723	16.198	828.455	629.219
360.738	16.163	827.908	628.615
361.752	16.204	827.333	628.274
362.767	16.401	826.685	628.462
363.781	16.396	826.435	628.196
364.796	16.463	825.724	627.852
365.810	16.339	825.640	627.269
366.825	16.683	824.694	627.771
367.840	16.374	824.917	626.739
368.854	16.471	824.325	626.592
369.869	16.333	823.732	625.575
370.883	16.341	823.300	625.221
371.898	16.377	823.366	625.349
372.913	16.465	822.775	625.173
373.927	16.454	822.286	624.703
374.942	16.549	821.295	624.247
375.956	16.526	821.095	623.956
376.971	16.739	820.297	624.078
377.986	16.663	819.722	623.304
379.000	16.653	819.616	623.134
380.015	16.651	819.167	622.730
381.029	16.681	818.443	622.235
382.044	16.813	817.726	622.119
383.059	16.728	817.536	621.609
384.073	16.665	816.743	620.717
385.088	16.819	815.936	620.614
386.102	16.836	815.467	620.265
387.117	16.638	815.114	619.216
388.132	16.751	814.719	619.275
389.146	16.653	814.081	618.377
390.161	16.761	813.230	618.069
391.175	16.739	813.301	617.990
392.190	16.792	812.774	617.726
393.205	16.691	812.356	616.986
394.219	16.727	811.902	616.717
395.234	16.817	811.606	616.766
396.248	16.652	811.253	615.844
397.263	16.643	810.704	615.339
398.278	16.695	810.413	615.253
399.292	16.795	809.867	615.147
400.307	16.837	809.057	614.630
401.321	16.772	808.506	613.923
402.336	16.901	808.022	613.968
403.350	16.752	808.184	613.495
404.365	17.064	807.204	613.826
405.380	17.048	806.742	613.363
406.394	16.998	806.517	612.955
407.409	17.122	805.846	612.839
408.423	17.181	805.587	612.804
409.438	16.985	805.310	611.828
410.453	17.098	805.056	611.990
411.467	17.036	804.906	611.598
412.482	17.270	803.978	611.681
413.496	17.240	803.473	611.136
414.511	17.372	803.243	611.383
415.526	17.264	802.795	610.596
416.540	17.152	802.345	609.798
417.555	17.341	801.516	609.793
418.569	17.214	801.457	609.238
419.584	17.404	800.887	609.432
420.599	17.282	800.673	608.780
421.613	102.020	1283.475	1435.323
422.628	87.515	1353.819	1435.431
