DTS Sentinel unit serial number:	SN413079Multiplexer serial number:	ORYXHardware model number:	OX4-SRSoftware version number:	ORYX F/W v4.00 Oryx Data Collector v3.7.2.0data status	okinstallation	princeton_trtdifferential loss correction	single-endedforward channel	channel 1reverse channel	N/Adate	2019/09/19time	08:50:35forward acquisition time	60.00reverse acquisition time	0.00gamma	496.2192k internal	0.2343k external	0.2343temperature offset calibration	1.0005default loss term (dB/km)	0.3790temperature slope calibration	1.0000multiplexer offset coefficient	1.0000multiplexer slope coefficient	1.0000fibre end	0.00T internal ref (°C)	21.19T ext. ref 1 (°C)	0.59T ext. ref 2 (°C)	16.85length (m)	temperature (°C)	Stokes	anti-Stokes-747.200	56.978	0.128	-0.125
-746.185	235.616	-0.039	-0.064
-745.171	800.000	-0.127	0.355
-744.156	-91.832	-0.182	0.052
-743.142	400.026	-0.072	-0.152
-742.127	-102.130	0.170	0.041
-741.112	800.000	0.044	0.170
-740.098	-41.796	-0.358	0.184
-739.083	-73.745	0.157	-0.057
-738.069	-200.000	0.051	0.352
-737.054	605.483	0.076	0.189
-736.039	96.268	-0.071	-0.081
-735.025	127.967	0.123	0.156
-734.010	-198.039	-0.274	0.002
-732.996	703.158	0.067	-0.177
-731.981	-104.569	-0.203	-0.047
-730.966	553.267	0.180	0.432
-729.952	-77.825	-0.280	0.097
-728.937	-32.934	-0.256	0.143
-727.923	-8.942	-0.190	-0.127
-726.908	15.530	-0.396	-0.311
-725.894	93.963	-0.085	-0.096
-724.879	-200.000	-0.010	0.159
-723.864	-139.561	-0.403	0.043
-722.850	-25.189	0.240	-0.142
-721.835	17.513	0.030	-0.024
-720.821	-200.000	-0.021	0.239
-719.806	120.823	-0.119	-0.148
-718.791	-119.458	-0.260	-0.045
-717.777	800.000	0.006	-0.019
-716.762	-200.000	-0.063	-0.425
-715.748	236.537	-0.035	0.058
-714.733	-200.000	0.027	-0.151
-713.718	-176.340	-0.011	0.000
-712.704	-107.121	0.144	-0.032
-711.689	800.000	0.119	0.420
-710.675	73.818	-0.048	0.050
-709.660	95.819	-0.194	0.221
-708.645	0.999	0.035	-0.025
-707.631	-108.482	-0.306	0.066
-706.616	-6.070	-0.169	-0.115
-705.602	-200.000	-0.022	0.114
-704.587	89.635	0.016	-0.018
-703.572	10.751	-0.313	0.239
-702.558	800.000	0.063	-0.188
-701.543	165.732	0.183	-0.259
-700.529	800.000	0.045	-0.178
-699.514	163.941	-0.071	0.100
-698.499	-33.944	0.248	-0.137
-697.485	25.260	0.364	0.302
-696.470	264.161	0.208	0.362
-695.456	-200.000	0.066	0.295
-694.441	-140.597	-0.332	0.034
-693.426	-64.915	0.198	0.080
-692.412	754.789	-0.084	-0.227
-691.397	55.309	-0.245	0.237
-690.383	68.834	-0.164	0.168
-689.368	-39.120	-0.307	0.161
-688.354	273.476	-0.130	-0.230
-687.339	-172.880	0.263	-0.008
-686.324	-126.384	0.086	0.013
-685.310	333.764	-0.161	-0.311
-684.295	-21.958	-0.227	0.138
-683.281	170.504	0.038	-0.054
-682.266	-200.000	-0.008	0.076
-681.251	230.499	-0.094	0.153
-680.237	-200.000	0.031	-0.226
-679.222	65.608	-0.246	-0.248
-678.208	800.000	-0.016	0.058
-677.193	-200.000	0.010	-0.260
-676.178	-51.375	-0.107	0.050
-675.164	-48.100	0.110	0.053
-674.149	133.476	0.120	0.155
-673.135	-200.000	-0.018	0.131
-672.120	-158.088	-0.296	0.017
-671.105	214.198	0.135	-0.214
-670.091	105.780	-0.173	-0.205
-669.076	-61.832	-0.301	-0.126
-668.062	-200.000	-0.026	-0.141
-667.047	-200.000	-0.058	-0.324
-666.032	-13.300	0.190	-0.123
-665.018	-200.000	-0.042	0.301
-664.003	800.000	0.098	0.313
-662.989	-61.797	-0.263	0.110
-661.974	-71.917	-0.249	0.093
-660.959	17.090	-0.179	0.141
-659.945	92.950	0.214	-0.241
-658.930	-200.000	-0.019	-0.133
-657.916	-175.840	-0.275	-0.007
-656.901	-6.052	0.299	-0.204
-655.886	-2.091	0.126	-0.088
-654.872	-56.903	-0.128	0.056
-653.857	-26.890	-0.136	0.080
-652.843	800.000	-0.038	0.133
-651.828	-88.794	0.204	0.061
-650.814	800.000	0.048	-0.145
-649.799	103.948	-0.186	-0.218
-648.784	23.940	-0.185	0.152
-647.770	240.349	-0.108	-0.179
-646.755	127.776	-0.212	-0.269
-645.741	173.623	0.049	0.070
-644.726	124.329	-0.086	-0.108
-643.711	-3.020	-0.247	-0.172
-642.697	-51.220	0.196	0.092
-641.682	-85.330	0.047	0.015
-640.668	-109.813	-0.194	0.041
-639.653	-94.655	0.137	0.037
-638.638	-168.204	0.100	-0.004
-637.624	-89.903	-0.044	0.013
-636.609	239.611	-0.066	0.110
-635.595	-66.073	-0.320	0.127
-634.580	-11.667	0.442	0.289
-633.565	779.519	0.160	0.436
-632.551	-156.387	0.050	0.003
-631.536	-200.000	-0.033	0.240
-630.522	300.762	0.065	-0.120
-629.507	0.297	0.235	0.167
-628.492	24.526	-0.166	0.137
-627.478	106.367	-0.177	0.209
-626.463	800.000	0.016	-0.060
-625.449	42.076	0.183	0.166
-624.434	664.229	0.087	-0.223
-623.419	-29.391	0.222	0.127
-622.405	800.000	0.081	0.278
-621.390	50.490	0.229	-0.215
-620.376	34.014	-0.136	0.118
-619.361	-0.563	-0.197	0.139
-618.346	-34.254	0.327	0.179
-617.332	-192.688	0.157	0.001
-616.317	800.000	-0.019	-0.061
-615.303	-36.697	0.060	0.032
-614.288	322.049	-0.104	-0.196
-613.273	319.682	0.051	-0.096
-612.259	-199.676	-0.202	0.001
-611.244	-11.905	-0.147	-0.096
-610.230	-200.000	-0.029	0.178
-609.215	-200.000	-0.088	-0.470
-608.201	76.334	0.208	-0.220
-607.186	-200.000	-0.001	-0.078
-606.171	-42.602	-0.070	0.035
-605.157	-1.862	0.041	0.029
-604.142	-62.175	0.198	0.082
-603.128	-81.621	-0.315	-0.103
-602.113	-200.000	-0.002	-0.155
-601.098	800.000	0.073	0.301
-600.084	-29.792	0.076	0.043
-599.069	231.655	-0.299	-0.489
-598.055	800.000	0.041	-0.138
-597.040	92.658	-0.155	-0.175
-596.025	253.421	0.110	-0.187
-595.011	20.384	0.290	0.233
-593.996	-27.140	0.070	-0.040
-592.982	-2.680	-0.250	0.174
-591.967	-180.570	-0.102	-0.002
-590.952	276.156	-0.104	-0.185
-589.938	-200.000	0.010	0.188
-588.923	-50.328	-0.172	0.081
-587.909	-162.067	-0.383	-0.019
-586.894	-159.099	-0.162	-0.009
-585.879	667.941	-0.028	0.073
-584.865	-200.000	0.008	0.259
-583.850	-75.855	0.232	0.082
-582.836	-200.000	0.004	0.314
-581.821	271.492	-0.129	-0.227
-580.806	117.578	-0.056	-0.068
-579.792	562.712	-0.081	0.195
-578.777	129.558	0.114	-0.145
-577.763	1.502	0.184	-0.132
-576.748	-65.743	0.170	-0.068
-575.733	-115.874	0.169	-0.031
-574.719	-200.000	-0.042	0.250
-573.704	171.656	-0.153	-0.218
-572.690	800.000	-0.025	-0.099
-571.675	-132.818	-0.100	-0.013
-570.661	-104.033	0.415	0.096
-569.646	439.755	0.170	0.369
-568.631	-105.301	0.406	-0.092
-567.617	-200.000	0.027	-0.251
-566.602	-41.875	0.059	-0.030
-565.588	42.333	0.203	-0.184
-564.573	-200.000	-0.008	-0.067
-563.558	3.154	-0.183	0.132
-562.544	-200.000	-0.002	-0.099
-561.529	-110.136	0.326	0.068
-560.515	-87.001	0.143	-0.043
-559.500	800.000	0.029	-0.085
-558.485	154.139	-0.098	0.133
-557.471	-3.231	0.121	0.084
-556.456	-106.086	-0.196	0.044
-555.442	-113.102	-0.385	0.076
-554.427	-200.000	0.034	-0.230
-553.412	-61.579	-0.649	-0.271
-552.398	323.853	-0.112	-0.212
-551.383	51.267	-0.359	-0.339
-550.369	56.483	-0.096	-0.092
-549.354	-11.333	0.160	0.105
-548.339	278.637	-0.042	0.075
-547.325	-17.990	0.102	-0.063
-546.310	-93.674	-0.291	0.080
-545.296	54.678	-0.225	0.215
-544.281	-200.000	0.009	0.145
-543.266	59.417	0.325	0.318
-542.252	134.673	-0.264	-0.340
-541.237	352.511	0.042	-0.082
-540.223	-25.726	-0.079	0.046
-539.208	-62.170	-0.298	-0.123
-538.193	74.732	-0.060	-0.063
-537.179	461.399	0.114	-0.252
-536.164	-200.000	-0.017	-0.187
-535.150	-4.516	0.314	-0.215
-534.135	800.000	-0.057	0.162
-533.121	-46.674	-0.391	0.190
-532.106	-200.000	0.019	-0.353
-531.091	215.999	0.266	-0.420
-530.077	-17.123	-0.238	-0.149
-529.062	360.258	0.116	0.231
-528.048	-0.712	-0.291	-0.205
-527.033	-107.362	-0.247	0.054
-526.018	15.294	-0.139	0.108
-525.004	25.612	0.144	0.119
-523.989	125.452	-0.122	0.153
-522.975	102.668	-0.127	0.147
-521.960	61.999	-0.179	-0.177
-520.945	-200.000	0.029	-0.233
-519.931	194.863	0.173	-0.260
-518.916	-200.000	0.007	0.056
-517.902	449.160	-0.101	-0.220
-516.887	8.649	0.239	-0.178
-515.872	21.064	0.314	-0.253
-514.858	-200.000	0.025	-0.231
-513.843	412.459	-0.125	-0.264
-512.829	221.404	-0.176	-0.280
-511.814	475.613	-0.122	0.273
-510.799	-52.266	0.168	-0.077
-509.785	133.534	0.054	0.070
-508.770	-26.810	-0.212	-0.123
-507.756	-200.000	0.024	0.363
-506.741	6.585	-0.086	0.063
-505.726	68.780	0.224	0.228
-504.712	-175.756	0.145	-0.004
-503.697	163.911	0.090	0.126
-502.683	-122.783	0.222	0.036
-501.668	-70.982	0.042	0.016
-500.653	-200.000	-0.043	-0.253
-499.639	-4.877	0.291	-0.199
-498.624	-200.000	-0.021	0.118
-497.610	-200.000	0.025	-0.372
-496.595	-200.000	0.282	-0.001
-495.581	-11.377	-0.174	0.114
-494.566	395.831	0.112	-0.232
-493.551	800.000	0.018	-0.062
-492.537	800.000	0.053	-0.171
-491.522	456.755	0.159	0.350
-490.508	230.879	-0.071	0.116
-489.493	-70.943	0.304	-0.114
-488.478	352.951	0.131	-0.257
-487.464	145.762	0.168	0.223
-486.449	800.000	0.037	0.125
-485.435	-130.528	0.179	-0.024
-484.420	-200.000	-0.034	-0.213
-483.405	-84.409	-0.432	-0.135
-482.391	-159.283	0.139	0.008
-481.376	-200.000	-0.030	0.211
-480.362	15.855	0.073	0.057
-479.347	-38.243	0.207	0.109
-478.332	-200.000	0.014	-0.124
-477.318	-97.017	0.178	0.046
-476.303	-200.000	-0.109	-0.599
-475.289	66.115	0.177	0.178
-474.274	154.025	-0.115	0.157
-473.259	-88.376	-0.247	0.073
-472.245	-149.672	-0.236	0.018
-471.230	520.875	-0.077	0.179
-470.216	-200.000	-0.000	0.209
-469.201	-157.360	0.113	0.007
-468.186	117.028	0.060	0.073
-467.172	82.698	-0.026	-0.028
-466.157	-200.000	0.027	-0.178
-465.143	-32.503	-0.330	0.182
-464.128	295.121	0.157	-0.285
-463.113	-111.175	-0.387	-0.078
-462.099	-183.037	-0.388	-0.007
-461.084	10.124	0.266	-0.201
-460.070	-149.177	0.064	-0.005
-459.055	32.911	-0.258	-0.221
-458.040	16.781	0.160	0.125
-457.026	325.283	0.157	-0.297
-456.011	800.000	-0.086	0.297
-454.997	-53.934	0.108	-0.049
-453.982	-196.850	-0.570	0.004
-452.968	800.000	-0.080	0.343
-451.953	293.532	0.076	-0.137
-450.938	15.370	-0.243	-0.189
-449.924	30.418	-0.213	0.180
-448.909	99.916	0.014	-0.015
-447.895	-60.923	-0.203	0.085
-446.880	-200.000	0.000	0.152
-445.865	-83.523	0.231	-0.073
-444.851	-69.791	-0.037	-0.014
-443.836	388.035	0.117	0.240
-442.822	-200.000	0.001	0.279
-441.807	39.095	-0.221	-0.195
-440.792	800.000	0.053	-0.170
-439.778	-117.146	-0.227	0.041
-438.763	-126.375	0.195	-0.029
-437.749	140.682	0.107	-0.140
-436.734	-157.068	-0.233	0.014
-435.719	-116.174	-0.226	-0.041
-434.705	800.000	0.059	0.192
-433.690	-190.927	0.271	0.003
-432.676	149.744	-0.135	-0.181
-431.661	-175.781	0.218	0.006
-430.646	193.555	0.081	0.121
-429.632	800.000	-0.054	-0.174
-428.617	-142.697	0.267	-0.026
-427.603	-182.594	-0.221	0.004
-426.588	-19.402	0.190	-0.117
-425.573	-200.000	0.010	0.177
-424.559	800.000	0.014	-0.038
-423.544	-34.599	-0.220	-0.119
-422.530	-19.381	0.171	0.105
-421.515	-30.984	-0.325	0.181
-420.500	800.000	-0.120	-0.426
-419.486	103.153	0.208	0.241
-418.471	524.216	0.175	0.407
-417.457	800.000	-0.084	0.304
-416.442	7.363	-0.138	0.102
-415.428	-143.956	-0.187	0.017
-414.413	169.988	-0.101	-0.142
-413.398	-178.248	-0.186	-0.004
-412.384	-200.000	-0.063	0.357
-411.369	-200.000	0.056	-0.256
-410.355	-4.679	0.200	-0.136
-409.340	466.992	0.071	0.157
-408.325	229.856	-0.011	-0.018
-407.311	83.601	0.090	0.097
-406.296	-37.376	-0.132	0.070
-405.282	-85.139	0.090	0.028
-404.267	438.507	-0.053	0.114
-403.252	176.136	-0.244	0.350
-402.238	612.695	-0.079	-0.195
-401.223	-73.099	-0.192	0.070
-400.209	-94.560	0.211	-0.057
-399.194	116.945	-0.051	-0.062
-398.179	-92.780	0.147	-0.041
-397.165	-200.000	0.024	0.169
-396.150	-30.361	-0.131	-0.073
-395.136	620.995	-0.033	0.083
-394.121	800.000	-0.081	0.275
-393.106	800.000	0.036	0.116
-392.092	800.000	0.035	-0.127
-391.077	-138.522	-0.271	0.029
-390.063	436.916	-0.026	0.056
-389.048	-116.752	0.219	0.040
-388.033	-91.522	0.239	0.067
-387.019	282.532	0.098	-0.173
-386.004	-139.092	0.156	-0.017
-384.990	-89.030	-0.382	0.112
-383.975	78.471	0.028	-0.030
-382.960	19.288	0.331	0.262
-381.946	-200.000	-0.047	0.208
-380.931	-122.567	-0.076	0.012
-379.917	-22.224	-0.127	0.076
-378.902	-200.000	-0.010	-0.128
-377.888	335.619	-0.159	-0.304
-376.873	-47.670	0.167	-0.080
-375.858	-200.000	0.065	0.325
-374.844	120.626	-0.218	0.267
-373.829	-153.679	-0.158	-0.011
-372.815	330.707	0.135	0.256
-371.800	-160.586	-0.340	-0.018
-370.785	256.704	0.019	-0.033
-369.771	99.612	0.270	-0.308
-368.756	16.741	0.028	-0.022
-367.742	-200.000	-0.046	-0.307
-366.727	-200.000	-0.010	-0.184
-365.712	543.026	-0.019	0.045
-364.698	24.897	-0.124	-0.101
-363.683	44.764	-0.168	-0.153
-362.669	306.437	-0.078	-0.143
-361.654	276.128	0.221	0.386
-360.639	-88.674	-0.469	-0.138
-359.625	173.711	0.105	0.149
-358.610	142.047	-0.233	-0.305
-357.596	-16.343	-0.104	-0.065
-356.581	-101.841	0.049	0.012
-355.566	-107.437	-0.373	0.081
-354.552	325.742	0.039	-0.073
-353.537	-200.000	-0.015	-0.257
-352.523	594.353	0.173	-0.421
-351.508	-44.967	-0.432	-0.212
-350.493	800.000	-0.076	-0.225
-349.479	-200.000	0.035	-0.394
-348.464	411.830	-0.081	-0.169
-347.450	800.000	0.100	-0.393
-346.435	222.239	0.160	0.254
-345.420	225.776	-0.113	0.181
-344.406	-87.122	0.290	0.087
-343.391	-28.147	-0.215	-0.123
-342.377	-134.280	-0.272	-0.033
-341.362	-200.000	-0.031	0.332
-340.348	-139.616	-0.188	0.020
-339.333	-60.067	-0.244	-0.103
-338.318	68.031	0.230	0.232
-337.304	328.497	-0.119	-0.225
-336.289	-42.214	0.377	-0.190
-335.275	-174.777	0.254	0.007
-334.260	-45.898	0.341	-0.166
-333.245	-39.237	0.143	-0.074
-332.231	-59.606	-0.198	0.084
-331.216	85.458	0.255	0.276
-330.202	-43.268	0.292	-0.145
-329.187	-80.210	-0.277	-0.091
-328.172	238.865	-0.170	-0.279
-327.158	-200.000	-0.004	0.042
-326.143	-149.691	-0.239	0.019
-325.129	164.345	0.058	0.080
-324.114	-128.762	-0.204	0.028
-323.099	85.153	0.222	-0.240
-322.085	83.686	0.164	0.176
-321.070	210.196	0.216	0.334
-320.056	800.000	-0.064	-0.200
-319.041	121.855	-0.051	0.063
-318.026	74.021	-0.303	-0.313
-317.012	336.822	0.006	0.011
-315.997	40.655	-0.236	-0.210
-314.983	-6.572	0.199	0.133
-313.968	-40.591	0.110	0.056
-312.953	800.000	-0.081	0.246
-311.939	-60.072	0.124	-0.052
-310.924	-200.000	-0.013	-0.355
-309.910	-14.747	0.405	0.256
-308.895	-95.041	-0.312	-0.083
-307.880	204.267	-0.077	0.118
-306.866	-151.368	0.327	0.024
-305.851	-200.000	-0.066	-0.339
-304.837	800.000	-0.003	-0.009
-303.822	314.649	-0.049	0.091
-302.807	53.252	0.211	0.199
-301.793	137.714	-0.281	0.362
-300.778	-145.278	0.346	-0.031
-299.764	84.244	0.077	0.083
-298.749	800.000	0.093	0.265
-297.735	800.000	-0.090	-0.290
-296.720	-28.418	-0.350	0.199
-295.705	-171.492	0.078	-0.003
-294.691	-162.105	-0.254	0.013
-293.676	632.043	0.135	0.337
-292.662	-139.347	0.303	0.032
-291.647	366.763	0.185	0.366
-290.632	-133.098	-0.101	0.013
-289.618	-109.788	0.118	-0.024
-288.603	800.000	0.052	-0.188
-287.589	800.000	0.069	0.208
-286.574	217.096	-0.124	0.194
-285.559	-46.574	0.200	-0.096
-284.545	-100.804	0.125	-0.030
-283.530	360.446	0.094	-0.185
-282.516	226.528	-0.180	-0.287
-281.501	-150.861	-0.034	-0.003
-280.486	-200.000	0.021	-0.161
-279.472	-28.091	0.235	-0.134
-278.457	-200.000	0.044	-0.384
-277.443	-200.000	-0.046	-0.273
-276.428	-35.394	-0.150	0.080
-275.413	327.837	0.026	-0.048
-274.399	-121.717	0.176	-0.029
-273.384	-113.552	-0.280	-0.054
-272.370	800.000	-0.108	0.332
-271.355	-145.425	0.319	-0.028
-270.340	17.693	0.135	-0.106
-269.326	157.401	-0.094	0.128
-268.311	-20.525	-0.364	0.220
-267.297	-200.000	-0.053	0.369
-266.282	245.650	0.143	0.237
-265.267	-27.091	0.381	0.218
-264.253	800.000	-0.081	-0.314
-263.238	-200.000	0.048	0.275
-262.224	-66.007	0.096	0.038
-261.209	-91.695	-0.530	0.148
-260.195	730.380	0.137	0.361
-259.180	-101.622	0.428	0.102
-258.165	-161.511	0.308	0.016
-257.151	-128.626	0.137	-0.019
-256.136	-56.311	0.184	-0.080
-255.122	-200.000	-0.015	0.156
-254.107	800.000	0.005	-0.017
-253.092	-163.743	0.203	0.009
-252.078	-109.736	0.331	0.068
-251.063	33.667	-0.109	0.093
-250.049	-63.274	-0.366	0.148
-249.034	-132.067	0.291	-0.037
-248.019	-98.324	-0.278	0.070
-247.005	-12.018	-0.285	-0.184
-245.990	-137.022	0.344	-0.039
-244.976	-67.427	-0.159	-0.061
-243.961	71.600	-0.116	0.118
-242.946	-23.368	-0.110	0.065
-241.932	33.049	0.329	-0.280
-240.917	-42.544	-0.278	0.139
-239.903	151.978	0.181	0.243
-238.888	600.105	0.133	0.325
-237.873	-17.364	-0.368	-0.228
-236.859	-200.000	0.031	-0.188
-235.844	-7.927	0.111	-0.074
-234.830	800.000	0.021	0.086
-233.815	-149.272	0.266	-0.021
-232.800	-89.320	-0.408	-0.118
-231.786	-102.428	-0.116	-0.027
-230.771	-200.000	-0.007	0.347
-229.757	56.386	0.146	0.139
-228.742	-32.858	-0.244	0.133
-227.727	-99.528	0.219	0.054
-226.713	34.714	0.044	0.038
-225.698	3.538	0.252	0.180
-224.684	253.492	0.089	-0.149
-223.669	14.748	0.260	-0.200
-222.655	-17.736	0.188	0.116
-221.640	-173.039	0.272	-0.008
-220.625	90.621	0.100	-0.109
-219.611	800.000	-0.063	0.250
-218.596	327.312	0.093	0.175
-217.582	39.371	-0.154	0.136
-216.567	-74.175	0.252	0.089
-215.552	-92.058	0.106	0.030
-214.538	-104.590	0.137	-0.031
-213.523	-3.962	-0.246	-0.167
-212.509	-107.144	-0.190	-0.041
-211.494	-200.000	-0.040	-0.314
-210.479	247.304	0.181	-0.300
-209.465	-57.576	-0.219	-0.094
-208.450	51.742	0.272	0.253
-207.436	-74.463	0.206	-0.073
-206.421	-91.403	-0.207	-0.058
-205.406	-200.000	0.012	0.068
-204.392	-135.183	-0.256	0.030
-203.377	54.759	-0.245	0.232
-202.363	-200.000	-0.006	0.307
-201.348	39.987	0.204	0.180
-200.333	353.410	-0.041	-0.081
-199.319	136.542	-0.196	-0.251
-198.304	-200.000	0.005	-0.064
-197.290	-200.000	0.014	-0.230
-196.275	-200.000	-0.016	-0.135
-195.260	-74.383	-0.245	0.087
-194.246	-200.000	0.103	-0.507
-193.231	-165.450	-0.214	0.009
-192.217	-200.000	0.011	0.049
-191.202	-22.993	-0.191	-0.113
-190.187	-38.349	0.234	0.121
-189.173	-42.402	0.307	0.154
-188.158	-61.500	0.231	-0.095
-187.144	-200.000	-0.030	-0.156
-186.129	610.255	-0.010	0.024
-185.114	-69.420	0.351	0.132
-184.100	97.563	-0.142	0.159
-183.085	116.749	-0.121	-0.146
-182.071	-200.000	-0.036	-0.180
-181.056	131.111	-0.041	-0.051
-180.042	-200.000	-0.013	0.111
-179.027	-26.827	-0.054	0.031
-178.012	-161.827	0.042	-0.002
-176.998	-200.000	0.012	0.065
-175.983	95.239	-0.144	-0.160
-174.969	-85.533	0.200	-0.061
-173.954	147.978	-0.116	0.153
-172.939	509.801	-0.143	0.325
-171.925	156.903	0.289	-0.390
-170.910	-80.367	-0.142	0.046
-169.896	-110.074	0.353	0.072
-168.881	723.042	0.026	-0.069
-167.866	-155.154	0.165	-0.011
-166.852	800.000	-0.054	0.161
-165.837	-73.403	0.297	0.106
-164.823	143.799	0.095	0.124
-163.808	209.234	-0.089	-0.136
-162.793	24.414	0.110	0.089
-161.779	-74.505	-0.187	-0.066
-160.764	-89.539	0.031	0.009
-159.750	-200.000	0.090	0.449
-158.735	-46.120	0.168	0.081
-157.720	158.962	-0.196	0.266
-156.706	-200.000	0.067	-0.429
-155.691	-33.364	-0.231	0.125
-154.677	-122.072	-0.305	-0.049
-153.662	82.671	0.283	0.301
-152.647	28.480	0.198	0.164
-151.633	6.593	0.059	0.043
-150.618	-116.673	0.171	-0.031
-149.604	-194.034	-0.056	-0.000
-148.589	-16.837	-0.271	0.168
-147.574	148.527	-0.024	0.032
-146.560	-34.147	0.353	0.190
-145.545	-25.345	0.065	-0.038
-144.531	800.000	0.020	-0.060
-143.516	-25.225	0.213	0.123
-142.502	80.623	-0.228	0.240
-141.487	40.198	0.074	-0.065
-140.472	557.478	-0.042	-0.100
-139.458	490.932	-0.110	-0.245
-138.443	-53.301	0.379	0.170
-137.429	791.971	-0.135	0.364
-136.414	38.832	0.182	0.159
-135.399	-145.677	-0.168	-0.015
-134.385	-59.550	0.161	-0.068
-133.370	-200.000	0.027	-0.359
-132.356	-12.220	0.294	-0.188
-131.341	401.510	0.080	-0.164
-130.326	-200.000	0.026	-0.276
-129.312	-67.356	0.365	0.140
-128.297	351.506	0.045	-0.087
-127.283	570.372	-0.033	-0.079
-126.268	12.042	0.205	-0.154
-125.253	137.174	-0.094	-0.120
-124.239	20.616	-0.108	-0.085
-123.224	178.115	-0.192	-0.273
-122.210	76.076	0.217	0.224
-121.195	-39.834	0.043	0.022
-120.180	29.113	-0.131	0.108
-119.166	-188.465	0.293	-0.004
-118.151	-184.297	-0.280	-0.005
-117.137	35.332	0.159	0.136
-116.122	-10.223	-0.074	0.048
-115.107	-192.066	0.141	0.001
-114.093	-50.073	-0.361	0.167
-113.078	31.175	-0.362	0.303
-112.064	232.629	0.115	-0.184
-111.049	-200.000	0.078	-0.361
-110.034	-130.311	-0.213	-0.028
-109.020	-200.000	-0.067	-0.407
-108.005	-200.000	0.027	-0.174
-106.991	-200.000	-0.087	0.594
-105.976	-200.000	-0.002	0.088
-104.962	-200.000	-0.032	-0.236
-103.947	-34.078	0.260	0.140
-102.932	560.531	0.089	0.210
-101.918	441.020	-0.144	-0.307
-100.903	-5.689	-0.097	-0.065
-99.889	62.854	-0.185	-0.180
-98.874	48.269	-0.107	0.098
-97.859	-200.000	0.019	0.318
-96.845	75.078	0.068	-0.070
-95.830	179.619	0.202	0.289
-94.816	328.164	-0.131	0.246
-93.801	-115.649	-0.210	0.038
-92.786	-200.000	0.029	-0.223
-91.772	-93.398	0.578	-0.156
-90.757	-96.199	-0.183	-0.047
-89.743	-200.000	0.019	0.216
-88.728	800.000	-0.015	-0.042
-87.713	-200.000	0.013	0.075
-86.699	-188.371	0.086	-0.001
-85.684	-20.948	0.128	0.076
-84.670	-90.305	-0.216	0.061
-83.655	-8.888	0.267	0.174
-82.640	-122.585	0.180	-0.029
-81.626	83.275	0.248	-0.264
-80.611	800.000	0.103	-0.393
-79.597	367.430	0.121	0.238
-78.582	81.265	0.339	-0.357
-77.567	44.187	0.033	0.030
-76.553	212.719	0.158	-0.243
-75.538	-200.000	0.020	-0.293
-74.524	202.621	-0.093	-0.140
-73.509	5.562	0.085	-0.061
-72.494	-200.000	0.071	0.310
-71.480	-133.006	-0.137	-0.017
-70.465	-97.234	-0.264	-0.067
-69.451	19.548	-0.112	-0.088
-68.436	-200.000	-0.009	-0.218
-67.422	247.309	0.109	-0.180
-66.407	-3.523	0.058	-0.039
-65.392	-200.000	0.005	0.298
-64.378	267.074	-0.095	-0.162
-63.363	196.110	-0.095	0.141
-62.349	-200.000	-0.032	0.149
-61.334	98.055	-1.119	-1.256
-60.319	15.163	0.831	0.635
-59.305	462.569	-0.545	-1.185
-58.290	237.235	0.876	1.415
-57.276	614.727	0.543	1.326
-56.261	-200.000	134.249	663.651
-55.246	329.475	1678.663	3146.638
-54.232	131.078	2825.823	3535.848
-53.217	87.804	2191.297	2366.559
-52.203	32.645	1613.687	1359.953
-51.188	24.406	1358.447	1094.500
-50.173	22.068	1320.947	1050.286
-49.159	49.514	1395.889	1280.406
-48.144	46.135	1405.183	1268.070
-47.130	24.522	1351.288	1089.268
-46.115	21.312	1331.781	1054.167
-45.100	21.190	1326.275	1049.037
-44.086	21.132	1323.837	1046.717
-43.071	21.040	1321.042	1043.916
-42.057	21.027	1319.547	1042.616
-41.042	21.084	1317.620	1041.395
-40.027	21.190	1316.363	1040.993
-39.013	21.090	1314.587	1038.949
-37.998	21.184	1312.300	1037.659
-36.984	21.190	1310.945	1036.580
-35.969	21.265	1309.087	1035.518
-34.954	21.084	1308.099	1033.619
-33.940	21.310	1306.243	1033.449
-32.925	21.192	1305.334	1031.992
-31.911	21.248	1303.477	1030.812
-30.896	21.292	1302.516	1030.275
-29.881	21.281	1300.996	1028.964
-28.867	21.346	1299.268	1027.939
-27.852	21.441	1297.904	1027.381
-26.838	21.311	1296.945	1025.818
-25.823	21.254	1295.880	1024.599
-24.809	21.255	1293.835	1022.946
-23.794	21.150	1293.145	1021.745
-22.779	21.146	1292.047	1020.813
-21.765	21.214	1290.464	1019.918
-20.750	21.331	1288.338	1018.880
-19.736	21.157	1287.620	1017.259
-18.721	21.154	1286.345	1016.191
-17.706	21.175	1285.398	1015.527
-16.692	21.127	1284.165	1014.237
-15.677	21.117	1282.858	1013.101
-14.663	21.159	1281.655	1012.355
-13.648	21.165	1280.468	1011.411
-12.633	21.194	1279.357	1010.662
-11.619	21.204	1279.106	1010.481
-10.604	21.141	1278.114	1009.296
-9.590	21.121	1277.855	1008.935
-8.575	21.065	1276.649	1007.621
-7.560	21.119	1275.859	1007.269
-6.546	21.082	1274.793	1006.175
-5.531	21.017	1274.273	1005.347
-4.517	21.049	1273.475	1004.863
-3.502	21.115	1272.470	1004.411
-2.487	21.201	1271.068	1003.759
-1.473	21.114	1266.869	999.904
-0.458	19.864	1252.156	981.167
0.556	15.821	1237.661	948.090
1.571	12.468	1247.363	936.367
2.586	11.924	1262.714	944.672
3.600	12.017	1249.960	935.579
4.615	8.829	1177.469	864.075
5.629	3.304	1106.085	783.569
6.644	0.755	1089.578	759.024
7.659	0.501	1088.166	756.696
8.673	0.562	1087.042	756.154
9.688	0.542	1085.872	755.172
10.702	0.715	1083.238	754.138
11.717	4.069	1086.911	773.396
12.731	10.549	1095.278	811.805
13.746	15.426	1101.758	841.033
14.761	17.085	1103.268	850.430
15.775	16.414	1101.546	845.669
16.790	15.465	1099.554	839.321
17.804	14.779	1098.049	834.674
18.819	14.435	1097.099	832.160
19.834	14.164	1096.558	830.321
20.848	13.960	1095.457	828.397
21.863	13.745	1094.276	826.363
22.877	13.626	1093.798	825.334
23.892	13.508	1093.275	824.280
24.907	13.502	1092.248	823.400
25.921	13.580	1091.553	823.191
26.936	13.559	1090.651	822.335
27.950	13.622	1089.533	821.735
28.965	13.576	1088.639	820.756
29.980	13.748	1086.847	820.183
30.994	13.614	1085.860	818.704
32.009	13.750	1084.889	818.569
33.023	13.718	1083.988	817.662
34.038	13.718	1082.433	816.416
35.053	13.636	1082.247	815.799
36.067	13.656	1080.815	814.746
37.082	13.731	1079.768	814.254
38.096	13.678	1079.476	813.701
39.111	13.612	1079.096	813.021
40.126	13.676	1077.606	812.139
41.140	13.638	1076.147	810.783
42.155	13.552	1075.177	809.557
43.169	13.450	1074.285	808.318
44.184	13.495	1073.043	807.530
45.199	13.475	1071.957	806.547
46.213	13.521	1070.708	805.757
47.228	13.531	1069.794	805.047
48.242	13.523	1068.629	804.061
49.257	13.668	1067.481	803.829
50.271	13.584	1066.701	802.762
51.286	13.671	1065.807	802.438
52.301	13.601	1065.036	801.450
53.315	13.617	1063.519	800.314
54.330	13.613	1062.741	799.638
55.344	13.589	1061.981	798.881
56.359	13.557	1061.291	798.135
57.374	13.545	1060.278	797.246
58.388	13.540	1059.226	796.360
59.403	13.530	1058.179	795.458
60.417	13.590	1057.412	795.095
61.432	13.450	1056.984	794.033
62.447	13.540	1055.910	793.589
63.461	13.528	1054.956	792.744
64.476	13.502	1054.241	792.012
65.490	13.388	1053.297	790.688
66.505	13.514	1052.445	790.581
67.520	13.579	1052.113	790.570
68.534	13.561	1050.976	789.561
69.549	13.548	1050.274	788.900
70.563	13.435	1049.325	787.581
71.578	13.559	1048.627	787.576
72.593	13.429	1047.624	786.135
73.607	13.456	1047.117	785.815
74.622	13.499	1046.487	785.475
75.636	13.468	1045.948	784.853
76.651	13.458	1045.144	784.135
77.666	13.382	1044.633	783.323
78.680	13.327	1043.918	782.456
79.695	13.514	1042.471	782.186
80.709	13.361	1042.605	781.496
81.724	13.622	1041.791	782.045
82.739	13.575	1040.914	781.100
83.753	13.669	1039.356	780.301
84.768	13.687	1038.841	779.931
85.782	13.705	1038.071	779.368
86.797	13.642	1036.949	778.159
87.812	13.582	1036.134	777.201
88.826	13.591	1035.108	776.404
89.841	13.497	1034.230	775.237
90.855	13.572	1033.039	774.625
91.870	13.705	1032.410	774.708
92.884	13.720	1031.868	774.301
93.899	13.731	1030.885	773.546
94.914	13.743	1029.960	772.839
95.928	13.759	1029.142	772.232
96.943	13.691	1028.616	771.452
97.957	13.572	1027.862	770.264
98.972	13.754	1026.580	770.080
99.987	13.634	1026.034	769.047
101.001	13.666	1025.186	768.490
102.016	13.679	1024.003	767.598
103.030	13.777	1023.026	767.252
104.045	13.698	1021.972	766.027
105.060	13.599	1021.554	765.189
106.074	13.761	1019.953	764.670
107.089	13.569	1019.464	763.351
108.103	13.774	1017.931	763.079
109.118	13.572	1017.350	761.647
110.133	13.549	1016.628	760.934
111.147	13.650	1015.441	760.439
112.162	13.637	1014.753	759.796
113.176	13.659	1013.910	759.201
114.191	13.685	1013.523	758.961
115.206	13.706	1012.522	758.243
116.220	13.631	1011.733	757.239
117.235	13.590	1010.851	756.327
118.249	13.589	1009.959	755.587
119.264	13.759	1008.931	755.525
120.279	13.735	1007.970	754.629
121.293	13.536	1007.801	753.530
122.308	13.543	1006.806	752.755
123.322	13.700	1005.043	752.083
124.337	13.660	1003.922	750.994
125.352	13.664	1002.818	750.120
126.366	13.609	1002.465	749.539
127.381	13.572	1001.047	748.247
128.395	13.658	1000.251	747.973
129.410	13.500	999.085	746.325
130.424	13.757	997.932	746.552
131.439	13.683	997.651	745.943
132.454	13.744	996.586	745.356
133.468	13.540	996.112	744.020
134.483	13.848	994.675	744.262
135.497	13.657	994.233	743.007
136.512	13.745	993.262	742.611
137.527	13.674	992.560	741.702
138.541	13.769	991.682	741.405
139.556	13.700	991.150	740.636
140.570	13.699	990.485	740.070
141.585	13.837	989.594	739.949
142.600	13.924	988.681	739.590
143.614	13.852	987.741	738.503
144.629	13.848	986.944	737.822
145.643	13.806	986.097	736.936
146.658	13.775	985.037	735.945
147.673	13.760	984.318	735.274
148.687	13.717	983.532	734.432
149.702	13.826	982.481	734.064
150.716	13.785	981.713	733.244
151.731	13.800	981.120	732.802
152.746	13.812	980.402	732.253
153.760	13.971	979.649	732.330
154.775	14.049	979.124	732.213
155.789	13.845	978.818	731.023
156.804	13.971	977.573	730.582
157.819	13.896	977.161	729.879
158.833	14.013	976.406	729.767
159.848	13.885	975.743	728.643
160.862	13.968	974.727	728.182
161.877	14.093	973.416	727.689
162.892	13.991	972.550	726.530
163.906	13.880	971.606	725.274
164.921	13.850	971.147	724.736
165.935	14.036	970.105	724.708
166.950	13.910	969.260	723.463
167.964	14.049	968.282	723.276
168.979	13.995	967.349	722.276
169.994	13.998	966.509	721.600
171.008	14.007	965.864	721.094
172.023	14.147	964.908	720.921
173.037	14.126	963.982	720.075
174.052	14.029	964.024	719.623
175.067	14.083	962.899	718.954
176.081	13.974	962.596	718.193
177.096	14.040	961.855	717.862
178.110	14.122	960.667	717.267
179.125	14.163	960.163	717.002
180.140	14.144	959.845	716.621
181.154	14.122	959.665	716.326
182.169	14.201	958.703	715.884
183.183	14.310	958.235	715.939
184.198	14.248	957.363	714.961
185.213	14.240	956.465	714.193
186.227	14.241	955.744	713.593
187.242	14.278	955.248	713.320
188.256	14.408	954.587	713.318
189.271	14.234	953.743	711.881
190.286	14.176	953.214	711.175
191.300	14.174	952.130	710.294
192.315	14.210	952.020	710.304
193.329	14.112	951.797	709.655
194.344	14.171	950.827	709.122
195.359	14.312	949.651	708.782
196.373	14.216	949.255	708.015
197.388	14.308	948.949	708.118
198.402	14.449	948.269	708.145
199.417	14.433	947.798	707.662
200.432	14.442	947.178	707.175
201.446	14.386	946.778	706.578
202.461	14.595	945.741	706.627
203.475	14.553	945.114	705.916
204.490	14.519	944.304	705.104
205.504	14.410	944.160	704.475
206.519	14.450	942.981	703.703
207.534	14.507	942.167	703.271
208.548	14.459	941.980	702.870
209.563	14.580	940.915	702.522
210.577	14.555	940.548	702.078
211.592	14.658	939.593	701.736
212.607	14.661	938.695	701.020
213.621	14.678	938.132	700.607
214.636	14.526	937.501	699.436
215.650	14.691	936.726	699.488
216.665	14.703	935.964	698.906
217.680	14.772	935.334	698.661
218.694	14.750	934.716	698.049
219.709	14.842	933.528	697.483
220.723	14.781	933.202	696.922
221.738	14.843	932.431	696.545
222.753	14.842	931.756	695.976
223.767	14.709	931.466	695.141
224.782	14.778	930.941	694.977
225.796	14.823	930.260	694.594
226.811	14.818	929.553	693.981
227.826	14.927	928.468	693.565
228.840	14.962	927.373	692.828
229.855	14.910	927.045	692.308
230.869	14.732	926.560	691.148
231.884	14.803	925.922	690.902
232.899	14.934	924.860	690.589
233.913	14.878	924.250	689.843
234.928	14.787	923.657	688.964
235.942	14.844	922.892	688.566
236.957	14.917	922.279	688.349
237.972	14.865	922.118	687.955
238.986	14.909	921.159	687.357
240.001	14.826	920.835	686.716
241.015	14.851	920.048	686.172
242.030	15.102	918.939	686.310
243.045	15.052	918.506	685.721
244.059	14.917	918.181	684.868
245.074	15.051	917.414	684.781
246.088	15.147	916.530	684.454
247.103	14.993	916.423	683.684
248.117	15.118	915.463	683.417
249.132	15.217	915.147	683.527
250.147	15.189	914.176	682.628
251.161	15.275	913.780	682.621
252.176	15.163	913.027	681.540
253.190	15.210	912.418	681.218
254.205	15.179	911.804	680.574
255.220	15.209	911.114	680.119
256.234	15.353	910.334	680.061
257.249	15.228	909.654	678.987
258.263	15.259	908.885	678.476
259.278	15.420	908.236	678.584
260.293	15.496	907.377	678.187
261.307	15.381	907.111	677.466
262.322	15.480	906.486	677.338
263.336	15.404	905.505	676.238
264.351	15.562	904.710	676.222
265.366	15.512	904.465	675.780
266.380	15.478	903.814	675.094
267.395	15.600	903.073	674.972
268.409	15.641	902.105	674.354
269.424	15.644	900.944	673.437
270.439	15.611	900.430	672.863
271.453	15.553	899.784	672.088
272.468	15.516	899.516	671.678
273.482	15.568	898.388	670.985
274.497	15.749	897.947	671.320
275.512	15.546	897.521	670.130
276.526	15.547	897.485	670.051
277.541	15.708	896.357	669.790
278.555	15.709	896.146	669.578
279.570	15.697	895.133	668.712
280.585	15.773	894.198	668.257
281.599	15.681	893.738	667.488
282.614	15.626	893.052	666.701
283.628	15.733	892.535	666.677
284.643	15.703	891.901	666.028
285.657	15.770	891.322	665.799
286.672	15.755	890.567	665.117
287.687	15.898	889.785	665.043
288.701	15.742	889.471	664.130
289.716	15.866	889.135	664.312
290.730	15.884	888.203	663.628
291.745	16.002	887.211	663.291
292.760	16.045	886.889	663.162
293.774	15.908	886.489	662.266
294.789	15.979	885.233	661.545
295.803	16.023	885.158	661.604
296.818	16.024	884.125	660.779
297.833	16.003	883.480	660.155
298.847	16.003	882.574	659.419
299.862	16.066	882.208	659.334
300.876	16.064	881.604	658.816
301.891	16.174	880.896	658.660
302.906	16.067	880.752	658.077
303.920	16.171	879.996	657.858
304.935	16.351	879.046	657.791
305.949	16.156	878.845	656.823
306.964	16.182	878.191	656.377
307.979	16.238	877.782	656.231
308.993	16.152	877.121	655.343
310.008	16.195	876.398	654.915
311.022	16.308	875.525	654.643
312.037	16.216	874.959	653.804
313.052	16.176	874.834	653.496
314.066	16.191	874.196	653.023
315.081	16.139	873.291	652.086
316.095	16.250	872.774	652.071
317.110	16.120	872.313	651.168
318.125	16.356	871.516	651.427
319.139	16.241	871.279	650.746
320.154	16.279	870.743	650.434
321.168	16.306	870.080	649.986
322.183	16.394	869.562	649.880
323.197	16.285	869.528	649.378
324.212	16.424	868.866	649.360
325.227	16.316	868.040	648.270
326.241	16.321	867.634	647.931
327.256	16.490	866.864	647.946
328.270	16.226	866.807	646.834
329.285	16.279	865.752	646.193
330.300	16.458	864.584	645.949
331.314	16.329	864.359	645.228
332.329	16.385	864.260	645.312
333.343	16.373	863.939	644.968
334.358	16.380	863.257	644.429
335.373	16.491	862.730	644.402
336.387	16.388	862.877	644.063
337.402	16.433	862.389	643.813
338.416	16.605	861.935	644.072
339.431	16.688	861.108	643.712
340.446	16.640	860.924	643.336
341.460	16.684	860.837	643.381
342.475	16.639	860.246	642.709
343.489	16.748	859.515	642.521
344.504	16.803	859.204	642.441
345.519	16.814	858.519	641.913
346.533	16.683	858.376	641.254
347.548	16.879	857.256	641.101
348.562	16.695	857.116	640.243
349.577	16.734	856.263	639.696
350.592	16.717	855.684	639.144
351.606	16.687	855.196	638.612
352.621	16.767	854.408	638.268
353.635	16.704	853.904	637.598
354.650	16.777	853.139	637.243
355.665	16.890	852.124	636.855
356.679	16.921	851.635	636.548
357.694	16.896	850.997	635.920
358.708	16.834	850.498	635.259
359.723	16.939	850.001	635.226
360.738	16.975	849.364	634.830
361.752	17.000	848.763	634.416
362.767	16.813	848.768	633.666
363.781	17.133	847.749	634.042
364.796	17.054	847.203	633.284
365.810	17.057	846.950	633.051
366.825	17.097	846.758	632.998
367.840	17.074	846.128	632.388
368.854	17.280	845.287	632.469
369.869	17.135	845.135	631.761
370.883	17.157	844.688	631.451
371.898	16.957	844.483	630.497
372.913	17.158	843.943	630.786
373.927	17.226	843.259	630.472
374.942	17.030	842.985	629.484
375.956	17.160	842.595	629.618
376.971	17.285	842.328	629.828
377.986	17.200	841.767	629.036
379.000	17.269	841.407	628.967
380.015	17.268	840.573	628.285
381.029	17.191	840.253	627.704
382.044	17.441	839.253	627.824
383.059	17.515	838.622	627.570
384.073	17.440	838.288	626.989
385.088	17.368	837.532	626.103
386.102	17.286	836.918	625.288
387.117	17.372	836.497	625.233
388.132	17.364	835.912	624.713
389.146	17.375	835.458	624.358
390.161	17.517	834.667	624.232
391.175	17.470	834.329	623.751
392.190	17.552	833.998	623.750
393.205	17.572	833.251	623.207
394.219	17.480	833.238	622.808
395.234	17.429	832.600	622.090
396.248	17.442	832.149	621.743
397.263	17.618	831.787	622.061
398.278	17.404	831.434	620.962
399.292	17.529	830.947	620.998
400.307	17.768	830.142	621.213
401.321	17.527	829.852	620.064
402.336	17.720	829.255	620.264
403.350	17.636	828.900	619.637
404.365	17.621	828.759	619.423
405.380	17.550	828.153	618.657
406.394	17.834	827.012	618.780
407.409	17.760	826.901	618.375
408.423	17.752	826.777	618.197
409.438	17.635	826.588	617.577
410.453	17.931	825.798	618.003
411.467	17.949	825.306	617.647
412.482	17.942	824.776	617.170
413.496	17.907	824.340	616.662
414.511	17.840	824.272	616.315
415.526	17.948	823.646	616.182
416.540	17.961	823.023	615.708
417.555	17.929	823.026	615.542
418.569	18.055	822.141	615.277
419.584	18.034	822.200	615.194
420.599	18.017	821.339	614.432
421.613	115.030	1300.668	1489.546
422.628	99.820	1370.446	1489.603
