DTS Sentinel unit serial number:	SN413079Multiplexer serial number:	ORYXHardware model number:	OX4-SRSoftware version number:	ORYX F/W v4.00 Oryx Data Collector v3.7.2.0data status	okinstallation	princeton_trtdifferential loss correction	single-endedforward channel	channel 1reverse channel	N/Adate	2019/09/19time	07:02:35forward acquisition time	60.00reverse acquisition time	0.00gamma	496.2192k internal	0.2342k external	0.2342temperature offset calibration	1.0019default loss term (dB/km)	0.3790temperature slope calibration	1.0000multiplexer offset coefficient	1.0000multiplexer slope coefficient	1.0000fibre end	0.00T internal ref (°C)	19.00T ext. ref 1 (°C)	0.56T ext. ref 2 (°C)	13.05length (m)	temperature (°C)	Stokes	anti-Stokes-747.200	308.479	0.119	0.223
-746.185	214.733	-0.201	0.319
-745.171	-26.991	0.118	-0.069
-744.156	-148.356	-0.244	0.020
-743.142	-200.000	0.033	0.401
-742.127	43.343	0.083	0.076
-741.112	800.000	0.121	0.353
-740.098	321.602	0.062	0.119
-739.083	-102.448	0.155	0.037
-738.069	-200.000	-0.018	0.203
-737.054	-102.484	0.160	-0.038
-736.039	-76.409	-0.571	-0.201
-735.025	-200.000	0.019	0.222
-734.010	-72.840	-0.336	-0.124
-732.996	11.395	-0.302	-0.232
-731.981	-190.388	0.172	-0.002
-730.966	-49.248	0.128	0.061
-729.952	-1.854	-0.232	0.164
-728.937	131.276	-0.150	-0.192
-727.923	-124.846	-0.320	-0.049
-726.908	52.637	0.261	0.249
-725.894	-33.084	0.166	-0.092
-724.879	-128.615	-0.308	-0.044
-723.864	496.477	0.127	-0.292
-722.850	606.455	0.094	-0.235
-721.835	69.521	0.094	0.097
-720.821	-67.803	-0.203	-0.079
-719.806	-200.000	-0.026	0.294
-718.791	-25.732	-0.224	0.132
-717.777	7.513	0.146	-0.109
-716.762	584.039	0.058	0.143
-715.748	129.824	0.134	-0.172
-714.733	45.350	-0.072	-0.066
-713.718	-200.000	-0.026	-0.155
-712.704	346.145	0.050	0.098
-711.689	-158.557	0.246	-0.014
-710.675	530.155	0.111	-0.263
-709.660	-123.855	-0.058	0.009
-708.645	345.258	0.163	-0.320
-707.631	-200.000	-0.032	-0.183
-706.616	77.285	0.108	0.115
-705.602	54.748	-0.141	0.136
-704.587	41.296	0.313	-0.283
-703.572	435.997	0.152	-0.330
-702.558	26.941	-0.056	0.047
-701.543	39.142	0.034	-0.031
-700.529	-187.460	0.062	-0.001
-699.514	-44.231	0.142	0.071
-698.499	286.368	0.138	-0.250
-697.485	-127.253	0.329	-0.048
-696.470	-130.625	-0.420	-0.057
-695.456	-200.000	0.001	-0.392
-694.441	-55.861	-0.148	-0.066
-693.426	-12.767	-0.105	0.069
-692.412	-40.408	-0.357	-0.186
-691.397	36.782	-0.078	0.069
-690.383	-120.457	0.306	-0.052
-689.368	-40.678	-0.277	-0.143
-688.354	-58.511	-0.196	-0.085
-687.339	244.673	-0.044	-0.074
-686.324	229.507	0.040	0.065
-685.310	-99.080	-0.235	-0.059
-684.295	380.791	-0.053	0.109
-683.281	409.267	-0.051	-0.108
-682.266	-130.318	0.181	0.025
-681.251	207.746	0.172	0.269
-680.237	-200.000	0.026	-0.161
-679.222	-200.000	-0.029	0.131
-678.208	368.121	0.141	-0.284
-677.193	74.301	-0.200	0.210
-676.178	800.000	0.055	0.161
-675.164	431.957	0.055	-0.119
-674.149	800.000	-0.075	-0.310
-673.135	24.884	0.183	0.151
-672.120	83.396	-0.042	-0.046
-671.105	-7.831	0.082	-0.055
-670.091	220.547	0.148	0.237
-669.076	-128.491	-0.382	0.054
-668.062	-54.634	0.121	0.054
-667.047	-200.000	-0.005	-0.051
-666.032	99.719	-0.315	-0.364
-665.018	800.000	-0.077	-0.329
-664.003	-76.793	-0.179	0.063
-662.989	27.973	-0.015	-0.013
-661.974	-200.000	-0.002	-0.352
-660.959	800.000	0.139	-0.498
-659.945	-40.733	0.119	0.062
-658.930	-200.000	0.006	-0.343
-657.916	-132.424	0.162	0.021
-656.901	-52.224	-0.335	-0.155
-655.886	119.701	-0.230	-0.285
-654.872	-200.000	0.031	-0.233
-653.857	-200.000	-0.025	-0.221
-652.843	800.000	-0.080	-0.225
-651.828	-200.000	-0.003	0.123
-650.814	194.516	0.041	0.062
-649.799	92.698	-0.109	-0.123
-648.784	-62.854	-0.088	-0.036
-647.770	117.147	-0.388	-0.476
-646.755	60.212	0.107	-0.105
-645.741	257.224	0.170	0.292
-644.726	-77.751	-0.230	-0.079
-643.711	-71.491	-0.052	0.019
-642.697	59.650	-0.023	0.023
-641.682	354.531	-0.018	0.036
-640.668	-56.863	-0.125	-0.055
-639.653	-147.970	0.150	-0.012
-638.638	800.000	0.151	-0.497
-637.624	-200.000	-0.020	-0.236
-636.609	-200.000	0.010	-0.217
-635.595	-113.964	0.289	0.056
-634.580	22.610	0.237	0.193
-633.565	5.776	-0.381	-0.281
-632.551	-137.933	0.100	-0.011
-631.536	193.784	-0.076	-0.115
-630.522	-54.886	-0.175	0.079
-629.507	18.562	0.220	0.175
-628.492	-145.402	-0.201	-0.018
-627.478	37.741	0.275	0.243
-626.463	-200.000	0.029	-0.212
-625.449	196.094	0.174	-0.264
-624.434	-87.114	-0.351	0.106
-623.419	104.910	0.263	0.310
-622.405	800.000	-0.012	0.050
-621.390	56.527	-0.235	-0.228
-620.376	74.749	-0.035	0.037
-619.361	-32.204	-0.252	0.140
-618.346	-95.965	0.408	0.108
-617.332	-200.000	-0.061	0.281
-616.317	-49.078	-0.159	-0.076
-615.303	-200.000	0.014	0.301
-614.288	800.000	0.056	0.159
-613.273	-17.707	-0.192	0.120
-612.259	10.280	-0.105	0.079
-611.244	68.648	0.176	-0.180
-610.230	149.539	0.101	-0.137
-609.215	-58.011	0.305	0.133
-608.201	-200.000	0.039	-0.345
-607.186	800.000	0.051	-0.175
-606.171	-126.466	-0.292	-0.043
-605.157	-113.115	0.095	0.019
-604.142	-110.036	0.296	-0.062
-603.128	-27.237	0.186	0.108
-602.113	46.214	0.120	-0.111
-601.098	800.000	-0.052	0.216
-600.084	-188.112	0.144	0.002
-599.069	-200.000	-0.026	0.216
-598.055	-118.469	-0.096	-0.017
-597.040	27.854	0.060	0.050
-596.025	800.000	0.044	0.127
-595.011	800.000	-0.063	0.180
-593.996	398.395	0.080	0.167
-592.982	-52.834	-0.149	0.069
-591.967	-122.037	0.241	-0.039
-590.952	-200.000	0.030	-0.372
-589.938	156.067	0.151	-0.207
-588.923	-200.000	-0.029	0.244
-587.909	73.922	-0.039	0.040
-586.894	-64.879	0.173	-0.070
-585.879	86.554	-0.052	0.058
-584.865	111.522	-0.121	-0.146
-583.850	-103.645	0.019	-0.005
-582.836	-123.938	0.490	-0.077
-581.821	-103.592	0.085	0.020
-580.806	-82.126	-0.259	0.084
-579.792	-122.184	-0.103	0.017
-578.777	800.000	0.020	0.058
-577.763	800.000	0.047	-0.203
-576.748	-22.170	0.089	-0.054
-575.733	482.442	0.029	-0.065
-574.719	-200.000	0.020	0.206
-573.704	-200.000	-0.007	-0.098
-572.690	402.047	-0.120	-0.251
-571.675	8.379	-0.115	0.086
-570.661	-23.857	0.286	-0.170
-569.646	199.480	0.165	0.251
-568.631	448.023	-0.084	0.184
-567.617	-45.827	-0.103	0.051
-566.602	49.157	-0.119	0.111
-565.588	-93.698	0.180	-0.049
-564.573	-200.000	0.014	0.130
-563.558	800.000	0.042	-0.154
-562.544	-87.207	0.078	0.024
-561.529	280.869	0.138	-0.245
-560.515	80.514	0.232	-0.249
-559.500	220.343	0.144	-0.230
-558.485	-9.158	0.022	-0.015
-557.471	-107.241	-0.085	-0.019
-556.456	263.970	-0.025	-0.044
-555.442	295.912	0.087	-0.159
-554.427	-78.694	0.196	-0.067
-553.412	287.445	0.096	-0.172
-552.398	-200.000	-0.024	-0.154
-551.383	291.672	0.022	0.039
-550.369	-200.000	0.020	0.233
-549.354	-89.710	-0.123	0.036
-548.339	-200.000	-0.029	-0.175
-547.325	410.949	-0.113	0.239
-546.310	166.309	-0.096	-0.135
-545.296	189.555	-0.118	0.176
-544.281	-200.000	-0.001	0.105
-543.266	167.135	-0.307	-0.433
-542.252	-44.600	-0.258	0.128
-541.237	-134.371	0.193	-0.024
-540.223	-200.000	0.017	-0.195
-539.208	-200.000	0.018	0.135
-538.193	452.023	0.174	-0.383
-537.179	-200.000	0.019	0.135
-536.164	-43.110	0.276	-0.139
-535.150	92.506	0.092	-0.103
-534.135	17.087	-0.081	0.063
-533.121	-150.954	-0.251	-0.019
-532.106	-92.299	-0.379	0.106
-531.091	-39.731	0.344	0.179
-530.077	-151.817	-0.099	-0.007
-529.062	-200.000	-0.025	0.141
-528.048	21.879	0.232	0.188
-527.033	-79.151	-0.213	0.072
-526.018	-58.773	0.147	0.063
-525.004	326.267	-0.036	-0.069
-523.989	-200.000	-0.012	-0.102
-522.975	26.715	-0.122	-0.101
-521.960	49.576	0.157	0.147
-520.945	-164.929	-0.229	0.010
-519.931	43.267	0.189	-0.171
-518.916	800.000	-0.059	-0.200
-517.902	-11.937	-0.177	-0.116
-516.887	-200.000	0.040	0.279
-515.872	-95.416	-0.106	-0.028
-514.858	-200.000	0.019	0.104
-513.843	-89.303	0.305	0.089
-512.829	242.315	-0.081	-0.134
-511.814	-53.251	-0.274	-0.125
-510.799	-131.984	0.114	-0.015
-509.785	-114.847	-0.366	0.069
-508.770	-102.916	-0.305	-0.072
-507.756	-102.790	-0.246	0.058
-506.741	-91.839	0.295	0.083
-505.726	-194.329	-0.063	0.001
-504.712	113.631	-0.077	0.093
-503.697	149.509	-0.200	-0.269
-502.683	-120.749	0.155	-0.026
-501.668	290.146	0.153	-0.276
-500.653	311.738	0.073	0.135
-499.639	-116.055	0.333	0.062
-498.624	309.133	0.185	-0.342
-497.610	756.705	-0.126	-0.339
-496.595	-87.367	-0.385	0.116
-495.581	-72.991	-0.137	0.050
-494.566	505.078	0.034	-0.079
-493.551	-200.000	-0.012	-0.128
-492.537	645.811	0.088	-0.224
-491.522	11.993	0.210	0.160
-490.508	21.463	-0.049	-0.040
-489.493	-153.084	0.361	0.025
-488.478	104.584	-0.152	-0.177
-487.464	-173.270	0.032	0.001
-486.449	422.171	0.173	0.368
-485.435	-43.541	-0.398	-0.199
-484.420	-107.705	-0.398	0.086
-483.405	800.000	0.082	-0.285
-482.391	-96.377	-0.195	-0.051
-481.376	514.598	-0.062	-0.143
-480.362	-100.259	0.244	-0.060
-479.347	-121.016	-0.257	-0.043
-478.332	-158.072	-0.285	-0.017
-477.318	-50.457	0.116	0.054
-476.303	-200.000	-0.014	-0.118
-475.289	-200.000	0.031	0.161
-474.274	-56.218	0.292	0.129
-473.259	32.058	-0.140	-0.120
-472.245	-133.195	0.261	0.033
-471.230	167.336	-0.185	-0.260
-470.216	432.820	-0.056	0.121
-469.201	-42.565	-0.221	0.112
-468.186	79.344	-0.237	0.252
-467.172	-128.468	-0.104	0.015
-466.157	342.582	0.067	-0.131
-465.143	251.660	-0.230	0.388
-464.128	-10.911	0.060	0.040
-463.113	-99.209	-0.285	0.071
-462.099	399.783	0.100	0.207
-461.084	-147.554	-0.170	0.014
-460.070	786.750	0.099	0.270
-459.055	205.144	-0.164	0.252
-458.040	-159.357	0.063	-0.004
-457.026	-84.826	0.156	-0.049
-456.011	-161.730	-0.372	0.019
-454.997	-200.000	0.026	0.144
-453.982	-123.755	0.106	0.017
-452.968	41.511	-0.122	0.110
-451.953	-22.520	0.145	-0.087
-450.938	-47.339	0.158	0.076
-449.924	79.072	0.222	-0.236
-448.909	245.957	-0.040	-0.067
-447.895	-200.000	0.032	-0.247
-446.880	-98.726	0.108	0.027
-445.865	318.112	-0.139	-0.261
-444.851	3.831	-0.376	0.272
-443.836	-137.161	-0.281	0.032
-442.822	-1.055	-0.163	-0.114
-441.807	-82.065	0.602	0.195
-440.792	800.000	-0.065	0.186
-439.778	379.309	-0.054	-0.110
-438.763	162.922	0.188	-0.262
-437.749	328.668	-0.248	-0.472
-436.734	-77.118	-0.400	-0.138
-435.719	-200.000	-0.008	-0.048
-434.705	3.229	0.077	0.055
-433.690	800.000	-0.135	0.463
-432.676	305.881	-0.102	0.188
-431.661	-144.656	0.212	0.019
-430.646	-8.626	0.116	-0.077
-429.632	-20.472	-0.249	-0.152
-428.617	-60.036	-0.132	-0.056
-427.603	-15.394	0.111	-0.070
-426.588	132.919	0.123	-0.158
-425.573	98.177	-0.094	-0.107
-424.559	-200.000	0.033	0.386
-423.544	152.477	0.259	0.349
-422.530	611.770	0.082	-0.203
-421.515	-29.639	0.330	0.186
-420.500	-200.000	-0.020	0.109
-419.486	25.103	0.189	0.155
-418.471	83.519	0.069	0.074
-417.457	-82.278	-0.295	-0.095
-416.442	315.126	-0.117	-0.218
-415.428	-200.000	-0.029	-0.259
-414.413	-8.735	-0.099	-0.066
-413.398	312.377	-0.081	-0.150
-412.384	-200.000	-0.054	-0.240
-411.369	-114.356	0.194	-0.037
-410.355	46.523	0.352	-0.322
-409.340	-200.000	-0.019	-0.250
-408.325	800.000	0.112	-0.362
-407.311	800.000	-0.031	-0.130
-406.296	-128.275	-0.098	0.014
-405.282	-51.500	0.156	0.072
-404.267	-200.000	0.004	0.223
-403.252	800.000	0.037	-0.120
-402.238	207.958	-0.197	-0.304
-401.223	-200.000	-0.011	-0.050
-400.209	-165.319	-0.234	0.010
-399.194	-24.565	-0.239	-0.140
-398.179	800.000	-0.143	-0.396
-397.165	6.592	0.111	0.081
-396.150	241.549	0.055	-0.091
-395.136	-8.695	0.028	0.019
-394.121	-148.266	-0.134	-0.011
-393.106	173.266	-0.101	0.144
-392.092	575.975	-0.197	-0.475
-391.077	60.188	0.177	-0.172
-390.063	188.112	-0.059	-0.087
-389.048	-103.518	-0.345	-0.080
-388.033	-158.148	0.083	0.005
-387.019	714.192	-0.088	-0.230
-386.004	-159.977	-0.357	-0.019
-384.990	-200.000	0.037	0.246
-383.975	-200.000	-0.013	0.075
-382.960	102.862	-0.065	-0.076
-381.946	-82.563	-0.153	0.049
-380.931	-94.806	0.209	-0.056
-379.917	134.893	-0.106	0.135
-378.902	-200.000	0.029	0.182
-377.888	31.048	0.178	0.151
-376.873	109.079	-0.102	-0.121
-375.858	-56.225	0.263	0.115
-374.844	-20.903	0.328	0.199
-373.829	-82.556	0.146	0.047
-372.815	-181.268	-0.353	0.007
-371.800	106.801	-0.307	0.360
-370.785	-200.000	-0.002	0.234
-369.771	62.363	0.183	0.180
-368.756	-28.222	-0.278	-0.159
-367.742	-13.924	-0.105	-0.067
-366.727	-200.000	0.012	-0.106
-365.712	-63.178	-0.246	0.100
-364.698	800.000	-0.045	-0.157
-363.683	-84.705	-0.106	0.033
-362.669	-200.000	0.023	-0.195
-361.654	264.731	-0.034	0.058
-360.639	158.845	-0.137	0.188
-359.625	-47.037	-0.016	0.008
-358.610	800.000	-0.026	0.081
-357.596	58.908	-0.041	0.040
-356.581	-147.527	-0.258	0.021
-355.566	-76.004	-0.262	-0.091
-354.552	96.624	-0.168	0.190
-353.537	700.199	0.089	-0.231
-352.523	46.819	-0.216	0.198
-351.508	-200.000	-0.044	0.250
-350.493	-90.592	-0.086	0.025
-349.479	-153.737	0.306	-0.021
-348.464	36.075	-0.154	-0.133
-347.450	-46.656	-0.214	-0.104
-346.435	46.766	-0.179	-0.164
-345.420	-200.000	0.019	-0.107
-344.406	354.925	0.208	0.407
-343.391	361.948	0.053	-0.105
-342.377	-19.005	-0.101	-0.062
-341.362	-60.436	0.184	-0.077
-340.348	6.001	-0.299	-0.218
-339.333	-103.774	0.099	0.023
-338.318	689.521	-0.015	0.039
-337.304	-134.722	0.317	0.038
-336.289	800.000	0.077	0.240
-335.275	549.837	-0.089	0.211
-334.260	-80.414	-0.261	0.086
-333.245	82.634	-0.168	-0.180
-332.231	800.000	-0.041	-0.155
-331.216	146.551	0.226	-0.299
-330.202	257.613	0.090	-0.153
-329.187	282.645	-0.053	-0.094
-328.172	-134.957	-0.115	0.014
-327.158	-200.000	-0.014	0.064
-326.143	172.602	-0.042	-0.060
-325.129	-186.934	0.059	0.001
-324.114	-200.000	0.003	0.226
-323.099	-96.606	-0.178	-0.046
-322.085	-3.034	-0.249	0.171
-321.070	11.581	-0.110	0.083
-320.056	51.559	-0.249	0.233
-319.041	800.000	-0.002	0.007
-318.026	0.276	-0.131	-0.092
-317.012	800.000	-0.048	0.137
-315.997	800.000	-0.218	0.603
-314.983	-81.592	-0.194	-0.063
-313.968	704.284	0.029	-0.076
-312.953	-200.000	0.022	0.110
-311.939	517.132	0.145	-0.335
-310.924	2.840	0.095	-0.068
-309.910	-170.139	0.146	0.005
-308.895	-200.000	0.022	0.256
-307.880	-80.630	-0.168	-0.055
-306.866	-115.462	0.100	0.019
-305.851	76.126	-0.147	0.153
-304.837	51.337	-0.292	0.273
-303.822	21.147	-0.049	0.039
-302.807	-121.133	-0.156	-0.026
-301.793	-96.529	0.156	-0.041
-300.778	231.668	-0.042	-0.068
-299.764	-48.097	-0.099	-0.047
-298.749	501.362	0.061	-0.139
-297.735	-106.612	0.320	0.070
-296.720	-200.000	-0.007	-0.087
-295.705	408.355	-0.079	0.165
-294.691	-200.000	0.055	0.297
-293.676	69.341	0.368	0.373
-292.662	2.467	0.201	0.143
-291.647	63.392	-0.230	-0.227
-290.632	-95.442	0.149	-0.039
-289.618	-52.160	0.036	-0.016
-288.603	143.248	-0.032	0.043
-287.589	-129.287	-0.295	0.040
-286.574	-200.000	0.013	0.091
-285.559	800.000	0.061	-0.235
-284.545	16.879	0.269	0.209
-283.530	358.846	0.099	0.195
-282.516	-11.894	0.108	0.070
-281.501	-26.081	-0.307	-0.178
-280.486	0.311	0.287	-0.202
-279.472	800.000	0.061	0.229
-278.457	800.000	-0.087	-0.267
-277.443	800.000	-0.057	0.191
-276.428	-138.992	-0.364	0.039
-275.413	-200.000	-0.027	-0.127
-274.399	-53.744	-0.096	0.043
-273.384	-178.388	0.301	0.007
-272.370	172.480	-0.129	-0.183
-271.355	-2.739	-0.133	0.092
-270.340	252.417	-0.062	0.104
-269.326	-200.000	-0.015	-0.197
-268.311	-76.939	0.071	-0.024
-267.297	105.435	-0.059	-0.068
-266.282	-200.000	0.014	0.333
-265.267	-68.703	-0.117	-0.045
-264.253	-90.804	-0.140	0.040
-263.238	-200.000	-0.004	-0.198
-262.224	633.154	0.044	0.110
-261.209	-108.177	0.373	0.079
-260.195	800.000	0.050	0.165
-259.180	-105.237	0.144	-0.032
-258.165	-95.643	-0.179	0.047
-257.151	326.889	-0.196	0.370
-256.136	30.735	-0.107	0.090
-255.122	-200.000	-0.031	-0.255
-254.107	-17.472	0.270	0.167
-253.092	363.391	0.115	0.227
-252.078	45.661	0.128	-0.117
-251.063	-177.389	0.348	-0.008
-250.049	-200.000	0.006	0.136
-249.034	-66.090	0.139	-0.055
-248.019	-110.906	0.277	0.056
-247.005	800.000	0.006	-0.022
-245.990	-200.000	0.022	0.100
-244.976	-65.182	-0.180	-0.071
-243.961	165.441	0.062	0.087
-242.946	-76.071	-0.063	0.022
-241.932	800.000	0.061	0.169
-240.917	800.000	0.013	-0.038
-239.903	800.000	0.117	-0.476
-238.888	39.025	0.237	-0.208
-237.873	171.237	-0.131	0.185
-236.859	523.708	-0.142	0.327
-235.844	-200.000	-0.026	0.185
-234.830	56.133	0.110	0.105
-233.815	767.534	0.063	-0.169
-232.800	157.697	-0.044	0.060
-231.786	-200.000	-0.011	-0.156
-230.771	250.885	0.155	-0.259
-229.757	182.163	0.073	0.106
-228.742	-200.000	-0.034	0.203
-227.727	-200.000	-0.053	-0.419
-226.713	-191.968	0.166	-0.002
-225.698	-141.720	0.078	-0.008
-224.684	-200.000	0.195	0.001
-223.669	-200.000	-0.005	0.215
-222.655	28.191	0.151	0.125
-221.640	-99.950	0.191	0.047
-220.625	765.157	0.015	-0.040
-219.611	319.993	0.175	-0.326
-218.596	-30.615	-0.121	0.067
-217.582	-102.907	0.123	-0.029
-216.567	-200.000	-0.033	0.175
-215.552	40.793	0.202	-0.179
-214.538	-150.095	0.373	-0.028
-213.523	14.856	-0.097	0.074
-212.509	700.533	0.061	0.157
-211.494	800.000	-0.081	0.242
-210.479	-127.046	-0.208	0.030
-209.465	114.127	0.159	0.190
-208.450	-129.588	-0.067	0.009
-207.436	-158.307	0.118	0.007
-206.421	152.064	0.119	0.160
-205.406	184.421	0.110	0.160
-204.392	21.777	0.166	0.133
-203.377	799.610	0.011	-0.030
-202.363	52.690	0.169	-0.158
-201.348	800.000	0.119	0.339
-200.333	-95.160	-0.300	0.079
-199.319	-80.758	0.190	0.062
-198.304	84.020	-0.132	-0.141
-197.290	-200.000	-0.017	0.257
-196.275	421.181	0.164	-0.344
-195.260	265.511	-0.223	-0.381
-194.246	-156.239	0.139	-0.009
-193.231	-200.000	-0.026	-0.168
-192.217	-200.000	0.034	0.250
-191.202	53.253	0.453	0.425
-190.187	63.769	0.075	0.074
-189.173	800.000	0.102	-0.302
-188.158	474.361	-0.034	-0.075
-187.144	800.000	0.040	-0.127
-186.129	-158.429	0.365	0.021
-185.114	494.801	0.129	0.291
-184.100	-200.000	-0.001	-0.033
-183.085	-200.000	-0.050	-0.298
-182.071	800.000	0.096	0.284
-181.056	396.140	0.164	-0.336
-180.042	-124.384	-0.215	0.033
-179.027	660.560	-0.100	0.253
-178.012	-62.473	0.020	-0.008
-176.998	-200.000	0.066	-0.445
-175.983	-46.311	0.241	-0.116
-174.969	-5.039	-0.277	0.187
-173.954	229.649	0.172	-0.275
-172.939	34.591	-0.052	-0.044
-171.925	800.000	0.029	0.087
-170.910	62.189	0.168	0.164
-169.896	92.437	-0.066	0.073
-168.881	-42.507	0.254	-0.127
-167.866	311.404	0.018	0.033
-166.852	672.000	0.118	0.300
-165.837	800.000	0.030	0.086
-164.823	21.208	0.190	-0.151
-163.808	-56.346	-0.143	0.062
-162.793	108.014	0.060	0.070
-161.779	-8.162	0.411	0.271
-160.764	-65.074	-0.331	-0.131
-159.750	-171.444	-0.398	0.013
-158.735	338.960	-0.139	0.265
-157.720	-19.906	0.262	0.158
-156.706	9.700	0.159	0.118
-155.691	-118.903	-0.285	-0.049
-154.677	-200.000	-0.018	0.146
-153.662	-173.646	0.105	-0.003
-152.647	-97.489	-0.124	-0.032
-151.633	800.000	0.060	-0.213
-150.618	-200.000	0.030	-0.169
-149.604	-111.463	-0.109	-0.022
-148.589	49.068	-0.063	0.058
-147.574	-72.278	0.266	-0.096
-146.560	-52.765	-0.525	-0.237
-145.545	-16.511	-0.073	-0.045
-144.531	314.733	0.158	0.292
-143.516	-50.805	-0.165	-0.076
-142.502	-193.154	0.164	-0.001
-141.487	800.000	-0.048	0.200
-140.472	-161.902	-0.257	-0.013
-139.458	-81.224	0.284	-0.092
-138.443	8.426	-0.191	0.140
-137.429	-8.969	-0.110	-0.072
-136.414	-12.732	0.046	0.029
-135.399	-200.000	0.025	-0.138
-134.385	-124.714	-0.177	-0.027
-133.370	112.017	-0.249	-0.295
-132.356	73.389	-0.163	0.167
-131.341	-103.959	0.331	-0.075
-130.326	-200.000	-0.007	0.131
-129.312	-124.676	-0.189	0.029
-128.297	160.862	-0.030	0.040
-127.283	46.709	-0.239	-0.217
-126.268	-11.413	-0.131	-0.084
-125.253	-35.592	-0.250	-0.132
-124.239	91.817	0.295	-0.325
-123.224	-200.000	0.031	-0.189
-122.210	-200.000	0.006	0.185
-121.195	800.000	0.069	0.204
-120.180	-68.389	-0.541	0.205
-119.166	264.223	-0.089	-0.151
-118.151	-200.000	-0.001	0.042
-117.137	366.714	-0.090	-0.178
-116.122	-115.463	0.215	-0.040
-115.107	-200.000	-0.005	-0.191
-114.093	21.710	0.318	-0.253
-113.078	291.208	0.047	0.084
-112.064	-149.421	-0.150	-0.012
-111.049	-4.350	0.054	0.036
-110.034	5.927	0.105	0.076
-109.020	118.161	0.067	0.081
-108.005	-72.063	0.408	0.148
-106.991	-53.170	-0.064	0.029
-105.976	50.320	0.129	0.119
-104.962	48.702	0.159	0.145
-103.947	89.788	-0.067	0.073
-102.932	-20.346	0.172	0.103
-101.918	390.370	-0.058	-0.117
-100.903	536.630	-0.102	0.237
-99.889	365.787	0.057	0.111
-98.874	-200.000	0.012	0.129
-97.859	-85.136	0.349	-0.107
-96.845	-200.000	0.032	-0.166
-95.830	176.164	0.301	0.426
-94.816	-132.087	0.077	0.010
-93.801	17.959	0.211	0.164
-92.786	672.942	-0.105	0.266
-91.772	800.000	-0.045	0.177
-90.757	-68.444	0.186	-0.070
-89.743	-163.969	-0.194	0.009
-88.728	-110.338	0.342	0.069
-87.713	-200.000	-0.035	0.155
-86.699	-200.000	0.034	0.168
-85.684	592.636	-0.128	0.308
-84.670	-80.862	-0.142	-0.046
-83.655	-200.000	-0.014	-0.225
-82.640	120.405	-0.136	-0.165
-81.626	-110.546	0.134	0.027
-80.611	-136.181	-0.249	0.028
-79.597	19.972	0.042	0.033
-78.582	103.726	-0.202	-0.232
-77.567	-101.418	-0.121	0.029
-76.553	24.582	0.061	-0.050
-75.538	-66.859	-0.188	0.073
-74.524	-102.505	0.279	-0.065
-73.509	-71.094	-0.310	-0.114
-72.494	-200.000	0.018	-0.139
-71.480	322.326	0.029	-0.054
-70.465	13.214	0.112	-0.085
-69.451	20.429	0.261	-0.206
-68.436	-200.000	-0.027	-0.156
-67.422	445.881	0.150	0.322
-66.407	280.307	-0.188	-0.327
-65.392	94.236	-0.209	-0.232
-64.378	174.506	-0.113	-0.160
-63.363	134.017	-0.095	0.120
-62.349	-137.834	0.219	-0.024
-61.334	121.765	-1.041	-1.266
-60.319	-0.576	1.008	0.698
-59.305	594.987	-0.617	-1.489
-58.290	131.962	1.259	1.580
-57.276	359.850	0.758	1.478
-56.261	-200.000	136.046	629.293
-55.246	345.939	1633.888	3131.437
-54.232	137.473	2770.624	3534.742
-53.217	81.336	2154.026	2269.349
-52.203	29.648	1589.806	1318.870
-51.188	21.981	1341.977	1066.835
-50.173	20.065	1308.054	1028.463
-49.159	46.938	1381.932	1252.380
-48.144	42.085	1391.068	1230.880
-47.130	22.026	1339.475	1064.947
-46.115	19.180	1320.777	1032.996
-45.100	19.006	1315.946	1028.134
-44.086	18.888	1313.372	1025.377
-43.071	18.911	1310.790	1023.457
-42.057	18.843	1308.633	1021.332
-41.042	18.912	1306.866	1020.322
-40.027	18.867	1305.720	1019.120
-39.013	18.889	1303.565	1017.528
-37.998	18.958	1301.491	1016.274
-36.984	18.937	1300.233	1015.130
-35.969	19.023	1298.110	1013.940
-34.954	19.002	1296.479	1012.501
-33.940	19.007	1295.578	1011.788
-32.925	19.106	1293.964	1011.065
-31.911	19.185	1292.142	1010.064
-30.896	19.116	1290.904	1008.656
-29.881	19.091	1289.893	1007.680
-28.867	19.117	1288.220	1006.482
-27.852	19.103	1286.505	1005.022
-26.838	19.069	1285.453	1003.962
-25.823	19.116	1283.848	1002.942
-24.809	19.209	1282.700	1002.545
-23.794	19.085	1281.541	1000.880
-22.779	19.025	1280.089	999.359
-21.765	19.121	1278.913	998.957
-20.750	19.073	1277.442	997.491
-19.736	19.001	1276.384	996.208
-18.721	18.881	1275.065	994.443
-17.706	18.964	1273.883	993.964
-16.692	19.026	1272.745	993.395
-15.677	19.022	1271.436	992.308
-14.663	18.942	1270.306	990.929
-13.648	18.870	1269.939	990.187
-12.633	18.980	1268.378	989.565
-11.619	18.990	1267.817	989.142
-10.604	18.966	1267.184	988.473
-9.590	18.907	1266.270	987.383
-8.575	18.901	1264.922	986.257
-7.560	18.745	1264.381	984.902
-6.546	18.889	1263.587	985.066
-5.531	18.897	1262.580	984.288
-4.517	18.966	1262.299	984.428
-3.502	18.872	1261.425	983.166
-2.487	18.945	1259.962	982.406
-1.473	18.925	1255.407	978.702
-0.458	17.288	1240.424	957.765
0.556	13.080	1225.322	922.239
1.571	9.835	1232.913	909.603
2.586	9.126	1248.755	917.165
3.600	9.368	1235.744	908.894
4.615	7.035	1164.707	844.137
5.629	2.639	1097.019	772.877
6.644	0.686	1081.606	752.238
7.659	0.496	1079.749	749.932
8.673	0.537	1078.667	749.322
9.688	0.511	1077.327	748.192
10.702	0.801	1074.623	747.685
11.717	3.386	1077.306	762.284
12.731	9.324	1085.359	797.433
13.746	15.049	1092.425	831.054
14.761	17.133	1095.169	843.426
15.775	16.480	1093.592	838.900
16.790	15.479	1091.573	832.316
17.804	14.852	1089.666	827.685
18.819	14.529	1089.156	825.625
19.834	14.466	1088.040	824.397
20.848	14.012	1087.007	821.297
21.863	13.946	1085.663	819.883
22.877	13.615	1085.799	818.279
23.892	13.604	1084.771	817.375
24.907	13.619	1084.302	817.027
25.921	13.643	1083.475	816.450
26.936	13.731	1082.637	816.177
27.950	13.704	1081.145	814.850
28.965	13.866	1079.821	814.571
29.980	13.838	1078.742	813.549
30.994	13.843	1077.850	812.828
32.009	13.778	1076.907	811.728
33.023	13.833	1075.749	811.051
34.038	13.838	1074.424	810.008
35.053	13.800	1074.236	809.605
36.067	13.757	1073.037	808.424
37.082	13.742	1072.360	807.767
38.096	13.819	1071.649	807.533
39.111	13.843	1070.523	806.730
40.126	13.602	1069.756	804.913
41.140	13.615	1068.334	803.833
42.155	13.550	1067.193	802.588
43.169	13.716	1065.842	802.305
44.184	13.567	1065.056	800.923
45.199	13.644	1063.886	800.341
46.213	13.613	1062.738	799.261
47.228	13.597	1062.170	798.685
48.242	13.746	1060.491	798.069
49.257	13.662	1059.708	797.005
50.271	13.729	1058.805	796.579
51.286	13.764	1057.847	795.955
52.301	13.718	1057.264	795.223
53.315	13.668	1056.299	794.189
54.330	13.562	1055.241	792.814
55.344	13.588	1054.337	792.193
56.359	13.695	1053.297	791.852
57.374	13.464	1052.603	790.155
58.388	13.532	1051.711	789.742
59.403	13.558	1050.795	789.105
60.417	13.702	1049.961	789.097
61.432	13.517	1049.777	788.007
62.447	13.512	1048.500	786.954
63.461	13.500	1047.636	786.182
64.476	13.574	1046.529	785.630
65.490	13.535	1046.235	785.155
66.505	13.528	1045.219	784.290
67.520	13.517	1044.978	783.987
68.534	13.670	1043.485	783.521
69.549	13.556	1043.351	782.814
70.563	13.664	1042.011	782.247
71.578	13.478	1041.730	781.093
72.593	13.551	1040.679	780.577
73.607	13.509	1040.166	779.927
74.622	13.507	1039.457	779.314
75.636	13.594	1038.362	778.836
76.651	13.528	1038.107	778.268
77.666	13.460	1037.322	777.289
78.680	13.666	1036.150	777.309
79.695	13.629	1035.309	776.434
80.709	13.527	1035.593	776.099
81.724	13.482	1034.497	774.999
82.739	13.669	1033.335	774.938
83.753	13.797	1032.740	775.020
84.768	13.786	1031.696	774.113
85.782	13.695	1030.995	773.097
86.797	13.732	1029.680	772.215
87.812	13.615	1029.249	771.277
88.826	13.662	1028.451	770.830
89.841	13.676	1027.583	770.177
90.855	13.823	1026.456	769.944
91.870	13.644	1025.770	768.533
92.884	13.794	1024.508	768.212
93.899	13.804	1023.839	767.693
94.914	13.869	1022.815	767.155
95.928	13.913	1021.643	766.410
96.943	13.858	1020.969	765.586
97.957	13.788	1020.617	764.928
98.972	13.824	1019.297	764.039
99.987	13.852	1018.847	763.764
101.001	13.798	1017.917	762.751
102.016	13.818	1016.825	761.958
103.030	13.701	1016.305	760.963
104.045	13.780	1015.319	760.517
105.060	13.718	1014.405	759.485
106.074	13.673	1013.760	758.729
107.089	13.675	1012.697	757.875
108.103	13.720	1011.667	757.242
109.118	13.770	1010.499	756.526
110.133	13.528	1010.258	755.179
111.147	13.589	1009.521	754.836
112.162	13.742	1008.424	754.647
113.176	13.819	1007.164	753.988
114.191	13.637	1006.724	752.762
115.206	13.812	1005.475	752.555
116.220	13.606	1005.496	751.573
117.235	13.701	1004.180	750.951
118.249	13.694	1003.459	750.314
119.264	13.706	1002.615	749.671
120.279	13.811	1001.585	749.310
121.293	13.753	1000.436	748.121
122.308	13.814	999.700	747.779
123.322	13.722	999.172	746.904
124.337	13.714	998.046	745.961
125.352	13.665	996.720	744.684
126.366	13.723	995.506	743.972
127.381	13.691	994.331	742.885
128.395	13.582	993.867	741.984
129.410	13.821	992.455	741.931
130.424	13.753	991.973	741.204
131.439	13.789	991.104	740.647
132.454	13.769	990.255	739.860
133.468	13.775	989.662	739.377
134.483	13.777	988.570	738.505
135.497	13.937	987.319	738.219
136.512	13.748	986.959	737.042
137.527	13.701	986.433	736.374
138.541	13.799	985.673	736.177
139.556	13.921	984.762	735.972
140.570	13.866	983.961	735.064
141.585	13.939	982.870	734.506
142.600	14.009	981.974	734.081
143.614	13.913	981.448	733.199
144.629	14.009	980.495	732.846
145.643	13.897	979.828	731.790
146.658	13.984	978.891	731.408
147.673	13.843	977.932	730.006
148.687	13.955	977.016	729.752
149.702	13.883	976.541	729.018
150.716	13.951	975.333	728.350
151.731	13.882	974.810	727.589
152.746	14.005	974.018	727.473
153.760	13.983	973.172	726.679
154.775	13.915	973.050	726.228
155.789	14.101	972.124	726.285
156.804	13.977	971.612	725.298
157.819	13.995	970.894	724.774
158.833	14.096	970.240	724.665
159.848	14.070	969.528	723.955
160.862	14.134	968.228	723.197
161.877	14.061	967.673	722.401
162.892	14.052	966.402	721.352
163.906	14.059	965.415	720.581
164.921	13.921	964.917	719.546
165.935	14.080	964.114	719.573
166.950	14.145	962.811	718.817
167.964	14.024	962.263	717.822
168.979	14.100	961.520	717.530
169.994	14.101	960.072	716.390
171.008	14.160	959.424	716.100
172.023	14.156	958.901	715.627
173.037	14.257	957.936	715.279
174.052	14.189	957.378	714.508
175.067	14.250	956.442	714.009
176.081	14.200	956.030	713.424
177.096	14.130	956.012	713.046
178.110	14.210	955.017	712.582
179.125	14.077	954.746	711.747
180.140	14.167	954.083	711.576
181.154	14.175	953.729	711.285
182.169	14.219	953.094	710.934
183.183	14.342	951.995	710.575
184.198	14.346	951.232	709.961
185.213	14.449	950.503	709.794
186.227	14.471	949.605	709.155
187.242	14.497	949.138	708.853
188.256	14.405	948.637	708.023
189.271	14.423	947.805	707.419
190.286	14.443	947.048	706.875
191.300	14.296	946.562	705.828
192.315	14.277	945.486	704.880
193.329	14.381	945.436	705.220
194.344	14.279	944.608	704.111
195.359	14.256	944.064	703.543
196.373	14.361	943.372	703.410
197.388	14.453	943.166	703.582
198.402	14.523	942.095	703.016
199.417	14.485	942.130	702.820
200.432	14.634	940.713	702.329
201.446	14.726	940.211	702.278
202.461	14.630	940.338	701.909
203.475	14.534	939.976	701.171
204.490	14.552	938.666	700.208
205.504	14.508	937.771	699.295
206.519	14.514	937.352	698.944
207.534	14.533	936.285	698.168
208.548	14.567	935.438	697.616
209.563	14.615	935.383	697.712
210.577	14.647	934.296	696.974
211.592	14.713	934.210	697.123
212.607	14.619	933.157	695.886
213.621	14.632	932.109	695.096
214.636	14.732	931.507	695.000
215.650	14.778	930.645	694.486
216.665	14.777	930.041	693.970
217.680	14.851	928.959	693.410
218.694	14.785	928.576	692.791
219.709	14.849	927.604	692.269
220.723	14.850	927.283	691.972
221.738	14.937	926.537	691.712
222.753	14.708	926.429	690.622
223.767	15.014	925.051	690.799
224.782	14.865	924.980	690.071
225.796	14.942	924.206	689.751
226.811	15.020	923.407	689.413
227.826	14.867	923.000	688.419
228.840	14.932	922.113	687.962
229.855	14.998	921.201	687.493
230.869	15.036	920.079	686.751
231.884	14.930	919.882	686.109
232.899	14.952	919.075	685.535
233.913	14.851	918.513	684.642
234.928	14.881	917.878	684.230
235.942	15.019	917.364	684.350
236.957	14.793	916.957	683.066
237.972	14.950	915.903	682.859
238.986	15.053	914.954	682.513
240.001	15.038	914.254	681.870
241.015	15.021	913.860	681.444
242.030	15.068	913.546	681.340
243.045	15.086	912.833	680.821
244.059	15.029	912.186	680.047
245.074	15.219	911.356	680.139
246.088	15.130	910.816	679.318
247.103	15.063	910.589	678.815
248.117	15.220	909.661	678.700
249.132	15.215	908.984	678.115
250.147	15.304	908.499	678.054
251.161	15.309	907.635	677.366
252.176	15.199	907.587	676.826
253.190	15.346	906.418	676.488
254.205	15.486	905.601	676.382
255.220	15.451	904.891	675.651
256.234	15.412	904.376	675.051
257.249	15.397	903.809	674.509
258.263	15.451	902.882	673.974
259.278	15.371	902.419	673.245
260.293	15.649	901.817	673.853
261.307	15.414	901.466	672.587
262.322	15.467	900.383	671.933
263.336	15.625	899.746	672.032
264.351	15.501	899.037	670.944
265.366	15.532	898.101	670.309
266.380	15.747	897.590	670.727
267.395	15.600	897.114	669.728
268.409	15.620	896.147	669.024
269.424	15.656	895.369	668.530
270.439	15.728	894.095	667.803
271.453	15.642	893.817	667.195
272.468	15.663	893.574	667.038
273.482	15.556	893.283	666.337
274.497	15.706	892.408	666.220
275.512	15.728	891.700	665.723
276.526	15.754	891.061	665.287
277.541	15.516	891.135	664.341
278.555	15.692	890.271	664.336
279.570	15.952	889.348	664.614
280.585	15.892	888.614	663.772
281.599	15.865	887.810	663.003
282.614	15.867	887.116	662.435
283.628	15.926	886.545	662.181
284.643	15.867	886.314	661.721
285.657	15.827	885.499	660.896
286.672	15.913	885.106	660.880
287.687	15.948	884.283	660.345
288.701	16.026	883.368	659.910
289.716	15.958	883.062	659.358
290.730	15.996	882.325	658.897
291.745	15.893	881.884	658.107
292.760	16.031	881.173	658.055
293.774	16.148	880.224	657.744
294.789	16.072	879.666	656.974
295.803	16.073	878.890	656.339
296.818	16.048	878.394	655.816
297.833	16.076	878.158	655.688
298.847	16.060	877.313	654.938
299.862	16.126	876.760	654.725
300.876	16.234	876.181	654.652
301.891	16.088	875.572	653.573
302.906	16.235	874.930	653.605
303.920	16.276	874.315	653.246
304.935	16.261	873.459	652.492
305.949	16.237	873.031	652.023
306.964	16.284	872.447	651.707
307.979	16.232	871.958	651.085
308.993	16.306	871.230	650.771
310.008	16.437	870.641	650.778
311.022	16.300	870.166	649.834
312.037	16.312	869.799	649.551
313.052	16.245	869.323	648.881
314.066	16.263	868.451	648.242
315.081	16.372	867.922	648.208
316.095	16.346	867.659	647.854
317.110	16.388	866.600	647.165
318.125	16.244	866.449	646.447
319.139	16.238	865.618	645.744
320.154	16.486	865.500	646.547
321.168	16.445	864.881	645.872
322.183	16.450	864.033	645.200
323.197	16.342	863.953	644.672
324.212	16.418	863.052	644.234
325.227	16.525	862.633	644.270
326.241	16.572	861.776	643.751
327.256	16.465	861.290	642.924
328.270	16.506	860.727	642.604
329.285	16.595	860.204	642.493
330.300	16.507	859.874	641.858
331.314	16.479	859.070	641.093
332.329	16.490	858.376	640.561
333.343	16.697	857.876	640.915
334.358	16.649	857.670	640.522
335.373	16.516	857.487	639.825
336.387	16.567	857.074	639.653
337.402	16.606	856.816	639.553
338.416	16.657	856.387	639.367
339.431	16.691	855.880	639.062
340.446	16.755	855.586	639.027
341.460	16.774	855.114	638.688
342.475	16.870	854.984	638.897
343.489	16.804	854.310	638.090
344.504	16.971	853.562	638.102
345.519	16.900	853.128	637.454
346.533	16.681	853.184	636.616
347.548	16.829	852.352	636.495
348.562	16.798	851.814	635.922
349.577	16.864	851.141	635.607
350.592	16.743	850.579	634.678
351.606	16.853	849.800	634.455
352.621	16.861	849.045	633.863
353.635	16.986	848.288	633.709
354.650	17.045	847.542	633.316
355.665	17.045	846.946	632.815
356.679	16.963	846.225	631.914
357.694	16.982	845.786	631.601
358.708	16.995	845.439	631.337
359.723	17.069	844.532	630.878
360.738	17.036	843.903	630.230
361.752	16.943	843.550	629.567
362.767	17.022	842.907	629.323
363.781	17.043	842.418	628.979
364.796	17.263	841.768	629.253
365.810	17.091	841.477	628.341
366.825	17.280	840.997	628.628
367.840	17.234	840.819	628.268
368.854	17.199	840.643	627.951
369.869	17.320	839.522	627.505
370.883	17.254	839.121	626.907
371.898	17.301	838.787	626.776
372.913	17.389	838.507	626.837
373.927	17.209	837.871	625.642
374.942	17.338	837.753	625.973
375.956	17.476	837.135	625.965
376.971	17.313	836.896	625.132
377.986	17.289	836.236	624.494
379.000	17.417	835.643	624.464
380.015	17.398	834.795	623.707
381.029	17.500	834.297	623.655
382.044	17.477	834.386	623.579
383.059	17.403	833.530	622.614
384.073	17.532	832.468	622.239
385.088	17.558	832.128	622.024
386.102	17.468	831.610	621.254
387.117	17.447	830.983	620.654
388.132	17.520	830.341	620.383
389.146	17.547	829.925	620.116
390.161	17.609	829.444	619.928
391.175	17.695	829.200	620.004
392.190	17.609	828.535	619.139
393.205	17.618	827.985	618.706
394.219	17.537	827.722	618.160
395.234	17.583	826.858	617.628
396.248	17.557	827.019	617.598
397.263	17.560	826.547	617.204
398.278	17.469	826.142	616.518
399.292	17.586	825.766	616.604
400.307	17.688	825.174	616.478
401.321	17.761	824.622	616.274
402.336	17.610	823.956	615.176
403.350	17.594	823.723	614.892
404.365	17.700	823.357	614.944
405.380	17.744	822.617	614.497
406.394	17.794	822.423	614.479
407.409	17.929	821.667	614.345
408.423	17.941	821.749	614.393
409.438	17.907	821.084	613.722
410.453	17.912	820.716	613.410
411.467	17.945	820.225	613.107
412.482	17.884	820.167	612.789
413.496	17.984	819.086	612.285
414.511	18.192	818.633	612.637
415.526	18.012	818.798	612.061
416.540	18.038	818.047	611.540
417.555	18.051	817.705	611.278
418.569	18.043	816.999	610.665
419.584	18.206	816.649	610.934
420.599	17.946	816.685	609.977
421.613	115.642	1301.705	1491.980
422.628	100.231	1372.293	1492.041
