DTS Sentinel unit serial number:	SN413079Multiplexer serial number:	ORYXHardware model number:	OX4-SRSoftware version number:	ORYX F/W v4.00 Oryx Data Collector v3.7.2.0data status	okinstallation	princeton_trtdifferential loss correction	single-endedforward channel	channel 1reverse channel	N/Adate	2019/09/18time	05:10:35forward acquisition time	60.00reverse acquisition time	0.00gamma	496.2192k internal	0.2338k external	0.2338temperature offset calibration	0.9979default loss term (dB/km)	0.3790temperature slope calibration	1.0000multiplexer offset coefficient	1.0000multiplexer slope coefficient	1.0000fibre end	0.00T internal ref (°C)	23.50T ext. ref 1 (°C)	0.19T ext. ref 2 (°C)	17.50length (m)	temperature (°C)	Stokes	anti-Stokes-747.200	-200.000	0.072	0.393
-746.185	52.669	-0.048	0.046
-745.171	-200.000	-0.004	0.144
-744.156	-169.480	-0.164	-0.006
-743.142	-58.118	-0.078	-0.034
-742.127	138.146	-0.217	0.286
-741.112	-83.618	0.694	0.222
-740.098	-31.570	-0.262	0.148
-739.083	-41.548	0.179	0.092
-738.069	-71.012	-0.100	0.038
-737.054	-200.000	-0.027	0.132
-736.039	-114.916	-0.091	-0.017
-735.025	758.208	-0.119	0.322
-734.010	-25.514	-0.060	-0.035
-732.996	-200.000	0.038	-0.403
-731.981	121.391	0.241	-0.301
-730.966	-32.493	0.204	0.114
-729.952	32.420	-0.151	0.131
-728.937	-200.000	0.029	0.213
-727.923	72.341	0.149	0.156
-726.908	23.133	-0.341	0.280
-725.894	-200.000	-0.020	-0.266
-724.879	800.000	-0.010	-0.042
-723.864	-189.129	-0.165	0.002
-722.850	800.000	-0.056	-0.197
-721.835	-157.285	-0.166	-0.010
-720.821	-200.000	-0.019	0.321
-719.806	360.516	0.122	0.245
-718.791	-17.297	0.102	0.064
-717.777	-116.555	-0.148	-0.027
-716.762	-2.481	0.236	0.166
-715.748	800.000	0.049	-0.177
-714.733	91.023	0.229	0.257
-713.718	-80.648	0.240	-0.080
-712.704	800.000	-0.037	0.151
-711.689	-86.791	-0.252	-0.077
-710.675	-200.000	-0.012	-0.176
-709.660	-30.625	0.391	0.222
-708.645	800.000	0.046	-0.186
-707.631	-98.995	-0.167	0.042
-706.616	-57.149	-0.209	-0.092
-705.602	-153.883	0.267	0.018
-704.587	-76.744	-0.448	-0.157
-703.572	-47.404	0.061	0.030
-702.558	-70.741	-0.257	-0.097
-701.543	-37.993	0.295	0.157
-700.529	-96.844	-0.355	0.093
-699.514	-13.847	0.195	-0.126
-698.499	-6.461	-0.306	0.209
-697.485	-200.000	0.006	-0.146
-696.470	622.000	0.130	0.328
-695.456	-99.299	-0.318	0.080
-694.441	56.423	0.076	0.074
-693.426	-58.756	0.389	0.169
-692.412	-37.402	-0.181	0.097
-691.397	-200.000	-0.008	-0.159
-690.383	-70.910	0.333	0.126
-689.368	-163.393	-0.217	-0.010
-688.354	153.619	-0.088	0.120
-687.339	48.800	-0.077	0.072
-686.324	34.256	-0.192	0.168
-685.310	-33.988	0.188	-0.104
-684.295	-38.453	0.121	0.064
-683.281	-4.498	-0.195	0.135
-682.266	-200.000	-0.050	0.261
-681.251	-122.351	-0.174	0.028
-680.237	324.153	0.163	-0.312
-679.222	-200.000	0.023	0.184
-678.208	-200.000	-0.029	0.391
-677.193	-148.550	-0.191	0.016
-676.178	800.000	0.032	-0.125
-675.164	130.224	-0.145	-0.186
-674.149	-24.885	0.263	0.156
-673.135	19.534	-0.052	-0.042
-672.120	-10.761	0.070	0.047
-671.105	-200.000	-0.036	0.238
-670.091	-5.541	0.185	0.127
-669.076	-200.000	-0.037	0.337
-668.062	91.190	-0.052	0.058
-667.047	800.000	-0.024	0.080
-666.032	-200.000	-0.029	0.156
-665.018	476.721	-0.072	0.163
-664.003	-200.000	-0.050	-0.265
-662.989	193.233	0.085	0.128
-661.974	800.000	0.027	-0.106
-660.959	-47.431	0.133	0.065
-659.945	-105.695	-0.086	0.020
-658.930	-1.665	-0.275	0.194
-657.916	-76.870	-0.133	-0.047
-656.901	199.204	-0.176	-0.269
-655.886	367.865	0.046	0.094
-654.872	49.334	0.123	-0.116
-653.857	800.000	0.091	-0.381
-652.843	800.000	0.013	-0.055
-651.828	336.301	0.114	0.221
-650.814	35.001	-0.149	-0.130
-649.799	1.000	-0.063	0.045
-648.784	2.114	-0.146	-0.105
-647.770	-35.909	0.242	-0.131
-646.755	303.760	0.104	-0.192
-645.741	-111.765	0.461	-0.093
-644.726	-200.000	-0.008	-0.144
-643.711	110.143	-0.143	-0.171
-642.697	-97.074	-0.119	-0.031
-641.682	-110.351	-0.399	-0.083
-640.668	-160.797	-0.252	-0.013
-639.653	-200.000	0.027	-0.444
-638.638	-200.000	0.033	0.259
-637.624	430.139	0.109	-0.235
-636.609	-191.437	-0.186	-0.002
-635.595	102.621	0.079	0.092
-634.580	-82.599	0.183	-0.059
-633.565	-200.000	-0.025	0.218
-632.551	131.266	0.082	0.105
-631.536	99.740	-0.045	-0.052
-630.522	-24.254	-0.326	0.195
-629.507	149.080	0.207	-0.280
-628.492	131.678	0.126	-0.162
-627.478	-118.094	0.046	-0.008
-626.463	-29.692	-0.292	0.166
-625.449	105.542	0.052	-0.061
-624.434	536.158	-0.065	0.154
-623.419	108.249	-0.189	0.225
-622.405	57.194	-0.193	0.188
-621.390	114.902	0.229	-0.279
-620.376	800.000	0.092	-0.261
-619.361	115.822	0.220	0.269
-618.346	-139.975	0.205	0.022
-617.332	-88.333	-0.171	0.051
-616.317	-11.767	0.132	-0.087
-615.303	179.806	-0.104	0.151
-614.288	-200.000	-0.004	-0.197
-613.273	-168.452	-0.067	-0.003
-612.259	-93.773	-0.608	-0.167
-611.244	800.000	0.092	-0.261
-610.230	50.758	-0.060	-0.057
-609.215	310.529	-0.076	-0.142
-608.201	-46.135	-0.192	0.095
-607.186	800.000	-0.039	-0.114
-606.171	430.735	-0.073	0.157
-605.157	-26.200	-0.174	-0.102
-604.142	-115.037	-0.303	-0.057
-603.128	154.611	0.254	-0.348
-602.113	-200.000	-0.041	-0.329
-601.098	-200.000	-0.005	-0.405
-600.084	-90.386	0.195	0.056
-599.069	12.324	-0.130	0.100
-598.055	800.000	-0.046	-0.169
-597.040	240.346	-0.086	-0.144
-596.025	184.508	0.079	-0.116
-595.011	176.279	0.196	0.285
-593.996	-49.769	-0.360	0.171
-592.982	16.079	0.060	0.047
-591.967	-120.414	-0.391	0.066
-590.952	179.610	0.035	-0.052
-589.938	76.447	0.099	0.105
-588.923	146.088	-0.147	-0.197
-587.909	-30.046	0.251	0.142
-586.894	800.000	-0.017	-0.067
-585.879	14.148	0.205	0.159
-584.865	425.022	-0.125	0.267
-583.850	740.984	-0.086	0.231
-582.836	-200.000	0.003	-0.045
-581.821	800.000	-0.085	-0.276
-580.806	-129.628	-0.259	-0.036
-579.792	-200.000	0.006	-0.040
-578.777	-85.513	-0.315	-0.098
-577.763	-200.000	0.003	-0.295
-576.748	196.081	-0.179	-0.272
-575.733	-90.342	-0.147	-0.043
-574.719	-29.120	0.058	-0.033
-573.704	-1.679	0.336	-0.236
-572.690	800.000	0.077	0.229
-571.675	-200.000	0.005	-0.140
-570.661	9.913	-0.172	0.130
-569.646	26.771	0.034	-0.028
-568.631	-200.000	0.077	-0.353
-567.617	597.779	0.133	0.329
-566.602	103.286	0.239	0.279
-565.588	800.000	-0.070	-0.231
-564.573	-56.359	0.181	0.080
-563.558	163.791	-0.079	0.111
-562.544	-83.802	0.151	0.048
-561.529	137.788	0.170	-0.222
-560.515	87.097	0.193	-0.212
-559.500	-18.352	0.194	-0.121
-558.485	-200.000	0.046	-0.217
-557.471	-109.741	0.119	-0.025
-556.456	42.992	0.021	-0.019
-555.442	800.000	-0.065	0.209
-554.427	193.565	0.083	0.125
-553.412	-125.482	0.137	0.021
-552.398	800.000	0.029	-0.107
-551.383	45.703	-0.219	0.201
-550.369	51.705	-0.218	-0.206
-549.354	-200.000	0.008	-0.157
-548.339	6.694	-0.154	-0.114
-547.325	-174.041	-0.129	0.004
-546.310	-200.000	-0.019	0.102
-545.296	-200.000	0.003	0.047
-544.281	-101.044	0.306	-0.075
-543.266	449.083	0.145	-0.319
-542.252	-79.482	0.203	-0.068
-541.237	-200.000	0.005	-0.119
-540.223	-137.806	0.200	0.022
-539.208	-74.673	0.044	-0.016
-538.193	-30.852	0.174	0.098
-537.179	800.000	0.034	0.095
-536.164	-163.899	-0.299	0.014
-535.150	675.658	0.107	0.275
-534.135	392.197	-0.062	-0.129
-533.121	55.899	-0.091	0.088
-532.106	125.035	-0.292	-0.366
-531.091	-200.000	-0.000	-0.451
-530.077	800.000	-0.101	0.314
-529.062	57.272	-0.375	-0.364
-528.048	92.588	0.128	0.143
-527.033	800.000	0.068	-0.198
-526.018	800.000	0.032	0.135
-525.004	800.000	0.074	-0.311
-523.989	63.071	0.155	-0.155
-522.975	-70.175	-0.202	-0.076
-521.960	600.518	0.092	0.227
-520.945	-103.775	0.085	-0.020
-519.931	661.134	0.081	-0.207
-518.916	-200.000	-0.017	-0.101
-517.902	-13.866	-0.045	-0.029
-516.887	-135.842	0.177	0.021
-515.872	800.000	0.036	0.148
-514.858	-26.471	-0.075	-0.044
-513.843	1.203	0.182	-0.130
-512.829	88.554	0.073	-0.080
-511.814	16.728	-0.145	-0.114
-510.799	-200.000	0.043	0.221
-509.785	179.857	0.262	-0.382
-508.770	-83.167	0.084	0.027
-507.756	-200.000	-0.029	0.136
-506.741	143.020	0.147	0.195
-505.726	-200.000	-0.000	-0.193
-504.712	-28.036	-0.304	-0.175
-503.697	101.764	0.182	0.211
-502.683	-23.595	-0.081	-0.048
-501.668	-13.104	0.200	0.129
-500.653	-200.000	0.037	-0.186
-499.639	-49.302	-0.240	0.114
-498.624	-16.011	-0.397	0.251
-497.610	196.637	0.099	0.149
-496.595	-200.000	0.000	0.186
-495.581	-200.000	-0.010	0.081
-494.566	-200.000	-0.001	0.437
-493.551	176.436	-0.093	0.134
-492.537	392.581	0.117	0.242
-491.522	-48.072	0.270	-0.130
-490.508	304.486	-0.092	0.170
-489.493	-15.244	-0.163	0.104
-488.478	-151.891	-0.446	-0.032
-487.464	-200.000	-0.083	0.407
-486.449	-200.000	-0.017	0.210
-485.435	-27.358	0.329	0.190
-484.420	378.065	-0.027	0.055
-483.405	-53.112	-0.132	0.060
-482.391	753.656	-0.027	-0.073
-481.376	-0.123	-0.069	0.049
-480.362	-200.000	0.038	-0.361
-479.347	-166.210	0.061	-0.003
-478.332	-50.085	0.208	-0.098
-477.318	619.242	-0.132	0.328
-476.303	-200.000	-0.024	-0.117
-475.289	-90.963	-0.219	0.063
-474.274	78.668	0.198	0.210
-473.259	-103.746	-0.298	0.069
-472.245	-97.531	-0.287	-0.074
-471.230	-200.000	-0.002	0.164
-470.216	-22.195	0.134	-0.081
-469.201	-200.000	-0.008	0.105
-468.186	112.074	0.243	0.292
-467.172	800.000	-0.050	-0.191
-466.157	-26.201	-0.121	-0.071
-465.143	84.914	-0.219	-0.238
-464.128	-104.673	0.316	0.072
-463.113	65.221	0.157	0.158
-462.099	-200.000	-0.006	0.095
-461.084	657.301	0.108	-0.275
-460.070	156.944	-0.079	-0.108
-459.055	-65.832	-0.081	0.032
-458.040	55.691	-0.090	0.087
-457.026	-4.279	0.307	-0.211
-456.011	36.874	0.154	-0.135
-454.997	800.000	-0.074	-0.222
-453.982	-200.000	-0.017	0.103
-452.968	345.552	-0.068	-0.133
-451.953	245.748	0.093	-0.155
-450.938	-146.960	-0.067	-0.006
-449.924	800.000	0.039	-0.134
-448.909	-132.393	-0.023	0.003
-447.895	-200.000	0.006	-0.045
-446.880	-15.622	-0.120	0.076
-445.865	18.307	0.216	-0.171
-444.851	82.496	0.235	-0.253
-443.836	135.432	-0.244	0.315
-442.822	347.353	-0.088	0.172
-441.807	8.291	-0.105	-0.079
-440.792	-84.743	-0.354	-0.110
-439.778	-17.292	0.286	0.179
-438.763	-200.000	0.025	0.432
-437.749	-200.000	0.024	-0.281
-436.734	62.488	-0.234	0.231
-435.719	300.143	0.101	-0.184
-434.705	303.286	-0.077	-0.141
-433.690	800.000	0.080	0.300
-432.676	126.360	0.139	0.174
-431.661	-143.958	-0.238	-0.022
-430.646	800.000	-0.171	0.687
-429.632	60.949	0.281	-0.277
-428.617	8.620	0.248	0.185
-427.603	291.163	0.013	0.023
-426.588	-106.927	-0.436	-0.096
-425.573	-23.694	0.078	0.047
-424.559	800.000	-0.076	-0.215
-423.544	566.905	-0.080	-0.193
-422.530	800.000	0.095	-0.359
-421.515	766.801	-0.097	-0.261
-420.500	63.295	0.239	-0.238
-419.486	120.154	0.142	0.175
-418.471	-77.855	-0.052	-0.018
-417.457	800.000	-0.025	0.104
-416.442	-132.124	0.469	0.060
-415.428	33.268	-0.079	0.068
-414.413	180.175	0.086	0.125
-413.398	130.497	0.068	0.086
-412.384	-67.730	0.177	0.068
-411.369	82.757	-0.200	-0.215
-410.355	800.000	-0.061	0.181
-409.340	161.921	0.086	0.119
-408.325	-10.336	-0.033	-0.022
-407.311	-200.000	-0.010	0.115
-406.296	78.048	-0.182	0.192
-405.282	175.410	0.083	-0.119
-404.267	401.739	-0.160	0.333
-403.252	223.152	0.056	-0.090
-402.238	-200.000	-0.015	-0.149
-401.223	-51.703	-0.264	0.122
-400.209	9.105	-0.372	0.278
-399.194	42.344	-0.287	0.258
-398.179	-200.000	-0.028	-0.298
-397.165	-200.000	0.075	0.460
-396.150	-32.674	0.069	0.038
-395.136	-121.264	0.114	-0.019
-394.121	125.678	-0.180	0.226
-393.106	-178.648	0.250	0.006
-392.092	-200.000	-0.020	0.139
-391.077	-100.723	-0.217	0.053
-390.063	-81.927	-0.271	-0.088
-389.048	-44.230	0.095	-0.047
-388.033	800.000	-0.085	-0.299
-387.019	61.005	-0.119	0.117
-386.004	-88.581	-0.237	-0.070
-384.990	255.459	0.120	0.203
-383.975	348.537	0.072	0.141
-382.960	-31.244	-0.336	-0.187
-381.946	300.295	0.139	-0.254
-380.931	-85.979	-0.169	0.052
-379.917	33.075	-0.021	-0.018
-378.902	105.527	-0.046	-0.054
-377.888	130.089	-0.155	-0.197
-376.873	-6.352	-0.168	-0.114
-375.858	800.000	-0.065	-0.274
-374.844	-28.702	0.196	-0.112
-373.829	-200.000	-0.025	-0.483
-372.815	-17.752	0.256	0.159
-371.800	-160.311	-0.024	0.001
-370.785	-44.145	0.149	0.074
-369.771	44.709	-0.279	0.253
-368.756	-51.207	-0.216	-0.100
-367.742	800.000	0.040	0.171
-366.727	45.491	-0.222	0.203
-365.712	-145.411	0.099	-0.009
-364.698	193.202	0.082	0.122
-363.683	800.000	0.099	0.323
-362.669	-45.789	0.118	0.058
-361.654	311.678	0.218	0.404
-360.639	74.241	0.184	0.191
-359.625	236.636	-0.036	0.059
-358.610	-54.804	-0.237	0.106
-357.596	-200.000	-0.011	0.334
-356.581	-86.775	-0.387	0.117
-355.566	3.559	-0.113	0.082
-354.552	800.000	0.084	0.260
-353.537	-29.042	0.350	0.198
-352.523	-200.000	-0.027	0.142
-351.508	37.131	-0.244	0.214
-350.493	-11.861	0.065	0.042
-349.479	510.118	-0.116	0.266
-348.464	243.190	0.141	-0.233
-347.450	-104.060	-0.202	-0.046
-346.435	415.290	0.055	-0.117
-345.420	-140.945	0.246	-0.025
-344.406	-141.118	-0.248	-0.025
-343.391	363.328	-0.081	-0.161
-342.377	188.631	0.144	-0.213
-341.362	-200.000	0.010	-0.105
-340.348	443.412	-0.042	0.091
-339.333	266.450	-0.055	-0.094
-338.318	-143.497	0.178	0.017
-337.304	800.000	-0.107	0.310
-336.289	692.129	0.049	-0.126
-335.275	-98.973	0.350	-0.088
-334.260	-158.069	0.144	0.008
-333.245	78.732	0.093	-0.098
-332.231	31.080	-0.277	-0.234
-331.216	178.677	0.163	0.235
-330.202	28.910	0.108	0.090
-329.187	-116.144	0.379	0.070
-328.172	800.000	0.067	0.196
-327.158	-151.408	-0.221	-0.016
-326.143	-40.373	0.239	-0.122
-325.129	-111.980	-0.161	0.032
-324.114	-89.571	-0.249	0.072
-323.099	-145.936	-0.218	-0.019
-322.085	-200.000	-0.009	-0.237
-321.070	178.764	0.190	-0.274
-320.056	-107.758	-0.280	-0.060
-319.041	-200.000	0.012	-0.297
-318.026	-162.754	-0.121	0.006
-317.012	1.428	-0.282	-0.200
-315.997	-28.433	0.113	0.064
-314.983	800.000	0.014	0.045
-313.968	-200.000	0.018	-0.116
-312.953	35.413	-0.333	-0.288
-311.939	-200.000	0.005	0.062
-310.924	-200.000	0.034	-0.159
-309.910	-78.045	0.345	-0.117
-308.895	22.469	0.150	-0.121
-307.880	282.592	-0.043	-0.076
-306.866	128.444	0.132	0.165
-305.851	-32.162	-0.389	0.214
-304.837	-200.000	0.020	0.251
-303.822	-176.008	0.496	0.013
-302.807	-23.863	-0.071	0.042
-301.793	-173.579	-0.324	-0.010
-300.778	325.943	0.039	0.074
-299.764	800.000	-0.048	0.169
-298.749	-200.000	-0.035	0.155
-297.735	324.134	-0.081	-0.152
-296.720	-200.000	-0.028	-0.162
-295.705	-83.232	0.129	0.041
-294.691	-12.946	-0.232	-0.149
-293.676	290.636	0.104	0.186
-292.662	-11.936	-0.164	-0.106
-291.647	1.087	0.191	-0.135
-290.632	41.361	0.201	-0.179
-289.618	-112.514	-0.244	0.048
-288.603	-50.022	-0.301	-0.141
-287.589	183.013	-0.124	0.180
-286.574	-24.254	0.098	0.058
-285.559	800.000	0.043	-0.177
-284.545	-110.717	-0.353	0.072
-283.530	800.000	0.100	0.336
-282.516	376.008	0.171	-0.344
-281.501	542.123	-0.042	-0.098
-280.486	165.750	0.172	0.240
-279.472	471.598	0.108	-0.240
-278.457	-101.047	-0.195	-0.047
-277.443	63.200	0.115	0.114
-276.428	101.663	-0.151	0.173
-275.413	-13.508	0.116	-0.074
-274.399	800.000	-0.112	-0.352
-273.384	-34.949	-0.025	-0.013
-272.370	800.000	-0.060	0.231
-271.355	800.000	0.070	-0.260
-270.340	800.000	0.078	-0.243
-269.326	-62.124	0.247	0.102
-268.311	800.000	-0.111	0.448
-267.297	800.000	0.046	-0.185
-266.282	-102.643	-0.058	-0.014
-265.267	27.006	0.203	-0.167
-264.253	259.274	-0.114	-0.195
-263.238	-200.000	-0.006	-0.143
-262.224	-79.759	-0.217	0.072
-261.209	-200.000	0.049	0.231
-260.195	194.472	0.134	-0.200
-259.180	-200.000	-0.066	0.291
-258.165	-200.000	-0.023	0.263
-257.151	-73.700	0.280	-0.100
-256.136	96.382	-0.090	0.102
-255.122	-67.700	0.245	-0.094
-254.107	-200.000	0.001	-0.102
-253.092	-200.000	-0.020	0.287
-252.078	-23.077	-0.267	0.158
-251.063	800.000	-0.061	-0.168
-250.049	-103.413	-0.087	-0.020
-249.034	276.306	-0.168	0.294
-248.019	30.135	0.165	-0.138
-247.005	-48.860	-0.159	0.075
-245.990	-200.000	0.048	-0.304
-244.976	-70.393	-0.252	0.094
-243.961	107.530	0.071	0.083
-242.946	-200.000	-0.030	0.402
-241.932	-116.913	0.329	0.059
-240.917	-37.379	-0.224	0.118
-239.903	105.589	-0.251	0.292
-238.888	-138.011	0.134	-0.015
-237.873	669.320	-0.101	0.256
-236.859	-200.000	0.003	0.051
-235.844	-48.561	0.217	0.103
-234.830	320.520	-0.069	-0.128
-233.815	-22.910	-0.145	-0.086
-232.800	135.554	0.217	-0.277
-231.786	225.936	0.089	0.143
-230.771	-174.680	0.119	0.003
-229.757	10.025	0.221	0.165
-228.742	26.450	0.370	0.304
-227.727	-24.919	0.250	-0.146
-226.713	-200.000	-0.065	-0.315
-225.698	-140.849	0.043	0.004
-224.684	800.000	0.039	-0.161
-223.669	-79.226	-0.085	-0.028
-222.655	-200.000	0.092	-0.449
-221.640	-139.882	-0.351	-0.037
-220.625	128.977	-0.189	0.237
-219.611	-148.801	-0.059	0.005
-218.596	-45.744	-0.259	-0.126
-217.582	663.423	-0.059	0.150
-216.567	-23.498	-0.206	0.121
-215.552	299.709	0.119	-0.215
-214.538	-89.734	-0.167	0.048
-213.523	223.842	0.201	0.319
-212.509	-200.000	-0.010	-0.050
-211.494	-157.049	0.278	-0.017
-210.479	108.482	0.275	0.323
-209.465	-47.353	-0.297	0.142
-208.450	-56.525	0.122	0.053
-207.436	-50.684	0.373	0.173
-206.421	-129.093	0.096	0.013
-205.406	-140.643	0.143	-0.015
-204.392	337.385	-0.153	-0.291
-203.377	-36.743	0.157	-0.083
-202.363	-17.210	0.238	-0.148
-201.348	5.011	-0.136	0.098
-200.333	-48.054	0.225	0.107
-199.319	-200.000	0.047	-0.295
-198.304	-200.000	0.005	0.046
-197.290	800.000	0.123	0.365
-196.275	-139.745	-0.225	0.023
-195.260	3.525	0.369	-0.264
-194.246	228.176	0.165	0.265
-193.231	31.397	0.039	0.033
-192.217	-200.000	-0.016	0.115
-191.202	79.136	0.099	0.104
-190.187	-200.000	-0.037	-0.201
-189.173	-200.000	-0.058	0.364
-188.158	800.000	-0.088	0.248
-187.144	272.082	0.164	0.284
-186.129	570.491	0.123	0.293
-185.114	-61.481	0.194	0.080
-184.100	203.193	-0.109	-0.165
-183.085	-200.000	-0.010	0.059
-182.071	-128.241	0.174	0.024
-181.056	-87.139	-0.277	0.083
-180.042	21.399	0.310	-0.247
-179.027	-79.511	0.143	0.048
-178.012	-127.135	0.245	0.035
-176.998	150.707	-0.135	0.180
-175.983	-176.859	0.169	0.004
-174.969	800.000	0.087	-0.293
-173.954	-56.315	0.184	-0.080
-172.939	156.674	-0.047	-0.063
-171.925	-142.605	0.176	-0.017
-170.910	148.639	0.313	-0.416
-169.896	-38.627	0.035	0.018
-168.881	90.246	0.228	-0.250
-167.866	106.870	0.232	0.270
-166.852	4.638	-0.149	-0.107
-165.837	-71.579	-0.277	-0.102
-164.823	800.000	0.086	-0.315
-163.808	800.000	0.046	-0.136
-162.793	-98.830	-0.204	0.051
-161.779	800.000	0.027	0.074
-160.764	58.458	-0.124	-0.119
-159.750	-200.000	-0.000	0.087
-158.735	-98.082	0.069	0.017
-157.720	-129.335	-0.346	-0.047
-156.706	-200.000	-0.031	0.216
-155.691	-200.000	0.035	-0.213
-154.677	82.835	0.231	0.246
-153.662	-159.537	-0.122	-0.007
-152.647	586.504	0.094	-0.226
-151.633	-86.372	0.051	-0.016
-150.618	-119.935	-0.112	-0.019
-149.604	-97.537	-0.136	-0.035
-148.589	-30.344	-0.168	0.093
-147.574	-147.461	0.083	0.007
-146.560	-200.000	-0.020	0.137
-145.545	243.289	0.031	0.051
-144.531	-200.000	-0.000	0.152
-143.516	-67.837	0.069	0.027
-142.502	15.312	-0.079	-0.060
-141.487	-200.000	0.014	0.120
-140.472	-200.000	-0.013	-0.078
-139.458	-200.000	0.017	0.129
-138.443	54.894	-0.286	0.270
-137.429	-47.378	0.190	0.090
-136.414	-69.241	0.422	0.159
-135.399	763.096	-0.017	0.045
-134.385	75.185	0.258	-0.266
-133.370	-103.076	-0.177	0.041
-132.356	0.466	0.228	0.160
-131.341	69.427	0.168	-0.169
-130.326	625.301	-0.095	-0.234
-129.312	-172.565	0.294	0.009
-128.297	209.998	-0.103	0.158
-127.283	68.362	-0.359	-0.360
-126.268	800.000	0.159	0.453
-125.253	-25.184	0.222	0.129
-124.239	5.816	0.142	-0.103
-123.224	133.616	0.135	-0.171
-122.210	109.090	0.164	0.192
-121.195	-159.863	0.222	0.012
-120.180	-200.000	0.055	-0.402
-119.166	-200.000	-0.070	-0.311
-118.151	-79.893	0.142	0.047
-117.137	61.877	-0.075	0.073
-116.122	3.697	-0.105	-0.075
-115.107	447.844	-0.014	-0.031
-114.093	-3.316	0.294	0.201
-113.078	177.137	-0.164	-0.234
-112.064	800.000	0.050	0.167
-111.049	35.950	-0.254	0.219
-110.034	-200.000	0.073	0.573
-109.020	11.153	-0.255	0.191
-108.005	-200.000	0.005	-0.103
-106.991	-200.000	0.061	0.277
-105.976	-163.835	0.114	-0.005
-104.962	-125.784	-0.219	-0.032
-103.947	-88.671	-0.427	-0.124
-102.932	-200.000	-0.017	0.246
-101.918	800.000	0.072	0.236
-100.903	-27.601	0.089	0.050
-99.889	683.860	0.065	-0.165
-98.874	134.583	0.042	-0.053
-97.859	-200.000	-0.002	-0.398
-96.845	65.429	-0.169	0.167
-95.830	-200.000	0.044	0.383
-94.816	800.000	-0.019	0.070
-93.801	-75.421	0.307	-0.107
-92.786	138.227	-0.139	0.179
-91.772	-200.000	0.123	0.544
-90.757	387.049	0.190	0.384
-89.743	-61.414	-0.204	-0.084
-88.728	726.216	0.078	0.204
-87.713	-200.000	0.007	0.125
-86.699	-113.150	0.192	-0.037
-85.684	154.727	-0.129	0.174
-84.670	-200.000	0.006	0.154
-83.655	-151.050	-0.130	0.010
-82.640	-29.079	-0.234	0.131
-81.626	-1.109	0.142	0.098
-80.611	-11.308	0.059	-0.038
-79.597	-148.714	-0.233	0.018
-78.582	-200.000	-0.254	-0.000
-77.567	49.042	0.221	-0.203
-76.553	85.833	-0.091	-0.097
-75.538	-111.810	0.217	0.043
-74.524	272.747	0.068	-0.117
-73.509	46.878	-0.169	-0.154
-72.494	-136.103	0.538	0.062
-71.480	253.237	-0.210	-0.350
-70.465	-36.112	-0.111	-0.058
-69.451	-42.175	0.096	-0.048
-68.436	800.000	-0.058	-0.161
-67.422	-86.739	-0.130	0.039
-66.407	-112.813	-0.206	-0.040
-65.392	88.098	0.262	0.284
-64.378	-18.852	0.340	-0.207
-63.363	-105.542	-0.026	-0.006
-62.349	132.863	-0.266	0.336
-61.334	82.139	-1.118	-1.184
-60.319	160.419	0.529	0.721
-59.305	109.723	-0.929	-1.088
-58.290	298.332	0.797	1.431
-57.276	598.272	0.548	1.327
-56.261	-200.000	124.103	642.541
-55.246	413.389	1562.072	3244.843
-54.232	143.178	2720.069	3534.459
-53.217	96.103	2162.676	2413.932
-52.203	35.097	1595.829	1365.199
-51.188	26.698	1339.105	1095.025
-50.173	24.144	1301.773	1049.429
-49.159	50.782	1371.133	1267.918
-48.144	48.414	1382.478	1264.015
-47.130	26.865	1330.440	1088.771
-46.115	23.559	1311.368	1053.526
-45.100	23.477	1306.385	1048.994
-44.086	23.358	1304.193	1046.491
-43.071	23.349	1301.541	1044.269
-42.057	23.293	1299.626	1042.362
-41.042	23.231	1298.374	1040.949
-40.027	23.405	1296.536	1040.455
-39.013	23.425	1294.381	1038.804
-37.998	23.509	1292.419	1037.680
-36.984	23.428	1291.263	1036.237
-35.969	23.374	1289.395	1034.380
-34.954	23.512	1287.587	1033.693
-33.940	23.612	1285.971	1032.936
-32.925	23.502	1284.959	1031.445
-31.911	23.538	1283.571	1030.496
-30.896	23.577	1281.987	1029.410
-29.881	23.576	1280.969	1028.548
-28.867	23.741	1279.281	1028.103
-27.852	23.641	1278.369	1026.753
-26.838	23.618	1277.104	1025.563
-25.823	23.604	1275.627	1024.257
-24.809	23.518	1274.421	1022.750
-23.794	23.624	1273.034	1022.209
-22.779	23.591	1271.597	1020.822
-21.765	23.585	1270.326	1019.728
-20.750	23.603	1268.851	1018.609
-19.736	23.523	1267.839	1017.296
-18.721	23.421	1266.836	1015.868
-17.706	23.506	1265.537	1015.272
-16.692	23.423	1264.398	1013.843
-15.677	23.453	1263.691	1013.405
-14.663	23.491	1262.314	1012.478
-13.648	23.408	1261.212	1011.081
-12.633	23.394	1260.365	1010.285
-11.619	23.456	1259.470	1009.880
-10.604	23.447	1258.280	1008.833
-9.590	23.326	1257.866	1007.774
-8.575	23.489	1256.455	1007.530
-7.560	23.530	1255.835	1007.225
-6.546	23.393	1255.190	1005.889
-5.531	23.385	1254.464	1005.224
-4.517	23.443	1253.254	1004.543
-3.502	23.537	1252.524	1004.450
-2.487	23.451	1251.824	1003.358
-1.473	23.447	1247.247	999.630
-0.458	21.831	1232.909	979.082
0.556	16.907	1216.622	942.295
1.571	13.362	1224.658	928.567
2.586	12.648	1239.697	935.830
3.600	12.787	1227.203	927.100
4.615	9.428	1155.142	854.769
5.629	3.232	1084.097	771.163
6.644	0.321	1067.646	745.017
7.659	0.209	1065.633	742.994
8.673	0.108	1065.037	742.016
9.688	0.122	1063.556	740.984
10.702	0.370	1060.956	740.325
11.717	4.071	1065.578	761.711
12.731	11.014	1075.004	802.734
13.746	15.812	1080.008	830.120
14.761	16.917	1080.887	836.178
15.775	16.047	1079.917	831.066
16.790	15.061	1077.654	824.399
17.804	14.305	1076.559	819.765
18.819	14.044	1074.832	817.094
19.834	13.810	1074.411	815.552
20.848	13.594	1073.170	813.478
21.863	13.351	1072.484	811.696
22.877	13.204	1071.801	810.387
23.892	13.205	1070.906	809.640
24.907	13.154	1070.370	808.914
25.921	13.300	1069.409	808.832
26.936	13.311	1068.256	807.939
27.950	13.185	1067.828	806.932
28.965	13.309	1066.422	806.400
29.980	13.290	1065.154	805.279
30.994	13.497	1063.484	804.954
32.009	13.534	1062.985	804.682
33.023	13.461	1061.747	803.317
34.038	13.484	1061.129	802.891
35.053	13.368	1060.360	801.676
36.067	13.409	1059.401	801.081
37.082	13.336	1058.886	800.266
38.096	13.363	1058.114	799.745
39.111	13.448	1056.925	799.182
40.126	13.307	1055.713	797.515
41.140	13.172	1054.731	796.052
42.155	13.221	1053.598	795.364
43.169	13.193	1052.785	794.546
44.184	13.175	1051.495	793.413
45.199	13.055	1050.669	792.147
46.213	13.224	1049.627	792.098
47.228	13.244	1048.517	791.288
48.242	13.184	1047.859	790.435
49.257	13.265	1046.685	789.867
50.271	13.169	1046.235	788.998
51.286	13.301	1044.811	788.484
52.301	13.227	1044.325	787.696
53.315	13.223	1043.113	786.694
54.330	13.252	1041.835	785.795
55.344	13.269	1041.084	785.242
56.359	13.069	1040.768	783.983
57.374	13.158	1039.560	783.427
58.388	13.166	1038.852	782.861
59.403	13.194	1037.558	781.949
60.417	13.242	1036.540	781.338
61.432	13.220	1036.038	780.787
62.447	13.187	1035.432	780.106
63.461	13.079	1034.541	778.859
64.476	12.952	1033.788	777.621
65.490	13.129	1032.906	777.722
66.505	13.188	1031.935	777.202
67.520	13.294	1030.887	776.842
68.534	13.096	1030.809	775.782
69.549	13.112	1029.976	775.164
70.563	13.167	1029.122	774.709
71.578	13.099	1028.276	773.685
72.593	13.046	1027.851	773.048
73.607	13.140	1027.046	772.817
74.622	13.067	1026.271	771.823
75.636	13.035	1025.399	770.947
76.651	13.086	1024.715	770.605
77.666	12.994	1024.411	769.879
78.680	13.069	1023.556	769.518
79.695	13.002	1023.050	768.759
80.709	13.015	1022.146	768.069
81.724	13.197	1021.546	768.396
82.739	13.252	1020.998	768.173
83.753	13.225	1020.307	767.461
84.768	13.321	1019.112	766.937
85.782	13.338	1018.071	766.168
86.797	13.261	1017.150	765.048
87.812	13.237	1016.641	764.486
88.826	13.254	1015.770	763.841
89.841	13.289	1014.385	762.896
90.855	13.206	1013.614	761.867
91.870	13.351	1012.933	761.954
92.884	13.250	1012.143	760.827
93.899	13.299	1011.131	760.226
94.914	13.372	1010.665	760.145
95.928	13.315	1009.461	758.908
96.943	13.313	1008.746	758.296
97.957	13.387	1008.065	758.053
98.972	13.447	1006.845	757.347
99.987	13.378	1006.286	756.540
101.001	13.393	1005.393	755.872
102.016	13.340	1004.794	755.111
103.030	13.410	1003.684	754.533
104.045	13.383	1002.856	753.719
105.060	13.383	1002.082	753.071
106.074	13.303	1000.988	751.818
107.089	13.332	1000.342	751.397
108.103	13.175	999.546	750.020
109.118	13.255	998.346	749.417
110.133	13.209	997.627	748.603
111.147	13.210	996.623	747.789
112.162	13.346	995.822	747.737
113.176	13.374	995.058	747.222
114.191	13.371	994.206	746.501
115.206	13.253	994.069	745.802
116.220	13.173	992.880	744.483
117.235	13.363	991.528	744.257
118.249	13.246	990.959	743.238
119.264	13.313	990.401	743.058
120.279	13.289	989.397	742.127
121.293	13.394	988.109	741.565
122.308	13.282	987.858	740.813
123.322	13.307	986.434	739.790
124.337	13.195	985.779	738.735
125.352	13.239	984.851	738.169
126.366	13.401	983.391	737.730
127.381	13.224	982.595	736.282
128.395	13.345	981.693	736.078
129.410	13.403	980.377	735.284
130.424	13.251	980.115	734.346
131.439	13.361	979.193	734.079
132.454	13.317	978.960	733.646
133.468	13.380	977.494	732.759
134.483	13.270	976.608	731.543
135.497	13.307	975.891	731.107
136.512	13.395	975.469	731.115
137.527	13.542	974.225	730.766
138.541	13.389	973.794	729.704
139.556	13.346	973.144	728.960
140.570	13.503	972.142	728.837
141.585	13.441	971.804	728.246
142.600	13.522	970.672	727.691
143.614	13.514	969.572	726.766
144.629	13.623	969.139	726.857
145.643	13.544	968.050	725.630
146.658	13.466	967.143	724.543
147.673	13.447	965.943	723.499
148.687	13.416	965.140	722.697
149.702	13.586	963.998	722.520
150.716	13.518	963.927	722.107
151.731	13.459	963.208	721.245
152.746	13.359	962.616	720.303
153.760	13.504	962.042	720.442
154.775	13.631	960.941	720.103
155.789	13.550	960.646	719.466
156.804	13.617	959.820	719.076
157.819	13.713	958.915	718.753
158.833	13.708	958.311	718.211
159.848	13.682	957.718	717.592
160.862	13.704	956.618	716.799
161.877	13.731	955.797	716.237
162.892	13.632	954.854	715.041
163.906	13.594	953.880	714.083
164.921	13.548	953.442	713.495
165.935	13.629	952.447	713.037
166.950	13.760	951.119	712.540
167.964	13.784	950.420	712.056
168.979	13.650	949.787	710.944
169.994	13.762	948.960	710.745
171.008	13.772	948.318	710.244
172.023	13.667	947.985	709.480
173.037	13.789	946.750	709.013
174.052	13.749	946.003	708.224
175.067	13.666	945.781	707.640
176.081	13.679	945.203	707.201
177.096	13.778	944.349	706.920
178.110	13.741	943.736	706.243
179.125	13.724	943.154	705.670
180.140	13.805	942.986	705.828
181.154	13.776	942.416	705.215
182.169	13.865	941.484	704.834
183.183	13.884	941.051	704.528
184.198	13.827	940.318	703.672
185.213	13.906	939.757	703.526
186.227	13.994	938.787	703.112
187.242	14.036	938.092	702.704
188.256	14.119	937.040	702.205
189.271	13.973	936.595	701.195
190.286	13.890	935.877	700.246
191.300	13.738	935.302	699.113
192.315	13.971	934.417	699.369
193.329	13.742	934.386	698.321
194.344	13.899	933.583	698.317
195.359	13.925	933.116	698.015
196.373	14.042	932.272	697.816
197.388	13.997	932.101	697.436
198.402	13.988	931.467	696.862
199.417	14.058	930.943	696.702
200.432	14.192	930.317	696.733
201.446	14.140	930.121	696.306
202.461	14.215	929.354	695.984
203.475	14.380	928.353	695.863
204.490	14.193	928.178	694.890
205.504	14.043	927.335	693.571
206.519	14.070	926.518	693.010
207.534	14.172	925.625	692.707
208.548	14.116	924.932	691.892
209.563	14.165	924.526	691.733
210.577	14.322	923.729	691.726
211.592	14.302	922.922	690.977
212.607	14.346	922.134	690.508
213.621	14.326	921.469	689.866
214.636	14.347	920.767	689.369
215.650	14.289	920.211	688.652
216.665	14.320	919.471	688.166
217.680	14.371	918.536	687.615
218.694	14.347	918.272	687.258
219.709	14.383	917.435	686.719
220.723	14.369	916.672	686.028
221.738	14.311	916.149	685.337
222.753	14.419	915.214	685.022
223.767	14.409	914.925	684.704
224.782	14.532	914.181	684.592
225.796	14.608	913.521	684.348
226.811	14.508	913.130	683.583
227.826	14.481	912.811	683.176
228.840	14.515	911.641	682.377
229.855	14.428	910.610	681.189
230.869	14.499	910.137	681.068
231.884	14.497	909.370	680.423
232.899	14.430	908.936	679.767
233.913	14.561	907.951	679.502
234.928	14.492	907.227	678.620
235.942	14.560	906.662	678.412
236.957	14.499	906.373	677.889
237.972	14.551	905.613	677.472
238.986	14.367	905.475	676.562
240.001	14.460	904.562	676.198
241.015	14.665	903.405	676.100
242.030	14.603	903.436	675.814
243.045	14.655	902.247	675.077
244.059	14.605	902.118	674.717
245.074	14.630	901.374	674.202
246.088	14.685	900.164	673.459
247.103	14.627	899.651	672.783
248.117	14.786	899.506	673.255
249.132	14.811	899.017	672.929
250.147	14.857	898.161	672.413
251.161	14.999	897.478	672.413
252.176	14.961	896.880	671.752
253.190	14.983	896.264	671.322
254.205	15.025	895.358	670.751
255.220	15.037	895.075	670.528
256.234	15.026	894.145	669.728
257.249	14.983	893.544	669.046
258.263	15.115	892.713	668.891
259.278	15.060	892.074	668.137
260.293	15.282	891.264	668.356
261.307	15.135	891.117	667.598
262.322	15.151	890.231	666.939
263.336	15.165	889.603	666.466
264.351	15.237	888.689	666.008
265.366	15.104	888.379	665.191
266.380	15.047	888.062	664.666
267.395	15.237	887.222	664.734
268.409	15.204	886.457	663.972
269.424	15.338	885.371	663.626
270.439	15.167	885.372	662.894
271.453	15.182	884.392	662.160
272.468	15.189	883.859	661.731
273.482	15.163	883.180	661.060
274.497	15.114	882.914	660.611
275.512	15.272	882.088	660.558
276.526	15.245	881.460	659.923
277.541	15.361	880.894	659.897
278.555	15.398	880.346	659.571
279.570	15.348	879.890	658.976
280.585	15.505	878.991	658.862
281.599	15.508	877.993	658.065
282.614	15.417	877.200	657.055
283.628	15.427	876.832	656.764
284.643	15.556	875.880	656.497
285.657	15.425	875.450	655.602
286.672	15.330	874.849	654.725
287.687	15.451	874.371	654.781
288.701	15.470	873.916	654.455
289.716	15.553	873.077	654.091
290.730	15.556	872.729	653.788
291.745	15.624	871.677	653.205
292.760	15.601	871.136	652.651
293.774	15.567	870.423	651.927
294.789	15.604	869.862	651.594
295.803	15.585	869.281	651.026
296.818	15.664	868.443	650.648
297.833	15.549	867.949	649.776
298.847	15.653	866.936	649.361
299.862	15.812	866.236	649.392
300.876	15.746	866.263	649.103
301.891	15.814	865.397	648.658
302.906	15.716	865.040	647.956
303.920	15.799	864.540	647.842
304.935	15.851	863.820	647.445
305.949	15.897	863.254	647.139
306.964	15.917	862.225	646.390
307.979	15.822	862.091	645.865
308.993	15.954	861.463	645.845
310.008	16.024	860.796	645.557
311.022	16.004	860.238	645.003
312.037	15.905	859.614	644.101
313.052	15.892	859.586	643.971
314.066	15.707	858.945	642.729
315.081	15.876	858.203	642.762
316.095	15.832	857.891	642.302
317.110	16.053	856.694	642.194
318.125	15.918	856.420	641.418
319.139	16.014	856.084	641.475
320.154	15.955	855.695	640.899
321.168	15.905	855.068	640.185
322.183	15.873	854.648	639.689
323.197	15.964	853.928	639.440
324.212	16.049	853.276	639.220
325.227	16.030	852.718	638.673
326.241	15.944	852.123	637.845
327.256	16.002	851.925	637.861
328.270	15.960	851.529	637.346
329.285	15.929	850.970	636.755
330.300	15.968	850.069	636.170
331.314	16.157	849.141	636.136
332.329	16.182	848.817	635.928
333.343	16.074	848.593	635.297
334.358	16.061	848.058	634.793
335.373	16.185	847.687	634.924
336.387	16.033	847.620	634.248
337.402	16.083	846.963	633.889
338.416	16.092	846.758	633.713
339.431	16.269	846.090	633.820
340.446	16.308	845.935	633.793
341.460	16.390	845.284	633.560
342.475	16.366	845.103	633.277
343.489	16.421	844.320	632.840
344.504	16.195	844.498	632.072
345.519	16.339	843.706	631.962
346.533	16.486	842.882	631.836
347.548	16.468	842.355	631.320
348.562	16.432	842.045	630.897
349.577	16.323	841.262	629.848
350.592	16.429	840.499	629.617
351.606	16.454	840.123	629.370
352.621	16.361	839.183	628.264
353.635	16.359	838.868	627.968
354.650	16.344	838.089	627.273
355.665	16.672	837.411	627.926
356.679	16.552	836.675	626.872
357.694	16.590	835.984	626.440
358.708	16.637	835.473	626.176
359.723	16.604	834.833	625.520
360.738	16.619	834.542	625.301
361.752	16.673	833.764	624.861
362.767	16.610	833.476	624.361
363.781	16.694	832.612	623.965
364.796	16.710	832.410	623.820
365.810	16.683	831.824	623.226
366.825	16.713	831.539	623.068
367.840	16.864	831.153	623.280
368.854	16.730	830.507	622.244
369.869	16.658	830.182	621.683
370.883	16.722	829.712	621.513
371.898	16.762	829.305	621.297
372.913	16.706	829.152	620.921
373.927	16.897	828.506	621.083
374.942	16.815	828.000	620.349
375.956	17.021	827.812	620.907
376.971	16.919	827.468	620.222
377.986	16.925	826.630	619.559
379.000	17.082	826.243	619.787
380.015	17.057	825.674	619.215
381.029	17.028	825.230	618.724
382.044	17.012	824.813	618.296
383.059	17.031	824.413	618.010
384.073	17.003	823.852	617.433
385.088	17.065	822.928	616.910
386.102	16.997	822.541	616.320
387.117	17.001	822.062	615.920
388.132	16.965	821.316	615.178
389.146	17.035	820.602	614.842
390.161	17.249	819.806	614.966
391.175	17.046	819.894	614.242
392.190	17.199	819.066	614.123
393.205	17.028	818.881	613.309
394.219	17.083	818.553	613.210
395.234	17.070	818.184	612.833
396.248	17.133	817.535	612.519
397.263	17.045	817.372	612.023
398.278	17.150	816.550	611.734
399.292	17.083	816.642	611.507
400.307	17.098	815.831	610.898
401.321	17.160	815.271	610.650
402.336	17.182	814.924	610.414
403.350	17.141	814.554	609.934
404.365	17.217	814.063	609.786
405.380	17.471	813.009	609.852
406.394	17.365	812.426	608.983
407.409	17.406	812.434	609.081
408.423	17.333	812.230	608.611
409.438	17.444	811.701	608.561
410.453	17.534	811.180	608.437
411.467	17.625	810.761	608.393
412.482	17.559	810.768	608.109
413.496	17.545	809.928	607.376
414.511	17.520	809.895	607.209
415.526	17.579	809.387	606.982
416.540	17.481	808.863	606.188
417.555	17.592	808.061	605.929
418.569	17.468	808.071	605.442
419.584	17.694	807.386	605.677
420.599	17.683	807.126	605.391
421.613	113.689	1298.517	1487.315
422.628	98.200	1370.063	1487.377
