DTS Sentinel unit serial number:	SN413079Multiplexer serial number:	ORYXHardware model number:	OX4-SRSoftware version number:	ORYX F/W v4.00 Oryx Data Collector v3.7.2.0data status	okinstallation	princeton_trtdifferential loss correction	single-endedforward channel	channel 1reverse channel	N/Adate	2019/09/18time	22:42:35forward acquisition time	60.00reverse acquisition time	0.00gamma	496.2192k internal	0.2340k external	0.2340temperature offset calibration	1.0018default loss term (dB/km)	0.3790temperature slope calibration	1.0000multiplexer offset coefficient	1.0000multiplexer slope coefficient	1.0000fibre end	0.00T internal ref (°C)	24.12T ext. ref 1 (°C)	0.79T ext. ref 2 (°C)	17.99length (m)	temperature (°C)	Stokes	anti-Stokes-747.200	565.791	0.026	0.062
-746.185	-11.567	0.233	-0.154
-745.171	36.957	0.104	0.092
-744.156	800.000	-0.094	0.360
-743.142	-200.000	0.003	-0.238
-742.127	-12.668	0.034	0.022
-741.112	450.927	0.086	-0.189
-740.098	-200.000	0.014	-0.124
-739.083	-59.067	-0.174	0.075
-738.069	23.902	-0.037	-0.030
-737.054	-128.890	0.225	-0.032
-736.039	-31.667	-0.168	-0.095
-735.025	-200.000	0.023	0.183
-734.010	142.667	0.079	0.105
-732.996	251.192	-0.194	-0.331
-731.981	800.000	0.063	-0.205
-730.966	20.691	-0.167	-0.135
-729.952	-155.859	-0.285	0.018
-728.937	363.736	-0.077	0.155
-727.923	-73.512	-0.296	0.108
-726.908	800.000	0.071	0.237
-725.894	-58.798	-0.238	-0.103
-724.879	-6.721	-0.165	0.113
-723.864	-36.536	0.231	-0.124
-722.850	619.416	-0.020	-0.051
-721.835	-38.916	-0.401	0.212
-720.821	-146.338	0.259	0.023
-719.806	-116.487	-0.355	-0.066
-718.791	800.000	-0.019	-0.072
-717.777	800.000	-0.064	-0.202
-716.762	503.632	-0.220	0.510
-715.748	-28.917	0.173	-0.099
-714.733	-91.598	-0.327	-0.093
-713.718	591.453	-0.008	-0.020
-712.704	435.533	-0.036	0.078
-711.689	-185.725	-0.300	-0.005
-710.675	70.106	0.116	-0.119
-709.660	-94.829	0.147	-0.040
-708.645	-123.454	0.040	0.006
-707.631	-114.041	0.331	0.064
-706.616	241.037	-0.154	-0.258
-705.602	3.120	-0.177	-0.128
-704.587	-118.817	0.206	0.036
-703.572	133.924	0.259	0.335
-702.558	-0.829	-0.008	-0.006
-701.543	-200.000	0.006	0.074
-700.529	100.457	0.237	0.276
-699.514	-64.147	-0.075	-0.031
-698.499	493.862	0.187	-0.430
-697.485	800.000	-0.121	-0.353
-696.470	310.950	0.123	-0.231
-695.456	244.085	-0.074	-0.124
-694.441	663.789	0.071	-0.182
-693.426	174.454	0.227	0.328
-692.412	589.015	-0.103	-0.254
-691.397	800.000	0.073	-0.313
-690.383	348.972	-0.068	0.133
-689.368	-200.000	-0.015	-0.322
-688.354	-74.893	-0.086	-0.031
-687.339	2.286	-0.165	-0.119
-686.324	503.352	0.203	-0.470
-685.310	800.000	-0.047	0.169
-684.295	-200.000	0.007	-0.360
-683.281	142.476	0.138	0.184
-682.266	-159.674	-0.238	0.013
-681.251	-31.517	-0.236	0.133
-680.237	-65.434	0.107	-0.043
-679.222	471.469	-0.156	0.350
-678.208	800.000	-0.024	-0.099
-677.193	327.546	-0.099	-0.190
-676.178	-89.581	0.411	-0.121
-675.164	-200.000	-0.000	-0.224
-674.149	-200.000	0.009	-0.057
-673.135	-93.053	0.238	-0.066
-672.120	94.138	-0.229	0.260
-671.105	-24.271	-0.377	0.225
-670.091	298.028	-0.140	-0.257
-669.076	394.521	-0.063	0.131
-668.062	-110.292	-0.220	-0.046
-667.047	-116.946	0.104	0.019
-666.032	-200.000	0.014	-0.311
-665.018	-67.895	-0.194	-0.076
-664.003	193.102	0.212	0.320
-662.989	-136.286	0.405	-0.047
-661.974	-200.000	0.058	0.256
-660.959	-44.661	-0.100	-0.050
-659.945	-200.000	-0.015	0.103
-658.930	-86.486	0.158	0.048
-657.916	-68.721	0.110	-0.042
-656.901	-178.692	0.236	-0.005
-655.886	-200.000	-0.018	-0.304
-654.872	324.607	-0.014	0.027
-653.857	-81.737	0.441	-0.144
-652.843	-173.224	-0.450	0.014
-651.828	-106.308	0.312	-0.070
-650.814	143.649	-0.263	-0.350
-649.799	800.000	-0.057	0.163
-648.784	-67.596	-0.085	0.033
-647.770	-1.219	-0.014	0.010
-646.755	760.299	0.085	0.230
-645.741	-200.000	-0.023	-0.303
-644.726	-104.598	0.109	0.025
-643.711	-57.634	-0.345	0.151
-642.697	255.389	0.071	0.122
-641.682	80.790	-0.229	0.246
-640.668	-68.466	-0.177	0.068
-639.653	-200.000	-0.005	0.167
-638.638	-69.097	-0.119	0.046
-637.624	706.648	0.113	0.299
-636.609	-200.000	-0.017	-0.293
-635.595	100.288	-0.246	-0.284
-634.580	-16.807	0.046	-0.029
-633.565	254.581	-0.090	-0.154
-632.551	-61.216	0.108	-0.046
-631.536	-98.872	-0.197	0.050
-630.522	-200.000	-0.034	-0.187
-629.507	-76.056	-0.151	-0.053
-628.492	363.933	0.064	-0.129
-627.478	800.000	0.072	0.212
-626.463	109.753	-0.115	-0.138
-625.449	-200.000	0.015	-0.192
-624.434	29.978	-0.252	0.214
-623.419	-46.760	-0.040	-0.019
-622.405	-200.000	0.043	-0.238
-621.390	60.435	-0.281	-0.277
-620.376	13.828	0.179	-0.139
-619.361	190.700	0.030	-0.045
-618.346	22.784	0.129	-0.106
-617.332	155.584	0.074	0.102
-616.317	-200.000	0.012	0.138
-615.303	43.047	-0.098	-0.089
-614.288	794.387	-0.085	-0.232
-613.273	-95.114	-0.138	-0.037
-612.259	-124.375	-0.367	0.057
-611.244	-151.774	0.198	0.015
-610.230	165.508	-0.229	-0.323
-609.215	376.981	0.066	0.135
-608.201	-137.485	-0.242	0.027
-607.186	47.271	0.075	-0.069
-606.171	-63.748	-0.506	-0.207
-605.157	253.567	-0.155	-0.263
-604.142	69.284	0.179	0.183
-603.128	-60.562	-0.125	-0.053
-602.113	800.000	-0.086	0.340
-601.098	103.930	0.102	-0.120
-600.084	-72.699	0.149	-0.055
-599.069	323.474	0.016	0.031
-598.055	-47.305	0.216	-0.105
-597.040	800.000	0.041	-0.166
-596.025	-76.768	-0.106	0.037
-595.011	17.657	-0.189	-0.150
-593.996	83.970	0.149	-0.162
-592.982	667.024	-0.047	0.120
-591.967	-200.000	0.001	-0.330
-590.952	-200.000	0.007	0.186
-589.938	800.000	0.074	0.272
-588.923	-8.939	-0.148	-0.099
-587.909	-94.433	-0.420	0.114
-586.894	-93.231	0.250	-0.069
-585.879	56.882	0.102	0.099
-584.865	565.759	-0.090	0.218
-583.850	-200.000	-0.006	0.174
-582.836	800.000	-0.062	-0.202
-581.821	-59.807	-0.286	-0.122
-580.806	-8.088	-0.165	-0.111
-579.792	-200.000	0.037	-0.415
-578.777	568.806	0.116	-0.282
-577.763	-200.000	0.024	0.115
-576.748	-96.611	-0.072	-0.019
-575.733	-19.853	-0.128	0.078
-574.719	33.681	-0.161	-0.139
-573.704	-88.728	0.094	0.028
-572.690	576.365	-0.060	-0.146
-571.675	-200.000	-0.004	0.133
-570.661	-200.000	0.020	0.192
-569.646	633.929	0.129	0.326
-568.631	26.887	-0.202	0.168
-567.617	-26.777	0.073	-0.043
-566.602	-200.000	0.006	0.075
-565.588	-17.092	-0.184	0.116
-564.573	-168.935	-0.425	0.016
-563.558	-81.571	-0.255	-0.083
-562.544	39.081	-0.144	0.129
-561.529	-200.000	0.034	-0.171
-560.515	287.655	0.198	-0.356
-559.500	-200.000	-0.089	0.518
-558.485	25.486	-0.112	0.093
-557.471	800.000	-0.106	-0.365
-556.456	-37.595	-0.192	0.102
-555.442	261.538	0.017	0.030
-554.427	-9.214	-0.162	-0.108
-553.412	10.391	0.183	0.138
-552.398	-127.305	-0.065	-0.009
-551.383	-200.000	0.061	0.355
-550.369	800.000	0.074	0.301
-549.354	72.312	-0.221	-0.229
-548.339	800.000	-0.034	-0.113
-547.325	10.636	0.162	0.123
-546.310	-64.101	-0.139	-0.056
-545.296	-54.339	-0.113	0.051
-544.281	606.734	0.187	-0.463
-543.266	225.893	-0.166	0.267
-542.252	-2.194	0.308	-0.215
-541.237	-42.020	0.114	-0.058
-540.223	45.727	0.162	-0.148
-539.208	-155.182	-0.113	-0.007
-538.193	800.000	0.021	-0.083
-537.179	-59.675	0.349	-0.149
-536.164	-5.712	-0.065	-0.044
-535.150	-29.296	0.278	-0.158
-534.135	-200.000	-0.004	0.157
-533.121	37.445	0.142	0.125
-532.106	-200.000	-0.001	-0.007
-531.091	90.694	0.237	-0.264
-530.077	800.000	-0.053	-0.182
-529.062	410.454	0.159	-0.334
-528.048	-15.947	-0.096	-0.060
-527.033	53.723	-0.123	-0.117
-526.018	-147.868	-0.154	-0.013
-525.004	-0.944	0.198	-0.140
-523.989	-99.243	-0.187	0.047
-522.975	541.784	-0.073	-0.173
-521.960	800.000	-0.051	0.171
-520.945	172.131	0.083	0.119
-519.931	377.306	-0.129	0.261
-518.916	723.600	0.056	-0.149
-517.902	-72.222	0.133	-0.049
-516.887	-110.641	-0.174	-0.036
-515.872	-49.251	-0.164	0.078
-514.858	185.220	0.091	0.134
-513.843	41.260	0.274	-0.246
-512.829	65.968	0.035	0.035
-511.814	-137.514	0.398	0.045
-510.799	800.000	0.060	0.170
-509.785	56.960	0.097	-0.094
-508.770	-125.105	-0.213	0.032
-507.756	136.445	0.106	0.138
-506.741	-200.000	0.072	0.327
-505.726	800.000	-0.046	-0.181
-504.712	-200.000	0.001	-0.092
-503.697	-200.000	0.039	0.292
-502.683	69.936	0.255	0.261
-501.668	-137.290	-0.170	-0.019
-500.653	-62.187	-0.233	-0.096
-499.639	-5.295	-0.145	0.099
-498.624	-96.709	-0.287	0.075
-497.610	24.603	-0.197	0.161
-496.595	-3.339	-0.070	-0.048
-495.581	129.157	0.257	0.326
-494.566	800.000	0.039	0.112
-493.551	-200.000	0.081	-0.407
-492.537	-93.554	0.174	-0.048
-491.522	-156.486	0.209	-0.013
-490.508	-200.000	0.002	0.029
-489.493	352.876	-0.095	-0.188
-488.478	501.146	-0.126	0.288
-487.464	-31.745	-0.108	-0.060
-486.449	-77.458	0.127	-0.044
-485.435	800.000	-0.064	-0.216
-484.420	-154.118	-0.191	0.013
-483.405	-200.000	0.013	0.076
-482.391	-200.000	-0.063	-0.294
-481.376	-84.592	-0.235	0.074
-480.362	-184.626	0.182	0.003
-479.347	310.185	-0.037	0.069
-478.332	141.207	0.129	0.169
-477.318	583.684	0.031	0.075
-476.303	119.503	0.190	0.234
-475.289	-155.034	-0.108	-0.007
-474.274	-200.000	0.015	0.289
-473.259	12.340	-0.420	-0.321
-472.245	-33.020	-0.174	-0.096
-471.230	-106.259	-0.253	-0.056
-470.216	-35.728	0.203	0.109
-469.201	-200.000	-0.013	-0.092
-468.186	-46.923	-0.145	0.070
-467.172	218.433	-0.119	-0.189
-466.157	101.571	-0.119	-0.138
-465.143	-119.186	-0.026	-0.004
-464.128	-51.938	-0.214	-0.099
-463.113	800.000	0.028	0.108
-462.099	382.049	-0.153	-0.312
-461.084	107.949	0.156	-0.185
-460.070	-55.625	-0.322	0.143
-459.055	437.635	-0.106	-0.229
-458.040	800.000	0.021	0.065
-457.026	258.005	-0.034	-0.057
-456.011	649.076	0.079	-0.199
-454.997	-90.573	0.279	0.080
-453.982	179.454	0.034	0.049
-452.968	-64.017	0.036	-0.014
-451.953	90.017	0.333	0.369
-450.938	-140.117	-0.102	0.011
-449.924	-37.584	0.182	0.096
-448.909	592.400	0.057	0.140
-447.895	1.359	0.292	-0.208
-446.880	-120.304	0.355	0.060
-445.865	21.313	-0.334	-0.269
-444.851	-200.000	0.008	0.379
-443.836	303.969	0.100	0.184
-442.822	800.000	0.086	0.333
-441.807	-63.563	-0.193	-0.078
-440.792	-181.246	-0.202	0.004
-439.778	-119.711	0.221	-0.038
-438.763	800.000	-0.036	-0.150
-437.749	168.608	-0.101	-0.143
-436.734	-86.062	0.042	-0.013
-435.719	152.942	-0.045	0.061
-434.705	-118.110	-0.457	-0.081
-433.690	138.221	0.134	-0.175
-432.676	-35.562	0.266	0.143
-431.661	56.821	0.193	0.186
-430.646	-200.000	0.075	0.490
-429.632	12.760	0.213	-0.163
-428.617	649.736	0.040	0.102
-427.603	35.110	0.056	-0.049
-426.588	-71.435	-0.500	0.185
-425.573	800.000	0.031	0.118
-424.559	-21.713	0.119	0.072
-423.544	284.009	0.140	0.250
-422.530	-153.324	-0.096	0.007
-421.515	-200.000	0.006	0.303
-420.500	800.000	0.068	0.265
-419.486	-200.000	-0.003	0.380
-418.471	-74.909	0.416	0.148
-417.457	800.000	0.192	-0.614
-416.442	-200.000	0.026	0.150
-415.428	0.316	0.233	0.165
-414.413	-200.000	-0.026	-0.291
-413.398	-200.000	0.020	0.096
-412.384	54.673	0.117	-0.111
-411.369	209.095	0.258	-0.400
-410.355	105.715	0.103	-0.121
-409.340	-145.948	0.341	-0.030
-408.325	464.692	0.016	-0.035
-407.311	-200.000	0.031	-0.221
-406.296	-166.765	-0.135	-0.006
-405.282	-200.000	0.037	0.209
-404.267	800.000	-0.043	0.144
-403.252	-200.000	-0.022	-0.154
-402.238	795.379	0.032	-0.087
-401.223	-111.799	-0.242	0.048
-400.209	-89.522	0.233	-0.068
-399.194	-109.414	-0.095	0.020
-398.179	29.740	0.373	-0.314
-397.165	90.928	-0.023	-0.026
-396.150	-119.245	0.075	0.013
-395.136	-170.561	0.210	0.007
-394.121	-200.000	-0.023	-0.154
-393.106	-82.498	0.235	0.075
-392.092	190.783	0.095	0.141
-391.077	55.627	-0.230	0.220
-390.063	-125.414	0.259	0.039
-389.048	343.958	-0.118	-0.229
-388.033	-58.067	-0.056	0.024
-387.019	115.301	-0.024	-0.029
-386.004	170.236	0.057	-0.081
-384.990	383.701	0.064	0.131
-383.975	-70.089	0.230	-0.086
-382.960	800.000	-0.067	0.195
-381.946	-200.000	-0.032	0.163
-380.931	295.678	0.102	0.184
-379.917	28.632	-0.195	0.163
-378.902	346.079	0.140	0.273
-377.888	167.989	-0.131	-0.185
-376.873	26.871	0.123	0.102
-375.858	257.024	-0.198	0.336
-374.844	-147.338	-0.212	0.018
-373.829	-195.434	0.351	-0.003
-372.815	110.799	-0.185	0.220
-371.800	-122.758	-0.161	0.026
-370.785	-32.439	0.196	0.108
-369.771	-200.000	-0.001	-0.027
-368.756	276.975	-0.187	0.328
-367.742	158.795	0.147	-0.201
-366.727	45.575	-0.169	-0.154
-365.712	-200.000	-0.017	0.256
-364.698	513.622	-0.124	0.286
-363.683	-124.634	-0.222	-0.034
-362.669	150.651	-0.213	-0.286
-361.654	800.000	-0.097	-0.343
-360.639	693.405	0.121	-0.314
-359.625	37.459	0.098	-0.086
-358.610	76.208	0.290	-0.303
-357.596	-124.535	-0.295	0.045
-356.581	-100.627	0.199	0.048
-355.566	800.000	-0.038	0.120
-354.552	800.000	0.011	-0.048
-353.537	-58.531	0.272	0.116
-352.523	2.850	-0.174	0.125
-351.508	-43.759	-0.246	-0.123
-350.493	-97.315	-0.135	-0.035
-349.479	-38.968	0.250	0.130
-348.464	-93.442	-0.188	-0.051
-347.450	-92.495	0.069	0.019
-346.435	14.714	0.035	0.027
-345.420	-44.952	-0.168	-0.083
-344.406	13.777	0.131	-0.101
-343.391	176.220	-0.192	0.275
-342.377	-16.908	-0.262	0.163
-341.362	-94.058	0.338	0.092
-340.348	488.870	-0.143	0.323
-339.333	290.968	-0.164	0.294
-338.318	234.308	-0.211	-0.343
-337.304	736.680	0.044	0.116
-336.289	399.118	0.127	-0.263
-335.275	-21.235	-0.192	-0.116
-334.260	800.000	-0.042	0.156
-333.245	-200.000	0.035	0.303
-332.231	-115.808	0.270	0.050
-331.216	-36.672	-0.088	0.047
-330.202	-112.451	0.130	0.026
-329.187	168.355	-0.082	0.115
-328.172	-94.773	0.356	-0.095
-327.158	-21.102	-0.340	0.205
-326.143	201.686	0.094	0.143
-325.129	273.048	-0.197	-0.343
-324.114	577.505	0.214	-0.517
-323.099	241.325	-0.272	-0.447
-322.085	-200.000	-0.025	-0.169
-321.070	800.000	0.067	0.195
-320.056	-200.000	-0.081	0.369
-319.041	164.014	-0.055	0.076
-318.026	-97.615	0.205	0.052
-317.012	-65.061	0.349	0.139
-315.997	244.806	-0.099	0.164
-314.983	-116.727	0.111	-0.020
-313.968	800.000	-0.096	0.293
-312.953	691.891	-0.101	-0.262
-311.939	547.459	-0.036	-0.086
-310.924	324.510	0.058	-0.110
-309.910	53.421	-0.104	0.098
-308.895	-10.759	-0.075	-0.049
-307.880	36.568	-0.028	0.024
-306.866	336.159	0.029	-0.056
-305.851	-88.448	0.178	-0.052
-304.837	-83.802	0.231	0.073
-303.822	-200.000	0.022	0.181
-302.807	-26.572	0.233	0.134
-301.793	-200.000	0.005	-0.126
-300.778	19.331	0.397	-0.314
-299.764	0.190	0.132	0.093
-298.749	49.994	-0.032	0.029
-297.735	-14.420	-0.173	0.109
-296.720	-166.705	0.128	-0.005
-295.705	346.189	-0.129	0.250
-294.691	-200.000	-0.050	-0.237
-293.676	-66.474	-0.249	0.097
-292.662	-146.584	0.182	0.016
-291.647	-37.687	0.246	-0.129
-290.632	-103.391	-0.319	0.074
-289.618	800.000	-0.080	0.280
-288.603	-44.828	-0.134	-0.066
-287.589	265.299	-0.050	0.086
-286.574	-181.475	0.368	0.007
-285.559	115.897	-0.344	-0.415
-284.545	-6.980	-0.227	-0.152
-283.530	-200.000	0.016	0.101
-282.516	256.544	0.196	0.332
-281.501	-23.515	-0.221	-0.131
-280.486	-200.000	0.035	-0.405
-279.472	-200.000	0.022	0.298
-278.457	-61.078	-0.211	0.088
-277.443	-64.864	0.401	-0.160
-276.428	-122.612	0.609	0.097
-275.413	-136.347	-0.179	-0.021
-274.399	671.525	-0.118	-0.301
-273.384	120.610	0.116	0.142
-272.370	521.756	-0.038	0.088
-271.355	15.976	0.215	-0.166
-270.340	378.269	-0.060	0.122
-269.326	-4.043	-0.272	0.186
-268.311	302.817	0.117	0.213
-267.297	76.850	-0.078	0.082
-266.282	-22.506	-0.181	0.108
-265.267	267.141	0.130	0.224
-264.253	-200.000	-0.030	0.229
-263.238	-200.000	0.044	0.252
-262.224	-19.566	-0.248	0.151
-261.209	800.000	0.042	-0.119
-260.195	412.913	-0.091	-0.190
-259.180	-136.313	-0.152	0.017
-258.165	-200.000	0.055	-0.292
-257.151	96.632	-0.091	0.103
-256.136	395.561	0.165	0.338
-255.122	148.311	0.021	0.028
-254.107	-51.859	0.252	0.115
-253.092	8.037	0.252	0.186
-252.078	230.473	-0.108	0.173
-251.063	12.002	-0.324	0.245
-250.049	-86.440	-0.104	0.031
-249.034	-200.000	-0.072	-0.397
-248.019	110.007	0.117	0.138
-247.005	673.815	0.078	0.199
-245.990	800.000	-0.036	0.120
-244.976	-163.559	-0.286	0.013
-243.961	68.087	0.269	-0.270
-242.946	54.222	-0.142	-0.135
-241.932	-119.451	-0.049	0.008
-240.917	-126.158	-0.067	0.010
-239.903	-43.893	0.196	-0.097
-238.888	-63.030	0.161	0.066
-237.873	-144.564	0.195	-0.018
-236.859	-109.842	-0.213	-0.044
-235.844	-44.417	-0.103	0.051
-234.830	-200.000	-0.030	0.255
-233.815	501.199	-0.037	0.083
-232.800	800.000	0.103	-0.362
-231.786	77.228	0.362	0.378
-230.771	697.781	0.064	0.166
-229.757	-63.328	0.263	0.106
-228.742	-133.592	0.302	-0.037
-227.727	35.147	0.178	-0.153
-226.713	-53.949	-0.071	-0.032
-225.698	-186.919	-0.193	0.003
-224.684	-74.276	-0.510	-0.181
-223.669	352.698	-0.070	0.137
-222.655	150.998	0.083	-0.111
-221.640	345.280	-0.149	-0.287
-220.625	-200.000	-0.022	-0.262
-219.611	37.689	0.117	-0.102
-218.596	391.053	-0.077	-0.158
-217.582	-200.000	0.018	0.086
-216.567	-200.000	0.043	0.237
-215.552	157.204	-0.253	-0.344
-214.538	800.000	0.065	0.182
-213.523	78.208	0.216	0.226
-212.509	800.000	0.062	-0.221
-211.494	-126.819	-0.251	0.036
-210.479	89.020	0.282	-0.309
-209.465	232.686	-0.068	-0.110
-208.450	-27.155	-0.327	0.187
-207.436	800.000	0.028	-0.079
-206.421	301.116	-0.041	-0.075
-205.406	90.497	-0.095	0.104
-204.392	-200.000	-0.045	-0.224
-203.377	-31.986	-0.117	-0.064
-202.363	213.817	-0.288	-0.447
-201.348	176.796	0.261	-0.373
-200.333	45.135	0.111	0.100
-199.319	-84.253	-0.140	0.043
-198.304	246.368	-0.160	0.264
-197.290	110.955	0.027	-0.032
-196.275	-94.777	-0.064	0.017
-195.260	-10.886	0.124	-0.081
-194.246	-200.000	-0.025	0.180
-193.231	-200.000	-0.044	0.229
-192.217	288.983	-0.043	-0.076
-191.202	205.795	0.226	-0.345
-190.187	18.181	-0.136	0.107
-189.173	65.949	-0.313	0.311
-188.158	-61.439	0.301	-0.124
-187.144	209.688	0.137	0.211
-186.129	182.600	0.081	-0.118
-185.114	-200.000	-0.035	-0.249
-184.100	47.406	0.152	-0.139
-183.085	3.743	0.101	-0.072
-182.071	372.035	-0.031	0.061
-181.056	-21.487	0.148	-0.089
-180.042	53.261	-0.360	-0.338
-179.027	-34.864	0.223	0.119
-178.012	133.517	0.148	-0.187
-176.998	-86.906	-0.212	0.064
-175.983	-153.983	0.181	0.012
-174.969	-200.000	-0.013	0.228
-173.954	474.515	0.167	-0.369
-172.939	111.836	0.072	0.085
-171.925	130.213	0.220	0.277
-170.910	-200.000	-0.042	-0.250
-169.896	-20.103	0.236	0.143
-168.881	-100.720	0.275	-0.066
-167.866	114.839	0.080	0.095
-166.852	76.465	0.046	-0.048
-165.837	-104.302	0.087	0.020
-164.823	-134.023	0.277	-0.034
-163.808	-33.124	-0.053	0.029
-162.793	-107.929	-0.184	0.039
-161.779	-200.000	0.041	-0.395
-160.764	41.501	0.234	-0.207
-159.750	270.054	-0.190	-0.327
-158.735	-152.513	0.222	0.016
-157.720	800.000	-0.056	-0.180
-156.706	724.118	0.146	0.380
-155.691	-30.897	-0.117	0.065
-154.677	1.654	0.260	0.184
-153.662	35.083	-0.094	-0.081
-152.647	800.000	-0.022	-0.072
-151.633	41.539	0.240	-0.213
-150.618	507.408	0.051	-0.116
-149.604	58.309	0.154	0.148
-148.589	32.953	0.050	0.043
-147.574	-102.980	-0.080	0.018
-146.560	-200.000	-0.049	0.250
-145.545	-114.735	0.211	-0.040
-144.531	-200.000	0.062	-0.296
-143.516	-126.250	0.049	-0.007
-142.502	-102.048	0.205	0.048
-141.487	-167.089	-0.155	0.006
-140.472	474.326	0.055	-0.121
-139.458	-91.651	0.361	-0.101
-138.443	800.000	0.057	0.220
-137.429	-134.199	0.289	0.035
-136.414	-144.962	0.311	-0.028
-135.399	800.000	0.102	0.365
-134.385	-200.000	-0.037	-0.224
-133.370	143.595	0.370	0.482
-132.356	-128.445	0.148	0.021
-131.341	169.834	0.096	0.135
-130.326	800.000	-0.141	0.401
-129.312	-25.352	-0.138	0.080
-128.297	-30.440	-0.350	-0.195
-127.283	342.667	0.077	0.148
-126.268	800.000	0.085	0.256
-125.253	-200.000	-0.019	-0.123
-124.239	-11.391	-0.074	-0.047
-123.224	393.973	0.170	0.347
-122.210	-8.962	0.066	0.043
-121.195	-200.000	-0.000	0.221
-120.180	296.696	-0.224	0.402
-119.166	203.050	0.174	0.263
-118.151	15.283	0.189	0.145
-117.137	-6.159	-0.147	0.098
-116.122	302.772	0.079	-0.144
-115.107	800.000	0.039	0.143
-114.093	132.004	0.252	0.318
-113.078	800.000	0.039	-0.142
-112.064	-200.000	0.004	0.181
-111.049	-200.000	0.002	0.100
-110.034	13.074	0.171	0.130
-109.020	-200.000	-0.041	0.306
-108.005	-125.456	-0.104	0.016
-106.991	-39.501	0.157	-0.081
-105.976	794.583	0.111	-0.300
-104.962	-137.355	-0.238	-0.026
-103.947	-200.000	-0.020	-0.144
-102.932	-200.000	-0.001	0.120
-101.918	-103.732	0.200	0.046
-100.903	285.134	0.043	0.077
-99.889	-34.953	0.128	-0.068
-98.874	-200.000	-0.019	-0.131
-97.859	-89.804	-0.107	-0.030
-96.845	-200.000	0.025	0.163
-95.830	99.718	-0.276	-0.312
-94.816	-101.692	-0.108	0.026
-93.801	622.439	-0.085	0.209
-92.786	-188.472	0.129	0.002
-91.772	441.005	-0.057	0.121
-90.757	-86.116	-0.329	0.099
-89.743	111.089	-0.137	-0.162
-88.728	680.041	0.065	0.165
-87.713	-200.000	-0.005	0.123
-86.699	-14.952	-0.141	0.088
-85.684	-8.772	-0.175	-0.115
-84.670	-200.000	0.023	0.259
-83.655	-200.000	0.027	0.291
-82.640	-152.208	0.115	0.008
-81.626	72.987	0.257	0.262
-80.611	44.340	0.117	0.105
-79.597	-40.584	-0.175	0.088
-78.582	88.147	0.223	-0.242
-77.567	-53.783	-0.272	-0.121
-76.553	-200.000	0.003	0.391
-75.538	53.040	-0.309	0.289
-74.524	172.290	0.064	-0.090
-73.509	95.657	-0.116	-0.130
-72.494	-200.000	-0.050	0.361
-71.480	84.982	-0.130	-0.139
-70.465	-200.000	0.034	0.327
-69.451	-200.000	-0.010	0.211
-68.436	116.427	-0.149	-0.178
-67.422	-200.000	0.006	-0.210
-66.407	-200.000	-0.020	0.113
-65.392	391.246	-0.107	0.217
-64.378	45.712	-0.107	-0.097
-63.363	-52.157	0.228	0.103
-62.349	-9.344	-0.151	-0.099
-61.334	69.407	-1.194	-1.200
-60.319	87.623	0.645	0.697
-59.305	800.000	-0.362	-1.169
-58.290	155.195	0.841	1.129
-57.276	393.585	0.821	1.669
-56.261	-200.000	121.884	646.366
-55.246	434.131	1540.938	3266.317
-54.232	147.523	2691.609	3537.333
-53.217	98.850	2137.984	2407.812
-52.203	35.608	1580.986	1354.786
-51.188	27.480	1326.057	1087.970
-50.173	24.756	1289.108	1041.772
-49.159	51.825	1357.474	1260.239
-48.144	49.239	1369.034	1255.451
-47.130	27.399	1317.554	1080.341
-46.115	24.331	1298.187	1046.446
-45.100	23.958	1293.764	1040.655
-44.086	24.135	1290.547	1039.063
-43.071	23.984	1288.592	1036.569
-42.057	23.952	1286.492	1034.650
-41.042	23.952	1285.054	1033.450
-40.027	24.099	1283.334	1032.879
-39.013	23.955	1282.045	1030.966
-37.998	24.012	1279.923	1029.552
-36.984	24.148	1278.167	1028.881
-35.969	24.184	1276.186	1027.455
-34.954	24.144	1274.716	1026.000
-33.940	24.113	1273.520	1024.821
-32.925	24.124	1271.919	1023.551
-31.911	24.232	1270.394	1022.905
-30.896	24.231	1269.753	1022.342
-29.881	24.135	1268.373	1020.642
-28.867	24.159	1266.820	1019.487
-27.852	24.281	1265.494	1019.076
-26.838	24.161	1264.554	1017.596
-25.823	24.299	1263.065	1017.145
-24.809	24.213	1261.338	1015.224
-23.794	24.204	1260.489	1014.451
-22.779	24.175	1259.140	1013.158
-21.765	24.170	1257.966	1012.143
-20.750	24.201	1256.451	1011.059
-19.736	24.213	1255.053	1009.965
-18.721	24.190	1254.033	1008.975
-17.706	24.095	1253.685	1008.113
-16.692	24.054	1252.154	1006.610
-15.677	24.145	1250.775	1005.976
-14.663	24.065	1249.648	1004.578
-13.648	23.994	1248.872	1003.517
-12.633	24.131	1247.584	1003.214
-11.619	24.094	1247.272	1002.713
-10.604	23.982	1246.296	1001.260
-9.590	24.051	1244.721	1000.339
-8.575	24.019	1244.121	999.642
-7.560	24.087	1243.208	999.249
-6.546	24.080	1242.389	998.510
-5.531	24.139	1241.410	998.017
-4.517	24.103	1240.333	996.909
-3.502	23.997	1240.227	996.192
-2.487	23.967	1239.156	995.125
-1.473	23.993	1235.055	991.935
-0.458	22.439	1220.269	971.455
0.556	18.206	1204.982	935.907
1.571	14.511	1212.198	921.060
2.586	13.820	1227.247	928.545
3.600	13.840	1215.064	919.357
4.615	10.445	1143.605	847.488
5.629	3.973	1073.467	763.591
6.644	0.959	1056.177	736.577
7.659	0.779	1054.266	734.306
8.673	0.700	1053.168	733.095
9.688	0.713	1052.424	732.571
10.702	1.088	1050.109	732.710
11.717	4.887	1053.919	753.711
12.731	11.736	1063.987	794.197
13.746	16.295	1069.169	820.193
14.761	17.481	1070.169	826.652
15.775	16.755	1067.974	821.361
16.790	15.724	1066.296	815.007
17.804	14.928	1065.082	810.151
18.819	14.570	1063.479	807.129
19.834	14.445	1062.930	806.033
20.848	14.238	1061.808	804.112
21.863	13.870	1061.263	801.854
22.877	13.806	1060.429	800.842
23.892	13.741	1059.575	799.813
24.907	13.716	1058.691	798.953
25.921	13.750	1058.520	798.916
26.936	13.812	1057.361	798.273
27.950	13.838	1056.090	797.364
28.965	13.927	1055.298	797.123
29.980	13.918	1053.699	795.803
30.994	14.105	1052.245	795.528
32.009	14.006	1051.666	794.548
33.023	13.945	1050.795	793.526
34.038	13.900	1049.587	792.330
35.053	14.003	1048.832	792.181
36.067	13.966	1047.791	791.152
37.082	13.945	1047.464	790.733
38.096	13.997	1046.630	790.281
39.111	14.013	1045.529	789.454
40.126	13.776	1044.977	787.842
41.140	13.869	1043.096	786.796
42.155	13.677	1042.336	785.243
43.169	13.737	1041.291	784.669
44.184	13.789	1039.700	783.647
45.199	13.776	1039.237	783.171
46.213	13.778	1038.114	782.261
47.228	13.828	1037.105	781.670
48.242	13.779	1036.186	780.676
49.257	13.861	1035.123	780.193
50.271	13.838	1034.217	779.334
51.286	13.817	1033.212	778.408
52.301	13.927	1032.286	778.155
53.315	13.818	1031.453	776.948
54.330	13.758	1030.555	775.926
55.344	13.829	1029.186	775.154
56.359	13.783	1028.656	774.475
57.374	13.790	1027.672	773.698
58.388	13.548	1027.301	772.223
59.403	13.751	1026.064	772.170
60.417	13.801	1024.821	771.397
61.432	13.683	1024.815	770.775
62.447	13.554	1024.236	769.671
63.461	13.649	1023.035	769.143
64.476	13.649	1022.107	768.377
65.490	13.648	1021.235	767.650
66.505	13.704	1020.783	767.502
67.520	13.711	1020.195	767.025
68.534	13.703	1019.458	766.365
69.549	13.775	1018.393	765.825
70.563	13.746	1017.689	765.095
71.578	13.715	1016.884	764.280
72.593	13.543	1016.451	763.097
73.607	13.616	1015.524	762.666
74.622	13.667	1014.774	762.272
75.636	13.674	1014.273	761.860
76.651	13.765	1013.419	761.566
77.666	13.690	1012.975	760.823
78.680	13.709	1012.492	760.479
79.695	13.721	1011.407	759.652
80.709	13.655	1011.236	759.153
81.724	13.774	1010.494	759.076
82.739	13.690	1010.067	758.305
83.753	13.819	1008.593	757.720
84.768	13.829	1008.014	757.261
85.782	13.964	1006.869	756.950
86.797	13.881	1005.953	755.817
87.812	13.787	1005.360	754.875
88.826	13.844	1004.216	754.212
89.841	13.798	1003.447	753.359
90.855	13.889	1002.722	753.160
91.870	13.824	1001.890	752.173
92.884	13.889	1000.921	751.674
93.899	13.951	1000.417	751.507
94.914	13.968	999.545	750.866
95.928	14.043	998.483	750.338
96.943	13.897	997.707	749.030
97.957	13.944	996.983	748.634
98.972	14.021	995.717	747.961
99.987	13.904	995.101	746.905
101.001	13.972	993.964	746.291
102.016	13.974	993.338	745.766
103.030	13.911	992.378	744.695
104.045	13.970	991.686	744.374
105.060	13.903	990.920	743.434
106.074	13.843	990.085	742.476
107.089	13.886	988.735	741.588
108.103	13.780	988.297	740.721
109.118	13.797	987.298	739.981
110.133	13.849	986.441	739.507
111.147	13.711	985.769	738.324
112.162	13.968	984.532	738.472
113.176	13.848	984.172	737.605
114.191	13.830	983.463	736.929
115.206	13.806	982.546	736.069
116.220	13.924	981.801	735.972
117.235	13.870	980.709	734.849
118.249	13.861	979.989	734.201
119.264	13.862	978.850	733.290
120.279	13.844	978.406	732.812
121.293	13.895	977.446	732.252
122.308	13.807	976.653	731.205
123.322	13.835	975.647	730.511
124.337	13.859	974.438	729.648
125.352	13.835	973.788	728.991
126.366	13.884	972.552	728.214
127.381	13.788	971.720	727.106
128.395	13.785	970.693	726.263
129.410	13.860	969.587	725.700
130.424	13.857	968.620	724.897
131.439	13.948	967.719	724.557
132.454	14.048	966.798	724.239
133.468	13.755	966.263	722.497
134.483	13.871	965.317	722.232
135.497	14.016	964.180	721.946
136.512	13.820	963.753	720.709
137.527	13.783	962.896	719.847
138.541	13.769	962.308	719.283
139.556	13.869	961.369	718.951
140.570	13.960	961.159	719.125
141.585	14.024	959.995	718.464
142.600	14.032	959.127	717.787
143.614	14.090	958.049	717.167
144.629	14.134	957.482	716.869
145.643	14.036	956.242	715.455
146.658	14.051	955.259	714.718
147.673	14.041	954.538	714.073
148.687	14.066	953.697	713.488
149.702	14.024	953.123	712.816
150.716	13.972	952.248	711.875
151.731	14.119	951.065	711.557
152.746	13.907	950.467	710.141
153.760	14.091	949.803	710.369
154.775	14.116	949.474	710.166
155.789	14.021	948.986	709.334
156.804	14.144	948.072	709.113
157.819	14.180	947.455	708.742
158.833	14.255	946.692	708.426
159.848	14.289	945.729	707.788
160.862	14.212	945.004	706.854
161.877	14.246	943.942	706.144
162.892	14.268	942.843	705.351
163.906	14.068	942.649	704.296
164.921	14.188	941.510	703.890
165.935	14.168	940.689	703.131
166.950	14.165	939.616	702.254
167.964	14.094	938.963	701.403
168.979	14.323	937.845	701.469
169.994	14.305	937.137	700.803
171.008	14.308	936.267	700.105
172.023	14.257	935.890	699.544
173.037	14.353	935.255	699.410
174.052	14.277	934.642	698.573
175.067	14.204	934.008	697.731
176.081	14.257	932.961	697.110
177.096	14.257	932.826	696.945
178.110	14.290	932.070	696.460
179.125	14.237	931.978	696.104
180.140	14.259	931.644	695.886
181.154	14.285	930.922	695.395
182.169	14.409	930.248	695.348
183.183	14.408	929.604	694.802
184.198	14.436	928.874	694.309
185.213	14.606	927.763	694.124
186.227	14.583	926.950	693.359
187.242	14.606	926.702	693.208
188.256	14.535	925.863	692.226
189.271	14.542	925.183	691.685
190.286	14.482	924.830	691.108
191.300	14.489	923.825	690.327
192.315	14.423	923.155	689.491
193.329	14.371	922.882	689.015
194.344	14.440	922.253	688.766
195.359	14.385	921.498	687.915
196.373	14.532	920.661	687.834
197.388	14.558	920.669	687.890
198.402	14.573	920.019	687.403
199.417	14.581	919.306	686.844
200.432	14.740	918.486	686.822
201.446	14.652	918.284	686.249
202.461	14.605	917.761	685.607
203.475	14.713	916.921	685.362
204.490	14.815	915.654	684.769
205.504	14.670	915.538	684.031
206.519	14.700	914.915	683.627
207.534	14.689	914.128	682.931
208.548	14.815	913.090	682.611
209.563	14.774	912.614	682.026
210.577	14.878	911.460	681.529
211.592	14.938	911.160	681.489
212.607	14.858	910.470	680.586
213.621	14.843	909.781	679.951
214.636	14.913	909.329	679.836
215.650	15.003	908.358	679.419
216.665	14.906	907.759	678.515
217.680	15.090	906.802	678.485
218.694	14.975	906.612	677.817
219.709	14.932	906.308	677.354
220.723	15.017	904.953	676.625
221.738	14.941	904.356	675.812
222.753	14.980	903.967	675.622
223.767	15.047	903.513	675.491
224.782	14.946	903.265	674.841
225.796	15.065	902.468	674.663
226.811	15.056	901.669	673.969
227.826	15.083	900.782	673.356
228.840	15.055	900.467	672.949
229.855	15.053	899.482	672.145
230.869	14.995	898.732	671.291
231.884	15.137	898.279	671.464
232.899	14.984	897.262	670.033
233.913	15.191	896.552	670.272
234.928	15.108	895.938	669.419
235.942	15.152	895.463	669.182
236.957	15.085	895.063	668.555
237.972	15.073	894.228	667.826
238.986	15.115	893.797	667.610
240.001	15.108	893.127	667.023
241.015	15.101	892.436	666.423
242.030	15.081	892.065	666.007
243.045	15.215	891.198	665.833
244.059	15.306	890.936	665.941
245.074	15.442	889.979	665.705
246.088	15.285	889.380	664.573
247.103	15.333	888.823	664.291
248.117	15.320	888.270	663.765
249.132	15.341	887.426	663.161
250.147	15.391	887.045	663.016
251.161	15.354	886.604	662.481
252.176	15.433	885.648	662.018
253.190	15.518	884.995	661.805
254.205	15.674	884.105	661.695
255.220	15.618	883.510	660.974
256.234	15.534	882.636	659.931
257.249	15.655	882.449	660.206
258.263	15.574	881.763	659.316
259.278	15.583	880.883	658.636
260.293	15.683	880.602	658.760
261.307	15.698	879.864	658.210
262.322	15.714	878.998	657.566
263.336	15.654	878.696	657.045
264.351	15.761	877.619	656.599
265.366	15.767	877.025	656.122
266.380	15.834	876.496	655.931
267.395	15.790	875.562	655.003
268.409	15.788	875.423	654.829
269.424	15.710	874.527	653.801
270.439	15.701	873.491	652.933
271.453	15.673	873.136	652.501
272.468	15.834	872.548	652.627
273.482	15.861	871.856	652.158
274.497	15.803	871.376	651.515
275.512	15.884	870.825	651.358
276.526	15.844	870.949	651.239
277.541	15.795	870.427	650.601
278.555	15.839	869.493	650.016
279.570	15.929	868.918	649.875
280.585	15.955	867.778	649.065
281.599	15.840	867.157	648.103
282.614	15.966	866.363	647.935
283.628	16.012	865.314	647.271
284.643	16.046	865.212	647.268
285.657	15.984	864.872	646.718
286.672	16.023	863.988	646.148
287.687	16.132	863.117	645.858
288.701	16.087	862.715	645.327
289.716	16.160	861.909	644.948
290.730	16.019	861.750	644.230
291.745	16.106	860.857	643.841
292.760	16.052	860.652	643.425
293.774	16.084	859.790	642.845
294.789	16.188	859.031	642.616
295.803	16.226	858.139	642.036
296.818	16.329	857.420	641.831
297.833	16.292	857.037	641.351
298.847	16.287	856.814	641.106
299.862	16.263	855.872	640.252
300.876	16.324	855.246	639.959
301.891	16.305	855.167	639.773
302.906	16.381	854.244	639.314
303.920	16.361	853.988	638.990
304.935	16.365	853.372	638.485
305.949	16.375	852.590	637.883
306.964	16.412	851.994	637.520
307.979	16.481	851.365	637.252
308.993	16.539	850.859	637.037
310.008	16.404	850.316	636.067
311.022	16.427	849.893	635.778
312.037	16.397	849.188	635.084
313.052	16.407	848.543	634.583
314.066	16.465	848.235	634.512
315.081	16.347	847.847	633.723
316.095	16.499	846.742	633.413
317.110	16.468	846.237	632.861
318.125	16.492	845.657	632.462
319.139	16.470	845.436	632.158
320.154	16.568	845.027	632.161
321.168	16.508	844.790	631.703
322.183	16.426	843.756	630.569
323.197	16.505	843.714	630.776
324.212	16.668	842.652	630.537
325.227	16.554	842.160	629.686
326.241	16.674	841.168	629.336
327.256	16.606	840.800	628.753
328.270	16.737	839.957	628.551
329.285	16.625	839.649	627.850
330.300	16.703	838.926	627.542
331.314	16.772	838.329	627.298
332.329	16.585	838.325	626.547
333.343	16.788	837.690	626.769
334.358	16.681	837.266	625.999
335.373	16.743	836.928	625.921
336.387	16.776	836.741	625.848
337.402	16.855	836.732	626.075
338.416	16.843	836.113	625.514
339.431	16.877	835.651	625.236
340.446	16.903	835.094	624.861
341.460	17.022	834.442	624.756
342.475	16.884	834.495	624.231
343.489	16.960	834.092	624.157
344.504	16.974	833.010	623.342
345.519	16.928	832.901	623.036
346.533	16.984	832.248	622.699
347.548	17.082	831.953	622.780
348.562	17.071	831.321	622.212
349.577	16.924	830.869	621.282
350.592	17.013	830.308	621.133
351.606	16.895	829.614	620.129
352.621	16.894	828.836	619.486
353.635	16.972	828.487	619.456
354.650	17.055	827.582	619.026
355.665	16.988	827.159	618.411
356.679	17.209	826.030	618.318
357.694	17.108	825.878	617.783
358.708	17.007	825.114	616.790
359.723	17.121	824.680	616.823
360.738	17.245	823.912	616.646
361.752	17.356	823.214	616.470
362.767	17.177	822.889	615.523
363.781	17.243	822.381	615.329
364.796	17.381	822.041	615.518
365.810	17.337	822.196	615.422
366.825	17.376	821.458	614.955
367.840	17.396	820.650	614.370
368.854	17.473	819.982	614.090
369.869	17.364	820.013	613.665
370.883	17.301	819.431	612.949
371.898	17.458	818.947	613.101
372.913	17.409	818.659	612.653
373.927	17.491	818.196	612.547
374.942	17.480	817.763	612.128
375.956	17.402	817.517	611.611
376.971	17.423	817.277	611.453
377.986	17.583	816.533	611.418
379.000	17.550	815.846	610.731
380.015	17.635	815.402	610.650
381.029	17.733	814.527	610.289
382.044	17.730	813.882	609.741
383.059	17.647	813.623	609.195
384.073	17.699	813.005	608.865
385.088	17.479	812.537	607.676
386.102	17.683	811.684	607.713
387.117	17.625	811.231	607.110
388.132	17.664	810.728	606.820
389.146	17.525	810.541	606.133
390.161	17.745	809.833	606.332
391.175	17.759	809.276	605.910
392.190	17.640	809.061	605.275
393.205	17.630	808.722	604.931
394.219	17.592	808.575	604.632
395.234	17.666	807.892	604.331
396.248	17.669	807.620	604.083
397.263	17.673	807.197	603.730
398.278	17.610	806.547	602.966
399.292	17.626	806.328	602.805
400.307	17.771	805.279	602.481
401.321	17.740	805.394	602.404
402.336	17.722	805.094	602.064
403.350	17.920	804.109	601.971
404.365	17.683	804.060	601.044
405.380	17.763	803.510	600.862
406.394	17.942	802.951	601.022
407.409	17.940	802.272	600.451
408.423	18.011	802.374	600.726
409.438	18.019	801.872	600.323
410.453	18.120	801.279	600.182
411.467	18.092	800.651	599.559
412.482	17.992	800.531	599.068
413.496	18.242	799.724	599.287
414.511	18.200	799.485	598.905
415.526	18.062	799.364	598.279
416.540	18.171	798.670	598.089
417.555	18.076	798.004	597.205
418.569	18.142	798.003	597.381
419.584	18.304	797.060	597.189
420.599	18.256	796.707	596.703
421.613	115.879	1297.786	1490.060
422.628	99.924	1370.764	1490.164
