DTS Sentinel unit serial number:	SN413079Multiplexer serial number:	ORYXHardware model number:	OX4-SRSoftware version number:	ORYX F/W v4.00 Oryx Data Collector v3.7.2.0data status	okinstallation	princeton_trtdifferential loss correction	single-endedforward channel	channel 1reverse channel	N/Adate	2019/09/10time	23:00:11forward acquisition time	60.00reverse acquisition time	0.00gamma	496.2192k internal	0.2331k external	0.2331temperature offset calibration	0.9936default loss term (dB/km)	0.3790temperature slope calibration	1.0000multiplexer offset coefficient	1.0000multiplexer slope coefficient	1.0000fibre end	0.00T internal ref (°C)	30.02T ext. ref 1 (°C)	-0.31T ext. ref 2 (°C)	23.48length (m)	temperature (°C)	Stokes	anti-Stokes-747.200	-69.973	-0.139	0.053
-746.185	-190.736	0.268	0.003
-745.171	-13.502	0.093	0.060
-744.156	158.871	-0.235	0.328
-743.142	107.566	0.220	-0.264
-742.127	209.848	-0.013	-0.020
-741.112	61.774	0.061	0.061
-740.098	-170.648	0.168	0.006
-739.083	-83.120	-0.358	-0.116
-738.069	800.000	0.147	-0.550
-737.054	295.265	-0.062	0.115
-736.039	36.395	-0.281	-0.249
-735.025	-122.091	-0.452	0.075
-734.010	-178.427	-0.503	0.012
-732.996	55.723	-0.222	-0.216
-731.981	-200.000	-0.006	-0.041
-730.966	-104.205	0.051	-0.012
-729.952	-73.222	-0.297	-0.109
-728.937	263.047	-0.060	0.105
-727.923	-106.406	0.291	0.065
-726.908	-171.139	0.178	-0.006
-725.894	132.585	-0.140	-0.181
-724.879	125.002	-0.104	0.132
-723.864	92.751	-0.107	0.121
-722.850	800.000	-0.080	-0.284
-721.835	419.466	0.090	-0.194
-720.821	-153.394	0.148	-0.010
-719.806	-0.855	0.122	-0.087
-718.791	800.000	0.024	-0.079
-717.777	-171.249	-0.244	-0.008
-716.762	800.000	-0.073	-0.301
-715.748	-83.952	-0.187	0.060
-714.733	297.548	-0.252	-0.465
-713.718	-42.486	0.334	-0.171
-712.704	240.976	-0.057	-0.096
-711.689	-116.582	0.140	0.026
-710.675	-60.513	0.193	-0.082
-709.660	-123.437	-0.050	0.008
-708.645	800.000	-0.089	0.308
-707.631	-35.674	-0.126	-0.069
-706.616	4.891	0.025	-0.019
-705.602	-200.000	0.003	-0.264
-704.587	332.164	-0.182	-0.353
-703.572	-103.437	0.131	0.031
-702.558	105.723	-0.104	0.124
-701.543	43.541	0.116	0.106
-700.529	-46.453	0.250	-0.123
-699.514	-51.911	0.276	0.129
-698.499	40.795	-0.112	-0.101
-697.485	-125.882	-0.116	0.018
-696.470	491.246	-0.112	0.258
-695.456	-120.551	-0.274	0.047
-694.441	-200.000	0.055	0.280
-693.426	15.983	0.438	0.346
-692.412	-200.000	0.028	-0.141
-691.397	240.632	-0.082	-0.138
-690.383	349.693	0.114	0.227
-689.368	-200.000	0.018	0.210
-688.354	-200.000	-0.003	0.129
-687.339	106.959	0.074	0.089
-686.324	-200.000	-0.061	-0.277
-685.310	-164.485	-0.051	-0.002
-684.295	84.438	0.189	-0.208
-683.281	81.448	0.121	0.131
-682.266	-200.000	0.010	-0.241
-681.251	403.299	-0.043	-0.090
-680.237	120.202	-0.030	0.037
-679.222	28.258	0.222	-0.188
-678.208	92.106	0.093	0.105
-677.193	596.587	0.151	0.374
-676.178	800.000	-0.040	-0.115
-675.164	182.161	0.040	0.060
-674.149	-200.000	0.012	0.120
-673.135	13.909	-0.132	-0.103
-672.120	22.293	-0.179	0.147
-671.105	800.000	0.039	-0.165
-670.091	-37.548	0.097	-0.052
-669.076	140.117	-0.147	0.194
-668.062	12.541	0.121	-0.094
-667.047	372.459	0.145	-0.295
-666.032	-35.671	0.197	-0.107
-665.018	99.802	-0.253	-0.294
-664.003	115.824	0.059	0.073
-662.989	790.957	0.143	-0.395
-661.974	593.607	-0.058	-0.144
-660.959	104.879	0.072	0.085
-659.945	24.448	0.105	0.087
-658.930	-89.287	0.152	-0.045
-657.916	-35.135	0.456	-0.249
-656.901	-121.946	-0.190	0.031
-655.886	2.744	0.196	-0.142
-654.872	434.534	0.077	-0.168
-653.857	114.979	0.154	0.188
-652.843	-163.979	0.198	0.009
-651.828	-64.922	-0.035	0.014
-650.814	170.873	-0.087	-0.126
-649.799	800.000	0.117	0.425
-648.784	72.662	-0.266	-0.278
-647.770	800.000	0.072	-0.250
-646.755	61.966	-0.164	0.164
-645.741	-112.884	0.148	-0.029
-644.726	-200.000	-0.023	-0.249
-643.711	223.517	-0.108	0.174
-642.697	471.749	0.072	0.162
-641.682	-109.418	-0.069	0.015
-640.668	-200.000	-0.003	-0.167
-639.653	94.325	0.129	-0.147
-638.638	-200.000	-0.001	-0.015
-637.624	284.700	-0.118	-0.212
-636.609	323.365	-0.079	0.150
-635.595	41.866	0.177	0.161
-634.580	1.495	0.231	0.167
-633.565	-176.540	0.237	0.006
-632.551	-200.000	0.009	0.166
-631.536	800.000	0.074	0.244
-630.522	-24.314	0.106	0.063
-629.507	53.524	0.064	-0.061
-628.492	140.534	0.042	0.056
-627.478	87.781	-0.066	0.073
-626.463	42.555	-0.256	-0.233
-625.449	-32.752	-0.142	-0.079
-624.434	323.696	0.077	0.147
-623.419	41.438	0.292	0.264
-622.405	603.028	0.177	0.442
-621.390	88.880	-0.094	-0.104
-620.376	-114.041	0.095	-0.019
-619.361	-22.325	0.127	-0.077
-618.346	-200.000	0.055	0.298
-617.332	75.619	-0.087	0.092
-616.317	1.407	-0.105	0.076
-615.303	272.938	-0.133	-0.235
-614.288	395.410	0.069	0.143
-613.273	41.697	-0.151	0.137
-612.259	140.031	-0.118	-0.155
-611.244	-111.430	0.218	0.044
-610.230	-153.751	-0.293	-0.020
-609.215	-200.000	-0.002	-0.122
-608.201	-94.888	0.140	0.038
-607.186	146.121	-0.160	0.214
-606.171	-136.195	-0.332	-0.039
-605.157	376.109	0.137	-0.279
-604.142	-104.459	0.246	-0.057
-603.128	-69.286	0.051	0.019
-602.113	59.481	-0.236	-0.233
-601.098	-74.161	-0.188	-0.068
-600.084	70.124	-0.045	0.047
-599.069	494.646	0.107	-0.246
-598.055	-103.618	-0.103	0.024
-597.040	-85.266	-0.298	0.093
-596.025	-88.475	0.408	0.122
-595.011	-166.256	0.444	0.019
-593.996	-106.012	0.104	0.023
-592.982	87.440	-0.187	0.207
-591.967	-200.000	0.010	-0.150
-590.952	16.616	-0.146	-0.115
-589.938	800.000	0.051	-0.203
-588.923	-134.132	0.159	0.020
-587.909	-77.451	-0.214	0.074
-586.894	800.000	0.067	-0.286
-585.879	63.035	0.056	0.056
-584.865	123.103	-0.091	-0.113
-583.850	-83.664	0.464	-0.148
-582.836	-16.978	0.178	-0.113
-581.821	-200.000	0.019	-0.147
-580.806	-149.026	0.157	0.013
-579.792	14.918	-0.106	0.083
-578.777	-98.549	0.244	0.062
-577.763	-185.655	-0.273	-0.004
-576.748	13.890	-0.372	0.290
-575.733	429.927	-0.204	0.442
-574.719	212.943	-0.096	-0.151
-573.704	-200.000	-0.045	-0.254
-572.690	-52.094	0.089	-0.041
-571.675	-119.747	-0.269	0.046
-570.661	570.566	0.197	-0.478
-569.646	-79.951	0.112	-0.038
-568.631	145.738	0.018	-0.025
-567.617	544.033	-0.077	-0.183
-566.602	211.507	-0.077	0.122
-565.588	-154.274	-0.059	-0.004
-564.573	165.813	-0.032	0.045
-563.558	800.000	0.070	0.244
-562.544	-70.473	-0.182	0.069
-561.529	-138.231	-0.216	-0.024
-560.515	-104.489	-0.048	-0.011
-559.500	-141.384	0.037	0.004
-558.485	92.176	-0.187	-0.211
-557.471	-200.000	-0.022	0.141
-556.456	-53.403	-0.187	-0.086
-555.442	-120.379	0.229	0.039
-554.427	800.000	0.028	0.112
-553.412	-200.000	-0.022	0.183
-552.398	-200.000	-0.024	-0.223
-551.383	-200.000	0.038	-0.193
-550.369	-200.000	0.050	0.383
-549.354	791.265	0.118	0.323
-548.339	-43.925	-0.169	0.085
-547.325	-4.175	0.140	-0.097
-546.310	135.876	-0.063	-0.082
-545.296	-200.000	0.046	-0.236
-544.281	541.137	-0.141	-0.334
-543.266	800.000	-0.043	0.183
-542.252	-44.363	-0.317	0.159
-541.237	-88.993	0.203	-0.060
-540.223	-180.719	-0.216	-0.004
-539.208	161.603	-0.119	0.166
-538.193	303.118	0.191	0.353
-537.179	21.342	0.068	-0.055
-536.164	-36.411	-0.049	-0.026
-535.150	17.512	0.277	0.219
-534.135	-49.025	-0.258	-0.123
-533.121	634.058	-0.080	-0.203
-532.106	-102.908	0.085	-0.020
-531.091	-174.793	-0.328	0.009
-530.077	-200.000	-0.015	-0.134
-529.062	65.162	0.287	0.290
-528.048	407.959	-0.126	0.265
-527.033	128.367	-0.150	-0.191
-526.018	-200.000	-0.018	-0.507
-525.004	-200.000	0.089	-0.406
-523.989	399.753	-0.137	0.287
-522.975	261.268	0.141	-0.243
-521.960	-144.184	0.031	-0.003
-520.945	54.615	-0.171	0.164
-519.931	-28.161	-0.122	-0.070
-518.916	-27.765	0.138	-0.080
-517.902	-108.953	-0.164	-0.035
-516.887	-200.000	0.075	0.500
-515.872	-200.000	-0.014	-0.118
-514.858	-200.000	0.068	0.370
-513.843	800.000	0.032	-0.124
-512.829	-23.093	0.203	0.122
-511.814	100.496	0.104	-0.120
-510.799	581.573	-0.027	-0.065
-509.785	-160.870	0.253	-0.013
-508.770	-200.000	0.026	-0.313
-507.756	331.944	0.034	-0.065
-506.741	177.692	-0.151	-0.220
-505.726	-110.776	0.274	0.056
-504.712	-101.692	0.115	0.028
-503.697	57.508	0.104	0.101
-502.683	-5.575	-0.060	-0.041
-501.668	66.330	-0.108	-0.110
-500.653	428.817	0.013	0.029
-499.639	158.552	0.079	-0.109
-498.624	-72.586	-0.190	-0.070
-497.610	25.620	-0.112	0.093
-496.595	800.000	0.102	0.427
-495.581	38.357	-0.119	-0.105
-494.566	257.962	0.097	-0.166
-493.551	800.000	0.043	0.158
-492.537	235.727	-0.121	-0.200
-491.522	12.840	-0.152	-0.117
-490.508	-200.000	-0.017	-0.100
-489.493	-84.784	0.211	-0.066
-488.478	355.573	0.224	0.444
-487.464	800.000	0.018	-0.056
-486.449	118.730	0.130	0.160
-485.435	-130.881	0.174	0.023
-484.420	-141.068	-0.129	0.013
-483.405	549.187	-0.107	-0.256
-482.391	-59.476	0.295	-0.126
-481.376	800.000	0.007	0.019
-480.362	-141.568	-0.208	-0.021
-479.347	-56.523	0.450	0.199
-478.332	104.811	-0.204	-0.240
-477.318	1.461	0.159	-0.114
-476.303	86.911	-0.197	0.216
-475.289	800.000	0.067	0.191
-474.274	5.103	0.164	0.121
-473.259	800.000	0.036	-0.124
-472.245	180.404	-0.074	0.108
-471.230	800.000	-0.045	0.167
-470.216	230.188	-0.102	-0.165
-469.201	-33.146	-0.236	-0.130
-468.186	54.848	-0.269	0.258
-467.172	-115.787	-0.160	0.030
-466.157	-200.000	-0.014	0.078
-465.143	-147.623	-0.061	0.005
-464.128	-141.571	-0.102	0.010
-463.113	-200.000	0.014	0.069
-462.099	-200.000	-0.000	-0.046
-461.084	165.470	-0.012	0.017
-460.070	-200.000	-0.025	-0.301
-459.055	-20.033	0.143	-0.088
-458.040	-161.216	-0.314	-0.016
-457.026	224.982	-0.101	-0.163
-456.011	-141.707	-0.262	-0.026
-454.997	665.808	-0.182	-0.468
-453.982	800.000	0.066	-0.208
-452.968	-91.124	-0.003	-0.001
-451.953	58.943	0.062	-0.061
-450.938	-200.000	0.002	0.049
-449.924	-140.633	-0.212	0.022
-448.909	-163.944	0.196	0.009
-447.895	-14.966	-0.175	0.112
-446.880	210.256	0.196	-0.306
-445.865	-200.000	0.017	0.096
-444.851	239.741	0.073	0.121
-443.836	-161.811	-0.213	-0.011
-442.822	153.628	-0.059	0.081
-441.807	13.332	0.383	-0.296
-440.792	3.154	-0.327	-0.237
-439.778	800.000	-0.067	-0.256
-438.763	218.336	-0.186	0.295
-437.749	-200.000	-0.009	-0.086
-436.734	8.182	-0.027	0.020
-435.719	38.026	0.091	-0.081
-434.705	-200.000	-0.095	-0.413
-433.690	22.114	-0.098	-0.079
-432.676	9.701	-0.156	-0.117
-431.661	-200.000	0.027	0.232
-430.646	-200.000	0.088	0.387
-429.632	-200.000	-0.055	0.397
-428.617	54.665	-0.165	0.159
-427.603	367.978	0.209	0.420
-426.588	189.911	0.195	0.291
-425.573	-5.150	0.307	0.210
-424.559	-78.253	0.027	0.009
-423.544	-100.698	-0.236	-0.058
-422.530	-9.892	0.152	0.101
-421.515	-32.946	0.188	0.104
-420.500	43.342	-0.304	-0.276
-419.486	231.985	-0.073	0.120
-418.471	-48.718	-0.282	-0.135
-417.457	-200.000	-0.082	-0.383
-416.442	-200.000	0.007	0.129
-415.428	-159.240	-0.127	-0.007
-414.413	-200.000	-0.014	0.114
-413.398	-200.000	0.008	-0.220
-412.384	-94.324	-0.271	-0.074
-411.369	-6.623	0.239	0.161
-410.355	-131.884	0.048	-0.006
-409.340	43.984	0.250	-0.227
-408.325	251.326	0.055	0.093
-407.311	-200.000	-0.017	-0.238
-406.296	461.271	-0.014	-0.032
-405.282	-129.529	-0.142	-0.020
-404.267	362.224	0.132	0.263
-403.252	-200.000	-0.019	0.121
-402.238	-0.710	-0.337	0.237
-401.223	-71.028	-0.053	-0.020
-400.209	-80.225	0.199	-0.066
-399.194	29.737	-0.176	-0.149
-398.179	-200.000	-0.047	-0.244
-397.165	364.582	0.143	0.286
-396.150	-124.710	0.163	0.025
-395.136	-26.005	-0.062	-0.036
-394.121	207.154	0.073	-0.113
-393.106	-200.000	-0.010	0.141
-392.092	344.645	0.075	-0.145
-391.077	26.680	-0.153	0.127
-390.063	-75.660	0.166	0.059
-389.048	312.696	-0.121	0.226
-388.033	800.000	-0.029	0.095
-387.019	45.323	0.218	0.200
-386.004	-110.063	-0.467	0.097
-384.990	-200.000	-0.053	-0.402
-383.975	-0.767	0.144	0.101
-382.960	-200.000	0.036	-0.353
-381.946	-10.127	-0.102	-0.067
-380.931	202.714	0.153	0.234
-379.917	-11.321	0.085	0.056
-378.902	25.584	0.053	-0.044
-377.888	216.757	-0.211	-0.333
-376.873	-144.861	0.212	-0.019
-375.858	16.367	0.093	-0.073
-374.844	-57.042	-0.075	0.033
-373.829	551.981	0.164	0.391
-372.815	-200.000	0.014	-0.091
-371.800	-53.940	-0.291	0.131
-370.785	-62.205	0.210	0.087
-369.771	-29.103	0.071	0.041
-368.756	17.049	-0.056	-0.044
-367.742	327.814	-0.105	0.199
-366.727	269.591	0.098	0.171
-365.712	8.365	0.075	0.056
-364.698	-65.433	-0.256	-0.102
-363.683	293.487	0.045	-0.081
-362.669	-18.902	0.224	0.139
-361.654	491.015	0.105	0.238
-360.639	123.655	-0.036	0.045
-359.625	-200.000	-0.006	-0.043
-358.610	-83.306	0.220	-0.070
-357.596	41.279	-0.143	-0.128
-356.581	-144.602	-0.145	0.013
-355.566	-167.934	0.127	0.005
-354.552	42.912	0.088	-0.079
-353.537	673.030	-0.074	0.190
-352.523	16.261	-0.102	-0.079
-351.508	-51.929	0.221	0.102
-350.493	-200.000	0.068	0.322
-349.479	-38.909	0.318	-0.166
-348.464	-87.877	0.035	-0.010
-347.450	117.026	-0.133	0.162
-346.435	19.238	-0.194	0.154
-345.420	-142.068	0.194	-0.019
-344.406	-34.863	0.036	-0.019
-343.391	-24.939	-0.219	-0.128
-342.377	162.545	0.117	0.162
-341.362	146.834	0.080	-0.106
-340.348	800.000	0.098	0.361
-339.333	800.000	-0.082	-0.329
-338.318	-13.096	-0.159	-0.102
-337.304	27.552	-0.240	0.200
-336.289	410.216	-0.148	-0.311
-335.275	-109.600	-0.135	0.028
-334.260	-200.000	0.019	-0.125
-333.245	-148.590	0.255	-0.021
-332.231	-90.262	-0.267	0.077
-331.216	386.366	-0.078	0.159
-330.202	100.737	-0.013	-0.015
-329.187	-200.000	-0.088	0.453
-328.172	352.446	-0.048	0.095
-327.158	-29.046	0.229	-0.130
-326.143	-200.000	0.024	0.208
-325.129	-200.000	-0.006	-0.271
-324.114	-59.001	0.102	-0.043
-323.099	-121.802	0.402	0.066
-322.085	321.747	-0.157	-0.297
-321.070	90.576	-0.153	0.170
-320.056	-107.855	0.251	0.054
-319.041	465.647	0.045	0.100
-318.026	-200.000	0.039	0.198
-317.012	800.000	0.051	0.180
-315.997	205.650	0.094	-0.144
-314.983	-118.054	-0.270	0.048
-313.968	127.376	0.136	-0.171
-312.953	-200.000	0.015	-0.135
-311.939	95.646	0.070	-0.079
-310.924	-87.267	0.226	0.068
-309.910	63.116	-0.099	0.098
-308.895	-82.992	0.297	0.095
-307.880	-200.000	0.044	0.340
-306.866	524.537	0.064	0.149
-305.851	-75.306	0.054	0.019
-304.837	-39.221	-0.178	0.093
-303.822	-106.401	0.115	-0.025
-302.807	-73.713	0.081	0.029
-301.793	-137.555	0.184	0.021
-300.778	-100.212	0.131	-0.032
-299.764	-124.580	0.097	-0.015
-298.749	-38.356	0.180	0.094
-297.735	-165.881	0.141	0.006
-296.720	582.572	-0.113	0.273
-295.705	23.348	0.264	0.215
-294.691	414.303	0.078	0.165
-293.676	58.938	0.422	-0.410
-292.662	156.881	0.051	0.070
-291.647	46.404	0.105	-0.097
-290.632	-6.522	0.257	0.173
-289.618	-200.000	0.023	0.168
-288.603	800.000	-0.088	-0.276
-287.589	-12.141	0.362	-0.234
-286.574	106.127	-0.036	-0.042
-285.559	-59.139	-0.270	0.115
-284.545	-61.489	-0.102	-0.042
-283.530	-5.310	0.014	0.009
-282.516	112.999	-0.096	0.115
-281.501	-130.815	-0.322	-0.043
-280.486	-148.381	0.135	-0.011
-279.472	482.391	0.150	-0.336
-278.457	-200.000	0.043	-0.267
-277.443	800.000	-0.030	0.112
-276.428	2.074	-0.151	-0.108
-275.413	-104.935	0.105	-0.024
-274.399	-151.356	-0.211	-0.016
-273.384	-129.860	-0.112	0.015
-272.370	-141.890	0.264	-0.026
-271.355	800.000	0.021	0.076
-270.340	8.190	0.242	0.180
-269.326	-104.267	-0.071	0.016
-268.311	-200.000	-0.016	-0.219
-267.297	-138.275	-0.120	0.013
-266.282	-45.258	-0.062	0.030
-265.267	-78.296	0.114	0.039
-264.253	-115.130	-0.486	-0.091
-263.238	800.000	-0.095	0.327
-262.224	-159.793	-0.137	0.007
-261.209	-86.428	-0.005	-0.002
-260.195	-54.578	0.107	0.048
-259.180	-87.500	0.334	-0.100
-258.165	190.199	0.186	-0.276
-257.151	-200.000	0.001	-0.100
-256.136	-28.824	-0.171	0.097
-255.122	2.880	-0.121	-0.087
-254.107	-57.067	0.267	0.116
-253.092	-71.560	0.100	-0.037
-252.078	-200.000	0.004	0.151
-251.063	228.214	0.217	0.349
-250.049	-72.320	0.253	-0.093
-249.034	-75.412	-0.229	0.080
-248.019	-200.000	-0.037	0.267
-247.005	-200.000	-0.008	-0.167
-245.990	800.000	0.033	0.137
-244.976	380.442	0.089	-0.180
-243.961	39.351	-0.042	0.037
-242.946	222.228	-0.155	-0.246
-241.932	-200.000	-0.048	0.329
-240.917	800.000	0.035	-0.117
-239.903	-45.996	0.297	-0.144
-238.888	800.000	0.045	-0.134
-237.873	-37.919	-0.110	0.058
-236.859	177.587	0.240	-0.345
-235.844	101.667	-0.147	-0.170
-234.830	-41.763	-0.136	0.069
-233.815	-88.250	0.085	-0.025
-232.800	-89.600	-0.361	0.105
-231.786	31.078	-0.250	0.211
-230.771	-200.000	-0.068	0.344
-229.757	83.945	-0.217	-0.234
-228.742	57.991	-0.043	0.041
-227.727	-20.952	-0.204	0.123
-226.713	800.000	0.066	-0.283
-225.698	152.269	-0.135	-0.182
-224.684	30.956	-0.346	0.292
-223.669	-200.000	-0.003	0.388
-222.655	-119.258	0.050	-0.009
-221.640	-200.000	-0.018	-0.143
-220.625	-200.000	0.040	0.211
-219.611	74.615	-0.149	-0.155
-218.596	600.986	-0.069	-0.169
-217.582	-200.000	0.027	-0.134
-216.567	398.746	0.049	-0.102
-215.552	86.114	-0.253	-0.274
-214.538	383.921	0.095	0.192
-213.523	62.174	0.166	-0.163
-212.509	-112.338	-0.175	0.035
-211.494	139.532	0.160	0.208
-210.479	-92.501	-0.055	-0.015
-209.465	-88.933	0.457	-0.133
-208.450	800.000	-0.094	-0.292
-207.436	126.184	0.169	-0.211
-206.421	-113.007	0.381	0.074
-205.406	-16.819	-0.250	0.156
-204.392	179.907	-0.240	-0.346
-203.377	-128.606	0.205	0.029
-202.363	-155.685	-0.178	-0.011
-201.348	205.262	-0.141	-0.216
-200.333	-119.822	0.094	-0.016
-199.319	403.565	0.098	0.203
-198.304	14.883	0.253	0.195
-197.290	242.547	0.043	0.071
-196.275	800.000	-0.045	0.143
-195.260	800.000	-0.017	0.068
-194.246	-17.082	-0.141	0.087
-193.231	-31.608	-0.114	-0.063
-192.217	-200.000	-0.013	-0.081
-191.202	-102.474	-0.319	0.075
-190.187	-97.075	-0.139	-0.036
-189.173	355.522	-0.052	-0.103
-188.158	11.072	-0.279	-0.210
-187.144	-200.000	0.023	0.107
-186.129	-200.000	-0.052	-0.316
-185.114	317.810	-0.089	-0.166
-184.100	-200.000	0.036	-0.266
-183.085	-200.000	-0.003	-0.230
-182.071	211.679	-0.240	-0.372
-181.056	-102.173	-0.387	-0.092
-180.042	-75.272	-0.335	-0.118
-179.027	-43.809	0.448	0.222
-178.012	-37.491	-0.155	0.081
-176.998	-40.641	-0.215	-0.110
-175.983	-123.305	0.167	0.026
-174.969	-114.967	0.215	-0.040
-173.954	-81.341	0.233	0.075
-172.939	-172.614	-0.145	0.004
-171.925	724.032	0.036	-0.094
-170.910	-200.000	0.042	0.244
-169.896	-99.922	-0.224	-0.055
-168.881	427.009	-0.144	0.305
-167.866	-33.634	0.095	0.051
-166.852	251.499	0.110	0.183
-165.837	2.673	0.368	-0.263
-164.823	-200.000	0.002	-0.372
-163.808	-143.392	-0.101	0.010
-162.793	-62.390	0.427	-0.175
-161.779	223.899	0.134	-0.213
-160.764	-114.140	0.184	-0.035
-159.750	-149.844	-0.272	0.021
-158.735	778.436	0.086	-0.230
-157.720	800.000	0.043	0.124
-156.706	78.165	0.053	0.056
-155.691	549.198	0.063	-0.149
-154.677	-6.839	-0.288	0.193
-153.662	800.000	-0.078	0.274
-152.647	-154.654	0.348	0.023
-151.633	-147.060	0.147	0.012
-150.618	578.118	0.118	0.283
-149.604	217.600	-0.168	0.263
-148.589	-95.631	0.440	-0.116
-147.574	-200.000	0.022	-0.094
-146.560	-87.253	-0.302	0.090
-145.545	-143.653	-0.214	-0.020
-144.531	-128.289	0.213	-0.030
-143.516	800.000	-0.019	-0.079
-142.502	116.613	0.103	0.124
-141.487	-200.000	0.063	-0.367
-140.472	-200.000	0.000	0.261
-139.458	-82.928	-0.320	-0.101
-138.443	200.038	-0.219	0.331
-137.429	-137.335	-0.273	0.030
-136.414	86.221	0.155	0.167
-135.399	-200.000	0.040	-0.219
-134.385	-31.049	0.173	0.096
-133.370	56.192	-0.160	-0.153
-132.356	-74.133	-0.273	-0.097
-131.341	-74.972	-0.294	-0.104
-130.326	65.208	0.146	-0.145
-129.312	-46.065	0.108	0.052
-128.297	-62.199	-0.222	-0.091
-127.283	10.612	-0.084	0.063
-126.268	463.771	-0.031	0.069
-125.253	189.564	0.132	-0.195
-124.239	661.402	0.144	0.363
-123.224	72.033	0.134	-0.137
-122.210	-83.579	0.260	-0.082
-121.195	-88.574	0.283	-0.083
-120.180	-200.000	0.000	-0.172
-119.166	63.649	-0.080	-0.079
-118.151	600.473	0.074	0.180
-117.137	13.576	-0.029	0.022
-116.122	12.139	0.144	0.109
-115.107	-10.528	-0.273	0.177
-114.093	800.000	-0.068	-0.209
-113.078	800.000	0.042	-0.118
-112.064	58.970	0.091	0.088
-111.049	-200.000	-0.021	0.294
-110.034	800.000	-0.062	-0.186
-109.020	-62.568	0.252	-0.103
-108.005	199.036	0.082	-0.123
-106.991	800.000	-0.075	0.240
-105.976	4.611	-0.178	0.128
-104.962	-200.000	0.005	-0.248
-103.947	200.544	0.158	-0.239
-102.932	487.119	0.071	0.158
-101.918	56.311	0.191	-0.182
-100.903	-200.000	0.016	-0.193
-99.889	-200.000	0.038	0.297
-98.874	-112.987	-0.341	0.066
-97.859	542.762	0.050	-0.116
-96.845	-200.000	0.003	0.432
-95.830	165.117	-0.027	0.038
-94.816	80.512	-0.228	0.241
-93.801	415.085	0.123	-0.257
-92.786	-24.876	0.386	-0.225
-91.772	-28.955	-0.267	-0.150
-90.757	60.162	0.035	-0.034
-89.743	8.183	-0.178	0.131
-88.728	800.000	-0.030	-0.127
-87.713	-102.694	-0.096	-0.022
-86.699	-200.000	-0.010	0.267
-85.684	493.045	0.078	0.176
-84.670	-42.627	-0.273	-0.136
-83.655	24.533	0.193	-0.157
-82.640	-94.184	0.391	-0.105
-81.626	-200.000	-0.011	-0.141
-80.611	2.335	-0.355	0.252
-79.597	8.323	-0.172	0.126
-78.582	-20.962	-0.352	0.211
-77.567	-126.513	0.192	-0.028
-76.553	-99.185	0.296	-0.073
-75.538	-200.000	0.069	0.332
-74.524	97.626	-0.158	0.178
-73.509	-200.000	0.017	-0.250
-72.494	242.953	-0.007	0.011
-71.480	800.000	-0.102	-0.386
-70.465	-69.231	0.326	-0.123
-69.451	-139.889	-0.122	0.013
-68.436	319.776	-0.066	-0.123
-67.422	356.575	0.128	0.249
-66.407	800.000	0.041	0.134
-65.392	-18.342	0.184	-0.113
-64.378	-85.255	0.128	-0.039
-63.363	718.715	-0.016	-0.041
-62.349	127.193	-0.156	-0.194
-61.334	66.371	-1.102	-1.097
-60.319	129.199	0.593	0.741
-59.305	269.937	-0.462	-0.795
-58.290	330.818	0.541	1.021
-57.276	800.000	0.529	1.506
-56.261	-200.000	103.989	613.276
-55.246	518.460	1485.980	3407.411
-54.232	179.920	2678.482	3844.713
-53.217	114.188	2151.896	2564.836
-52.203	41.956	1589.967	1412.771
-51.188	33.629	1324.120	1127.272
-50.173	30.470	1283.329	1074.272
-49.159	54.056	1337.009	1259.090
-48.144	55.243	1352.011	1280.162
-47.130	33.523	1307.987	1112.742
-46.115	30.154	1289.745	1077.636
-45.100	29.931	1285.177	1072.483
-44.086	30.002	1282.515	1070.632
-43.071	29.800	1280.428	1067.680
-42.057	29.834	1277.771	1065.616
-41.042	29.925	1276.135	1064.732
-40.027	29.855	1275.545	1063.795
-39.013	29.810	1273.505	1061.795
-37.998	29.876	1271.499	1060.456
-36.984	30.060	1269.302	1059.635
-35.969	30.066	1267.501	1058.125
-34.954	30.008	1266.176	1056.648
-33.940	30.029	1264.937	1055.691
-32.925	29.972	1263.520	1054.140
-31.911	30.050	1262.267	1053.495
-30.896	30.100	1260.869	1052.575
-29.881	30.113	1259.139	1051.160
-28.867	30.102	1258.004	1050.109
-27.852	30.161	1256.636	1049.259
-26.838	30.158	1254.864	1047.722
-25.823	30.235	1253.879	1047.290
-24.809	30.124	1252.926	1045.829
-23.794	30.028	1251.514	1044.068
-22.779	30.162	1249.819	1043.366
-21.765	30.154	1248.543	1042.211
-20.750	30.137	1246.985	1040.776
-19.736	30.067	1246.083	1039.587
-18.721	29.966	1244.959	1038.045
-17.706	29.949	1243.901	1037.023
-16.692	30.034	1242.859	1036.590
-15.677	29.928	1241.711	1035.003
-14.663	30.091	1240.363	1034.744
-13.648	29.944	1239.712	1033.340
-12.633	29.931	1238.449	1032.174
-11.619	30.019	1237.283	1031.653
-10.604	29.936	1236.665	1030.633
-9.590	29.904	1236.048	1029.903
-8.575	29.942	1234.966	1029.173
-7.560	29.873	1234.474	1028.336
-6.546	29.911	1233.426	1027.632
-5.531	29.928	1232.361	1026.799
-4.517	29.954	1230.893	1025.677
-3.502	29.923	1230.764	1025.362
-2.487	29.900	1229.561	1024.190
-1.473	29.948	1225.866	1021.337
-0.458	28.312	1211.139	1000.099
0.556	22.546	1193.641	962.132
1.571	18.874	1198.759	945.998
2.586	18.164	1212.849	953.073
3.600	17.891	1202.116	943.049
4.615	13.000	1131.334	861.953
5.629	4.097	1057.582	762.053
6.644	-0.141	1037.875	727.295
7.659	-0.274	1034.792	724.430
8.673	-0.410	1033.912	723.095
9.688	-0.405	1032.686	722.193
10.702	-0.091	1031.184	722.591
11.717	5.519	1038.779	754.968
12.731	14.567	1051.516	808.173
13.746	18.865	1057.298	833.431
14.761	19.554	1057.916	837.188
15.775	19.512	1057.077	836.245
16.790	19.397	1055.911	834.693
17.804	19.321	1055.386	833.836
18.819	19.336	1055.217	833.702
19.834	19.349	1054.692	833.277
20.848	19.466	1054.114	833.310
21.863	19.282	1054.104	832.341
22.877	19.421	1052.563	831.722
23.892	19.319	1052.234	830.898
24.907	19.560	1051.195	831.165
25.921	19.416	1050.256	829.652
26.936	19.388	1049.284	828.680
27.950	19.350	1047.663	827.142
28.965	19.166	1045.833	824.741
29.980	19.296	1043.723	823.630
30.994	19.524	1042.547	823.715
32.009	19.342	1042.086	822.412
33.023	19.302	1040.214	820.671
34.038	19.500	1039.400	820.896
35.053	19.492	1039.137	820.577
36.067	19.509	1038.094	819.763
37.082	19.508	1037.714	819.385
38.096	19.699	1036.800	819.497
39.111	19.668	1036.162	818.770
40.126	19.524	1034.731	816.889
41.140	19.227	1032.856	813.932
42.155	19.083	1031.258	811.922
43.169	19.204	1030.310	811.672
44.184	19.179	1029.453	810.812
45.199	19.092	1027.959	809.154
46.213	19.036	1027.723	808.631
47.228	19.190	1026.547	808.360
48.242	19.264	1025.328	807.675
49.257	19.333	1024.909	807.594
50.271	19.390	1024.180	807.217
51.286	19.464	1023.055	806.602
52.301	19.611	1021.990	806.381
53.315	19.394	1021.146	804.629
54.330	19.424	1020.062	803.842
55.344	19.398	1019.877	803.504
56.359	19.379	1018.354	802.146
57.374	19.216	1017.640	800.756
58.388	19.230	1016.883	800.155
59.403	19.328	1015.587	799.516
60.417	19.047	1014.762	797.498
61.432	19.161	1014.612	797.834
62.447	19.290	1013.603	797.566
63.461	19.407	1012.474	797.149
64.476	19.260	1011.820	795.884
65.490	19.202	1010.822	794.763
66.505	19.269	1010.103	794.438
67.520	19.256	1009.535	793.859
68.534	19.172	1008.377	792.491
69.549	18.826	1007.225	789.924
70.563	18.864	1006.545	789.497
71.578	18.822	1005.615	788.505
72.593	18.816	1004.452	787.496
73.607	18.899	1004.631	787.946
74.622	19.060	1004.267	788.330
75.636	19.137	1003.043	787.653
76.651	18.964	1002.432	786.312
77.666	18.899	1001.579	785.273
78.680	19.022	1000.769	785.132
79.695	19.172	999.778	784.969
80.709	19.234	999.270	784.784
81.724	19.112	998.523	783.572
82.739	19.193	998.004	783.463
83.753	19.643	997.070	784.707
84.768	19.684	996.148	784.096
85.782	19.762	995.315	783.724
86.797	19.624	994.653	782.510
87.812	19.485	993.722	781.080
88.826	19.655	992.586	780.885
89.841	19.662	991.521	780.011
90.855	19.768	990.408	779.542
91.870	19.670	989.603	778.399
92.884	19.472	988.776	776.790
93.899	19.629	987.395	776.341
94.914	19.744	986.434	776.033
95.928	19.508	985.747	774.366
96.943	19.324	984.231	772.279
97.957	19.080	982.838	770.026
98.972	18.964	981.868	768.683
99.987	19.233	981.196	769.290
101.001	19.458	980.572	769.736
102.016	19.420	979.599	768.734
103.030	19.347	978.763	767.683
104.045	19.199	977.446	765.924
105.060	19.114	976.067	764.400
106.074	19.199	975.783	764.488
107.089	19.595	975.054	765.603
108.103	19.614	974.012	764.804
109.118	19.270	973.490	762.802
110.133	19.361	971.819	761.828
111.147	19.096	971.443	760.295
112.162	19.006	969.942	758.658
113.176	19.220	969.217	758.966
114.191	19.075	968.303	757.544
115.206	18.790	967.766	755.805
116.220	18.919	966.715	755.481
117.235	19.052	965.773	755.265
118.249	18.987	964.756	754.117
119.264	19.051	963.723	753.520
120.279	18.967	963.600	752.990
121.293	18.944	962.562	752.012
122.308	19.103	961.752	752.010
123.322	19.081	960.143	750.588
124.337	18.917	959.082	748.978
125.352	18.598	957.390	746.204
126.366	18.385	956.295	744.356
127.381	19.063	956.274	747.220
128.395	19.581	955.608	748.880
129.410	19.606	954.665	748.186
130.424	19.397	953.797	746.533
131.439	19.486	952.680	745.977
132.454	19.520	951.725	745.311
133.468	19.350	950.999	743.941
134.483	19.411	950.458	743.715
135.497	19.728	949.452	744.229
136.512	19.808	948.301	743.604
137.527	19.655	947.652	742.371
138.541	19.684	947.286	742.144
139.556	19.703	945.980	741.137
140.570	19.680	945.390	740.511
141.585	19.720	944.162	739.653
142.600	19.616	943.102	738.315
143.614	19.895	942.472	738.946
144.629	19.926	941.869	738.540
145.643	19.697	940.511	736.437
146.658	19.695	939.055	735.221
147.673	19.605	937.899	733.868
148.687	19.443	937.567	732.856
149.702	19.564	936.301	732.316
150.716	19.423	935.698	731.184
151.731	19.665	935.091	731.666
152.746	19.872	934.192	731.776
153.760	19.976	933.551	731.649
154.775	20.066	932.973	731.509
155.789	19.900	932.294	730.214
156.804	19.818	931.061	728.836
157.819	19.802	930.991	728.649
158.833	20.066	929.539	728.557
159.848	19.975	928.694	727.449
160.862	19.857	927.189	725.713
161.877	19.912	926.792	725.568
162.892	20.013	925.609	725.002
163.906	19.998	924.603	724.085
164.921	19.911	923.934	723.132
165.935	19.938	923.061	722.499
166.950	19.782	922.024	720.974
167.964	19.759	921.622	720.500
168.979	19.680	920.195	718.993
169.994	19.770	919.290	718.597
171.008	19.970	918.469	718.721
172.023	19.843	917.963	717.735
173.037	19.545	916.729	715.471
174.052	19.626	915.701	714.940
175.067	19.653	915.185	714.586
176.081	19.786	914.946	714.887
177.096	19.689	914.227	713.861
178.110	19.334	912.967	711.347
179.125	19.214	912.587	710.493
180.140	19.391	912.265	710.913
181.154	19.444	911.806	710.709
182.169	19.718	911.670	711.666
183.183	19.934	910.845	711.851
184.198	19.712	910.059	710.259
185.213	19.795	909.505	710.107
186.227	19.815	908.655	709.461
187.242	19.898	908.114	709.314
188.256	19.887	907.160	708.465
189.271	20.085	906.250	708.498
190.286	19.849	905.120	706.591
191.300	19.254	904.062	703.272
192.315	18.478	902.672	698.965
193.329	18.447	902.312	698.499
194.344	19.300	902.990	702.441
195.359	19.697	902.582	703.676
196.373	19.819	901.762	703.474
197.388	19.702	900.807	702.191
198.402	19.632	900.476	701.585
199.417	19.704	899.526	701.075
200.432	19.315	898.844	698.904
201.446	19.332	897.752	698.062
202.461	19.244	897.526	697.469
203.475	18.412	895.702	692.628
204.490	17.775	894.787	689.286
205.504	18.913	894.444	693.554
206.519	19.318	894.526	695.189
207.534	19.456	893.849	695.157
208.548	19.874	893.850	696.779
209.563	19.547	893.228	694.918
210.577	19.566	892.218	694.146
211.592	19.923	891.861	695.242
212.607	19.921	890.714	694.278
213.621	19.892	890.603	694.016
214.636	19.928	889.840	693.501
215.650	19.777	889.237	692.367
216.665	20.025	888.671	692.856
217.680	19.987	887.373	691.632
218.694	19.401	886.422	688.490
219.709	19.332	885.898	687.748
220.723	19.594	885.430	688.369
221.738	19.740	884.734	688.350
222.753	19.657	883.806	687.234
223.767	19.734	883.663	687.370
224.782	19.840	883.650	687.719
225.796	20.101	882.642	687.912
226.811	19.515	880.824	684.110
227.826	18.876	879.922	680.819
228.840	18.996	879.495	680.904
229.855	18.968	878.835	680.220
230.869	18.632	878.134	678.289
231.884	19.144	877.818	680.010
232.899	19.792	877.759	682.460
233.913	19.809	876.817	681.737
234.928	19.779	876.456	681.279
235.942	19.815	875.212	680.389
236.957	19.524	874.836	678.893
237.972	19.508	874.082	678.185
238.986	19.599	873.689	678.179
240.001	19.495	873.258	677.373
241.015	19.670	872.330	677.281
242.030	19.821	871.645	677.281
243.045	19.910	871.289	677.293
244.059	19.938	870.651	676.848
245.074	19.674	869.842	675.127
246.088	19.356	868.861	673.063
247.103	19.703	868.641	674.189
248.117	20.225	868.811	676.295
249.132	20.231	867.907	675.556
250.147	20.434	867.222	675.754
251.161	20.492	866.750	675.552
252.176	20.485	866.008	674.885
253.190	20.604	865.661	675.019
254.205	20.702	865.483	675.200
255.220	20.706	864.819	674.637
256.234	20.579	863.775	673.270
257.249	20.379	863.102	671.915
258.263	20.528	862.346	671.842
259.278	20.796	861.505	672.160
260.293	20.650	860.855	671.030
261.307	20.634	860.263	670.449
262.322	20.254	859.405	668.256
263.336	19.496	857.498	663.800
264.351	18.474	855.709	658.433
265.366	18.619	855.315	658.630
266.380	19.802	856.240	663.826
267.395	20.236	856.060	665.292
268.409	20.319	855.071	664.782
269.424	20.377	854.618	664.594
270.439	20.449	853.820	664.192
271.453	20.566	853.335	664.200
272.468	20.809	853.293	665.039
273.482	20.802	852.361	664.224
274.497	20.386	851.267	661.729
275.512	19.997	850.448	659.554
276.526	20.337	850.718	660.999
277.541	20.459	849.909	660.777
278.555	20.280	849.006	659.335
279.570	19.939	848.121	657.295
280.585	20.273	847.618	658.114
281.599	20.079	846.837	656.716
282.614	19.787	845.383	654.426
283.628	19.713	845.046	653.825
284.643	20.263	844.532	655.450
285.657	19.683	843.404	652.328
286.672	19.468	842.603	650.839
287.687	20.157	842.293	653.139
288.701	20.017	842.159	652.448
289.716	19.759	841.356	650.798
290.730	19.619	841.077	649.999
291.745	19.511	839.622	648.410
292.760	19.691	839.820	649.184
293.774	20.798	839.775	653.246
294.789	21.153	839.454	654.269
295.803	21.004	839.179	653.439
296.818	21.025	838.484	652.918
297.833	20.726	837.226	650.763
298.847	20.559	836.592	649.587
299.862	20.825	836.480	650.437
300.876	20.972	836.294	650.785
301.891	20.862	834.980	649.293
302.906	20.420	834.154	646.948
303.920	20.582	833.774	647.197
304.935	20.818	833.761	648.009
305.949	20.882	832.983	647.584
306.964	20.639	831.902	645.787
307.979	20.776	832.060	646.361
308.993	20.990	831.415	646.596
310.008	21.121	830.726	646.490
311.022	20.737	829.950	644.405
312.037	20.726	829.523	643.978
313.052	20.627	828.415	642.691
314.066	19.747	827.268	638.498
315.081	19.464	826.989	637.182
316.095	20.273	826.778	639.946
317.110	20.824	826.907	642.023
318.125	19.974	825.053	637.398
319.139	19.007	823.785	632.805
320.154	19.031	822.894	632.157
321.168	19.825	824.031	635.891
322.183	20.413	824.126	638.071
323.197	20.571	823.552	638.150
324.212	20.773	823.004	638.409
325.227	20.866	822.224	638.090
326.241	20.730	821.967	637.335
327.256	20.691	821.226	636.560
328.270	20.465	820.727	635.293
329.285	20.472	819.623	634.405
330.300	20.165	819.027	632.769
331.314	20.366	818.726	633.215
332.329	20.808	818.215	634.372
333.343	20.849	818.211	634.464
334.358	20.892	817.898	634.321
335.373	20.980	817.383	634.184
336.387	21.139	817.386	634.709
337.402	21.421	817.149	635.495
338.416	21.129	816.703	634.030
339.431	21.273	815.962	633.923
340.446	21.341	815.892	634.056
341.460	21.215	815.274	633.064
342.475	21.114	814.723	632.216
343.489	21.087	814.583	631.953
344.504	21.348	814.221	632.559
345.519	21.432	813.878	632.543
346.533	21.710	813.368	633.094
347.548	21.529	813.058	632.145
348.562	21.638	812.104	631.738
349.577	21.470	811.577	630.668
350.592	21.561	811.006	630.497
351.606	21.674	810.295	630.295
352.621	21.602	808.981	628.957
353.635	21.399	808.604	627.879
354.650	20.613	807.233	623.942
355.665	19.798	805.935	619.962
356.679	20.305	805.870	621.673
357.694	20.669	805.298	622.479
358.708	20.614	805.011	622.005
359.723	21.058	804.674	623.277
360.738	21.369	804.047	623.846
361.752	21.186	804.124	623.197
362.767	21.707	803.722	624.690
363.781	21.910	802.988	624.787
364.796	21.832	802.960	624.434
365.810	22.023	802.275	624.525
366.825	22.033	801.659	624.024
367.840	21.556	801.153	621.882
368.854	21.209	800.266	619.907
369.869	21.362	800.011	620.197
370.883	21.330	799.189	619.390
371.898	21.245	798.917	618.822
372.913	21.419	798.487	619.054
373.927	21.437	798.285	618.903
374.942	21.548	797.840	618.899
375.956	21.605	797.596	618.854
376.971	21.634	797.291	618.666
377.986	21.899	796.852	619.204
379.000	21.923	796.023	618.591
380.015	21.619	795.461	617.030
381.029	21.986	794.875	617.812
382.044	21.885	794.636	617.216
383.059	21.826	793.993	616.455
384.073	21.786	793.603	615.955
385.088	21.781	792.957	615.383
386.102	21.692	792.450	614.623
387.117	21.727	791.901	614.266
388.132	21.530	790.382	612.345
389.146	20.907	789.733	609.606
390.161	21.386	789.531	611.072
391.175	21.715	789.307	611.996
392.190	21.399	788.292	610.052
393.205	20.061	786.590	604.018
394.219	18.757	784.895	598.124
395.234	18.906	785.135	598.776
396.248	20.387	786.043	604.575
397.263	21.743	786.704	609.750
398.278	21.657	786.221	609.022
399.292	21.230	786.140	607.421
400.307	21.497	785.116	607.504
401.321	21.546	784.844	607.411
402.336	21.781	784.977	608.274
403.350	22.130	784.828	609.314
404.365	22.333	784.450	609.672
405.380	22.583	783.804	609.979
406.394	22.588	783.245	609.510
407.409	22.440	782.661	608.488
408.423	22.507	782.616	608.632
409.438	22.558	782.067	608.327
410.453	22.734	781.596	608.515
411.467	22.382	781.502	607.173
412.482	22.401	780.806	606.644
413.496	22.638	780.536	607.197
414.511	22.579	780.082	606.588
415.526	22.625	779.813	606.484
416.540	22.322	779.001	604.754
417.555	22.052	778.465	603.358
418.569	22.269	777.893	603.607
419.584	22.148	777.314	602.688
420.599	22.055	776.743	601.876
421.613	159.031	1362.263	1798.145
422.628	137.367	1447.554	1798.228
