DTS Sentinel unit serial number:	SN413079Multiplexer serial number:	ORYXHardware model number:	OX4-SRSoftware version number:	ORYX F/W v4.00 Oryx Data Collector v3.7.2.0data status	okinstallation	princeton_trtdifferential loss correction	single-endedforward channel	channel 1reverse channel	N/Adate	2019/09/14time	23:14:35forward acquisition time	60.00reverse acquisition time	0.00gamma	496.2192k internal	0.2319k external	0.2319temperature offset calibration	1.0001default loss term (dB/km)	0.3790temperature slope calibration	1.0000multiplexer offset coefficient	1.0000multiplexer slope coefficient	1.0000fibre end	0.00T internal ref (°C)	32.37T ext. ref 1 (°C)	4.66T ext. ref 2 (°C)	27.33length (m)	temperature (°C)	Stokes	anti-Stokes-747.200	-109.722	-0.089	-0.019
-746.185	-124.762	-0.401	-0.063
-745.171	20.679	-0.087	-0.071
-744.156	-121.608	0.083	0.014
-743.142	-200.000	0.024	-0.234
-742.127	-53.680	-0.176	0.081
-741.112	251.715	-0.130	0.223
-740.098	-86.426	-0.359	0.112
-739.083	-61.037	0.089	-0.038
-738.069	160.274	-0.090	-0.127
-737.054	-19.374	-0.046	0.029
-736.039	-161.844	-0.161	-0.008
-735.025	1.054	0.255	0.185
-734.010	25.475	-0.125	0.105
-732.996	-200.000	-0.048	-0.250
-731.981	800.000	0.035	-0.143
-730.966	-190.932	0.349	0.004
-729.952	145.132	-0.086	0.117
-728.937	-122.628	-0.202	-0.033
-727.923	-200.000	0.026	0.198
-726.908	-80.809	0.159	0.053
-725.894	-43.996	-0.265	-0.135
-724.879	800.000	-0.065	-0.204
-723.864	36.068	-0.220	0.196
-722.850	-48.137	-0.300	0.147
-721.835	-70.688	0.036	0.014
-720.821	800.000	-0.077	-0.223
-719.806	-104.674	0.313	-0.073
-718.791	469.096	0.073	0.166
-717.777	-2.169	0.008	0.006
-716.762	521.461	-0.118	-0.280
-715.748	413.078	-0.101	0.217
-714.733	456.713	-0.127	-0.285
-713.718	-34.724	-0.026	0.014
-712.704	-68.584	0.072	-0.028
-711.689	-118.151	-0.356	-0.064
-710.675	88.969	-0.214	-0.240
-709.660	-28.420	-0.276	-0.161
-708.645	5.647	-0.063	0.047
-707.631	103.175	-0.144	-0.170
-706.616	-200.000	0.003	0.182
-705.602	-200.000	0.024	-0.284
-704.587	201.309	0.117	-0.181
-703.572	90.756	0.106	0.120
-702.558	148.275	0.066	0.090
-701.543	-20.516	-0.336	-0.209
-700.529	-53.490	0.150	0.069
-699.514	-79.678	0.206	0.070
-698.499	-70.644	0.241	0.092
-697.485	242.192	-0.073	-0.123
-696.470	-78.356	-0.085	-0.030
-695.456	-24.160	-0.145	-0.088
-694.441	283.972	-0.202	-0.366
-693.426	-104.603	0.280	-0.065
-692.412	-127.357	-0.093	0.014
-691.397	-146.151	0.473	0.042
-690.383	800.000	0.015	0.055
-689.368	-28.163	-0.061	0.036
-688.354	-200.000	0.003	-0.358
-687.339	-200.000	-0.003	-0.094
-686.324	498.098	-0.112	0.260
-685.310	-45.337	-0.370	0.185
-684.295	34.600	-0.174	-0.154
-683.281	-90.456	-0.163	-0.048
-682.266	-200.000	-0.032	-0.155
-681.251	-139.183	-0.270	0.029
-680.237	-15.237	-0.176	0.114
-679.222	90.327	-0.126	0.143
-678.208	-56.320	0.346	0.155
-677.193	-47.719	-0.290	0.142
-676.178	-0.063	-0.251	-0.181
-675.164	-144.790	-0.105	0.010
-674.149	800.000	0.093	-0.302
-673.135	-148.792	0.152	-0.012
-672.120	-163.368	0.065	-0.003
-671.105	800.000	-0.058	0.216
-670.091	312.033	-0.070	-0.133
-669.076	-129.016	-0.514	0.073
-668.062	-56.515	-0.180	0.081
-667.047	-54.844	0.096	0.044
-666.032	800.000	0.069	0.236
-665.018	-111.732	-0.227	-0.046
-664.003	-125.727	0.086	0.013
-662.989	256.383	-0.068	0.117
-661.974	-200.000	-0.032	0.337
-660.959	-129.258	-0.100	0.014
-659.945	356.293	-0.097	-0.194
-658.930	-120.517	0.314	0.054
-657.916	-20.846	-0.092	-0.057
-656.901	800.000	-0.104	-0.371
-655.886	207.791	0.108	0.170
-654.872	324.382	0.121	-0.234
-653.857	-53.158	0.219	0.101
-652.843	-102.288	-0.218	-0.053
-651.828	-40.478	-0.073	0.038
-650.814	507.464	-0.009	0.022
-649.799	284.518	0.138	-0.251
-648.784	-134.930	0.202	-0.025
-647.770	-200.000	0.030	0.300
-646.755	271.782	-0.036	0.063
-645.741	-200.000	0.023	-0.104
-644.726	-51.208	-0.448	0.212
-643.711	184.691	0.091	0.136
-642.697	-132.614	-0.205	0.026
-641.682	-33.468	0.246	0.137
-640.668	-62.604	-0.151	-0.063
-639.653	-140.065	-0.088	-0.009
-638.638	26.045	0.255	0.215
-637.624	-52.861	-0.314	0.146
-636.609	-200.000	-0.000	-0.138
-635.595	144.786	-0.193	-0.260
-634.580	8.961	-0.317	0.241
-633.565	382.599	0.131	0.271
-632.551	800.000	-0.042	0.176
-631.536	694.658	-0.078	0.207
-630.522	-114.486	-0.279	0.054
-629.507	212.518	0.049	0.078
-628.492	800.000	-0.084	0.276
-627.478	-200.000	0.029	-0.231
-626.463	-50.763	-0.198	0.094
-625.449	800.000	0.076	-0.252
-624.434	-200.000	-0.005	-0.196
-623.419	-1.105	0.048	-0.034
-622.405	504.421	0.205	0.479
-621.390	676.110	0.117	-0.306
-620.376	420.102	-0.072	-0.155
-619.361	687.698	-0.087	-0.228
-618.346	-79.926	-0.268	-0.090
-617.332	-71.844	-0.049	0.018
-616.317	87.452	-0.113	0.126
-615.303	195.450	0.027	-0.041
-614.288	-200.000	0.037	-0.164
-613.273	132.066	-0.180	0.233
-612.259	295.860	-0.086	-0.158
-611.244	71.551	0.039	-0.041
-610.230	-52.411	0.110	-0.051
-609.215	-21.992	0.156	0.096
-608.201	-200.000	-0.032	-0.213
-607.186	-200.000	0.011	-0.187
-606.171	-111.276	-0.160	0.033
-605.157	-20.777	-0.161	-0.099
-604.142	611.562	-0.093	0.233
-603.128	155.473	0.018	-0.025
-602.113	237.828	0.196	0.328
-601.098	155.244	-0.055	-0.076
-600.084	-200.000	-0.028	-0.370
-599.069	1.695	0.254	-0.184
-598.055	-84.717	-0.294	-0.093
-597.040	-57.040	-0.046	-0.020
-596.025	-124.520	-0.057	-0.009
-595.011	-87.961	0.120	0.036
-593.996	-123.194	0.090	-0.014
-592.982	-122.171	0.097	-0.016
-591.967	74.949	-0.143	-0.152
-590.952	124.578	-0.088	0.112
-589.938	-93.014	0.099	-0.028
-588.923	-170.402	0.122	0.004
-587.909	7.006	0.193	-0.145
-586.894	-187.901	0.274	-0.004
-585.879	415.992	-0.120	-0.257
-584.865	800.000	0.049	0.148
-583.850	-200.000	-0.013	0.103
-582.836	226.598	0.046	-0.076
-581.821	-81.187	0.137	-0.045
-580.806	-200.000	-0.046	-0.290
-579.792	-18.802	0.151	-0.094
-578.777	-123.150	0.467	0.075
-577.763	-25.214	0.133	0.079
-576.748	-88.337	0.122	0.037
-575.733	-150.584	0.322	-0.025
-574.719	9.128	0.226	-0.172
-573.704	-52.291	-0.274	-0.128
-572.690	98.166	-0.096	-0.111
-571.675	-134.785	0.157	0.019
-570.661	397.765	-0.112	0.235
-569.646	110.495	0.174	0.210
-568.631	-103.836	0.326	-0.077
-567.617	800.000	0.018	0.063
-566.602	-197.661	0.147	-0.001
-565.588	118.793	-0.130	0.162
-564.573	-17.219	0.092	-0.058
-563.558	-96.822	0.369	0.097
-562.544	-200.000	-0.007	-0.068
-561.529	800.000	0.038	-0.110
-560.515	69.381	0.189	-0.196
-559.500	800.000	-0.084	-0.278
-558.485	-142.638	0.110	0.011
-557.471	-200.000	0.332	-0.001
-556.456	800.000	-0.153	0.442
-555.442	246.645	-0.081	-0.137
-554.427	236.271	-0.175	-0.291
-553.412	-96.078	0.216	-0.058
-552.398	51.332	0.045	-0.043
-551.383	-63.672	-0.368	-0.151
-550.369	162.164	0.237	-0.333
-549.354	77.378	-0.218	0.233
-548.339	800.000	-0.018	-0.056
-547.325	-83.485	0.056	-0.018
-546.310	-200.000	0.019	0.216
-545.296	57.730	0.139	0.136
-544.281	-200.000	-0.182	-0.001
-543.266	-134.612	-0.135	-0.017
-542.252	252.425	0.118	-0.202
-541.237	-52.180	0.138	-0.064
-540.223	320.336	-0.094	-0.179
-539.208	-200.000	0.055	-0.243
-538.193	75.988	0.106	-0.113
-537.179	337.204	0.046	0.090
-536.164	-53.696	-0.152	-0.070
-535.150	300.787	-0.088	-0.162
-534.135	108.752	-0.094	-0.113
-533.121	206.737	0.131	-0.204
-532.106	800.000	-0.094	-0.312
-531.091	-0.503	-0.125	-0.089
-530.077	63.186	0.195	-0.196
-529.062	-3.816	-0.065	0.045
-528.048	800.000	-0.013	0.037
-527.033	-3.532	0.160	0.111
-526.018	688.899	0.111	0.291
-525.004	360.845	0.250	0.503
-523.989	306.641	-0.060	0.112
-522.975	124.580	-0.218	0.275
-521.960	-200.000	-0.031	0.340
-520.945	800.000	0.108	0.388
-519.931	129.292	0.037	0.048
-518.916	-163.333	0.085	0.004
-517.902	14.008	0.179	0.140
-516.887	241.585	-0.074	0.125
-515.872	594.051	0.046	0.115
-514.858	-96.692	-0.102	-0.027
-513.843	-12.145	0.176	-0.116
-512.829	-157.605	0.269	-0.016
-511.814	-160.621	-0.039	-0.002
-510.799	800.000	-0.017	-0.069
-509.785	-108.357	-0.454	-0.098
-508.770	-59.357	0.082	0.035
-507.756	-148.955	-0.419	-0.034
-506.741	-200.000	0.016	-0.089
-505.726	8.050	0.149	0.112
-504.712	-51.118	-0.219	0.103
-503.697	200.870	-0.131	0.202
-502.683	62.628	-0.096	-0.096
-501.668	71.274	-0.181	0.188
-500.653	-50.817	-0.163	-0.077
-499.639	-141.342	0.159	-0.016
-498.624	316.046	-0.113	0.213
-497.610	27.761	0.062	0.052
-496.595	785.760	-0.043	0.117
-495.581	-16.502	0.166	-0.105
-494.566	-78.786	-0.133	-0.045
-493.551	-0.896	0.105	0.074
-492.537	171.699	0.075	-0.108
-491.522	34.290	-0.135	-0.118
-490.508	-38.891	0.383	0.202
-489.493	-37.201	-0.037	0.020
-488.478	-65.085	-0.168	0.068
-487.464	-69.684	-0.124	0.047
-486.449	-200.000	-0.045	-0.336
-485.435	-79.675	-0.203	-0.068
-484.420	-37.872	-0.311	0.166
-483.405	-60.760	0.222	-0.094
-482.391	800.000	-0.035	-0.112
-481.376	364.395	-0.187	0.377
-480.362	3.477	-0.095	-0.069
-479.347	-200.000	-0.023	-0.183
-478.332	249.053	0.106	-0.179
-477.318	800.000	-0.015	-0.049
-476.303	117.854	0.132	0.163
-475.289	408.989	0.062	-0.131
-474.274	-59.788	0.059	0.025
-473.259	-89.516	-0.243	-0.071
-472.245	58.149	0.160	-0.157
-471.230	800.000	-0.155	0.441
-470.216	800.000	0.066	0.193
-469.201	88.395	0.118	-0.132
-468.186	-98.742	0.090	0.023
-467.172	-171.690	-0.072	0.002
-466.157	20.664	-0.075	-0.061
-465.143	44.521	0.160	-0.148
-464.128	-22.986	-0.147	-0.088
-463.113	237.838	0.171	-0.284
-462.099	278.361	-0.186	-0.332
-461.084	239.483	-0.076	0.127
-460.070	87.859	0.039	0.044
-459.055	529.174	-0.061	-0.143
-458.040	6.573	-0.287	-0.213
-457.026	800.000	0.057	0.160
-456.011	-200.000	-0.000	-0.092
-454.997	-91.663	0.099	0.028
-453.982	800.000	0.087	-0.244
-452.968	800.000	0.060	-0.217
-451.953	293.831	-0.097	0.178
-450.938	-164.151	-0.112	0.005
-449.924	444.653	0.060	0.131
-448.909	-7.121	-0.078	-0.053
-447.895	-200.000	0.007	-0.103
-446.880	-149.952	0.607	0.047
-445.865	-129.747	-0.162	-0.022
-444.851	-200.000	0.008	0.461
-443.836	-60.300	-0.491	-0.209
-442.822	381.375	0.117	0.241
-441.807	-93.225	0.321	0.089
-440.792	-200.000	0.013	0.060
-439.778	313.461	-0.166	-0.312
-438.763	599.985	0.113	-0.281
-437.749	-116.583	0.076	0.014
-436.734	328.598	-0.046	0.088
-435.719	131.607	0.116	0.149
-434.705	243.999	0.108	0.181
-433.690	106.915	0.166	-0.197
-432.676	800.000	-0.024	-0.092
-431.661	-65.206	-0.134	-0.054
-430.646	-152.163	0.098	0.007
-429.632	287.250	0.185	-0.335
-428.617	-49.444	-0.219	-0.104
-427.603	-200.000	0.001	-0.413
-426.588	378.807	-0.199	-0.407
-425.573	800.000	0.120	0.332
-424.559	-103.403	0.272	0.064
-423.544	638.545	-0.023	-0.059
-422.530	-24.023	-0.106	0.063
-421.515	800.000	0.094	-0.386
-420.500	800.000	-0.085	0.286
-419.486	-78.672	-0.147	-0.050
-418.471	-2.283	-0.117	-0.082
-417.457	162.597	-0.076	-0.107
-416.442	800.000	0.042	-0.175
-415.428	798.733	-0.095	0.262
-414.413	-130.789	0.101	0.013
-413.398	220.497	0.087	-0.140
-412.384	-70.793	0.306	0.115
-411.369	800.000	0.039	-0.137
-410.355	545.072	0.014	-0.034
-409.340	-139.963	0.149	-0.016
-408.325	256.242	-0.102	-0.174
-407.311	66.688	0.291	0.296
-406.296	-195.409	0.162	-0.001
-405.282	-200.000	0.012	0.226
-404.267	-200.000	-0.077	0.337
-403.252	-105.215	-0.085	-0.019
-402.238	9.540	-0.186	-0.141
-401.223	49.101	-0.032	0.030
-400.209	220.258	-0.095	0.152
-399.194	287.112	0.045	-0.081
-398.179	-38.696	0.291	-0.153
-397.165	-200.000	-0.007	-0.257
-396.150	361.637	-0.043	0.086
-395.136	-39.243	0.194	-0.102
-394.121	74.959	-0.012	-0.013
-393.106	34.928	0.140	-0.123
-392.092	136.868	-0.116	0.152
-391.077	719.715	-0.087	-0.231
-390.063	-200.000	0.002	0.050
-389.048	61.386	-0.095	0.094
-388.033	800.000	-0.008	-0.024
-387.019	-29.586	-0.260	0.148
-386.004	79.584	0.075	0.080
-384.990	-96.584	0.247	0.065
-383.975	49.000	0.265	-0.248
-382.960	-151.066	-0.044	0.003
-381.946	-118.920	-0.167	-0.029
-380.931	-152.924	-0.134	-0.009
-379.917	641.172	-0.055	-0.139
-378.902	800.000	-0.084	-0.234
-377.888	726.503	0.031	-0.082
-376.873	-67.866	0.195	0.076
-375.858	-77.373	0.138	0.048
-374.844	415.429	0.018	0.039
-373.829	-38.728	0.142	-0.075
-372.815	-118.496	0.134	0.024
-371.800	-21.664	-0.232	0.141
-370.785	35.970	0.045	0.039
-369.771	218.472	-0.181	0.288
-368.756	41.233	0.240	0.217
-367.742	-200.000	-0.073	-0.466
-366.727	-46.165	-0.079	0.039
-365.712	240.765	-0.251	-0.418
-364.698	-60.709	-0.118	-0.050
-363.683	-49.311	0.176	0.084
-362.669	199.656	0.129	-0.197
-361.654	2.660	-0.146	0.106
-360.639	192.578	0.131	-0.197
-359.625	-200.000	0.045	0.318
-358.610	-86.101	-0.220	0.068
-357.596	222.308	-0.168	-0.269
-356.581	-128.720	-0.214	-0.030
-355.566	-122.527	-0.189	-0.031
-354.552	-127.259	0.259	-0.038
-353.537	800.000	-0.070	-0.239
-352.523	154.768	-0.046	-0.062
-351.508	800.000	-0.044	0.185
-350.493	207.852	0.188	0.293
-349.479	-200.000	-0.014	0.344
-348.464	-110.207	0.195	0.040
-347.450	-128.060	-0.248	-0.035
-346.435	-12.208	-0.099	0.065
-345.420	113.369	0.042	-0.051
-344.406	-200.000	-0.009	0.165
-343.391	-0.855	0.374	0.264
-342.377	-200.000	-0.007	0.193
-341.362	-23.044	-0.088	-0.053
-340.348	-200.000	-0.023	-0.409
-339.333	-131.635	-0.341	0.045
-338.318	-58.174	0.243	0.105
-337.304	42.493	0.239	-0.217
-336.289	60.634	-0.266	0.262
-335.275	167.066	-0.081	-0.115
-334.260	189.645	-0.084	0.125
-333.245	-70.558	-0.156	0.059
-332.231	24.640	0.102	0.084
-331.216	144.418	-0.057	-0.076
-330.202	-124.525	0.132	0.020
-329.187	800.000	0.039	0.144
-328.172	13.470	0.252	-0.195
-327.158	25.640	0.157	-0.130
-326.143	-47.821	-0.250	-0.120
-325.129	-200.000	-0.016	0.157
-324.114	-200.000	0.049	0.373
-323.099	22.938	0.149	0.121
-322.085	167.566	0.227	-0.321
-321.070	-4.289	0.205	0.141
-320.056	162.023	-0.220	0.307
-319.041	134.853	-0.093	0.120
-318.026	-61.640	-0.020	0.008
-317.012	-118.007	-0.264	-0.047
-315.997	-138.712	0.225	-0.024
-314.983	321.035	0.171	0.323
-313.968	107.316	0.090	-0.107
-312.953	305.947	-0.099	-0.182
-311.939	383.663	-0.173	0.354
-310.924	290.993	0.216	0.390
-309.910	164.203	0.291	0.407
-308.895	-15.696	-0.138	0.088
-307.880	-46.324	-0.254	-0.124
-306.866	35.275	-0.347	-0.303
-305.851	576.392	-0.097	0.236
-304.837	-13.096	-0.228	-0.147
-303.822	800.000	0.099	0.331
-302.807	800.000	0.049	0.149
-301.793	-131.814	0.311	-0.040
-300.778	688.941	-0.166	0.432
-299.764	322.352	-0.092	0.173
-298.749	370.287	-0.015	-0.030
-297.735	-20.901	0.350	-0.213
-296.720	61.536	0.041	-0.041
-295.705	-167.510	-0.199	0.008
-294.691	800.000	-0.039	0.141
-293.676	277.774	-0.205	0.363
-292.662	499.871	0.016	-0.036
-291.647	49.602	-0.049	0.046
-290.632	494.356	0.007	-0.015
-289.618	-200.000	0.006	0.045
-288.603	-42.513	-0.208	0.105
-287.589	-200.000	-0.026	-0.249
-286.574	-82.533	-0.065	-0.021
-285.559	13.707	0.125	0.097
-284.545	-200.000	-0.015	0.078
-283.530	-68.230	-0.171	0.066
-282.516	197.104	-0.057	-0.086
-281.501	172.740	0.127	-0.182
-280.486	800.000	-0.081	-0.291
-279.472	-81.154	0.113	0.037
-278.457	-200.000	0.012	-0.269
-277.443	257.259	-0.159	-0.272
-276.428	800.000	-0.094	-0.320
-275.413	-99.775	-0.179	0.045
-274.399	97.778	0.264	0.302
-273.384	-12.659	-0.308	0.199
-272.370	82.954	0.224	0.242
-271.355	-69.450	0.178	0.068
-270.340	51.084	-0.097	0.091
-269.326	117.650	-0.091	-0.111
-268.311	800.000	-0.056	0.211
-267.297	754.009	-0.054	-0.144
-266.282	-76.564	0.219	0.076
-265.267	-200.000	-0.083	-0.411
-264.253	200.928	0.286	0.437
-263.238	-92.487	-0.101	0.028
-262.224	-200.000	0.005	-0.048
-261.209	75.499	0.278	0.292
-260.195	128.630	0.158	-0.200
-259.180	15.832	-0.192	-0.150
-258.165	66.187	-0.180	-0.181
-257.151	-200.000	0.013	0.294
-256.136	66.744	-0.049	-0.049
-255.122	401.890	0.085	0.177
-254.107	36.925	-0.194	0.170
-253.092	-196.867	-0.061	-0.000
-252.078	-123.237	-0.277	0.044
-251.063	211.796	-0.085	0.133
-250.049	725.891	0.139	0.368
-249.034	699.587	0.101	0.262
-248.019	-84.173	0.225	-0.071
-247.005	-124.576	0.248	-0.038
-245.990	-200.000	0.014	-0.080
-244.976	800.000	-0.020	-0.066
-243.961	-116.443	-0.305	-0.056
-242.946	-200.000	0.080	0.557
-241.932	101.113	0.251	-0.290
-240.917	585.011	0.114	0.277
-239.903	-200.000	-0.059	-0.332
-238.888	-200.000	0.001	0.032
-237.873	-49.071	0.109	0.052
-236.859	-185.166	0.170	-0.003
-235.844	40.878	0.129	0.115
-234.830	-130.845	-0.077	0.010
-233.815	-190.479	-0.098	-0.001
-232.800	-105.457	0.143	0.032
-231.786	-45.062	0.155	-0.077
-230.771	69.193	-0.069	-0.070
-229.757	120.698	-0.233	-0.287
-228.742	-100.170	-0.168	0.041
-227.727	-47.293	0.062	0.030
-226.713	56.571	0.234	0.226
-225.698	-43.259	-0.267	0.134
-224.684	-2.807	-0.147	-0.102
-223.669	734.281	-0.096	0.256
-222.655	-200.000	0.020	-0.101
-221.640	-174.465	-0.256	-0.007
-220.625	-46.430	0.329	-0.160
-219.611	159.871	-0.121	0.167
-218.596	132.424	-0.157	0.201
-217.582	-45.446	0.093	-0.046
-216.567	-106.965	-0.177	-0.039
-215.552	551.568	-0.099	-0.234
-214.538	50.244	-0.090	-0.084
-213.523	417.367	0.188	-0.397
-212.509	-132.446	0.196	-0.025
-211.494	-29.533	-0.207	-0.117
-210.479	147.562	0.209	-0.278
-209.465	147.106	0.048	-0.064
-208.450	76.824	0.112	0.118
-207.436	-89.724	0.076	0.022
-206.421	-200.000	0.087	-0.482
-205.406	-200.000	-0.000	-0.147
-204.392	-60.753	-0.257	0.108
-203.377	72.842	-0.157	0.162
-202.363	61.503	-0.138	-0.136
-201.348	-71.012	-0.175	0.065
-200.333	-94.987	0.194	-0.052
-199.319	375.541	0.074	0.149
-198.304	-75.445	-0.119	-0.042
-197.290	33.288	-0.141	-0.121
-196.275	55.508	0.022	0.021
-195.260	254.427	-0.160	0.271
-194.246	-98.657	0.181	-0.046
-193.231	-200.000	0.086	0.433
-192.217	117.607	-0.107	0.131
-191.202	127.724	-0.183	-0.230
-190.187	-18.104	-0.142	-0.088
-189.173	9.908	0.081	0.061
-188.158	725.311	0.054	-0.142
-187.144	-153.002	-0.092	-0.006
-186.129	-200.000	0.020	0.131
-185.114	-175.151	0.336	-0.009
-184.100	-24.989	-0.346	0.203
-183.085	-57.750	-0.307	-0.133
-182.071	-200.000	-0.010	0.137
-181.056	90.890	0.027	0.030
-180.042	607.786	0.096	-0.238
-179.027	0.388	-0.088	0.062
-178.012	9.110	0.079	-0.059
-176.998	800.000	-0.024	0.078
-175.983	-33.001	-0.233	0.128
-174.969	-200.000	0.016	0.085
-173.954	-145.449	-0.086	-0.008
-172.939	16.265	0.022	-0.017
-171.925	-200.000	0.035	-0.239
-170.910	-200.000	0.035	-0.204
-169.896	144.658	0.125	-0.165
-168.881	-140.547	0.227	-0.023
-167.866	-200.000	0.012	-0.152
-166.852	132.058	0.091	-0.115
-165.837	82.256	-0.059	-0.064
-164.823	603.831	-0.072	-0.176
-163.808	295.368	-0.079	-0.144
-162.793	-143.428	-0.229	0.022
-161.779	-23.630	-0.362	0.215
-160.764	-148.964	0.289	-0.023
-159.750	98.229	-0.048	0.055
-158.735	-70.785	0.489	0.182
-157.720	-65.569	0.324	-0.129
-156.706	-147.662	-0.075	-0.006
-155.691	-7.229	0.153	-0.103
-154.677	-9.482	-0.266	0.176
-153.662	329.474	-0.253	-0.481
-152.647	309.328	-0.094	0.174
-151.633	-28.179	0.248	0.142
-150.618	-200.000	0.050	-0.232
-149.604	-121.796	-0.068	-0.011
-148.589	761.567	-0.062	-0.167
-147.574	51.429	-0.187	0.176
-146.560	-109.678	-0.021	-0.004
-145.545	-200.000	-0.012	0.229
-144.531	-200.000	0.064	-0.325
-143.516	-200.000	0.037	0.171
-142.502	-115.984	-0.243	0.045
-141.487	-86.792	0.037	0.011
-140.472	-55.997	-0.357	-0.157
-139.458	800.000	-0.101	0.307
-138.443	39.496	0.080	-0.071
-137.429	800.000	-0.049	0.160
-136.414	-53.210	0.331	-0.150
-135.399	-200.000	-0.029	-0.139
-134.385	-127.216	0.088	-0.013
-133.370	-143.767	-0.148	0.014
-132.356	-120.701	-0.381	0.064
-131.341	-137.484	0.117	-0.013
-130.326	344.137	0.159	0.307
-129.312	286.512	0.105	0.187
-128.297	-80.660	-0.260	0.085
-127.283	-200.000	0.017	0.142
-126.268	-200.000	0.010	-0.196
-125.253	-74.394	-0.504	0.180
-124.239	-200.000	-0.036	-0.407
-123.224	-41.214	0.202	0.103
-122.210	9.554	0.319	0.239
-121.195	-123.902	0.470	-0.073
-120.180	181.693	-0.160	-0.232
-119.166	154.007	0.261	0.353
-118.151	-200.000	-0.003	0.043
-117.137	-200.000	-0.001	0.243
-116.122	554.773	-0.055	-0.131
-115.107	800.000	-0.067	0.253
-114.093	-23.406	0.132	-0.078
-113.078	-200.000	0.002	0.275
-112.064	-73.622	-0.108	-0.039
-111.049	-54.395	0.269	0.121
-110.034	583.123	-0.047	-0.113
-109.020	756.406	0.077	0.207
-108.005	-58.047	-0.198	0.085
-106.991	-200.000	-0.033	0.257
-105.976	-148.750	0.122	0.010
-104.962	-118.653	-0.117	-0.020
-103.947	-180.386	0.238	0.005
-102.932	249.340	0.016	0.027
-101.918	-200.000	-0.003	-0.167
-100.903	-200.000	-0.002	-0.014
-99.889	64.675	-0.167	-0.166
-98.874	541.135	-0.114	0.268
-97.859	273.002	-0.109	0.189
-96.845	41.186	0.083	-0.074
-95.830	-24.399	-0.112	0.066
-94.816	438.430	-0.047	-0.100
-93.801	-63.345	0.241	-0.098
-92.786	-200.000	0.010	0.126
-91.772	-62.424	-0.106	0.043
-90.757	-25.655	0.116	-0.067
-89.743	220.964	-0.229	0.363
-88.728	333.114	0.172	0.329
-87.713	800.000	-0.061	0.244
-86.699	693.374	0.154	0.397
-85.684	-140.468	0.112	-0.011
-84.670	-92.232	-0.204	0.057
-83.655	-23.933	-0.288	-0.170
-82.640	-47.284	-0.055	0.027
-81.626	99.499	0.189	0.215
-80.611	62.528	-0.205	-0.202
-79.597	660.309	-0.072	0.182
-78.582	-200.000	0.055	0.266
-77.567	-26.382	-0.429	0.248
-76.553	-114.933	0.291	0.055
-75.538	109.710	-0.089	-0.105
-74.524	-200.000	-0.003	-0.189
-73.509	426.291	0.045	-0.096
-72.494	-21.140	-0.162	-0.097
-71.480	800.000	0.112	-0.316
-70.465	78.940	-0.239	-0.252
-69.451	-47.438	-0.151	-0.072
-68.436	-200.000	0.038	-0.374
-67.422	-112.411	0.194	0.038
-66.407	-200.000	-0.005	-0.109
-65.392	-158.246	-0.251	-0.014
-64.378	-57.318	-0.368	-0.159
-63.363	181.899	0.125	-0.181
-62.349	800.000	0.142	0.486
-61.334	-10.252	-1.085	-0.709
-60.319	53.583	0.724	0.684
-59.305	555.940	-0.309	-0.733
-58.290	315.715	0.578	1.075
-57.276	309.703	0.882	1.625
-56.261	-200.000	95.561	588.732
-55.246	664.202	1370.448	3482.574
-54.232	199.623	2542.966	3840.937
-53.217	121.331	2140.419	2624.886
-52.203	44.350	1605.062	1450.876
-51.188	35.948	1342.710	1163.194
-50.173	32.793	1301.058	1108.561
-49.159	54.855	1348.053	1280.948
-48.144	57.169	1364.123	1309.977
-47.130	36.050	1323.579	1147.045
-46.115	32.621	1306.044	1111.619
-45.100	32.401	1301.488	1106.402
-44.086	32.220	1299.051	1103.224
-43.071	32.195	1296.927	1101.230
-42.057	32.200	1294.871	1099.471
-41.042	32.180	1292.793	1097.544
-40.027	32.212	1291.144	1096.292
-39.013	32.286	1289.356	1095.159
-37.998	32.261	1287.765	1093.621
-36.984	32.331	1285.970	1092.455
-35.969	32.337	1284.287	1091.020
-34.954	32.379	1282.331	1089.560
-33.940	32.342	1281.390	1088.503
-32.925	32.497	1279.958	1088.136
-31.911	32.419	1278.371	1086.297
-30.896	32.453	1276.664	1084.995
-29.881	32.448	1275.271	1083.740
-28.867	32.604	1273.939	1083.461
-27.852	32.593	1272.427	1082.073
-26.838	32.441	1271.263	1080.168
-25.823	32.503	1270.154	1079.534
-24.809	32.484	1268.481	1077.966
-23.794	32.403	1267.312	1076.464
-22.779	32.516	1265.686	1075.683
-21.765	32.491	1264.667	1074.636
-20.750	32.413	1263.345	1073.021
-19.736	32.297	1262.221	1071.365
-18.721	32.373	1261.157	1070.849
-17.706	32.392	1260.116	1070.034
-16.692	32.353	1258.673	1068.544
-15.677	32.392	1257.491	1067.719
-14.663	32.359	1256.349	1066.520
-13.648	32.305	1255.417	1065.382
-12.633	32.250	1254.811	1064.514
-11.619	32.303	1253.872	1063.973
-10.604	32.279	1252.825	1062.907
-9.590	32.330	1251.568	1062.089
-8.575	32.309	1250.462	1060.988
-7.560	32.232	1249.748	1059.908
-6.546	32.297	1249.062	1059.649
-5.531	32.318	1248.144	1058.946
-4.517	32.235	1247.382	1057.788
-3.502	32.417	1246.119	1057.701
-2.487	32.216	1245.830	1056.284
-1.473	32.259	1241.280	1052.623
-0.458	30.853	1226.484	1032.249
0.556	26.406	1209.493	994.972
1.571	22.704	1214.920	978.850
2.586	21.821	1229.699	985.705
3.600	21.187	1218.949	973.469
4.615	16.184	1147.810	890.242
5.629	8.353	1074.170	794.240
6.644	4.795	1054.543	762.265
7.659	4.558	1052.306	759.422
8.673	4.618	1051.087	758.766
9.688	4.669	1049.589	757.866
10.702	4.815	1048.123	757.450
11.717	9.222	1053.943	783.107
12.731	16.438	1064.444	826.240
13.746	19.076	1066.716	840.834
14.761	18.212	1065.268	835.403
15.775	17.247	1062.847	828.727
16.790	16.109	1060.913	821.604
17.804	15.353	1059.313	816.616
18.819	15.048	1058.322	814.294
19.834	14.903	1057.368	812.781
20.848	14.711	1056.849	811.379
21.863	14.393	1055.597	808.804
22.877	14.341	1054.646	807.750
23.892	14.175	1054.214	806.545
24.907	14.241	1053.690	806.392
25.921	14.143	1052.996	805.311
26.936	14.321	1051.404	804.883
27.950	14.422	1049.952	804.190
28.965	14.536	1048.749	803.748
29.980	14.598	1046.877	802.538
30.994	14.663	1045.610	801.809
32.009	14.690	1044.772	801.224
33.023	14.518	1043.933	799.686
34.038	14.577	1042.463	798.773
35.053	14.545	1041.720	797.978
36.067	14.471	1040.914	796.937
37.082	14.544	1040.278	796.727
38.096	14.589	1039.806	796.509
39.111	14.578	1038.807	795.625
40.126	14.257	1037.797	793.250
41.140	14.369	1035.853	792.228
42.155	14.168	1034.889	790.466
43.169	14.129	1034.071	789.584
44.184	14.173	1032.974	788.886
45.199	14.236	1032.039	788.402
46.213	14.313	1030.860	787.793
47.228	14.386	1029.892	787.329
48.242	14.511	1028.871	787.068
49.257	14.472	1027.695	785.915
50.271	14.386	1027.551	785.331
51.286	14.427	1026.448	784.611
52.301	14.432	1025.502	783.841
53.315	14.421	1024.252	782.765
54.330	14.419	1023.488	782.105
55.344	14.203	1022.911	780.583
56.359	14.415	1021.148	780.158
57.374	14.165	1020.853	778.693
58.388	14.031	1020.148	777.461
59.403	14.224	1019.000	777.418
60.417	14.227	1018.564	777.034
61.432	14.034	1018.043	775.664
62.447	14.092	1016.980	775.055
63.461	14.076	1016.206	774.323
64.476	14.146	1014.894	773.581
65.490	13.986	1014.430	772.418
66.505	14.120	1013.695	772.411
67.520	14.060	1013.137	771.636
68.534	14.256	1011.869	771.513
69.549	14.032	1011.612	770.212
70.563	14.148	1010.558	769.874
71.578	13.952	1009.765	768.297
72.593	14.053	1008.711	767.896
73.607	13.955	1008.097	766.908
74.622	14.082	1007.554	767.011
75.636	14.137	1006.414	766.331
76.651	14.006	1006.675	765.854
77.666	13.982	1006.395	765.463
78.680	13.894	1005.174	764.065
79.695	14.112	1004.383	764.396
80.709	14.103	1003.719	763.781
81.724	14.170	1003.454	763.821
82.739	14.262	1002.980	763.813
83.753	14.388	1002.101	763.656
84.768	14.487	1001.548	763.620
85.782	14.592	1000.090	762.919
86.797	14.571	999.614	762.392
87.812	14.457	998.683	761.096
88.826	14.499	997.409	760.250
89.841	14.505	996.640	759.624
90.855	14.601	995.585	759.190
91.870	14.570	995.068	758.587
92.884	14.593	994.196	757.958
93.899	14.613	993.535	757.478
94.914	14.595	992.932	756.871
95.928	14.549	992.101	755.960
96.943	14.562	991.142	755.222
97.957	14.621	990.391	754.849
98.972	14.609	989.454	754.016
99.987	14.577	988.859	753.351
101.001	14.655	987.266	752.423
102.016	14.401	987.024	751.028
103.030	14.574	986.494	751.335
104.045	14.625	985.192	750.509
105.060	14.355	984.545	748.737
106.074	14.410	983.497	748.119
107.089	14.220	982.223	746.230
108.103	14.094	981.249	744.862
109.118	14.340	979.875	744.851
110.133	14.302	979.343	744.214
111.147	14.172	978.699	743.075
112.162	14.235	977.696	742.531
113.176	14.317	977.244	742.487
114.191	14.385	976.423	742.098
115.206	14.349	975.888	741.467
116.220	14.266	975.046	740.393
117.235	14.324	974.173	739.922
118.249	14.373	972.960	739.152
119.264	14.316	971.973	738.086
120.279	14.224	971.483	737.239
121.293	14.254	970.711	736.722
122.308	14.255	969.496	735.740
123.322	14.188	968.053	734.283
124.337	14.211	967.483	733.889
125.352	14.227	966.542	733.178
126.366	14.115	965.661	731.955
127.381	14.280	964.626	731.829
128.395	14.240	963.387	730.650
129.410	14.249	962.744	730.136
130.424	14.213	962.116	729.436
131.439	14.298	961.435	729.229
132.454	14.330	960.932	728.921
133.468	14.336	960.048	728.216
134.483	14.403	959.029	727.670
135.497	14.429	958.336	727.192
136.512	14.236	957.611	725.737
137.527	14.418	956.601	725.700
138.541	14.476	955.574	725.108
139.556	14.465	955.069	724.613
140.570	14.551	954.461	724.462
141.585	14.504	954.025	723.863
142.600	14.612	952.921	723.430
143.614	14.555	952.548	722.836
144.629	14.673	951.475	722.468
145.643	14.681	950.387	721.612
146.658	14.620	949.292	720.453
147.673	14.383	948.878	719.051
148.687	14.326	948.245	718.262
149.702	14.380	947.155	717.607
150.716	14.244	946.558	716.507
151.731	14.446	945.680	716.649
152.746	14.461	944.812	715.990
153.760	14.528	944.006	715.603
154.775	14.466	943.852	715.157
155.789	14.696	943.249	715.621
156.804	14.676	941.996	714.525
157.819	14.680	941.566	714.153
158.833	14.716	940.766	713.633
159.848	14.795	939.940	713.281
160.862	14.628	938.925	711.736
161.877	14.573	937.992	710.733
162.892	14.487	937.160	709.673
163.906	14.318	936.204	708.168
164.921	14.518	935.222	708.210
165.935	14.579	934.505	707.863
166.950	14.498	934.245	707.260
167.964	14.592	933.299	706.883
168.979	14.478	932.073	705.408
169.994	14.620	931.227	705.304
171.008	14.640	930.631	704.877
172.023	14.838	930.011	705.177
173.037	14.820	929.772	704.860
174.052	14.798	928.195	703.508
175.067	14.600	928.186	702.606
176.081	14.598	927.450	701.981
177.096	14.589	926.666	701.288
178.110	14.557	926.412	700.896
179.125	14.650	925.536	700.561
180.140	14.497	925.535	699.859
181.154	14.776	924.696	700.332
182.169	14.741	924.460	699.944
183.183	14.829	923.704	699.679
184.198	14.917	922.258	698.888
185.213	14.899	921.880	698.465
186.227	14.969	921.422	698.347
187.242	14.952	921.076	697.953
188.256	14.936	920.482	697.374
189.271	14.886	919.490	696.353
190.286	14.876	918.681	695.636
191.300	14.654	917.957	694.105
192.315	14.593	917.117	693.154
193.329	14.514	916.793	692.519
194.344	14.629	916.112	692.422
195.359	14.781	915.455	692.496
196.373	14.801	915.109	692.254
197.388	14.923	914.821	692.481
198.402	15.007	914.129	692.244
199.417	15.013	913.611	691.815
200.432	15.010	913.008	691.282
201.446	15.138	912.591	691.436
202.461	15.265	911.935	691.399
203.475	15.124	911.465	690.401
204.490	15.148	910.383	689.622
205.504	14.976	909.814	688.420
206.519	14.939	909.198	687.741
207.534	15.029	908.319	687.384
208.548	15.136	907.202	686.919
209.563	14.991	906.887	686.022
210.577	15.037	906.399	685.781
211.592	15.314	905.766	686.378
212.607	15.291	904.795	685.488
213.621	15.308	903.950	684.855
214.636	15.312	903.169	684.219
215.650	15.155	903.224	683.560
216.665	15.212	902.586	683.250
217.680	15.402	901.682	683.276
218.694	15.380	901.129	682.710
219.709	15.315	900.620	682.000
220.723	15.321	899.711	681.276
221.738	15.442	898.886	681.080
222.753	15.465	898.280	680.653
223.767	15.360	898.104	680.036
224.782	15.417	897.732	679.923
225.796	15.555	896.655	679.607
226.811	15.484	895.999	678.763
227.826	15.390	895.551	677.984
228.840	15.443	894.459	677.311
229.855	15.469	893.678	676.765
230.869	15.492	892.693	676.049
231.884	15.329	892.397	675.109
232.899	15.373	891.370	674.451
233.913	15.413	891.027	674.294
234.928	15.377	890.267	673.510
235.942	15.290	889.790	672.741
236.957	15.292	889.494	672.468
237.972	15.408	888.766	672.321
238.986	15.389	888.064	671.655
240.001	15.438	887.557	671.411
241.015	15.456	886.844	670.884
242.030	15.435	885.983	670.090
243.045	15.559	885.559	670.204
244.059	15.509	885.120	669.612
245.074	15.482	884.657	669.093
246.088	15.576	883.986	668.901
247.103	15.679	882.941	668.461
248.117	15.717	882.937	668.551
249.132	15.870	882.405	668.696
250.147	15.921	881.843	668.414
251.161	15.962	881.289	668.098
252.176	15.978	880.356	667.394
253.190	16.021	879.673	666.988
254.205	15.997	879.391	666.620
255.220	16.115	878.900	666.657
256.234	16.141	877.964	665.989
257.249	16.081	877.092	665.033
258.263	16.099	876.509	664.600
259.278	15.948	876.323	663.807
260.293	16.125	875.513	663.833
261.307	16.232	874.908	663.737
262.322	16.223	874.193	663.097
263.336	16.312	873.106	662.566
264.351	16.236	872.817	661.988
265.366	16.165	872.248	661.221
266.380	16.271	871.284	660.846
267.395	16.212	870.798	660.189
268.409	16.178	870.160	659.514
269.424	16.200	869.464	659.015
270.439	16.268	868.199	658.261
271.453	16.251	867.793	657.828
272.468	16.140	867.592	657.187
273.482	16.112	866.865	656.469
274.497	16.233	866.034	656.249
275.512	16.310	865.815	656.325
276.526	16.257	865.297	655.671
277.541	16.292	864.860	655.418
278.555	16.212	864.937	655.107
279.570	16.439	863.673	654.971
280.585	16.426	862.796	654.199
281.599	16.318	862.324	653.365
282.614	16.324	861.507	652.708
283.628	16.173	860.929	651.631
284.643	16.307	860.413	651.701
285.657	16.337	859.696	651.214
286.672	16.279	858.858	650.298
287.687	16.254	858.746	650.060
288.701	16.331	858.020	649.749
289.716	16.339	857.738	649.511
290.730	16.635	856.584	649.716
291.745	16.630	856.100	649.273
292.760	16.638	855.718	648.957
293.774	16.584	855.499	648.525
294.789	16.521	854.595	647.540
295.803	16.416	853.955	646.596
296.818	16.537	853.237	646.456
297.833	16.587	852.262	645.852
298.847	16.444	851.884	644.963
299.862	16.500	851.630	644.927
300.876	16.499	851.203	644.543
301.891	16.672	850.359	644.507
302.906	16.696	849.665	644.013
303.920	16.662	849.659	643.824
304.935	16.886	848.871	644.021
305.949	16.902	848.189	643.507
306.964	16.888	847.242	642.680
307.979	16.789	847.036	642.091
308.993	16.808	846.452	641.664
310.008	16.774	845.780	640.966
311.022	16.884	845.070	640.790
312.037	16.751	844.567	639.849
313.052	16.813	843.967	639.571
314.066	16.780	843.091	638.725
315.081	16.666	842.653	637.910
316.095	16.688	842.187	637.581
317.110	16.830	841.504	637.542
318.125	16.700	841.428	636.940
319.139	16.713	840.617	636.319
320.154	16.701	840.280	635.962
321.168	16.988	839.444	636.351
322.183	16.798	839.406	635.553
323.197	16.893	839.045	635.579
324.212	16.880	838.388	634.975
325.227	16.862	837.409	634.110
326.241	16.925	836.772	633.808
327.256	16.866	836.256	633.139
328.270	16.845	836.149	632.926
329.285	16.814	835.296	632.107
330.300	16.823	834.756	631.676
331.314	16.796	834.643	631.436
332.329	16.887	834.211	631.390
333.343	16.879	833.645	630.876
334.358	16.941	833.135	630.666
335.373	17.020	832.812	630.658
336.387	16.993	832.586	630.330
337.402	16.977	832.159	629.894
338.416	17.173	831.966	630.418
339.431	17.255	831.310	630.171
340.446	17.332	830.906	630.095
341.460	17.382	830.555	629.956
342.475	17.365	830.290	629.638
343.489	17.302	829.927	629.074
344.504	17.336	829.649	628.932
345.519	17.538	828.881	629.042
346.533	17.454	828.375	628.291
347.548	17.358	827.860	627.491
348.562	17.209	827.569	626.665
349.577	17.368	826.553	626.426
350.592	17.172	825.885	625.142
351.606	17.227	825.020	624.635
352.621	17.287	824.640	624.511
353.635	17.320	824.078	624.154
354.650	17.266	823.581	623.524
355.665	17.284	823.249	623.283
356.679	17.239	822.400	622.418
357.694	17.361	821.939	622.463
358.708	17.428	821.024	621.961
359.723	17.434	820.569	621.580
360.738	17.294	819.784	620.422
361.752	17.449	819.219	620.505
362.767	17.423	818.848	620.075
363.781	17.592	818.567	620.421
364.796	17.693	817.838	620.182
365.810	17.766	817.593	620.204
366.825	17.788	817.368	620.059
367.840	17.759	817.258	619.818
368.854	17.697	816.207	618.741
369.869	17.615	815.765	618.051
370.883	17.695	815.391	618.002
371.898	17.688	815.149	617.740
372.913	17.843	814.589	617.821
373.927	17.690	814.295	616.991
374.942	17.793	813.665	616.831
375.956	17.901	813.478	617.025
376.971	17.887	812.924	616.502
377.986	17.996	812.624	616.614
379.000	17.997	811.708	615.865
380.015	18.073	811.250	615.739
381.029	17.979	810.807	615.010
382.044	17.990	809.803	614.232
383.059	17.819	809.959	613.682
384.073	18.087	808.967	613.837
385.088	17.944	808.473	612.896
386.102	17.817	808.170	612.154
387.117	17.888	807.473	611.829
388.132	17.854	806.632	611.014
389.146	17.902	806.380	610.943
390.161	17.839	805.986	610.365
391.175	18.122	805.415	610.889
392.190	18.123	804.720	610.311
393.205	17.929	804.208	609.177
394.219	17.899	804.335	609.113
395.234	17.966	803.507	608.669
396.248	17.797	803.328	607.877
397.263	17.823	802.526	607.312
398.278	17.836	802.374	607.188
399.292	17.917	801.542	606.793
400.307	17.896	801.494	606.626
401.321	17.815	800.821	605.777
402.336	18.023	800.579	606.278
403.350	18.144	799.817	606.077
404.365	18.094	799.587	605.672
405.380	18.072	799.356	605.366
406.394	18.276	798.613	605.472
407.409	18.156	798.408	604.836
408.423	18.302	798.101	605.069
409.438	18.207	797.872	604.504
410.453	18.366	797.589	604.798
411.467	18.412	796.928	604.405
412.482	18.534	796.363	604.352
413.496	18.506	796.088	603.992
414.511	18.435	795.870	603.524
415.526	18.340	795.308	602.711
416.540	18.520	794.460	602.646
417.555	18.327	794.308	601.799
418.569	18.472	793.854	601.912
419.584	18.479	793.318	601.479
420.599	18.483	793.202	601.348
421.613	156.091	1371.341	1793.699
422.628	135.095	1455.578	1793.827
