DTS Sentinel unit serial number:	SN413079Multiplexer serial number:	ORYXHardware model number:	OX4-SRSoftware version number:	ORYX F/W v4.00 Oryx Data Collector v3.7.2.0data status	okinstallation	princeton_trtdifferential loss correction	single-endedforward channel	channel 1reverse channel	N/Adate	2019/09/12time	18:39:34forward acquisition time	15.00reverse acquisition time	0.00gamma	496.2192k internal	0.2319k external	0.2319temperature offset calibration	1.0098default loss term (dB/km)	0.3790temperature slope calibration	1.0000multiplexer offset coefficient	1.0000multiplexer slope coefficient	1.0000fibre end	0.00T internal ref (°C)	33.12T ext. ref 1 (°C)	2.93T ext. ref 2 (°C)	27.68length (m)	temperature (°C)	Stokes	anti-Stokes-747.200	-23.304	0.562	-0.342
-746.185	-90.344	-0.234	-0.069
-745.171	511.491	0.289	-0.681
-744.156	98.003	-0.216	0.251
-743.142	800.000	-0.195	-0.740
-742.127	-95.691	-0.112	-0.030
-741.112	-11.254	0.525	-0.350
-740.098	-200.000	-0.119	-0.827
-739.083	446.003	-0.276	-0.613
-738.069	800.000	0.141	0.473
-737.054	-114.680	0.838	0.162
-736.039	-85.623	-0.306	-0.096
-735.025	-34.631	0.645	-0.357
-734.010	-162.978	-1.041	0.051
-732.996	800.000	-0.169	-0.590
-731.981	7.365	-0.697	-0.526
-730.966	154.922	-0.491	-0.683
-729.952	-54.315	0.479	-0.220
-728.937	800.000	-0.363	1.410
-727.923	-169.739	-0.203	0.007
-726.908	-1.292	0.940	0.671
-725.894	-200.000	0.111	-0.709
-724.879	800.000	0.098	0.416
-723.864	22.465	0.148	0.122
-722.850	657.148	-0.234	-0.608
-721.835	44.121	-0.300	-0.278
-720.821	-104.682	-0.646	-0.150
-719.806	412.393	0.404	0.868
-718.791	-200.000	-0.000	0.499
-717.777	10.257	0.155	0.119
-716.762	6.227	-0.311	-0.233
-715.748	278.800	0.176	0.317
-714.733	-200.000	-0.015	-0.745
-713.718	800.000	0.166	-0.571
-712.704	630.777	0.442	-1.131
-711.689	-128.627	0.040	0.006
-710.675	186.030	-0.376	-0.564
-709.660	-200.000	-0.082	-0.973
-708.645	-136.107	0.676	-0.080
-707.631	-25.984	-0.887	0.527
-706.616	-34.043	0.737	-0.410
-705.602	-5.746	0.505	-0.349
-704.587	800.000	-0.113	-0.325
-703.572	800.000	0.175	0.677
-702.558	511.459	-0.217	-0.511
-701.543	-29.369	-0.234	0.135
-700.529	-200.000	0.039	0.217
-699.514	-200.000	-0.233	-1.445
-698.499	143.606	0.070	-0.094
-697.485	322.374	0.356	-0.684
-696.470	-21.310	-0.159	0.098
-695.456	-100.622	-0.878	-0.219
-694.441	-117.008	-0.706	0.130
-693.426	-200.000	-0.009	0.160
-692.412	-72.535	-1.034	-0.385
-691.397	800.000	-0.217	-0.849
-690.383	767.837	-0.295	0.811
-689.368	49.743	0.363	0.345
-688.354	-157.971	-0.955	0.057
-687.339	9.394	-0.904	-0.690
-686.324	166.171	0.530	0.758
-685.310	800.000	-0.187	0.646
-684.295	23.332	0.402	-0.334
-683.281	-12.124	-0.639	-0.422
-682.266	-87.835	-0.707	-0.215
-681.251	-43.081	0.615	0.314
-680.237	-73.520	-0.208	0.077
-679.222	-63.700	-0.430	0.178
-678.208	54.218	0.247	-0.240
-677.193	-200.000	0.001	0.159
-676.178	-45.600	-0.680	0.340
-675.164	-64.422	0.420	0.172
-674.149	672.972	-0.187	0.490
-673.135	-17.303	-0.798	-0.507
-672.120	800.000	0.072	0.210
-671.105	-25.479	0.168	0.100
-670.091	-200.000	-0.036	-0.637
-669.076	462.036	0.186	0.419
-668.062	-26.825	-0.294	-0.173
-667.047	-32.781	-0.473	-0.265
-666.032	-68.559	0.487	0.190
-665.018	-63.332	-0.291	-0.121
-664.003	52.499	-0.361	0.347
-662.989	-40.669	-0.296	0.155
-661.974	-184.925	-0.375	-0.006
-660.959	21.032	-0.167	0.137
-659.945	13.462	0.688	-0.538
-658.930	-82.511	-0.525	-0.172
-657.916	118.555	0.395	0.492
-656.901	-73.173	0.762	-0.281
-655.886	26.198	-0.501	0.421
-654.872	56.600	-0.451	0.442
-653.857	29.785	0.505	-0.433
-652.843	-98.888	-0.225	0.058
-651.828	128.263	-0.159	-0.204
-650.814	-29.539	0.700	-0.403
-649.799	-200.000	0.047	-0.279
-648.784	154.267	-0.281	-0.389
-647.770	517.186	0.089	0.209
-646.755	-25.578	-0.242	-0.144
-645.741	43.418	-0.260	0.239
-644.726	101.774	0.250	0.294
-643.711	210.766	-0.237	0.375
-642.697	106.383	-0.176	-0.211
-641.682	-67.171	0.743	0.295
-640.668	-60.805	-0.523	0.223
-639.653	-62.614	-0.659	-0.275
-638.638	-56.768	-0.294	-0.131
-637.624	800.000	-0.194	-0.673
-636.609	46.295	0.573	-0.535
-635.595	24.331	0.335	-0.279
-634.580	47.355	-0.184	0.172
-633.565	-200.000	0.001	-0.051
-632.551	-27.065	-0.316	0.186
-631.536	-26.194	0.442	0.261
-630.522	475.246	-0.342	-0.777
-629.507	230.431	0.100	0.165
-628.492	-8.104	-0.493	0.335
-627.478	-80.235	-0.426	0.144
-626.463	-123.376	0.342	0.055
-625.449	-156.529	-0.152	-0.010
-624.434	181.749	-0.117	0.173
-623.419	72.704	-0.054	-0.057
-622.405	-200.000	0.047	-0.316
-621.390	-191.300	0.273	0.003
-620.376	18.543	-0.242	0.194
-619.361	526.121	-0.162	0.383
-618.346	800.000	0.157	-0.613
-617.332	800.000	0.254	-0.805
-616.317	63.121	-0.324	0.327
-615.303	-100.717	-0.878	0.218
-614.288	-200.000	0.025	0.282
-613.273	121.524	-0.144	-0.181
-612.259	157.586	0.434	0.605
-611.244	-68.151	0.589	0.231
-610.230	-39.547	-0.780	-0.411
-609.215	252.064	-0.544	0.933
-608.201	156.747	0.573	0.796
-607.186	800.000	-0.225	0.876
-606.171	309.616	0.106	-0.200
-605.157	-99.184	-0.283	0.072
-604.142	166.537	-0.167	0.238
-603.128	-115.699	1.193	0.225
-602.113	399.063	0.129	-0.272
-601.098	-49.153	0.636	-0.306
-600.084	101.194	-0.402	-0.471
-599.069	-200.000	-0.038	0.264
-598.055	-158.125	0.446	0.026
-597.040	14.840	1.261	-0.992
-596.025	78.315	-0.347	0.372
-595.011	-200.000	-0.042	0.363
-593.996	231.858	0.463	0.763
-592.982	-200.000	0.090	0.471
-591.967	-66.365	-0.450	-0.180
-590.952	-54.260	-0.243	-0.111
-589.938	-116.767	0.735	-0.136
-588.923	-121.373	0.500	-0.084
-587.909	-98.819	0.738	-0.189
-586.894	122.584	-0.038	0.048
-585.879	732.773	0.096	-0.259
-584.865	-80.413	0.743	-0.249
-583.850	-124.888	-0.580	-0.090
-582.836	-32.250	-0.207	0.116
-581.821	-86.359	0.154	-0.048
-580.806	-16.452	0.556	0.355
-579.792	154.737	0.305	-0.421
-578.777	800.000	0.130	-0.440
-577.763	-57.815	0.749	-0.329
-576.748	76.674	-0.324	0.345
-575.733	-75.216	0.459	0.165
-574.719	-200.000	0.121	0.652
-573.704	-200.000	0.076	0.407
-572.690	77.636	0.289	-0.309
-571.675	-45.231	0.703	0.351
-570.661	-180.884	0.437	-0.009
-569.646	-200.000	-0.113	-0.644
-568.631	679.305	0.184	-0.480
-567.617	-200.000	-0.016	-0.266
-566.602	101.562	-0.243	0.284
-565.588	-14.847	-0.390	-0.251
-564.573	-16.180	0.452	-0.288
-563.558	-89.942	0.664	0.195
-562.544	800.000	0.195	-0.566
-561.529	-181.423	0.075	-0.001
-560.515	-200.000	-0.206	1.002
-559.500	572.249	0.107	0.261
-558.485	-200.000	-0.022	-0.490
-557.471	736.635	-0.190	-0.512
-556.456	-84.964	-0.452	-0.142
-555.442	-52.653	0.203	0.094
-554.427	-200.000	0.029	0.397
-553.412	-200.000	0.010	-0.589
-552.398	-97.512	-0.520	-0.136
-551.383	-200.000	-0.084	0.500
-550.369	800.000	-0.229	-0.655
-549.354	13.147	0.453	-0.352
-548.339	-200.000	-0.083	1.000
-547.325	-32.316	0.780	-0.437
-546.310	-82.974	0.601	-0.195
-545.296	-27.167	-0.354	-0.207
-544.281	-50.628	-0.946	-0.447
-543.266	17.678	-0.322	0.257
-542.252	800.000	-0.112	0.342
-541.237	62.961	0.251	-0.253
-540.223	-34.298	-0.782	-0.431
-539.208	60.156	-0.185	-0.184
-538.193	-200.000	-0.010	-0.282
-537.179	-97.583	0.091	0.024
-536.164	800.000	-0.228	-0.744
-535.150	55.476	0.584	0.567
-534.135	800.000	-0.092	-0.301
-533.121	-81.395	0.300	0.099
-532.106	-195.960	-0.630	0.004
-531.091	16.559	-0.339	-0.269
-530.077	-65.058	-0.766	0.310
-529.062	13.672	-0.095	-0.074
-528.048	-60.086	0.211	-0.090
-527.033	188.222	-0.162	-0.243
-526.018	-65.727	-0.889	-0.357
-525.004	-200.000	-0.002	0.052
-523.989	591.636	0.173	-0.429
-522.975	-200.000	0.180	-0.857
-521.960	-87.804	0.433	0.131
-520.945	250.316	-0.082	0.139
-519.931	800.000	-0.365	-1.119
-518.916	-200.000	0.151	-0.760
-517.902	-125.828	0.267	-0.040
-516.887	-30.049	0.465	0.265
-515.872	-120.785	-0.344	-0.058
-514.858	800.000	-0.302	-1.013
-513.843	8.916	-0.698	-0.528
-512.829	90.267	-0.321	0.360
-511.814	61.794	0.568	-0.567
-510.799	223.403	-0.224	-0.362
-509.785	410.353	-0.252	-0.536
-508.770	10.694	-0.202	0.154
-507.756	-200.000	0.211	-1.311
-506.741	-167.987	0.240	0.009
-505.726	-92.297	-0.387	0.109
-504.712	147.634	0.256	-0.345
-503.697	-29.210	-0.613	0.352
-502.683	-22.800	0.454	-0.275
-501.668	-3.376	0.746	-0.521
-500.653	276.302	-0.403	-0.717
-499.639	-43.824	-0.259	0.131
-498.624	703.031	0.205	0.542
-497.610	250.835	-0.198	0.338
-496.595	-147.051	-0.448	-0.038
-495.581	-100.363	0.180	0.045
-494.566	32.089	-0.268	-0.231
-493.551	800.000	0.132	0.501
-492.537	-34.150	-0.820	-0.451
-491.522	-122.577	0.195	0.032
-490.508	220.264	0.172	0.276
-489.493	800.000	-0.240	-0.888
-488.478	55.314	-0.273	0.264
-487.464	800.000	0.096	-0.371
-486.449	-200.000	0.100	0.670
-485.435	88.477	0.628	-0.699
-484.420	800.000	-0.221	-0.696
-483.405	81.601	0.127	-0.137
-482.391	-200.000	-0.132	0.668
-481.376	533.083	0.107	0.255
-480.362	257.797	-0.201	0.347
-479.347	-160.272	-0.224	-0.012
-478.332	-37.272	-0.443	0.237
-477.318	-200.000	0.197	1.221
-476.303	-200.000	-0.055	0.624
-475.289	115.393	-0.231	0.283
-474.274	-119.955	1.098	-0.189
-473.259	14.574	-0.545	0.426
-472.245	124.913	0.070	0.088
-471.230	197.839	-0.142	-0.218
-470.216	-73.120	-0.292	0.107
-469.201	-66.599	-0.735	-0.292
-468.186	-25.091	-0.283	0.168
-467.172	-68.261	0.472	-0.184
-466.157	800.000	-0.099	-0.283
-465.143	-200.000	0.053	-0.624
-464.128	-22.733	0.088	0.053
-463.113	28.775	-0.376	-0.318
-462.099	-200.000	-0.096	-0.598
-461.084	301.762	0.507	0.937
-460.070	-110.482	-0.132	-0.027
-459.055	800.000	-0.237	-0.856
-458.040	681.087	0.267	-0.696
-457.026	-200.000	-0.567	-0.001
-456.011	-114.945	-0.828	-0.158
-454.997	-8.674	0.244	-0.164
-453.982	-28.100	0.411	-0.238
-452.968	800.000	0.211	0.584
-451.953	-200.000	-0.042	-1.122
-450.938	-200.000	0.012	0.143
-449.924	-200.000	0.128	0.787
-448.909	-70.249	0.317	0.120
-447.895	499.698	0.185	0.427
-446.880	-200.000	-0.111	0.552
-445.865	-3.720	-0.504	-0.350
-444.851	337.255	0.058	0.113
-443.836	137.003	-0.158	0.206
-442.822	-200.000	-0.011	-0.727
-441.807	55.488	-0.478	0.463
-440.792	76.274	-0.204	-0.216
-439.778	17.528	0.769	-0.611
-438.763	-57.912	0.324	-0.141
-437.749	-200.000	-0.079	0.407
-436.734	-41.177	0.536	-0.276
-435.719	-78.423	-0.394	0.135
-434.705	219.068	0.232	0.371
-433.690	240.370	-0.109	-0.182
-432.676	-179.199	-1.093	-0.024
-431.661	140.629	-0.330	0.436
-430.646	65.925	0.415	-0.420
-429.632	89.251	-0.163	0.182
-428.617	-200.000	-0.028	-0.239
-427.603	-155.394	0.925	0.060
-426.588	800.000	0.193	0.821
-425.573	-200.000	-0.171	0.775
-424.559	-200.000	0.031	-0.432
-423.544	-155.442	-0.643	-0.042
-422.530	-32.465	-0.423	-0.235
-421.515	-157.673	1.054	-0.063
-420.500	800.000	0.149	0.450
-419.486	-200.000	-0.023	0.775
-418.471	198.065	-0.055	-0.084
-417.457	800.000	0.348	1.022
-416.442	110.121	0.559	0.670
-415.428	-84.081	0.377	0.120
-414.413	-105.331	-1.305	0.297
-413.398	349.560	-0.398	-0.784
-412.384	220.432	0.211	-0.337
-411.369	131.361	-0.435	0.558
-410.355	-122.486	-0.210	-0.034
-409.340	-200.000	0.017	-1.094
-408.325	-200.000	-0.032	0.590
-407.311	345.956	0.286	-0.561
-406.296	139.719	0.218	0.287
-405.282	-70.728	0.277	-0.104
-404.267	54.086	-0.536	-0.514
-403.252	-62.840	0.554	0.229
-402.238	38.437	0.516	0.459
-401.223	198.644	0.339	0.518
-400.209	174.257	0.251	0.363
-399.194	-81.199	0.565	-0.186
-398.179	-149.243	0.122	0.010
-397.165	-72.576	-1.020	-0.376
-396.150	-31.280	-0.617	0.346
-395.136	-109.171	-0.829	-0.176
-394.121	-52.414	-0.349	-0.161
-393.106	737.785	0.227	-0.608
-392.092	-200.000	0.019	-0.427
-391.077	10.493	-0.294	0.223
-390.063	-96.244	0.703	-0.186
-389.048	-200.000	-0.031	0.148
-388.033	-89.380	-0.437	-0.128
-387.019	43.667	-0.737	0.672
-386.004	800.000	-0.347	-0.971
-384.990	26.130	-0.234	0.195
-383.975	-200.000	0.020	0.121
-382.960	235.307	0.268	-0.441
-381.946	-119.409	-0.124	0.021
-380.931	-56.601	0.663	0.293
-379.917	-57.504	0.463	0.203
-378.902	-133.874	-0.945	-0.117
-377.888	800.000	0.150	0.538
-376.873	93.734	0.313	-0.354
-375.858	283.091	-0.652	-1.168
-374.844	46.634	1.004	-0.929
-373.829	582.733	0.101	-0.246
-372.815	-27.084	-0.177	-0.103
-371.800	674.228	0.318	0.823
-370.785	715.496	-0.029	-0.077
-369.771	-27.140	0.823	-0.478
-368.756	129.048	-0.354	0.451
-367.742	-200.000	-0.024	-0.359
-366.727	-122.301	-0.222	-0.036
-365.712	-200.000	0.032	-0.357
-364.698	7.428	0.192	-0.143
-363.683	-151.886	-0.538	-0.039
-362.669	-192.414	-0.325	-0.003
-361.654	-200.000	0.041	-0.430
-360.639	697.296	-0.051	-0.134
-359.625	658.775	0.218	0.560
-358.610	-200.000	-0.029	-0.198
-357.596	-143.819	0.553	-0.052
-356.581	70.436	0.674	0.695
-355.566	-117.238	-0.552	-0.100
-354.552	196.206	-0.289	0.438
-353.537	387.289	0.120	0.248
-352.523	-200.000	-0.039	-0.800
-351.508	-98.088	-0.217	-0.056
-350.493	-81.841	-0.407	-0.133
-349.479	197.871	0.751	1.143
-348.464	-78.471	-0.459	0.156
-347.450	558.205	0.309	0.742
-346.435	-42.066	-1.176	0.600
-345.420	-200.000	-0.097	0.971
-344.406	-200.000	-0.175	0.799
-343.391	15.008	0.766	-0.597
-342.377	-200.000	-0.003	-0.432
-341.362	608.521	0.199	0.496
-340.348	130.023	-0.268	-0.341
-339.333	-43.227	-0.376	0.189
-338.318	-152.484	0.803	0.057
-337.304	305.038	0.514	-0.951
-336.289	45.825	-0.180	0.166
-335.275	56.169	0.451	0.436
-334.260	-4.522	-0.428	0.294
-333.245	-108.141	-0.086	-0.018
-332.231	22.074	0.503	-0.409
-331.216	800.000	0.219	0.730
-330.202	-101.332	0.776	-0.189
-329.187	-200.000	-0.003	-0.187
-328.172	191.572	-0.358	-0.536
-327.158	103.234	-0.570	0.665
-326.143	-200.000	0.021	0.175
-325.129	-25.095	0.635	-0.374
-324.114	-74.529	-0.382	0.137
-323.099	200.486	0.407	-0.622
-322.085	297.444	0.075	0.137
-321.070	-200.000	-0.005	0.923
-320.056	36.613	-0.137	0.120
-319.041	-200.000	0.073	0.903
-318.026	-52.997	0.872	0.399
-317.012	444.780	-0.322	-0.703
-315.997	-103.471	0.762	-0.178
-314.983	83.708	0.239	0.260
-313.968	443.327	0.237	0.516
-312.953	800.000	0.197	-0.579
-311.939	-34.011	0.398	-0.218
-310.924	-138.285	0.753	0.083
-309.910	-200.000	0.094	-0.445
-308.895	319.477	0.155	0.293
-307.880	-200.000	0.167	0.977
-306.866	-200.000	0.077	0.428
-305.851	-79.341	0.189	-0.064
-304.837	800.000	0.148	0.590
-303.822	5.928	-0.408	0.300
-302.807	95.140	0.170	0.192
-301.793	17.246	-0.068	0.053
-300.778	-8.343	-0.410	0.274
-299.764	-41.928	0.141	-0.072
-298.749	-93.687	0.936	0.257
-297.735	-81.229	-0.983	0.323
-296.720	-92.383	-0.600	-0.168
-295.705	-95.054	0.252	-0.068
-294.691	-42.560	-0.311	0.158
-293.676	800.000	-0.178	-0.493
-292.662	-115.526	0.611	0.114
-291.647	366.832	0.461	-0.925
-290.632	-96.047	1.166	-0.308
-289.618	-37.836	-0.472	-0.249
-288.603	-32.446	-0.187	-0.103
-287.589	138.978	0.465	-0.607
-286.574	191.307	-0.381	0.570
-285.559	800.000	0.381	1.083
-284.545	-200.000	0.036	-0.380
-283.530	-200.000	-0.100	-0.622
-282.516	-117.803	-1.369	0.244
-281.501	-171.594	-1.072	0.035
-280.486	340.842	-0.114	0.222
-279.472	-114.333	-0.387	-0.074
-278.457	-151.151	0.179	0.013
-277.443	-86.698	0.801	0.244
-276.428	90.253	-0.579	-0.644
-275.413	588.604	-0.243	0.594
-274.399	-20.000	0.255	-0.157
-273.384	17.143	0.766	0.603
-272.370	-48.210	-0.546	0.262
-271.355	-200.000	-0.027	-0.530
-270.340	-78.599	0.117	0.040
-269.326	-200.000	0.088	0.383
-268.311	183.228	-0.115	0.168
-267.297	-110.461	-0.145	0.030
-266.282	242.265	-0.469	-0.779
-265.267	800.000	0.073	0.287
-264.253	-200.000	-0.196	1.249
-263.238	91.538	0.476	0.531
-262.224	-173.594	0.799	-0.024
-261.209	-161.699	-0.651	0.033
-260.195	-200.000	-0.169	-0.740
-259.180	-111.848	-0.441	-0.088
-258.165	104.327	0.534	-0.624
-257.151	-144.117	-0.264	0.025
-256.136	5.295	-0.229	-0.168
-255.122	-2.178	0.739	0.515
-254.107	-200.000	-0.038	1.164
-253.092	9.336	-0.690	-0.518
-252.078	-32.966	-0.552	-0.304
-251.063	-117.107	0.517	-0.093
-250.049	-118.988	0.209	-0.036
-249.034	-150.237	0.639	0.049
-248.019	-3.012	0.410	0.284
-247.005	800.000	-0.185	-0.515
-245.990	-200.000	-0.041	-0.536
-244.976	-61.148	-0.449	-0.188
-243.961	-87.151	0.636	-0.192
-242.946	393.405	-0.171	0.353
-241.932	-200.000	0.082	0.372
-240.917	-181.065	-0.351	0.007
-239.903	232.854	-0.136	0.221
-238.888	22.679	0.269	-0.218
-237.873	25.841	-0.586	-0.485
-236.859	182.452	0.452	0.661
-235.844	-72.926	0.090	-0.033
-234.830	-71.287	0.427	-0.159
-233.815	-200.000	0.047	-0.872
-232.800	-200.000	0.057	0.296
-231.786	-200.000	0.015	-0.540
-230.771	138.987	0.606	-0.790
-229.757	-14.780	0.323	0.205
-228.742	410.411	-0.170	-0.357
-227.727	329.004	0.273	-0.520
-226.713	-200.000	0.048	-0.521
-225.698	800.000	0.155	0.430
-224.684	-151.803	-0.414	0.030
-223.669	-23.797	0.292	-0.174
-222.655	70.942	-0.221	0.227
-221.640	-120.747	-0.340	0.057
-220.625	-200.000	0.095	0.543
-219.611	-98.319	0.709	0.180
-218.596	122.581	0.375	-0.464
-217.582	180.338	0.365	0.531
-216.567	-69.999	0.595	-0.225
-215.552	-200.000	-0.036	-0.485
-214.538	-48.150	-0.239	-0.114
-213.523	-200.000	0.049	-0.501
-212.509	800.000	-0.068	-0.191
-211.494	-200.000	-0.098	0.965
-210.479	-34.061	-0.836	0.455
-209.465	-151.686	0.379	-0.028
-208.450	144.534	-0.229	-0.303
-207.436	158.687	0.192	-0.263
-206.421	-55.542	0.487	0.216
-205.406	99.683	-0.343	0.394
-204.392	-107.104	-0.443	0.097
-203.377	-0.408	-0.152	0.107
-202.363	341.891	0.090	-0.174
-201.348	132.304	-0.436	-0.556
-200.333	800.000	-0.038	-0.132
-199.319	329.698	0.128	-0.244
-198.304	-200.000	-0.145	-0.781
-197.290	-104.466	-0.355	0.081
-196.275	-44.694	0.374	-0.185
-195.260	-151.932	-0.452	0.033
-194.246	91.454	0.608	0.676
-193.231	13.221	-0.282	0.217
-192.217	-169.173	-0.907	-0.033
-191.202	-163.710	-0.089	0.004
-190.187	3.875	0.351	-0.254
-189.173	42.336	-0.290	-0.261
-188.158	-7.560	-0.263	0.176
-187.144	-200.000	-0.110	0.615
-186.129	-200.000	-0.057	-0.556
-185.114	78.237	-0.280	0.296
-184.100	800.000	0.288	1.147
-183.085	-78.304	-0.836	-0.284
-182.071	65.949	0.141	-0.141
-181.056	-200.000	-0.149	0.907
-180.042	-52.911	0.736	-0.335
-179.027	-31.726	-1.489	0.827
-178.012	75.837	-0.311	0.325
-176.998	131.030	0.574	-0.729
-175.983	-57.931	-0.617	-0.267
-174.969	800.000	-0.234	-0.815
-173.954	4.060	-0.344	-0.249
-172.939	93.005	0.298	0.334
-171.925	-7.903	-0.504	0.336
-170.910	-14.667	0.281	-0.179
-169.896	-200.000	-0.061	-0.328
-168.881	40.912	0.216	-0.193
-167.866	226.824	-0.533	0.857
-166.852	-162.535	0.588	0.029
-165.837	-200.000	-0.040	0.289
-164.823	78.991	-0.741	-0.784
-163.808	16.849	1.086	0.850
-162.793	222.470	-0.782	1.245
-161.779	646.552	0.175	0.442
-160.764	-200.000	0.123	0.882
-159.750	-138.405	0.963	0.105
-158.735	800.000	-0.059	-0.243
-157.720	-163.238	-0.804	0.038
-156.706	-124.773	0.696	0.106
-155.691	260.477	0.396	0.677
-154.677	-50.667	-0.185	-0.086
-153.662	-4.180	-1.105	0.756
-152.647	57.665	0.246	-0.238
-151.633	-200.000	0.052	0.309
-150.618	0.271	-0.757	0.534
-149.604	-200.000	0.017	0.123
-148.589	131.674	0.458	-0.582
-147.574	-142.553	-0.321	-0.031
-146.560	-26.992	-0.511	0.295
-145.545	-200.000	-0.067	0.723
-144.531	-7.444	0.589	-0.394
-143.516	-75.601	0.750	0.263
-142.502	-200.000	-0.015	-0.469
-141.487	-45.794	-0.645	-0.315
-140.472	250.926	-0.112	0.188
-139.458	233.405	0.340	0.552
-138.443	-47.810	0.137	0.066
-137.429	654.828	-0.075	-0.190
-136.414	-200.000	0.054	0.648
-135.399	32.601	0.280	-0.239
-134.385	-77.654	0.597	-0.204
-133.370	31.017	-0.376	-0.318
-132.356	-134.664	0.546	0.066
-131.341	-86.921	0.345	-0.104
-130.326	-200.000	-0.067	-0.617
-129.312	800.000	-0.123	0.520
-128.297	-90.532	-0.228	-0.065
-127.283	303.986	-0.380	0.695
-126.268	-200.000	0.021	-0.259
-125.253	415.313	0.108	0.227
-124.239	-115.610	0.815	0.151
-123.224	34.806	0.264	-0.228
-122.210	-200.000	0.118	-1.343
-121.195	-127.049	-0.082	0.012
-120.180	544.170	0.066	-0.155
-119.166	-44.003	-0.750	-0.372
-118.151	207.150	-0.168	-0.258
-117.137	-96.702	-0.600	0.156
-116.122	-135.048	-0.641	0.076
-115.107	298.672	0.183	0.333
-114.093	49.843	0.779	0.725
-113.078	-161.304	-0.429	-0.022
-112.064	547.594	0.200	0.473
-111.049	-200.000	-0.003	-0.258
-110.034	-108.169	-0.605	0.129
-109.020	78.548	0.172	-0.182
-108.005	431.312	-0.164	0.351
-106.991	132.926	-0.137	0.174
-105.976	800.000	-0.366	-1.018
-104.962	-46.533	0.215	-0.104
-103.947	129.337	0.521	0.657
-102.932	-200.000	-0.027	0.133
-101.918	-200.000	0.061	-0.285
-100.903	53.420	0.457	-0.432
-99.889	341.723	-0.139	-0.267
-98.874	-128.851	-0.696	-0.097
-97.859	21.139	0.122	-0.097
-96.845	128.135	-0.714	0.896
-95.830	59.525	0.742	-0.722
-94.816	-200.000	-0.087	-0.479
-93.801	202.575	0.343	-0.522
-92.786	-50.741	0.711	-0.330
-91.772	165.619	-0.506	0.705
-90.757	-65.837	1.078	0.425
-89.743	17.526	-0.476	0.373
-88.728	115.058	0.343	-0.412
-87.713	618.736	-0.060	-0.150
-86.699	-34.261	0.292	0.158
-85.684	800.000	0.390	-1.116
-84.670	-44.855	-0.842	-0.414
-83.655	86.005	-0.304	-0.329
-82.640	-37.510	-0.308	-0.162
-81.626	242.019	0.317	-0.522
-80.611	-77.127	0.712	-0.245
-79.597	-71.245	-0.550	-0.203
-78.582	-155.274	-0.025	-0.002
-77.567	800.000	0.160	-0.437
-76.553	-200.000	0.071	-0.340
-75.538	240.666	0.512	0.841
-74.524	-166.919	0.519	0.021
-73.509	800.000	0.213	-0.601
-72.494	-200.000	-0.008	0.670
-71.480	800.000	0.277	-1.029
-70.465	-200.000	0.241	1.091
-69.451	-200.000	0.039	0.193
-68.436	-21.717	1.204	0.722
-67.422	-170.071	0.425	-0.015
-66.407	264.928	0.187	0.322
-65.392	-200.000	0.058	0.990
-64.378	-38.189	-0.328	-0.171
-63.363	800.000	-0.195	0.760
-62.349	-53.328	-0.283	0.128
-61.334	-200.000	-0.149	-1.124
-60.319	284.761	0.320	0.567
-59.305	190.352	-0.851	-1.259
-58.290	185.594	0.745	1.090
-57.276	-200.000	0.403	2.358
-56.261	-200.000	94.793	567.762
-55.246	641.860	1364.091	3421.892
-54.232	201.744	2529.406	3838.401
-53.217	117.924	2128.161	2581.399
-52.203	44.846	1596.332	1446.498
-51.188	36.739	1336.429	1162.506
-50.173	33.357	1296.232	1107.749
-49.159	56.320	1345.775	1287.413
-48.144	57.625	1361.940	1310.586
-47.130	36.903	1318.558	1147.750
-46.115	33.540	1301.861	1113.460
-45.100	33.146	1297.537	1107.407
-44.086	33.124	1294.859	1104.953
-43.071	33.147	1291.900	1102.516
-42.057	33.180	1289.925	1100.978
-41.042	33.080	1288.897	1099.475
-40.027	33.134	1286.932	1098.068
-39.013	33.378	1285.141	1097.915
-37.998	33.233	1283.107	1095.290
-36.984	33.234	1281.037	1093.485
-35.969	33.013	1280.736	1091.911
-34.954	33.089	1278.380	1090.294
-33.940	33.196	1276.689	1089.425
-32.925	33.009	1276.725	1088.334
-31.911	33.447	1273.854	1088.362
-30.896	33.058	1273.662	1085.923
-29.881	33.060	1271.588	1084.123
-28.867	33.241	1269.973	1083.741
-27.852	33.246	1269.204	1083.067
-26.838	33.180	1267.232	1080.962
-25.823	33.025	1266.336	1079.275
-24.809	33.142	1264.163	1078.042
-23.794	33.205	1263.416	1077.723
-22.779	33.361	1261.719	1077.122
-21.765	33.128	1261.308	1075.404
-20.750	33.253	1260.005	1074.962
-19.736	33.165	1257.751	1072.494
-18.721	33.105	1256.475	1071.021
-17.706	32.977	1255.875	1069.743
-16.692	32.988	1254.711	1068.771
-15.677	33.013	1254.274	1068.498
-14.663	32.891	1252.598	1066.342
-13.648	32.967	1252.085	1066.292
-12.633	32.974	1250.657	1065.069
-11.619	33.224	1249.553	1065.495
-10.604	32.973	1249.482	1063.980
-9.590	33.120	1248.495	1063.927
-8.575	33.053	1247.117	1062.332
-7.560	33.214	1246.114	1062.342
-6.546	33.255	1244.363	1061.036
-5.531	33.072	1244.066	1059.715
-4.517	33.050	1244.359	1059.801
-3.502	33.172	1243.232	1059.479
-2.487	33.123	1241.332	1057.546
-1.473	32.913	1237.714	1053.250
-0.458	31.431	1224.459	1033.740
0.556	28.685	1204.362	993.557
1.571	24.504	1211.413	976.476
2.586	23.728	1225.674	983.584
3.600	23.142	1215.223	971.893
4.615	17.347	1143.051	884.058
5.629	7.607	1067.735	778.225
6.644	3.534	1045.937	742.689
7.659	2.895	1044.850	738.781
8.673	2.599	1043.318	736.212
9.688	2.696	1041.591	735.390
10.702	3.268	1039.692	736.722
11.717	9.209	1049.127	771.955
12.731	18.844	1062.545	828.437
13.746	24.137	1067.704	857.953
14.761	24.996	1069.108	863.149
15.775	24.753	1068.772	861.629
16.790	24.673	1066.981	859.725
17.804	24.593	1067.638	859.791
18.819	24.451	1067.978	859.304
19.834	24.941	1066.686	860.548
20.848	25.032	1065.976	860.333
21.863	24.644	1065.322	857.868
22.877	24.794	1064.593	857.923
23.892	24.928	1062.553	856.847
24.907	24.725	1063.504	856.567
25.921	24.709	1062.276	855.424
26.936	24.591	1060.428	853.296
27.950	24.429	1059.700	851.864
28.965	24.372	1058.863	850.842
29.980	25.065	1055.578	851.418
30.994	24.834	1055.711	850.355
32.009	24.525	1055.276	848.461
33.023	24.720	1053.396	847.798
34.038	24.514	1052.431	845.972
35.053	24.755	1052.481	847.079
36.067	24.572	1051.933	845.697
37.082	24.787	1051.266	846.104
38.096	24.819	1049.707	844.922
39.111	24.688	1048.956	843.627
40.126	24.650	1048.372	842.903
41.140	24.513	1046.498	840.679
42.155	24.206	1045.165	838.088
43.169	24.431	1044.545	838.574
44.184	24.639	1043.179	838.377
45.199	24.327	1042.145	836.011
46.213	24.425	1042.037	836.311
47.228	24.933	1041.560	838.233
48.242	24.907	1039.881	836.685
49.257	24.900	1039.711	836.442
50.271	24.762	1038.550	834.791
51.286	24.837	1038.248	834.821
52.301	24.780	1036.927	833.421
53.315	24.817	1036.105	832.860
54.330	24.850	1035.708	832.618
55.344	24.955	1034.201	831.824
56.359	24.741	1034.220	830.769
57.374	24.884	1032.503	829.982
58.388	24.674	1032.523	828.947
59.403	24.554	1032.336	828.168
60.417	24.545	1030.219	826.356
61.432	24.880	1030.042	827.688
62.447	24.581	1028.780	825.221
63.461	24.443	1029.710	825.259
64.476	24.725	1027.057	824.357
65.490	24.603	1027.185	823.827
66.505	24.724	1025.977	823.341
67.520	24.739	1025.107	822.637
68.534	24.424	1024.138	820.340
69.549	24.507	1023.545	820.176
70.563	24.232	1022.504	818.005
71.578	23.984	1022.068	816.445
72.593	23.963	1021.240	815.617
73.607	23.909	1022.242	816.099
74.622	24.069	1021.095	815.842
75.636	24.467	1020.698	817.275
76.651	24.398	1019.103	815.609
77.666	24.224	1017.802	813.705
78.680	24.026	1018.270	813.102
79.695	23.962	1018.417	812.853
80.709	24.705	1016.813	814.888
81.724	24.588	1015.411	813.161
82.739	24.220	1015.029	811.108
83.753	24.661	1014.439	812.572
84.768	24.883	1014.700	813.715
85.782	24.935	1013.178	812.660
86.797	25.194	1011.309	812.262
87.812	24.811	1011.337	810.478
88.826	25.028	1010.477	810.698
89.841	25.179	1008.279	809.545
90.855	24.939	1008.457	808.532
91.870	24.984	1008.581	808.766
92.884	25.104	1005.727	806.948
93.899	24.883	1005.932	806.045
94.914	25.363	1004.672	807.121
95.928	24.817	1005.395	805.173
96.943	24.694	1003.360	802.919
97.957	24.753	1002.903	802.750
98.972	24.776	1000.193	800.612
99.987	25.043	999.927	801.520
101.001	24.833	999.986	800.558
102.016	24.792	999.634	800.022
103.030	25.078	997.893	799.837
104.045	24.818	997.720	798.464
105.060	25.027	996.410	798.278
106.074	24.705	995.486	796.035
107.089	25.067	994.381	796.691
108.103	24.789	993.391	794.591
109.118	25.010	992.541	794.823
110.133	24.416	992.504	792.087
111.147	24.409	990.970	790.758
112.162	24.244	989.554	788.832
113.176	24.743	988.845	790.400
114.191	24.438	989.017	789.122
115.206	24.330	986.554	786.607
116.220	24.515	986.348	787.192
117.235	24.618	985.551	786.939
118.249	24.391	985.635	785.935
119.264	24.233	984.850	784.546
120.279	24.110	983.691	783.014
121.293	24.410	982.784	783.538
122.308	24.283	982.047	782.324
123.322	24.252	980.238	780.676
124.337	24.306	979.773	780.474
125.352	23.852	978.395	777.324
126.366	23.938	977.356	776.806
127.381	24.392	977.050	778.474
128.395	24.622	976.066	778.625
129.410	24.796	976.593	779.734
130.424	24.843	973.769	777.615
131.439	24.639	974.367	777.135
132.454	24.734	973.300	776.629
133.468	24.673	973.183	776.204
134.483	24.952	971.837	776.270
135.497	24.963	970.430	775.124
136.512	24.924	969.689	774.297
137.527	25.027	969.988	774.911
138.541	25.213	968.681	774.600
139.556	25.064	967.562	772.995
140.570	25.294	967.340	773.742
141.585	25.073	966.432	771.993
142.600	24.803	966.214	770.589
143.614	25.558	963.488	771.591
144.629	25.324	964.365	771.217
145.643	25.207	962.654	769.280
146.658	25.057	961.218	767.419
147.673	25.030	960.508	766.671
148.687	24.692	959.443	764.308
149.702	24.632	959.035	763.661
150.716	25.025	957.491	764.038
151.731	24.822	957.841	763.383
152.746	25.089	956.588	763.457
153.760	25.091	955.718	762.703
154.775	25.507	954.825	763.692
155.789	25.385	954.321	762.701
156.804	25.079	953.671	760.816
157.819	24.929	953.820	760.230
158.833	25.363	951.003	759.756
159.848	25.369	951.109	759.798
160.862	24.963	950.646	757.645
161.877	25.366	949.415	758.298
162.892	25.185	947.392	755.851
163.906	25.211	947.012	755.592
164.921	25.127	945.356	753.850
165.935	25.214	945.518	754.279
166.950	25.413	944.811	754.483
167.964	25.406	944.440	754.090
168.979	25.222	942.140	751.419
169.994	25.320	941.542	751.282
171.008	25.775	940.598	752.366
172.023	25.356	940.701	750.630
173.037	24.965	939.623	748.072
174.052	25.396	939.166	749.439
175.067	25.316	937.707	747.877
176.081	25.416	936.877	747.563
177.096	25.125	935.938	745.539
178.110	24.930	935.633	744.417
179.125	24.590	935.484	742.823
180.140	24.732	934.208	742.331
181.154	24.759	935.036	743.038
182.169	24.988	935.283	744.118
183.183	25.732	933.367	745.613
184.198	25.311	931.903	742.635
185.213	25.440	931.136	742.491
186.227	25.339	931.857	742.583
187.242	25.358	931.025	741.930
188.256	25.599	930.461	742.412
189.271	25.583	929.023	741.133
190.286	25.413	927.563	739.202
191.300	24.982	926.424	736.458
192.315	24.010	926.391	732.370
193.329	24.205	925.007	732.009
194.344	24.425	926.247	733.833
195.359	25.585	924.633	737.246
196.373	25.308	924.542	735.973
197.388	25.081	925.424	735.679
198.402	25.495	924.332	736.442
199.417	25.265	923.691	734.924
200.432	25.669	922.832	735.830
201.446	25.552	921.647	734.343
202.461	25.454	920.506	732.969
203.475	24.627	920.648	729.639
204.490	24.093	919.159	726.216
205.504	24.762	918.855	728.641
206.519	25.160	918.955	730.277
207.534	25.363	917.206	729.646
208.548	25.579	917.626	730.794
209.563	25.388	916.536	729.086
210.577	25.000	916.576	727.480
211.592	25.645	916.121	729.670
212.607	25.698	914.541	728.561
213.621	25.625	914.683	728.315
214.636	25.612	914.363	727.941
215.650	25.560	912.825	726.442
216.665	25.631	912.565	726.459
217.680	25.834	910.769	725.784
218.694	25.636	910.321	724.564
219.709	25.160	910.214	722.496
220.723	25.275	909.386	722.238
221.738	25.530	909.023	722.914
222.753	25.134	908.229	720.625
223.767	25.620	908.140	722.444
224.782	25.395	907.874	721.263
225.796	25.530	907.251	721.249
226.811	25.252	905.883	718.985
227.826	24.475	905.368	715.398
228.840	24.848	904.231	715.928
229.855	25.060	903.513	716.146
230.869	24.843	902.544	714.445
231.884	25.119	901.872	714.953
232.899	25.006	902.439	714.887
233.913	25.201	902.214	715.424
234.928	25.020	900.057	712.929
235.942	25.039	900.454	713.256
236.957	24.817	899.644	711.670
237.972	24.759	898.746	710.664
238.986	25.247	898.259	712.156
240.001	25.079	897.664	710.954
241.015	25.252	897.549	711.486
242.030	25.122	897.279	710.692
243.045	25.039	897.540	710.508
244.059	24.925	897.266	709.778
245.074	25.074	895.995	709.298
246.088	25.131	894.816	708.528
247.103	25.576	894.383	709.878
248.117	25.901	894.167	710.927
249.132	26.165	894.221	711.947
250.147	26.234	892.841	711.057
251.161	25.851	893.625	710.111
252.176	26.110	892.678	710.316
253.190	26.317	891.194	709.884
254.205	26.487	890.737	710.124
255.220	26.048	890.840	708.422
256.234	26.264	888.876	707.641
257.249	26.330	888.758	707.744
258.263	26.033	888.778	706.536
259.278	25.875	888.007	705.239
260.293	26.271	886.784	705.755
261.307	25.917	887.332	704.742
262.322	25.613	885.640	702.151
263.336	25.716	884.579	701.648
264.351	25.297	882.820	698.561
265.366	25.271	883.121	698.638
266.380	25.788	882.948	700.451
267.395	25.757	882.762	700.119
268.409	26.002	881.777	700.226
269.424	26.184	881.504	700.654
270.439	26.012	881.310	699.772
271.453	26.113	880.158	699.185
272.468	25.985	880.076	698.564
273.482	26.277	878.061	698.031
274.497	25.875	878.197	696.523
275.512	26.029	877.164	696.238
276.526	25.673	878.155	695.587
277.541	26.143	876.934	696.371
278.555	25.900	875.776	694.453
279.570	26.116	875.859	695.291
280.585	26.202	874.577	694.542
281.599	26.034	874.137	693.485
282.614	25.727	872.942	691.297
283.628	25.287	872.513	689.209
284.643	25.662	871.855	690.066
285.657	25.842	870.675	689.758
286.672	25.477	870.568	688.218
287.687	26.029	870.230	690.000
288.701	25.795	869.710	688.633
289.716	25.594	868.770	687.059
290.730	25.660	868.972	687.409
291.745	25.564	868.016	686.228
292.760	25.558	867.582	685.801
293.774	26.202	868.203	688.686
294.789	26.383	866.384	687.874
295.803	26.325	866.338	687.554
296.818	26.433	864.942	686.794
297.833	26.218	863.866	685.065
298.847	25.599	865.050	683.593
299.862	25.906	864.337	684.132
300.876	26.368	863.127	684.865
301.891	26.586	863.130	685.631
302.906	26.467	862.312	684.471
303.920	26.555	860.822	683.562
304.935	26.509	860.861	683.357
305.949	26.250	861.203	682.590
306.964	26.137	859.707	680.917
307.979	26.391	859.082	681.318
308.993	26.417	858.919	681.228
310.008	26.369	859.523	681.468
311.022	26.034	858.338	679.206
312.037	26.133	858.013	679.262
313.052	25.845	855.976	676.505
314.066	25.199	855.640	673.756
315.081	25.612	854.725	674.527
316.095	26.037	854.154	675.608
317.110	26.096	853.903	675.568
318.125	25.532	853.174	672.823
319.139	25.257	852.207	670.972
320.154	25.118	851.438	669.789
321.168	25.825	850.978	672.006
322.183	25.812	850.982	671.899
323.197	25.758	851.249	671.852
324.212	26.237	850.292	672.821
325.227	25.673	850.122	670.528
326.241	25.798	849.089	670.118
327.256	25.838	848.822	669.995
328.270	25.708	847.823	668.666
329.285	25.396	847.205	666.959
330.300	25.272	847.336	666.545
331.314	25.683	847.126	667.845
332.329	26.419	845.222	669.009
333.343	26.261	845.891	668.895
334.358	26.247	845.359	668.361
335.373	26.367	844.025	667.690
336.387	26.086	845.123	667.462
337.402	26.653	844.816	669.257
338.416	26.419	844.451	668.045
339.431	26.568	844.301	668.417
340.446	26.677	844.108	668.606
341.460	26.633	843.295	667.743
342.475	26.561	842.486	666.776
343.489	26.596	843.078	667.315
344.504	26.370	843.173	666.498
345.519	26.854	841.639	667.005
346.533	26.756	840.865	665.972
347.548	26.448	840.947	664.848
348.562	26.654	839.677	664.540
349.577	26.365	839.470	663.257
350.592	26.482	838.559	662.908
351.606	26.465	837.201	661.715
352.621	26.195	836.921	660.448
353.635	26.455	835.643	660.330
354.650	25.679	836.080	657.782
355.665	25.867	833.797	656.612
356.679	26.464	833.998	658.888
357.694	26.208	833.386	657.415
358.708	26.312	832.392	656.950
359.723	26.354	831.848	656.615
360.738	26.051	831.700	655.338
361.752	26.270	830.347	655.008
362.767	26.629	830.291	656.209
363.781	26.429	831.351	656.262
364.796	26.715	830.696	656.725
365.810	26.665	829.345	655.418
366.825	26.785	829.075	655.579
367.840	26.676	828.980	655.053
368.854	26.488	827.403	653.068
369.869	26.576	826.395	652.533
370.883	26.525	826.431	652.320
371.898	26.540	826.991	652.757
372.913	26.629	826.318	652.491
373.927	26.597	825.413	651.603
374.942	26.746	824.795	651.592
375.956	26.815	824.492	651.544
376.971	26.476	824.532	650.300
377.986	26.711	824.103	650.746
379.000	26.861	824.081	651.210
380.015	26.628	823.475	649.839
381.029	26.809	822.450	649.620
382.044	27.139	822.207	650.553
383.059	27.080	821.479	649.707
384.073	27.252	818.891	648.218
385.088	26.730	819.836	647.046
386.102	26.444	818.782	645.136
387.117	26.459	818.192	644.666
388.132	26.025	818.209	643.076
389.146	26.092	817.415	642.634
390.161	26.661	816.953	644.238
391.175	26.676	817.171	644.405
392.190	27.007	815.248	644.008
393.205	25.954	813.716	639.012
394.219	25.427	811.843	635.620
395.234	24.939	813.222	634.913
396.248	25.788	813.526	638.103
397.263	26.294	813.537	639.849
398.278	26.015	813.324	638.636
399.292	26.024	812.259	637.775
400.307	25.567	812.200	636.055
401.321	26.066	811.868	637.506
402.336	26.457	811.457	638.504
403.350	26.653	810.740	638.577
404.365	27.174	809.349	639.255
405.380	27.117	809.561	639.168
406.394	27.360	809.447	639.874
407.409	26.854	809.248	637.882
408.423	26.991	809.845	638.776
409.438	27.089	808.885	638.307
410.453	26.882	808.173	636.962
411.467	26.964	807.032	636.295
412.482	27.086	806.907	636.569
413.496	27.061	806.608	636.189
414.511	27.132	805.732	635.689
415.526	27.094	806.062	635.761
416.540	26.828	805.741	634.521
417.555	26.779	805.225	633.887
418.569	26.883	805.010	634.025
419.584	26.738	804.973	633.432
420.599	27.322	803.377	634.159
421.613	159.592	1370.974	1792.634
422.628	138.609	1453.672	1792.720
