DTS Sentinel unit serial number:	SN413079Multiplexer serial number:	ORYXHardware model number:	OX4-SRSoftware version number:	ORYX F/W v4.00 Oryx Data Collector v3.7.2.0data status	okinstallation	princeton_trtdifferential loss correction	single-endedforward channel	channel 1reverse channel	N/Adate	2019/09/19time	08:06:35forward acquisition time	60.00reverse acquisition time	0.00gamma	496.2192k internal	0.2342k external	0.2342temperature offset calibration	1.0006default loss term (dB/km)	0.3790temperature slope calibration	1.0000multiplexer offset coefficient	1.0000multiplexer slope coefficient	1.0000fibre end	0.00T internal ref (°C)	20.00T ext. ref 1 (°C)	0.56T ext. ref 2 (°C)	15.66length (m)	temperature (°C)	Stokes	anti-Stokes-747.200	-200.000	-0.028	-0.207
-746.185	47.472	-0.216	0.202
-745.171	-157.471	0.228	0.014
-744.156	442.087	-0.080	0.174
-743.142	460.681	-0.081	0.180
-742.127	-29.350	-0.141	0.081
-741.112	432.160	0.089	-0.194
-740.098	-102.384	-0.460	-0.111
-739.083	196.218	0.185	-0.282
-738.069	-200.000	0.020	-0.378
-737.054	244.280	0.057	0.095
-736.039	800.000	0.095	0.275
-735.025	-200.000	-0.004	-0.145
-734.010	-200.000	-0.033	-0.331
-732.996	-17.125	0.083	-0.052
-731.981	185.490	-0.059	0.088
-730.966	800.000	-0.061	-0.225
-729.952	-93.853	0.104	0.029
-728.937	-92.359	-0.155	0.044
-727.923	403.161	-0.051	-0.107
-726.908	87.497	-0.061	0.068
-725.894	-200.000	0.034	0.216
-724.879	-7.242	-0.244	0.166
-723.864	-200.000	-0.011	0.104
-722.850	9.982	0.022	-0.017
-721.835	800.000	-0.032	0.105
-720.821	-90.780	-0.465	0.134
-719.806	-200.000	-0.002	-0.039
-718.791	233.836	-0.116	0.191
-717.777	-166.463	-0.266	0.011
-716.762	-163.412	-0.104	0.005
-715.748	800.000	0.071	-0.223
-714.733	-119.515	0.167	0.029
-713.718	41.192	-0.295	0.267
-712.704	159.403	0.158	0.219
-711.689	66.937	0.116	-0.119
-710.675	200.017	0.144	0.221
-709.660	-111.506	-0.247	0.050
-708.645	-200.000	0.029	-0.169
-707.631	230.907	0.175	0.287
-706.616	394.108	0.127	-0.264
-705.602	800.000	0.085	0.256
-704.587	7.924	0.161	-0.120
-703.572	-53.168	0.170	-0.078
-702.558	427.789	0.109	0.234
-701.543	-57.372	0.154	-0.067
-700.529	768.092	0.041	0.111
-699.514	-137.813	-0.289	0.032
-698.499	-18.911	-0.401	-0.250
-697.485	800.000	-0.102	-0.434
-696.470	493.529	0.044	-0.101
-695.456	-58.735	-0.139	-0.060
-694.441	83.308	-0.006	0.006
-693.426	-171.590	-0.372	-0.012
-692.412	-29.491	-0.136	0.078
-691.397	655.271	-0.153	0.393
-690.383	-200.000	-0.024	-0.189
-689.368	-27.331	-0.367	0.214
-688.354	-0.276	0.076	-0.054
-687.339	401.720	-0.127	-0.267
-686.324	166.176	0.148	-0.209
-685.310	800.000	0.053	0.157
-684.295	302.031	0.130	0.239
-683.281	-67.530	-0.146	-0.057
-682.266	-200.000	0.054	0.265
-681.251	43.324	0.233	0.213
-680.237	17.522	-0.237	-0.188
-679.222	-35.682	-0.310	-0.168
-678.208	64.095	0.097	-0.098
-677.193	305.112	0.096	-0.178
-676.178	-75.464	0.036	0.013
-675.164	317.561	-0.020	0.039
-674.149	-200.000	0.004	-0.031
-673.135	-41.546	-0.240	-0.123
-672.120	-89.228	-0.106	-0.031
-671.105	-146.192	-0.282	-0.025
-670.091	-117.447	-0.124	-0.022
-669.076	422.315	-0.059	0.127
-668.062	-35.202	-0.362	-0.197
-667.047	25.954	-0.075	0.062
-666.032	538.825	-0.183	0.434
-665.018	11.972	0.102	-0.078
-664.003	-200.000	-0.084	-0.412
-662.989	226.894	0.024	0.039
-661.974	800.000	0.082	-0.252
-660.959	-130.687	-0.193	-0.026
-659.945	-200.000	0.051	0.278
-658.930	-37.268	-0.217	0.116
-657.916	-200.000	0.016	-0.208
-656.901	-200.000	-0.021	0.139
-655.886	254.171	-0.044	0.076
-654.872	-134.401	0.090	0.011
-653.857	141.214	-0.169	-0.223
-652.843	44.688	0.146	0.134
-651.828	-121.415	-0.320	-0.053
-650.814	-101.932	0.164	0.039
-649.799	327.378	0.006	0.011
-648.784	296.200	0.201	0.369
-647.770	-95.097	-0.204	0.055
-646.755	-200.000	0.017	-0.302
-645.741	800.000	-0.083	0.335
-644.726	-119.829	0.144	-0.025
-643.711	132.481	-0.093	0.120
-642.697	36.172	0.070	0.061
-641.682	93.574	0.012	-0.014
-640.668	-122.177	0.134	-0.022
-639.653	-72.292	0.321	-0.119
-638.638	-74.695	-0.115	0.041
-637.624	800.000	-0.064	0.188
-636.609	26.508	0.178	-0.149
-635.595	780.905	0.057	0.155
-634.580	321.461	-0.016	0.031
-633.565	47.431	-0.164	0.152
-632.551	3.537	0.266	-0.193
-631.536	-128.722	0.135	-0.019
-630.522	-8.802	0.113	-0.076
-629.507	76.818	-0.075	0.079
-628.492	220.791	0.163	-0.261
-627.478	-9.918	0.037	0.024
-626.463	-129.920	0.394	-0.054
-625.449	800.000	-0.024	0.076
-624.434	303.495	0.104	0.192
-623.419	-77.772	-0.395	0.136
-622.405	127.735	-0.192	0.243
-621.390	324.766	0.059	0.112
-620.376	370.416	-0.097	-0.196
-619.361	-159.361	0.070	-0.004
-618.346	27.887	-0.092	0.077
-617.332	-200.000	0.019	-0.274
-616.317	266.332	-0.182	0.316
-615.303	-96.705	-0.231	0.061
-614.288	-117.593	-0.277	0.050
-613.273	-87.289	0.230	-0.070
-612.259	16.585	-0.274	-0.216
-611.244	282.601	0.124	0.222
-610.230	384.884	-0.050	-0.104
-609.215	352.442	0.215	0.425
-608.201	-43.129	-0.151	0.076
-607.186	163.619	-0.218	-0.306
-606.171	752.788	-0.090	0.243
-605.157	177.944	-0.099	0.143
-604.142	-116.430	0.257	0.047
-603.128	-32.424	0.088	0.049
-602.113	-28.563	-0.156	-0.089
-601.098	-102.157	-0.141	0.034
-600.084	-200.000	-0.099	-0.616
-599.069	735.355	-0.052	-0.139
-598.055	62.164	-0.222	-0.220
-597.040	800.000	0.059	-0.225
-596.025	-65.307	-0.076	0.030
-595.011	-158.236	-0.070	0.004
-593.996	33.839	0.237	-0.206
-592.982	-200.000	-0.035	0.236
-591.967	58.660	0.258	-0.252
-590.952	44.473	0.186	-0.170
-589.938	81.241	0.257	0.276
-588.923	-200.000	0.052	-0.450
-587.909	280.407	-0.075	0.134
-586.894	422.984	-0.083	0.177
-585.879	209.898	0.133	0.208
-584.865	83.285	0.136	0.148
-583.850	-54.411	-0.149	0.067
-582.836	67.209	0.083	0.085
-581.821	800.000	0.028	-0.099
-580.806	94.742	-0.150	0.170
-579.792	-200.000	-0.003	0.121
-578.777	-157.501	-0.140	0.008
-577.763	-200.000	0.018	0.239
-576.748	-109.622	-0.208	-0.044
-575.733	-92.677	0.298	0.083
-574.719	7.964	-0.073	-0.055
-573.704	800.000	0.028	0.101
-572.690	182.427	0.152	0.222
-571.675	-111.139	-0.346	-0.071
-570.661	-200.000	0.046	-0.217
-569.646	692.931	-0.046	0.120
-568.631	29.622	0.249	0.211
-567.617	230.842	-0.102	0.167
-566.602	-200.000	0.014	-0.181
-565.588	-200.000	-0.035	-0.167
-564.573	-125.714	-0.263	0.040
-563.558	18.666	0.218	0.173
-562.544	12.343	0.034	0.026
-561.529	56.131	-0.152	0.147
-560.515	319.327	-0.165	-0.311
-559.500	140.921	0.171	0.224
-558.485	-89.890	-0.609	0.177
-557.471	800.000	0.024	0.069
-556.456	-69.091	-0.221	0.084
-555.442	287.006	-0.143	0.258
-554.427	-14.211	-0.393	-0.252
-553.412	-200.000	0.232	-0.001
-552.398	-97.113	-0.185	0.048
-551.383	-150.806	0.148	0.011
-550.369	247.836	-0.239	-0.401
-549.354	-40.446	0.110	0.057
-548.339	40.734	-0.176	0.157
-547.325	676.796	-0.039	0.102
-546.310	454.414	0.108	-0.238
-545.296	-117.359	-0.149	0.027
-544.281	28.282	-0.150	-0.126
-543.266	-11.329	-0.211	-0.138
-542.252	0.060	-0.298	-0.211
-541.237	-42.770	0.262	-0.133
-540.223	582.903	0.018	0.044
-539.208	80.513	-0.225	0.241
-538.193	-200.000	0.023	-0.278
-537.179	70.083	-0.343	-0.352
-536.164	-200.000	0.007	0.182
-535.150	-133.992	0.251	0.031
-534.135	-200.000	0.033	0.249
-533.121	123.418	-0.128	-0.159
-532.106	452.720	0.041	-0.090
-531.091	-200.000	-0.052	0.314
-530.077	79.001	-0.062	0.066
-529.062	-77.787	-0.100	0.034
-528.048	-148.376	0.397	-0.032
-527.033	-200.000	0.022	-0.111
-526.018	-141.419	-0.341	-0.034
-525.004	-10.133	-0.141	-0.093
-523.989	-200.000	-0.007	0.366
-522.975	14.740	-0.109	-0.085
-521.960	162.134	-0.130	-0.182
-520.945	-200.000	0.001	-0.055
-519.931	-200.000	-0.074	-0.392
-518.916	800.000	-0.076	-0.223
-517.902	719.874	0.223	0.588
-516.887	-135.285	-0.304	0.036
-515.872	76.140	-0.083	-0.087
-514.858	124.138	0.226	-0.282
-513.843	800.000	-0.041	0.134
-512.829	-145.818	-0.176	-0.016
-511.814	507.509	0.049	0.113
-510.799	-14.758	-0.074	-0.047
-509.785	-66.112	0.097	0.038
-508.770	-200.000	-0.041	-0.194
-507.756	-200.000	-0.019	0.213
-506.741	124.248	-0.071	0.089
-505.726	-109.077	0.143	-0.030
-504.712	301.375	-0.115	0.211
-503.697	379.452	-0.051	0.104
-502.683	-81.409	0.117	-0.038
-501.668	-64.586	0.188	0.076
-500.653	105.790	-0.137	-0.161
-499.639	133.171	-0.164	-0.210
-498.624	-200.000	-0.000	0.171
-497.610	-103.891	-0.222	-0.051
-496.595	-71.892	0.123	0.045
-495.581	-154.611	0.239	-0.016
-494.566	44.848	-0.253	-0.231
-493.551	800.000	-0.058	0.211
-492.537	-181.271	0.190	0.004
-491.522	-6.681	-0.148	0.100
-490.508	-87.382	-0.248	-0.074
-489.493	-166.416	0.187	-0.008
-488.478	-44.856	-0.207	-0.102
-487.464	204.758	-0.111	-0.171
-486.449	58.827	0.088	-0.086
-485.435	-200.000	0.030	-0.469
-484.420	336.980	-0.064	-0.123
-483.405	287.692	0.164	-0.295
-482.391	800.000	-0.053	-0.152
-481.376	-70.718	0.099	0.037
-480.362	-96.811	-0.085	-0.022
-479.347	369.975	-0.112	0.226
-478.332	551.396	0.057	0.135
-477.318	800.000	0.046	0.195
-476.303	-164.395	0.212	-0.010
-475.289	411.514	0.059	-0.124
-474.274	-52.653	0.146	0.067
-473.259	-112.448	0.085	-0.017
-472.245	-7.581	-0.252	-0.169
-471.230	-200.000	-0.029	-0.162
-470.216	-200.000	-0.016	0.175
-469.201	-200.000	0.031	-0.230
-468.186	58.187	0.350	0.340
-467.172	251.814	-0.008	-0.013
-466.157	-41.664	-0.086	-0.044
-465.143	-128.703	0.146	0.020
-464.128	436.742	-0.123	0.266
-463.113	5.359	0.203	-0.148
-462.099	102.911	-0.123	-0.142
-461.084	11.908	0.146	-0.111
-460.070	-58.948	0.295	0.126
-459.055	800.000	-0.058	0.249
-458.040	-157.863	0.122	0.007
-457.026	-93.980	-0.358	-0.098
-456.011	-79.692	-0.213	-0.071
-454.997	457.403	-0.093	0.206
-453.982	-13.883	-0.074	-0.048
-452.968	-8.533	0.259	0.172
-451.953	-200.000	-0.010	0.075
-450.938	-136.075	-0.262	-0.030
-449.924	-28.502	0.015	-0.008
-448.909	-200.000	0.063	-0.340
-447.895	-76.089	-0.043	-0.015
-446.880	-200.000	0.006	0.086
-445.865	-145.171	0.132	-0.012
-444.851	-58.195	-0.355	-0.153
-443.836	-200.000	-0.002	0.051
-442.822	-41.880	-0.107	-0.054
-441.807	-200.000	0.023	0.242
-440.792	-129.892	-0.243	-0.033
-439.778	-72.770	0.400	0.146
-438.763	80.785	0.133	-0.142
-437.749	-130.887	0.109	0.014
-436.734	75.336	0.179	0.187
-435.719	-45.070	-0.103	-0.051
-434.705	48.511	-0.138	0.128
-433.690	-200.000	0.009	-0.100
-432.676	-200.000	-0.019	-0.101
-431.661	-133.901	0.314	0.039
-430.646	-75.186	-0.240	0.085
-429.632	-200.000	-0.020	0.263
-428.617	-200.000	-0.173	-0.001
-427.603	14.441	-0.246	0.190
-426.588	-147.394	0.224	-0.019
-425.573	-50.642	0.246	-0.115
-424.559	-117.246	-0.170	-0.030
-423.544	-142.257	0.057	-0.006
-422.530	-89.584	-0.173	-0.050
-421.515	-161.241	0.239	-0.012
-420.500	-200.000	0.008	0.071
-419.486	-65.405	-0.066	-0.026
-418.471	-200.000	0.007	-0.102
-417.457	-123.243	-0.129	-0.020
-416.442	35.629	0.106	-0.092
-415.428	-200.000	-0.005	-0.115
-414.413	800.000	-0.032	0.097
-413.398	2.995	0.145	0.104
-412.384	-95.411	0.102	0.027
-411.369	367.082	0.070	-0.140
-410.355	-87.136	0.156	0.047
-409.340	203.739	-0.100	-0.153
-408.325	434.956	-0.036	-0.078
-407.311	42.100	0.045	-0.040
-406.296	288.742	0.121	-0.217
-405.282	-105.416	-0.219	0.049
-404.267	-200.000	-0.014	-0.159
-403.252	-7.635	-0.180	-0.120
-402.238	49.896	-0.262	0.244
-401.223	800.000	0.071	-0.210
-400.209	800.000	0.060	0.243
-399.194	-200.000	0.014	0.076
-398.179	-64.519	-0.069	-0.028
-397.165	800.000	-0.075	0.232
-396.150	366.801	0.142	0.283
-395.136	-131.506	0.327	-0.043
-394.121	800.000	-0.056	-0.188
-393.106	334.076	-0.123	-0.235
-392.092	364.458	-0.083	0.166
-391.077	-200.000	0.025	-0.299
-390.063	-200.000	-0.001	-0.029
-389.048	-63.223	-0.061	-0.025
-388.033	-135.412	0.169	-0.020
-387.019	558.192	-0.094	0.225
-386.004	-86.126	0.287	-0.088
-384.990	800.000	-0.025	0.100
-383.975	-10.101	-0.274	-0.180
-382.960	-156.173	-0.029	0.002
-381.946	245.068	-0.228	-0.378
-380.931	164.459	0.243	-0.338
-379.917	800.000	0.038	-0.136
-378.902	702.689	0.107	-0.278
-377.888	-81.011	0.382	0.125
-376.873	-200.000	-0.005	-0.132
-375.858	-200.000	-0.029	-0.260
-374.844	106.577	0.220	0.258
-373.829	130.896	0.172	-0.218
-372.815	-200.000	0.009	-0.209
-371.800	-94.334	0.188	-0.051
-370.785	-79.458	-0.341	0.114
-369.771	48.204	0.218	0.202
-368.756	-200.000	-0.014	0.061
-367.742	-56.286	0.349	0.153
-366.727	-200.000	-0.029	-0.178
-365.712	-65.224	0.070	0.028
-364.698	-159.326	0.110	-0.006
-363.683	-200.000	-0.053	-0.230
-362.669	108.893	-0.216	0.255
-361.654	-200.000	0.050	0.279
-360.639	25.696	-0.268	-0.220
-359.625	-92.566	0.143	0.040
-358.610	32.566	-0.251	-0.214
-357.596	800.000	-0.114	0.336
-356.581	-200.000	-0.032	0.202
-355.566	175.029	0.111	0.158
-354.552	221.572	0.126	-0.199
-353.537	131.546	-0.042	0.053
-352.523	-52.265	0.274	-0.125
-351.508	-87.246	0.184	0.055
-350.493	-200.000	-0.014	-0.245
-349.479	118.551	0.135	0.164
-348.464	10.467	-0.334	-0.251
-347.450	48.593	-0.168	0.155
-346.435	800.000	0.103	-0.396
-345.420	-50.573	0.193	-0.090
-344.406	-200.000	0.037	0.402
-343.391	-200.000	-0.023	-0.161
-342.377	-99.251	-0.355	0.088
-341.362	-200.000	0.102	-0.507
-340.348	326.099	-0.058	0.110
-339.333	142.410	0.054	-0.071
-338.318	-107.134	0.358	0.078
-337.304	-78.990	-0.105	0.035
-336.289	-81.859	-0.393	0.127
-335.275	-164.086	0.093	-0.004
-334.260	673.373	-0.049	-0.125
-333.245	-99.583	0.157	0.039
-332.231	643.327	-0.148	0.373
-331.216	420.460	0.030	-0.063
-330.202	-200.000	0.007	0.166
-329.187	0.099	0.248	-0.174
-328.172	136.685	0.130	-0.167
-327.158	280.264	0.148	-0.261
-326.143	-11.902	0.127	-0.082
-325.129	-12.524	0.167	-0.107
-324.114	720.590	0.116	0.304
-323.099	146.273	0.091	0.120
-322.085	800.000	0.013	-0.050
-321.070	800.000	-0.042	0.126
-320.056	292.727	-0.099	0.178
-319.041	-90.177	0.096	-0.028
-318.026	202.317	-0.091	-0.139
-317.012	-29.360	-0.213	0.120
-315.997	-141.215	0.099	-0.010
-314.983	183.386	0.062	0.090
-313.968	-200.000	0.037	-0.252
-312.953	45.795	0.234	-0.213
-311.939	108.183	-0.075	0.088
-310.924	76.762	-0.143	0.149
-309.910	-59.532	0.114	0.048
-308.895	89.440	-0.366	0.402
-307.880	800.000	-0.077	-0.287
-306.866	16.891	0.109	0.085
-305.851	-200.000	0.002	-0.093
-304.837	-200.000	-0.020	-0.125
-303.822	-1.095	-0.158	0.110
-302.807	-200.000	-0.014	-0.118
-301.793	800.000	0.071	-0.285
-300.778	43.300	0.191	0.172
-299.764	434.501	-0.039	-0.083
-298.749	289.761	-0.087	-0.155
-297.735	-200.000	-0.029	0.196
-296.720	-200.000	0.032	0.232
-295.705	169.825	0.285	0.402
-294.691	-57.764	-0.195	0.084
-293.676	-200.000	0.004	0.265
-292.662	78.722	0.221	-0.232
-291.647	9.032	0.211	-0.157
-290.632	-200.000	-0.021	-0.238
-289.618	-187.022	-0.166	0.002
-288.603	800.000	-0.010	0.035
-287.589	-200.000	0.005	0.412
-286.574	-189.205	0.286	0.003
-285.559	-159.615	0.329	-0.018
-284.545	-200.000	-0.002	0.081
-283.530	-97.679	0.213	-0.054
-282.516	-46.849	0.169	0.082
-281.501	-50.685	0.070	0.032
-280.486	-12.601	-0.123	0.079
-279.472	-133.122	0.174	0.022
-278.457	14.357	0.146	-0.112
-277.443	-200.000	0.074	-0.339
-276.428	78.534	0.195	-0.205
-275.413	800.000	0.066	-0.264
-274.399	331.973	0.036	0.068
-273.384	-200.000	0.045	0.211
-272.370	-126.470	-0.102	0.015
-271.355	-200.000	-0.009	-0.115
-270.340	76.875	0.291	-0.304
-269.326	-74.748	-0.011	-0.004
-268.311	-63.898	-0.296	-0.119
-267.297	-5.555	-0.070	-0.047
-266.282	17.766	-0.198	-0.155
-265.267	528.892	-0.078	0.180
-264.253	244.193	-0.043	-0.071
-263.238	485.928	0.035	0.079
-262.224	-200.000	-0.005	-0.205
-261.209	330.137	0.101	0.192
-260.195	4.253	0.124	0.089
-259.180	-200.000	0.031	0.276
-258.165	-68.118	0.171	0.066
-257.151	31.975	0.166	0.140
-256.136	-56.847	-0.093	-0.040
-255.122	-132.711	0.212	-0.027
-254.107	473.142	0.018	0.039
-253.092	-67.022	-0.296	0.115
-252.078	34.075	0.193	-0.165
-251.063	538.696	-0.033	-0.078
-250.049	57.593	-0.276	0.265
-249.034	101.518	0.096	-0.110
-248.019	800.000	0.032	-0.089
-247.005	-17.301	0.139	0.086
-245.990	241.901	-0.090	0.148
-244.976	-15.615	0.215	-0.135
-243.961	-11.021	-0.147	0.096
-242.946	191.981	0.048	0.071
-241.932	80.363	-0.091	0.097
-240.917	-200.000	0.042	0.282
-239.903	-112.825	-0.141	0.028
-238.888	-189.552	-0.129	-0.001
-237.873	800.000	-0.042	0.121
-236.859	-59.898	-0.237	-0.100
-235.844	222.681	0.135	0.214
-234.830	89.913	-0.012	0.013
-233.815	-102.904	0.138	0.032
-232.800	-40.016	-0.101	-0.052
-231.786	-200.000	-0.020	-0.091
-230.771	-52.834	0.256	-0.116
-229.757	70.095	0.017	-0.017
-228.742	-43.474	0.119	0.059
-227.727	128.513	0.010	0.013
-226.713	48.196	-0.259	-0.238
-225.698	242.894	-0.059	0.098
-224.684	193.342	-0.181	0.269
-223.669	-56.133	-0.309	-0.135
-222.655	-75.282	-0.205	0.072
-221.640	8.272	0.146	-0.108
-220.625	582.691	0.067	-0.161
-219.611	726.015	0.020	-0.053
-218.596	170.409	-0.122	0.171
-217.582	800.000	-0.060	0.230
-216.567	-200.000	0.014	0.269
-215.552	86.426	0.304	-0.329
-214.538	-200.000	-0.050	0.326
-213.523	-132.687	-0.279	-0.035
-212.509	-200.000	-0.098	-0.000
-211.494	187.637	-0.250	0.365
-210.479	-200.000	-0.006	-0.251
-209.465	-31.305	-0.062	-0.034
-208.450	800.000	-0.049	-0.197
-207.436	800.000	0.034	-0.121
-206.421	-108.111	0.078	0.016
-205.406	-19.937	-0.218	0.132
-204.392	92.948	-0.109	-0.121
-203.377	-200.000	0.110	-0.571
-202.363	248.969	-0.156	-0.260
-201.348	35.689	0.093	0.080
-200.333	133.856	0.046	0.058
-199.319	177.071	0.266	0.380
-198.304	-195.476	0.367	-0.003
-197.290	-89.257	-0.164	-0.048
-196.275	31.296	-0.313	0.263
-195.260	34.041	-0.256	0.219
-194.246	228.167	-0.088	0.141
-193.231	25.950	-0.128	0.105
-192.217	800.000	-0.031	0.126
-191.202	-20.627	0.079	-0.048
-190.187	196.273	0.103	0.154
-189.173	-72.976	0.549	-0.198
-188.158	51.845	-0.094	-0.088
-187.144	59.226	-0.075	-0.072
-186.129	6.530	-0.033	-0.024
-185.114	394.550	0.113	0.231
-184.100	800.000	-0.015	0.047
-183.085	67.445	0.179	0.179
-182.071	-52.983	0.176	0.079
-181.056	-70.950	0.308	0.114
-180.042	-43.654	-0.309	-0.153
-179.027	-76.033	0.214	-0.074
-178.012	-200.000	-0.049	-0.426
-176.998	-126.363	-0.452	-0.066
-175.983	-125.411	0.115	0.017
-174.969	-200.000	0.034	-0.225
-173.954	-127.418	0.275	-0.039
-172.939	67.663	-0.072	0.072
-171.925	559.353	-0.153	-0.361
-170.910	75.553	0.071	-0.074
-169.896	800.000	0.070	-0.261
-168.881	-16.705	-0.114	-0.071
-167.866	632.561	-0.091	0.225
-166.852	-100.536	0.109	-0.026
-165.837	-200.000	0.040	-0.216
-164.823	246.076	-0.123	0.203
-163.808	-200.000	-0.065	0.333
-162.793	100.221	0.063	0.071
-161.779	26.634	-0.170	0.139
-160.764	-82.695	-0.128	0.041
-159.750	6.922	-0.223	-0.163
-158.735	-200.000	0.015	0.172
-157.720	-100.249	0.299	0.073
-156.706	39.893	0.247	-0.217
-155.691	-98.050	0.320	0.081
-154.677	54.219	-0.127	0.120
-153.662	165.418	-0.065	0.089
-152.647	-63.167	0.250	-0.101
-151.633	-200.000	0.002	-0.043
-150.618	-66.462	0.295	0.115
-149.604	293.189	-0.094	0.167
-148.589	800.000	0.062	-0.184
-147.574	85.490	-0.069	-0.074
-146.560	158.993	-0.139	0.188
-145.545	74.439	-0.165	0.170
-144.531	235.798	-0.065	0.105
-143.516	-200.000	-0.002	-0.059
-142.502	-132.753	0.174	-0.022
-141.487	-200.000	0.019	0.177
-140.472	572.918	-0.041	-0.099
-139.458	258.792	0.060	-0.101
-138.443	-97.311	0.266	0.068
-137.429	-200.000	-0.001	0.114
-136.414	-122.486	0.141	-0.022
-135.399	693.870	0.110	-0.281
-134.385	-127.443	0.512	-0.073
-133.370	-200.000	0.002	-0.154
-132.356	-200.000	0.031	0.209
-131.341	440.805	-0.160	0.342
-130.326	18.378	0.207	0.161
-129.312	-200.000	0.042	0.402
-128.297	800.000	0.034	0.118
-127.283	-103.184	-0.207	0.048
-126.268	67.110	-0.209	0.209
-125.253	680.568	0.026	0.065
-124.239	-63.341	-0.361	0.145
-123.224	-200.000	-0.003	0.106
-122.210	282.783	-0.143	0.251
-121.195	-42.897	0.279	-0.138
-120.180	-46.108	0.149	-0.072
-119.166	128.804	-0.056	0.070
-118.151	12.435	0.101	0.076
-117.137	-200.000	-0.006	0.196
-116.122	-200.000	0.047	-0.245
-115.107	-106.942	-0.263	-0.057
-114.093	25.073	0.118	-0.096
-113.078	-200.000	-0.048	0.210
-112.064	-113.285	0.203	-0.039
-111.049	-118.534	-0.106	-0.018
-110.034	-52.695	-0.254	0.115
-109.020	-168.977	0.089	-0.003
-108.005	17.884	-0.245	0.190
-106.991	200.011	0.057	-0.086
-105.976	-200.000	0.017	0.231
-104.962	20.785	-0.166	0.132
-103.947	-200.000	-0.010	0.209
-102.932	44.656	-0.110	-0.099
-101.918	25.202	-0.030	-0.024
-100.903	237.934	-0.047	-0.077
-99.889	0.252	-0.092	0.064
-98.874	473.096	0.053	0.118
-97.859	-83.969	0.163	0.051
-96.845	-200.000	-0.104	0.558
-95.830	195.046	0.074	0.110
-94.816	-48.438	0.234	0.110
-93.801	-110.336	0.242	0.049
-92.786	-200.000	-0.021	0.395
-91.772	267.866	-0.097	0.166
-90.757	397.333	-0.082	0.167
-89.743	-94.252	-0.334	0.089
-88.728	85.059	0.139	0.149
-87.713	-56.995	0.137	0.059
-86.699	800.000	0.070	0.296
-85.684	800.000	-0.098	0.267
-84.670	-48.566	-0.133	-0.062
-83.655	-200.000	-0.022	0.099
-82.640	34.269	-0.087	0.074
-81.626	-79.070	0.201	0.067
-80.611	-83.249	0.141	-0.044
-79.597	-200.000	-0.020	-0.303
-78.582	-20.827	-0.411	0.246
-77.567	42.083	-0.023	-0.020
-76.553	-200.000	-0.003	0.226
-75.538	-200.000	-0.045	0.195
-74.524	-200.000	0.024	-0.138
-73.509	95.806	0.147	-0.164
-72.494	-112.695	0.391	0.076
-71.480	-114.412	0.064	0.012
-70.465	-138.200	-0.277	-0.030
-69.451	800.000	0.043	-0.116
-68.436	197.826	-0.034	0.050
-67.422	-200.000	0.014	0.350
-66.407	133.913	-0.141	0.178
-65.392	-140.252	0.205	0.021
-64.378	-57.033	-0.219	0.094
-63.363	-123.134	0.319	-0.050
-62.349	-200.000	-0.024	-0.144
-61.334	85.115	-1.311	-1.403
-60.319	157.418	0.696	0.939
-59.305	800.000	-0.388	-1.154
-58.290	340.687	0.828	1.577
-57.276	800.000	0.332	1.200
-56.261	-200.000	134.702	660.824
-55.246	336.951	1665.592	3155.679
-54.232	133.855	2802.338	3538.063
-53.217	85.414	2178.237	2332.384
-52.203	31.106	1607.159	1344.184
-51.188	23.100	1355.483	1084.758
-50.173	21.019	1319.713	1043.655
-49.159	48.716	1393.879	1274.458
-48.144	44.332	1403.253	1255.953
-47.130	23.235	1350.421	1081.364
-46.115	20.200	1331.387	1047.774
-45.100	19.957	1325.956	1041.992
-44.086	19.822	1323.623	1039.307
-43.071	19.761	1321.368	1037.130
-42.057	19.730	1320.042	1035.862
-41.042	19.780	1317.743	1034.319
-40.027	19.817	1316.381	1033.425
-39.013	19.891	1314.168	1032.091
-37.998	19.978	1312.256	1031.068
-36.984	19.906	1311.126	1029.707
-35.969	20.111	1308.828	1029.079
-34.954	19.921	1307.329	1026.737
-33.940	19.917	1306.242	1025.816
-32.925	20.021	1304.832	1025.287
-31.911	20.113	1303.320	1024.600
-30.896	19.997	1302.248	1023.028
-29.881	20.142	1300.458	1022.437
-28.867	20.112	1299.335	1021.337
-27.852	19.949	1298.643	1019.796
-26.838	20.129	1296.547	1019.166
-25.823	20.122	1295.360	1018.153
-24.809	20.073	1293.520	1016.379
-23.794	20.136	1292.539	1015.937
-22.779	20.142	1291.128	1014.821
-21.765	20.125	1289.940	1013.746
-20.750	20.120	1288.710	1012.710
-19.736	20.065	1287.027	1011.027
-18.721	20.037	1286.482	1010.400
-17.706	19.908	1285.015	1008.452
-16.692	20.067	1283.721	1008.324
-15.677	19.888	1282.846	1006.554
-14.663	19.870	1281.598	1005.430
-13.648	19.842	1280.511	1004.374
-12.633	19.934	1279.162	1003.811
-11.619	19.978	1278.791	1003.736
-10.604	19.952	1278.146	1003.037
-9.590	19.978	1276.989	1002.240
-8.575	19.855	1276.232	1000.896
-7.560	19.902	1274.848	1000.045
-6.546	20.100	1273.742	1000.278
-5.531	19.944	1273.356	999.036
-4.517	19.914	1272.947	998.503
-3.502	19.910	1272.314	997.940
-2.487	19.934	1270.967	996.987
-1.473	19.854	1266.975	993.351
-0.458	18.686	1251.621	974.646
0.556	14.627	1237.617	941.775
1.571	11.491	1246.388	930.521
2.586	10.876	1262.798	939.135
3.600	10.968	1250.089	930.130
4.615	8.227	1177.652	861.371
5.629	2.950	1107.602	783.213
6.644	0.655	1091.506	760.227
7.659	0.510	1089.754	758.208
8.673	0.594	1088.900	757.973
9.688	0.461	1087.582	756.318
10.702	0.657	1085.166	755.551
11.717	3.845	1088.460	773.748
12.731	10.016	1097.046	810.828
13.746	15.153	1103.600	841.471
14.761	16.975	1105.275	851.829
15.775	16.292	1104.273	847.553
16.790	15.415	1101.869	841.239
17.804	14.754	1100.218	836.598
18.819	14.392	1098.976	833.765
19.834	14.187	1098.279	832.139
20.848	13.967	1097.216	830.159
21.863	13.755	1096.722	828.656
22.877	13.435	1095.689	826.202
23.892	13.441	1094.511	825.275
24.907	13.503	1094.302	825.350
25.921	13.581	1093.799	825.288
26.936	13.505	1093.126	824.327
27.950	13.607	1091.495	823.532
28.965	13.614	1090.773	822.951
29.980	13.565	1089.380	821.584
30.994	13.643	1088.021	820.872
32.009	13.639	1087.467	820.363
33.023	13.694	1086.213	819.614
34.038	13.645	1084.768	818.212
35.053	13.589	1084.447	817.621
36.067	13.605	1083.216	816.695
37.082	13.816	1082.059	816.789
38.096	13.744	1081.556	815.986
39.111	13.764	1080.758	815.407
40.126	13.591	1079.465	813.514
41.140	13.521	1078.442	812.323
42.155	13.330	1077.437	810.559
43.169	13.508	1076.057	810.320
44.184	13.437	1075.222	809.277
45.199	13.469	1073.802	808.292
46.213	13.416	1073.019	807.373
47.228	13.500	1071.931	806.890
48.242	13.428	1071.040	805.798
49.257	13.536	1069.917	805.408
50.271	13.486	1069.081	804.466
51.286	13.614	1068.219	804.365
52.301	13.612	1067.247	803.553
53.315	13.524	1066.218	802.281
54.330	13.593	1065.134	801.728
55.344	13.543	1063.993	800.555
56.359	13.457	1063.287	799.538
57.374	13.524	1062.560	799.247
58.388	13.452	1061.647	798.138
59.403	13.465	1060.748	797.455
60.417	13.474	1060.086	796.930
61.432	13.520	1058.647	795.998
62.447	13.408	1058.012	794.914
63.461	13.401	1057.482	794.412
64.476	13.433	1056.155	793.496
65.490	13.439	1055.324	792.833
66.505	13.536	1054.428	792.552
67.520	13.485	1054.087	791.985
68.534	13.537	1053.091	791.412
69.549	13.503	1052.394	790.658
70.563	13.467	1051.281	789.578
71.578	13.237	1050.815	788.062
72.593	13.363	1050.113	788.069
73.607	13.366	1049.311	787.407
74.622	13.412	1048.776	787.155
75.636	13.393	1048.352	786.678
76.651	13.188	1047.625	785.090
77.666	13.390	1046.623	785.226
78.680	13.345	1046.174	784.608
79.695	13.345	1045.429	783.980
80.709	13.444	1044.778	783.891
81.724	13.450	1044.116	783.355
82.739	13.475	1043.015	782.578
83.753	13.526	1042.367	782.262
84.768	13.716	1041.038	782.094
85.782	13.717	1040.349	781.511
86.797	13.685	1039.339	780.533
87.812	13.600	1038.657	779.551
88.826	13.651	1037.520	778.866
89.841	13.558	1036.867	777.873
90.855	13.654	1035.612	777.310
91.870	13.652	1034.955	776.739
92.884	13.642	1033.868	775.808
93.899	13.686	1033.378	775.581
94.914	13.721	1032.207	774.793
95.928	13.720	1031.567	774.239
96.943	13.614	1030.906	773.181
97.957	13.600	1030.019	772.383
98.972	13.689	1029.095	772.037
99.987	13.669	1028.122	771.143
101.001	13.812	1026.817	770.764
102.016	13.687	1026.230	769.673
103.030	13.635	1025.756	769.010
104.045	13.780	1024.365	768.570
105.060	13.524	1023.706	766.819
106.074	13.595	1022.885	766.468
107.089	13.581	1021.595	765.367
108.103	13.491	1021.315	764.676
109.118	13.524	1020.143	763.882
110.133	13.612	1019.150	763.478
111.147	13.608	1018.248	762.717
112.162	13.543	1017.576	761.843
113.176	13.679	1016.438	761.549
114.191	13.703	1015.619	760.978
115.206	13.621	1015.181	760.209
116.220	13.569	1014.202	759.170
117.235	13.605	1012.804	758.220
118.249	13.596	1012.431	757.833
119.264	13.769	1011.540	757.890
120.279	13.544	1010.822	756.257
121.293	13.662	1009.817	755.974
122.308	13.658	1008.906	755.210
123.322	13.692	1007.522	754.261
124.337	13.628	1006.819	753.379
125.352	13.667	1005.751	752.686
126.366	13.590	1004.543	751.367
127.381	13.527	1003.557	750.277
128.395	13.568	1002.906	749.913
129.410	13.477	1002.299	748.981
130.424	13.554	1000.906	748.220
131.439	13.655	1000.211	748.092
132.454	13.596	999.646	747.336
133.468	13.634	998.806	746.813
134.483	13.586	998.180	746.061
135.497	13.498	997.377	745.003
136.512	13.860	995.452	745.122
137.527	13.682	995.542	744.324
138.541	13.763	994.334	743.720
139.556	13.727	993.742	743.046
140.570	13.721	993.118	742.491
141.585	13.747	992.151	741.816
142.600	13.779	991.123	741.125
143.614	13.793	990.447	740.616
144.629	13.767	989.543	739.758
145.643	13.667	988.602	738.546
146.658	13.939	987.066	738.543
147.673	13.746	986.323	737.063
148.687	13.825	985.313	736.596
149.702	13.770	984.563	735.722
150.716	13.760	983.742	735.000
151.731	13.869	983.002	734.866
152.746	13.834	982.717	734.431
153.760	13.819	981.916	733.701
154.775	14.004	981.293	733.991
155.789	13.890	980.893	733.121
156.804	13.960	979.853	732.589
157.819	13.864	979.387	731.752
158.833	14.022	978.167	731.470
159.848	13.942	977.769	730.758
160.862	13.849	976.757	729.526
161.877	13.881	975.692	728.810
162.892	13.806	974.926	727.842
163.906	13.923	973.727	727.394
164.921	13.838	973.219	726.580
165.935	13.937	972.198	726.187
166.950	13.947	971.583	725.708
167.964	14.035	970.205	724.997
168.979	14.049	969.283	724.306
169.994	13.932	968.544	723.180
171.008	13.771	968.503	722.382
172.023	14.064	967.240	722.650
173.037	14.028	966.706	722.034
174.052	14.031	965.779	721.289
175.067	13.997	965.375	720.777
176.081	13.951	964.888	720.147
177.096	13.890	964.465	719.505
178.110	14.030	963.623	719.421
179.125	13.910	963.202	718.521
180.140	14.038	962.374	718.395
181.154	14.130	961.451	718.041
182.169	14.051	961.232	717.468
183.183	14.272	960.292	717.658
184.198	14.230	959.583	716.885
185.213	14.275	958.565	716.255
186.227	14.203	958.384	715.746
187.242	14.246	957.720	715.369
188.256	14.335	956.931	715.100
189.271	14.242	956.121	714.034
190.286	14.248	954.880	713.068
191.300	14.185	954.579	712.510
192.315	14.101	954.256	711.848
193.329	14.242	953.309	711.683
194.344	14.114	952.931	710.787
195.359	14.290	951.881	710.694
196.373	14.280	951.236	710.108
197.388	14.314	951.297	710.233
198.402	14.350	950.757	709.922
199.417	14.456	949.586	709.435
200.432	14.403	949.531	709.106
201.446	14.550	948.619	708.988
202.461	14.488	948.360	708.468
203.475	14.496	947.549	707.835
204.490	14.585	946.634	707.463
205.504	14.482	945.687	706.256
206.519	14.440	945.225	705.672
207.534	14.490	944.529	705.302
208.548	14.530	943.582	704.700
209.563	14.488	943.072	704.082
210.577	14.461	942.337	703.357
211.592	14.609	941.366	703.192
212.607	14.600	941.129	702.915
213.621	14.587	939.868	701.858
214.636	14.621	939.346	701.546
215.650	14.643	938.422	700.886
216.665	14.575	938.064	700.274
217.680	14.799	937.196	700.502
218.694	14.764	936.186	699.538
219.709	14.733	935.853	699.096
220.723	14.707	935.326	698.535
221.738	14.793	934.691	698.358
222.753	14.728	934.038	697.536
223.767	14.781	933.037	696.947
224.782	14.904	932.311	696.859
225.796	14.863	931.988	696.384
226.811	14.835	931.486	695.828
227.826	14.832	930.500	695.019
228.840	14.935	929.371	694.544
229.855	14.854	929.064	693.915
230.869	15.001	928.015	693.678
231.884	14.834	927.276	692.373
232.899	14.834	926.831	691.979
233.913	14.935	926.046	691.751
234.928	14.784	925.923	690.973
235.942	14.874	925.125	690.687
236.957	14.851	924.407	689.998
237.972	14.922	923.697	689.697
238.986	14.886	923.037	688.995
240.001	14.900	922.323	688.462
241.015	14.902	921.808	688.021
242.030	14.959	921.004	687.597
243.045	15.013	920.539	687.409
244.059	14.999	920.096	686.961
245.074	15.029	919.457	686.548
246.088	15.053	918.676	686.000
247.103	14.837	918.286	684.766
248.117	15.162	917.315	685.311
249.132	15.094	916.728	684.530
250.147	15.046	916.288	683.947
251.161	15.094	915.613	683.579
252.176	15.140	914.920	683.188
253.190	15.252	913.869	682.800
254.205	15.269	913.371	682.437
255.220	15.222	912.780	681.741
256.234	15.390	911.752	681.597
257.249	15.151	911.305	680.232
258.263	15.371	910.403	680.392
259.278	15.369	910.099	680.095
260.293	15.376	909.316	679.477
261.307	15.417	908.771	679.178
262.322	15.469	908.263	678.945
263.336	15.334	907.777	677.977
264.351	15.521	906.566	677.768
265.366	15.467	906.222	677.233
266.380	15.541	905.492	676.927
267.395	15.584	904.866	676.573
268.409	15.573	903.904	675.750
269.424	15.558	903.339	675.206
270.439	15.528	902.808	674.628
271.453	15.484	902.302	674.014
272.468	15.589	901.469	673.755
273.482	15.524	900.832	672.959
274.497	15.536	900.228	672.494
275.512	15.596	899.260	671.953
276.526	15.587	899.013	671.673
277.541	15.606	898.377	671.212
278.555	15.663	898.202	671.253
279.570	15.728	897.147	670.660
280.585	15.807	895.789	669.904
281.599	15.788	895.315	669.415
282.614	15.694	894.581	668.432
283.628	15.768	894.240	668.411
284.643	15.668	893.807	667.630
285.657	15.758	892.955	667.292
286.672	15.782	892.416	666.925
287.687	15.697	892.064	666.266
288.701	15.789	891.188	665.917
289.716	15.681	890.899	665.216
290.730	15.929	889.729	665.265
291.745	15.796	889.332	664.384
292.760	16.031	888.443	664.588
293.774	15.928	888.010	663.800
294.789	15.831	887.486	662.964
295.803	15.802	886.910	662.361
296.818	15.957	885.979	662.217
297.833	15.870	885.604	661.539
298.847	15.972	884.675	661.186
299.862	15.909	884.195	660.522
300.876	15.940	883.928	660.386
301.891	16.116	882.937	660.275
302.906	16.124	882.082	659.610
303.920	16.146	882.130	659.672
304.935	16.203	881.210	659.148
305.949	16.073	880.454	658.017
306.964	16.201	879.910	658.052
307.979	16.080	879.617	657.301
308.993	16.240	878.833	657.283
310.008	16.220	878.490	656.890
311.022	16.188	877.818	656.205
312.037	16.130	877.324	655.550
313.052	16.133	876.513	654.898
314.066	16.101	876.084	654.397
315.081	16.265	875.139	654.269
316.095	16.272	874.768	653.958
317.110	16.132	874.239	652.966
318.125	16.316	873.421	653.006
319.139	16.219	873.517	652.645
320.154	16.379	872.482	652.433
321.168	16.225	872.173	651.551
322.183	16.248	871.436	651.031
323.197	16.198	871.142	650.561
324.212	16.235	870.856	650.431
325.227	16.241	870.088	649.824
326.241	16.231	869.235	649.089
327.256	16.281	868.791	648.893
328.270	16.284	868.244	648.440
329.285	16.357	867.556	648.150
330.300	16.322	866.847	647.427
331.314	16.384	866.278	647.184
332.329	16.340	865.688	646.515
333.343	16.507	865.143	646.690
334.358	16.409	864.894	646.073
335.373	16.553	864.386	646.185
336.387	16.570	864.124	646.000
337.402	16.532	863.830	645.576
338.416	16.463	863.872	645.286
339.431	16.641	863.324	645.498
340.446	16.641	862.752	645.016
341.460	16.596	862.105	644.302
342.475	16.704	861.775	644.409
343.489	16.741	861.057	643.957
344.504	16.669	860.544	643.244
345.519	16.749	860.191	643.227
346.533	16.700	859.852	642.727
347.548	16.649	859.301	642.068
348.562	16.686	858.473	641.533
349.577	16.709	857.895	641.129
350.592	16.640	857.751	640.703
351.606	16.800	856.720	640.481
352.621	16.722	856.120	639.683
353.635	16.617	855.772	638.970
354.650	16.791	854.903	638.920
355.665	16.824	854.384	638.600
356.679	16.878	853.394	638.009
357.694	16.856	853.063	637.619
358.708	16.940	852.109	637.166
359.723	16.901	851.718	636.671
360.738	16.834	851.435	636.151
361.752	16.910	850.434	635.631
362.767	16.885	850.161	635.278
363.781	17.024	849.184	635.013
364.796	17.115	849.039	635.191
365.810	16.979	848.498	634.220
366.825	17.079	848.184	634.302
367.840	17.112	847.766	634.055
368.854	17.105	847.366	633.676
369.869	17.184	846.900	633.564
370.883	17.143	846.193	632.827
371.898	17.235	845.810	632.828
372.913	17.088	845.771	632.195
373.927	17.117	845.084	631.733
374.942	17.125	844.475	631.252
375.956	17.282	843.934	631.374
376.971	17.318	843.594	631.200
377.986	17.195	843.472	630.596
379.000	17.370	842.733	630.635
380.015	17.330	842.355	630.149
381.029	17.361	841.435	629.521
382.044	17.397	841.150	629.382
383.059	17.432	840.156	628.713
384.073	17.313	839.619	627.818
385.088	17.418	839.228	627.857
386.102	17.338	838.782	627.173
387.117	17.429	837.953	626.833
388.132	17.360	837.535	626.208
389.146	17.387	836.860	625.748
390.161	17.507	836.567	625.917
391.175	17.345	836.269	625.042
392.190	17.432	835.447	624.691
393.205	17.294	835.182	623.933
394.219	17.225	835.271	623.691
395.234	17.475	834.479	623.961
396.248	17.534	833.619	623.478
397.263	17.472	833.188	622.872
398.278	17.506	833.147	622.910
399.292	17.458	832.490	622.191
400.307	17.568	831.864	622.071
401.321	17.591	831.227	621.621
402.336	17.535	831.252	621.380
403.350	17.523	830.659	620.840
404.365	17.647	830.056	620.784
405.380	17.632	829.594	620.329
406.394	17.767	829.021	620.336
407.409	17.745	828.519	619.828
408.423	17.711	828.066	619.311
409.438	17.822	827.866	619.507
410.453	17.575	827.501	618.283
411.467	17.887	826.712	618.772
412.482	17.935	826.388	618.647
413.496	17.907	826.171	618.329
414.511	17.821	825.798	617.684
415.526	17.873	825.453	617.558
416.540	17.851	825.005	617.088
417.555	17.888	824.372	616.694
418.569	17.890	823.947	616.332
419.584	17.867	823.523	615.873
420.599	17.994	822.715	615.673
421.613	115.234	1301.924	1492.705
422.628	100.026	1371.680	1492.758
