DTS Sentinel unit serial number:	SN413079Multiplexer serial number:	ORYXHardware model number:	OX4-SRSoftware version number:	ORYX F/W v4.00 Oryx Data Collector v3.7.2.0data status	okinstallation	princeton_trtdifferential loss correction	single-endedforward channel	channel 1reverse channel	N/Adate	2019/09/15time	16:26:35forward acquisition time	60.00reverse acquisition time	0.00gamma	496.2192k internal	0.2292k external	0.2292temperature offset calibration	0.9937default loss term (dB/km)	0.3790temperature slope calibration	1.0000multiplexer offset coefficient	1.0000multiplexer slope coefficient	1.0000fibre end	0.00T internal ref (°C)	43.80T ext. ref 1 (°C)	5.54T ext. ref 2 (°C)	40.44length (m)	temperature (°C)	Stokes	anti-Stokes-747.200	27.609	0.191	-0.165
-746.185	-39.720	-0.332	0.177
-745.171	800.000	-0.090	-0.316
-744.156	-121.875	0.132	-0.022
-743.142	1.854	-0.167	-0.123
-742.127	-112.588	-0.188	0.038
-741.112	-104.934	-0.241	0.057
-740.098	-7.864	-0.064	-0.044
-739.083	-200.000	-0.002	0.403
-738.069	438.374	-0.152	0.339
-737.054	-29.696	0.126	0.073
-736.039	52.755	0.131	-0.128
-735.025	-133.463	0.018	-0.002
-734.010	800.000	0.058	-0.243
-732.996	-200.000	-0.059	0.345
-731.981	16.522	-0.209	0.169
-730.966	-200.000	-0.006	0.112
-729.952	800.000	-0.056	0.206
-728.937	293.644	0.063	-0.117
-727.923	-157.706	-0.199	-0.012
-726.908	-34.158	0.026	-0.015
-725.894	129.632	0.096	0.126
-724.879	86.647	-0.177	-0.200
-723.864	334.028	0.121	-0.240
-722.850	-77.727	0.502	0.177
-721.835	449.635	-0.092	0.208
-720.821	53.979	-0.287	-0.283
-719.806	-133.689	-0.327	0.042
-718.791	-5.748	-0.330	0.231
-717.777	800.000	-0.024	-0.092
-716.762	-9.293	0.178	0.122
-715.748	-70.510	0.139	0.054
-714.733	-53.644	-0.205	0.096
-713.718	800.000	0.125	0.441
-712.704	277.539	-0.032	0.058
-711.689	-135.042	-0.373	-0.046
-710.675	479.948	-0.104	-0.240
-709.660	800.000	-0.144	-0.492
-708.645	40.977	0.281	-0.259
-707.631	62.311	-0.180	-0.184
-706.616	-22.486	0.184	0.114
-705.602	67.359	-0.148	-0.154
-704.587	767.631	0.050	0.139
-703.572	-35.954	-0.340	0.188
-702.558	96.334	0.221	-0.258
-701.543	271.728	-0.094	-0.170
-700.529	-78.152	-0.052	0.018
-699.514	-200.000	-0.037	-0.286
-698.499	-8.808	-0.312	-0.213
-697.485	438.010	-0.146	0.325
-696.470	-81.656	0.215	0.072
-695.456	9.448	0.140	-0.108
-694.441	143.881	-0.180	0.245
-693.426	-101.865	-0.323	-0.080
-692.412	-200.000	-0.004	0.051
-691.397	-114.590	-0.048	-0.009
-690.383	-200.000	-0.012	0.097
-689.368	197.836	-0.208	0.325
-688.354	70.252	-0.141	-0.148
-687.339	129.631	0.299	-0.390
-686.324	-32.199	-0.246	0.141
-685.310	558.716	-0.075	-0.186
-684.295	-200.000	-0.027	-0.189
-683.281	27.372	-0.096	0.082
-682.266	302.395	-0.080	-0.150
-681.251	140.197	0.175	-0.235
-680.237	558.101	0.123	-0.303
-679.222	-60.735	0.232	-0.100
-678.208	674.666	0.140	-0.370
-677.193	-16.739	-0.198	0.128
-676.178	82.718	-0.103	0.114
-675.164	-56.996	-0.182	0.082
-674.149	46.805	-0.325	-0.308
-673.135	-80.111	0.309	-0.106
-672.120	-110.857	0.129	0.027
-671.105	-200.000	-0.031	-0.217
-670.091	129.113	0.065	0.085
-669.076	-200.000	0.030	-0.275
-668.062	273.613	-0.062	0.112
-667.047	-64.620	0.246	0.102
-666.032	-14.370	0.071	0.047
-665.018	-115.190	-0.284	-0.055
-664.003	-51.898	-0.172	0.082
-662.989	-200.000	-0.042	0.331
-661.974	-200.000	-0.062	0.280
-660.959	-66.034	0.158	0.064
-659.945	-111.658	0.097	-0.020
-658.930	-200.000	-0.032	-0.168
-657.916	99.670	-0.186	-0.219
-656.901	-165.274	0.273	0.012
-655.886	-200.000	0.037	-0.182
-654.872	-80.891	-0.243	-0.082
-653.857	-200.000	-0.018	0.271
-652.843	474.810	-0.123	-0.284
-651.828	-137.578	-0.187	0.022
-650.814	-145.766	-0.191	0.017
-649.799	-72.675	0.325	-0.122
-648.784	800.000	0.037	0.105
-647.770	154.266	-0.232	-0.325
-646.755	12.748	-0.181	-0.142
-645.741	800.000	-0.093	-0.341
-644.726	-106.030	0.175	-0.040
-643.711	-131.791	-0.113	-0.015
-642.697	268.458	0.109	-0.195
-641.682	-140.037	-0.245	-0.026
-640.668	-103.529	-0.236	-0.057
-639.653	113.744	0.277	0.343
-638.638	800.000	0.093	-0.315
-637.624	-68.154	0.050	0.020
-636.609	66.253	-0.142	0.147
-635.595	54.926	-0.236	0.233
-634.580	130.569	-0.142	0.185
-633.565	131.149	-0.022	-0.028
-632.551	-137.672	0.129	-0.015
-631.536	94.009	-0.251	-0.290
-630.522	-120.970	0.176	0.030
-629.507	-69.416	-0.392	-0.153
-628.492	-200.000	-0.026	-0.133
-627.478	17.856	-0.190	-0.154
-626.463	411.308	-0.046	0.100
-625.449	112.420	0.067	0.083
-624.434	23.429	-0.083	-0.069
-623.419	114.066	-0.148	-0.184
-622.405	-172.085	0.160	-0.005
-621.390	57.716	-0.153	-0.153
-620.376	-200.000	0.029	-0.221
-619.361	-18.430	-0.106	0.067
-618.346	668.668	-0.031	0.082
-617.332	85.144	-0.172	0.192
-616.317	-200.000	0.032	0.163
-615.303	-200.000	0.002	0.292
-614.288	800.000	-0.061	0.221
-613.273	-112.182	0.041	0.008
-612.259	-82.949	-0.319	-0.105
-611.244	-200.000	0.054	-0.362
-610.230	-53.818	-0.232	-0.108
-609.215	-109.923	-0.312	0.067
-608.201	23.216	-0.073	0.061
-607.186	153.324	-0.160	-0.224
-606.171	12.553	-0.157	0.123
-605.157	127.634	-0.091	-0.117
-604.142	135.867	-0.126	0.167
-603.128	348.330	0.022	-0.044
-602.113	-26.858	-0.197	0.117
-601.098	-16.565	0.025	0.016
-600.084	-38.727	0.246	0.132
-599.069	-200.000	0.071	-0.454
-598.055	-200.000	0.013	-0.111
-597.040	120.957	-0.109	0.138
-596.025	744.047	-0.055	0.150
-595.011	-68.537	0.139	0.055
-593.996	-96.757	0.261	0.070
-592.982	622.902	-0.144	-0.369
-591.967	-108.318	0.138	-0.030
-590.952	314.160	0.201	0.386
-589.938	-200.000	0.009	-0.070
-588.923	33.929	0.104	-0.092
-587.909	-200.000	0.081	-0.436
-586.894	-78.034	-0.193	-0.068
-585.879	-161.377	-0.278	0.015
-584.865	-9.569	0.273	-0.185
-583.850	58.520	-0.134	-0.133
-582.836	122.584	-0.074	0.094
-581.821	800.000	0.040	-0.129
-580.806	-103.282	0.147	-0.035
-579.792	86.558	-0.070	-0.079
-578.777	515.186	-0.149	-0.355
-577.763	-167.355	0.307	-0.013
-576.748	101.338	0.256	-0.303
-575.733	-43.948	-0.384	-0.196
-574.719	-200.000	0.013	-0.061
-573.704	12.297	0.184	0.144
-572.690	59.655	-0.126	0.126
-571.675	5.821	-0.126	0.095
-570.661	-200.000	0.009	-0.049
-569.646	-200.000	0.009	0.155
-568.631	59.461	0.181	0.181
-567.617	-196.000	0.053	0.000
-566.602	98.938	0.164	-0.193
-565.588	-200.000	-0.019	0.137
-564.573	-49.547	0.357	0.173
-563.558	69.676	-0.131	0.137
-562.544	-165.736	-0.113	-0.005
-561.529	-96.376	0.174	0.047
-560.515	-200.000	-0.001	-0.112
-559.500	152.064	0.041	0.056
-558.485	-200.000	0.083	-0.474
-557.471	-33.316	0.196	-0.110
-556.456	-70.295	0.129	0.050
-555.442	-38.608	-0.081	0.044
-554.427	361.083	-0.107	-0.217
-553.412	-114.068	0.265	-0.052
-552.398	123.276	-0.242	0.308
-551.383	-73.197	0.096	0.036
-550.369	-90.651	0.374	0.110
-549.354	-200.000	0.049	-0.411
-548.339	-35.476	0.304	-0.167
-547.325	-0.757	0.154	-0.111
-546.310	-200.000	0.006	-0.132
-545.296	-89.920	0.196	0.058
-544.281	116.282	-0.070	-0.088
-543.266	-200.000	0.004	-0.076
-542.252	-32.248	-0.094	0.053
-541.237	-142.935	-0.286	-0.028
-540.223	335.565	-0.055	-0.108
-539.208	-105.818	-0.284	0.065
-538.193	40.216	0.116	0.106
-537.179	800.000	0.109	0.313
-536.164	281.483	0.034	-0.062
-535.150	-200.000	-0.025	0.202
-534.135	-200.000	-0.017	0.227
-533.121	-41.046	-0.092	0.048
-532.106	-29.472	-0.378	0.220
-531.091	-44.032	0.197	0.101
-530.077	17.446	0.117	0.094
-529.062	-112.082	0.106	0.022
-528.048	-116.165	-0.388	0.073
-527.033	189.610	0.166	-0.253
-526.018	-200.000	-0.000	0.352
-525.004	-149.507	-0.215	-0.017
-523.989	30.308	-0.030	-0.026
-522.975	181.694	-0.231	0.345
-521.960	-181.474	0.182	-0.004
-520.945	-97.488	0.288	-0.076
-519.931	760.882	-0.142	0.391
-518.916	800.000	-0.077	-0.229
-517.902	29.151	0.273	-0.235
-516.887	-129.566	-0.082	-0.012
-515.872	300.839	-0.052	-0.097
-514.858	156.358	-0.055	-0.077
-513.843	-103.913	-0.341	0.081
-512.829	-51.203	0.381	0.181
-511.814	800.000	0.065	-0.190
-510.799	800.000	-0.132	0.379
-509.785	-200.000	0.011	-0.136
-508.770	94.216	-0.150	0.173
-507.756	-83.479	0.120	-0.039
-506.741	-200.000	-0.014	-0.211
-505.726	-140.907	-0.017	-0.002
-504.712	618.652	0.043	0.109
-503.697	69.987	0.165	0.173
-502.683	679.023	0.044	0.115
-501.668	800.000	-0.088	-0.290
-500.653	-200.000	-0.007	0.122
-499.639	401.998	-0.163	-0.347
-498.624	-118.662	-0.165	0.029
-497.610	-200.000	0.020	0.254
-496.595	52.499	0.066	-0.064
-495.581	391.708	0.086	-0.181
-494.566	97.025	0.151	-0.175
-493.551	57.155	0.134	-0.132
-492.537	-27.583	-0.283	0.166
-491.522	104.440	-0.259	-0.309
-490.508	-53.577	0.201	-0.093
-489.493	106.284	-0.265	-0.318
-488.478	-133.987	-0.328	-0.041
-487.464	62.335	0.151	-0.153
-486.449	544.180	-0.066	-0.159
-485.435	147.450	-0.251	0.342
-484.420	-82.475	0.173	-0.057
-483.405	-52.317	-0.405	0.190
-482.391	54.904	-0.159	-0.156
-481.376	800.000	0.077	-0.257
-480.362	668.678	0.090	-0.235
-479.347	-128.658	-0.319	0.046
-478.332	58.957	-0.168	0.167
-477.318	800.000	0.051	0.184
-476.303	-122.313	0.234	0.039
-475.289	800.000	0.065	0.205
-474.274	-107.112	0.398	0.089
-473.259	-120.713	0.149	-0.025
-472.245	-66.292	-0.171	-0.069
-471.230	35.929	-0.207	-0.184
-470.216	-200.000	-0.078	0.436
-469.201	198.172	-0.182	0.281
-468.186	31.763	0.290	-0.253
-467.172	78.976	-0.160	0.174
-466.157	-82.090	-0.308	0.102
-465.143	-121.800	-0.226	0.038
-464.128	58.152	-0.101	0.100
-463.113	292.478	-0.089	0.164
-462.099	139.429	-0.168	-0.224
-461.084	3.939	0.156	-0.115
-460.070	-114.405	0.190	0.037
-459.055	-144.684	0.285	0.027
-458.040	-144.558	0.095	0.009
-457.026	19.957	-0.258	-0.211
-456.011	615.731	0.160	0.405
-454.997	-131.315	-0.050	-0.007
-453.982	-141.231	-0.080	0.008
-452.968	-200.000	0.022	0.249
-451.953	26.571	0.023	-0.019
-450.938	53.352	-0.219	0.212
-449.924	20.766	0.106	-0.087
-448.909	236.035	0.084	0.141
-447.895	372.826	0.137	0.282
-446.880	25.827	-0.166	0.140
-445.865	-122.362	-0.288	0.047
-444.851	178.164	-0.036	-0.053
-443.836	-26.001	-0.149	0.089
-442.822	-38.401	0.209	0.112
-441.807	93.573	-0.065	-0.074
-440.792	-177.705	-0.196	-0.005
-439.778	621.354	0.012	-0.032
-438.763	-113.044	0.090	0.018
-437.749	-154.728	-0.291	-0.020
-436.734	-16.373	0.300	-0.192
-435.719	800.000	-0.076	-0.239
-434.705	-75.271	0.039	0.014
-433.690	-161.150	0.286	-0.015
-432.676	-156.850	0.164	0.010
-431.661	-10.510	-0.085	-0.057
-430.646	-10.047	0.082	-0.055
-429.632	660.180	-0.052	-0.134
-428.617	-127.505	-0.455	0.067
-427.603	257.913	-0.127	-0.221
-426.588	-22.131	0.016	-0.010
-425.573	-97.777	-0.068	0.018
-424.559	-48.968	0.379	0.183
-423.544	101.473	0.065	-0.076
-422.530	83.944	0.074	-0.082
-421.515	-200.000	-0.000	-0.194
-420.500	800.000	0.016	-0.066
-419.486	-40.326	0.333	-0.175
-418.471	-107.622	0.089	-0.020
-417.457	70.947	0.276	0.289
-416.442	-200.000	-0.015	0.120
-415.428	36.946	0.084	-0.075
-414.413	374.507	-0.084	-0.173
-413.398	221.151	0.045	-0.072
-412.384	-69.404	0.211	0.082
-411.369	-200.000	-0.006	0.200
-410.355	764.619	-0.096	-0.264
-409.340	-32.527	0.061	0.034
-408.325	-101.747	0.230	-0.056
-407.311	-185.141	0.410	-0.006
-406.296	-89.272	0.247	-0.073
-405.282	-77.763	0.127	-0.044
-404.267	78.904	-0.148	0.160
-403.252	-62.342	0.215	-0.091
-402.238	-200.000	-0.035	0.427
-401.223	-33.815	-0.309	-0.172
-400.209	718.400	0.025	-0.067
-399.194	800.000	0.092	-0.335
-398.179	4.453	0.155	-0.115
-397.165	-6.609	-0.274	-0.188
-396.150	14.443	-0.132	-0.104
-395.136	330.859	0.193	-0.376
-394.121	455.523	-0.040	0.091
-393.106	50.185	-0.066	-0.063
-392.092	-163.652	-0.402	0.019
-391.077	625.680	0.072	0.183
-390.063	130.286	-0.110	0.142
-389.048	1.472	-0.194	-0.141
-388.033	800.000	0.054	-0.156
-387.019	-90.788	0.409	-0.119
-386.004	341.831	0.069	0.136
-384.990	-80.742	-0.078	-0.026
-383.975	287.847	-0.038	-0.069
-382.960	-33.017	0.120	-0.067
-381.946	30.379	0.039	-0.034
-380.931	12.969	0.126	-0.098
-379.917	-154.288	0.368	-0.025
-378.902	800.000	0.097	-0.289
-377.888	495.473	-0.001	0.003
-376.873	404.620	0.050	-0.107
-375.858	-150.823	0.317	-0.024
-374.844	232.766	-0.074	0.123
-373.829	-200.000	-0.028	0.220
-372.815	-200.000	-0.032	0.166
-371.800	627.414	-0.171	0.436
-370.785	800.000	-0.061	0.190
-369.771	800.000	-0.070	0.254
-368.756	-200.000	0.036	-0.162
-367.742	-24.467	0.094	-0.057
-366.727	-159.736	0.164	-0.009
-365.712	-139.170	-0.199	0.022
-364.698	234.500	0.069	-0.115
-363.683	-127.127	0.205	0.030
-362.669	-138.797	-0.299	-0.033
-361.654	-130.734	0.202	-0.027
-360.639	-200.000	0.030	-0.134
-359.625	-200.000	0.002	-0.294
-358.610	364.167	-0.104	-0.210
-357.596	33.036	-0.106	0.093
-356.581	-200.000	-0.003	-0.141
-355.566	-200.000	-0.004	0.036
-354.552	-200.000	-0.034	0.195
-353.537	51.883	0.117	0.112
-352.523	-50.036	-0.024	-0.012
-351.508	-200.000	0.012	0.073
-350.493	-94.057	0.137	-0.038
-349.479	11.158	0.155	0.120
-348.464	800.000	-0.100	0.402
-347.450	-63.678	-0.064	-0.026
-346.435	33.004	0.116	-0.102
-345.420	339.248	0.049	-0.095
-344.406	-87.599	0.105	0.032
-343.391	439.547	0.050	-0.109
-342.377	-69.555	-0.138	-0.053
-341.362	-110.314	0.485	-0.102
-340.348	-200.000	0.029	-0.595
-339.333	87.400	0.093	-0.104
-338.318	-200.000	-0.016	0.134
-337.304	-87.039	-0.143	-0.044
-336.289	-107.192	-0.176	-0.039
-335.275	-103.374	0.131	0.031
-334.260	678.473	0.195	-0.510
-333.245	-141.626	0.205	-0.021
-332.231	-104.623	0.068	0.016
-331.216	6.988	-0.062	0.046
-330.202	48.401	-0.295	-0.278
-329.187	-200.000	-0.008	-0.072
-328.172	-22.653	0.268	0.163
-327.158	-108.655	-0.353	0.076
-326.143	-198.278	0.371	0.002
-325.129	-200.000	0.091	0.452
-324.114	-200.000	0.000	0.090
-323.099	-200.000	-0.007	-0.048
-322.085	-200.000	0.012	-0.098
-321.070	145.195	-0.196	0.264
-320.056	70.326	0.077	0.080
-319.041	33.307	0.179	0.157
-318.026	-200.000	0.029	0.455
-317.012	-132.197	0.155	0.020
-315.997	-114.494	-0.153	-0.030
-314.983	55.092	-0.245	0.239
-313.968	55.478	0.277	0.270
-312.953	-68.377	-0.109	0.043
-311.939	-76.767	0.199	-0.070
-310.924	55.124	-0.272	0.265
-309.910	145.190	-0.062	0.083
-308.895	64.062	-0.196	-0.198
-307.880	-200.000	-0.049	-0.385
-306.866	-102.436	-0.161	0.039
-305.851	101.388	-0.057	0.066
-304.837	-79.794	0.266	-0.090
-303.822	2.542	-0.352	-0.256
-302.807	164.902	-0.148	0.210
-301.793	-36.252	-0.124	0.067
-300.778	-141.144	0.225	0.023
-299.764	324.550	-0.144	0.277
-298.749	-200.000	-0.015	0.274
-297.735	254.829	0.145	0.249
-296.720	-85.821	-0.386	0.120
-295.705	-64.024	-0.060	0.025
-294.691	217.649	-0.174	0.279
-293.676	54.704	-0.072	0.069
-292.662	280.575	-0.036	-0.064
-291.647	82.013	-0.170	-0.185
-290.632	-73.773	-0.235	-0.086
-289.618	-11.651	-0.306	0.202
-288.603	94.180	0.190	0.217
-287.589	-38.473	-0.211	-0.112
-286.574	-48.298	-0.315	-0.153
-285.559	182.172	-0.134	0.199
-284.545	-200.000	-0.013	0.310
-283.530	-101.996	-0.274	-0.066
-282.516	112.662	-0.143	0.175
-281.501	800.000	0.075	0.272
-280.486	30.451	-0.024	0.020
-279.472	-146.296	-0.136	-0.012
-278.457	124.770	0.119	0.151
-277.443	70.335	0.409	-0.425
-276.428	800.000	-0.066	0.209
-275.413	-83.659	-0.095	-0.031
-274.399	-200.000	0.044	-0.199
-273.384	800.000	-0.055	-0.227
-272.370	5.251	0.126	-0.093
-271.355	800.000	-0.097	-0.372
-270.340	-155.432	-0.320	-0.021
-269.326	357.914	0.174	0.348
-268.311	-11.664	0.231	0.152
-267.297	-200.000	-0.030	0.261
-266.282	265.420	0.118	-0.206
-265.267	326.229	0.089	-0.172
-264.253	-46.738	-0.222	0.109
-263.238	800.000	0.084	-0.252
-262.224	-136.118	0.111	-0.013
-261.209	-101.578	-0.352	0.086
-260.195	-200.000	0.022	-0.126
-259.180	452.810	-0.110	-0.244
-258.165	-131.486	0.509	-0.067
-257.151	-198.603	0.143	-0.001
-256.136	-35.781	-0.244	0.133
-255.122	-38.296	-0.138	0.073
-254.107	-200.000	0.018	-0.208
-253.092	-200.000	-0.037	0.233
-252.078	-16.426	0.067	0.043
-251.063	416.632	-0.121	-0.260
-250.049	95.120	0.040	0.045
-249.034	-75.798	-0.309	0.110
-248.019	-180.000	-0.273	-0.006
-247.005	-97.253	0.144	-0.038
-245.990	152.743	0.162	0.222
-244.976	800.000	0.023	0.099
-243.961	-46.683	0.221	0.108
-242.946	-143.871	0.118	-0.011
-241.932	109.694	0.108	-0.130
-240.917	-200.000	-0.004	0.198
-239.903	447.869	0.177	0.392
-238.888	-173.051	-0.252	-0.008
-237.873	31.408	0.203	0.175
-236.859	249.051	-0.012	0.021
-235.844	102.840	0.158	-0.186
-234.830	-92.056	0.086	0.024
-233.815	612.695	-0.083	-0.209
-232.800	-200.000	-0.033	0.266
-231.786	-200.000	-0.005	-0.063
-230.771	17.459	0.130	0.103
-229.757	-50.229	-0.061	-0.029
-228.742	14.971	-0.151	0.119
-227.727	-2.008	-0.180	-0.127
-226.713	-16.955	0.216	0.137
-225.698	-139.077	-0.338	-0.037
-224.684	38.020	-0.243	-0.216
-223.669	-49.452	-0.263	0.126
-222.655	-200.000	0.008	0.062
-221.640	-180.233	0.083	0.002
-220.625	713.450	0.106	0.282
-219.611	-200.000	0.004	0.144
-218.596	169.348	0.096	0.137
-217.582	-16.270	0.133	0.084
-216.567	-200.000	-0.005	0.085
-215.552	-200.000	0.059	0.325
-214.538	-25.524	0.281	0.166
-213.523	-167.544	-0.289	0.012
-212.509	-105.354	0.257	-0.059
-211.494	15.871	0.127	0.100
-210.479	18.863	0.430	0.345
-209.465	-200.000	-0.027	0.526
-208.450	-200.000	-0.069	0.317
-207.436	451.907	0.043	0.094
-206.421	-99.122	-0.140	-0.035
-205.406	800.000	0.063	-0.224
-204.392	-35.924	0.214	-0.116
-203.377	-21.872	-0.012	0.007
-202.363	1.486	0.084	0.061
-201.348	-28.619	-0.345	0.199
-200.333	-200.000	0.021	0.154
-199.319	-200.000	-0.055	-0.357
-198.304	800.000	0.042	0.137
-197.290	-200.000	-0.035	-0.209
-196.275	206.522	-0.097	-0.152
-195.260	122.663	0.158	-0.198
-194.246	437.811	-0.077	-0.168
-193.231	-200.000	0.016	0.087
-192.217	-200.000	-0.079	0.406
-191.202	-88.987	0.213	-0.063
-190.187	-200.000	-0.039	0.415
-189.173	85.581	0.096	-0.105
-188.158	-45.954	0.169	0.083
-187.144	-200.000	0.007	-0.130
-186.129	12.559	-0.046	0.036
-185.114	-97.260	0.121	-0.032
-184.100	-200.000	0.016	0.288
-183.085	-21.275	0.417	0.255
-182.071	-68.746	-0.311	-0.120
-181.056	11.885	0.275	-0.212
-180.042	-133.025	0.218	-0.028
-179.027	-0.564	-0.292	-0.208
-178.012	21.008	0.132	0.107
-176.998	-17.846	0.384	-0.241
-175.983	102.786	0.117	0.138
-174.969	-200.000	0.005	0.099
-173.954	165.875	-0.227	-0.322
-172.939	-43.384	0.011	-0.006
-171.925	-126.949	-0.112	0.016
-170.910	-66.033	0.256	-0.102
-169.896	-200.000	-0.141	-0.001
-168.881	-200.000	-0.009	-0.319
-167.866	-71.132	0.096	-0.036
-166.852	241.787	-0.063	0.105
-165.837	-200.000	-0.012	-0.140
-164.823	-44.274	0.300	0.150
-163.808	125.540	-0.202	0.255
-162.793	-68.336	0.234	-0.091
-161.779	22.963	0.200	-0.164
-160.764	-200.000	0.018	-0.123
-159.750	393.234	-0.053	-0.111
-158.735	33.018	0.165	-0.143
-157.720	-82.958	-0.151	-0.049
-156.706	800.000	0.039	-0.131
-155.691	800.000	0.035	-0.110
-154.677	-63.324	0.317	-0.131
-153.662	330.837	-0.064	-0.124
-152.647	397.571	-0.166	-0.347
-151.633	-200.000	-0.004	-0.036
-150.618	-200.000	-0.028	0.188
-149.604	23.197	-0.231	-0.190
-148.589	368.205	0.235	-0.476
-147.574	22.551	0.171	0.140
-146.560	-200.000	0.006	0.048
-145.545	432.196	0.170	0.369
-144.531	800.000	-0.045	-0.169
-143.516	-115.103	0.298	0.057
-142.502	-200.000	-0.005	-0.245
-141.487	-200.000	-0.013	0.066
-140.472	28.267	-0.140	-0.118
-139.458	-27.490	0.132	0.077
-138.443	156.336	0.091	-0.126
-137.429	265.402	-0.081	-0.141
-136.414	-200.000	0.036	-0.276
-135.399	-200.000	-0.062	-0.312
-134.385	800.000	0.065	-0.193
-133.370	-97.407	0.103	-0.027
-132.356	76.040	-0.182	-0.192
-131.341	-89.929	-0.388	0.113
-130.326	-200.000	-0.009	0.183
-129.312	-44.883	0.132	0.066
-128.297	-200.000	-0.074	-0.343
-127.283	34.859	0.217	0.190
-126.268	800.000	-0.069	-0.192
-125.253	43.730	0.066	0.061
-124.239	-17.188	-0.240	-0.151
-123.224	-76.689	-0.237	-0.083
-122.210	53.752	-0.358	0.344
-121.195	-200.000	0.003	-0.108
-120.180	-130.391	0.094	0.013
-119.166	-36.263	0.189	0.102
-118.151	-98.010	-0.286	0.073
-117.137	-5.256	0.057	-0.039
-116.122	-77.614	-0.132	-0.046
-115.107	76.534	0.225	0.238
-114.093	24.370	0.310	0.256
-113.078	14.099	-0.043	0.034
-112.064	428.536	-0.079	0.170
-111.049	116.271	-0.272	-0.332
-110.034	309.300	-0.072	-0.133
-109.020	177.103	-0.130	0.188
-108.005	77.585	0.146	-0.155
-106.991	120.936	0.298	0.370
-105.976	84.312	0.077	-0.085
-104.962	125.480	-0.048	-0.060
-103.947	10.612	-0.108	-0.082
-102.932	33.221	-0.060	0.052
-101.918	-112.501	0.312	-0.062
-100.903	800.000	-0.120	0.366
-99.889	109.274	0.070	0.083
-98.874	-50.877	-0.213	0.100
-97.859	24.623	0.210	0.173
-96.845	-73.366	0.089	-0.032
-95.830	800.000	-0.107	0.419
-94.816	-66.474	-0.141	-0.056
-93.801	-146.486	-0.085	0.007
-92.786	-200.000	0.031	0.198
-91.772	263.497	0.053	0.092
-90.757	-79.861	0.197	-0.066
-89.743	800.000	-0.040	0.124
-88.728	-113.451	0.269	0.053
-87.713	-145.253	-0.101	-0.009
-86.699	-4.213	-0.098	-0.068
-85.684	800.000	-0.009	-0.031
-84.670	-43.144	-0.195	-0.098
-83.655	128.154	-0.336	0.426
-82.640	-200.000	0.005	0.148
-81.626	-200.000	-0.030	-0.251
-80.611	-200.000	0.053	-0.380
-79.597	-48.950	-0.226	0.108
-78.582	141.174	0.243	0.321
-77.567	113.491	0.115	-0.139
-76.553	-91.264	-0.228	-0.065
-75.538	-61.392	0.147	0.061
-74.524	-97.574	-0.230	0.060
-73.509	-200.000	-0.043	0.384
-72.494	800.000	0.062	0.172
-71.480	-177.648	0.189	0.005
-70.465	-200.000	0.014	0.074
-69.451	321.761	-0.131	0.248
-68.436	139.160	0.081	0.106
-67.422	74.591	-0.067	-0.071
-66.407	-22.058	0.250	-0.151
-65.392	-113.840	0.090	0.017
-64.378	800.000	-0.078	0.281
-63.363	800.000	0.064	0.217
-62.349	441.032	0.039	0.084
-61.334	36.115	-0.865	-0.759
-60.319	10.751	0.310	0.236
-59.305	800.000	0.181	-0.498
-58.290	306.701	0.380	0.706
-57.276	312.635	0.805	1.506
-56.261	-200.000	70.828	533.013
-55.246	582.773	1280.851	3130.958
-54.232	140.547	2535.986	3335.523
-53.217	122.298	2248.395	2797.906
-52.203	57.222	1687.361	1639.850
-51.188	48.115	1401.727	1305.428
-50.173	44.106	1353.042	1235.681
-49.159	61.977	1384.328	1374.170
-48.144	70.930	1402.869	1447.212
-47.130	48.488	1366.680	1274.863
-46.115	44.010	1350.692	1232.752
-45.100	43.786	1345.810	1226.892
-44.086	43.730	1343.432	1224.336
-43.071	43.643	1341.236	1221.759
-42.057	43.618	1338.730	1219.277
-41.042	43.605	1336.934	1217.519
-40.027	43.679	1335.245	1216.375
-39.013	43.628	1333.674	1214.591
-37.998	43.776	1331.799	1213.720
-36.984	43.852	1329.706	1212.223
-35.969	43.842	1328.623	1211.126
-34.954	43.704	1327.100	1208.866
-33.940	43.880	1324.827	1207.794
-32.925	43.854	1324.016	1206.852
-31.911	43.839	1322.398	1205.243
-30.896	43.936	1320.231	1203.798
-29.881	44.008	1319.174	1203.209
-28.867	43.873	1317.825	1201.134
-27.852	43.956	1315.823	1199.753
-26.838	43.936	1314.465	1198.346
-25.823	43.887	1313.239	1196.892
-24.809	43.841	1312.400	1195.809
-23.794	43.928	1310.395	1194.446
-22.779	43.907	1308.973	1192.981
-21.765	43.911	1307.715	1191.807
-20.750	43.922	1306.459	1190.682
-19.736	43.842	1304.947	1188.790
-18.721	43.785	1304.042	1187.581
-17.706	43.780	1302.967	1186.525
-16.692	43.782	1301.385	1185.052
-15.677	43.744	1300.678	1184.138
-14.663	43.682	1299.873	1182.995
-13.648	43.638	1298.784	1181.702
-12.633	43.772	1296.947	1180.764
-11.619	43.710	1296.840	1180.260
-10.604	43.721	1295.784	1179.312
-9.590	43.737	1294.491	1178.181
-8.575	43.671	1293.872	1177.186
-7.560	43.695	1292.328	1175.879
-6.546	43.615	1292.033	1175.097
-5.531	43.683	1290.757	1174.283
-4.517	43.698	1289.861	1173.507
-3.502	43.845	1289.015	1173.543
-2.487	43.755	1288.157	1172.198
-1.473	43.948	1284.592	1170.020
-0.458	43.158	1269.855	1152.039
0.556	37.520	1249.198	1110.119
1.571	32.674	1250.811	1083.677
2.586	30.691	1263.714	1083.228
3.600	28.251	1251.807	1058.832
4.615	21.374	1176.703	957.685
5.629	11.137	1096.054	839.463
6.644	6.054	1071.341	794.801
7.659	5.512	1068.356	789.781
8.673	5.381	1066.846	787.935
9.688	5.216	1065.800	786.265
10.702	5.819	1064.618	788.352
11.717	11.639	1073.098	823.979
12.731	18.993	1083.770	869.405
13.746	19.738	1082.919	872.407
14.761	17.476	1079.510	858.196
15.775	16.367	1077.106	850.625
16.790	15.284	1074.741	843.236
17.804	14.552	1073.214	838.286
18.819	14.146	1072.026	835.250
19.834	13.879	1070.899	832.957
20.848	13.538	1070.295	830.702
21.863	13.372	1069.237	828.978
22.877	13.212	1068.783	827.748
23.892	13.197	1067.751	826.802
24.907	13.167	1067.171	826.127
25.921	13.321	1065.795	825.761
26.936	13.341	1064.750	824.978
27.950	13.275	1063.280	823.437
28.965	13.419	1061.774	822.913
29.980	13.362	1060.290	821.406
30.994	13.494	1058.981	820.977
32.009	13.485	1058.057	820.142
33.023	13.533	1056.919	819.426
34.038	13.437	1055.999	818.165
35.053	13.332	1055.189	816.944
36.067	13.313	1054.338	816.122
37.082	13.351	1053.399	815.509
38.096	13.445	1052.636	815.311
39.111	13.491	1051.719	814.752
40.126	13.223	1050.727	812.598
41.140	13.283	1049.355	811.759
42.155	13.147	1048.299	810.202
43.169	13.209	1046.888	809.343
44.184	13.135	1046.040	808.252
45.199	13.109	1045.062	807.301
46.213	13.213	1043.796	806.758
47.228	13.317	1042.548	806.228
48.242	13.318	1041.835	805.613
49.257	13.290	1040.845	804.636
50.271	13.461	1039.877	804.648
51.286	13.438	1039.212	803.951
52.301	13.478	1037.892	803.056
53.315	13.301	1036.919	801.371
54.330	13.211	1035.732	799.947
55.344	13.250	1035.370	799.790
56.359	13.316	1033.688	798.738
57.374	13.219	1033.092	797.736
58.388	13.182	1032.304	796.878
59.403	13.176	1031.425	796.101
60.417	13.141	1030.436	795.097
61.432	13.228	1029.814	794.969
62.447	13.023	1029.168	793.411
63.461	13.117	1028.303	793.125
64.476	13.076	1027.330	792.111
65.490	12.962	1026.516	790.867
66.505	13.032	1025.727	790.521
67.520	13.157	1024.943	790.449
68.534	13.101	1024.002	789.382
69.549	13.136	1023.582	789.155
70.563	13.172	1022.625	788.523
71.578	13.077	1022.058	787.561
72.593	12.993	1021.100	786.354
73.607	12.946	1020.390	785.512
74.622	13.037	1019.353	785.080
75.636	13.021	1018.828	784.529
76.651	13.021	1017.923	783.763
77.666	13.055	1017.523	783.544
78.680	12.991	1017.314	783.010
79.695	13.062	1016.526	782.671
80.709	13.153	1015.706	782.402
81.724	13.238	1015.233	782.370
82.739	13.201	1014.446	781.519
83.753	13.262	1013.812	781.254
84.768	13.477	1012.426	781.129
85.782	13.450	1011.861	780.498
86.797	13.455	1010.739	779.586
87.812	13.368	1009.960	778.509
88.826	13.346	1008.959	777.564
89.841	13.324	1008.237	776.837
90.855	13.452	1006.857	776.305
91.870	13.473	1006.235	775.852
92.884	13.431	1005.767	775.227
93.899	13.442	1004.734	774.413
94.914	13.513	1004.080	774.173
95.928	13.499	1003.524	773.612
96.943	13.444	1002.489	772.486
97.957	13.464	1001.571	771.806
98.972	13.436	1000.476	770.763
99.987	13.437	999.506	769.949
101.001	13.461	998.597	769.296
102.016	13.256	998.305	768.049
103.030	13.411	997.374	767.986
104.045	13.354	996.683	767.122
105.060	13.384	995.389	766.195
106.074	13.285	994.736	765.167
107.089	13.223	993.214	763.640
108.103	13.158	992.478	762.707
109.118	13.175	991.540	761.998
110.133	13.046	991.196	761.074
111.147	13.231	990.149	761.054
112.162	13.335	989.066	760.631
113.176	13.356	988.190	759.987
114.191	13.432	987.564	759.786
115.206	13.354	986.590	758.612
116.220	13.387	985.767	758.062
117.235	13.312	985.127	757.163
118.249	13.275	984.088	756.127
119.264	13.266	983.598	755.640
120.279	13.179	982.940	754.673
121.293	13.237	981.750	753.955
122.308	13.356	980.200	753.241
123.322	13.275	979.585	752.333
124.337	13.236	978.639	751.361
125.352	13.174	977.523	750.156
126.366	13.188	976.884	749.667
127.381	13.138	975.977	748.678
128.395	13.246	974.695	748.113
129.410	13.404	973.823	748.093
130.424	13.447	972.696	747.357
131.439	13.437	972.641	747.203
132.454	13.378	971.678	746.132
133.468	13.424	970.509	745.373
134.483	13.443	970.129	745.100
135.497	13.404	969.340	744.254
136.512	13.445	968.944	744.069
137.527	13.563	967.253	743.234
138.541	13.470	967.042	742.589
139.556	13.501	966.401	742.168
140.570	13.500	965.718	741.576
141.585	13.619	964.560	741.154
142.600	13.596	963.758	740.370
143.614	13.654	962.966	739.953
144.629	13.820	962.195	740.034
145.643	13.741	961.305	738.932
146.658	13.640	960.129	737.513
147.673	13.546	959.499	736.547
148.687	13.435	958.849	735.492
149.702	13.534	957.316	734.690
150.716	13.474	956.765	733.935
151.731	13.519	956.044	733.517
152.746	13.373	955.922	732.711
153.760	13.448	954.928	732.217
154.775	13.455	954.106	731.552
155.789	13.564	953.608	731.585
156.804	13.539	952.638	730.668
157.819	13.542	952.168	730.258
158.833	13.723	951.441	730.432
159.848	13.773	950.624	729.958
160.862	13.557	949.687	728.227
161.877	13.568	948.276	727.129
162.892	13.552	947.383	726.310
163.906	13.567	946.496	725.631
164.921	13.564	945.861	725.065
165.935	13.590	944.571	724.126
166.950	13.565	943.908	723.443
167.964	13.639	943.002	723.009
168.979	13.549	942.279	721.997
169.994	13.671	941.281	721.701
171.008	13.645	940.685	721.068
172.023	13.692	940.312	720.922
173.037	13.730	939.457	720.366
174.052	13.724	939.102	720.004
175.067	13.561	938.582	718.834
176.081	13.582	937.550	718.074
177.096	13.524	937.398	717.643
178.110	13.687	936.182	717.354
179.125	13.774	935.675	717.277
180.140	13.676	935.209	716.433
181.154	13.659	934.880	716.043
182.169	13.776	934.408	716.126
183.183	13.950	933.408	716.043
184.198	13.941	932.693	715.395
185.213	13.911	932.455	715.019
186.227	13.835	931.381	713.803
187.242	13.856	931.061	713.589
188.256	14.026	930.362	713.718
189.271	14.016	929.310	712.807
190.286	13.832	928.572	711.387
191.300	13.628	927.950	709.975
192.315	13.510	927.402	708.989
193.329	13.694	926.853	709.291
194.344	13.805	925.978	709.033
195.359	13.916	925.305	708.930
196.373	13.898	924.965	708.530
197.388	13.925	924.680	708.361
198.402	14.103	924.302	708.771
199.417	14.143	923.613	708.350
200.432	14.272	922.858	708.254
201.446	14.233	922.177	707.505
202.461	14.198	921.859	707.052
203.475	14.255	921.332	706.825
204.490	14.146	920.743	705.847
205.504	14.121	919.626	704.822
206.519	14.170	918.760	704.306
207.534	14.082	918.409	703.603
208.548	14.129	917.389	702.958
209.563	14.130	916.729	702.392
210.577	14.130	916.277	701.984
211.592	14.246	915.602	701.894
212.607	14.288	914.935	701.498
213.621	14.253	914.164	700.695
214.636	14.247	913.377	700.005
215.650	14.403	912.703	700.083
216.665	14.286	912.105	699.070
217.680	14.355	911.552	698.877
218.694	14.486	910.507	698.560
219.709	14.478	910.053	698.118
220.723	14.295	909.669	696.993
221.738	14.433	908.943	696.956
222.753	14.383	908.436	696.294
223.767	14.462	907.789	696.066
224.782	14.471	907.022	695.456
225.796	14.671	906.185	695.585
226.811	14.529	905.882	694.701
227.826	14.534	904.989	693.976
228.840	14.436	903.943	692.706
229.855	14.528	902.985	692.291
230.869	14.474	902.527	691.655
231.884	14.399	902.027	690.898
232.899	14.442	901.151	690.345
233.913	14.370	901.122	689.961
234.928	14.333	900.237	689.071
235.942	14.428	899.352	688.724
236.957	14.434	898.825	688.286
237.972	14.422	898.444	687.885
238.986	14.395	897.816	687.229
240.001	14.561	896.763	687.047
241.015	14.522	896.353	686.512
242.030	14.424	896.083	685.841
243.045	14.542	895.302	685.667
244.059	14.598	894.510	685.229
245.074	14.616	893.955	684.820
246.088	14.742	892.901	684.468
247.103	14.701	892.627	684.027
248.117	14.744	892.220	683.832
249.132	14.945	891.603	684.122
250.147	14.994	890.854	683.685
251.161	15.024	890.306	683.327
252.176	15.002	889.818	682.801
253.190	15.096	888.865	682.395
254.205	14.979	888.434	681.526
255.220	15.059	887.572	681.129
256.234	15.115	887.100	680.937
257.249	15.035	886.661	680.212
258.263	15.098	885.514	679.528
259.278	15.086	885.246	679.214
260.293	15.104	884.976	679.020
261.307	14.984	884.331	677.979
262.322	15.279	882.971	678.071
263.336	15.212	882.611	677.462
264.351	15.111	882.074	676.583
265.366	15.215	881.434	676.450
266.380	15.232	880.685	675.886
267.395	15.277	879.906	675.411
268.409	15.276	879.356	674.924
269.424	15.227	878.416	673.946
270.439	14.999	877.777	672.479
271.453	15.075	877.469	672.489
272.468	15.295	876.656	672.690
273.482	15.362	876.009	672.399
274.497	15.235	875.559	671.488
275.512	15.172	875.133	670.848
276.526	15.171	874.484	670.287
277.541	15.210	874.619	670.489
278.555	15.291	873.374	669.797
279.570	15.400	872.609	669.588
280.585	15.456	871.704	669.059
281.599	15.471	871.158	668.638
282.614	15.462	870.357	667.928
283.628	15.366	870.124	667.308
284.643	15.301	869.585	666.578
285.657	15.374	868.869	666.259
286.672	15.408	867.886	665.580
287.687	15.523	867.371	665.583
288.701	15.608	866.570	665.246
289.716	15.423	866.873	664.690
290.730	15.502	866.106	664.352
291.745	15.473	865.377	663.619
292.760	15.611	864.427	663.377
293.774	15.743	864.007	663.517
294.789	15.669	863.201	662.549
295.803	15.541	862.899	661.756
296.818	15.559	862.239	661.261
297.833	15.658	861.245	660.829
298.847	15.650	860.819	660.410
299.862	15.493	860.283	659.326
300.876	15.552	859.836	659.157
301.891	15.731	859.343	659.421
302.906	15.682	858.880	658.818
303.920	15.885	858.062	658.927
304.935	15.896	857.461	658.448
305.949	15.866	857.115	658.007
306.964	15.860	856.185	657.211
307.979	15.918	855.666	656.983
308.993	15.823	855.530	656.447
310.008	15.805	854.818	655.775
311.022	15.892	854.069	655.479
312.037	15.822	853.635	654.817
313.052	15.780	853.148	654.224
314.066	15.690	852.369	653.217
315.081	15.730	851.935	652.983
316.095	15.825	850.962	652.547
317.110	15.791	850.359	651.895
318.125	15.718	850.237	651.460
319.139	15.781	849.771	651.292
320.154	15.777	849.159	650.749
321.168	15.798	848.704	650.422
322.183	15.831	848.135	650.057
323.197	15.840	847.246	649.352
324.212	15.912	847.223	649.556
325.227	15.956	846.338	648.987
326.241	15.901	846.049	648.497
327.256	15.874	845.410	647.848
328.270	15.889	844.968	647.508
329.285	15.904	844.308	647.002
330.300	15.955	843.507	646.526
331.314	15.996	843.072	646.293
332.329	15.983	842.468	645.726
333.343	16.017	842.517	645.833
334.358	15.951	842.087	645.197
335.373	16.074	841.331	645.030
336.387	16.079	841.384	645.031
337.402	16.239	840.644	645.018
338.416	16.304	840.473	645.080
339.431	16.103	840.497	644.273
340.446	16.122	840.338	644.168
341.460	16.314	839.614	644.286
342.475	16.314	839.031	643.783
343.489	16.335	838.561	643.444
344.504	16.245	838.251	642.809
345.519	16.229	837.997	642.495
346.533	16.355	836.866	642.049
347.548	16.446	836.528	642.079
348.562	16.486	835.626	641.481
349.577	16.185	835.336	640.060
350.592	16.317	834.572	639.919
351.606	16.344	834.042	639.558
352.621	16.285	833.395	638.782
353.635	16.238	832.647	637.975
354.650	16.359	831.717	637.662
355.665	16.286	831.576	637.225
356.679	16.382	830.802	636.934
357.694	16.452	829.966	636.501
358.708	16.550	829.508	636.464
359.723	16.501	829.415	636.152
360.738	16.454	828.446	635.175
361.752	16.577	827.763	635.057
362.767	16.717	827.133	635.044
363.781	16.529	826.776	634.008
364.796	16.664	826.425	634.188
365.810	16.753	825.975	634.119
366.825	16.741	825.687	633.799
367.840	16.833	825.106	633.638
368.854	16.664	824.383	632.396
369.869	16.686	824.172	632.261
370.883	16.777	823.752	632.224
371.898	16.855	823.631	632.364
372.913	16.892	823.016	631.974
373.927	16.812	822.277	631.052
374.942	16.743	822.031	630.551
375.956	16.941	821.944	631.167
376.971	16.862	821.171	630.225
377.986	17.064	820.726	630.576
379.000	16.875	820.447	629.603
380.015	17.051	819.700	629.630
381.029	16.954	819.103	628.756
382.044	17.091	818.392	628.661
383.059	16.983	817.952	627.869
384.073	17.064	817.252	627.575
385.088	17.043	816.652	626.981
386.102	16.914	816.407	626.260
387.117	16.979	815.655	625.867
388.132	16.889	814.912	624.909
389.146	16.991	814.369	624.815
390.161	17.100	814.150	624.991
391.175	17.085	813.511	624.390
392.190	17.090	813.213	624.125
393.205	17.011	812.552	623.274
394.219	16.970	812.480	623.012
395.234	17.079	811.778	622.819
396.248	16.935	811.748	622.212
397.263	16.988	810.951	621.742
398.278	16.836	810.874	621.068
399.292	16.932	810.356	620.970
400.307	16.972	809.828	620.655
401.321	16.944	809.416	620.181
402.336	17.100	808.893	620.296
403.350	17.215	808.127	620.073
404.365	17.275	807.797	619.985
405.380	17.337	807.368	619.828
406.394	17.290	806.808	619.171
407.409	17.275	806.653	618.944
408.423	17.368	806.090	618.793
409.438	17.399	806.036	618.812
410.453	17.342	805.530	618.159
411.467	17.468	805.107	618.239
412.482	17.400	804.748	617.661
413.496	17.548	803.979	617.553
414.511	17.478	803.638	616.982
415.526	17.625	803.284	617.188
416.540	17.527	803.131	616.664
417.555	17.520	802.539	616.128
418.569	17.554	802.139	615.889
419.584	17.443	801.786	615.164
420.599	17.688	801.043	615.423
421.613	79.732	1241.538	1287.417
422.628	67.565	1305.748	1287.572
