DTS Sentinel unit serial number:	SN413079Multiplexer serial number:	ORYXHardware model number:	OX4-SRSoftware version number:	ORYX F/W v4.00 Oryx Data Collector v3.7.2.0data status	okinstallation	princeton_trtdifferential loss correction	single-endedforward channel	channel 1reverse channel	N/Adate	2019/09/12time	11:32:11forward acquisition time	60.00reverse acquisition time	0.00gamma	496.2192k internal	0.2294k external	0.2294temperature offset calibration	1.0040default loss term (dB/km)	0.3790temperature slope calibration	1.0000multiplexer offset coefficient	1.0000multiplexer slope coefficient	1.0000fibre end	0.00T internal ref (°C)	39.42T ext. ref 1 (°C)	1.96T ext. ref 2 (°C)	36.53length (m)	temperature (°C)	Stokes	anti-Stokes-747.200	-90.051	-0.264	-0.079
-746.185	65.216	-0.202	-0.209
-745.171	-94.353	-0.389	-0.109
-744.156	-200.000	0.029	0.222
-743.142	800.000	0.073	0.291
-742.127	-200.000	0.006	0.094
-741.112	-181.142	0.417	-0.009
-740.098	284.403	0.245	0.450
-739.083	158.356	-0.126	0.179
-738.069	800.000	0.032	-0.132
-737.054	-124.924	-0.197	0.031
-736.039	4.549	-0.373	0.280
-735.025	-73.162	0.063	0.024
-734.010	204.067	0.103	-0.163
-732.996	800.000	-0.017	0.055
-731.981	800.000	0.116	0.428
-730.966	501.837	-0.105	0.248
-729.952	-129.247	-0.287	0.041
-728.937	114.233	0.218	-0.271
-727.923	-200.000	-0.013	-0.195
-726.908	-200.000	-0.064	-0.297
-725.894	-145.987	-0.070	0.006
-724.879	515.461	-0.111	0.265
-723.864	-59.345	0.133	0.058
-722.850	-63.749	-0.274	0.115
-721.835	-3.596	-0.081	-0.057
-720.821	-95.379	-0.246	-0.068
-719.806	800.000	-0.134	-0.393
-718.791	361.651	-0.138	0.283
-717.777	800.000	0.109	-0.323
-716.762	-17.215	0.187	0.120
-715.748	-76.883	0.373	-0.133
-714.733	60.561	-0.230	-0.232
-713.718	87.566	-0.176	-0.199
-712.704	-13.198	-0.116	-0.077
-711.689	-16.848	-0.074	-0.048
-710.675	35.862	-0.237	0.213
-709.660	-102.992	0.022	-0.005
-708.645	60.274	0.128	-0.129
-707.631	-18.168	-0.287	0.183
-706.616	-200.000	0.005	0.119
-705.602	-55.942	-0.141	-0.064
-704.587	-200.000	-0.033	-0.158
-703.572	-52.753	-0.243	0.114
-702.558	-88.572	-0.145	-0.044
-701.543	59.883	-0.111	-0.112
-700.529	-21.541	0.216	-0.134
-699.514	91.867	-0.126	0.145
-698.499	68.575	-0.282	-0.295
-697.485	-200.000	0.010	0.391
-696.470	-8.573	-0.267	-0.183
-695.456	369.473	-0.093	0.191
-694.441	-44.212	0.130	0.067
-693.426	-135.224	0.284	0.035
-692.412	-25.478	-0.284	0.171
-691.397	-23.380	-0.279	0.171
-690.383	85.484	0.057	0.063
-689.368	-200.000	-0.050	0.318
-688.354	800.000	-0.079	-0.295
-687.339	-68.476	-0.161	-0.064
-686.324	98.896	-0.215	0.253
-685.310	-200.000	-0.066	0.297
-684.295	675.380	0.026	-0.068
-683.281	-154.310	0.200	0.014
-682.266	-93.653	-0.324	0.091
-681.251	-45.921	-0.210	-0.106
-680.237	-63.966	0.293	-0.122
-679.222	629.888	0.144	-0.370
-678.208	-84.891	-0.144	0.046
-677.193	800.000	0.021	0.094
-676.178	-200.000	0.000	0.020
-675.164	-200.000	-0.185	0.000
-674.149	-200.000	0.027	0.289
-673.135	-86.127	-0.154	-0.049
-672.120	-32.490	-0.165	-0.094
-671.105	253.138	0.184	0.320
-670.091	148.937	-0.159	0.219
-669.076	370.413	-0.090	0.186
-668.062	5.894	-0.216	0.163
-667.047	64.454	0.172	-0.177
-666.032	658.095	-0.149	0.390
-665.018	94.267	-0.094	-0.109
-664.003	173.868	-0.057	0.084
-662.989	-120.280	0.081	0.014
-661.974	13.615	0.148	-0.117
-660.959	50.089	-0.092	0.089
-659.945	499.268	-0.071	-0.167
-658.930	506.683	0.061	0.145
-657.916	-200.000	0.034	-0.160
-656.901	-63.224	-0.108	0.045
-655.886	-111.831	-0.257	0.053
-654.872	96.382	-0.226	0.263
-653.857	98.076	0.066	-0.077
-652.843	3.842	-0.256	-0.190
-651.828	-60.845	-0.242	0.105
-650.814	-12.230	0.122	-0.081
-649.799	154.995	0.090	-0.126
-648.784	-156.898	0.134	-0.008
-647.770	-200.000	0.013	-0.085
-646.755	800.000	-0.025	0.102
-645.741	-4.683	-0.064	-0.045
-644.726	171.177	0.208	0.303
-643.711	418.852	-0.099	0.215
-642.697	170.827	-0.055	-0.081
-641.682	-53.324	-0.192	-0.090
-640.668	800.000	0.130	-0.469
-639.653	-106.268	-0.185	-0.042
-638.638	-26.826	0.217	0.129
-637.624	-200.000	-0.034	-0.429
-636.609	77.425	0.268	-0.290
-635.595	177.393	-0.206	-0.306
-634.580	66.253	-0.260	0.269
-633.565	134.002	-0.169	0.223
-632.551	176.584	0.083	-0.123
-631.536	-101.860	-0.156	-0.038
-630.522	-200.000	0.017	0.184
-629.507	216.591	-0.129	0.209
-628.492	-115.224	0.090	-0.017
-627.478	118.069	0.271	0.340
-626.463	17.507	-0.270	0.219
-625.449	-200.000	-0.028	0.416
-624.434	800.000	0.159	0.703
-623.419	-76.245	0.207	-0.074
-622.405	-89.198	0.294	0.088
-621.390	800.000	0.082	-0.249
-620.376	34.084	0.163	-0.144
-619.361	235.526	-0.042	-0.071
-618.346	-200.000	-0.061	-0.401
-617.332	66.222	0.205	-0.212
-616.317	92.407	-0.194	0.223
-615.303	251.720	0.218	0.378
-614.288	-16.712	0.113	0.073
-613.273	92.546	-0.305	-0.350
-612.259	101.440	-0.310	-0.368
-611.244	34.930	-0.249	-0.221
-610.230	-76.238	-0.101	-0.036
-609.215	26.170	-0.254	-0.216
-608.201	-31.631	-0.300	-0.171
-607.186	800.000	0.074	-0.307
-606.171	26.188	0.113	0.096
-605.157	-200.000	0.017	-0.131
-604.142	-44.248	-0.198	-0.101
-603.128	-27.620	0.119	0.071
-602.113	-156.532	-0.362	-0.023
-601.098	63.065	-0.237	0.242
-600.084	80.583	-0.023	-0.026
-599.069	469.243	-0.059	0.134
-598.055	235.003	-0.160	0.269
-597.040	134.109	-0.191	0.251
-596.025	-200.000	0.018	-0.086
-595.011	-93.217	0.110	0.031
-593.996	-200.000	-0.004	0.084
-592.982	37.421	-0.122	-0.110
-591.967	800.000	-0.088	-0.347
-590.952	150.952	-0.085	0.117
-589.938	-200.000	0.009	0.222
-588.923	-200.000	0.007	-0.171
-587.909	9.575	-0.198	0.153
-586.894	-200.000	-0.064	0.312
-585.879	627.752	0.087	0.225
-584.865	-84.378	0.155	0.050
-583.850	-200.000	-0.051	0.234
-582.836	-84.456	-0.282	-0.090
-581.821	107.525	-0.125	-0.151
-580.806	19.516	0.170	-0.139
-579.792	-70.279	-0.242	-0.093
-578.777	150.913	-0.078	0.108
-577.763	-200.000	-0.028	0.473
-576.748	120.072	0.226	0.285
-575.733	73.311	-0.095	-0.101
-574.719	-126.002	0.373	-0.057
-573.704	-69.717	0.128	-0.050
-572.690	-200.000	-0.021	-0.134
-571.675	-200.000	0.002	-0.070
-570.661	57.045	0.179	0.178
-569.646	168.384	0.075	-0.109
-568.631	-57.235	0.031	0.014
-567.617	-200.000	-0.092	0.543
-566.602	-200.000	-0.041	0.501
-565.588	800.000	0.081	0.277
-564.573	677.311	0.125	0.330
-563.558	-89.625	0.309	-0.092
-562.544	125.351	-0.172	0.220
-561.529	-96.573	-0.085	-0.023
-560.515	-176.210	0.214	-0.006
-559.500	30.569	0.047	0.041
-558.485	-120.926	0.350	-0.060
-557.471	23.963	0.304	0.255
-556.456	-182.000	-0.221	0.004
-555.442	-142.003	0.149	-0.015
-554.427	-125.476	0.503	-0.078
-553.412	-55.595	0.106	0.048
-552.398	-161.869	-0.076	-0.004
-551.383	800.000	0.089	0.255
-550.369	48.826	0.226	0.215
-549.354	-23.072	-0.281	-0.172
-548.339	800.000	-0.054	-0.206
-547.325	712.040	-0.084	-0.224
-546.310	-200.000	-0.040	-0.264
-545.296	800.000	0.075	-0.270
-544.281	-159.709	0.260	-0.015
-543.266	11.107	-0.237	0.184
-542.252	244.471	-0.084	-0.144
-541.237	-41.084	-0.137	0.072
-540.223	430.101	0.139	0.305
-539.208	338.357	-0.168	-0.332
-538.193	429.226	0.147	-0.323
-537.179	6.777	0.098	-0.074
-536.164	-200.000	-0.018	-0.202
-535.150	-200.000	-0.086	-0.392
-534.135	-31.502	0.128	-0.073
-533.121	241.547	0.079	0.135
-532.106	31.083	0.148	-0.129
-531.091	462.800	-0.112	-0.253
-530.077	75.858	0.204	0.219
-529.062	-145.549	0.006	0.001
-528.048	800.000	0.115	-0.341
-527.033	-127.702	0.047	0.007
-526.018	256.841	-0.092	0.161
-525.004	340.394	-0.084	-0.167
-523.989	392.451	-0.033	-0.069
-522.975	112.909	0.242	-0.297
-521.960	800.000	0.038	-0.148
-520.945	-200.000	0.025	-0.146
-519.931	-10.064	0.222	-0.149
-518.916	-111.490	0.132	-0.027
-517.902	202.072	-0.161	-0.251
-516.887	-14.842	-0.344	-0.224
-515.872	800.000	-0.036	0.124
-514.858	56.995	0.157	0.155
-513.843	-200.000	-0.041	0.217
-512.829	-200.000	0.059	-0.313
-511.814	-163.804	-0.096	0.005
-510.799	65.244	-0.164	-0.168
-509.785	-53.508	0.117	0.054
-508.770	159.831	-0.175	0.247
-507.756	164.390	0.061	0.088
-506.741	-34.088	-0.136	-0.076
-505.726	225.501	0.169	-0.277
-504.712	-74.829	-0.142	-0.052
-503.697	-200.000	0.041	-0.263
-502.683	-100.053	0.122	0.031
-501.668	107.883	0.078	0.094
-500.653	55.685	-0.119	-0.116
-499.639	-97.911	-0.253	-0.066
-498.624	-200.000	-0.097	0.522
-497.610	-48.220	0.172	0.084
-496.595	-66.538	-0.112	-0.045
-495.581	-200.000	0.032	0.361
-494.566	119.169	-0.084	0.106
-493.551	-200.000	0.016	0.140
-492.537	-200.000	-0.040	-0.491
-491.522	-200.000	-0.040	0.318
-490.508	215.118	0.117	0.188
-489.493	-121.339	0.199	-0.034
-488.478	318.108	-0.124	-0.239
-487.464	-90.603	0.253	-0.074
-486.449	322.257	0.130	0.251
-485.435	-62.252	-0.136	-0.057
-484.420	9.432	0.116	-0.089
-483.405	5.664	-0.167	-0.125
-482.391	-190.994	0.136	0.001
-481.376	-11.826	0.096	0.064
-480.362	-200.000	0.017	-0.108
-479.347	800.000	-0.057	0.192
-478.332	130.227	-0.047	0.061
-477.318	81.718	-0.239	0.262
-476.303	800.000	0.071	-0.211
-475.289	-56.913	-0.068	0.031
-474.274	800.000	0.011	-0.041
-473.259	-39.732	-0.346	0.183
-472.245	800.000	-0.107	-0.412
-471.230	-200.000	0.096	-0.447
-470.216	84.232	-0.112	-0.124
-469.201	34.689	0.084	0.075
-468.186	800.000	-0.052	0.206
-467.172	-152.622	-0.286	-0.021
-466.157	-166.996	0.074	0.003
-465.143	-12.645	-0.111	-0.073
-464.128	-200.000	0.015	-0.281
-463.113	-66.119	0.185	-0.075
-462.099	-200.000	-0.023	0.121
-461.084	800.000	0.002	-0.009
-460.070	489.479	-0.070	0.161
-459.055	136.873	-0.244	-0.322
-458.040	163.959	0.044	0.063
-457.026	-200.000	-0.063	-0.282
-456.011	53.112	-0.157	-0.152
-454.997	305.340	-0.026	0.048
-453.982	-156.850	-0.039	-0.002
-452.968	-46.816	0.180	0.089
-451.953	241.611	0.255	-0.431
-450.938	-101.697	-0.221	-0.054
-449.924	-200.000	0.015	-0.082
-448.909	-39.047	0.318	-0.169
-447.895	18.023	0.088	0.071
-446.880	-200.000	-0.013	0.066
-445.865	-200.000	-0.070	0.341
-444.851	-37.419	0.221	0.119
-443.836	800.000	0.062	-0.199
-442.822	-12.448	-0.345	0.228
-441.807	-158.747	-0.093	-0.005
-440.792	-127.948	0.056	0.008
-439.778	401.661	0.006	-0.013
-438.763	-131.839	-0.192	-0.025
-437.749	792.672	-0.037	-0.104
-436.734	-24.987	-0.200	-0.120
-435.719	-149.846	0.182	-0.014
-434.705	-181.855	-0.210	-0.004
-433.690	681.930	-0.056	-0.146
-432.676	800.000	0.110	-0.415
-431.661	44.994	-0.273	0.254
-430.646	-101.931	-0.108	0.026
-429.632	-19.258	0.469	0.294
-428.617	-141.721	-0.327	-0.033
-427.603	47.519	-0.160	-0.151
-426.588	11.160	-0.158	-0.122
-425.573	-200.000	0.003	0.043
-424.559	-31.507	-0.328	0.186
-423.544	-78.718	-0.017	0.006
-422.530	-3.751	0.385	-0.270
-421.515	173.173	-0.142	0.206
-420.500	-80.664	-0.088	-0.030
-419.486	69.147	0.092	-0.096
-418.471	-10.738	-0.119	-0.079
-417.457	-200.000	-0.023	0.186
-416.442	10.817	-0.063	-0.049
-415.428	-200.000	-0.008	-0.236
-414.413	-90.623	0.223	0.065
-413.398	-56.546	-0.100	0.045
-412.384	-123.446	-0.302	-0.049
-411.369	-200.000	0.033	0.334
-410.355	-41.316	-0.119	-0.062
-409.340	-53.634	-0.210	0.097
-408.325	-158.472	0.162	0.009
-407.311	264.163	0.102	-0.179
-406.296	-131.402	-0.069	0.009
-405.282	-39.782	0.094	0.050
-404.267	-44.042	0.278	0.141
-403.252	319.582	0.121	-0.231
-402.238	-146.354	-0.261	-0.023
-401.223	-126.340	0.115	-0.017
-400.209	-94.904	0.174	-0.048
-399.194	51.537	0.097	0.093
-398.179	65.061	0.153	-0.156
-397.165	-80.243	-0.234	-0.079
-396.150	163.676	-0.057	-0.081
-395.136	618.262	-0.039	-0.099
-394.121	-87.138	-0.187	-0.057
-393.106	-200.000	0.052	0.245
-392.092	800.000	0.081	0.253
-391.077	800.000	-0.052	-0.187
-390.063	-200.000	-0.064	-0.392
-389.048	-100.140	0.360	-0.090
-388.033	274.309	-0.146	0.261
-387.019	58.163	0.092	-0.091
-386.004	-200.000	-0.097	0.451
-384.990	-113.186	0.110	0.022
-383.975	435.158	-0.018	0.039
-382.960	279.374	0.182	0.328
-381.946	-111.972	0.424	0.086
-380.931	-17.511	0.184	-0.117
-379.917	140.097	0.042	0.056
-378.902	-161.262	0.155	0.008
-377.888	-69.150	0.017	0.006
-376.873	-200.000	0.040	-0.189
-375.858	-200.000	-0.040	-0.315
-374.844	-107.647	-0.077	0.017
-373.829	-135.031	0.108	-0.013
-372.815	800.000	0.083	0.315
-371.800	800.000	-0.066	0.287
-370.785	800.000	0.038	0.152
-369.771	-200.000	0.006	0.212
-368.756	-90.303	0.440	0.129
-367.742	-111.752	-0.171	0.035
-366.727	-100.546	-0.178	0.044
-365.712	-120.731	0.093	-0.016
-364.698	-2.601	0.046	0.032
-363.683	800.000	0.082	-0.324
-362.669	304.543	0.113	-0.211
-361.654	205.906	-0.152	0.238
-360.639	55.532	0.200	-0.195
-359.625	-200.000	-0.007	0.090
-358.610	-114.249	0.142	-0.028
-357.596	-40.590	-0.182	0.095
-356.581	797.367	0.109	0.302
-355.566	245.500	0.063	0.106
-354.552	-134.039	-0.169	0.021
-353.537	-43.416	0.184	-0.094
-352.523	37.766	0.193	-0.173
-351.508	-12.599	-0.207	-0.136
-350.493	119.955	-0.276	-0.345
-349.479	-82.784	-0.191	0.062
-348.464	-17.478	0.375	-0.238
-347.450	416.020	-0.069	-0.149
-346.435	800.000	0.095	-0.416
-345.420	-44.316	-0.186	0.094
-344.406	-45.887	0.145	-0.072
-343.391	-200.000	0.033	0.250
-342.377	234.404	-0.073	0.122
-341.362	-200.000	0.013	0.176
-340.348	800.000	0.067	0.251
-339.333	-50.359	0.308	-0.147
-338.318	47.184	0.230	0.215
-337.304	89.629	-0.086	-0.096
-336.289	-120.176	0.171	-0.029
-335.275	-189.206	0.145	0.002
-334.260	114.061	-0.012	0.015
-333.245	-64.034	0.286	0.117
-332.231	-200.000	0.044	0.194
-331.216	-200.000	-0.012	-0.102
-330.202	-85.544	0.226	-0.071
-329.187	-200.000	0.059	-0.312
-328.172	-110.250	-0.004	-0.001
-327.158	-200.000	0.015	0.151
-326.143	107.663	-0.145	0.173
-325.129	800.000	0.082	0.310
-324.114	26.464	-0.336	-0.283
-323.099	-134.689	0.051	0.006
-322.085	-146.834	-0.265	0.023
-321.070	351.684	0.017	-0.034
-320.056	-200.000	-0.015	-0.308
-319.041	22.129	-0.240	0.197
-318.026	130.554	-0.049	0.063
-317.012	375.222	0.186	-0.381
-315.997	-137.416	0.217	-0.025
-314.983	203.197	0.079	-0.122
-313.968	66.530	-0.110	0.112
-312.953	498.543	-0.190	0.440
-311.939	800.000	-0.035	0.148
-310.924	633.514	0.051	-0.131
-309.910	-106.591	0.216	0.048
-308.895	-80.068	-0.152	-0.051
-307.880	-200.000	-0.035	0.205
-306.866	188.169	0.085	0.128
-305.851	180.094	-0.158	0.233
-304.837	-101.982	-0.234	-0.057
-303.822	30.246	-0.228	-0.195
-302.807	26.102	0.132	0.110
-301.793	-26.939	0.287	0.168
-300.778	-65.395	-0.284	-0.115
-299.764	-1.033	-0.045	-0.032
-298.749	502.529	0.038	-0.088
-297.735	-121.567	0.429	-0.072
-296.720	36.506	0.203	0.180
-295.705	-17.331	0.252	-0.159
-294.691	683.680	0.056	-0.147
-293.676	222.889	0.094	0.153
-292.662	67.003	0.083	0.085
-291.647	-26.266	0.072	-0.042
-290.632	-171.051	0.173	0.006
-289.618	-98.779	-0.163	-0.042
-288.603	-200.000	-0.042	-0.258
-287.589	-55.708	0.256	-0.115
-286.574	-105.865	0.041	0.009
-285.559	103.830	-0.058	-0.068
-284.545	251.130	0.162	0.277
-283.530	26.055	0.216	-0.181
-282.516	88.031	0.097	-0.108
-281.501	-200.000	0.032	0.275
-280.486	800.000	0.117	0.348
-279.472	-200.000	0.017	-0.195
-278.457	12.613	-0.378	0.293
-277.443	-146.547	-0.162	-0.014
-276.428	-120.415	-0.227	-0.039
-275.413	800.000	-0.078	0.296
-274.399	747.269	0.022	-0.059
-273.384	42.850	-0.147	0.135
-272.370	-200.000	-0.004	0.083
-271.355	-8.563	-0.334	0.225
-270.340	-124.371	0.332	0.052
-269.326	-137.218	0.347	-0.040
-268.311	800.000	-0.028	-0.117
-267.297	800.000	-0.036	0.132
-266.282	-6.200	-0.181	0.124
-265.267	-200.000	-0.012	0.117
-264.253	43.978	-0.274	0.252
-263.238	-127.796	-0.364	-0.053
-262.224	93.222	0.061	0.069
-261.209	800.000	-0.050	-0.152
-260.195	800.000	0.103	-0.295
-259.180	113.471	0.107	0.131
-258.165	325.687	-0.052	-0.100
-257.151	800.000	-0.027	0.084
-256.136	-97.653	-0.262	-0.068
-255.122	11.742	-0.247	0.191
-254.107	17.003	0.209	-0.166
-253.092	31.232	-0.082	-0.071
-252.078	-70.129	-0.064	0.025
-251.063	-75.562	-0.180	0.064
-250.049	192.094	0.062	0.094
-249.034	-138.894	0.076	0.008
-248.019	24.725	0.039	-0.032
-247.005	800.000	-0.087	0.288
-245.990	-200.000	0.002	0.112
-244.976	-150.938	-0.494	-0.037
-243.961	-200.000	-0.003	0.088
-242.946	119.187	-0.156	-0.193
-241.932	-200.000	0.010	-0.161
-240.917	330.782	0.145	-0.281
-239.903	-200.000	0.033	-0.184
-238.888	336.965	-0.056	0.109
-237.873	327.019	-0.202	0.388
-236.859	800.000	0.049	-0.196
-235.844	-138.260	-0.222	-0.025
-234.830	-200.000	-0.026	0.121
-233.815	-200.000	-0.039	-0.266
-232.800	121.798	0.071	0.089
-231.786	800.000	0.050	0.166
-230.771	-72.406	-0.361	-0.134
-229.757	-28.928	-0.049	-0.028
-228.742	-1.625	-0.223	-0.157
-227.727	-49.325	0.318	-0.152
-226.713	-73.551	-0.137	-0.050
-225.698	174.093	-0.029	0.042
-224.684	-200.000	0.000	0.324
-223.669	-71.156	0.304	-0.114
-222.655	122.372	0.181	0.226
-221.640	-117.982	0.383	0.069
-220.625	-191.295	-0.135	-0.001
-219.611	721.945	-0.098	-0.262
-218.596	-81.785	-0.179	-0.059
-217.582	148.839	0.177	-0.240
-216.567	-19.681	-0.284	-0.176
-215.552	419.178	0.140	0.301
-214.538	-76.805	-0.305	0.107
-213.523	22.502	-0.059	-0.048
-212.509	-70.712	0.211	-0.080
-211.494	-35.666	-0.233	-0.127
-210.479	497.812	-0.068	-0.158
-209.465	-73.960	0.223	-0.081
-208.450	-103.568	-0.358	-0.084
-207.436	59.974	-0.014	-0.014
-206.421	190.611	0.098	0.147
-205.406	-120.409	-0.121	0.021
-204.392	-200.000	-0.031	0.138
-203.377	143.655	-0.082	0.109
-202.363	-200.000	0.046	-0.217
-201.348	127.953	0.247	0.315
-200.333	-84.910	-0.070	0.022
-199.319	-135.981	0.128	0.015
-198.304	358.983	-0.073	0.146
-197.290	800.000	0.095	-0.284
-196.275	-200.000	-0.022	0.116
-195.260	-200.000	-0.010	0.207
-194.246	535.654	-0.058	-0.138
-193.231	142.339	-0.167	-0.222
-192.217	160.150	0.220	-0.307
-191.202	-67.489	-0.357	0.140
-190.187	159.112	0.143	0.199
-189.173	-72.219	0.282	-0.104
-188.158	-60.470	0.400	0.170
-187.144	-198.057	-0.118	0.001
-186.129	-200.000	0.019	0.319
-185.114	85.456	-0.030	-0.033
-184.100	-200.000	-0.041	-0.210
-183.085	84.531	-0.258	0.282
-182.071	-127.031	-0.094	0.014
-181.056	179.309	0.088	-0.129
-180.042	66.032	-0.055	0.056
-179.027	-59.668	-0.012	-0.005
-178.012	-68.984	0.154	-0.060
-176.998	92.335	-0.035	0.040
-175.983	-200.000	0.008	0.151
-174.969	-200.000	0.025	-0.220
-173.954	2.508	-0.090	-0.065
-172.939	441.649	-0.132	-0.289
-171.925	800.000	0.029	-0.112
-170.910	9.840	0.072	0.055
-169.896	116.093	0.252	0.308
-168.881	-137.106	-0.215	-0.025
-167.866	65.750	-0.149	-0.151
-166.852	-54.846	0.046	0.021
-165.837	-190.516	0.320	-0.003
-164.823	93.263	0.109	0.123
-163.808	25.417	0.194	-0.161
-162.793	-86.209	0.246	-0.076
-161.779	-69.826	0.144	0.055
-160.764	-28.826	-0.213	0.122
-159.750	-116.204	0.129	-0.024
-158.735	60.210	-0.102	-0.101
-157.720	-40.765	0.156	-0.081
-156.706	800.000	0.049	-0.178
-155.691	-200.000	-0.031	0.165
-154.677	-52.564	0.120	0.056
-153.662	-133.036	-0.409	-0.052
-152.647	800.000	0.112	0.315
-151.633	-131.943	-0.063	-0.008
-150.618	-30.499	-0.193	-0.109
-149.604	339.692	-0.126	-0.245
-148.589	115.502	-0.034	0.042
-147.574	-92.277	-0.159	0.045
-146.560	24.229	-0.293	-0.242
-145.545	1.271	0.248	0.178
-144.531	38.516	-0.111	-0.099
-143.516	402.360	-0.110	-0.231
-142.502	538.636	-0.117	-0.277
-141.487	-130.126	-0.116	-0.016
-140.472	-200.000	0.033	0.160
-139.458	1.230	-0.305	-0.219
-138.443	-61.866	0.351	-0.147
-137.429	57.633	0.034	-0.033
-136.414	-1.382	0.053	-0.037
-135.399	-52.483	-0.183	-0.085
-134.385	-43.611	-0.332	0.167
-133.370	166.274	0.192	-0.272
-132.356	-46.395	0.154	-0.075
-131.341	-56.419	-0.294	-0.130
-130.326	206.222	0.025	-0.038
-129.312	800.000	0.032	0.106
-128.297	239.366	-0.092	0.153
-127.283	39.668	0.117	0.105
-126.268	-102.307	-0.131	-0.031
-125.253	75.944	0.133	-0.140
-124.239	-200.000	0.017	0.225
-123.224	141.141	0.059	-0.078
-122.210	800.000	-0.063	-0.252
-121.195	-49.230	0.071	0.034
-120.180	560.205	0.125	-0.302
-119.166	121.576	-0.179	0.223
-118.151	206.754	-0.145	-0.225
-117.137	-166.124	0.213	0.009
-116.122	458.021	0.060	-0.133
-115.107	800.000	-0.057	0.164
-114.093	333.356	0.136	0.263
-113.078	-75.414	-0.315	-0.112
-112.064	-62.956	0.041	-0.017
-111.049	-200.000	0.053	0.380
-110.034	97.840	0.211	0.242
-109.020	-83.421	0.306	-0.098
-108.005	141.777	0.116	0.153
-106.991	638.588	0.101	0.257
-105.976	293.772	0.156	0.285
-104.962	194.356	-0.086	0.130
-103.947	-160.192	0.109	0.006
-102.932	-141.202	0.181	-0.018
-101.918	-200.000	-0.000	0.098
-100.903	-139.640	-0.066	-0.007
-99.889	800.000	0.111	0.304
-98.874	119.127	-0.209	-0.258
-97.859	-200.000	-0.011	0.054
-96.845	9.449	-0.121	0.091
-95.830	-200.000	-0.063	0.362
-94.816	310.030	0.052	-0.097
-93.801	11.075	-0.091	0.069
-92.786	-160.192	-0.042	-0.002
-91.772	-88.563	-0.367	0.109
-90.757	-71.109	-0.317	0.119
-89.743	266.548	0.092	0.160
-88.728	-101.229	-0.355	0.086
-87.713	31.966	-0.106	0.091
-86.699	-54.304	-0.074	0.034
-85.684	-68.396	0.165	-0.064
-84.670	-147.537	0.138	-0.012
-83.655	800.000	-0.052	0.152
-82.640	-182.696	0.388	-0.007
-81.626	20.640	-0.207	0.167
-80.611	79.138	-0.144	0.154
-79.597	36.900	0.223	0.196
-78.582	410.739	0.038	-0.080
-77.567	181.633	-0.166	-0.244
-76.553	106.372	0.188	0.222
-75.538	-128.210	-0.231	0.033
-74.524	800.000	-0.078	-0.251
-73.509	800.000	-0.011	0.047
-72.494	58.877	0.043	0.042
-71.480	80.030	0.103	0.110
-70.465	800.000	0.054	-0.166
-69.451	173.453	-0.114	0.164
-68.436	-197.851	0.339	0.002
-67.422	-85.262	0.115	-0.036
-66.407	410.107	0.055	0.117
-65.392	-200.000	-0.004	0.290
-64.378	-48.754	-0.188	0.090
-63.363	130.731	0.297	-0.379
-62.349	-200.000	-0.012	0.147
-61.334	18.289	-0.994	-0.790
-60.319	-45.058	0.351	0.174
-59.305	-200.000	-0.080	-1.001
-58.290	800.000	0.242	0.736
-57.276	-200.000	0.325	1.481
-56.261	-200.000	78.322	513.646
-55.246	493.509	1364.707	3115.479
-54.232	143.874	2594.587	3442.419
-53.217	114.034	2243.873	2716.119
-52.203	50.654	1693.732	1595.263
-51.188	42.947	1422.621	1290.723
-50.173	39.521	1378.028	1228.896
-49.159	57.844	1414.676	1377.368
-48.144	63.735	1433.636	1432.852
-47.130	43.431	1395.611	1269.058
-46.115	39.518	1379.173	1229.698
-45.100	39.264	1374.492	1223.896
-44.086	39.158	1372.019	1220.989
-43.071	39.278	1369.868	1219.769
-42.057	39.189	1367.295	1216.880
-41.042	39.222	1365.566	1215.500
-40.027	39.224	1364.496	1214.510
-39.013	39.341	1361.939	1212.908
-37.998	39.198	1360.542	1210.735
-36.984	39.460	1358.443	1210.427
-35.969	39.442	1356.455	1208.501
-34.954	39.376	1354.992	1206.740
-33.940	39.479	1353.476	1205.974
-32.925	39.590	1352.116	1205.392
-31.911	39.557	1350.963	1204.113
-30.896	39.619	1348.797	1202.519
-29.881	39.366	1348.047	1200.259
-28.867	39.546	1346.206	1199.668
-27.852	39.602	1344.465	1198.405
-26.838	39.565	1343.262	1197.061
-25.823	39.578	1341.446	1195.479
-24.809	39.580	1340.194	1194.326
-23.794	39.534	1339.189	1193.105
-22.779	39.654	1337.376	1192.167
-21.765	39.501	1336.183	1190.134
-20.750	39.450	1334.735	1188.490
-19.736	39.431	1333.453	1187.182
-18.721	39.375	1332.524	1185.972
-17.706	39.433	1330.733	1184.680
-16.692	39.455	1329.567	1183.725
-15.677	39.350	1328.678	1182.255
-14.663	39.320	1327.364	1180.862
-13.648	39.325	1326.531	1180.101
-12.633	39.303	1325.161	1178.706
-11.619	39.289	1324.776	1178.235
-10.604	39.320	1323.523	1177.256
-9.590	39.351	1322.363	1176.364
-8.575	39.414	1321.236	1175.693
-7.560	39.262	1320.857	1174.401
-6.546	39.185	1320.082	1173.204
-5.531	39.328	1318.886	1172.949
-4.517	39.327	1318.212	1172.296
-3.502	39.379	1316.974	1171.460
-2.487	39.398	1316.270	1170.900
-1.473	39.482	1311.824	1167.395
-0.458	38.411	1297.409	1148.242
0.556	34.728	1278.157	1107.089
1.571	30.829	1282.479	1088.008
2.586	29.555	1297.949	1093.496
3.600	27.849	1285.700	1073.064
4.615	19.645	1206.153	961.141
5.629	7.656	1121.181	830.998
6.644	2.364	1097.366	786.130
7.659	1.978	1094.556	782.071
8.673	1.838	1092.898	780.098
9.688	1.662	1091.667	778.251
10.702	2.061	1090.191	779.168
11.717	8.856	1100.923	821.702
12.731	19.930	1117.331	891.199
13.746	24.886	1123.557	921.676
14.761	25.331	1123.697	924.000
15.775	25.321	1122.926	923.231
16.790	24.929	1122.591	920.862
17.804	24.979	1121.714	920.317
18.819	25.240	1120.706	920.746
19.834	25.172	1120.951	920.520
20.848	25.195	1120.491	920.179
21.863	25.317	1119.633	920.018
22.877	25.118	1118.993	918.390
23.892	25.104	1118.015	917.434
24.907	25.139	1117.700	917.274
25.921	25.247	1116.307	916.600
26.936	25.150	1114.961	914.921
27.950	25.133	1113.442	913.504
28.965	24.907	1111.869	910.982
29.980	25.012	1110.137	910.018
30.994	25.335	1108.957	910.607
32.009	25.336	1108.029	909.773
33.023	24.909	1107.159	906.815
34.038	25.047	1106.555	906.936
35.053	25.154	1105.767	906.755
36.067	25.063	1105.274	905.807
37.082	25.274	1104.355	906.040
38.096	25.291	1103.795	905.587
39.111	25.459	1102.726	905.476
40.126	25.226	1101.162	902.941
41.140	24.926	1099.620	900.089
42.155	24.666	1098.259	897.590
43.169	24.694	1097.332	896.891
44.184	24.767	1096.219	896.266
45.199	24.599	1095.418	894.693
46.213	24.706	1094.452	894.360
47.228	24.898	1094.072	894.931
48.242	24.986	1092.629	894.111
49.257	24.973	1092.581	893.924
50.271	25.157	1091.296	893.714
51.286	25.218	1090.155	893.001
52.301	25.165	1089.574	892.184
53.315	25.061	1088.523	890.729
54.330	25.103	1087.690	890.176
55.344	25.042	1087.074	889.289
56.359	25.043	1085.978	888.322
57.374	24.856	1084.600	886.189
58.388	24.879	1084.025	885.756
59.403	24.868	1083.160	884.913
60.417	24.615	1081.868	882.530
61.432	24.740	1081.693	882.926
62.447	24.909	1081.119	883.214
63.461	24.816	1080.635	882.285
64.476	24.790	1079.388	881.058
65.490	24.753	1078.058	879.711
66.505	24.751	1077.655	879.298
67.520	24.809	1077.299	879.212
68.534	24.737	1075.708	877.482
69.549	24.230	1074.841	874.212
70.563	24.376	1073.937	874.118
71.578	24.344	1073.426	873.468
72.593	24.135	1072.199	871.367
73.607	24.226	1071.908	871.497
74.622	24.652	1071.374	873.071
75.636	24.640	1070.861	872.514
76.651	24.602	1069.189	870.889
77.666	24.532	1068.856	870.201
78.680	24.515	1068.314	869.601
79.695	24.585	1067.535	869.230
80.709	24.748	1066.756	869.312
81.724	24.676	1066.073	868.327
82.739	24.721	1065.434	867.950
83.753	25.022	1064.850	868.857
84.768	25.462	1064.145	870.338
85.782	25.474	1063.225	869.565
86.797	25.355	1062.089	867.985
87.812	25.304	1060.804	866.612
88.826	25.273	1060.312	865.980
89.841	25.522	1058.782	865.857
90.855	25.351	1058.380	864.625
91.870	25.363	1057.271	863.703
92.884	25.176	1056.288	861.921
93.899	25.109	1055.405	860.807
94.914	25.349	1054.445	861.097
95.928	25.252	1053.427	859.727
96.943	24.952	1051.732	856.829
97.957	24.753	1050.536	854.830
98.972	24.646	1049.446	853.358
99.987	24.855	1049.244	854.115
101.001	25.015	1048.195	853.948
102.016	24.985	1047.717	853.337
103.030	24.930	1046.088	851.676
104.045	24.810	1045.803	850.797
105.060	24.624	1044.534	848.806
106.074	24.847	1043.586	849.017
107.089	25.129	1043.315	850.060
108.103	25.064	1041.990	848.599
109.118	24.852	1040.619	846.403
110.133	24.805	1039.597	845.276
111.147	24.471	1039.306	843.388
112.162	24.555	1037.840	842.516
113.176	24.792	1037.314	843.135
114.191	24.696	1036.569	842.001
115.206	24.267	1035.595	839.118
116.220	24.311	1034.614	838.453
117.235	24.550	1033.363	838.488
118.249	24.450	1032.696	837.402
119.264	24.437	1031.838	836.572
120.279	24.442	1031.307	836.092
121.293	24.531	1030.413	835.712
122.308	24.565	1029.360	834.943
123.322	24.321	1028.702	833.193
124.337	24.462	1026.789	832.231
125.352	23.938	1025.708	828.839
126.366	23.904	1024.814	827.885
127.381	24.573	1024.646	830.787
128.395	24.942	1024.186	832.057
129.410	24.961	1023.794	831.754
130.424	25.025	1022.576	830.986
131.439	25.186	1021.286	830.612
132.454	25.063	1020.754	829.532
133.468	24.895	1019.752	827.869
134.483	25.136	1019.112	828.392
135.497	25.267	1018.104	828.104
136.512	25.449	1017.474	828.355
137.527	25.423	1016.125	827.066
138.541	25.347	1016.055	826.585
139.556	25.222	1015.171	825.217
140.570	25.390	1014.266	825.182
141.585	25.374	1013.143	824.118
142.600	25.370	1011.744	822.891
143.614	25.560	1011.180	823.229
144.629	25.667	1010.728	823.277
145.643	25.459	1009.244	821.046
146.658	25.199	1008.182	818.923
147.673	25.128	1006.696	817.318
148.687	25.093	1005.686	816.267
149.702	24.991	1004.850	815.055
150.716	24.948	1003.933	814.044
151.731	25.148	1003.198	814.281
152.746	25.350	1002.516	814.574
153.760	25.421	1002.064	814.457
154.775	25.500	1001.426	814.222
155.789	25.468	1000.079	812.913
156.804	25.267	999.525	811.481
157.819	25.430	998.692	811.467
158.833	25.528	998.076	811.339
159.848	25.629	996.583	810.508
160.862	25.466	995.153	808.542
161.877	25.349	994.521	807.431
162.892	25.608	993.052	807.330
163.906	25.354	992.437	805.615
164.921	25.327	991.670	804.801
165.935	25.453	990.475	804.325
166.950	25.400	989.736	803.415
167.964	25.368	988.827	802.463
168.979	25.345	987.215	800.981
169.994	25.122	986.780	799.567
171.008	25.650	985.830	801.075
172.023	25.548	985.299	800.120
173.037	25.314	984.157	798.079
174.052	25.194	983.194	796.698
175.067	25.120	982.816	795.990
176.081	25.176	982.252	795.714
177.096	25.179	981.405	794.970
178.110	24.973	980.430	793.196
179.125	24.700	979.581	791.232
180.140	24.755	979.206	791.103
181.154	24.909	979.144	791.662
182.169	25.308	978.682	792.982
183.183	25.494	978.192	793.335
184.198	25.332	977.353	791.873
185.213	25.259	976.777	791.012
186.227	25.429	975.781	790.886
187.242	25.454	975.275	790.513
188.256	25.426	974.832	789.964
189.271	25.536	973.980	789.685
190.286	25.117	972.841	786.854
191.300	24.494	971.378	782.870
192.315	23.667	969.515	777.679
193.329	23.716	968.785	777.239
194.344	24.570	969.705	781.649
195.359	25.295	969.271	784.397
196.373	25.475	968.851	784.772
197.388	25.106	968.430	782.753
198.402	25.286	967.870	783.015
199.417	25.319	967.133	782.495
200.432	25.035	965.896	780.189
201.446	24.894	965.382	779.090
202.461	24.927	964.773	778.675
203.475	24.052	963.344	773.651
204.490	23.391	961.281	769.059
205.504	24.266	961.742	773.157
206.519	24.998	961.442	776.018
207.534	24.993	961.413	775.905
208.548	25.369	961.223	777.310
209.563	25.043	960.379	775.149
210.577	25.008	960.230	774.807
211.592	25.492	959.398	776.160
212.607	25.532	958.547	775.574
213.621	25.472	957.820	774.659
214.636	25.466	956.649	773.617
215.650	25.465	956.245	773.218
216.665	25.478	955.791	772.840
217.680	25.642	954.519	772.446
218.694	25.023	953.804	769.144
219.709	25.025	953.034	768.460
220.723	25.241	952.417	768.822
221.738	25.246	952.012	768.449
222.753	25.207	951.315	767.650
223.767	25.383	950.967	768.057
224.782	25.624	950.600	768.721
225.796	25.626	950.137	768.287
226.811	24.957	948.329	763.903
227.826	24.205	947.483	759.947
228.840	24.459	946.527	760.198
229.855	24.588	945.862	760.146
230.869	24.235	944.831	757.749
231.884	24.708	944.744	759.623
232.899	25.389	945.011	762.661
233.913	25.194	944.243	761.147
234.928	25.182	943.702	760.592
235.942	25.070	943.251	759.687
236.957	24.716	942.594	757.592
237.972	24.955	941.609	757.746
238.986	24.955	941.391	757.504
240.001	24.974	940.568	756.853
241.015	25.076	939.491	756.349
242.030	25.241	939.485	756.973
243.045	25.336	938.978	756.900
244.059	25.572	938.134	757.146
245.074	25.205	937.856	755.308
246.088	25.052	936.277	753.327
247.103	25.111	936.524	753.709
248.117	25.815	936.152	756.300
249.132	25.975	936.096	756.859
250.147	26.169	935.363	757.012
251.161	26.197	934.827	756.628
252.176	26.110	934.218	755.705
253.190	26.202	933.675	755.584
254.205	26.342	933.304	755.800
255.220	26.405	932.276	755.164
256.234	26.106	931.465	753.193
257.249	26.147	930.410	752.444
258.263	26.195	929.863	752.136
259.278	26.187	929.272	751.558
260.293	26.287	929.218	751.863
261.307	26.162	928.410	750.624
262.322	25.898	927.705	748.893
263.336	25.265	925.717	744.597
264.351	24.263	923.533	738.624
265.366	24.416	923.266	738.977
266.380	25.509	924.347	744.305
267.395	25.818	923.843	745.111
268.409	25.722	923.285	744.200
269.424	25.863	922.763	744.296
270.439	26.088	921.923	744.478
271.453	26.157	920.973	743.933
272.468	26.190	920.800	743.864
273.482	26.334	920.291	743.980
274.497	25.728	919.293	740.613
275.512	25.650	918.066	739.240
276.526	25.934	918.183	740.434
277.541	25.999	917.849	740.366
278.555	25.763	917.172	738.785
279.570	25.763	915.971	737.752
280.585	25.853	915.895	737.997
281.599	25.901	914.476	736.985
282.614	25.210	913.490	733.301
283.628	25.100	913.170	732.527
284.643	25.564	912.443	733.775
285.657	25.315	911.282	731.763
286.672	24.882	910.686	729.453
287.687	25.544	910.628	732.041
288.701	25.704	909.972	732.099
289.716	25.261	908.953	729.414
290.730	25.315	908.119	728.901
291.745	25.040	907.383	727.127
292.760	25.284	907.818	728.401
293.774	26.267	908.346	732.751
294.789	26.627	907.594	733.536
295.803	26.612	907.225	733.116
296.818	26.559	906.513	732.259
297.833	26.134	905.314	729.509
298.847	25.977	904.640	728.268
299.862	26.351	904.285	729.428
300.876	26.510	904.142	729.887
301.891	26.454	903.039	728.709
302.906	26.081	902.091	726.378
303.920	26.224	901.896	726.729
304.935	26.355	902.150	727.397
305.949	26.435	900.950	726.687
306.964	26.185	900.036	724.883
307.979	26.258	899.731	724.867
308.993	26.650	899.563	726.237
310.008	26.678	898.978	725.814
311.022	26.516	897.790	724.144
312.037	26.265	897.346	722.718
313.052	26.054	896.303	720.968
314.066	25.082	894.606	715.660
315.081	24.856	893.907	714.136
316.095	25.726	894.194	717.776
317.110	26.191	894.237	719.597
318.125	25.332	892.491	714.711
319.139	24.347	890.997	709.539
320.154	24.279	890.273	708.628
321.168	25.123	890.816	712.351
322.183	25.867	891.224	715.571
323.197	26.030	890.783	715.799
324.212	26.210	890.681	716.370
325.227	26.351	890.123	716.415
326.241	26.286	889.060	715.240
327.256	26.105	888.081	713.671
328.270	26.090	887.602	713.165
329.285	25.709	887.067	711.167
330.300	25.396	886.643	709.530
331.314	25.775	885.962	710.417
332.329	26.406	885.538	712.502
333.343	26.306	885.539	712.044
334.358	26.314	884.935	711.528
335.373	26.498	884.672	711.976
336.387	26.734	884.721	712.881
337.402	26.798	884.590	712.963
338.416	26.737	883.924	712.123
339.431	26.932	883.872	712.788
340.446	26.795	883.477	711.865
341.460	26.846	882.655	711.343
342.475	26.703	882.187	710.341
343.489	26.835	881.635	710.349
344.504	27.043	881.565	711.044
345.519	27.226	881.308	711.490
346.533	27.339	880.298	711.053
347.548	27.260	880.022	710.459
348.562	27.239	879.270	709.706
349.577	27.084	878.679	708.563
350.592	27.043	877.935	707.742
351.606	27.127	877.159	707.380
352.621	27.045	876.433	706.413
353.635	27.008	875.437	705.403
354.650	26.209	874.068	701.140
355.665	25.300	872.626	696.396
356.679	25.665	872.316	697.499
357.694	26.091	872.014	698.847
358.708	26.213	871.158	698.573
359.723	26.493	871.186	699.614
360.738	26.832	870.862	700.604
361.752	26.874	870.375	700.311
362.767	27.191	869.941	701.125
363.781	27.298	870.242	701.716
364.796	27.564	869.576	702.141
365.810	27.575	869.246	701.856
366.825	27.356	869.003	700.753
367.840	27.313	867.704	699.481
368.854	26.952	866.626	697.164
369.869	26.927	866.261	696.711
370.883	26.966	865.849	696.469
371.898	26.904	865.226	695.666
372.913	27.002	865.028	695.822
373.927	26.987	864.702	695.441
374.942	27.284	863.970	695.928
375.956	27.278	863.856	695.751
376.971	27.468	863.621	696.225
377.986	27.455	863.493	696.012
379.000	27.562	862.435	695.504
380.015	27.223	861.948	693.759
381.029	27.369	861.277	693.713
382.044	27.598	860.658	694.027
383.059	27.429	860.332	693.057
384.073	27.629	859.773	693.306
385.088	27.398	858.982	691.731
386.102	27.323	858.106	690.677
387.117	27.209	857.570	689.755
388.132	26.868	856.345	687.416
389.146	26.321	855.643	684.719
390.161	26.794	855.353	686.216
391.175	27.275	854.961	687.660
392.190	26.980	854.227	685.895
393.205	25.612	851.703	678.653
394.219	24.102	850.026	671.566
395.234	23.895	849.944	670.662
396.248	25.596	851.104	677.932
397.263	27.038	852.332	684.290
398.278	26.972	851.925	683.655
399.292	26.878	850.711	682.265
400.307	26.893	850.334	681.959
401.321	26.947	849.934	681.781
402.336	27.293	850.079	683.136
403.350	27.658	849.945	684.338
404.365	27.827	850.059	685.003
405.380	28.292	849.565	686.290
406.394	28.390	848.890	686.049
407.409	28.221	848.375	684.940
408.423	28.098	848.193	684.274
409.438	28.120	848.025	684.158
410.453	28.278	847.083	683.929
411.467	28.335	846.293	683.442
412.482	28.295	845.875	682.895
413.496	28.353	845.905	683.074
414.511	28.172	845.637	682.123
415.526	28.147	845.040	681.491
416.540	28.252	844.054	681.026
417.555	27.862	843.307	678.912
418.569	27.969	843.104	679.084
419.584	28.008	842.586	678.754
420.599	27.680	842.286	677.232
421.613	97.066	1273.105	1394.332
422.628	84.277	1335.901	1394.474
