DTS Sentinel unit serial number:	SN413079Multiplexer serial number:	ORYXHardware model number:	OX4-SRSoftware version number:	ORYX F/W v4.00 Oryx Data Collector v3.7.2.0data status	okinstallation	princeton_trtdifferential loss correction	single-endedforward channel	channel 1reverse channel	N/Adate	2019/09/18time	00:34:35forward acquisition time	60.00reverse acquisition time	0.00gamma	496.2192k internal	0.2341k external	0.2341temperature offset calibration	0.9973default loss term (dB/km)	0.3790temperature slope calibration	1.0000multiplexer offset coefficient	1.0000multiplexer slope coefficient	1.0000fibre end	0.00T internal ref (°C)	23.50T ext. ref 1 (°C)	0.16T ext. ref 2 (°C)	17.14length (m)	temperature (°C)	Stokes	anti-Stokes-747.200	800.000	-0.071	0.227
-746.185	93.903	0.084	0.095
-745.171	31.774	0.100	0.086
-744.156	119.262	0.142	0.176
-743.142	-28.172	0.455	0.263
-742.127	800.000	0.035	-0.100
-741.112	24.250	0.222	-0.184
-740.098	-19.431	-0.194	-0.121
-739.083	-51.838	0.100	0.047
-738.069	-126.244	0.021	-0.003
-737.054	583.642	-0.116	0.286
-736.039	-49.926	-0.196	-0.093
-735.025	800.000	-0.052	0.144
-734.010	-68.019	-0.131	0.051
-732.996	-113.128	-0.329	-0.065
-731.981	-21.652	-0.122	-0.074
-730.966	-178.572	0.190	-0.004
-729.952	172.754	0.011	-0.016
-728.937	-11.991	0.148	-0.097
-727.923	103.232	0.073	-0.086
-726.908	559.880	-0.054	0.131
-725.894	3.349	0.158	-0.115
-724.879	-50.762	-0.141	0.066
-723.864	-35.168	-0.323	0.176
-722.850	-68.837	0.514	-0.199
-721.835	800.000	-0.015	-0.047
-720.821	-200.000	0.012	-0.104
-719.806	-45.975	-0.118	-0.058
-718.791	-51.388	0.122	0.057
-717.777	-200.000	-0.078	0.425
-716.762	-41.332	0.180	-0.093
-715.748	-200.000	-0.006	-0.100
-714.733	-125.268	-0.101	-0.015
-713.718	102.390	-0.117	-0.137
-712.704	-91.316	0.258	-0.074
-711.689	735.855	-0.144	-0.385
-710.675	8.074	-0.091	0.068
-709.660	165.245	0.030	-0.043
-708.645	218.691	-0.083	0.132
-707.631	800.000	0.041	-0.115
-706.616	63.861	0.268	0.269
-705.602	115.817	-0.033	0.041
-704.587	-200.000	0.025	-0.168
-703.572	243.362	0.155	0.260
-702.558	-90.015	-0.208	-0.061
-701.543	-66.457	0.287	0.114
-700.529	-200.000	-0.013	0.072
-699.514	166.091	-0.078	0.111
-698.499	-121.221	0.430	0.072
-697.485	800.000	-0.055	0.205
-696.470	22.766	0.129	-0.106
-695.456	-200.000	-0.272	0.000
-694.441	-63.255	-0.244	-0.101
-693.426	-12.970	0.172	0.112
-692.412	596.007	-0.026	0.063
-691.397	-125.952	-0.209	-0.032
-690.383	-200.000	0.028	-0.336
-689.368	-85.037	-0.324	0.102
-688.354	6.313	-0.311	0.231
-687.339	-17.822	0.068	-0.043
-686.324	-200.000	-0.026	-0.184
-685.310	17.303	-0.157	-0.125
-684.295	800.000	0.068	-0.228
-683.281	20.961	-0.134	0.109
-682.266	-171.003	0.220	0.007
-681.251	-66.368	-0.189	0.075
-680.237	-100.277	0.332	0.082
-679.222	189.570	0.058	-0.086
-678.208	3.408	-0.138	-0.100
-677.193	373.855	-0.033	0.068
-676.178	4.084	-0.309	0.226
-675.164	-80.458	-0.161	0.054
-674.149	-200.000	0.024	-0.213
-673.135	-183.696	-0.125	-0.002
-672.120	-24.071	-0.129	0.077
-671.105	-168.175	-0.194	0.008
-670.091	103.923	0.055	0.064
-669.076	-50.848	0.295	-0.138
-668.062	231.244	-0.288	-0.471
-667.047	800.000	-0.020	0.069
-666.032	-95.795	0.361	0.096
-665.018	318.805	0.103	-0.194
-664.003	4.820	-0.282	-0.207
-662.989	-157.932	-0.228	0.013
-661.974	-124.417	0.214	-0.033
-660.959	208.638	0.057	-0.089
-659.945	374.297	-0.132	-0.269
-658.930	-150.012	0.255	0.020
-657.916	77.021	-0.078	0.083
-656.901	800.000	0.114	-0.361
-655.886	800.000	-0.125	-0.347
-654.872	-24.020	-0.589	-0.352
-653.857	72.171	0.121	0.126
-652.843	800.000	-0.035	0.107
-651.828	-47.811	0.186	-0.090
-650.814	800.000	0.071	0.210
-649.799	-85.049	-0.225	-0.070
-648.784	54.275	0.027	-0.026
-647.770	-32.204	-0.313	-0.175
-646.755	800.000	0.041	-0.137
-645.741	-98.733	-0.226	0.057
-644.726	-137.688	0.320	0.036
-643.711	116.550	-0.147	0.180
-642.697	-128.961	0.378	0.053
-641.682	254.392	-0.223	-0.380
-640.668	361.130	-0.154	-0.308
-639.653	-200.000	-0.013	-0.203
-638.638	339.746	0.112	-0.219
-637.624	800.000	-0.052	-0.170
-636.609	800.000	0.060	-0.207
-635.595	-21.689	-0.206	0.125
-634.580	800.000	0.040	-0.148
-633.565	-120.526	-0.046	0.008
-632.551	-183.459	0.194	0.003
-631.536	800.000	-0.061	0.197
-630.522	800.000	0.023	0.076
-629.507	800.000	-0.054	-0.172
-628.492	-160.344	-0.438	0.024
-627.478	-102.594	-0.243	0.058
-626.463	-66.170	-0.429	0.170
-625.449	329.447	-0.140	-0.268
-624.434	-102.742	-0.174	0.041
-623.419	800.000	-0.131	-0.390
-622.405	-58.515	0.296	0.128
-621.390	-70.678	0.054	0.020
-620.376	-127.848	0.184	0.026
-619.361	-6.686	-0.239	0.162
-618.346	-200.000	0.014	0.238
-617.332	28.012	0.013	0.011
-616.317	26.017	0.065	0.054
-615.303	800.000	-0.042	-0.145
-614.288	76.924	0.123	-0.131
-613.273	41.201	0.214	-0.193
-612.259	12.638	-0.089	0.068
-611.244	-3.801	-0.046	-0.032
-610.230	-200.000	-0.042	0.232
-609.215	36.488	-0.118	-0.104
-608.201	800.000	0.098	0.300
-607.186	123.644	-0.222	-0.278
-606.171	28.179	-0.235	0.198
-605.157	126.165	-0.076	-0.096
-604.142	-148.564	-0.118	0.010
-603.128	-66.778	-0.091	-0.036
-602.113	26.513	0.087	-0.072
-601.098	281.603	0.343	-0.613
-600.084	-86.429	0.289	0.089
-599.069	60.249	-0.029	0.029
-598.055	-164.040	-0.333	0.015
-597.040	-154.671	0.084	0.006
-596.025	-114.311	-0.336	0.065
-595.011	800.000	-0.040	0.148
-593.996	-200.000	-0.002	-0.091
-592.982	800.000	0.029	0.103
-591.967	800.000	0.038	-0.145
-590.952	-200.000	-0.006	-0.060
-589.938	-146.249	-0.142	0.012
-588.923	-200.000	-0.003	-0.098
-587.909	101.148	0.035	-0.041
-586.894	-200.000	-0.022	-0.402
-585.879	31.163	-0.172	-0.147
-584.865	800.000	0.055	-0.173
-583.850	-85.281	-0.605	-0.188
-582.836	-158.594	0.113	-0.006
-581.821	-87.176	-0.054	-0.016
-580.806	458.120	0.163	-0.361
-579.792	-199.472	-0.162	0.001
-578.777	800.000	-0.074	0.215
-577.763	-200.000	0.021	0.404
-576.748	84.703	0.144	0.157
-575.733	800.000	-0.039	-0.151
-574.719	-141.950	-0.289	0.029
-573.704	40.044	0.086	0.077
-572.690	-92.618	-0.245	-0.069
-571.675	113.802	-0.346	-0.418
-570.661	-110.852	0.662	-0.136
-569.646	238.542	0.099	0.163
-568.631	77.038	0.191	-0.202
-567.617	-200.000	0.031	-0.184
-566.602	-200.000	-0.052	-0.466
-565.588	-116.131	-0.132	-0.024
-564.573	-98.373	0.206	-0.053
-563.558	800.000	0.091	-0.386
-562.544	800.000	0.071	-0.224
-561.529	800.000	0.026	0.100
-560.515	-119.529	0.342	-0.059
-559.500	-57.066	-0.318	-0.140
-558.485	-200.000	-0.020	-0.209
-557.471	-89.289	0.291	-0.085
-556.456	-50.814	-0.331	-0.155
-555.442	-71.614	-0.125	-0.046
-554.427	-32.631	0.223	0.124
-553.412	-21.981	0.098	0.059
-552.398	-121.725	-0.198	-0.033
-551.383	6.940	0.270	0.200
-550.369	-131.892	0.030	0.004
-549.354	-12.084	0.062	0.040
-548.339	800.000	0.082	-0.246
-547.325	87.246	0.296	0.326
-546.310	-49.929	-0.140	-0.066
-545.296	78.364	-0.261	0.277
-544.281	13.819	0.199	-0.154
-543.266	205.444	0.164	-0.253
-542.252	-14.706	-0.139	0.089
-541.237	212.672	0.076	-0.119
-540.223	2.117	0.308	-0.221
-539.208	250.743	0.087	-0.148
-538.193	-91.360	0.201	-0.057
-537.179	34.358	0.164	-0.142
-536.164	-97.469	0.231	-0.060
-535.150	-24.553	-0.081	0.048
-534.135	301.578	0.104	0.191
-533.121	800.000	0.042	-0.139
-532.106	-3.899	0.199	-0.137
-531.091	-142.885	-0.026	0.002
-530.077	-200.000	-0.020	-0.319
-529.062	-200.000	-0.002	0.242
-528.048	-123.463	-0.249	0.039
-527.033	44.750	0.246	-0.225
-526.018	-100.734	-0.179	-0.044
-525.004	72.490	-0.032	-0.033
-523.989	42.850	-0.303	0.274
-522.975	-200.000	-0.063	-0.287
-521.960	-98.022	-0.175	-0.045
-520.945	-48.933	0.322	-0.153
-519.931	115.475	-0.303	0.368
-518.916	148.940	-0.268	0.360
-517.902	-62.751	0.051	0.021
-516.887	46.703	0.238	-0.220
-515.872	-4.582	0.219	0.150
-514.858	776.313	-0.086	-0.234
-513.843	128.050	-0.197	0.249
-512.829	-11.567	-0.086	-0.056
-511.814	244.500	0.023	0.039
-510.799	149.656	-0.084	-0.113
-509.785	114.752	-0.336	-0.406
-508.770	309.922	-0.059	0.109
-507.756	-63.166	-0.380	0.156
-506.741	207.719	0.090	0.139
-505.726	-71.672	-0.118	0.044
-504.712	-60.624	-0.055	0.023
-503.697	-105.401	0.098	0.022
-502.683	-200.000	0.050	0.313
-501.668	-39.864	-0.340	0.176
-500.653	664.678	-0.110	-0.283
-499.639	-106.935	0.323	0.071
-498.624	-11.613	-0.207	0.135
-497.610	800.000	-0.073	0.250
-496.595	164.261	-0.146	0.204
-495.581	286.651	0.229	0.411
-494.566	-75.471	-0.323	0.114
-493.551	458.024	-0.091	0.202
-492.537	-200.000	-0.030	-0.286
-491.522	501.357	0.103	0.237
-490.508	461.947	-0.086	-0.191
-489.493	-34.551	0.237	-0.129
-488.478	399.167	-0.039	-0.080
-487.464	33.559	-0.152	0.131
-486.449	-123.893	0.256	0.040
-485.435	-200.000	0.019	0.184
-484.420	352.563	0.079	-0.156
-483.405	188.969	-0.101	0.150
-482.391	-26.744	-0.088	-0.051
-481.376	-77.131	0.196	0.068
-480.362	-31.111	0.223	-0.124
-479.347	-46.009	-0.207	0.101
-478.332	23.118	-0.061	0.050
-477.318	29.371	0.224	-0.189
-476.303	-114.552	0.341	0.065
-475.289	-5.174	0.344	0.235
-474.274	-200.000	0.008	-0.055
-473.259	616.215	0.069	-0.171
-472.245	148.769	-0.056	0.075
-471.230	-200.000	-0.039	0.255
-470.216	800.000	0.088	0.290
-469.201	171.445	0.196	-0.279
-468.186	192.098	-0.225	0.336
-467.172	-150.621	0.114	0.009
-466.157	-42.629	0.296	0.150
-465.143	102.833	0.044	0.051
-464.128	-200.000	0.020	-0.117
-463.113	89.086	-0.140	0.155
-462.099	-200.000	0.020	0.173
-461.084	800.000	-0.060	0.193
-460.070	-29.047	0.028	0.016
-459.055	34.551	0.217	0.188
-458.040	-121.727	-0.255	0.042
-457.026	-22.091	-0.226	-0.136
-456.011	-200.000	0.021	0.204
-454.997	-145.049	0.160	0.014
-453.982	-200.000	-0.033	-0.258
-452.968	225.830	0.080	-0.129
-451.953	1.599	-0.197	0.141
-450.938	-112.952	-0.343	0.067
-449.924	-137.444	0.039	0.004
-448.909	-162.651	0.145	-0.007
-447.895	-109.970	-0.256	-0.053
-446.880	-200.000	-0.059	-0.435
-445.865	418.554	-0.076	0.161
-444.851	-104.200	0.128	-0.029
-443.836	140.805	-0.110	0.144
-442.822	-193.713	0.112	0.001
-441.807	-9.987	0.037	0.024
-440.792	800.000	-0.132	-0.541
-439.778	-200.000	0.028	0.207
-438.763	-67.592	0.356	-0.138
-437.749	315.338	-0.021	-0.039
-436.734	-186.601	-0.113	-0.002
-435.719	800.000	-0.051	0.203
-434.705	13.255	-0.030	-0.023
-433.690	-200.000	0.002	-0.313
-432.676	204.959	0.187	0.287
-431.661	280.985	0.160	0.284
-430.646	-103.590	-0.380	-0.088
-429.632	-200.000	-0.005	0.073
-428.617	-27.780	0.393	0.225
-427.603	31.926	0.208	-0.177
-426.588	-200.000	0.037	0.330
-425.573	98.974	0.199	-0.228
-424.559	-149.156	-0.327	0.026
-423.544	20.122	0.082	0.065
-422.530	800.000	-0.064	0.247
-421.515	-99.446	0.094	-0.024
-420.500	17.064	-0.131	-0.102
-419.486	-110.672	-0.287	0.059
-418.471	-123.493	0.139	-0.022
-417.457	-200.000	-0.007	0.215
-416.442	254.626	0.050	-0.084
-415.428	800.000	-0.116	-0.329
-414.413	-200.000	-0.028	-0.436
-413.398	-200.000	-0.029	-0.192
-412.384	800.000	-0.096	-0.287
-411.369	107.085	0.069	-0.081
-410.355	128.215	0.113	0.142
-409.340	-14.701	0.051	0.032
-408.325	-47.562	-0.040	0.019
-407.311	503.874	0.148	0.338
-406.296	-47.566	-0.151	-0.072
-405.282	363.831	0.096	0.190
-404.267	-60.884	0.283	-0.119
-403.252	382.818	-0.082	0.167
-402.238	-200.000	-0.007	0.168
-401.223	6.136	-0.141	-0.103
-400.209	-40.266	0.248	-0.127
-399.194	-37.034	0.069	0.037
-398.179	-121.089	0.158	0.026
-397.165	124.854	-0.062	0.077
-396.150	-72.119	0.419	0.154
-395.136	22.436	-0.079	0.064
-394.121	-200.000	0.015	-0.175
-393.106	-91.500	0.371	-0.105
-392.092	377.433	-0.164	-0.331
-391.077	-123.462	-0.193	-0.030
-390.063	158.453	0.141	0.194
-389.048	-200.000	0.017	0.302
-388.033	800.000	0.090	0.259
-387.019	8.249	-0.090	-0.067
-386.004	-25.388	-0.226	0.132
-384.990	-66.813	-0.277	0.108
-383.975	-15.388	-0.068	-0.043
-382.960	93.703	-0.127	0.142
-381.946	800.000	0.084	0.265
-380.931	213.287	-0.057	-0.090
-379.917	-48.344	-0.164	0.078
-378.902	771.344	-0.052	0.141
-377.888	27.532	-0.315	0.262
-376.873	75.717	-0.253	-0.264
-375.858	800.000	-0.012	-0.048
-374.844	-200.000	-0.015	0.131
-373.829	30.952	-0.224	-0.190
-372.815	-67.141	0.183	-0.071
-371.800	-93.836	-0.369	0.100
-370.785	-53.035	-0.168	-0.076
-369.771	-97.497	-0.036	-0.009
-368.756	368.043	-0.049	0.098
-367.742	122.095	0.146	-0.180
-366.727	-200.000	0.019	0.171
-365.712	56.961	0.203	0.196
-364.698	8.893	-0.262	-0.195
-363.683	154.471	-0.098	0.132
-362.669	34.308	0.117	0.100
-361.654	-200.000	0.021	0.218
-360.639	-172.426	0.126	0.004
-359.625	-200.000	-0.048	0.219
-358.610	182.613	0.095	-0.138
-357.596	-200.000	-0.049	0.470
-356.581	436.617	0.091	-0.195
-355.566	457.098	0.024	0.054
-354.552	-49.765	0.041	0.019
-353.537	-200.000	0.003	0.410
-352.523	52.334	-0.066	0.062
-351.508	800.000	0.023	-0.074
-350.493	473.924	-0.072	-0.160
-349.479	800.000	0.087	0.249
-348.464	-173.343	0.175	-0.005
-347.450	456.352	-0.154	0.337
-346.435	14.376	-0.188	-0.145
-345.420	-79.257	-0.332	-0.111
-344.406	-67.043	0.140	0.055
-343.391	323.701	-0.114	0.214
-342.377	-169.996	0.045	0.002
-341.362	278.076	0.101	0.178
-340.348	-200.000	0.028	-0.261
-339.333	-16.350	0.148	0.093
-338.318	-142.163	0.123	-0.012
-337.304	83.706	0.073	0.079
-336.289	197.876	-0.173	0.261
-335.275	-31.368	0.067	0.037
-334.260	-98.337	0.209	0.053
-333.245	-200.000	0.003	-0.234
-332.231	35.387	-0.132	0.114
-331.216	66.707	-0.106	-0.106
-330.202	3.564	-0.264	-0.190
-329.187	180.424	-0.230	-0.332
-328.172	421.446	-0.115	-0.244
-327.158	-12.213	0.250	-0.161
-326.143	142.134	-0.142	0.186
-325.129	-47.129	0.334	0.161
-324.114	124.774	0.221	-0.274
-323.099	136.699	-0.056	-0.072
-322.085	800.000	-0.027	-0.075
-321.070	800.000	-0.067	0.224
-320.056	-200.000	0.007	0.267
-319.041	-149.009	0.122	0.010
-318.026	-200.000	0.014	-0.241
-317.012	800.000	-0.059	0.225
-315.997	800.000	-0.131	0.402
-314.983	67.914	-0.114	0.115
-313.968	-127.978	-0.238	0.034
-312.953	3.000	0.105	-0.075
-311.939	-115.827	-0.276	0.051
-310.924	87.603	0.110	0.120
-309.910	-200.000	-0.033	0.246
-308.895	400.808	0.050	0.103
-307.880	3.721	-0.117	0.084
-306.866	-55.016	0.183	-0.081
-305.851	-200.000	0.052	0.239
-304.837	-200.000	-0.008	-0.213
-303.822	4.706	-0.247	0.178
-302.807	800.000	-0.034	-0.139
-301.793	-200.000	-0.015	-0.084
-300.778	-188.672	0.424	-0.005
-299.764	56.849	-0.176	-0.169
-298.749	225.441	-0.091	0.146
-297.735	-105.122	0.490	-0.110
-296.720	81.516	0.136	-0.145
-295.705	-56.021	-0.276	-0.121
-294.691	-35.558	-0.160	0.086
-293.676	-70.997	0.103	0.038
-292.662	728.467	0.147	-0.386
-291.647	-105.824	0.175	-0.039
-290.632	-49.472	-0.084	-0.040
-289.618	-175.988	-0.152	0.004
-288.603	-128.007	-0.279	-0.039
-287.589	-200.000	-0.038	-0.244
-286.574	479.654	0.084	0.187
-285.559	-18.728	0.301	0.185
-284.545	15.359	0.159	0.123
-283.530	64.437	0.257	-0.254
-282.516	-200.000	-0.042	-0.185
-281.501	85.208	-0.128	-0.138
-280.486	376.868	0.133	-0.267
-279.472	-200.000	0.027	0.332
-278.457	327.124	-0.096	0.180
-277.443	25.471	0.066	0.054
-276.428	-16.940	0.251	0.156
-275.413	578.608	-0.065	0.156
-274.399	-131.067	0.631	-0.083
-273.384	-107.490	0.091	0.020
-272.370	-90.940	-0.151	0.043
-271.355	-200.000	-0.030	-0.143
-270.340	596.415	0.023	-0.056
-269.326	304.149	0.111	-0.202
-268.311	-21.681	0.152	-0.091
-267.297	795.119	-0.141	-0.382
-266.282	-200.000	0.226	-0.001
-265.267	305.549	0.048	-0.088
-264.253	-80.188	0.232	0.077
-263.238	-102.577	-0.168	-0.040
-262.224	-17.813	0.132	0.081
-261.209	-152.146	0.353	0.025
-260.195	108.435	-0.279	-0.327
-259.180	-200.000	-0.036	0.213
-258.165	800.000	0.047	-0.193
-257.151	343.460	-0.182	-0.351
-256.136	-200.000	0.007	-0.063
-255.122	119.097	0.167	0.202
-254.107	230.373	0.139	-0.223
-253.092	217.586	0.051	-0.080
-252.078	510.178	0.075	-0.171
-251.063	-120.429	0.270	0.045
-250.049	-22.527	-0.070	-0.042
-249.034	-36.083	0.076	0.040
-248.019	-139.849	0.497	0.052
-247.005	127.213	0.127	0.158
-245.990	-45.952	0.248	-0.120
-244.976	354.614	-0.216	0.422
-243.961	800.000	0.020	-0.063
-242.946	-200.000	0.040	0.203
-241.932	-113.486	0.136	-0.026
-240.917	410.947	-0.145	0.302
-239.903	425.542	-0.040	0.084
-238.888	-98.880	0.137	-0.034
-237.873	44.284	0.065	-0.059
-236.859	81.301	0.293	-0.311
-235.844	-68.216	0.298	0.114
-234.830	244.107	-0.246	-0.405
-233.815	800.000	-0.057	0.238
-232.800	111.137	-0.333	0.394
-231.786	336.719	-0.209	-0.399
-230.771	-200.000	0.051	-0.278
-229.757	-169.177	-0.328	0.012
-228.742	800.000	0.041	-0.128
-227.727	100.088	-0.204	0.233
-226.713	168.764	0.051	-0.072
-225.698	313.892	-0.130	0.240
-224.684	-61.174	0.248	0.103
-223.669	-200.000	-0.030	0.222
-222.655	495.457	0.054	0.122
-221.640	-2.499	-0.177	0.122
-220.625	800.000	-0.093	0.313
-219.611	527.412	-0.089	0.205
-218.596	-49.945	-0.098	0.046
-217.582	-113.013	0.352	-0.068
-216.567	125.336	-0.300	-0.372
-215.552	800.000	0.084	0.280
-214.538	84.239	0.185	0.199
-213.523	-139.388	-0.054	0.006
-212.509	238.128	-0.128	0.208
-211.494	-137.856	-0.300	-0.033
-210.479	-101.350	0.320	-0.077
-209.465	-200.000	-0.015	-0.288
-208.450	94.552	0.381	-0.425
-207.436	-13.456	-0.263	0.167
-206.421	-23.063	-0.140	0.083
-205.406	117.165	0.059	0.071
-204.392	45.396	0.184	0.166
-203.377	257.086	-0.132	-0.223
-202.363	63.010	-0.152	0.149
-201.348	192.288	-0.105	0.156
-200.333	-200.000	0.076	-0.327
-199.319	-200.000	0.014	0.092
-198.304	54.794	0.250	0.237
-197.290	179.644	-0.181	0.259
-196.275	800.000	0.081	-0.229
-195.260	-69.912	0.300	-0.112
-194.246	-93.580	0.241	-0.065
-193.231	19.610	0.025	-0.020
-192.217	-89.760	0.168	-0.048
-191.202	-48.782	0.217	-0.102
-190.187	-200.000	0.026	0.370
-189.173	6.235	0.087	-0.063
-188.158	-31.403	0.135	-0.075
-187.144	-200.000	-0.002	0.314
-186.129	574.177	0.078	-0.186
-185.114	800.000	-0.031	-0.096
-184.100	-200.000	0.051	0.318
-183.085	-9.216	-0.037	-0.024
-182.071	15.210	0.050	0.038
-181.056	-200.000	0.008	-0.231
-180.042	75.465	0.073	0.076
-179.027	-200.000	0.036	0.334
-178.012	-200.000	0.013	-0.209
-176.998	-200.000	0.013	-0.066
-175.983	58.739	0.029	-0.028
-174.969	800.000	0.030	-0.125
-173.954	-99.329	0.120	0.030
-172.939	561.399	0.057	-0.136
-171.925	387.118	0.068	0.138
-170.910	39.513	0.302	0.265
-169.896	-116.019	-0.221	-0.040
-168.881	363.720	-0.109	0.214
-167.866	173.468	-0.214	-0.302
-166.852	355.849	-0.196	0.382
-165.837	407.159	0.060	-0.124
-164.823	-142.822	-0.320	0.030
-163.808	-55.513	-0.280	-0.123
-162.793	-37.779	0.031	0.016
-161.779	497.286	0.085	-0.193
-160.764	-200.000	0.005	0.070
-159.750	-56.027	-0.210	0.092
-158.735	-81.331	0.114	-0.037
-157.720	0.966	0.027	-0.019
-156.706	-122.688	-0.348	0.055
-155.691	34.737	0.186	-0.160
-154.677	-12.613	-0.158	-0.101
-153.662	-72.572	0.225	0.081
-152.647	-94.012	-0.455	0.122
-151.633	-72.909	-0.079	-0.028
-150.618	167.188	0.105	0.146
-149.604	57.266	-0.161	-0.154
-148.589	185.397	0.067	0.098
-147.574	-200.000	-0.053	0.346
-146.560	102.109	0.248	-0.284
-145.545	21.886	0.312	0.249
-144.531	128.441	-0.204	0.254
-143.516	641.137	0.160	0.398
-142.502	373.765	0.208	0.413
-141.487	564.307	-0.081	-0.192
-140.472	-158.356	0.139	0.008
-139.458	121.198	-0.048	0.059
-138.443	-35.426	-0.094	0.050
-137.429	800.000	-0.004	0.012
-136.414	-53.843	-0.138	0.061
-135.399	800.000	0.004	0.011
-134.385	-87.044	0.106	0.032
-133.370	-68.665	0.031	-0.012
-132.356	135.033	-0.074	0.094
-131.341	-17.656	0.279	0.171
-130.326	-200.000	-0.019	-0.186
-129.312	-93.204	-0.560	0.152
-128.297	565.092	-0.054	0.128
-127.283	800.000	-0.066	0.217
-126.268	497.747	-0.163	0.366
-125.253	-108.657	-0.151	-0.032
-124.239	686.735	-0.096	0.246
-123.224	800.000	-0.112	0.334
-122.210	-85.626	-0.041	-0.012
-121.195	-82.041	0.123	0.039
-120.180	-7.974	0.055	-0.036
-119.166	227.317	-0.122	-0.194
-118.151	-137.204	0.023	0.003
-117.137	-7.787	0.327	-0.216
-116.122	-88.306	0.207	0.060
-115.107	113.931	0.269	-0.319
-114.093	-192.166	-0.196	0.002
-113.078	175.113	-0.220	-0.311
-112.064	199.632	0.118	-0.176
-111.049	115.749	-0.086	0.103
-110.034	212.563	0.093	-0.143
-109.020	-200.000	-0.045	-0.242
-108.005	-155.907	0.094	0.006
-106.991	-200.000	0.014	-0.368
-105.976	177.874	0.150	-0.213
-104.962	417.086	0.137	-0.286
-103.947	-53.928	-0.229	0.102
-102.932	300.860	0.047	0.085
-101.918	800.000	-0.093	0.308
-100.903	-62.344	-0.169	-0.069
-99.889	-200.000	0.012	0.113
-98.874	-139.867	0.228	0.024
-97.859	-200.000	0.035	0.174
-96.845	-111.046	0.152	0.030
-95.830	41.757	-0.171	-0.151
-94.816	375.359	-0.049	-0.097
-93.801	131.840	0.195	-0.245
-92.786	-112.778	-0.251	-0.049
-91.772	-83.357	0.183	-0.057
-90.757	93.836	0.101	-0.112
-89.743	-121.510	0.254	0.041
-88.728	-140.663	0.132	0.013
-87.713	17.210	0.085	0.066
-86.699	-38.578	-0.124	0.064
-85.684	-200.000	0.156	-0.000
-84.670	-125.778	0.125	0.019
-83.655	-5.875	0.225	-0.151
-82.640	-96.266	0.290	0.075
-81.626	46.217	-0.021	-0.019
-80.611	-158.857	-0.228	-0.013
-79.597	128.350	0.175	-0.218
-78.582	-140.187	-0.157	0.016
-77.567	-130.057	-0.101	0.013
-76.553	-97.260	-0.362	-0.092
-75.538	46.981	0.275	0.250
-74.524	800.000	0.053	-0.171
-73.509	800.000	-0.028	0.100
-72.494	125.282	0.118	0.146
-71.480	257.291	-0.076	0.128
-70.465	-12.478	0.303	-0.193
-69.451	800.000	-0.107	-0.290
-68.436	-53.803	0.273	-0.121
-67.422	80.153	0.257	0.270
-66.407	-104.735	-0.308	-0.069
-65.392	-200.000	0.002	-0.124
-64.378	700.779	-0.138	-0.353
-63.363	-73.583	0.126	-0.045
-62.349	27.740	0.213	-0.175
-61.334	112.200	-1.299	-1.533
-60.319	71.953	0.599	0.608
-59.305	800.000	-0.548	-1.649
-58.290	142.108	0.768	0.994
-57.276	-200.000	0.283	1.471
-56.261	-200.000	124.158	661.792
-55.246	433.902	1553.906	3292.658
-54.232	145.910	2702.570	3535.220
-53.217	96.681	2140.715	2391.810
-52.203	34.904	1580.429	1349.179
-51.188	26.763	1326.503	1083.920
-50.173	24.162	1288.839	1037.966
-49.159	51.985	1358.152	1261.660
-48.144	48.732	1369.925	1253.070
-47.130	26.897	1317.838	1077.464
-46.115	23.663	1298.643	1042.766
-45.100	23.394	1293.564	1037.071
-44.086	23.334	1291.492	1035.018
-43.071	23.389	1288.665	1033.032
-42.057	23.335	1286.627	1031.042
-41.042	23.394	1285.329	1030.306
-40.027	23.357	1284.019	1029.002
-39.013	23.336	1281.854	1027.102
-37.998	23.541	1280.115	1026.852
-36.984	23.426	1278.038	1024.482
-35.969	23.412	1277.169	1023.664
-34.954	23.488	1275.291	1022.559
-33.940	23.447	1274.063	1021.298
-32.925	23.555	1272.453	1020.586
-31.911	23.516	1271.116	1019.250
-30.896	23.554	1269.940	1018.483
-29.881	23.655	1268.277	1017.687
-28.867	23.624	1267.557	1016.896
-27.852	23.635	1265.988	1015.658
-26.838	23.613	1264.645	1014.412
-25.823	23.690	1262.992	1013.485
-24.809	23.633	1261.619	1012.022
-23.794	23.596	1260.598	1010.949
-22.779	23.613	1259.086	1009.792
-21.765	23.522	1258.325	1008.629
-20.750	23.573	1256.827	1007.673
-19.736	23.462	1255.698	1006.100
-18.721	23.399	1254.474	1004.722
-17.706	23.460	1253.283	1004.073
-16.692	23.336	1252.519	1002.720
-15.677	23.351	1251.380	1001.855
-14.663	23.441	1249.984	1001.205
-13.648	23.377	1248.450	999.577
-12.633	23.571	1247.424	999.807
-11.619	23.615	1246.867	999.569
-10.604	23.551	1246.162	998.603
-9.590	23.502	1245.603	997.839
-8.575	23.425	1244.256	996.290
-7.560	23.487	1243.508	995.997
-6.546	23.405	1242.569	994.747
-5.531	23.421	1241.832	994.209
-4.517	23.399	1241.305	993.624
-3.502	23.520	1240.032	993.243
-2.487	23.426	1239.710	992.416
-1.473	23.346	1235.389	988.471
-0.458	21.841	1220.061	967.873
0.556	16.657	1204.748	931.273
1.571	13.179	1212.559	917.940
2.586	12.427	1227.900	925.236
3.600	12.442	1215.103	915.598
4.615	8.987	1144.585	844.230
5.629	3.030	1074.770	763.155
6.644	0.347	1057.483	737.697
7.659	0.066	1055.975	735.210
8.673	0.126	1054.768	734.596
9.688	0.111	1053.600	733.642
10.702	0.280	1050.983	732.580
11.717	3.798	1055.492	752.813
12.731	10.760	1064.870	793.546
13.746	15.741	1070.132	821.789
14.761	16.721	1071.446	827.516
15.775	16.004	1070.055	822.871
16.790	14.920	1067.943	815.890
17.804	14.153	1066.958	811.323
18.819	13.945	1065.216	808.913
19.834	13.666	1064.625	807.035
20.848	13.507	1063.406	805.269
21.863	13.345	1062.409	803.655
22.877	13.155	1061.989	802.343
23.892	13.081	1061.293	801.388
24.907	12.998	1060.725	800.486
25.921	13.106	1059.643	800.120
26.936	13.220	1058.540	799.769
27.950	13.201	1058.227	799.368
28.965	13.234	1056.615	798.241
29.980	13.495	1054.768	798.034
30.994	13.346	1053.919	796.603
32.009	13.247	1053.733	795.914
33.023	13.257	1052.042	794.612
34.038	13.141	1051.577	793.634
35.053	13.156	1050.364	792.722
36.067	13.153	1049.783	792.201
37.082	13.178	1049.257	791.854
38.096	13.317	1048.159	791.620
39.111	13.322	1047.561	791.119
40.126	13.181	1046.010	789.204
41.140	13.165	1044.937	788.252
42.155	13.001	1043.817	786.556
43.169	13.088	1042.875	786.187
44.184	13.050	1041.651	785.015
45.199	12.919	1041.308	784.064
46.213	13.032	1040.077	783.606
47.228	13.138	1038.537	782.877
48.242	13.195	1037.807	782.528
49.257	13.175	1036.737	781.557
50.271	13.183	1035.845	780.852
51.286	13.142	1034.949	779.916
52.301	13.104	1034.080	779.015
53.315	13.079	1033.166	778.139
54.330	13.031	1032.003	776.965
55.344	13.124	1031.138	776.684
56.359	13.108	1030.543	776.092
57.374	13.075	1029.562	775.132
58.388	13.003	1028.705	774.081
59.403	13.123	1027.662	773.786
60.417	12.867	1027.021	772.038
61.432	13.027	1026.335	772.202
62.447	13.092	1025.555	771.850
63.461	12.973	1024.777	770.641
64.476	12.872	1024.049	769.553
65.490	12.910	1023.133	768.975
66.505	13.121	1022.081	769.097
67.520	12.965	1021.497	767.868
68.534	13.071	1020.634	767.642
69.549	13.048	1019.855	766.883
70.563	12.990	1018.994	765.897
71.578	13.005	1018.097	765.223
72.593	12.922	1017.878	764.608
73.607	12.896	1017.167	763.886
74.622	12.974	1016.708	763.835
75.636	12.877	1016.131	762.882
76.651	13.035	1014.975	762.680
77.666	13.110	1014.267	762.427
78.680	12.943	1013.314	760.871
79.695	13.072	1012.709	760.943
80.709	12.969	1012.363	760.143
81.724	13.086	1011.525	759.984
82.739	12.984	1011.140	759.156
83.753	13.163	1009.978	759.041
84.768	13.247	1008.681	758.385
85.782	13.248	1008.007	757.817
86.797	13.166	1007.438	756.945
87.812	13.084	1006.906	756.104
88.826	13.064	1005.803	755.115
89.841	13.167	1005.134	755.016
90.855	13.214	1004.006	754.320
91.870	13.174	1003.297	753.538
92.884	13.350	1002.303	753.524
93.899	13.318	1001.347	752.594
94.914	13.263	1000.808	751.871
95.928	13.277	999.715	751.049
96.943	13.299	998.764	750.369
97.957	13.242	997.766	749.291
98.972	13.304	997.242	749.114
99.987	13.263	996.402	748.233
101.001	13.208	995.529	747.260
102.016	13.236	994.685	746.685
103.030	13.241	993.706	745.909
104.045	13.166	993.421	745.289
105.060	13.223	992.228	744.588
106.074	13.172	991.334	743.623
107.089	13.150	990.159	742.575
108.103	13.268	989.215	742.331
109.118	13.128	988.255	740.918
110.133	13.088	987.689	740.248
111.147	13.075	987.016	739.618
112.162	13.066	986.456	739.092
113.176	13.190	985.205	738.645
114.191	13.137	984.708	737.972
115.206	13.316	983.453	737.762
116.220	13.196	982.933	736.773
117.235	13.169	981.846	735.773
118.249	13.159	981.181	735.167
119.264	13.163	980.269	734.433
120.279	13.129	979.392	733.562
121.293	13.126	979.028	733.210
122.308	13.048	978.322	732.271
123.322	13.042	977.088	731.255
124.337	13.189	975.994	731.020
125.352	13.170	974.891	730.049
126.366	13.165	973.781	729.128
127.381	13.126	972.695	728.081
128.395	13.103	972.406	727.699
129.410	13.096	971.069	726.604
130.424	13.151	970.068	726.030
131.439	13.213	969.517	725.828
132.454	13.295	968.473	725.342
133.468	13.184	967.907	724.367
134.483	13.156	967.396	723.798
135.497	13.150	966.280	722.870
136.512	13.104	965.674	722.154
137.527	13.197	964.573	721.670
138.541	13.066	964.249	720.796
139.556	13.117	963.291	720.238
140.570	13.200	962.747	720.128
141.585	13.415	961.317	719.930
142.600	13.358	960.632	719.104
143.614	13.428	959.643	718.607
144.629	13.265	959.694	717.873
145.643	13.345	957.979	716.875
146.658	13.322	956.964	715.952
147.673	13.323	956.358	715.440
148.687	13.368	955.289	714.770
149.702	13.363	954.098	713.793
150.716	13.395	953.618	713.510
151.731	13.433	953.253	713.335
152.746	13.322	952.716	712.392
153.760	13.363	951.941	711.927
154.775	13.387	951.332	711.511
155.789	13.463	950.752	711.344
156.804	13.419	950.249	710.713
157.819	13.511	949.273	710.317
158.833	13.494	948.845	709.861
159.848	13.613	947.459	709.269
160.862	13.546	946.509	708.211
161.877	13.534	945.808	707.569
162.892	13.490	944.689	706.484
163.906	13.563	943.958	706.186
164.921	13.391	943.283	704.886
165.935	13.381	942.908	704.501
166.950	13.527	941.305	703.859
167.964	13.538	940.434	703.191
168.979	13.546	939.444	702.424
169.994	13.454	939.101	701.715
171.008	13.489	938.114	701.065
172.023	13.584	937.525	700.963
173.037	13.661	936.994	700.832
174.052	13.712	936.188	700.384
175.067	13.538	935.702	699.223
176.081	13.561	934.970	698.708
177.096	13.620	934.687	698.685
178.110	13.528	934.073	697.777
179.125	13.642	932.977	697.377
180.140	13.600	932.725	696.951
181.154	13.642	932.361	696.791
182.169	13.693	931.537	696.327
183.183	13.706	931.340	696.175
184.198	13.747	930.195	695.429
185.213	13.722	929.641	694.851
186.227	13.806	929.192	694.802
187.242	13.753	928.183	693.764
188.256	13.882	928.051	694.144
189.271	14.014	926.680	693.607
190.286	13.655	926.385	691.830
191.300	13.778	925.407	691.550
192.315	13.583	925.053	690.410
193.329	13.737	924.570	690.634
194.344	13.659	924.032	689.846
195.359	13.724	923.231	689.454
196.373	13.897	922.532	689.592
197.388	13.843	922.035	688.934
198.402	13.896	921.354	688.583
199.417	13.960	920.889	688.442
200.432	13.971	920.117	687.848
201.446	14.078	920.082	688.206
202.461	14.043	919.479	687.548
203.475	14.052	919.021	687.183
204.490	13.942	918.401	686.202
205.504	13.996	917.264	685.515
206.519	14.097	916.112	685.009
207.534	14.021	915.863	684.450
208.548	13.988	915.182	683.746
209.563	14.091	914.573	683.652
210.577	14.043	913.945	682.926
211.592	14.109	913.205	682.585
212.607	14.043	912.696	681.870
213.621	14.181	911.748	681.668
214.636	14.146	911.211	681.065
215.650	14.192	910.200	680.435
216.665	14.225	909.618	680.076
217.680	14.361	908.558	679.779
218.694	14.271	907.865	678.830
219.709	14.255	907.939	678.761
220.723	14.326	906.580	677.975
221.738	14.243	906.330	677.392
222.753	14.488	905.262	677.528
223.767	14.377	904.910	676.752
224.782	14.435	904.547	676.659
225.796	14.317	903.933	675.657
226.811	14.479	903.419	675.873
227.826	14.329	902.401	674.446
228.840	14.390	901.741	674.138
229.855	14.279	901.100	673.151
230.869	14.384	900.172	672.820
231.884	14.400	899.454	672.291
232.899	14.365	899.365	672.024
233.913	14.359	898.174	671.047
234.928	14.464	897.409	670.840
235.942	14.413	896.999	670.271
236.957	14.323	896.920	669.791
237.972	14.383	895.949	669.245
238.986	14.411	894.921	668.531
240.001	14.398	894.571	668.158
241.015	14.435	894.150	667.932
242.030	14.540	893.449	667.771
243.045	14.514	892.884	667.184
244.059	14.475	892.347	666.568
245.074	14.532	891.810	666.336
246.088	14.603	890.832	665.832
247.103	14.585	890.249	665.263
248.117	14.689	889.786	665.274
249.132	14.650	889.429	664.794
250.147	14.716	888.381	664.215
251.161	14.841	887.767	664.191
252.176	14.815	887.121	663.546
253.190	14.827	886.293	662.915
254.205	14.895	886.221	663.072
255.220	14.917	885.240	662.368
256.234	14.815	884.722	661.517
257.249	14.976	883.808	661.411
258.263	14.874	883.576	660.778
259.278	14.825	882.627	659.815
260.293	14.835	882.631	659.801
261.307	15.053	881.636	659.858
262.322	14.921	881.179	658.935
263.336	15.083	880.194	658.780
264.351	15.005	879.420	657.836
265.366	15.131	878.887	657.871
266.380	15.043	878.530	657.202
267.395	15.122	877.729	656.854
268.409	15.008	876.703	655.581
269.424	15.122	876.129	655.541
270.439	15.149	875.292	654.962
271.453	15.089	874.582	654.139
272.468	15.077	874.432	653.923
273.482	15.160	873.878	653.774
274.497	15.212	873.159	653.379
275.512	15.187	872.599	652.805
276.526	15.125	872.196	652.205
277.541	15.086	871.873	651.754
278.555	15.307	871.105	651.980
279.570	15.203	870.422	651.008
280.585	15.326	869.115	650.451
281.599	15.290	868.576	649.851
282.614	15.191	868.351	649.239
283.628	15.335	867.355	648.996
284.643	15.411	866.553	648.633
285.657	15.437	866.194	648.408
286.672	15.362	865.785	647.753
287.687	15.351	865.354	647.331
288.701	15.399	864.369	646.722
289.716	15.347	864.136	646.291
290.730	15.373	863.534	645.882
291.745	15.463	862.475	645.379
292.760	15.563	862.038	645.381
293.774	15.598	861.339	644.936
294.789	15.523	860.891	644.256
295.803	15.379	860.524	643.370
296.818	15.484	859.517	642.964
297.833	15.355	859.190	642.166
298.847	15.537	858.075	641.972
299.862	15.528	857.575	641.509
300.876	15.408	857.476	640.917
301.891	15.659	856.687	641.230
302.906	15.568	856.458	640.655
303.920	15.623	855.855	640.357
304.935	15.735	855.283	640.299
305.949	15.650	854.265	639.156
306.964	15.727	853.772	639.024
307.979	15.760	853.413	638.823
308.993	15.719	852.598	638.000
310.008	15.760	852.481	638.013
311.022	15.770	851.629	637.355
312.037	15.761	850.971	636.771
313.052	15.772	850.274	636.236
314.066	15.706	850.073	635.782
315.081	15.629	849.543	635.039
316.095	15.731	848.654	634.700
317.110	15.689	848.313	634.230
318.125	15.778	847.652	634.018
319.139	15.741	847.151	633.449
320.154	15.759	847.087	633.410
321.168	15.807	846.077	632.781
322.183	15.767	845.518	632.157
323.197	15.911	844.912	632.185
324.212	15.902	844.582	631.849
325.227	15.923	843.922	631.380
326.241	15.801	843.447	630.511
327.256	15.823	842.973	630.182
328.270	15.945	841.961	629.826
329.285	15.895	841.731	629.414
330.300	15.888	840.899	628.708
331.314	15.924	840.733	628.665
332.329	16.017	840.152	628.522
333.343	16.024	839.798	628.224
334.358	16.004	839.203	627.650
335.373	16.107	838.710	627.608
336.387	15.979	838.560	626.964
337.402	16.135	838.178	627.203
338.416	16.251	837.776	627.281
339.431	16.020	837.989	626.526
340.446	16.187	837.343	626.605
341.460	16.305	837.007	626.739
342.475	16.220	836.626	626.083
343.489	16.389	835.852	626.073
344.504	16.284	835.360	625.260
345.519	16.338	835.004	625.139
346.533	16.346	834.309	624.593
347.548	16.223	833.983	623.838
348.562	16.207	833.608	623.443
349.577	16.223	833.002	622.995
350.592	16.272	832.133	622.470
351.606	16.280	831.485	621.959
352.621	16.303	830.719	621.415
353.635	16.385	829.995	621.120
354.650	16.398	829.237	620.547
355.665	16.447	828.689	620.260
356.679	16.415	828.514	619.957
357.694	16.474	827.820	619.599
358.708	16.519	827.074	619.151
359.723	16.499	826.519	618.608
360.738	16.533	826.103	618.366
361.752	16.490	825.333	617.581
362.767	16.387	824.927	616.844
363.781	16.488	824.497	616.838
364.796	16.613	823.690	616.636
365.810	16.562	823.455	616.217
366.825	16.722	823.112	616.491
367.840	16.624	822.721	615.784
368.854	16.554	822.390	615.227
369.869	16.614	821.799	614.949
370.883	16.637	821.393	614.674
371.898	16.690	820.839	614.397
372.913	16.773	820.783	614.604
373.927	16.645	820.134	613.600
374.942	17.002	819.176	614.121
375.956	16.757	819.566	613.471
376.971	16.681	818.972	612.697
377.986	16.668	818.709	612.398
379.000	16.805	817.776	612.143
380.015	16.800	817.312	611.723
381.029	16.963	816.738	611.826
382.044	16.955	816.311	611.425
383.059	17.051	815.492	611.102
384.073	16.928	815.192	610.380
385.088	16.926	814.277	609.634
386.102	16.817	814.162	609.103
387.117	16.906	813.624	608.967
388.132	16.946	812.788	608.429
389.146	16.939	812.061	607.805
390.161	17.028	811.752	607.840
391.175	17.001	811.375	607.409
392.190	16.976	810.985	606.972
393.205	16.951	810.366	606.365
394.219	16.980	810.093	606.212
395.234	17.044	809.737	606.120
396.248	17.005	809.210	605.535
397.263	17.053	808.618	605.206
398.278	16.875	808.554	604.471
399.292	17.109	807.831	604.710
400.307	16.992	807.384	603.908
401.321	17.064	806.904	603.751
402.336	17.195	806.482	603.848
403.350	17.046	806.070	602.954
404.365	17.134	805.720	602.952
405.380	17.151	805.381	602.707
406.394	17.262	804.523	602.405
407.409	17.112	804.000	601.429
408.423	17.224	803.759	601.591
409.438	17.389	803.535	601.952
410.453	17.391	802.902	601.434
411.467	17.340	802.386	600.814
412.482	17.400	802.044	600.717
413.496	17.404	801.990	600.638
414.511	17.462	801.681	600.555
415.526	17.443	801.139	600.030
416.540	17.471	800.591	599.666
417.555	17.626	799.833	599.591
418.569	17.502	800.209	599.382
419.584	17.494	799.272	598.598
420.599	17.510	798.998	598.399
421.613	113.941	1298.764	1488.125
422.628	98.192	1371.531	1488.214
