DTS Sentinel unit serial number:	SN413079Multiplexer serial number:	ORYXHardware model number:	OX4-SRSoftware version number:	ORYX F/W v4.00 Oryx Data Collector v3.7.2.0data status	okinstallation	princeton_trtdifferential loss correction	single-endedforward channel	channel 1reverse channel	N/Adate	2019/09/14time	14:34:35forward acquisition time	60.00reverse acquisition time	0.00gamma	496.2192k internal	0.2292k external	0.2292temperature offset calibration	1.0074default loss term (dB/km)	0.3790temperature slope calibration	1.0000multiplexer offset coefficient	1.0000multiplexer slope coefficient	1.0000fibre end	0.00T internal ref (°C)	39.19T ext. ref 1 (°C)	5.03T ext. ref 2 (°C)	35.44length (m)	temperature (°C)	Stokes	anti-Stokes-747.200	578.118	-0.045	-0.112
-746.185	-39.656	0.182	0.097
-745.171	47.886	0.242	-0.231
-744.156	-200.000	-0.005	0.052
-743.142	800.000	0.037	-0.134
-742.127	267.144	0.176	0.315
-741.112	-96.842	-0.112	-0.030
-740.098	-200.000	-0.004	0.277
-739.083	-121.304	0.373	-0.064
-738.069	-200.000	0.084	0.408
-737.054	-111.916	-0.240	0.050
-736.039	8.203	0.090	-0.070
-735.025	-200.000	-0.036	0.501
-734.010	325.380	0.096	-0.188
-732.996	287.907	0.200	-0.370
-731.981	-92.293	0.268	-0.077
-730.966	-22.343	-0.132	0.082
-729.952	-200.000	0.005	-0.308
-728.937	32.367	0.289	0.255
-727.923	-69.599	-0.359	-0.141
-726.908	309.870	0.051	0.098
-725.894	85.160	-0.201	0.226
-724.879	7.465	-0.139	-0.107
-723.864	109.404	-0.161	-0.197
-722.850	214.582	-0.235	-0.381
-721.835	-55.345	-0.450	0.206
-720.821	-68.150	0.053	0.021
-719.806	-92.502	-0.444	-0.127
-718.791	16.987	0.058	-0.047
-717.777	566.667	-0.087	0.216
-716.762	-200.000	0.001	-0.004
-715.748	-9.629	-0.415	-0.283
-714.733	-138.206	-0.345	0.039
-713.718	-72.968	-0.345	0.130
-712.704	667.147	-0.078	-0.206
-711.689	800.000	0.102	-0.401
-710.675	-86.618	0.115	-0.036
-709.660	-113.982	0.165	-0.033
-708.645	94.511	-0.228	0.265
-707.631	646.450	-0.149	0.388
-706.616	800.000	-0.045	-0.174
-705.602	-144.451	0.386	-0.037
-704.587	-128.195	-0.248	0.036
-703.572	-58.414	0.149	0.066
-702.558	-29.604	0.272	0.159
-701.543	485.727	0.137	0.319
-700.529	-81.199	0.154	0.052
-699.514	237.741	0.055	0.093
-698.499	111.808	0.157	-0.194
-697.485	-50.516	-0.142	-0.068
-696.470	71.727	0.063	-0.067
-695.456	3.618	0.212	-0.158
-694.441	332.855	-0.161	-0.318
-693.426	318.843	-0.206	-0.399
-692.412	228.224	0.098	-0.163
-691.397	800.000	-0.067	0.212
-690.383	-112.569	-0.371	0.076
-689.368	-200.000	0.008	-0.208
-688.354	-36.949	-0.115	-0.063
-687.339	783.198	-0.076	-0.214
-686.324	800.000	0.078	-0.223
-685.310	-127.830	-0.412	0.061
-684.295	278.867	-0.194	-0.353
-683.281	0.781	-0.169	0.124
-682.266	-79.710	-0.182	-0.063
-681.251	209.436	-0.239	-0.382
-680.237	16.115	-0.217	-0.174
-679.222	-127.063	-0.132	0.020
-678.208	177.219	0.182	0.270
-677.193	353.558	0.073	-0.147
-676.178	-124.270	0.404	-0.064
-675.164	-106.473	-0.350	0.080
-674.149	-200.000	0.054	0.328
-673.135	-36.085	0.165	-0.091
-672.120	800.000	-0.035	0.099
-671.105	-55.652	0.153	0.070
-670.091	-200.000	0.003	0.043
-669.076	50.685	0.075	0.072
-668.062	25.753	-0.249	0.211
-667.047	235.435	0.157	-0.265
-666.032	4.029	-0.026	-0.020
-665.018	-200.000	0.002	0.232
-664.003	-86.043	0.378	-0.119
-662.989	-196.506	0.152	-0.001
-661.974	46.400	0.178	-0.169
-660.959	23.297	-0.146	-0.122
-659.945	25.771	-0.130	-0.111
-658.930	499.028	0.081	0.191
-657.916	-200.000	0.034	-0.217
-656.901	28.373	0.345	-0.298
-655.886	33.954	0.083	-0.074
-654.872	18.197	0.168	0.136
-653.857	96.609	-0.270	-0.316
-652.843	-200.000	-0.031	-0.395
-651.828	180.233	-0.084	0.125
-650.814	191.148	0.101	-0.155
-649.799	532.239	-0.155	-0.373
-648.784	-98.325	-0.208	0.054
-647.770	-68.221	-0.163	0.065
-646.755	-20.605	0.048	0.030
-645.741	73.593	0.252	-0.269
-644.726	142.811	0.252	-0.342
-643.711	800.000	-0.022	0.063
-642.697	-112.802	-0.208	0.042
-641.682	-200.000	0.093	0.498
-640.668	145.791	0.077	0.106
-639.653	800.000	-0.052	-0.228
-638.638	-145.875	0.217	0.020
-637.624	51.312	0.292	-0.283
-636.609	-200.000	0.046	-0.235
-635.595	451.264	0.113	-0.253
-634.580	-200.000	-0.007	-0.233
-633.565	-200.000	0.008	0.161
-632.551	-18.264	0.073	-0.046
-631.536	-153.963	-0.160	0.011
-630.522	-134.952	-0.180	0.022
-629.507	800.000	0.056	-0.197
-628.492	-57.879	-0.106	0.047
-627.478	-98.477	-0.177	-0.046
-626.463	169.997	0.188	0.273
-625.449	426.755	-0.166	0.365
-624.434	456.128	-0.118	0.268
-623.419	690.977	0.122	0.324
-622.405	800.000	0.102	-0.430
-621.390	-137.895	-0.411	-0.047
-620.376	-80.402	-0.135	-0.046
-619.361	504.227	0.089	-0.210
-618.346	-54.954	0.048	0.022
-617.332	-168.431	-0.217	0.008
-616.317	198.278	0.075	0.116
-615.303	462.441	0.107	0.243
-614.288	-200.000	0.033	-0.367
-613.273	-200.000	-0.004	-0.078
-612.259	-23.967	0.134	0.082
-611.244	-200.000	-0.038	-0.254
-610.230	-182.374	-0.481	-0.009
-609.215	586.494	0.032	0.081
-608.201	-189.429	0.238	-0.003
-607.186	-80.693	0.117	-0.040
-606.171	-200.000	0.037	-0.179
-605.157	-92.328	-0.135	-0.039
-604.142	-200.000	-0.015	0.345
-603.128	42.745	-0.303	0.281
-602.113	-97.145	-0.166	-0.044
-601.098	234.160	0.049	0.082
-600.084	-143.951	0.129	-0.012
-599.069	800.000	0.025	-0.099
-598.055	-143.633	0.332	0.032
-597.040	485.939	-0.147	0.341
-596.025	-200.000	0.003	-0.427
-595.011	158.494	-0.222	-0.314
-593.996	90.886	-0.126	-0.144
-592.982	-200.000	-0.076	0.448
-591.967	-200.000	0.026	-0.181
-590.952	-100.914	0.187	0.047
-589.938	-200.000	0.054	0.353
-588.923	42.838	0.250	0.232
-587.909	-8.355	-0.114	0.078
-586.894	-200.000	0.010	0.252
-585.879	-200.000	0.040	-0.262
-584.865	-7.356	0.299	-0.206
-583.850	-35.133	0.186	-0.103
-582.836	-18.201	0.151	-0.096
-581.821	-78.299	0.094	0.033
-580.806	-133.531	-0.147	0.019
-579.792	292.465	0.116	0.216
-578.777	-28.833	0.041	-0.024
-577.763	408.079	0.033	0.072
-576.748	800.000	0.134	0.550
-575.733	39.457	-0.086	-0.079
-574.719	800.000	-0.102	-0.290
-573.704	76.315	-0.124	-0.134
-572.690	271.155	-0.087	-0.156
-571.675	166.032	-0.267	0.384
-570.661	-200.000	0.038	0.213
-569.646	-200.000	0.007	-0.162
-568.631	-200.000	0.020	0.203
-567.617	8.368	0.267	0.204
-566.602	633.103	-0.099	-0.254
-565.588	135.102	-0.094	-0.124
-564.573	179.515	-0.122	0.182
-563.558	-136.308	-0.138	0.016
-562.544	-66.949	-0.107	0.043
-561.529	-200.000	-0.034	0.401
-560.515	263.554	0.072	-0.128
-559.500	800.000	0.095	-0.390
-558.485	-114.929	0.200	0.039
-557.471	95.697	0.096	0.111
-556.456	-35.630	0.372	-0.205
-555.442	-56.024	-0.294	0.133
-554.427	-200.000	-0.014	0.342
-553.412	66.348	-0.052	0.053
-552.398	423.777	-0.053	0.116
-551.383	-73.195	-0.369	-0.137
-550.369	-200.000	0.017	-0.080
-549.354	-66.598	0.038	0.015
-548.339	800.000	-0.055	0.162
-547.325	-63.349	0.161	0.067
-546.310	-1.126	0.477	0.343
-545.296	-200.000	-0.013	0.514
-544.281	-200.000	-0.082	-0.385
-543.266	-187.411	0.240	-0.003
-542.252	302.095	-0.062	-0.116
-541.237	-154.437	-0.118	0.008
-540.223	-66.051	-0.066	-0.027
-539.208	800.000	0.051	-0.176
-538.193	-78.350	0.343	-0.119
-537.179	-200.000	-0.024	-0.363
-536.164	104.381	0.094	0.112
-535.150	-106.826	0.410	-0.092
-534.135	-94.543	-0.240	-0.066
-533.121	-119.275	-0.309	0.055
-532.106	-134.148	0.203	0.025
-531.091	504.646	-0.105	-0.246
-530.077	-10.794	-0.200	0.134
-529.062	-66.552	-0.114	0.046
-528.048	117.395	0.041	0.051
-527.033	212.091	0.131	0.209
-526.018	118.702	-0.111	-0.139
-525.004	296.057	-0.118	0.219
-523.989	750.821	-0.045	0.123
-522.975	800.000	-0.027	-0.093
-521.960	-200.000	0.006	-0.057
-520.945	800.000	-0.067	-0.211
-519.931	-88.322	0.156	-0.047
-518.916	44.672	0.108	-0.101
-517.902	-75.076	-0.325	-0.118
-516.887	-80.045	-0.338	-0.115
-515.872	-147.065	-0.296	0.026
-514.858	-176.255	-0.331	-0.009
-513.843	19.058	-0.093	0.076
-512.829	464.094	-0.027	-0.062
-511.814	800.000	-0.038	0.123
-510.799	-27.160	-0.184	-0.109
-509.785	115.988	-0.191	-0.237
-508.770	-32.300	-0.064	-0.036
-507.756	-87.231	-0.328	0.101
-506.741	-151.474	-0.207	0.016
-505.726	240.219	-0.045	0.075
-504.712	52.950	-0.137	-0.133
-503.697	69.918	-0.101	-0.106
-502.683	-98.364	0.076	-0.020
-501.668	800.000	-0.087	0.315
-500.653	-200.000	0.001	-0.075
-499.639	549.903	0.018	-0.044
-498.624	-200.000	-0.005	-0.047
-497.610	-200.000	0.024	0.220
-496.595	26.141	0.138	0.117
-495.581	-154.569	0.259	0.018
-494.566	0.258	-0.234	0.170
-493.551	800.000	0.007	-0.022
-492.537	-62.074	0.199	0.084
-491.522	64.761	-0.239	-0.245
-490.508	52.965	-0.164	-0.159
-489.493	39.723	-0.268	0.243
-488.478	12.689	-0.267	-0.209
-487.464	-154.665	-0.126	0.008
-486.449	-67.162	0.167	-0.067
-485.435	-154.803	0.024	0.002
-484.420	224.348	0.189	0.309
-483.405	653.127	-0.042	0.108
-482.391	122.785	0.065	-0.082
-481.376	27.199	-0.123	-0.105
-480.362	-171.313	-0.223	-0.008
-479.347	544.287	-0.157	-0.380
-478.332	115.512	-0.040	-0.050
-477.318	39.685	-0.183	-0.166
-476.303	164.306	-0.150	0.213
-475.289	453.552	-0.076	0.169
-474.274	225.803	0.210	0.344
-473.259	205.100	-0.058	0.091
-472.245	-72.463	0.106	-0.040
-471.230	-14.406	-0.274	0.179
-470.216	-18.673	0.348	-0.219
-469.201	800.000	-0.087	-0.273
-468.186	160.551	0.089	-0.126
-467.172	-56.274	-0.052	-0.023
-466.157	-200.000	-0.033	-0.173
-465.143	-118.794	-0.334	0.059
-464.128	-200.000	0.033	-0.192
-463.113	-200.000	-0.006	-0.222
-462.099	259.048	0.149	-0.260
-461.084	-56.610	-0.247	-0.111
-460.070	-200.000	-0.038	-0.344
-459.055	-55.672	0.106	0.048
-458.040	800.000	-0.145	-0.433
-457.026	302.874	0.045	0.084
-456.011	33.318	-0.145	0.127
-454.997	-51.460	-0.278	-0.131
-453.982	14.553	0.199	-0.157
-452.968	800.000	-0.117	-0.419
-451.953	800.000	0.032	0.118
-450.938	98.600	0.198	0.231
-449.924	-96.176	0.102	0.027
-448.909	-200.000	-0.005	0.122
-447.895	-35.667	-0.233	0.128
-446.880	800.000	-0.054	0.199
-445.865	10.455	0.236	-0.182
-444.851	-21.653	0.089	-0.055
-443.836	-3.126	0.020	-0.014
-442.822	46.284	-0.265	-0.249
-441.807	82.790	-0.182	-0.200
-440.792	-60.777	-0.039	-0.017
-439.778	-45.474	0.117	0.059
-438.763	-118.154	0.180	0.033
-437.749	-69.165	0.103	-0.040
-436.734	157.843	-0.180	0.252
-435.719	-149.318	-0.077	0.006
-434.705	-200.000	0.006	0.725
-433.690	-200.000	0.017	0.438
-432.676	12.164	0.165	0.128
-431.661	53.485	0.284	-0.275
-430.646	602.467	0.182	-0.457
-429.632	-37.500	-0.134	0.072
-428.617	562.725	-0.105	-0.256
-427.603	-140.573	0.259	0.027
-426.588	140.001	0.180	0.240
-425.573	14.785	-0.370	0.292
-424.559	-12.635	-0.276	-0.182
-423.544	285.101	-0.068	-0.123
-422.530	-111.213	0.034	0.007
-421.515	404.884	0.194	0.414
-420.500	-63.110	0.216	-0.090
-419.486	-122.797	0.118	0.019
-418.471	-83.615	-0.142	-0.046
-417.457	-26.483	0.297	-0.176
-416.442	-96.655	0.194	-0.052
-415.428	273.737	0.126	-0.225
-414.413	-200.000	0.023	-0.198
-413.398	221.402	0.071	0.115
-412.384	-87.873	-0.068	0.021
-411.369	-200.000	0.021	-0.148
-410.355	800.000	0.103	-0.289
-409.340	-200.000	-0.026	0.186
-408.325	-16.211	0.207	0.133
-407.311	-29.463	-0.176	-0.102
-406.296	-14.943	0.220	-0.142
-405.282	-200.000	0.016	-0.326
-404.267	800.000	0.105	0.359
-403.252	-200.000	-0.032	-0.145
-402.238	125.501	-0.123	0.157
-401.223	-200.000	0.015	-0.092
-400.209	-87.893	0.291	-0.088
-399.194	-200.000	-0.040	-0.381
-398.179	91.813	-0.109	-0.124
-397.165	-117.969	-0.115	-0.021
-396.150	217.992	0.087	0.139
-395.136	-92.579	0.438	0.124
-394.121	114.365	-0.200	-0.246
-393.106	9.898	-0.157	0.120
-392.092	87.482	-0.306	0.341
-391.077	800.000	-0.054	0.222
-390.063	118.965	-0.094	0.117
-389.048	308.889	-0.072	0.136
-388.033	393.213	0.147	0.309
-387.019	-134.274	0.177	0.022
-386.004	-200.000	0.052	0.250
-384.990	-200.000	0.012	0.272
-383.975	87.727	-0.169	-0.189
-382.960	-64.197	0.185	0.076
-381.946	401.256	0.099	0.210
-380.931	-200.000	-0.005	0.040
-379.917	73.176	-0.230	0.242
-378.902	562.029	-0.025	-0.061
-377.888	68.351	-0.026	0.027
-376.873	-200.000	0.005	0.318
-375.858	-146.780	0.203	-0.018
-374.844	234.603	-0.179	0.298
-373.829	-152.648	-0.124	0.009
-372.815	254.897	0.163	0.282
-371.800	-200.000	0.022	0.325
-370.785	14.164	-0.310	-0.243
-369.771	271.429	-0.061	0.109
-368.756	-200.000	-0.022	0.205
-367.742	-200.000	-0.014	-0.327
-366.727	96.357	-0.117	0.135
-365.712	-73.571	-0.055	0.020
-364.698	592.750	0.087	0.216
-363.683	-120.312	-0.103	0.018
-362.669	-108.146	-0.163	-0.036
-361.654	800.000	0.052	-0.148
-360.639	-104.330	0.362	0.085
-359.625	38.357	-0.149	-0.133
-358.610	-143.939	-0.260	0.025
-357.596	259.702	-0.138	-0.241
-356.581	14.764	0.156	0.123
-355.566	13.864	0.172	-0.135
-354.552	477.596	-0.160	0.364
-353.537	117.852	0.209	0.260
-352.523	-200.000	0.001	0.276
-351.508	-5.955	0.151	-0.104
-350.493	-110.285	-0.106	0.022
-349.479	-200.000	0.000	0.287
-348.464	800.000	0.048	-0.171
-347.450	-104.487	0.293	-0.068
-346.435	-81.315	0.048	-0.016
-345.420	-200.000	-0.062	-0.460
-344.406	310.665	0.121	-0.228
-343.391	501.562	0.044	0.103
-342.377	357.183	-0.056	-0.112
-341.362	-61.323	0.187	-0.079
-340.348	136.885	-0.254	-0.334
-339.333	800.000	-0.165	-0.462
-338.318	87.417	-0.199	-0.222
-337.304	312.728	0.089	-0.169
-336.289	-186.305	-0.184	-0.003
-335.275	1.630	-0.050	0.036
-334.260	-50.729	-0.097	-0.046
-333.245	-165.656	-0.214	0.009
-332.231	-101.249	0.115	0.028
-331.216	-38.511	0.071	0.038
-330.202	66.772	-0.072	0.074
-329.187	-200.000	-0.037	-0.163
-328.172	-65.720	-0.272	-0.110
-327.158	-134.494	0.202	-0.025
-326.143	-152.630	0.083	0.006
-325.129	-119.659	0.479	0.083
-324.114	56.158	0.297	-0.291
-323.099	800.000	-0.053	-0.178
-322.085	37.246	0.122	0.109
-321.070	-104.472	0.297	0.069
-320.056	-71.092	-0.093	-0.035
-319.041	-31.111	-0.304	0.173
-318.026	377.926	0.105	-0.215
-317.012	-70.835	0.245	0.093
-315.997	-166.206	0.262	-0.011
-314.983	-37.566	0.208	-0.111
-313.968	-200.000	-0.009	-0.259
-312.953	-200.000	-0.006	0.085
-311.939	-110.487	-0.306	-0.064
-310.924	-200.000	0.035	-0.284
-309.910	13.726	0.147	-0.115
-308.895	140.944	-0.179	0.238
-307.880	-200.000	0.025	0.127
-306.866	-200.000	0.086	-0.439
-305.851	249.414	0.078	0.134
-304.837	13.994	0.138	0.108
-303.822	-123.008	0.042	0.007
-302.807	-138.565	-0.196	0.022
-301.793	-200.000	0.019	-0.174
-300.778	398.385	-0.095	-0.200
-299.764	40.176	0.315	-0.285
-298.749	-41.022	0.113	0.059
-297.735	12.799	0.115	0.089
-296.720	-19.016	0.260	-0.163
-295.705	-128.456	0.364	0.052
-294.691	528.395	-0.070	-0.167
-293.676	600.302	0.074	0.184
-292.662	64.018	-0.292	0.295
-291.647	280.560	-0.255	0.458
-290.632	122.752	0.060	0.076
-289.618	-200.000	-0.019	-0.117
-288.603	-24.729	0.104	0.062
-287.589	-200.000	-0.044	0.294
-286.574	441.246	-0.099	0.218
-285.559	-200.000	-0.010	0.114
-284.545	800.000	0.089	-0.363
-283.530	-200.000	-0.026	0.142
-282.516	-34.241	0.238	-0.131
-281.501	71.600	0.124	0.130
-280.486	154.119	0.162	0.223
-279.472	35.857	-0.053	-0.047
-278.457	23.932	0.139	-0.115
-277.443	-104.901	-0.137	-0.032
-276.428	408.425	0.170	0.361
-275.413	263.257	-0.194	0.339
-274.399	-109.725	0.700	-0.148
-273.384	169.308	-0.158	-0.227
-272.370	-98.750	0.269	-0.069
-271.355	5.251	-0.158	-0.117
-270.340	-21.063	-0.288	-0.177
-269.326	-196.731	-0.334	0.002
-268.311	-0.331	-0.088	-0.063
-267.297	-188.229	-0.314	0.004
-266.282	11.991	0.065	0.050
-265.267	-37.022	0.171	-0.092
-264.253	-200.000	0.002	0.125
-263.238	-93.356	-0.165	0.046
-262.224	38.971	-0.119	-0.107
-261.209	-200.000	-0.000	0.239
-260.195	-115.442	0.199	0.038
-259.180	20.294	-0.104	0.084
-258.165	-62.895	0.268	-0.111
-257.151	800.000	0.034	-0.124
-256.136	-200.000	0.000	-0.242
-255.122	-93.260	-0.227	-0.063
-254.107	-121.922	-0.449	-0.074
-253.092	19.352	-0.239	0.192
-252.078	800.000	-0.158	-0.440
-251.063	-200.000	-0.030	-0.161
-250.049	-32.900	0.079	0.044
-249.034	800.000	0.058	0.247
-248.019	-200.000	0.028	0.189
-247.005	-200.000	-0.008	-0.181
-245.990	-103.711	-0.097	-0.023
-244.976	-63.058	-0.298	-0.124
-243.961	45.559	0.308	-0.286
-242.946	213.254	-0.068	-0.107
-241.932	2.831	-0.205	0.149
-240.917	288.899	-0.022	-0.040
-239.903	155.723	0.172	-0.238
-238.888	-0.033	0.142	-0.101
-237.873	-104.139	-0.125	0.029
-236.859	-82.028	0.178	0.058
-235.844	-58.263	0.256	0.112
-234.830	-73.972	-0.133	-0.048
-233.815	-70.867	0.385	-0.146
-232.800	-161.627	0.110	0.006
-231.786	234.209	0.045	-0.075
-230.771	58.916	-0.138	-0.136
-229.757	-134.402	-0.168	0.021
-228.742	800.000	-0.040	0.152
-227.727	-165.254	0.346	0.015
-226.713	147.664	-0.109	0.147
-225.698	65.304	-0.219	0.222
-224.684	157.245	0.095	0.132
-223.669	-200.000	0.007	-0.208
-222.655	22.114	0.111	-0.091
-221.640	107.411	0.231	0.275
-220.625	-158.304	0.367	-0.021
-219.611	-22.276	-0.389	0.237
-218.596	415.579	0.047	-0.101
-217.582	33.765	-0.186	-0.162
-216.567	125.767	0.058	0.073
-215.552	168.795	0.110	0.157
-214.538	-74.309	0.080	0.029
-213.523	203.320	0.064	-0.099
-212.509	-11.622	0.399	-0.263
-211.494	761.196	0.065	-0.176
-210.479	341.386	-0.096	0.187
-209.465	53.785	-0.242	0.233
-208.450	800.000	0.051	0.187
-207.436	-139.532	0.316	-0.034
-206.421	-200.000	-0.021	-0.100
-205.406	691.731	0.069	-0.181
-204.392	-147.186	0.149	0.013
-203.377	-179.307	-0.368	0.008
-202.363	-101.981	0.353	-0.085
-201.348	800.000	-0.074	-0.277
-200.333	-116.131	0.078	0.015
-199.319	-7.195	-0.130	-0.088
-198.304	65.484	-0.312	-0.317
-197.290	37.263	-0.212	-0.188
-196.275	-200.000	-0.024	-0.264
-195.260	79.165	0.150	-0.161
-194.246	758.577	0.124	0.336
-193.231	-112.061	0.105	0.021
-192.217	-152.281	-0.468	-0.034
-191.202	50.927	-0.303	0.288
-190.187	-200.000	0.015	0.304
-189.173	800.000	0.017	-0.051
-188.158	-200.000	0.008	-0.162
-187.144	79.488	-0.182	-0.196
-186.129	-120.985	-0.401	-0.067
-185.114	-200.000	0.014	0.170
-184.100	-37.605	0.380	-0.203
-183.085	75.428	-0.200	0.211
-182.071	343.477	0.168	0.329
-181.056	-154.032	-0.092	0.006
-180.042	-200.000	0.030	-0.160
-179.027	-150.875	-0.141	-0.011
-178.012	-151.373	0.295	-0.022
-176.998	424.335	0.068	0.146
-175.983	-200.000	0.025	0.146
-174.969	800.000	0.027	0.081
-173.954	36.517	-0.030	-0.027
-172.939	-200.000	0.031	-0.138
-171.925	-68.957	0.382	0.147
-170.910	-75.962	0.177	0.063
-169.896	-200.000	-0.056	0.540
-168.881	449.866	0.133	0.293
-167.866	-200.000	-0.020	0.217
-166.852	-13.934	0.179	0.115
-165.837	-46.824	0.421	0.206
-164.823	346.517	-0.131	0.257
-163.808	57.141	-0.287	0.280
-162.793	36.327	0.055	-0.049
-161.779	217.068	0.094	-0.150
-160.764	800.000	0.041	-0.122
-159.750	-15.685	0.189	-0.121
-158.735	56.586	0.100	0.097
-157.720	-108.448	0.355	-0.077
-156.706	-36.830	0.178	-0.096
-155.691	-93.817	-0.187	0.052
-154.677	-137.347	0.223	0.025
-153.662	-172.737	-0.271	-0.008
-152.647	134.866	-0.094	0.122
-151.633	-136.853	-0.211	0.024
-150.618	-200.000	0.020	0.267
-149.604	694.007	-0.145	-0.379
-148.589	-200.000	-0.024	0.145
-147.574	385.717	0.030	0.062
-146.560	143.609	0.249	0.332
-145.545	468.095	-0.030	0.066
-144.531	800.000	-0.109	0.371
-143.516	752.287	-0.053	0.142
-142.502	592.524	-0.105	0.260
-141.487	4.520	0.246	0.181
-140.472	281.261	-0.129	0.231
-139.458	-200.000	0.095	0.520
-138.443	-110.685	0.127	0.026
-137.429	-200.000	0.061	0.268
-136.414	-200.000	0.003	0.241
-135.399	484.394	0.026	-0.059
-134.385	276.907	-0.260	0.461
-133.370	151.207	-0.196	0.267
-132.356	56.183	0.090	-0.087
-131.341	-32.252	-0.102	0.057
-130.326	-151.083	0.305	-0.023
-129.312	16.062	-0.073	0.058
-128.297	800.000	0.079	0.293
-127.283	-123.513	0.199	-0.032
-126.268	-34.873	-0.066	-0.036
-125.253	-80.435	-0.205	0.068
-124.239	6.051	-0.143	0.106
-123.224	-200.000	-0.007	-0.302
-122.210	-139.112	0.366	0.040
-121.195	321.849	0.051	0.097
-120.180	-97.561	-0.073	-0.019
-119.166	800.000	0.016	0.063
-118.151	-50.938	0.252	-0.118
-117.137	102.780	0.072	-0.084
-116.122	281.862	0.163	0.292
-115.107	169.655	-0.098	-0.139
-114.093	800.000	0.093	0.345
-113.078	698.816	-0.084	-0.220
-112.064	281.192	0.156	-0.279
-111.049	-200.000	0.017	0.136
-110.034	539.814	-0.066	-0.156
-109.020	238.822	0.066	0.110
-108.005	178.837	0.157	-0.230
-106.991	-109.222	0.320	0.068
-105.976	7.890	-0.319	-0.238
-104.962	583.358	0.013	0.032
-103.947	-200.000	0.000	0.227
-102.932	105.305	-0.084	-0.099
-101.918	567.211	-0.045	0.110
-100.903	-11.442	0.035	-0.023
-99.889	-10.100	-0.082	0.054
-98.874	-200.000	0.042	-0.264
-97.859	-42.429	0.218	-0.111
-96.845	16.702	-0.087	0.068
-95.830	-200.000	-0.118	0.000
-94.816	129.269	0.107	-0.136
-93.801	-200.000	0.028	0.184
-92.786	-200.000	0.043	-0.206
-91.772	104.346	0.183	0.214
-90.757	25.383	-0.178	0.148
-89.743	-23.860	-0.148	0.089
-88.728	326.757	0.169	0.324
-87.713	30.061	-0.116	-0.099
-86.699	-104.359	0.043	-0.010
-85.684	196.464	0.105	0.159
-84.670	800.000	-0.113	0.330
-83.655	57.543	-0.220	-0.215
-82.640	-81.085	0.662	-0.219
-81.626	21.558	-0.220	-0.179
-80.611	-53.265	-0.364	-0.167
-79.597	-200.000	-0.021	0.188
-78.582	-175.897	-0.056	-0.001
-77.567	-76.786	0.263	-0.092
-76.553	-200.000	-0.039	0.397
-75.538	548.472	-0.167	0.399
-74.524	39.560	-0.125	-0.112
-73.509	-24.883	-0.174	-0.103
-72.494	-128.209	-0.153	-0.022
-71.480	165.843	-0.266	-0.375
-70.465	-24.206	0.079	-0.047
-69.451	420.516	-0.145	0.309
-68.436	-131.122	-0.078	-0.010
-67.422	327.572	0.077	-0.148
-66.407	-99.004	0.219	-0.055
-65.392	-200.000	-0.190	0.000
-64.378	53.502	0.199	-0.190
-63.363	46.186	0.077	-0.071
-62.349	134.814	0.116	0.150
-61.334	87.595	-0.698	-0.770
-60.319	-25.409	0.629	0.370
-59.305	-200.000	0.014	-0.851
-58.290	42.032	0.726	0.656
-57.276	800.000	0.436	1.452
-56.261	-200.000	79.316	495.466
-55.246	546.661	1362.704	3246.993
-54.232	181.561	2594.322	3802.064
-53.217	120.149	2247.132	2777.172
-52.203	50.221	1696.927	1596.352
-51.188	42.604	1426.893	1293.494
-50.173	39.318	1381.819	1232.052
-49.159	56.883	1419.897	1377.603
-48.144	62.505	1438.696	1431.383
-47.130	43.026	1400.732	1272.245
-46.115	39.243	1383.947	1233.281
-45.100	38.987	1379.057	1227.275
-44.086	39.145	1375.878	1225.381
-43.071	38.970	1374.544	1223.055
-42.057	38.916	1371.848	1220.272
-41.042	38.985	1370.235	1219.220
-40.027	39.000	1369.143	1218.296
-39.013	39.049	1367.048	1216.686
-37.998	39.062	1364.629	1214.563
-36.984	39.097	1363.352	1213.591
-35.969	39.215	1360.938	1212.128
-34.954	39.291	1359.371	1211.151
-33.940	39.301	1358.048	1209.985
-32.925	39.307	1356.426	1208.530
-31.911	39.389	1354.660	1207.409
-30.896	39.282	1353.550	1205.715
-29.881	39.281	1352.076	1204.352
-28.867	39.340	1350.751	1203.481
-27.852	39.309	1349.627	1202.245
-26.838	39.334	1347.380	1200.345
-25.823	39.284	1345.868	1198.645
-24.809	39.235	1345.196	1197.706
-23.794	39.261	1343.473	1196.281
-22.779	39.276	1341.883	1194.907
-21.765	39.339	1340.368	1193.890
-20.750	39.322	1338.831	1192.375
-19.736	39.157	1337.882	1190.480
-18.721	39.165	1336.834	1189.550
-17.706	39.074	1335.263	1187.556
-16.692	39.137	1334.345	1187.075
-15.677	39.216	1333.156	1186.444
-14.663	39.091	1332.346	1184.920
-13.648	39.094	1330.977	1183.674
-12.633	39.072	1330.073	1182.690
-11.619	39.082	1328.801	1181.574
-10.604	39.042	1328.330	1180.870
-9.590	39.054	1327.437	1180.098
-8.575	39.079	1326.248	1179.143
-7.560	39.126	1325.098	1178.359
-6.546	39.109	1324.591	1177.761
-5.531	39.135	1323.463	1176.865
-4.517	39.125	1322.604	1175.995
-3.502	39.107	1321.801	1175.129
-2.487	39.100	1320.574	1173.945
-1.473	39.178	1316.185	1170.463
-0.458	37.947	1301.632	1150.220
0.556	34.799	1280.929	1107.066
1.571	30.361	1284.878	1084.523
2.586	28.886	1299.718	1088.224
3.600	27.073	1287.407	1067.183
4.615	20.126	1209.968	964.396
5.629	10.028	1128.801	846.948
6.644	5.098	1105.329	803.912
7.659	4.921	1102.372	800.784
8.673	5.034	1101.317	800.524
9.688	5.047	1100.056	799.602
10.702	5.220	1098.966	799.628
11.717	10.635	1107.078	833.327
12.731	19.352	1119.286	887.506
13.746	21.556	1120.935	900.078
14.761	19.898	1118.473	889.508
15.775	18.769	1115.959	881.641
16.790	17.755	1113.450	874.383
17.804	16.972	1111.984	869.142
18.819	16.621	1110.938	866.453
19.834	16.396	1110.045	864.528
20.848	16.177	1109.008	862.526
21.863	15.891	1108.472	860.571
22.877	15.866	1107.341	859.489
23.892	15.833	1107.125	859.074
24.907	15.765	1106.155	857.898
25.921	15.853	1104.943	857.334
26.936	15.902	1103.535	856.415
27.950	15.801	1102.640	855.127
28.965	15.973	1100.616	854.357
29.980	15.996	1099.306	853.383
30.994	16.091	1098.278	852.989
32.009	16.157	1096.857	852.142
33.023	16.062	1095.847	850.804
34.038	16.036	1094.681	849.692
35.053	15.971	1094.467	849.122
36.067	16.039	1093.096	848.324
37.082	15.977	1092.076	847.147
38.096	16.013	1091.799	847.041
39.111	16.143	1090.877	846.900
40.126	16.003	1089.479	845.037
41.140	15.769	1088.113	842.733
42.155	15.648	1086.647	840.919
43.169	15.665	1086.147	840.543
44.184	15.561	1085.047	839.097
45.199	15.569	1083.953	838.218
46.213	15.783	1083.036	838.500
47.228	15.831	1082.055	837.902
48.242	15.907	1081.218	837.562
49.257	15.843	1079.763	836.039
50.271	15.875	1078.800	835.380
51.286	15.930	1078.115	835.050
52.301	15.867	1077.109	833.885
53.315	15.889	1075.833	832.933
54.330	15.770	1074.501	831.239
55.344	15.749	1074.168	830.802
56.359	15.775	1073.405	830.266
57.374	15.760	1072.300	829.265
58.388	15.591	1071.186	827.500
59.403	15.616	1070.534	827.045
60.417	15.596	1069.592	826.143
61.432	15.538	1068.903	825.256
62.447	15.481	1068.075	824.263
63.461	15.588	1066.688	823.643
64.476	15.573	1065.739	822.763
65.490	15.538	1065.398	822.257
66.505	15.565	1064.204	821.397
67.520	15.610	1063.771	821.206
68.534	15.453	1063.412	820.093
69.549	15.527	1062.461	819.647
70.563	15.499	1061.498	818.695
71.578	15.543	1060.529	818.090
72.593	15.393	1059.834	816.749
73.607	15.383	1059.112	816.075
74.622	15.354	1058.679	815.527
75.636	15.412	1058.008	815.219
76.651	15.473	1057.151	814.782
77.666	15.422	1056.905	814.272
78.680	15.475	1056.095	813.837
79.695	15.503	1055.684	813.582
80.709	15.611	1054.836	813.380
81.724	15.595	1054.192	812.731
82.739	15.590	1053.429	812.050
83.753	15.899	1052.399	812.672
84.768	15.977	1051.823	812.536
85.782	16.062	1050.808	812.087
86.797	16.008	1049.651	810.860
87.812	15.841	1049.101	809.560
88.826	15.992	1047.684	809.120
89.841	15.987	1046.714	808.278
90.855	16.060	1045.716	807.785
91.870	16.148	1044.657	807.316
92.884	16.130	1043.969	806.629
93.899	16.015	1043.351	805.529
94.914	16.247	1042.107	805.603
95.928	16.102	1041.673	804.507
96.943	16.020	1040.408	803.069
97.957	15.946	1039.940	802.281
98.972	16.020	1038.920	801.777
99.987	16.099	1037.582	801.048
101.001	16.034	1036.863	800.112
102.016	15.982	1035.869	799.032
103.030	16.014	1035.087	798.508
104.045	15.966	1034.997	798.139
105.060	15.969	1033.776	797.143
106.074	15.850	1032.145	795.253
107.089	15.565	1031.750	793.532
108.103	15.604	1030.569	792.736
109.118	15.605	1029.473	791.829
110.133	15.740	1028.239	791.446
111.147	15.630	1027.788	790.509
112.162	15.664	1027.166	790.122
113.176	15.805	1026.278	790.028
114.191	15.723	1025.600	789.054
115.206	15.763	1024.858	788.601
116.220	15.665	1023.770	787.235
117.235	15.731	1022.739	786.681
118.249	15.678	1022.309	786.033
119.264	15.628	1021.549	785.144
120.279	15.742	1020.510	784.808
121.293	15.633	1019.319	783.317
122.308	15.557	1018.818	782.508
123.322	15.599	1017.405	781.547
124.337	15.649	1016.114	780.719
125.352	15.566	1015.506	779.800
126.366	15.571	1014.519	778.996
127.381	15.709	1013.004	778.401
128.395	15.671	1012.189	777.528
129.410	15.670	1011.283	776.761
130.424	15.680	1010.945	776.479
131.439	15.802	1009.664	775.989
132.454	15.927	1008.865	775.881
133.468	15.914	1008.389	775.386
134.483	15.777	1007.374	773.906
135.497	15.835	1006.414	773.369
136.512	15.850	1005.439	772.622
137.527	15.941	1004.864	772.529
138.541	15.925	1003.875	771.624
139.556	15.922	1003.285	771.090
140.570	16.143	1002.648	771.541
141.585	16.266	1001.742	771.340
142.600	16.199	1000.699	770.161
143.614	16.098	1000.375	769.384
144.629	16.276	999.324	769.321
145.643	16.230	998.101	768.100
146.658	16.126	996.832	766.582
147.673	16.003	996.139	765.424
148.687	15.787	995.406	763.813
149.702	15.988	994.297	763.805
150.716	16.006	993.117	762.913
151.731	15.958	992.830	762.409
152.746	15.785	992.125	761.013
153.760	15.891	991.469	760.923
154.775	15.996	990.693	760.736
155.789	16.110	989.933	760.597
156.804	16.038	989.090	759.557
157.819	16.184	988.428	759.642
158.833	16.258	987.993	759.570
159.848	16.336	986.883	759.004
160.862	16.282	986.045	758.048
161.877	15.989	985.126	755.961
162.892	15.817	984.309	754.494
163.906	15.868	983.504	754.039
164.921	16.031	981.972	753.530
165.935	15.974	981.316	752.705
166.950	15.978	980.668	752.159
167.964	16.120	979.475	751.808
168.979	15.921	978.725	750.280
169.994	16.156	977.634	750.424
171.008	16.131	977.141	749.868
172.023	16.176	976.702	749.663
173.037	16.344	975.754	749.614
174.052	16.085	974.985	747.809
175.067	16.029	974.726	747.298
176.081	16.009	974.053	746.626
177.096	15.979	973.443	745.958
178.110	16.007	972.605	745.374
179.125	16.160	971.843	745.403
180.140	16.189	971.451	745.163
181.154	16.241	970.932	744.929
182.169	16.372	970.352	744.994
183.183	16.392	969.724	744.534
184.198	16.497	968.869	744.277
185.213	16.378	968.332	743.272
186.227	16.372	967.607	742.626
187.242	16.437	967.166	742.506
188.256	16.486	966.570	742.198
189.271	16.603	965.761	742.026
190.286	16.258	964.736	739.661
191.300	15.983	963.852	737.714
192.315	15.943	963.308	737.057
193.329	16.176	962.296	737.234
194.344	16.251	961.805	737.119
195.359	16.260	961.219	736.647
196.373	16.359	960.931	736.791
197.388	16.459	960.389	736.747
198.402	16.590	959.852	736.838
199.417	16.549	959.050	735.983
200.432	16.758	958.599	736.480
201.446	16.769	958.169	736.130
202.461	16.767	957.577	735.603
203.475	16.756	957.233	735.225
204.490	16.660	956.328	734.049
205.504	16.520	955.007	732.363
206.519	16.424	954.823	731.744
207.534	16.551	953.750	731.403
208.548	16.482	953.269	730.674
209.563	16.601	952.655	730.649
210.577	16.655	951.735	730.114
211.592	16.816	951.335	730.436
212.607	16.578	950.901	729.014
213.621	16.632	949.902	728.414
214.636	16.722	948.987	728.033
215.650	16.663	948.506	727.349
216.665	16.954	947.079	727.437
217.680	16.902	946.848	726.972
218.694	16.772	946.394	726.004
219.709	16.858	945.598	725.697
220.723	16.838	944.881	724.998
221.738	16.834	944.136	724.346
222.753	16.798	943.492	723.631
223.767	16.988	942.750	723.810
224.782	16.928	942.291	723.136
225.796	17.047	941.692	723.119
226.811	16.958	940.812	722.002
227.826	16.860	940.410	721.213
228.840	16.974	939.003	720.556
229.855	16.785	938.566	719.351
230.869	16.934	937.704	719.262
231.884	16.908	936.972	718.526
232.899	16.741	936.284	717.226
233.913	16.939	934.821	716.879
234.928	16.761	934.592	715.890
235.942	16.750	934.359	715.602
236.957	16.838	933.550	715.288
237.972	16.927	932.751	714.990
238.986	16.749	932.298	713.829
240.001	16.729	931.536	713.095
241.015	16.852	930.926	713.086
242.030	16.971	930.382	713.103
243.045	16.898	930.095	712.515
244.059	16.980	929.428	712.287
245.074	17.050	928.536	711.834
246.088	17.087	927.759	711.331
247.103	17.090	927.389	710.996
248.117	17.132	927.319	711.056
249.132	17.507	926.145	711.659
250.147	17.473	925.763	711.161
251.161	17.481	925.343	710.807
252.176	17.460	925.298	710.623
253.190	17.519	924.134	709.911
254.205	17.615	923.011	709.386
255.220	17.530	922.286	708.412
256.234	17.638	921.594	708.267
257.249	17.541	921.171	707.477
258.263	17.568	920.067	706.680
259.278	17.578	919.487	706.211
260.293	17.645	919.136	706.157
261.307	17.740	918.436	705.948
262.322	17.723	917.651	705.213
263.336	17.746	917.304	704.981
264.351	17.771	916.600	704.479
265.366	17.767	915.888	703.856
266.380	17.725	915.218	703.103
267.395	17.677	914.617	702.382
268.409	17.583	913.799	701.305
269.424	17.750	912.714	701.095
270.439	17.648	911.956	700.035
271.453	17.666	911.275	699.523
272.468	17.650	910.891	699.100
273.482	17.735	910.279	698.917
274.497	17.554	909.906	697.826
275.512	17.682	909.032	697.619
276.526	17.731	908.476	697.330
277.541	17.899	907.903	697.515
278.555	17.759	907.867	696.853
279.570	17.845	907.235	696.658
280.585	17.830	906.173	695.720
281.599	17.827	905.433	695.079
282.614	17.657	904.614	693.695
283.628	17.760	903.980	693.568
284.643	17.772	903.509	693.196
285.657	17.856	902.852	692.970
286.672	17.779	902.194	692.092
287.687	17.854	901.439	691.756
288.701	17.825	900.979	691.222
289.716	17.868	900.539	690.998
290.730	17.840	899.622	690.122
291.745	17.967	898.981	690.079
292.760	18.006	898.327	689.674
293.774	18.023	898.273	689.642
294.789	18.015	897.419	688.894
295.803	17.924	896.450	687.723
296.818	17.846	895.925	686.946
297.833	17.815	894.863	685.945
298.847	17.926	894.202	685.824
299.862	18.002	893.845	685.791
300.876	18.066	893.308	685.576
301.891	18.048	893.094	685.282
302.906	18.214	891.866	684.941
303.920	18.415	891.607	685.486
304.935	18.427	891.124	685.104
305.949	18.275	890.472	683.932
306.964	18.172	889.768	682.920
307.979	18.306	888.847	682.690
308.993	18.437	888.415	682.819
310.008	18.375	887.927	682.135
311.022	18.246	887.271	681.057
312.037	18.178	886.771	680.342
313.052	18.170	886.180	679.800
314.066	18.066	885.762	679.005
315.081	18.173	884.999	678.784
316.095	18.152	884.349	678.142
317.110	18.100	883.861	677.503
318.125	18.158	883.089	677.081
319.139	18.133	882.883	676.764
320.154	18.189	882.767	676.836
321.168	18.202	881.805	676.090
322.183	18.232	881.258	675.728
323.197	18.335	880.676	675.627
324.212	18.253	880.237	674.908
325.227	18.338	879.261	674.436
326.241	18.220	878.703	673.482
327.256	18.187	878.612	673.222
328.270	18.184	877.681	672.438
329.285	18.236	876.879	671.971
330.300	18.189	876.606	671.518
331.314	18.263	875.956	671.251
332.329	18.320	875.457	671.031
333.343	18.443	875.053	671.142
334.358	18.426	874.517	670.607
335.373	18.425	874.164	670.275
336.387	18.464	873.936	670.191
337.402	18.496	874.098	670.382
338.416	18.652	873.358	670.364
339.431	18.567	873.327	669.950
340.446	18.695	872.540	669.787
341.460	18.824	872.021	669.831
342.475	18.750	871.650	669.199
343.489	18.903	871.181	669.373
344.504	18.863	870.692	668.785
345.519	18.866	870.136	668.309
346.533	18.790	869.654	667.584
347.548	18.791	869.025	667.047
348.562	18.710	868.221	666.056
349.577	18.629	867.620	665.223
350.592	18.491	866.977	664.138
351.606	18.533	866.462	663.844
352.621	18.608	865.716	663.505
353.635	18.738	865.035	663.428
354.650	18.790	864.161	662.900
355.665	18.913	863.700	662.960
356.679	18.938	862.969	662.438
357.694	18.831	862.246	661.410
358.708	18.886	861.803	661.225
359.723	18.810	861.329	660.510
360.738	18.815	860.616	659.923
361.752	18.825	860.231	659.608
362.767	19.012	859.622	659.803
363.781	19.057	858.783	659.273
364.796	19.350	858.286	659.953
365.810	19.271	858.187	659.516
366.825	19.134	858.117	658.880
367.840	19.291	857.549	658.985
368.854	19.274	856.368	657.954
369.869	19.116	856.014	657.023
370.883	19.299	855.604	657.346
371.898	19.116	855.932	656.842
372.913	19.337	855.125	657.006
373.927	19.231	854.842	656.328
374.942	19.382	853.907	656.128
375.956	19.192	853.779	655.249
376.971	19.435	852.898	655.438
377.986	19.420	852.861	655.292
379.000	19.488	852.016	654.843
380.015	19.564	851.500	654.679
381.029	19.417	851.348	653.944
382.044	19.370	850.656	653.179
383.059	19.580	849.448	652.985
384.073	19.567	848.998	652.533
385.088	19.462	848.471	651.676
386.102	19.203	848.139	650.383
387.117	19.275	847.624	650.203
388.132	19.283	846.696	649.466
389.146	19.417	846.042	649.410
390.161	19.380	846.180	649.319
391.175	19.428	845.918	649.240
392.190	19.514	844.741	648.603
393.205	19.208	844.552	647.251
394.219	19.361	843.827	647.214
395.234	19.354	843.571	646.932
396.248	19.257	843.291	646.296
397.263	19.198	842.447	645.372
398.278	19.238	841.903	645.049
399.292	19.319	841.546	645.021
400.307	19.352	841.009	644.675
401.321	19.242	840.723	643.988
402.336	19.495	840.164	644.447
403.350	19.391	839.679	643.632
404.365	19.571	839.562	644.156
405.380	19.636	839.190	644.055
406.394	19.745	838.351	643.760
407.409	19.746	837.892	643.354
408.423	19.809	837.610	643.315
409.438	19.867	837.687	643.532
410.453	19.845	836.642	642.591
411.467	19.961	836.266	642.677
412.482	19.894	835.963	642.138
413.496	19.965	835.786	642.210
414.511	19.923	835.047	641.430
415.526	19.835	834.693	640.774
416.540	19.899	834.034	640.447
417.555	19.926	833.439	640.033
418.569	20.191	833.070	640.674
419.584	19.972	832.897	639.674
420.599	19.943	832.322	639.069
421.613	148.592	1363.464	1754.499
422.628	129.740	1440.880	1754.640
