DTS Sentinel unit serial number:	SN413079Multiplexer serial number:	ORYXHardware model number:	OX4-SRSoftware version number:	ORYX F/W v4.00 Oryx Data Collector v3.7.2.0data status	okinstallation	princeton_trtdifferential loss correction	single-endedforward channel	channel 1reverse channel	N/Adate	2019/09/12time	00:28:11forward acquisition time	60.00reverse acquisition time	0.00gamma	496.2192k internal	0.2318k external	0.2318temperature offset calibration	1.0076default loss term (dB/km)	0.3790temperature slope calibration	1.0000multiplexer offset coefficient	1.0000multiplexer slope coefficient	1.0000fibre end	0.00T internal ref (°C)	33.44T ext. ref 1 (°C)	2.08T ext. ref 2 (°C)	27.83length (m)	temperature (°C)	Stokes	anti-Stokes-747.200	-200.000	-0.037	0.263
-746.185	-7.866	-0.185	-0.127
-745.171	800.000	-0.117	0.443
-744.156	-200.000	-0.056	0.287
-743.142	267.697	0.099	-0.176
-742.127	-93.331	-0.122	-0.034
-741.112	-200.000	0.012	-0.068
-740.098	800.000	0.103	0.291
-739.083	-200.000	-0.002	0.344
-738.069	-200.000	0.004	0.200
-737.054	154.735	-0.084	-0.117
-736.039	661.276	-0.015	-0.040
-735.025	-200.000	0.034	0.331
-734.010	-195.583	-0.312	-0.002
-732.996	-131.363	0.144	-0.019
-731.981	800.000	-0.076	0.241
-730.966	-102.108	-0.145	-0.035
-729.952	-34.147	-0.125	-0.070
-728.937	-200.000	0.006	-0.136
-727.923	639.617	-0.123	0.317
-726.908	-90.348	-0.108	0.032
-725.894	-150.322	-0.102	-0.008
-724.879	-200.000	0.046	-0.243
-723.864	-173.461	-0.207	-0.006
-722.850	212.059	-0.095	-0.151
-721.835	118.785	-0.151	0.188
-720.821	312.007	-0.095	-0.181
-719.806	32.010	-0.171	0.149
-718.791	579.518	-0.140	0.346
-717.777	-50.037	-0.416	-0.199
-716.762	31.081	0.308	-0.267
-715.748	183.156	0.010	-0.015
-714.733	51.104	-0.078	-0.075
-713.718	800.000	0.072	0.206
-712.704	27.449	-0.179	0.152
-711.689	-200.000	-0.041	-0.430
-710.675	40.849	0.234	-0.214
-709.660	-140.730	0.245	-0.026
-708.645	208.208	0.203	-0.321
-707.631	-23.787	0.099	-0.060
-706.616	102.364	0.242	-0.286
-705.602	-200.000	0.013	0.378
-704.587	800.000	0.023	0.084
-703.572	29.454	0.106	0.091
-702.558	-200.000	0.046	0.434
-701.543	-57.936	-0.321	-0.142
-700.529	69.613	-0.293	-0.305
-699.514	-190.474	-0.115	0.001
-698.499	69.040	-0.102	-0.106
-697.485	800.000	-0.062	-0.252
-696.470	88.789	-0.174	-0.195
-695.456	209.581	0.071	-0.113
-694.441	48.065	-0.116	-0.110
-693.426	-200.000	-0.011	-0.118
-692.412	355.955	-0.026	0.052
-691.397	238.052	-0.121	-0.203
-690.383	529.842	-0.051	-0.122
-689.368	-200.000	-0.005	0.115
-688.354	179.844	-0.104	-0.154
-687.339	13.312	0.081	-0.063
-686.324	-200.000	0.073	-0.363
-685.310	-32.917	-0.335	-0.188
-684.295	142.504	0.142	-0.190
-683.281	-200.000	0.063	0.315
-682.266	-112.670	-0.085	-0.017
-681.251	637.582	0.134	-0.343
-680.237	-158.199	-0.183	-0.011
-679.222	-43.845	-0.083	0.042
-678.208	191.569	-0.077	0.117
-677.193	-7.860	-0.127	-0.087
-676.178	-106.964	0.302	-0.068
-675.164	147.380	-0.114	0.154
-674.149	-122.162	0.164	0.027
-673.135	800.000	-0.055	-0.200
-672.120	70.823	-0.173	-0.181
-671.105	161.540	-0.034	0.048
-670.091	-65.002	-0.152	0.062
-669.076	-183.698	-0.134	-0.002
-668.062	-2.976	0.283	0.199
-667.047	35.277	0.222	-0.196
-666.032	482.602	-0.125	-0.288
-665.018	-200.000	-0.011	0.171
-664.003	800.000	0.110	0.316
-662.989	800.000	-0.131	0.402
-661.974	800.000	0.029	0.100
-660.959	-200.000	0.022	-0.165
-659.945	-200.000	-0.009	0.416
-658.930	800.000	0.028	0.084
-657.916	-200.000	0.042	0.190
-656.901	690.672	0.012	-0.032
-655.886	-132.181	-0.459	-0.060
-654.872	-172.981	0.369	0.012
-653.857	211.195	-0.164	0.260
-652.843	6.746	0.094	-0.071
-651.828	-129.223	-0.112	0.016
-650.814	-25.174	0.285	-0.170
-649.799	-66.373	0.186	-0.075
-648.784	-73.003	-0.252	-0.093
-647.770	-200.000	0.001	0.023
-646.755	81.474	-0.179	-0.195
-645.741	6.667	0.060	0.045
-644.726	-159.417	-0.210	0.012
-643.711	800.000	0.092	0.377
-642.697	-200.000	-0.057	-0.305
-641.682	-200.000	0.020	0.130
-640.668	-32.249	0.413	-0.233
-639.653	192.395	0.128	-0.194
-638.638	-200.000	-0.026	-0.550
-637.624	-131.625	0.079	0.010
-636.609	-200.000	0.001	-0.184
-635.595	172.761	-0.228	-0.331
-634.580	53.265	-0.148	-0.143
-633.565	-200.000	-0.038	-0.364
-632.551	473.070	0.093	-0.211
-631.536	576.350	-0.063	0.154
-630.522	-200.000	0.007	-0.067
-629.507	-40.393	-0.270	0.141
-628.492	-200.000	-0.011	-0.147
-627.478	-91.153	0.228	0.066
-626.463	26.041	-0.216	0.182
-625.449	-148.785	-0.123	-0.010
-624.434	234.785	-0.015	-0.025
-623.419	142.324	-0.091	0.121
-622.405	800.000	-0.110	-0.401
-621.390	297.812	-0.097	-0.180
-620.376	-200.000	-0.014	-0.279
-619.361	800.000	-0.073	-0.213
-618.346	565.997	-0.058	0.142
-617.332	-117.451	-0.234	-0.043
-616.317	98.279	-0.328	0.381
-615.303	-90.237	0.266	-0.078
-614.288	144.212	-0.104	-0.140
-613.273	-200.000	-0.030	0.319
-612.259	-23.300	0.197	0.120
-611.244	-15.017	-0.385	0.248
-610.230	3.827	0.361	0.265
-609.215	5.048	-0.025	0.019
-608.201	-175.335	-0.261	0.007
-607.186	649.873	-0.095	-0.245
-606.171	136.481	0.174	-0.228
-605.157	138.011	0.081	-0.107
-604.142	-200.000	0.001	-0.032
-603.128	800.000	-0.100	-0.317
-602.113	-200.000	-0.018	-0.232
-601.098	83.930	0.215	-0.236
-600.084	240.452	-0.064	-0.107
-599.069	193.709	0.096	0.146
-598.055	149.448	0.115	0.156
-597.040	-97.654	0.256	-0.067
-596.025	292.465	0.061	0.112
-595.011	-161.292	0.434	0.023
-593.996	507.805	-0.100	-0.232
-592.982	740.943	0.051	0.138
-591.967	312.850	0.154	0.292
-590.952	-200.000	-0.025	-0.242
-589.938	-81.433	-0.338	-0.112
-588.923	-63.437	-0.123	-0.051
-587.909	-200.000	0.014	0.223
-586.894	581.112	-0.144	-0.354
-585.879	800.000	-0.124	0.352
-584.865	693.271	-0.118	0.311
-583.850	-61.395	-0.132	-0.056
-582.836	359.887	-0.061	0.122
-581.821	800.000	0.046	0.184
-580.806	166.213	0.070	0.099
-579.792	800.000	0.098	0.407
-578.777	-200.000	0.020	0.184
-577.763	28.035	-0.109	0.092
-576.748	-200.000	-0.097	0.562
-575.733	396.258	-0.017	0.036
-574.719	-155.546	-0.370	0.024
-573.704	-196.735	-0.412	-0.003
-572.690	37.816	0.174	0.155
-571.675	113.236	0.239	0.292
-570.661	38.212	-0.137	-0.122
-569.646	-147.284	-0.258	-0.022
-568.631	-200.000	-0.036	0.179
-567.617	800.000	-0.027	-0.101
-566.602	-200.000	0.067	-0.410
-565.588	-4.940	-0.104	0.072
-564.573	-97.862	-0.123	-0.032
-563.558	107.679	0.164	-0.196
-562.544	-200.000	0.009	0.324
-561.529	355.609	-0.189	0.377
-560.515	-60.168	-0.397	0.170
-559.500	703.326	-0.042	-0.111
-558.485	441.735	-0.158	-0.347
-557.471	357.268	-0.063	-0.127
-556.456	185.928	0.157	-0.235
-555.442	35.779	-0.163	0.144
-554.427	-200.000	0.000	0.130
-553.412	-23.960	-0.127	-0.077
-552.398	-4.518	-0.182	-0.126
-551.383	-4.221	0.252	0.175
-550.369	189.726	0.080	0.120
-549.354	-77.524	0.254	0.089
-548.339	-47.332	-0.182	0.089
-547.325	800.000	0.049	0.140
-546.310	-138.382	0.128	-0.014
-545.296	-48.334	0.222	0.108
-544.281	-131.791	-0.373	0.049
-543.266	536.208	-0.107	0.256
-542.252	800.000	-0.061	0.181
-541.237	23.711	-0.239	-0.197
-540.223	-200.000	0.008	0.309
-539.208	-200.000	0.034	0.270
-538.193	-136.858	0.098	0.011
-537.179	-61.672	0.116	-0.049
-536.164	-91.518	-0.179	0.051
-535.150	-200.000	-0.069	0.306
-534.135	-23.766	0.247	-0.149
-533.121	-200.000	0.028	-0.301
-532.106	800.000	-0.038	-0.130
-531.091	-5.989	0.193	0.132
-530.077	-200.000	0.030	-0.212
-529.062	136.123	0.139	-0.182
-528.048	271.091	0.132	-0.234
-527.033	-129.031	-0.041	0.006
-526.018	175.259	-0.061	0.089
-525.004	221.882	-0.163	-0.263
-523.989	-114.056	0.521	-0.101
-522.975	120.346	0.083	-0.104
-521.960	-200.000	-0.003	-0.026
-520.945	-110.362	0.385	-0.080
-519.931	9.592	0.215	0.164
-518.916	-24.491	-0.249	0.149
-517.902	161.372	-0.082	-0.116
-516.887	-40.840	0.124	-0.065
-515.872	237.893	-0.098	-0.163
-514.858	-137.059	0.199	0.023
-513.843	800.000	-0.030	-0.096
-512.829	-124.388	0.164	-0.026
-511.814	-143.594	0.322	0.031
-510.799	800.000	0.041	0.116
-509.785	539.290	0.047	0.112
-508.770	-112.417	-0.158	-0.032
-507.756	800.000	0.005	-0.014
-506.741	-138.706	0.312	-0.034
-505.726	-87.054	0.114	0.035
-504.712	123.276	0.148	0.185
-503.697	56.264	0.092	0.090
-502.683	419.894	0.028	0.060
-501.668	-154.555	-0.221	0.015
-500.653	-200.000	0.050	-0.348
-499.639	-170.258	0.103	-0.004
-498.624	30.745	0.142	-0.122
-497.610	-39.337	-0.048	-0.025
-496.595	-51.974	-0.265	0.124
-495.581	-200.000	-0.037	-0.565
-494.566	-200.000	0.009	-0.207
-493.551	84.150	-0.248	0.271
-492.537	-71.849	-0.197	0.073
-491.522	55.376	0.064	-0.062
-490.508	-27.273	-0.084	-0.049
-489.493	-200.000	0.006	0.043
-488.478	-154.717	-0.256	0.017
-487.464	125.295	0.017	0.022
-486.449	82.985	-0.105	-0.115
-485.435	800.000	-0.104	0.324
-484.420	-72.809	0.156	0.058
-483.405	283.378	0.004	0.008
-482.391	800.000	0.049	0.153
-481.376	-56.007	-0.163	-0.073
-480.362	-200.000	0.029	0.271
-479.347	-8.004	-0.073	0.049
-478.332	435.486	0.021	-0.046
-477.318	800.000	0.028	0.080
-476.303	152.897	0.155	0.212
-475.289	-125.415	0.192	-0.029
-474.274	-106.730	-0.243	0.054
-473.259	800.000	-0.058	0.201
-472.245	-55.598	-0.172	-0.077
-471.230	134.590	0.224	-0.291
-470.216	57.734	-0.068	-0.066
-469.201	-43.748	0.366	0.184
-468.186	-68.751	-0.095	-0.037
-467.172	-200.000	-0.006	0.311
-466.157	-187.669	-0.230	-0.003
-465.143	49.080	0.006	0.005
-464.128	800.000	-0.061	0.199
-463.113	-143.357	0.047	0.005
-462.099	54.604	0.188	-0.182
-461.084	200.520	-0.125	0.192
-460.070	-43.791	0.038	0.019
-459.055	401.484	-0.089	-0.188
-458.040	-193.334	0.111	0.001
-457.026	-200.000	-0.008	-0.077
-456.011	-200.000	-0.012	0.122
-454.997	106.460	-0.098	0.117
-453.982	309.880	0.049	-0.092
-452.968	-64.717	-0.154	-0.062
-451.953	105.380	0.328	0.388
-450.938	-61.702	-0.177	0.074
-449.924	-149.454	-0.284	-0.023
-448.909	-125.214	0.240	-0.037
-447.895	111.421	-0.197	-0.238
-446.880	-68.921	0.218	0.084
-445.865	-138.988	0.186	0.020
-444.851	-132.730	-0.306	0.039
-443.836	-110.372	0.191	0.040
-442.822	102.295	-0.232	-0.271
-441.807	-9.942	-0.363	0.242
-440.792	-200.000	0.026	0.131
-439.778	800.000	0.037	-0.110
-438.763	-153.119	0.240	0.017
-437.749	104.020	-0.197	0.231
-436.734	-200.000	-0.007	-0.087
-435.719	8.022	0.053	0.040
-434.705	-40.201	0.212	-0.110
-433.690	13.301	-0.163	0.126
-432.676	800.000	-0.097	0.343
-431.661	8.934	-0.211	0.159
-430.646	614.413	0.100	-0.250
-429.632	800.000	-0.097	0.277
-428.617	109.038	0.046	0.055
-427.603	15.035	0.169	0.132
-426.588	-69.411	-0.087	-0.034
-425.573	106.627	-0.135	0.160
-424.559	654.727	0.110	-0.283
-423.544	747.485	0.032	0.085
-422.530	137.824	0.188	0.247
-421.515	-29.064	0.073	-0.042
-420.500	-95.694	0.248	0.066
-419.486	249.186	-0.124	-0.210
-418.471	-200.000	-0.046	0.238
-417.457	-110.549	-0.100	-0.021
-416.442	-77.658	-0.160	-0.055
-415.428	441.354	-0.074	0.162
-414.413	32.310	0.302	0.261
-413.398	-137.845	-0.086	0.010
-412.384	800.000	0.039	0.170
-411.369	43.589	0.128	-0.117
-410.355	-10.143	0.164	0.109
-409.340	6.134	0.054	-0.040
-408.325	-200.000	-0.391	-0.001
-407.311	224.873	0.079	-0.128
-406.296	-124.669	-0.155	0.024
-405.282	-200.000	0.012	-0.236
-404.267	242.203	-0.093	-0.155
-403.252	-23.272	0.352	0.211
-402.238	-34.727	-0.354	0.193
-401.223	37.019	0.139	0.123
-400.209	-200.000	-0.050	0.284
-399.194	113.551	0.088	-0.106
-398.179	800.000	-0.062	-0.212
-397.165	-176.533	-0.170	0.004
-396.150	-167.771	-0.281	0.011
-395.136	137.727	0.132	0.172
-394.121	21.481	0.228	-0.185
-393.106	-21.772	0.113	-0.069
-392.092	-200.000	-0.004	-0.282
-391.077	150.498	-0.177	-0.240
-390.063	8.366	0.117	-0.088
-389.048	112.059	0.150	0.181
-388.033	-139.692	-0.268	-0.028
-387.019	-47.770	-0.164	0.079
-386.004	800.000	-0.046	-0.141
-384.990	-96.594	-0.162	-0.043
-383.975	-200.000	-0.053	-0.301
-382.960	34.357	0.127	0.110
-381.946	-200.000	0.021	0.370
-380.931	40.800	-0.131	0.118
-379.917	336.581	0.127	-0.247
-378.902	-11.656	-0.120	0.079
-377.888	47.850	0.065	-0.061
-376.873	-200.000	0.051	0.305
-375.858	205.404	0.046	0.072
-374.844	78.969	0.225	-0.240
-373.829	-200.000	0.028	-0.168
-372.815	-67.167	0.156	0.061
-371.800	-87.456	-0.380	-0.115
-370.785	-135.913	-0.171	0.020
-369.771	800.000	0.017	0.058
-368.756	-200.000	-0.004	0.085
-367.742	15.348	-0.220	0.172
-366.727	-68.615	0.237	-0.091
-365.712	237.472	-0.194	-0.320
-364.698	763.993	-0.055	-0.149
-363.683	53.855	-0.112	0.107
-362.669	-99.934	-0.293	-0.073
-361.654	-200.000	0.052	0.617
-360.639	-90.971	-0.261	-0.075
-359.625	-157.698	-0.094	-0.006
-358.610	-200.000	0.003	-0.048
-357.596	102.341	0.319	-0.371
-356.581	47.207	0.294	0.272
-355.566	160.641	0.197	-0.274
-354.552	-134.606	-0.197	0.024
-353.537	-73.027	0.210	0.077
-352.523	800.000	-0.148	0.417
-351.508	-32.803	-0.294	-0.163
-350.493	151.930	0.151	-0.206
-349.479	105.031	0.073	-0.086
-348.464	171.186	0.111	0.159
-347.450	-200.000	0.060	0.304
-346.435	-200.000	-0.017	-0.136
-345.420	-70.573	0.243	0.092
-344.406	110.855	-0.045	-0.054
-343.391	541.749	0.091	0.217
-342.377	55.916	0.116	0.112
-341.362	83.157	-0.221	0.239
-340.348	153.320	0.197	-0.269
-339.333	-200.000	0.024	-0.218
-338.318	-148.736	-0.295	0.024
-337.304	-150.624	0.189	-0.014
-336.289	604.765	0.011	-0.027
-335.275	-200.000	0.053	0.423
-334.260	129.633	0.062	-0.079
-333.245	-158.063	-0.072	0.004
-332.231	121.664	0.280	-0.347
-331.216	-200.000	-0.008	0.066
-330.202	-78.720	0.072	0.024
-329.187	151.248	0.109	-0.148
-328.172	-200.000	0.020	-0.390
-327.158	-105.644	-0.253	-0.057
-326.143	-62.983	-0.215	0.088
-325.129	-127.417	0.272	0.039
-324.114	699.248	0.131	-0.342
-323.099	310.481	0.066	-0.124
-322.085	196.628	-0.058	0.088
-321.070	-200.000	-0.011	-0.096
-320.056	512.723	-0.164	0.381
-319.041	161.363	0.138	0.191
-318.026	-200.000	-0.015	0.296
-317.012	472.937	-0.066	0.148
-315.997	-200.000	-0.020	0.271
-314.983	384.169	0.169	-0.345
-313.968	-36.513	0.251	-0.134
-312.953	164.618	-0.125	0.175
-311.939	-114.604	-0.198	-0.038
-310.924	32.952	0.201	0.173
-309.910	-11.238	-0.314	-0.206
-308.895	42.361	0.322	0.291
-307.880	757.891	-0.079	0.214
-306.866	-115.739	-0.276	0.051
-305.851	800.000	0.084	0.289
-304.837	-32.614	0.054	-0.030
-303.822	-146.146	-0.206	-0.018
-302.807	-160.381	-0.332	0.018
-301.793	70.387	-0.210	-0.216
-300.778	102.644	-0.062	-0.072
-299.764	68.225	0.294	0.299
-298.749	78.918	0.150	-0.159
-297.735	181.590	0.173	-0.254
-296.720	-200.000	-0.073	0.323
-295.705	147.326	-0.032	-0.043
-294.691	3.169	-0.100	0.072
-293.676	384.171	0.216	0.443
-292.662	-41.854	-0.120	-0.061
-291.647	21.903	0.087	0.071
-290.632	-200.000	0.016	-0.120
-289.618	50.071	0.259	-0.243
-288.603	-17.871	0.040	-0.025
-287.589	-139.842	0.286	-0.030
-286.574	164.649	0.372	-0.522
-285.559	220.089	-0.078	-0.124
-284.545	-98.103	0.190	-0.049
-283.530	-200.000	-0.011	0.145
-282.516	565.067	-0.068	0.164
-281.501	-137.848	0.258	0.029
-280.486	800.000	0.060	0.198
-279.472	590.348	-0.055	0.134
-278.457	34.231	0.255	-0.221
-277.443	-115.469	-0.098	0.018
-276.428	12.753	-0.319	-0.245
-275.413	-43.787	-0.229	-0.115
-274.399	34.194	-0.106	0.092
-273.384	-200.000	-0.002	-0.125
-272.370	-164.542	-0.176	0.008
-271.355	44.921	-0.161	-0.147
-270.340	-49.669	-0.130	-0.062
-269.326	-128.448	0.077	-0.011
-268.311	-41.134	-0.437	-0.224
-267.297	120.241	-0.215	-0.266
-266.282	-200.000	-0.014	-0.183
-265.267	-91.382	0.208	-0.059
-264.253	347.242	-0.147	-0.288
-263.238	800.000	0.074	0.274
-262.224	800.000	0.088	0.278
-261.209	122.261	-0.089	0.111
-260.195	500.846	-0.124	-0.284
-259.180	161.711	-0.222	-0.308
-258.165	405.784	0.068	0.141
-257.151	396.345	0.093	0.192
-256.136	-129.106	0.238	0.033
-255.122	264.404	0.061	0.105
-254.107	324.964	0.187	-0.354
-253.092	-130.655	-0.378	-0.051
-252.078	-59.772	0.066	0.028
-251.063	470.309	-0.107	0.239
-250.049	-84.078	-0.218	-0.069
-249.034	-19.541	-0.222	0.137
-248.019	398.846	0.128	-0.265
-247.005	-62.797	0.164	0.067
-245.990	800.000	-0.057	0.183
-244.976	-35.013	-0.317	0.172
-243.961	-6.985	-0.257	0.173
-242.946	186.589	0.062	0.092
-241.932	-44.130	-0.242	0.121
-240.917	99.192	0.146	-0.168
-239.903	-49.566	-0.141	-0.066
-238.888	-114.766	-0.165	0.031
-237.873	40.066	0.344	0.307
-236.859	120.153	-0.175	0.216
-235.844	-200.000	-0.025	0.201
-234.830	800.000	-0.046	0.183
-233.815	191.007	0.114	-0.171
-232.800	800.000	-0.071	-0.236
-231.786	-5.464	0.260	-0.177
-230.771	554.813	0.103	-0.245
-229.757	-29.871	-0.226	-0.128
-228.742	21.793	-0.118	-0.095
-227.727	27.664	-0.136	0.113
-226.713	-108.785	0.282	-0.060
-225.698	-200.000	0.027	-0.158
-224.684	-200.000	0.020	-0.180
-223.669	292.489	0.136	0.246
-222.655	244.984	0.052	0.086
-221.640	12.303	0.323	0.247
-220.625	-175.458	-0.091	-0.002
-219.611	234.795	-0.121	-0.199
-218.596	78.374	-0.092	0.098
-217.582	-4.278	0.164	0.112
-216.567	-165.130	0.276	-0.012
-215.552	55.362	0.135	0.129
-214.538	-169.963	-0.078	-0.003
-213.523	86.884	0.207	0.227
-212.509	-80.161	-0.379	-0.126
-211.494	151.756	-0.100	0.136
-210.479	722.325	0.059	0.155
-209.465	12.509	-0.194	0.148
-208.450	86.376	0.264	-0.288
-207.436	-157.070	-0.132	-0.008
-206.421	149.568	0.081	-0.108
-205.406	-114.398	-0.286	-0.055
-204.392	58.302	0.075	-0.073
-203.377	-200.000	-0.018	-0.154
-202.363	-62.891	0.303	0.124
-201.348	-119.099	0.070	-0.012
-200.333	-147.715	0.333	0.028
-199.319	-42.708	-0.259	0.131
-198.304	328.592	0.176	0.335
-197.290	-160.730	0.273	0.014
-196.275	-83.872	0.322	-0.102
-195.260	240.896	0.026	0.042
-194.246	3.006	0.176	0.126
-193.231	177.940	0.077	-0.112
-192.217	182.603	0.136	-0.199
-191.202	62.514	-0.220	-0.218
-190.187	-200.000	0.046	-0.260
-189.173	139.684	0.029	-0.038
-188.158	-100.560	-0.219	-0.054
-187.144	800.000	0.078	0.221
-186.129	400.549	0.078	0.163
-185.114	112.367	-0.174	0.208
-184.100	-13.116	0.398	-0.256
-183.085	-200.000	0.001	0.200
-182.071	-136.001	-0.158	-0.018
-181.056	35.713	-0.119	0.103
-180.042	1.332	-0.241	-0.171
-179.027	-200.000	0.015	-0.162
-178.012	83.225	0.079	-0.086
-176.998	76.262	-0.115	0.120
-175.983	-135.891	0.116	-0.014
-174.969	347.643	0.121	-0.235
-173.954	-200.000	-0.010	-0.070
-172.939	198.655	-0.087	-0.132
-171.925	-200.000	-0.058	-0.573
-170.910	58.318	0.191	0.185
-169.896	90.419	0.268	0.297
-168.881	-123.088	0.284	0.045
-167.866	189.569	0.224	-0.332
-166.852	-24.187	0.038	0.022
-165.837	-90.309	-0.102	0.029
-164.823	-32.029	0.172	-0.095
-163.808	-75.657	0.139	-0.049
-162.793	-200.000	0.082	-0.365
-161.779	343.768	-0.099	-0.191
-160.764	212.970	0.088	-0.137
-159.750	-200.000	0.009	-0.095
-158.735	-200.000	-0.005	0.162
-157.720	800.000	-0.021	-0.078
-156.706	379.043	0.271	-0.548
-155.691	-76.451	0.095	0.033
-154.677	-150.737	0.378	-0.028
-153.662	151.788	0.150	0.202
-152.647	-170.419	-0.277	0.010
-151.633	-3.443	-0.167	-0.115
-150.618	30.196	0.059	0.050
-149.604	128.293	-0.087	0.110
-148.589	-27.449	0.083	0.047
-147.574	-77.587	-0.110	-0.038
-146.560	81.003	0.148	0.158
-145.545	78.117	0.050	0.053
-144.531	118.145	0.026	0.031
-143.516	-200.000	-0.046	0.258
-142.502	-72.717	0.236	-0.086
-141.487	800.000	0.119	0.386
-140.472	-122.038	-0.557	0.090
-139.458	587.751	0.062	-0.151
-138.443	-100.492	-0.125	0.031
-137.429	92.387	-0.268	-0.298
-136.414	-91.777	-0.210	0.059
-135.399	-41.094	0.262	0.133
-134.385	36.138	-0.323	0.281
-133.370	-122.806	0.210	-0.033
-132.356	-45.740	0.144	-0.070
-131.341	-29.558	0.207	-0.117
-130.326	-13.013	-0.115	-0.074
-129.312	114.978	-0.075	-0.090
-128.297	-93.901	0.220	-0.060
-127.283	-10.139	-0.109	0.072
-126.268	-69.520	0.251	-0.095
-125.253	-23.373	0.067	0.040
-124.239	800.000	0.071	0.222
-123.224	73.652	0.280	-0.290
-122.210	-200.000	-0.044	-0.195
-121.195	-97.230	-0.273	0.070
-120.180	329.655	0.185	-0.351
-119.166	626.891	-0.118	-0.295
-118.151	-200.000	-0.014	0.133
-117.137	223.693	-0.175	-0.279
-116.122	19.884	0.108	-0.086
-115.107	800.000	-0.040	0.132
-114.093	-200.000	-0.037	0.163
-113.078	-34.746	0.257	0.139
-112.064	-200.000	0.009	0.196
-111.049	-131.012	-0.183	-0.024
-110.034	-96.390	-0.129	0.034
-109.020	-148.674	0.147	-0.012
-108.005	690.062	0.053	0.136
-106.991	303.313	-0.100	0.183
-105.976	60.355	0.148	0.145
-104.962	-200.000	-0.011	-0.295
-103.947	800.000	-0.043	0.151
-102.932	-200.000	-0.003	0.031
-101.918	-200.000	0.002	0.171
-100.903	-70.452	-0.254	0.095
-99.889	69.391	-0.165	-0.167
-98.874	-146.256	0.318	-0.028
-97.859	124.963	-0.151	-0.188
-96.845	-25.057	-0.286	0.167
-95.830	-96.877	0.127	-0.033
-94.816	14.337	-0.100	-0.077
-93.801	19.984	-0.105	-0.084
-92.786	-84.911	0.166	-0.051
-91.772	-4.623	-0.237	0.162
-90.757	-48.523	-0.289	0.137
-89.743	-192.210	0.246	-0.002
-88.728	800.000	-0.081	-0.222
-87.713	285.092	0.034	-0.060
-86.699	786.784	0.093	-0.252
-85.684	-107.992	0.222	-0.048
-84.670	91.249	-0.409	0.452
-83.655	99.539	0.046	-0.053
-82.640	-54.106	-0.324	-0.145
-81.626	82.247	0.250	0.267
-80.611	-32.491	-0.391	0.215
-79.597	-85.206	0.178	0.055
-78.582	-200.000	0.013	-0.234
-77.567	-153.925	0.147	0.010
-76.553	-64.442	0.218	-0.087
-75.538	752.805	0.058	0.155
-74.524	295.918	-0.007	-0.012
-73.509	-200.000	0.033	0.287
-72.494	-200.000	0.041	-0.222
-71.480	-200.000	-0.011	-0.351
-70.465	800.000	0.106	-0.307
-69.451	800.000	-0.108	0.389
-68.436	-61.166	0.142	-0.059
-67.422	-2.130	-0.234	0.162
-66.407	800.000	0.081	-0.266
-65.392	-60.419	-0.133	-0.056
-64.378	-117.737	0.290	0.051
-63.363	-98.639	0.067	-0.017
-62.349	665.747	-0.094	0.240
-61.334	14.211	-1.009	-0.775
-60.319	228.288	0.403	0.647
-59.305	-200.000	-0.157	-0.824
-58.290	470.717	0.469	1.039
-57.276	800.000	0.550	1.585
-56.261	-200.000	96.204	578.460
-55.246	545.960	1387.618	3267.783
-54.232	157.068	2570.755	3501.083
-53.217	112.493	2147.671	2559.721
-52.203	44.872	1607.959	1457.676
-51.188	36.951	1345.746	1172.256
-50.173	33.683	1304.112	1116.746
-49.159	55.777	1351.337	1289.925
-48.144	58.081	1368.620	1320.149
-47.130	37.127	1325.887	1155.821
-46.115	33.595	1308.382	1119.710
-45.100	33.375	1304.310	1114.882
-44.086	33.360	1301.412	1112.276
-43.071	33.156	1299.412	1109.322
-42.057	33.283	1297.169	1108.108
-41.042	33.295	1295.403	1106.625
-40.027	33.276	1294.209	1105.449
-39.013	33.364	1292.444	1104.413
-37.998	33.414	1290.125	1102.676
-36.984	33.316	1289.145	1101.228
-35.969	33.471	1287.383	1100.581
-34.954	33.501	1285.762	1099.322
-33.940	33.587	1284.162	1098.408
-32.925	33.517	1282.457	1096.502
-31.911	33.484	1281.205	1095.196
-30.896	33.471	1280.108	1094.140
-29.881	33.463	1278.746	1092.890
-28.867	33.605	1276.818	1092.015
-27.852	33.556	1275.584	1090.635
-26.838	33.493	1274.052	1088.922
-25.823	33.621	1272.820	1088.558
-24.809	33.630	1271.502	1087.437
-23.794	33.501	1270.289	1085.620
-22.779	33.600	1268.341	1084.479
-21.765	33.609	1267.594	1083.848
-20.750	33.507	1266.224	1082.053
-19.736	33.319	1265.185	1080.047
-18.721	33.441	1263.653	1079.394
-17.706	33.357	1262.861	1078.194
-16.692	33.401	1261.473	1077.216
-15.677	33.359	1260.812	1076.370
-14.663	33.386	1259.371	1075.249
-13.648	33.337	1258.603	1074.276
-12.633	33.327	1257.363	1073.114
-11.619	33.385	1256.661	1072.803
-10.604	33.384	1255.829	1072.045
-9.590	33.344	1254.674	1070.791
-8.575	33.321	1253.968	1070.016
-7.560	33.307	1252.878	1068.963
-6.546	33.393	1252.141	1068.780
-5.531	33.326	1251.422	1067.745
-4.517	33.342	1250.738	1067.206
-3.502	33.380	1249.752	1066.537
-2.487	33.332	1248.984	1065.569
-1.473	33.472	1244.217	1062.248
-0.458	31.951	1229.927	1041.569
0.556	29.062	1212.492	1004.877
1.571	25.461	1218.657	990.097
2.586	24.749	1234.832	999.178
3.600	24.279	1224.524	988.145
4.615	18.090	1151.039	896.408
5.629	7.339	1072.927	782.681
6.644	2.382	1051.286	742.808
7.659	2.104	1048.537	739.454
8.673	1.907	1047.684	737.830
9.688	1.918	1045.998	736.633
10.702	2.332	1044.957	737.831
11.717	9.193	1055.205	778.335
12.731	19.468	1069.461	838.993
13.746	24.208	1075.161	866.498
14.761	25.165	1075.576	871.412
15.775	25.168	1075.536	871.315
16.790	24.873	1074.925	869.312
17.804	24.785	1074.239	868.251
18.819	24.925	1073.921	868.599
19.834	25.197	1073.122	869.191
20.848	25.136	1072.946	868.679
21.863	25.069	1072.248	867.708
22.877	25.020	1071.687	866.944
23.892	25.104	1071.037	866.744
24.907	25.101	1069.902	865.734
25.921	25.202	1069.040	865.449
26.936	25.158	1067.783	864.142
27.950	25.074	1065.930	862.163
28.965	25.040	1064.047	860.403
29.980	24.833	1063.341	858.763
30.994	25.040	1062.418	858.931
32.009	25.130	1061.087	858.210
33.023	24.926	1059.720	856.054
34.038	25.086	1059.238	856.353
35.053	25.148	1058.356	855.861
36.067	25.056	1057.634	854.761
37.082	25.115	1057.053	854.499
38.096	25.367	1056.460	855.145
39.111	25.427	1055.593	854.653
40.126	25.250	1054.102	852.526
41.140	24.881	1052.129	849.106
42.155	24.685	1051.294	847.428
43.169	24.800	1050.395	847.173
44.184	24.868	1049.284	846.521
45.199	24.654	1048.560	844.851
46.213	24.694	1047.599	844.192
47.228	24.832	1047.143	844.403
48.242	25.086	1046.105	844.687
49.257	25.080	1045.416	844.029
50.271	25.261	1044.396	843.980
51.286	25.141	1043.909	842.949
52.301	25.196	1042.588	842.068
53.315	25.143	1041.660	840.994
54.330	25.068	1040.804	839.875
55.344	25.030	1040.744	839.574
56.359	24.940	1039.409	838.006
57.374	24.869	1038.447	836.821
58.388	24.952	1037.676	836.514
59.403	24.798	1036.893	835.091
60.417	24.699	1035.543	833.466
61.432	24.778	1034.902	833.244
62.447	24.946	1034.911	833.961
63.461	24.835	1034.501	833.042
64.476	24.918	1032.824	832.002
65.490	24.851	1031.846	830.832
66.505	24.905	1031.286	830.557
67.520	24.932	1030.600	830.056
68.534	24.681	1029.449	827.892
69.549	24.373	1028.682	825.776
70.563	24.414	1027.715	825.116
71.578	24.333	1026.899	824.016
72.593	24.147	1026.017	822.375
73.607	24.481	1025.002	823.028
74.622	24.609	1024.957	823.509
75.636	24.576	1024.589	822.990
76.651	24.517	1023.639	821.883
77.666	24.454	1023.138	821.116
78.680	24.537	1022.446	820.872
79.695	24.601	1021.883	820.642
80.709	24.750	1020.994	820.536
81.724	24.727	1019.923	819.497
82.739	24.828	1019.295	819.383
83.753	25.110	1018.521	819.979
84.768	25.386	1018.249	820.950
85.782	25.466	1017.441	820.592
86.797	25.351	1016.649	819.354
87.812	25.249	1015.853	818.175
88.826	25.339	1014.471	817.402
89.841	25.374	1013.759	816.916
90.855	25.498	1012.388	816.299
91.870	25.296	1011.994	814.991
92.884	25.275	1010.651	813.744
93.899	25.206	1009.609	812.521
94.914	25.364	1008.907	812.600
95.928	25.209	1008.125	811.197
96.943	25.005	1006.796	809.136
97.957	24.705	1005.796	806.907
98.972	24.641	1004.253	805.307
99.987	24.921	1003.682	806.040
101.001	25.059	1002.873	805.938
102.016	25.103	1002.101	805.445
103.030	25.002	1001.133	804.144
104.045	24.871	999.792	802.406
105.060	24.695	999.045	800.949
106.074	24.798	999.223	801.483
107.089	25.186	998.070	802.222
108.103	24.978	997.073	800.418
109.118	24.912	995.686	798.942
110.133	24.808	994.963	797.827
111.147	24.648	993.702	796.032
112.162	24.503	992.505	794.356
113.176	24.684	992.474	795.068
114.191	24.615	991.357	793.796
115.206	24.326	990.124	791.455
116.220	24.356	989.369	790.917
117.235	24.639	988.414	791.333
118.249	24.550	987.681	790.284
119.264	24.514	986.796	789.348
120.279	24.573	986.597	789.380
121.293	24.563	985.663	788.516
122.308	24.600	984.863	787.971
123.322	24.563	983.491	786.641
124.337	24.247	982.789	784.619
125.352	23.730	981.311	781.096
126.366	23.889	979.968	780.655
127.381	24.637	979.903	783.820
128.395	25.031	979.260	784.958
129.410	25.104	979.069	785.056
130.424	25.124	977.498	783.818
131.439	24.877	977.174	782.407
132.454	25.010	975.823	781.835
133.468	25.086	974.814	781.290
134.483	25.129	974.271	780.972
135.497	25.344	973.585	781.292
136.512	25.402	973.057	781.048
137.527	25.298	972.012	779.692
138.541	25.236	971.528	778.963
139.556	25.242	970.768	778.314
140.570	25.328	969.963	777.969
141.585	25.344	969.015	777.211
142.600	25.395	967.580	776.210
143.614	25.414	967.248	775.956
144.629	25.619	966.328	776.036
145.643	25.509	964.864	774.319
146.658	25.326	963.914	772.699
147.673	25.162	962.821	771.050
148.687	25.227	961.897	770.522
149.702	25.088	960.806	768.984
150.716	24.966	960.465	768.115
151.731	25.174	959.600	768.251
152.746	25.376	958.943	768.518
153.760	25.553	958.675	768.994
154.775	25.545	957.947	768.308
155.789	25.581	956.892	767.546
156.804	25.491	956.250	766.580
157.819	25.528	955.366	765.964
158.833	25.593	954.771	765.696
159.848	25.704	953.752	765.280
160.862	25.393	952.388	762.796
161.877	25.378	951.448	761.913
162.892	25.476	950.788	761.732
163.906	25.524	949.392	760.749
164.921	25.432	948.626	759.683
165.935	25.457	947.805	759.062
166.950	25.549	946.650	758.457
167.964	25.447	946.143	757.552
168.979	25.431	944.836	756.372
169.994	25.377	943.837	755.281
171.008	25.502	943.236	755.259
172.023	25.612	942.546	755.097
173.037	25.180	941.835	752.652
174.052	25.129	940.808	751.550
175.067	25.331	940.028	751.705
176.081	25.234	939.808	751.059
177.096	25.396	938.524	750.641
178.110	24.848	938.263	748.076
179.125	24.765	937.189	746.808
180.140	24.886	936.767	746.909
181.154	25.113	936.190	747.332
182.169	25.381	936.352	748.512
183.183	25.611	935.663	748.851
184.198	25.309	935.042	747.034
185.213	25.391	933.982	746.460
186.227	25.490	933.452	746.381
187.242	25.592	932.425	745.919
188.256	25.588	931.907	745.418
189.271	25.527	931.338	744.648
190.286	25.254	930.096	742.459
191.300	24.677	928.720	738.909
192.315	23.916	926.879	734.238
193.329	23.863	926.787	733.884
194.344	24.671	927.464	737.690
195.359	25.247	927.524	740.050
196.373	25.405	926.841	740.089
197.388	25.296	926.095	738.981
198.402	25.411	925.693	739.065
199.417	25.391	924.555	738.012
200.432	25.117	923.617	736.073
201.446	24.878	923.064	734.584
202.461	25.122	922.260	734.881
203.475	24.013	921.086	729.336
204.490	23.301	919.573	725.162
205.504	24.248	919.886	729.222
206.519	24.976	919.882	732.130
207.534	25.032	919.309	731.838
208.548	25.459	919.038	733.300
209.563	25.158	918.336	731.447
210.577	25.187	917.627	730.936
211.592	25.574	917.137	732.057
212.607	25.476	916.429	731.028
213.621	25.583	915.913	730.987
214.636	25.623	914.720	730.132
215.650	25.404	914.305	728.848
216.665	25.559	913.599	728.850
217.680	25.465	912.952	727.886
218.694	25.022	911.829	725.137
219.709	24.973	911.064	724.266
220.723	25.273	910.512	724.972
221.738	25.244	910.379	724.687
222.753	25.374	909.286	724.279
223.767	25.472	909.265	724.591
224.782	25.568	909.111	724.792
225.796	25.544	908.773	724.362
226.811	24.961	906.729	720.325
227.826	24.139	905.452	715.941
228.840	24.483	904.913	716.836
229.855	24.635	904.213	716.827
230.869	24.109	903.579	714.153
231.884	24.726	903.097	716.180
232.899	25.331	903.541	718.891
233.913	25.219	902.966	717.921
234.928	25.250	902.208	717.382
235.942	25.222	901.463	716.613
236.957	24.945	900.353	714.562
237.972	24.928	900.056	714.196
238.986	25.189	899.475	714.710
240.001	24.989	899.176	713.613
241.015	25.166	898.492	713.711
242.030	25.264	897.908	713.573
243.045	25.383	897.369	713.554
244.059	25.517	897.134	713.838
245.074	25.181	895.819	711.395
246.088	25.080	894.817	710.139
247.103	25.206	895.059	710.766
248.117	25.772	894.538	712.530
249.132	26.003	894.371	713.247
250.147	26.206	893.934	713.637
251.161	26.155	893.385	712.935
252.176	26.158	892.789	712.410
253.190	26.355	892.308	712.737
254.205	26.462	891.929	712.793
255.220	26.602	890.626	712.240
256.234	26.225	890.560	710.642
257.249	26.241	889.318	709.649
258.263	26.143	888.847	708.825
259.278	26.246	888.224	708.672
260.293	26.305	887.567	708.315
261.307	26.204	887.343	707.680
262.322	26.042	886.269	706.124
263.336	25.160	884.264	701.019
264.351	24.380	882.155	696.245
265.366	24.465	882.285	696.617
266.380	25.447	883.185	701.100
267.395	25.833	882.772	702.213
268.409	25.740	882.270	701.390
269.424	26.041	881.248	701.685
270.439	26.028	880.494	700.971
271.453	25.992	879.853	700.259
272.468	26.298	879.629	701.209
273.482	26.306	879.336	700.945
274.497	25.938	877.999	698.390
275.512	25.668	876.776	696.313
276.526	26.160	876.953	698.293
277.541	26.108	877.228	698.249
278.555	25.791	875.974	695.965
279.570	25.784	875.173	695.241
280.585	25.948	874.707	695.439
281.599	25.833	874.176	694.515
282.614	25.385	872.292	691.231
283.628	25.133	872.785	690.593
284.643	25.600	871.926	691.648
285.657	25.292	870.751	689.469
286.672	25.040	869.905	687.772
287.687	25.552	870.433	690.096
288.701	25.649	869.577	689.728
289.716	25.257	868.415	687.242
290.730	25.306	868.247	687.237
291.745	24.935	866.968	684.744
292.760	25.320	867.026	686.203
293.774	26.264	867.180	689.871
294.789	26.583	867.027	690.907
295.803	26.591	866.299	690.293
296.818	26.677	865.504	689.928
297.833	26.089	864.491	686.821
298.847	26.204	863.505	686.414
299.862	26.352	863.618	687.006
300.876	26.723	863.464	688.232
301.891	26.416	862.623	686.338
302.906	26.146	861.687	684.506
303.920	26.135	861.563	684.305
304.935	26.588	861.436	685.862
305.949	26.495	860.308	684.552
306.964	26.165	859.666	682.731
307.979	26.297	859.437	682.989
308.993	26.701	859.212	684.276
310.008	26.564	858.723	683.307
311.022	26.494	857.307	681.856
312.037	26.207	856.985	680.461
313.052	26.013	856.281	679.109
314.066	25.111	854.612	674.334
315.081	24.850	853.757	672.622
316.095	25.777	854.219	676.409
317.110	26.257	853.979	677.959
318.125	25.299	852.394	673.051
319.139	24.548	850.605	668.771
320.154	24.358	850.666	668.044
321.168	25.157	851.388	671.547
322.183	26.012	850.938	674.331
323.197	26.156	850.943	674.815
324.212	26.358	850.777	675.376
325.227	26.325	850.016	674.589
326.241	26.194	849.306	673.478
327.256	25.961	848.558	671.958
328.270	26.047	847.812	671.627
329.285	25.685	847.298	669.815
330.300	25.711	846.213	668.992
331.314	25.852	846.218	669.463
332.329	26.110	846.497	670.581
333.343	26.527	845.577	671.342
334.358	26.424	845.055	670.484
335.373	26.414	845.210	670.513
336.387	26.795	844.713	671.468
337.402	26.886	844.420	671.513
338.416	26.754	844.420	670.967
339.431	26.898	843.873	671.004
340.446	27.037	843.503	671.167
341.460	26.965	842.740	670.234
342.475	26.632	842.361	668.642
343.489	26.925	842.154	669.503
344.504	27.205	841.639	670.064
345.519	27.274	841.442	670.103
346.533	27.331	841.080	669.965
347.548	27.314	840.715	669.553
348.562	27.247	839.910	668.606
349.577	27.185	839.207	667.761
350.592	27.135	838.331	666.820
351.606	27.200	837.617	666.432
352.621	26.904	837.349	665.075
353.635	26.891	836.317	664.149
354.650	26.259	835.132	660.836
355.665	25.370	833.210	656.012
356.679	25.810	832.839	657.266
357.694	26.233	832.909	658.806
358.708	26.228	832.228	658.193
359.723	26.533	832.187	659.214
360.738	26.683	832.356	659.836
361.752	26.976	831.862	660.451
362.767	27.355	830.780	660.910
363.781	27.608	830.804	661.791
364.796	27.667	830.124	661.405
365.810	27.755	829.963	661.536
366.825	27.832	829.368	661.283
367.840	27.245	828.709	658.571
368.854	26.821	827.624	656.117
369.869	26.907	827.355	656.158
370.883	26.980	826.978	656.065
371.898	26.813	826.293	654.862
372.913	26.937	826.409	655.341
373.927	27.086	825.663	655.230
374.942	27.213	825.491	655.494
375.956	27.297	825.265	655.560
376.971	27.371	824.620	655.255
377.986	27.645	824.557	656.134
379.000	27.562	823.625	655.034
380.015	27.249	823.195	653.509
381.029	27.419	822.654	653.633
382.044	27.675	822.050	654.014
383.059	27.449	821.693	652.861
384.073	27.463	821.171	652.438
385.088	27.448	820.398	651.713
386.102	27.334	819.684	650.682
387.117	27.332	819.086	650.142
388.132	26.979	817.768	647.781
389.146	26.487	816.598	645.041
390.161	26.775	817.023	646.346
391.175	27.031	816.993	647.178
392.190	26.913	815.856	645.800
393.205	25.516	814.026	639.329
394.219	24.058	811.850	632.392
395.234	24.037	811.611	632.074
396.248	25.688	812.984	638.953
397.263	27.031	813.814	644.319
398.278	27.015	813.440	643.909
399.292	26.716	813.058	642.489
400.307	26.839	812.113	642.120
401.321	27.128	811.407	642.527
402.336	27.270	812.151	643.563
403.350	27.896	811.853	645.483
404.365	27.820	811.844	645.151
405.380	28.205	811.189	645.933
406.394	28.287	810.700	645.776
407.409	28.321	810.191	645.433
408.423	28.097	810.008	644.439
409.438	28.407	809.367	644.963
410.453	28.266	809.047	644.156
411.467	28.124	808.588	643.232
412.482	28.261	808.100	643.270
413.496	28.250	807.859	642.981
414.511	28.311	807.340	642.728
415.526	28.377	806.724	642.411
416.540	28.117	806.236	641.054
417.555	27.968	805.267	639.704
418.569	27.957	805.095	639.473
419.584	27.800	804.686	638.543
420.599	27.641	804.176	637.527
421.613	110.429	1284.007	1453.148
422.628	95.372	1353.920	1453.257
