DTS Sentinel unit serial number:	SN413079Multiplexer serial number:	ORYXHardware model number:	OX4-SRSoftware version number:	ORYX F/W v4.00 Oryx Data Collector v3.7.2.0data status	okinstallation	princeton_trtdifferential loss correction	single-endedforward channel	channel 1reverse channel	N/Adate	2019/09/18time	09:22:36forward acquisition time	60.00reverse acquisition time	0.00gamma	496.2192k internal	0.2336k external	0.2336temperature offset calibration	0.9966default loss term (dB/km)	0.3790temperature slope calibration	1.0000multiplexer offset coefficient	1.0000multiplexer slope coefficient	1.0000fibre end	0.00T internal ref (°C)	26.05T ext. ref 1 (°C)	0.25T ext. ref 2 (°C)	23.41length (m)	temperature (°C)	Stokes	anti-Stokes-747.200	800.000	0.052	0.147
-746.185	-22.401	-0.368	0.224
-745.171	-200.000	0.074	0.406
-744.156	102.890	-0.299	0.352
-743.142	-168.583	0.145	0.006
-742.127	-37.381	-0.162	0.087
-741.112	800.000	0.023	-0.073
-740.098	-200.000	-0.096	0.437
-739.083	127.055	-0.128	0.162
-738.069	-141.525	-0.431	0.044
-737.054	741.136	0.190	-0.513
-736.039	-200.000	-0.003	-0.237
-735.025	37.718	0.065	0.058
-734.010	48.027	0.242	-0.227
-732.996	-200.000	-0.069	-0.426
-731.981	-101.090	-0.321	0.079
-730.966	800.000	-0.137	0.387
-729.952	185.796	-0.169	-0.251
-728.937	203.128	-0.156	-0.242
-727.923	50.314	-0.312	-0.296
-726.908	144.215	-0.161	0.216
-725.894	-200.000	0.004	0.094
-724.879	3.720	-0.194	-0.142
-723.864	215.589	-0.018	0.029
-722.850	-74.941	0.172	-0.062
-721.835	13.600	-0.216	-0.168
-720.821	16.743	0.136	-0.108
-719.806	-200.000	-0.029	-0.222
-718.791	256.373	-0.164	-0.283
-717.777	-133.165	0.266	0.034
-716.762	-200.000	0.027	0.121
-715.748	19.162	-0.117	0.094
-714.733	-62.612	0.193	-0.080
-713.718	-17.603	-0.267	-0.169
-712.704	-200.000	0.211	-0.001
-711.689	214.822	0.013	-0.021
-710.675	595.020	0.085	-0.210
-709.660	-58.105	-0.125	0.055
-708.645	277.956	-0.241	-0.431
-707.631	172.899	-0.201	-0.290
-706.616	9.652	-0.062	-0.047
-705.602	-200.000	0.042	-0.194
-704.587	800.000	-0.080	0.270
-703.572	-120.405	-0.089	-0.015
-702.558	800.000	-0.039	-0.164
-701.543	207.982	0.178	0.279
-700.529	84.477	0.144	-0.158
-699.514	83.204	-0.097	0.106
-698.499	81.906	0.076	0.082
-697.485	199.893	0.102	-0.157
-696.470	-200.000	-0.002	-0.290
-695.456	-134.444	-0.570	-0.070
-694.441	-200.000	0.009	-0.142
-693.426	-200.000	-0.042	-0.534
-692.412	194.363	0.107	-0.163
-691.397	800.000	0.020	-0.060
-690.383	-8.349	-0.049	-0.033
-689.368	186.216	-0.055	0.082
-688.354	-176.957	0.222	-0.006
-687.339	10.408	-0.271	0.207
-686.324	62.594	-0.085	0.085
-685.310	-138.879	-0.292	0.032
-684.295	-200.000	0.006	-0.209
-683.281	-34.404	0.140	0.077
-682.266	800.000	0.085	0.297
-681.251	-129.010	0.183	-0.026
-680.237	-24.164	-0.045	-0.027
-679.222	-200.000	-0.058	0.262
-678.208	-31.846	0.282	-0.158
-677.193	-15.338	-0.140	0.089
-676.178	-200.000	0.001	0.177
-675.164	10.057	0.120	-0.091
-674.149	74.940	0.213	0.225
-673.135	-200.000	-0.015	-0.099
-672.120	-146.678	-0.160	-0.014
-671.105	-83.447	-0.246	-0.079
-670.091	-79.838	-0.576	-0.194
-669.076	-200.000	0.021	0.098
-668.062	-54.803	0.200	-0.090
-667.047	-200.000	-0.040	0.208
-666.032	800.000	-0.056	-0.179
-665.018	260.189	-0.122	-0.211
-664.003	-200.000	-0.049	0.265
-662.989	322.144	0.217	0.414
-661.974	32.439	-0.080	-0.069
-660.959	730.529	-0.067	-0.179
-659.945	800.000	-0.082	-0.285
-658.930	-89.499	0.163	0.048
-657.916	-74.765	0.132	-0.047
-656.901	-200.000	0.021	-0.198
-655.886	-26.683	0.349	-0.204
-654.872	159.450	-0.198	0.276
-653.857	49.812	-0.070	-0.066
-652.843	-161.222	-0.352	0.018
-651.828	76.442	-0.249	-0.264
-650.814	97.918	-0.116	0.133
-649.799	197.813	0.116	0.178
-648.784	309.658	0.142	-0.266
-647.770	53.383	0.185	-0.177
-646.755	452.764	0.083	-0.183
-645.741	210.336	0.300	0.472
-644.726	161.568	-0.243	0.340
-643.711	800.000	-0.060	0.206
-642.697	-60.082	0.233	-0.099
-641.682	399.691	-0.143	-0.300
-640.668	7.207	0.167	-0.125
-639.653	-16.748	0.340	-0.215
-638.638	607.382	-0.140	-0.350
-637.624	-200.000	-0.012	0.211
-636.609	-61.721	-0.167	-0.070
-635.595	410.922	0.097	0.206
-634.580	-200.000	-0.017	0.134
-633.565	-96.645	-0.021	-0.005
-632.551	8.792	-0.125	-0.094
-631.536	-7.075	-0.130	-0.088
-630.522	-46.803	-0.410	0.201
-629.507	75.878	0.037	-0.039
-628.492	-135.372	0.167	0.020
-627.478	-96.984	-0.186	0.049
-626.463	-200.000	-0.068	-0.339
-625.449	-119.080	0.465	0.081
-624.434	135.766	0.188	-0.244
-623.419	-66.351	-0.298	-0.119
-622.405	-54.884	0.101	-0.046
-621.390	-129.723	0.100	-0.014
-620.376	-30.169	-0.329	0.187
-619.361	-200.000	-0.024	-0.269
-618.346	800.000	0.029	0.117
-617.332	-40.704	0.074	-0.039
-616.317	692.590	0.090	-0.235
-615.303	-18.173	0.123	-0.077
-614.288	-200.000	0.000	-0.217
-613.273	-200.000	-0.031	-0.202
-612.259	800.000	0.070	-0.235
-611.244	-63.620	-0.226	0.093
-610.230	314.457	0.169	0.317
-609.215	-200.000	-0.014	-0.073
-608.201	-8.257	-0.207	0.139
-607.186	11.452	-0.143	-0.109
-606.171	-200.000	-0.044	-0.326
-605.157	-98.534	0.095	-0.024
-604.142	-77.496	-0.444	-0.154
-603.128	-200.000	0.001	-0.247
-602.113	82.453	-0.092	0.099
-601.098	-182.628	-0.071	-0.001
-600.084	26.033	0.291	-0.242
-599.069	195.035	0.055	0.083
-598.055	52.944	-0.120	0.115
-597.040	-73.380	-0.314	0.115
-596.025	249.366	0.118	-0.200
-595.011	286.386	0.146	-0.263
-593.996	-200.000	0.024	-0.368
-592.982	-200.000	-0.003	0.346
-591.967	-11.968	-0.213	0.139
-590.952	22.177	0.149	0.121
-589.938	82.310	-0.146	-0.158
-588.923	-200.000	0.005	0.402
-587.909	-51.092	-0.449	-0.210
-586.894	154.891	0.103	0.142
-585.879	-50.364	0.234	0.111
-584.865	373.184	0.087	0.176
-583.850	-119.879	0.133	0.023
-582.836	145.667	-0.031	-0.042
-581.821	-24.683	-0.114	0.067
-580.806	362.818	-0.055	0.110
-579.792	800.000	-0.040	-0.131
-578.777	-200.000	-0.009	0.084
-577.763	-200.000	-0.017	0.164
-576.748	486.086	-0.074	-0.169
-575.733	800.000	0.093	-0.273
-574.719	90.017	-0.095	-0.106
-573.704	122.448	0.128	-0.159
-572.690	-200.000	0.028	-0.273
-571.675	-76.670	-0.291	0.102
-570.661	227.172	-0.145	-0.236
-569.646	-52.892	-0.332	-0.152
-568.631	-90.464	0.111	-0.032
-567.617	542.885	-0.070	-0.168
-566.602	-36.312	-0.158	0.085
-565.588	47.777	-0.157	0.147
-564.573	-160.164	0.277	-0.015
-563.558	8.471	-0.285	-0.213
-562.544	800.000	0.150	-0.573
-561.529	275.048	-0.060	0.107
-560.515	-39.181	-0.143	-0.075
-559.500	-67.422	-0.138	-0.054
-558.485	-200.000	0.043	-0.250
-557.471	211.362	-0.234	-0.367
-556.456	-200.000	-0.023	-0.127
-555.442	-200.000	-0.011	0.130
-554.427	185.286	-0.123	0.183
-553.412	-50.191	0.268	0.126
-552.398	142.253	-0.018	0.024
-551.383	136.256	0.142	-0.185
-550.369	-200.000	0.036	0.163
-549.354	-128.399	0.318	-0.045
-548.339	-200.000	-0.016	0.145
-547.325	-55.091	-0.042	0.019
-546.310	-94.831	-0.221	0.060
-545.296	800.000	0.035	0.108
-544.281	-68.316	-0.132	0.051
-543.266	287.039	-0.010	0.018
-542.252	403.533	0.091	0.190
-541.237	163.470	0.100	0.140
-540.223	800.000	-0.042	0.183
-539.208	-160.822	0.119	0.006
-538.193	-51.285	0.123	0.058
-537.179	-4.168	0.175	-0.121
-536.164	539.154	-0.108	-0.257
-535.150	-12.142	0.216	-0.141
-534.135	140.908	0.133	-0.175
-533.121	-77.079	0.197	-0.068
-532.106	14.470	-0.312	-0.242
-531.091	47.054	0.326	0.302
-530.077	-200.000	-0.024	0.185
-529.062	90.543	0.035	-0.039
-528.048	8.325	-0.152	0.114
-527.033	800.000	0.070	0.197
-526.018	-22.624	0.137	-0.082
-525.004	633.913	-0.043	-0.109
-523.989	800.000	0.052	0.160
-522.975	-0.416	-0.293	0.207
-521.960	-200.000	-0.004	0.052
-520.945	-72.417	0.136	-0.050
-519.931	-64.337	0.211	-0.085
-518.916	103.833	0.120	-0.141
-517.902	-51.287	-0.348	0.162
-516.887	105.837	0.086	0.101
-515.872	284.647	0.253	-0.454
-514.858	-68.766	-0.281	0.108
-513.843	-19.290	0.225	0.139
-512.829	-146.570	0.256	0.022
-511.814	159.158	0.042	-0.058
-510.799	-76.893	-0.134	0.047
-509.785	-200.000	-0.083	0.361
-508.770	-200.000	0.000	0.027
-507.756	-101.747	-0.185	-0.045
-506.741	-76.645	0.154	-0.054
-505.726	-200.000	0.012	0.079
-504.712	-128.185	-0.256	-0.036
-503.697	-99.818	-0.088	-0.022
-502.683	117.760	0.118	-0.144
-501.668	-200.000	-0.017	0.088
-500.653	-13.306	-0.551	0.356
-499.639	172.376	0.123	-0.176
-498.624	-160.406	-0.277	-0.015
-497.610	-200.000	0.006	0.061
-496.595	435.307	0.157	0.339
-495.581	133.744	-0.089	0.114
-494.566	-200.000	-0.022	0.250
-493.551	434.718	0.171	-0.369
-492.537	366.338	0.087	0.175
-491.522	800.000	0.063	-0.228
-490.508	81.897	0.066	-0.071
-489.493	-200.000	-0.008	-0.082
-488.478	8.230	-0.206	0.154
-487.464	-200.000	-0.042	-0.336
-486.449	-117.185	0.070	-0.013
-485.435	-200.000	-0.033	0.184
-484.420	578.752	-0.022	-0.053
-483.405	800.000	-0.085	0.328
-482.391	800.000	0.063	-0.174
-481.376	-25.018	0.197	0.116
-480.362	-28.578	0.092	-0.053
-479.347	76.915	-0.104	0.110
-478.332	-67.499	0.165	0.064
-477.318	505.841	0.071	-0.164
-476.303	-175.054	-0.200	0.006
-475.289	-18.726	-0.126	0.078
-474.274	-27.499	0.320	0.185
-473.259	34.984	0.117	-0.102
-472.245	800.000	0.080	-0.259
-471.230	-200.000	0.035	0.200
-470.216	-38.528	0.413	0.217
-469.201	-76.843	-0.131	-0.046
-468.186	-129.987	0.041	-0.006
-467.172	-200.000	-0.058	-0.308
-466.157	-200.000	0.017	0.380
-465.143	-79.754	-0.183	0.061
-464.128	227.805	0.124	-0.201
-463.113	-17.775	0.121	-0.076
-462.099	56.199	-0.114	0.110
-461.084	800.000	-0.015	-0.044
-460.070	800.000	-0.017	0.071
-459.055	-0.561	0.151	-0.106
-458.040	-110.217	-0.358	-0.074
-457.026	-200.000	0.036	-0.179
-456.011	-87.513	0.221	-0.066
-454.997	293.582	0.093	0.168
-453.982	219.459	-0.245	0.389
-452.968	357.992	-0.042	-0.084
-451.953	-200.000	0.041	0.331
-450.938	-94.801	-0.204	0.055
-449.924	224.524	-0.241	-0.387
-448.909	-66.193	-0.213	-0.084
-447.895	-38.524	-0.333	-0.175
-446.880	-168.369	0.244	-0.009
-445.865	-87.335	0.085	0.026
-444.851	-200.000	-0.020	0.174
-443.836	-67.637	0.409	0.159
-442.822	-169.189	0.136	-0.005
-441.807	-200.000	0.012	0.328
-440.792	9.923	-0.149	-0.112
-439.778	-200.000	-0.017	-0.415
-438.763	-17.335	-0.271	-0.170
-437.749	-33.290	-0.285	0.156
-436.734	5.891	0.271	0.199
-435.719	800.000	0.097	0.401
-434.705	575.478	0.023	0.056
-433.690	544.588	-0.203	0.481
-432.676	30.704	-0.135	-0.115
-431.661	-200.000	-0.051	-0.269
-430.646	218.655	-0.179	-0.283
-429.632	-200.000	0.012	0.164
-428.617	78.761	0.163	-0.173
-427.603	-200.000	0.007	0.057
-426.588	-97.124	-0.290	0.075
-425.573	-193.266	0.277	0.002
-424.559	12.979	0.077	0.059
-423.544	-200.000	-0.053	0.408
-422.530	800.000	0.148	-0.406
-421.515	5.753	0.304	-0.223
-420.500	-148.487	-0.398	0.032
-419.486	195.932	-0.071	-0.107
-418.471	-200.000	0.049	-0.299
-417.457	800.000	-0.066	-0.267
-416.442	-200.000	-0.002	0.102
-415.428	-117.612	0.196	-0.035
-414.413	255.375	0.103	0.176
-413.398	800.000	0.034	-0.132
-412.384	800.000	0.023	-0.090
-411.369	226.648	0.182	0.293
-410.355	-200.000	-0.066	0.412
-409.340	800.000	-0.059	-0.226
-408.325	206.540	-0.074	0.114
-407.311	45.576	-0.223	0.204
-406.296	-30.776	-0.058	-0.032
-405.282	800.000	0.091	0.273
-404.267	177.142	0.132	-0.190
-403.252	45.176	0.182	-0.166
-402.238	-200.000	-0.013	0.275
-401.223	39.886	0.243	0.216
-400.209	-81.868	-0.254	-0.083
-399.194	691.465	0.030	0.078
-398.179	186.002	0.125	-0.184
-397.165	-200.000	0.025	0.123
-396.150	-99.168	0.169	0.042
-395.136	-62.785	0.224	-0.092
-394.121	-200.000	0.031	-0.212
-393.106	57.424	-0.092	0.089
-392.092	800.000	0.080	-0.268
-391.077	-43.935	0.231	0.115
-390.063	359.271	-0.050	0.098
-389.048	-62.591	-0.223	0.092
-388.033	20.238	-0.247	-0.197
-387.019	800.000	-0.117	-0.330
-386.004	-111.455	0.182	-0.037
-384.990	-121.952	-0.533	-0.087
-383.975	-112.653	0.354	-0.070
-382.960	88.178	-0.067	0.074
-381.946	-200.000	0.030	0.161
-380.931	-200.000	-0.004	-0.136
-379.917	37.117	0.197	-0.172
-378.902	534.759	0.103	-0.241
-377.888	-127.738	-0.139	-0.020
-376.873	-19.448	-0.144	-0.088
-375.858	-23.806	-0.247	-0.147
-374.844	-11.018	-0.338	-0.221
-373.829	-14.522	0.215	0.137
-372.815	80.689	-0.155	0.165
-371.800	298.396	0.119	0.216
-370.785	-170.743	-0.106	0.004
-369.771	-104.732	0.161	-0.037
-368.756	-6.029	0.123	0.083
-367.742	-111.417	-0.250	0.050
-366.727	-77.527	-0.128	0.044
-365.712	18.663	0.216	-0.171
-364.698	-200.000	0.001	-0.212
-363.683	-71.606	-0.217	0.080
-362.669	220.723	-0.208	0.330
-361.654	25.691	0.131	-0.108
-360.639	800.000	-0.043	-0.140
-359.625	209.359	0.171	0.265
-358.610	184.165	-0.019	-0.027
-357.596	-200.000	0.037	-0.262
-356.581	-200.000	-0.056	-0.450
-355.566	46.490	0.235	0.215
-354.552	-200.000	-0.004	0.017
-353.537	-120.309	-0.246	0.041
-352.523	31.412	0.261	0.222
-351.508	-132.365	0.058	-0.007
-350.493	-163.601	-0.174	-0.008
-349.479	71.187	-0.165	-0.169
-348.464	800.000	0.086	-0.364
-347.450	18.755	0.132	-0.104
-346.435	128.815	0.043	-0.054
-345.420	-72.467	0.198	0.072
-344.406	-200.000	0.003	-0.143
-343.391	-16.297	-0.158	-0.099
-342.377	800.000	0.053	0.174
-341.362	32.986	-0.131	-0.112
-340.348	339.860	0.029	-0.057
-339.333	384.751	-0.029	0.060
-338.318	-2.421	0.425	0.294
-337.304	142.048	0.306	0.401
-336.289	-72.684	0.376	-0.137
-335.275	-107.891	-0.257	-0.055
-334.260	684.920	0.036	0.093
-333.245	800.000	0.074	0.303
-332.231	-41.725	-0.184	0.093
-331.216	47.169	0.204	0.188
-330.202	-142.954	0.302	-0.029
-329.187	486.782	0.099	0.222
-328.172	800.000	-0.087	0.337
-327.158	-120.240	-0.225	0.038
-326.143	800.000	0.126	-0.477
-325.129	525.090	0.151	0.351
-324.114	-123.008	0.387	-0.061
-323.099	-200.000	0.003	-0.225
-322.085	-200.000	0.034	0.158
-321.070	-200.000	-0.050	-0.236
-320.056	800.000	-0.080	0.322
-319.041	296.377	0.100	0.182
-318.026	47.696	0.182	0.168
-317.012	-151.437	-0.129	-0.009
-315.997	32.701	0.298	0.254
-314.983	800.000	0.031	-0.110
-313.968	618.355	0.174	0.432
-312.953	46.974	0.029	-0.026
-311.939	230.228	-0.180	0.291
-310.924	-8.170	-0.050	-0.034
-309.910	-38.854	0.109	0.057
-308.895	-155.314	-0.352	0.023
-307.880	800.000	-0.025	0.097
-306.866	-66.643	-0.191	-0.075
-305.851	-53.266	-0.186	0.084
-304.837	-200.000	0.010	-0.148
-303.822	-137.759	0.096	0.011
-302.807	-11.302	0.256	-0.167
-301.793	-200.000	0.015	0.077
-300.778	-200.000	-0.029	0.197
-299.764	800.000	0.061	-0.210
-298.749	17.471	0.022	0.017
-297.735	69.086	-0.205	0.208
-296.720	92.732	-0.104	0.116
-295.705	-97.455	0.284	0.073
-294.691	-18.815	-0.140	-0.086
-293.676	116.287	-0.046	-0.055
-292.662	370.252	-0.029	-0.058
-291.647	-200.000	-0.036	-0.287
-290.632	-52.383	0.230	0.105
-289.618	145.278	0.092	-0.121
-288.603	-84.515	-0.157	0.049
-287.589	45.555	0.122	0.111
-286.574	3.253	-0.225	0.162
-285.559	800.000	0.116	-0.398
-284.545	800.000	-0.060	0.168
-283.530	-73.277	-0.431	0.156
-282.516	-200.000	-0.009	-0.046
-281.501	-138.507	-0.226	0.025
-280.486	-64.090	0.184	-0.074
-279.472	800.000	0.043	-0.122
-278.457	120.891	-0.216	0.265
-277.443	24.927	0.148	0.121
-276.428	-85.544	-0.127	-0.039
-275.413	-79.541	-0.312	-0.104
-274.399	-200.000	0.042	-0.277
-273.384	-200.000	0.003	-0.179
-272.370	26.546	0.083	-0.068
-271.355	248.490	0.098	-0.164
-270.340	-200.000	-0.003	-0.337
-269.326	-78.172	0.465	-0.158
-268.311	369.887	-0.067	0.134
-267.297	-107.847	0.095	0.020
-266.282	-200.000	0.017	0.238
-265.267	-122.861	-0.139	-0.022
-264.253	460.694	-0.004	0.009
-263.238	263.637	0.048	-0.083
-262.224	255.922	-0.041	0.069
-261.209	61.435	-0.094	-0.092
-260.195	61.283	0.373	0.365
-259.180	800.000	0.048	0.197
-258.165	36.830	-0.093	-0.081
-257.151	335.786	0.180	0.344
-256.136	747.727	-0.042	0.111
-255.122	-200.000	-0.001	-0.166
-254.107	-165.899	0.212	0.009
-253.092	-78.184	-0.114	0.039
-252.078	15.244	0.164	-0.127
-251.063	-5.184	0.157	-0.106
-250.049	167.383	0.060	0.084
-249.034	-200.000	-0.086	-0.600
-248.019	616.985	-0.054	0.133
-247.005	14.840	0.323	-0.249
-245.990	800.000	0.038	0.116
-244.976	1.215	-0.121	0.085
-243.961	800.000	-0.098	0.271
-242.946	-85.914	0.444	-0.135
-241.932	-9.914	-0.358	0.234
-240.917	800.000	-0.078	-0.223
-239.903	689.130	0.088	-0.226
-238.888	-89.660	0.206	0.059
-237.873	104.933	0.069	-0.080
-236.859	265.367	-0.203	0.348
-235.844	-37.081	-0.344	-0.182
-234.830	800.000	-0.097	-0.273
-233.815	59.511	0.374	0.362
-232.800	800.000	0.019	0.069
-231.786	152.176	-0.204	0.274
-230.771	158.601	-0.024	-0.033
-229.757	-200.000	0.024	-0.195
-228.742	-67.680	0.162	0.062
-227.727	223.866	-0.120	-0.191
-226.713	-128.127	-0.111	0.016
-225.698	384.453	0.066	0.133
-224.684	800.000	0.077	0.237
-223.669	50.026	-0.141	-0.131
-222.655	114.189	-0.276	-0.330
-221.640	58.924	0.239	0.231
-220.625	-93.754	-0.312	-0.085
-219.611	725.929	-0.039	-0.103
-218.596	82.450	0.153	0.163
-217.582	800.000	-0.161	0.445
-216.567	-79.299	-0.215	-0.072
-215.552	178.349	-0.013	0.018
-214.538	48.874	-0.017	-0.016
-213.523	-1.776	-0.114	-0.079
-212.509	-69.233	-0.219	0.083
-211.494	535.368	0.106	0.247
-210.479	-86.469	-0.119	-0.036
-209.465	800.000	0.030	-0.116
-208.450	-44.595	0.182	0.090
-207.436	-75.578	0.178	-0.062
-206.421	-58.011	-0.120	0.052
-205.406	-72.394	0.062	0.023
-204.392	-38.938	0.317	0.164
-203.377	-200.000	0.006	0.109
-202.363	12.364	-0.115	0.087
-201.348	800.000	0.098	-0.399
-200.333	-200.000	0.061	-0.341
-199.319	77.036	0.141	-0.148
-198.304	29.412	-0.327	0.273
-197.290	-200.000	-0.019	0.248
-196.275	-21.907	0.209	-0.125
-195.260	58.267	-0.180	0.174
-194.246	-200.000	-0.048	-0.316
-193.231	800.000	-0.061	0.217
-192.217	800.000	0.051	0.164
-191.202	-70.263	-0.233	0.087
-190.187	273.143	-0.289	-0.502
-189.173	549.308	-0.141	-0.332
-188.158	37.370	0.304	0.265
-187.144	-162.617	-0.090	0.004
-186.129	183.521	0.041	-0.059
-185.114	-18.493	0.073	-0.045
-184.100	-9.712	0.180	0.118
-183.085	-200.000	-0.014	0.083
-182.071	48.531	0.168	0.155
-181.056	-146.794	-0.345	0.029
-180.042	-176.782	0.195	-0.005
-179.027	58.492	0.189	-0.182
-178.012	175.169	0.154	0.219
-176.998	570.668	-0.107	0.255
-175.983	-12.424	-0.131	0.084
-174.969	-31.252	-0.148	0.082
-173.954	800.000	0.056	0.161
-172.939	110.645	0.054	-0.064
-171.925	-200.000	-0.084	0.429
-170.910	199.666	0.125	-0.188
-169.896	-200.000	0.077	-0.384
-168.881	-199.892	-0.113	-0.001
-167.866	-200.000	0.002	0.244
-166.852	125.512	0.203	-0.252
-165.837	117.923	0.054	0.065
-164.823	-200.000	0.002	-0.071
-163.808	800.000	0.080	0.260
-162.793	-121.604	-0.069	0.011
-161.779	-151.980	-0.285	0.020
-160.764	-200.000	-0.006	-0.084
-159.750	151.109	-0.083	-0.111
-158.735	478.726	0.040	-0.088
-157.720	542.271	-0.122	0.285
-156.706	24.656	0.086	-0.070
-155.691	15.503	-0.155	-0.120
-154.677	-86.869	0.196	0.059
-153.662	83.463	-0.251	-0.268
-152.647	-80.223	0.248	0.081
-151.633	-90.814	-0.385	-0.109
-150.618	-21.982	0.187	-0.111
-149.604	-200.000	-0.027	0.180
-148.589	111.993	0.121	0.143
-147.574	-200.000	0.005	-0.034
-146.560	43.720	0.263	-0.236
-145.545	82.688	0.269	-0.287
-144.531	-24.171	0.299	-0.175
-143.516	325.907	-0.138	-0.259
-142.502	800.000	0.065	0.225
-141.487	-200.000	-0.018	0.453
-140.472	-163.088	0.253	-0.012
-139.458	-45.987	-0.512	0.248
-138.443	55.888	-0.134	0.128
-137.429	219.873	0.165	-0.259
-136.414	-54.185	0.102	0.046
-135.399	68.374	-0.008	-0.008
-134.385	209.754	0.262	-0.403
-133.370	-34.298	0.425	0.229
-132.356	91.283	-0.127	-0.140
-131.341	-48.623	0.271	-0.128
-130.326	-45.874	0.255	-0.124
-129.312	-22.385	-0.154	0.091
-128.297	800.000	0.011	0.036
-127.283	-33.595	0.254	0.137
-126.268	-200.000	0.062	-0.391
-125.253	-78.176	0.358	-0.121
-124.239	-200.000	-0.048	-0.510
-123.224	-107.541	-0.232	-0.050
-122.210	270.023	0.061	-0.104
-121.195	255.613	0.187	-0.314
-120.180	-8.409	0.476	0.314
-119.166	75.482	-0.059	0.062
-118.151	800.000	0.055	-0.167
-117.137	-200.000	0.027	-0.143
-116.122	-64.006	0.250	-0.100
-115.107	-200.000	-0.010	-0.186
-114.093	646.156	0.148	-0.370
-113.078	192.459	0.095	-0.140
-112.064	241.671	-0.056	0.092
-111.049	455.208	0.112	0.242
-110.034	-14.343	0.308	-0.194
-109.020	-42.915	-0.391	-0.195
-108.005	-200.000	0.024	-0.123
-106.991	-66.520	0.104	-0.040
-105.976	61.817	0.300	0.293
-104.962	-41.063	0.340	0.172
-103.947	329.207	0.124	0.234
-102.932	-25.564	-0.244	0.141
-101.918	-65.420	-0.226	-0.089
-100.903	39.652	-0.184	-0.161
-99.889	-113.041	0.214	0.041
-98.874	-200.000	0.024	-0.221
-97.859	-200.000	0.050	-0.248
-96.845	68.598	0.144	-0.145
-95.830	-169.605	-0.270	-0.010
-94.816	-200.000	0.015	0.067
-93.801	-100.029	0.091	0.022
-92.786	-29.586	0.302	0.169
-91.772	800.000	-0.030	0.122
-90.757	774.697	0.136	0.364
-89.743	-158.274	-0.452	-0.026
-88.728	-25.772	0.261	0.151
-87.713	-200.000	-0.004	0.206
-86.699	253.829	-0.042	-0.070
-85.684	-72.674	0.209	0.075
-84.670	-34.803	0.347	0.185
-83.655	-119.617	0.237	0.040
-82.640	800.000	0.073	0.240
-81.626	800.000	-0.032	-0.113
-80.611	-43.618	0.058	0.028
-79.597	-50.582	0.142	-0.065
-78.582	136.720	-0.035	0.044
-77.567	306.023	-0.086	-0.156
-76.553	800.000	0.075	0.263
-75.538	-200.000	0.008	0.116
-74.524	-16.730	0.112	0.070
-73.509	-14.934	0.131	0.082
-72.494	235.123	0.116	0.187
-71.480	51.866	-0.032	-0.030
-70.465	259.085	0.189	-0.318
-69.451	-80.096	0.366	-0.120
-68.436	800.000	0.059	0.179
-67.422	-148.688	0.352	0.028
-66.407	-19.868	-0.089	-0.054
-65.392	-69.251	0.221	-0.083
-64.378	800.000	-0.134	0.414
-63.363	21.634	-0.181	-0.144
-62.349	410.559	0.043	0.089
-61.334	-14.461	-1.074	-0.676
-60.319	263.951	0.507	0.862
-59.305	269.981	-0.297	-0.511
-58.290	280.920	0.759	1.327
-57.276	336.534	0.815	1.547
-56.261	-200.000	113.968	617.844
-55.246	438.279	1527.006	3256.048
-54.232	143.088	2714.123	3528.872
-53.217	100.337	2177.637	2470.082
-52.203	37.714	1607.284	1394.963
-51.188	29.290	1346.977	1118.160
-50.173	26.544	1307.522	1069.172
-49.159	52.370	1364.149	1272.018
-48.144	50.554	1377.902	1273.850
-47.130	29.537	1334.016	1108.708
-46.115	26.186	1315.302	1073.237
-45.100	25.903	1310.762	1067.811
-44.086	25.980	1307.519	1065.582
-43.071	25.890	1305.565	1063.415
-42.057	25.931	1303.243	1061.724
-41.042	25.924	1301.994	1060.624
-40.027	25.857	1300.630	1059.075
-39.013	25.907	1298.145	1057.303
-37.998	26.017	1296.471	1056.544
-36.984	25.953	1294.962	1054.896
-35.969	26.094	1292.954	1054.043
-34.954	26.032	1291.091	1052.124
-33.940	26.030	1289.594	1050.849
-32.925	26.006	1288.507	1049.779
-31.911	26.084	1286.680	1048.706
-30.896	26.042	1285.439	1047.405
-29.881	26.078	1284.138	1046.512
-28.867	26.208	1282.734	1046.080
-27.852	26.072	1281.455	1044.212
-26.838	26.236	1279.834	1043.798
-25.823	26.239	1278.469	1042.661
-24.809	26.086	1277.323	1040.800
-23.794	26.072	1276.076	1039.661
-22.779	26.195	1274.258	1038.850
-21.765	26.206	1272.888	1037.753
-20.750	26.125	1271.937	1036.470
-19.736	26.181	1270.430	1035.524
-18.721	25.941	1269.277	1033.167
-17.706	25.913	1268.410	1032.262
-16.692	25.983	1267.299	1031.713
-15.677	26.007	1266.280	1030.984
-14.663	26.130	1264.420	1030.130
-13.648	26.070	1263.261	1028.802
-12.633	25.961	1262.686	1027.668
-11.619	26.074	1261.446	1027.261
-10.604	26.017	1261.216	1026.711
-9.590	25.929	1260.512	1025.595
-8.575	25.951	1259.395	1024.772
-7.560	25.988	1258.580	1024.281
-6.546	25.955	1257.652	1023.297
-5.531	26.033	1256.619	1022.857
-4.517	25.974	1255.913	1021.910
-3.502	26.092	1254.624	1021.488
-2.487	26.008	1253.847	1020.336
-1.473	26.086	1249.635	1017.308
-0.458	25.047	1235.348	999.843
0.556	20.509	1219.683	966.872
1.571	17.598	1227.901	956.969
2.586	16.850	1243.506	964.790
3.600	16.381	1231.468	952.724
4.615	11.850	1157.502	871.351
5.629	4.005	1083.095	776.061
6.644	0.433	1064.436	745.001
7.659	0.259	1062.504	742.728
8.673	0.211	1061.149	741.478
9.688	0.108	1060.343	740.341
10.702	0.431	1057.976	740.208
11.717	4.989	1063.288	766.305
12.731	12.386	1072.838	809.686
13.746	16.238	1077.780	832.380
14.761	16.745	1077.745	834.775
15.775	15.999	1076.275	829.890
16.790	14.982	1074.373	823.348
17.804	14.339	1072.777	818.893
18.819	14.000	1072.073	816.618
19.834	13.767	1070.762	814.402
20.848	13.531	1069.779	812.425
21.863	13.254	1069.000	810.403
22.877	13.118	1068.277	809.120
23.892	13.118	1067.376	808.362
24.907	13.285	1066.111	808.150
25.921	13.120	1065.852	807.076
26.936	13.196	1065.203	806.885
27.950	13.213	1063.998	805.985
28.965	13.306	1062.904	805.539
29.980	13.256	1061.711	804.318
30.994	13.320	1060.635	803.745
32.009	13.405	1059.806	803.459
33.023	13.236	1058.903	801.883
34.038	13.353	1057.332	801.188
35.053	13.209	1057.082	800.230
36.067	13.341	1055.793	799.820
37.082	13.305	1054.838	798.853
38.096	13.289	1054.388	798.363
39.111	13.367	1053.791	798.218
40.126	13.162	1052.750	796.370
41.140	13.231	1051.176	795.442
42.155	13.049	1050.523	794.002
43.169	13.079	1049.077	792.982
44.184	13.077	1048.451	792.430
45.199	13.090	1047.372	791.608
46.213	13.147	1045.995	790.768
47.228	13.188	1045.347	790.403
48.242	13.215	1043.722	789.236
49.257	13.186	1042.931	788.430
50.271	13.185	1042.483	788.016
51.286	13.260	1041.417	787.498
52.301	13.278	1040.375	786.725
53.315	13.224	1039.711	785.896
54.330	13.220	1038.257	784.709
55.344	13.218	1037.524	784.077
56.359	13.159	1037.051	783.368
57.374	13.102	1036.324	782.483
58.388	13.044	1035.163	781.264
59.403	13.189	1034.136	781.102
60.417	13.053	1033.975	780.268
61.432	12.965	1033.171	779.177
62.447	13.058	1032.079	778.725
63.461	13.051	1030.896	777.731
64.476	13.089	1029.886	777.076
65.490	13.111	1029.278	776.653
66.505	13.102	1028.273	775.786
67.520	13.126	1027.982	775.610
68.534	13.195	1027.043	775.158
69.549	13.151	1026.618	774.559
70.563	13.104	1025.799	773.655
71.578	13.008	1025.272	772.738
72.593	13.024	1024.315	772.023
73.607	13.071	1023.697	771.710
74.622	13.015	1023.250	771.044
75.636	13.018	1022.272	770.251
76.651	12.911	1021.269	768.928
77.666	13.080	1020.965	769.420
78.680	13.146	1019.984	768.919
79.695	13.074	1019.399	768.076
80.709	13.086	1019.017	767.775
81.724	13.196	1018.283	767.667
82.739	13.143	1017.409	766.693
83.753	13.261	1016.633	766.585
84.768	13.270	1015.794	765.928
85.782	13.352	1014.949	765.601
86.797	13.367	1014.081	764.950
87.812	13.145	1013.214	763.200
88.826	13.222	1012.088	762.640
89.841	13.172	1011.276	761.733
90.855	13.303	1010.156	761.422
91.870	13.341	1009.392	760.954
92.884	13.385	1008.638	760.523
93.899	13.220	1007.965	759.189
94.914	13.349	1007.021	759.002
95.928	13.270	1006.395	758.102
96.943	13.341	1005.287	757.526
97.957	13.337	1004.346	756.732
98.972	13.397	1003.637	756.405
99.987	13.303	1002.874	755.332
101.001	13.217	1002.071	754.269
102.016	13.388	1001.012	754.182
103.030	13.280	1000.339	753.120
104.045	13.328	999.493	752.632
105.060	13.296	998.341	751.556
106.074	13.189	997.773	750.573
107.089	13.336	996.238	750.018
108.103	13.262	995.649	749.174
109.118	13.158	994.870	748.049
110.133	13.044	994.084	746.877
111.147	13.306	992.571	746.859
112.162	13.321	991.770	746.260
113.176	13.128	991.425	745.060
114.191	13.317	990.697	745.298
115.206	13.364	989.869	744.824
116.220	13.330	988.857	743.842
117.235	13.256	987.905	742.728
118.249	13.373	986.992	742.502
119.264	13.168	986.328	741.019
120.279	13.152	985.780	740.466
121.293	13.226	984.741	739.954
122.308	13.260	983.943	739.440
123.322	13.235	982.909	738.485
124.337	13.320	982.087	738.180
125.352	13.224	980.801	736.722
126.366	13.194	979.963	735.894
127.381	13.169	978.958	734.963
128.395	13.213	978.054	734.416
129.410	13.302	977.023	733.971
130.424	13.288	975.958	733.043
131.439	13.101	975.696	731.953
132.454	13.251	974.653	731.770
133.468	13.379	973.511	731.414
134.483	13.411	972.500	730.730
135.497	13.235	972.251	729.704
136.512	13.226	971.389	728.952
137.527	13.205	970.550	728.163
138.541	13.302	969.669	727.864
139.556	13.376	968.908	727.554
140.570	13.461	968.188	727.324
141.585	13.483	967.198	726.612
142.600	13.523	966.134	725.927
143.614	13.528	965.253	725.219
144.629	13.618	964.533	725.008
145.643	13.551	963.524	723.893
146.658	13.428	962.923	722.839
147.673	13.431	961.685	721.862
148.687	13.207	961.543	720.713
149.702	13.286	960.508	720.216
150.716	13.383	959.543	719.852
151.731	13.374	959.115	719.429
152.746	13.455	957.957	718.846
153.760	13.592	957.065	718.709
154.775	13.476	957.212	718.253
155.789	13.474	956.104	717.348
156.804	13.589	955.171	717.083
157.819	13.521	954.658	716.340
158.833	13.676	954.164	716.579
159.848	13.626	953.548	715.835
160.862	13.501	952.500	714.447
161.877	13.558	951.199	713.652
162.892	13.518	950.099	712.591
163.906	13.588	948.969	711.985
164.921	13.568	948.636	711.585
165.935	13.611	947.552	710.893
166.950	13.686	946.618	710.451
167.964	13.625	946.040	709.692
168.979	13.660	944.974	708.977
169.994	13.567	944.382	708.075
171.008	13.663	943.299	707.610
172.023	13.760	942.591	707.432
173.037	13.757	942.129	707.009
174.052	13.756	941.318	706.334
175.067	13.733	940.666	705.684
176.081	13.757	939.868	705.122
177.096	13.681	939.627	704.556
178.110	13.719	939.353	704.450
179.125	13.670	938.377	703.451
180.140	13.762	937.828	703.364
181.154	13.860	937.028	703.119
182.169	13.865	936.900	702.983
183.183	13.898	936.020	702.400
184.198	13.769	935.815	701.636
185.213	13.901	934.787	701.363
186.227	13.836	934.095	700.505
187.242	13.943	933.394	700.368
188.256	13.904	933.098	699.923
189.271	14.016	931.734	699.307
190.286	13.960	931.102	698.536
191.300	13.623	930.907	696.910
192.315	13.715	929.719	696.347
193.329	13.806	929.106	696.208
194.344	13.732	929.020	695.770
195.359	13.913	928.134	695.803
196.373	13.957	927.201	695.228
197.388	14.042	926.900	695.295
198.402	13.917	926.392	694.331
199.417	14.067	925.552	694.264
200.432	14.130	925.155	694.169
201.446	14.131	924.887	693.910
202.461	14.196	924.404	693.759
203.475	14.214	923.347	692.980
204.490	14.147	922.910	692.312
205.504	14.022	922.136	691.151
206.519	14.160	921.216	690.972
207.534	14.181	920.434	690.411
208.548	14.082	919.817	689.478
209.563	14.146	919.352	689.332
210.577	14.090	918.950	688.736
211.592	14.131	918.480	688.492
212.607	14.217	917.024	687.696
213.621	14.174	917.008	687.444
214.636	14.406	915.640	687.317
215.650	14.412	914.804	686.653
216.665	14.296	914.460	685.855
217.680	14.382	913.693	685.576
218.694	14.293	913.298	684.851
219.709	14.371	912.459	684.483
220.723	14.278	911.754	683.511
221.738	14.366	910.914	683.181
222.753	14.497	910.039	683.002
223.767	14.418	909.730	682.387
224.782	14.382	909.431	681.956
225.796	14.387	908.785	681.428
226.811	14.425	908.044	680.968
227.826	14.447	907.351	680.479
228.840	14.491	906.475	679.941
229.855	14.298	906.055	678.778
230.869	14.452	905.115	678.643
231.884	14.363	904.445	677.719
232.899	14.372	903.841	677.243
233.913	14.489	902.899	676.950
234.928	14.277	902.510	675.739
235.942	14.450	901.914	675.936
236.957	14.469	901.494	675.638
237.972	14.397	900.628	674.639
238.986	14.535	899.604	674.367
240.001	14.523	899.362	674.077
241.015	14.544	898.727	673.626
242.030	14.626	898.055	673.396
243.045	14.561	897.498	672.654
244.059	14.756	896.361	672.531
245.074	14.621	896.553	672.071
246.088	14.614	895.742	671.375
247.103	14.674	894.858	670.895
248.117	14.744	894.307	670.704
249.132	14.767	893.798	670.356
250.147	14.817	892.912	669.830
251.161	14.882	892.829	669.971
252.176	14.761	892.037	668.830
253.190	14.961	891.079	668.854
254.205	14.894	890.139	667.822
255.220	14.781	889.860	667.104
256.234	14.968	889.410	667.453
257.249	14.936	888.169	666.332
258.263	14.956	887.804	666.081
259.278	14.961	887.151	665.551
260.293	15.034	886.820	665.534
261.307	15.036	886.046	664.902
262.322	15.195	885.629	665.163
263.336	15.149	884.769	664.276
264.351	15.053	884.425	663.577
265.366	15.165	883.177	663.025
266.380	15.109	882.863	662.512
267.395	15.088	881.785	661.559
268.409	15.147	881.326	661.391
269.424	15.118	880.404	660.526
270.439	15.220	879.695	660.336
271.453	15.011	879.911	659.618
272.468	15.163	878.706	659.254
273.482	15.219	878.265	659.082
274.497	15.275	877.289	658.512
275.512	15.248	876.696	657.904
276.526	15.190	876.713	657.631
277.541	15.248	876.010	657.271
278.555	15.389	875.305	657.238
279.570	15.360	874.633	656.560
280.585	15.357	874.010	656.026
281.599	15.239	873.207	654.901
282.614	15.424	872.534	655.060
283.628	15.413	871.619	654.273
284.643	15.322	871.256	653.590
285.657	15.387	870.739	653.396
286.672	15.444	869.894	652.926
287.687	15.472	868.977	652.291
288.701	15.361	868.606	651.522
289.716	15.459	868.163	651.513
290.730	15.585	867.546	651.479
291.745	15.578	866.932	650.935
292.760	15.446	866.634	650.142
293.774	15.547	865.706	649.778
294.789	15.617	865.053	649.500
295.803	15.490	864.517	648.550
296.818	15.600	863.780	648.365
297.833	15.594	863.087	647.765
298.847	15.580	862.683	647.350
299.862	15.738	861.957	647.355
300.876	15.674	861.711	646.868
301.891	15.700	861.041	646.409
302.906	15.715	860.491	645.997
303.920	15.800	859.547	645.557
304.935	15.878	859.134	645.490
305.949	15.724	858.809	644.594
306.964	15.745	858.128	644.107
307.979	15.708	857.753	643.628
308.993	15.812	857.403	643.707
310.008	15.750	856.475	642.716
311.022	15.902	855.447	642.468
312.037	15.764	855.000	641.548
313.052	15.848	854.678	641.569
314.066	15.853	854.242	641.204
315.081	15.807	853.488	640.407
316.095	15.860	852.888	640.101
317.110	15.866	852.431	639.725
318.125	15.820	851.857	639.062
319.139	15.913	851.527	639.114
320.154	15.829	851.507	638.721
321.168	15.938	850.495	638.322
322.183	16.087	849.730	638.254
323.197	15.989	849.275	637.485
324.212	16.025	848.789	637.199
325.227	15.953	848.374	636.561
326.241	15.948	847.841	636.085
327.256	15.989	847.293	635.773
328.270	16.037	846.538	635.329
329.285	15.815	846.086	634.097
330.300	15.959	845.352	634.034
331.314	15.933	845.071	633.668
332.329	16.015	844.402	633.419
333.343	15.972	844.186	633.038
334.358	16.066	843.666	632.947
335.373	16.078	843.062	632.482
336.387	15.943	842.884	631.788
337.402	16.165	842.706	632.429
338.416	16.052	842.552	631.833
339.431	16.191	841.668	631.635
340.446	16.153	841.128	631.034
341.460	16.242	841.068	631.265
342.475	16.227	840.342	630.607
343.489	16.340	839.814	630.576
344.504	16.374	839.242	630.220
345.519	16.308	838.958	629.706
346.533	16.205	838.590	628.988
347.548	16.326	838.048	628.977
348.562	16.299	837.317	628.272
349.577	16.362	837.142	628.321
350.592	16.247	836.432	627.305
351.606	16.264	835.565	626.663
352.621	16.306	834.766	626.162
353.635	16.387	834.403	626.134
354.650	16.267	834.038	625.361
355.665	16.571	832.910	625.583
356.679	16.454	832.578	624.845
357.694	16.519	832.028	624.618
358.708	16.556	831.060	623.974
359.723	16.577	830.609	623.658
360.738	16.364	829.975	622.342
361.752	16.602	829.156	622.549
362.767	16.538	828.947	622.102
363.781	16.542	828.515	621.736
364.796	16.711	827.917	621.853
365.810	16.769	827.204	621.476
366.825	16.748	827.142	621.297
367.840	16.719	826.593	620.723
368.854	16.739	826.023	620.315
369.869	16.624	825.918	619.758
370.883	16.641	825.554	619.494
371.898	16.729	825.088	619.411
372.913	16.751	824.804	619.223
373.927	16.698	824.293	618.589
374.942	16.739	823.735	618.267
375.956	16.880	823.197	618.322
376.971	16.809	822.850	617.748
377.986	16.836	821.953	617.118
379.000	16.874	821.904	617.164
380.015	17.077	821.089	617.237
381.029	16.969	820.417	616.284
382.044	17.082	819.914	616.262
383.059	17.014	819.547	615.686
384.073	17.016	818.873	615.131
385.088	16.979	818.246	614.472
386.102	16.994	817.936	614.239
387.117	17.080	817.215	613.954
388.132	16.964	816.730	613.116
389.146	17.011	816.436	613.012
390.161	17.087	815.827	612.775
391.175	17.085	815.352	612.356
392.190	17.115	814.956	612.113
393.205	17.025	814.115	611.105
394.219	16.977	814.052	610.827
395.234	17.079	813.629	610.823
396.248	17.065	813.062	610.293
397.263	17.095	812.837	610.179
398.278	16.935	812.375	609.204
399.292	17.074	811.747	609.179
400.307	17.108	811.581	609.121
401.321	17.221	810.422	608.603
402.336	17.144	810.256	608.149
403.350	17.124	810.242	608.011
404.365	17.109	809.443	607.305
405.380	17.231	808.927	607.302
406.394	17.282	808.595	607.180
407.409	17.384	807.980	607.028
408.423	17.392	807.934	606.968
409.438	17.501	807.496	606.973
410.453	17.461	807.004	606.407
411.467	17.451	806.534	605.965
412.482	17.659	805.520	605.889
413.496	17.426	805.961	605.338
414.511	17.480	805.487	605.122
415.526	17.451	805.243	604.783
416.540	17.615	804.463	604.723
417.555	17.492	804.185	604.025
418.569	17.582	803.595	603.849
419.584	17.552	803.036	603.267
420.599	17.443	802.726	602.596
421.613	112.118	1297.134	1481.309
422.628	96.655	1369.127	1481.414
