DTS Sentinel unit serial number:	SN413079Multiplexer serial number:	ORYXHardware model number:	OX4-SRSoftware version number:	ORYX F/W v4.00 Oryx Data Collector v3.7.2.0data status	okinstallation	princeton_trtdifferential loss correction	single-endedforward channel	channel 1reverse channel	N/Adate	2019/09/11time	23:48:11forward acquisition time	60.00reverse acquisition time	0.00gamma	496.2192k internal	0.2319k external	0.2319temperature offset calibration	1.0074default loss term (dB/km)	0.3790temperature slope calibration	1.0000multiplexer offset coefficient	1.0000multiplexer slope coefficient	1.0000fibre end	0.00T internal ref (°C)	33.94T ext. ref 1 (°C)	1.98T ext. ref 2 (°C)	27.28length (m)	temperature (°C)	Stokes	anti-Stokes-747.200	197.902	0.176	0.273
-746.185	19.541	0.150	0.122
-745.171	-38.473	-0.123	0.066
-744.156	-125.898	-0.357	0.054
-743.142	17.098	-0.145	-0.117
-742.127	45.600	-0.118	0.110
-741.112	-44.703	-0.235	0.119
-740.098	358.286	-0.050	0.101
-739.083	64.806	-0.225	0.230
-738.069	-23.389	0.202	0.123
-737.054	-123.423	0.369	0.059
-736.039	-107.277	-0.187	-0.042
-735.025	-88.487	0.362	-0.109
-734.010	3.411	-0.336	0.248
-732.996	7.915	-0.082	-0.062
-731.981	-75.159	-0.298	-0.108
-730.966	-46.409	0.249	-0.123
-729.952	-159.074	0.061	0.003
-728.937	-162.384	-0.314	0.016
-727.923	60.422	-0.062	-0.062
-726.908	23.077	0.214	0.177
-725.894	198.589	0.170	0.263
-724.879	64.222	-0.144	-0.146
-723.864	800.000	-0.066	-0.250
-722.850	379.026	0.067	-0.139
-721.835	-146.793	-0.147	-0.013
-720.821	24.868	0.105	-0.088
-719.806	-103.855	0.286	-0.068
-718.791	-59.958	0.145	-0.063
-717.777	-71.875	0.399	0.150
-716.762	-82.868	-0.224	-0.073
-715.748	-131.008	-0.051	0.007
-714.733	36.595	-0.124	0.111
-713.718	76.239	-0.223	-0.239
-712.704	-200.000	-0.005	0.156
-711.689	746.162	-0.058	0.157
-710.675	-65.133	-0.163	0.066
-709.660	-82.214	0.177	-0.058
-708.645	85.032	0.344	-0.382
-707.631	74.743	0.170	0.181
-706.616	-200.000	-0.020	-0.221
-705.602	193.300	-0.157	0.239
-704.587	-200.000	0.015	-0.182
-703.572	288.871	0.180	-0.329
-702.558	-160.304	-0.541	-0.030
-701.543	-47.388	0.278	0.137
-700.529	140.633	-0.130	-0.173
-699.514	222.598	0.134	-0.219
-698.499	516.608	0.137	-0.323
-697.485	-160.888	-0.325	-0.017
-696.470	-146.604	0.142	-0.012
-695.456	462.364	-0.133	0.300
-694.441	-22.396	0.128	0.078
-693.426	-69.962	-0.130	-0.050
-692.412	46.857	-0.213	0.200
-691.397	450.280	-0.157	0.350
-690.383	701.851	-0.125	-0.333
-689.368	197.779	0.152	-0.235
-688.354	181.534	0.082	-0.121
-687.339	-200.000	0.010	-0.248
-686.324	111.587	-0.097	0.118
-685.310	104.784	-0.258	-0.307
-684.295	-36.163	0.251	0.137
-683.281	370.250	-0.176	0.360
-682.266	540.821	-0.084	-0.201
-681.251	-57.022	-0.489	0.218
-680.237	-172.192	0.273	-0.009
-679.222	-184.898	-0.356	0.006
-678.208	800.000	-0.047	-0.199
-677.193	19.082	-0.222	-0.179
-676.178	-180.653	0.648	0.013
-675.164	316.825	0.070	0.134
-674.149	-71.571	-0.121	0.046
-673.135	-120.097	0.215	0.037
-672.120	246.858	-0.210	0.358
-671.105	19.826	-0.183	-0.149
-670.091	22.295	0.047	-0.039
-669.076	-5.547	0.042	-0.029
-668.062	-129.766	-0.244	0.034
-667.047	-137.603	0.164	0.019
-666.032	-200.000	0.025	0.439
-665.018	484.131	0.082	-0.188
-664.003	-159.543	0.415	-0.023
-662.989	182.864	-0.073	0.109
-661.974	47.425	-0.080	0.075
-660.959	-43.970	0.147	0.075
-659.945	-11.464	-0.308	0.205
-658.930	225.942	-0.110	0.180
-657.916	28.137	0.177	0.150
-656.901	572.818	0.135	0.332
-655.886	296.719	-0.056	-0.103
-654.872	-200.000	0.057	-0.303
-653.857	-178.376	-0.204	0.005
-652.843	22.371	-0.092	0.076
-651.828	-87.457	-0.248	0.076
-650.814	187.889	0.045	0.067
-649.799	62.648	-0.137	-0.138
-648.784	-157.770	0.112	0.007
-647.770	517.446	0.037	0.087
-646.755	307.722	0.221	0.416
-645.741	-200.000	-0.005	-0.073
-644.726	-95.241	0.094	0.026
-643.711	68.421	0.077	-0.080
-642.697	-160.724	-0.135	-0.007
-641.682	37.970	0.247	-0.221
-640.668	-128.988	0.129	0.018
-639.653	49.509	0.112	-0.106
-638.638	-42.605	0.066	-0.034
-637.624	-200.000	-0.019	-0.147
-636.609	-58.037	0.189	-0.083
-635.595	58.909	-0.051	0.050
-634.580	78.869	0.259	0.280
-633.565	-200.000	-0.000	0.048
-632.551	-200.000	0.093	-0.000
-631.536	77.392	-0.234	0.250
-630.522	4.875	-0.042	0.031
-629.507	-58.757	0.161	0.070
-628.492	129.800	-0.146	0.188
-627.478	35.112	0.068	-0.060
-626.463	-114.172	0.172	0.033
-625.449	-118.087	0.102	0.018
-624.434	121.370	-0.131	0.165
-623.419	102.721	-0.220	-0.259
-622.405	-194.953	-0.166	-0.001
-621.390	498.163	-0.070	0.163
-620.376	428.194	-0.117	-0.255
-619.361	61.209	0.130	-0.130
-618.346	-200.000	0.000	0.100
-617.332	-14.693	-0.022	-0.014
-616.317	7.089	-0.062	0.047
-615.303	19.981	-0.195	-0.158
-614.288	800.000	-0.056	-0.201
-613.273	-154.191	0.276	0.019
-612.259	800.000	-0.115	0.385
-611.244	-156.611	-0.191	0.012
-610.230	800.000	0.093	0.331
-609.215	-200.000	0.038	0.189
-608.201	5.305	-0.190	-0.141
-607.186	24.861	-0.241	-0.201
-606.171	-73.810	-0.312	-0.114
-605.157	-94.635	-0.269	-0.074
-604.142	800.000	-0.039	-0.139
-603.128	340.214	-0.153	0.300
-602.113	41.791	-0.162	0.148
-601.098	800.000	-0.052	-0.218
-600.084	52.277	0.184	-0.176
-599.069	-110.813	-0.406	0.084
-598.055	674.367	0.045	0.119
-597.040	-27.258	-0.177	-0.104
-596.025	715.582	-0.076	-0.203
-595.011	-122.687	-0.167	-0.027
-593.996	12.101	0.092	0.071
-592.982	-86.288	-0.328	0.101
-591.967	79.154	-0.311	-0.335
-590.952	800.000	-0.064	0.210
-589.938	29.343	-0.210	0.180
-588.923	800.000	0.047	0.144
-587.909	143.032	0.192	-0.257
-586.894	-182.028	0.119	0.002
-585.879	-83.274	-0.148	-0.048
-584.865	431.008	0.075	0.162
-583.850	-48.724	-0.086	-0.042
-582.836	81.184	-0.159	-0.173
-581.821	-200.000	0.006	0.152
-580.806	-73.631	-0.049	-0.018
-579.792	800.000	-0.097	-0.313
-578.777	-200.000	-0.088	-0.389
-577.763	-200.000	0.006	0.159
-576.748	800.000	0.139	-0.442
-575.733	11.311	0.169	-0.130
-574.719	-200.000	-0.002	-0.070
-573.704	-45.956	0.183	-0.091
-572.690	-54.715	0.271	-0.123
-571.675	-87.186	0.277	0.085
-570.661	800.000	0.023	0.084
-569.646	118.507	0.212	-0.263
-568.631	82.542	-0.233	-0.254
-567.617	202.739	-0.160	0.248
-566.602	-111.226	0.264	0.054
-565.588	-115.336	0.319	0.060
-564.573	-102.177	0.101	-0.024
-563.558	-59.981	-0.288	0.124
-562.544	-128.503	-0.209	-0.030
-561.529	-50.114	-0.132	-0.063
-560.515	-165.442	0.146	0.006
-559.500	-105.741	-0.359	0.082
-558.485	41.283	0.230	0.209
-557.471	280.460	0.030	0.054
-556.456	61.856	0.048	-0.048
-555.442	-8.420	-0.141	-0.095
-554.427	7.635	0.396	0.298
-553.412	-67.030	-0.206	0.082
-552.398	337.306	0.089	0.173
-551.383	-168.197	-0.390	0.015
-550.369	-151.281	-0.117	0.009
-549.354	22.837	0.182	0.150
-548.339	20.651	-0.238	-0.193
-547.325	310.560	0.264	-0.496
-546.310	-6.373	0.112	-0.077
-545.296	-27.238	-0.041	0.024
-544.281	-163.779	-0.346	-0.016
-543.266	202.418	0.020	0.031
-542.252	52.905	0.038	0.037
-541.237	-34.867	-0.190	-0.104
-540.223	-200.000	-0.042	0.271
-539.208	-200.000	-0.004	-0.276
-538.193	207.056	-0.018	-0.028
-537.179	53.763	0.144	-0.139
-536.164	-177.008	0.234	-0.006
-535.150	350.999	-0.092	-0.183
-534.135	-143.597	-0.340	-0.032
-533.121	188.863	-0.131	0.197
-532.106	95.637	-0.120	-0.137
-531.091	-200.000	-0.024	0.132
-530.077	-141.769	0.309	-0.031
-529.062	163.611	-0.134	0.188
-528.048	-127.377	0.147	0.021
-527.033	141.233	-0.226	-0.299
-526.018	46.281	-0.210	0.195
-525.004	4.848	0.221	0.163
-523.989	-155.413	0.296	0.019
-522.975	800.000	0.030	-0.131
-521.960	218.956	0.142	0.228
-520.945	-126.374	-0.099	0.015
-519.931	800.000	0.040	0.154
-518.916	-147.615	0.273	0.023
-517.902	-200.000	-0.018	-0.236
-516.887	-98.071	-0.181	0.047
-515.872	-181.417	0.239	-0.005
-514.858	154.309	0.165	-0.227
-513.843	623.864	0.086	0.217
-512.829	182.911	0.175	-0.259
-511.814	189.456	-0.126	0.189
-510.799	255.922	0.060	0.103
-509.785	-15.004	0.146	0.094
-508.770	-121.701	-0.074	0.012
-507.756	-200.000	0.017	0.404
-506.741	-200.000	-0.058	-0.346
-505.726	800.000	0.115	-0.418
-504.712	37.376	-0.061	0.054
-503.697	-106.025	-0.262	-0.059
-502.683	-135.627	0.230	0.027
-501.668	-159.556	-0.522	-0.029
-500.653	32.262	0.143	0.124
-499.639	800.000	-0.040	0.138
-498.624	-200.000	-0.014	0.112
-497.610	-14.289	0.108	-0.070
-496.595	185.039	-0.191	-0.285
-495.581	45.173	-0.167	-0.154
-494.566	800.000	0.021	-0.078
-493.551	800.000	0.074	-0.266
-492.537	-0.426	0.122	-0.087
-491.522	22.345	-0.235	-0.192
-490.508	105.515	-0.205	0.243
-489.493	-200.000	-0.013	-0.468
-488.478	-200.000	-0.075	-0.390
-487.464	387.175	0.170	0.351
-486.449	373.744	0.063	-0.129
-485.435	338.068	0.060	0.117
-484.420	-69.557	-0.459	-0.176
-483.405	-96.623	-0.038	-0.010
-482.391	13.142	0.209	0.162
-481.376	-200.000	0.002	-0.208
-480.362	212.339	-0.214	0.338
-479.347	-72.710	-0.235	0.087
-478.332	589.775	-0.049	0.122
-477.318	800.000	-0.081	-0.343
-476.303	-18.936	-0.118	-0.074
-475.289	-132.713	-0.315	-0.040
-474.274	-36.128	0.091	-0.049
-473.259	-200.000	0.007	-0.034
-472.245	73.597	0.076	-0.080
-471.230	800.000	0.091	-0.343
-470.216	-123.030	-0.053	0.009
-469.201	70.067	-0.142	0.147
-468.186	-200.000	-0.034	0.202
-467.172	-156.345	0.042	-0.003
-466.157	91.856	0.231	0.260
-465.143	205.033	0.123	-0.191
-464.128	-74.199	-0.134	-0.049
-463.113	192.882	0.228	-0.345
-462.099	104.623	0.010	0.011
-461.084	-105.945	-0.075	0.017
-460.070	-200.000	0.060	-0.372
-459.055	340.104	0.131	-0.256
-458.040	70.237	0.208	-0.215
-457.026	280.975	0.131	-0.234
-456.011	-116.274	0.290	-0.054
-454.997	39.841	-0.127	0.114
-453.982	-92.925	0.288	0.081
-452.968	800.000	0.049	-0.171
-451.953	-26.873	0.190	-0.111
-450.938	-65.203	-0.129	0.052
-449.924	214.720	-0.118	0.187
-448.909	800.000	-0.059	0.190
-447.895	594.656	0.138	-0.340
-446.880	-169.093	0.111	-0.004
-445.865	489.792	-0.082	0.187
-444.851	164.411	-0.076	-0.107
-443.836	212.388	0.171	0.270
-442.822	-200.000	0.001	-0.135
-441.807	-200.000	-0.033	-0.381
-440.792	78.324	0.081	0.086
-439.778	268.009	-0.142	-0.249
-438.763	182.706	0.081	-0.119
-437.749	-13.226	0.315	0.204
-436.734	-104.165	0.338	0.079
-435.719	-92.160	-0.201	-0.057
-434.705	146.086	-0.065	-0.087
-433.690	-98.021	-0.193	-0.050
-432.676	158.209	0.206	0.286
-431.661	-200.000	0.001	-0.202
-430.646	-113.348	0.279	0.055
-429.632	1.051	-0.333	-0.239
-428.617	37.577	0.366	-0.324
-427.603	231.637	-0.092	-0.151
-426.588	-76.003	0.161	0.057
-425.573	800.000	0.052	-0.221
-424.559	-26.254	0.256	-0.150
-423.544	-56.496	-0.200	-0.089
-422.530	800.000	-0.048	-0.199
-421.515	667.938	0.044	0.114
-420.500	-19.246	-0.283	0.176
-419.486	-93.168	-0.224	-0.062
-418.471	165.339	-0.028	-0.039
-417.457	800.000	-0.046	-0.140
-416.442	-130.005	0.043	-0.006
-415.428	-180.390	-0.217	0.005
-414.413	18.518	0.089	-0.071
-413.398	-42.922	0.156	0.079
-412.384	-82.890	0.310	-0.100
-411.369	-200.000	0.011	-0.094
-410.355	141.531	0.115	0.151
-409.340	800.000	0.077	-0.298
-408.325	148.599	0.066	-0.089
-407.311	-154.350	-0.247	-0.017
-406.296	215.661	-0.180	0.285
-405.282	-26.210	0.066	-0.039
-404.267	-11.606	0.241	0.158
-403.252	-106.813	0.099	-0.022
-402.238	128.016	0.160	-0.203
-401.223	368.829	-0.105	0.212
-400.209	370.110	0.064	-0.130
-399.194	322.491	-0.089	-0.169
-398.179	-93.081	-0.295	0.082
-397.165	741.999	-0.043	0.115
-396.150	-200.000	0.036	0.189
-395.136	-200.000	-0.012	-0.217
-394.121	65.029	-0.148	-0.149
-393.106	-101.685	0.283	0.068
-392.092	-200.000	-0.009	0.206
-391.077	626.374	0.047	0.120
-390.063	-40.567	-0.146	0.076
-389.048	-12.013	-0.338	0.221
-388.033	-77.684	0.296	0.102
-387.019	297.531	-0.063	0.116
-386.004	-38.283	-0.068	0.036
-384.990	46.790	0.174	0.161
-383.975	-115.759	0.131	0.024
-382.960	-46.597	-0.079	0.039
-381.946	189.897	0.189	0.283
-380.931	-164.535	-0.369	-0.017
-379.917	-11.784	0.289	0.190
-378.902	800.000	-0.032	0.110
-377.888	-200.000	-0.004	-0.148
-376.873	164.184	-0.187	0.262
-375.858	25.390	-0.221	-0.183
-374.844	-200.000	-0.003	0.025
-373.829	-200.000	-0.045	-0.301
-372.815	-4.966	-0.055	0.038
-371.800	-145.370	-0.313	-0.028
-370.785	800.000	0.051	0.163
-369.771	-0.440	-0.173	-0.122
-368.756	16.750	-0.127	-0.100
-367.742	-200.000	-0.037	-0.172
-366.727	-200.000	-0.012	-0.153
-365.712	800.000	-0.008	0.031
-364.698	422.261	-0.053	-0.114
-363.683	-29.356	-0.129	-0.074
-362.669	-200.000	-0.042	0.202
-361.654	800.000	-0.094	0.396
-360.639	72.151	-0.096	-0.099
-359.625	-200.000	0.051	0.229
-358.610	306.276	-0.058	-0.108
-357.596	178.556	0.185	-0.269
-356.581	-66.360	0.618	-0.245
-355.566	147.043	0.047	0.064
-354.552	-78.631	-0.012	-0.004
-353.537	121.260	0.099	0.122
-352.523	-200.000	0.016	0.220
-351.508	205.909	-0.076	0.118
-350.493	703.260	-0.108	-0.284
-349.479	-55.379	-0.041	0.018
-348.464	181.529	0.058	0.084
-347.450	-200.000	0.010	0.192
-346.435	-200.000	0.042	-0.194
-345.420	-58.454	0.182	0.079
-344.406	-52.770	0.199	0.091
-343.391	800.000	0.052	0.216
-342.377	-28.975	-0.115	-0.066
-341.362	-120.448	-0.167	-0.028
-340.348	-48.751	0.062	-0.030
-339.333	-126.454	0.269	0.040
-338.318	-199.635	0.223	-0.001
-337.304	212.949	0.069	-0.108
-336.289	-52.768	0.428	-0.196
-335.275	130.942	-0.260	-0.332
-334.260	138.223	-0.121	-0.158
-333.245	-91.831	0.137	0.039
-332.231	-52.750	-0.205	-0.094
-331.216	180.036	-0.082	0.120
-330.202	800.000	0.048	0.137
-329.187	-164.515	-0.276	0.013
-328.172	420.248	-0.139	0.296
-327.158	-43.667	-0.124	0.062
-326.143	-108.221	-0.329	-0.071
-325.129	-200.000	-0.024	0.178
-324.114	710.193	0.118	0.310
-323.099	111.891	0.201	0.241
-322.085	118.975	0.240	0.295
-321.070	-41.112	-0.226	0.116
-320.056	208.323	0.111	0.173
-319.041	-200.000	0.028	0.246
-318.026	-120.209	0.113	0.019
-317.012	-14.649	0.199	0.127
-315.997	61.466	0.063	0.062
-314.983	-107.458	0.402	0.088
-313.968	-79.907	0.200	0.067
-312.953	800.000	-0.092	0.304
-311.939	-200.000	0.027	0.353
-310.924	800.000	0.032	0.135
-309.910	800.000	0.092	-0.277
-308.895	-200.000	-0.032	0.217
-307.880	-200.000	-0.058	-0.456
-306.866	694.057	0.074	0.194
-305.851	800.000	-0.063	0.249
-304.837	44.037	-0.058	0.052
-303.822	-149.370	0.251	-0.020
-302.807	289.741	-0.063	-0.114
-301.793	31.346	-0.040	-0.034
-300.778	-200.000	0.017	-0.116
-299.764	-58.942	-0.152	-0.065
-298.749	-75.926	0.116	-0.041
-297.735	800.000	-0.072	0.227
-296.720	4.332	-0.082	0.060
-295.705	750.585	0.082	0.220
-294.691	38.146	0.190	0.168
-293.676	112.137	-0.093	0.112
-292.662	65.480	0.091	0.092
-291.647	566.810	-0.179	0.432
-290.632	582.965	-0.131	0.321
-289.618	106.430	-0.180	-0.212
-288.603	427.274	-0.017	-0.037
-287.589	-122.185	-0.221	-0.036
-286.574	-188.192	0.372	-0.005
-285.559	7.019	-0.280	0.207
-284.545	-111.539	0.304	0.061
-283.530	-100.243	-0.120	0.030
-282.516	313.423	-0.084	0.158
-281.501	-200.000	-0.018	0.146
-280.486	130.054	-0.031	-0.040
-279.472	-79.538	-0.193	0.065
-278.457	-200.000	0.005	0.148
-277.443	162.678	0.050	0.069
-276.428	-200.000	0.042	0.361
-275.413	1.378	0.361	0.258
-274.399	-125.116	0.144	0.022
-273.384	-130.269	0.205	0.028
-272.370	-161.506	-0.118	-0.006
-271.355	-11.852	-0.080	-0.052
-270.340	455.320	0.197	0.434
-269.326	-53.662	0.211	-0.096
-268.311	-200.000	0.033	0.150
-267.297	-139.576	-0.262	-0.028
-266.282	212.973	-0.045	0.070
-265.267	134.772	-0.024	0.030
-264.253	160.747	0.018	0.024
-263.238	-126.925	0.448	0.066
-262.224	-46.210	-0.312	0.152
-261.209	398.613	0.039	0.082
-260.195	200.252	0.083	0.127
-259.180	270.914	0.036	-0.062
-258.165	592.087	0.141	0.345
-257.151	196.792	0.177	0.267
-256.136	800.000	-0.014	0.054
-255.122	-0.518	-0.113	0.079
-254.107	3.082	0.075	0.054
-253.092	-56.565	-0.095	-0.042
-252.078	106.321	0.159	0.187
-251.063	220.764	0.087	0.139
-250.049	-200.000	0.002	0.286
-249.034	2.642	-0.151	0.108
-248.019	-156.824	-0.072	-0.004
-247.005	-63.495	-0.352	-0.143
-245.990	-86.540	-0.157	0.048
-244.976	155.007	0.169	-0.231
-243.961	-67.108	-0.363	0.142
-242.946	-22.884	0.249	-0.149
-241.932	-69.130	-0.032	0.012
-240.917	-2.545	0.228	0.159
-239.903	47.788	0.265	-0.246
-238.888	42.932	-0.127	0.115
-237.873	-115.932	0.353	-0.065
-236.859	-115.662	-0.183	0.034
-235.844	800.000	0.075	-0.253
-234.830	81.183	0.172	0.184
-233.815	267.434	-0.102	-0.177
-232.800	-200.000	0.035	0.313
-231.786	-159.398	-0.262	-0.015
-230.771	-141.996	-0.082	-0.008
-229.757	-125.706	0.236	0.035
-228.742	101.243	0.039	0.045
-227.727	67.981	-0.176	-0.179
-226.713	-52.662	0.297	0.136
-225.698	-93.956	-0.245	-0.067
-224.684	-105.717	0.203	0.045
-223.669	-200.000	0.012	0.221
-222.655	185.524	0.089	-0.130
-221.640	-200.000	0.025	-0.218
-220.625	24.542	-0.323	-0.265
-219.611	345.792	0.103	0.200
-218.596	-200.000	0.024	-0.260
-217.582	-61.835	0.164	-0.068
-216.567	-57.572	-0.133	-0.058
-215.552	-14.664	-0.166	-0.106
-214.538	800.000	0.087	-0.266
-213.523	459.740	-0.125	0.275
-212.509	111.622	0.111	-0.133
-211.494	-45.205	-0.116	0.057
-210.479	402.347	0.037	0.078
-209.465	127.038	-0.296	0.372
-208.450	43.602	0.073	-0.066
-207.436	-200.000	-0.020	-0.100
-206.421	300.711	0.137	-0.250
-205.406	800.000	0.034	-0.136
-204.392	800.000	0.082	0.264
-203.377	-131.408	-0.174	0.023
-202.363	341.887	0.133	0.257
-201.348	57.925	0.102	-0.099
-200.333	10.068	0.273	-0.205
-199.319	-200.000	-0.003	-0.151
-198.304	239.306	-0.218	-0.359
-197.290	344.741	0.178	-0.347
-196.275	618.831	-0.129	-0.321
-195.260	-168.381	-0.288	-0.011
-194.246	-200.000	0.017	0.302
-193.231	-200.000	0.013	-0.144
-192.217	298.641	-0.085	0.155
-191.202	-89.836	0.176	-0.051
-190.187	7.193	0.224	-0.165
-189.173	-40.132	-0.263	-0.136
-188.158	23.210	0.363	0.295
-187.144	800.000	0.097	-0.280
-186.129	191.238	-0.108	-0.161
-185.114	-69.317	-0.154	0.058
-184.100	-200.000	-0.004	0.246
-183.085	9.814	-0.204	-0.153
-182.071	466.260	0.015	0.033
-181.056	-123.232	-0.211	0.033
-180.042	135.277	0.221	0.285
-179.027	76.138	0.052	0.055
-178.012	-29.979	-0.163	0.092
-176.998	-117.894	0.238	-0.042
-175.983	-169.365	-0.170	-0.006
-174.969	274.997	-0.034	-0.059
-173.954	-91.221	0.291	-0.082
-172.939	-200.000	-0.027	0.139
-171.925	-110.030	0.157	0.033
-170.910	800.000	-0.072	-0.238
-169.896	19.240	-0.141	0.112
-168.881	178.482	0.135	-0.194
-167.866	-200.000	-0.016	-0.340
-166.852	386.000	-0.109	-0.223
-165.837	178.747	0.197	0.285
-164.823	-52.551	-0.052	0.024
-163.808	-200.000	0.035	-0.426
-162.793	52.536	-0.192	-0.181
-161.779	-108.802	-0.197	-0.042
-160.764	800.000	0.070	-0.236
-159.750	-93.699	0.160	0.044
-158.735	-140.873	-0.256	-0.026
-157.720	505.446	-0.045	0.104
-156.706	-200.000	-0.011	-0.252
-155.691	-200.000	-0.026	0.144
-154.677	-200.000	0.003	-0.058
-153.662	-88.560	-0.165	-0.049
-152.647	800.000	0.067	-0.189
-151.633	-92.270	-0.194	0.054
-150.618	-124.389	-0.100	0.015
-149.604	84.594	-0.170	0.184
-148.589	-200.000	0.013	-0.185
-147.574	800.000	-0.127	0.427
-146.560	-34.033	-0.143	0.078
-145.545	154.285	0.082	-0.111
-144.531	-51.882	-0.141	-0.065
-143.516	108.461	0.225	0.266
-142.502	-7.942	0.122	-0.081
-141.487	606.565	-0.113	0.278
-140.472	-32.326	0.058	0.032
-139.458	-200.000	0.005	-0.505
-138.443	-13.714	0.078	0.050
-137.429	-22.485	-0.212	0.127
-136.414	81.024	0.021	-0.022
-135.399	-67.865	0.125	0.048
-134.385	-173.384	-0.021	0.001
-133.370	-200.000	-0.033	0.296
-132.356	156.750	0.156	-0.213
-131.341	-15.532	0.163	0.103
-130.326	-146.539	0.294	0.025
-129.312	-117.748	0.323	0.057
-128.297	65.274	0.102	-0.102
-127.283	151.590	-0.077	-0.104
-126.268	-34.979	-0.255	0.137
-125.253	-200.000	0.012	0.070
-124.239	76.088	0.244	-0.255
-123.224	276.967	-0.090	-0.158
-122.210	-117.229	-0.039	0.007
-121.195	-9.840	0.339	0.222
-120.180	-23.821	0.140	0.083
-119.166	-200.000	0.025	0.386
-118.151	-134.256	0.127	0.015
-117.137	-200.000	-0.008	0.290
-116.122	800.000	-0.024	-0.095
-115.107	176.615	0.113	-0.163
-114.093	-200.000	0.009	0.082
-113.078	-200.000	-0.017	0.114
-112.064	800.000	0.016	-0.050
-111.049	-58.709	-0.033	0.014
-110.034	106.032	-0.197	-0.230
-109.020	800.000	0.016	0.045
-108.005	125.537	0.117	-0.146
-106.991	800.000	-0.082	0.245
-105.976	-200.000	-0.037	0.222
-104.962	-103.901	0.232	-0.053
-103.947	-200.000	0.057	-0.449
-102.932	-77.860	-0.402	0.137
-101.918	254.087	0.163	-0.275
-100.903	185.443	-0.199	-0.292
-99.889	-72.063	0.153	-0.056
-98.874	-24.835	-0.147	0.086
-97.859	594.039	0.023	0.056
-96.845	-71.681	-0.312	0.115
-95.830	519.717	-0.033	0.077
-94.816	-102.820	0.239	0.056
-93.801	800.000	0.023	-0.100
-92.786	-200.000	0.001	-0.329
-91.772	422.612	-0.069	-0.146
-90.757	-54.997	-0.090	0.040
-89.743	-84.366	0.300	0.094
-88.728	-91.856	-0.106	0.030
-87.713	623.774	0.093	0.232
-86.699	214.130	0.207	0.323
-85.684	144.282	-0.138	0.182
-84.670	-110.486	-0.040	-0.008
-83.655	-54.630	0.217	-0.097
-82.640	800.000	0.042	0.139
-81.626	59.202	-0.143	0.139
-80.611	25.137	0.091	0.075
-79.597	-200.000	0.025	-0.130
-78.582	19.791	0.183	0.145
-77.567	-4.385	-0.112	-0.077
-76.553	-200.000	0.020	-0.294
-75.538	-65.512	0.068	0.027
-74.524	-59.516	-0.194	0.082
-73.509	140.189	0.072	0.093
-72.494	-126.319	-0.347	-0.051
-71.480	26.849	0.093	0.077
-70.465	-18.156	-0.143	0.088
-69.451	12.268	0.076	-0.057
-68.436	166.477	-0.203	0.283
-67.422	94.513	0.189	-0.211
-66.407	-123.775	-0.299	0.047
-65.392	381.319	0.077	-0.155
-64.378	-200.000	-0.030	0.256
-63.363	274.740	-0.034	0.059
-62.349	1.789	-0.097	0.069
-61.334	60.396	-0.988	-0.964
-60.319	800.000	0.162	0.526
-59.305	401.189	-0.447	-0.925
-58.290	329.956	0.567	1.075
-57.276	499.120	0.605	1.372
-56.261	-200.000	96.679	581.160
-55.246	547.608	1386.057	3267.822
-54.232	155.714	2578.293	3498.313
-53.217	112.488	2153.024	2565.853
-52.203	45.280	1611.012	1463.248
-51.188	37.359	1348.657	1177.168
-50.173	34.269	1306.147	1121.856
-49.159	56.669	1354.244	1297.878
-48.144	59.613	1371.898	1332.364
-47.130	37.693	1327.719	1160.705
-46.115	34.068	1310.776	1124.462
-45.100	33.857	1305.953	1119.040
-44.086	33.861	1303.377	1116.813
-43.071	33.729	1301.527	1114.408
-42.057	33.736	1299.251	1112.454
-41.042	33.807	1297.571	1111.387
-40.027	33.889	1296.041	1110.513
-39.013	33.875	1294.300	1108.897
-37.998	33.771	1292.581	1106.770
-36.984	33.866	1290.714	1105.681
-35.969	33.948	1288.877	1104.540
-34.954	34.019	1287.201	1103.471
-33.940	34.027	1285.901	1102.364
-32.925	33.978	1284.956	1101.225
-31.911	34.032	1283.117	1099.917
-30.896	34.028	1281.865	1098.778
-29.881	34.030	1280.831	1097.856
-28.867	34.148	1278.955	1096.885
-27.852	34.085	1277.643	1095.356
-26.838	34.023	1276.340	1093.838
-25.823	34.002	1275.036	1092.558
-24.809	34.017	1273.568	1091.339
-23.794	34.115	1271.804	1090.349
-22.779	34.033	1270.934	1089.092
-21.765	33.960	1269.930	1087.767
-20.750	33.981	1268.215	1086.376
-19.736	33.855	1267.056	1084.619
-18.721	33.914	1265.732	1083.778
-17.706	33.831	1264.878	1082.531
-16.692	33.884	1263.431	1081.553
-15.677	33.887	1262.626	1080.837
-14.663	33.866	1261.645	1079.835
-13.648	33.940	1260.563	1079.285
-12.633	33.917	1259.455	1078.167
-11.619	33.851	1258.812	1077.197
-10.604	33.902	1258.109	1076.844
-9.590	33.815	1256.875	1075.251
-8.575	33.843	1256.077	1074.685
-7.560	33.905	1254.816	1073.915
-6.546	33.898	1254.206	1073.309
-5.531	33.857	1253.421	1072.363
-4.517	33.869	1252.533	1071.631
-3.502	33.845	1252.265	1071.222
-2.487	33.871	1250.867	1070.127
-1.473	33.830	1246.743	1066.331
-0.458	32.289	1231.365	1044.579
0.556	29.134	1213.578	1006.250
1.571	25.635	1218.820	991.266
2.586	24.778	1234.582	999.211
3.600	24.554	1223.949	989.275
4.615	18.193	1151.120	897.081
5.629	7.352	1072.951	782.825
6.644	2.362	1051.489	742.910
7.659	1.875	1048.908	738.660
8.673	1.854	1047.532	737.527
9.688	1.810	1046.305	736.385
10.702	2.350	1045.260	738.188
11.717	9.363	1055.189	779.209
12.731	19.646	1069.446	839.910
13.746	24.145	1075.522	866.550
14.761	24.946	1075.869	870.649
15.775	25.051	1075.498	870.782
16.790	24.729	1075.049	868.777
17.804	24.665	1074.243	867.736
18.819	24.854	1073.860	868.266
19.834	25.090	1073.232	868.827
20.848	25.096	1072.691	868.342
21.863	24.980	1072.358	867.436
22.877	24.991	1071.454	866.680
23.892	24.843	1071.238	865.715
24.907	25.141	1069.631	865.778
25.921	24.975	1069.055	864.431
26.936	25.010	1067.402	863.186
27.950	24.936	1066.057	861.666
28.965	24.909	1064.134	859.910
29.980	24.918	1062.572	858.615
30.994	25.176	1061.690	859.061
32.009	25.026	1061.092	857.782
33.023	24.791	1059.427	855.238
34.038	24.963	1058.758	855.445
35.053	25.125	1058.145	855.646
36.067	25.032	1057.452	854.566
37.082	25.178	1056.741	854.612
38.096	25.218	1056.314	854.378
39.111	25.265	1055.819	854.129
40.126	25.103	1054.304	852.058
41.140	24.683	1052.574	848.591
42.155	24.573	1050.988	846.715
43.169	24.674	1050.258	846.530
44.184	24.620	1049.180	845.333
45.199	24.578	1048.401	844.429
46.213	24.598	1047.735	843.913
47.228	24.853	1046.553	844.091
48.242	24.885	1046.055	843.764
49.257	24.935	1045.364	843.369
50.271	25.102	1044.266	843.192
51.286	25.050	1043.819	842.512
52.301	25.129	1042.975	842.131
53.315	24.993	1041.889	840.541
54.330	24.969	1040.981	839.618
55.344	24.994	1040.232	839.058
56.359	24.986	1039.245	838.150
57.374	24.701	1038.681	836.291
58.388	24.710	1037.459	835.271
59.403	24.625	1036.769	834.245
60.417	24.586	1036.232	833.557
61.432	24.597	1035.627	833.048
62.447	24.755	1034.546	832.841
63.461	24.818	1034.008	832.629
64.476	24.742	1032.963	831.358
65.490	24.642	1031.988	830.037
66.505	24.817	1031.417	830.317
67.520	24.666	1030.754	829.011
68.534	24.504	1029.551	827.217
69.549	24.319	1028.118	825.139
70.563	24.231	1028.083	824.632
71.578	24.263	1026.420	823.372
72.593	24.158	1025.821	822.333
73.607	24.336	1025.469	822.801
74.622	24.474	1025.043	823.021
75.636	24.527	1024.684	822.904
76.651	24.359	1023.525	821.127
77.666	24.364	1022.802	820.499
78.680	24.384	1021.886	819.782
79.695	24.532	1021.312	819.927
80.709	24.544	1020.855	819.546
81.724	24.620	1020.174	819.270
82.739	24.668	1019.376	818.779
83.753	24.942	1019.142	819.772
84.768	25.274	1018.181	820.445
85.782	25.382	1017.243	820.110
86.797	25.228	1016.156	818.458
87.812	25.037	1014.875	816.483
88.826	25.246	1014.472	817.042
89.841	25.258	1013.814	816.493
90.855	25.151	1012.681	815.020
91.870	25.301	1011.441	814.632
92.884	25.250	1010.495	813.569
93.899	25.062	1009.591	811.915
94.914	25.312	1008.782	812.324
95.928	25.176	1007.438	810.554
96.943	24.948	1006.278	808.521
97.957	24.669	1005.452	806.526
98.972	24.435	1004.602	804.719
99.987	24.718	1004.131	805.546
101.001	25.055	1002.901	806.006
102.016	24.879	1002.630	804.924
103.030	24.960	1001.102	803.989
104.045	24.822	1000.311	802.664
105.060	24.620	999.497	801.037
106.074	24.751	998.845	801.027
107.089	25.116	998.704	802.480
108.103	25.030	997.203	800.817
109.118	24.748	995.928	798.462
110.133	24.824	994.858	797.874
111.147	24.542	993.663	795.587
112.162	24.379	992.718	794.037
113.176	24.583	992.457	794.666
114.191	24.592	991.606	793.951
115.206	24.427	989.870	791.760
116.220	24.233	989.597	790.610
117.235	24.482	988.706	790.932
118.249	24.421	988.028	790.052
119.264	24.352	987.092	788.928
120.279	24.432	986.257	788.542
121.293	24.373	985.777	787.832
122.308	24.438	984.548	787.067
123.322	24.397	983.585	786.044
124.337	24.200	982.460	784.208
125.352	23.679	980.292	780.121
126.366	23.849	978.823	779.627
127.381	24.541	979.305	782.979
128.395	25.007	979.064	784.757
129.410	24.966	978.385	783.967
130.424	24.986	977.310	783.120
131.439	24.941	976.778	782.429
132.454	24.950	975.197	781.135
133.468	24.872	974.732	780.351
134.483	25.029	974.290	780.612
135.497	25.101	973.276	780.045
136.512	25.294	972.377	780.092
137.527	25.266	971.769	779.417
138.541	25.275	970.841	778.642
139.556	25.355	969.905	778.169
140.570	25.344	969.493	777.723
141.585	25.355	968.393	776.817
142.600	25.317	967.145	775.583
143.614	25.335	966.800	775.315
144.629	25.467	966.191	775.327
145.643	25.480	964.778	774.182
146.658	25.191	963.573	771.905
147.673	25.085	962.285	770.346
148.687	25.078	961.447	769.577
149.702	24.957	960.521	768.248
150.716	24.954	959.305	767.196
151.731	25.141	959.107	767.772
152.746	25.229	958.574	767.655
153.760	25.390	958.022	767.831
154.775	25.521	956.823	767.364
155.789	25.376	956.790	766.648
156.804	25.360	955.622	765.578
157.819	25.488	954.655	765.279
158.833	25.574	953.994	765.046
159.848	25.527	953.099	764.062
160.862	25.401	951.798	762.419
161.877	25.428	950.714	761.598
162.892	25.508	949.505	760.902
163.906	25.407	948.762	759.809
164.921	25.363	947.857	758.833
165.935	25.365	947.115	758.178
166.950	25.541	945.986	757.951
167.964	25.323	945.318	756.431
168.979	25.245	944.183	755.127
169.994	25.126	943.434	753.958
171.008	25.327	943.379	754.694
172.023	25.373	942.602	754.197
173.037	25.249	940.996	752.326
174.052	25.117	940.037	750.939
175.067	25.121	939.301	750.304
176.081	25.280	938.987	750.650
177.096	25.151	938.295	749.493
178.110	24.829	937.169	747.181
179.125	24.795	936.416	746.375
180.140	24.703	936.499	745.990
181.154	24.887	936.207	746.461
182.169	25.161	935.965	747.341
183.183	25.560	935.112	748.254
184.198	25.286	934.287	746.391
185.213	25.230	933.730	745.646
186.227	25.393	933.284	745.903
187.242	25.493	932.265	745.436
188.256	25.435	931.929	744.862
189.271	25.496	931.138	744.414
190.286	25.109	929.913	741.769
191.300	24.500	928.471	738.036
192.315	23.759	926.817	733.596
193.329	23.791	926.335	733.283
194.344	24.678	927.045	737.443
195.359	25.167	927.031	739.384
196.373	25.239	926.714	739.360
197.388	25.244	925.729	738.530
198.402	25.245	925.223	738.063
199.417	25.363	924.187	737.657
200.432	25.121	923.516	736.064
201.446	24.875	922.901	734.499
202.461	24.914	922.351	734.156
203.475	24.215	920.522	729.776
204.490	23.353	919.324	725.234
205.504	24.265	919.483	729.026
206.519	24.780	919.866	731.370
207.534	24.874	919.538	731.432
208.548	25.371	918.858	732.853
209.563	25.047	917.584	730.452
210.577	25.104	917.349	730.432
211.592	25.441	917.008	731.470
212.607	25.468	916.279	730.934
213.621	25.509	915.696	730.568
214.636	25.424	915.329	729.867
215.650	25.369	914.013	728.530
216.665	25.638	913.593	729.220
217.680	25.465	913.040	728.013
218.694	24.894	912.002	724.811
219.709	24.859	911.188	723.958
220.723	25.100	911.060	724.766
221.738	25.253	910.141	724.589
222.753	25.228	909.403	723.835
223.767	25.368	908.706	723.782
224.782	25.709	908.497	724.924
225.796	25.570	907.776	723.725
226.811	24.904	906.366	719.862
227.826	24.274	904.904	716.104
228.840	24.543	904.445	716.761
229.855	24.585	904.106	716.595
230.869	24.132	902.999	713.840
231.884	24.609	903.433	716.031
232.899	25.265	902.822	718.109
233.913	25.272	902.085	717.491
234.928	25.122	902.019	716.775
235.942	25.163	900.913	715.995
236.957	24.845	900.374	714.234
237.972	24.864	899.914	713.881
238.986	24.953	898.764	713.261
240.001	25.115	898.463	713.602
241.015	24.999	898.021	712.726
242.030	25.213	897.461	713.071
243.045	25.318	897.193	713.211
244.059	25.469	896.406	713.123
245.074	25.257	895.606	711.582
246.088	24.956	894.983	709.832
247.103	25.154	894.724	710.347
248.117	25.594	894.859	712.135
249.132	25.863	894.249	712.649
250.147	26.088	893.263	712.690
251.161	26.140	893.189	712.774
252.176	26.119	892.265	711.891
253.190	26.155	892.119	711.855
254.205	26.366	891.925	712.465
255.220	26.342	890.948	711.530
256.234	26.089	890.182	709.858
257.249	26.066	889.245	708.960
258.263	25.998	888.669	708.169
259.278	26.214	888.096	708.497
260.293	26.308	887.593	708.404
261.307	26.162	886.887	707.204
262.322	26.058	886.013	706.039
263.336	25.069	884.411	700.834
264.351	24.186	882.176	695.556
265.366	24.242	882.205	695.737
266.380	25.416	882.841	700.758
267.395	25.772	882.508	701.818
268.409	25.642	881.836	700.717
269.424	25.977	881.100	701.374
270.439	25.766	880.926	700.353
271.453	26.043	880.170	700.765
272.468	26.184	879.974	701.095
273.482	26.123	879.597	700.497
274.497	25.819	878.189	698.135
275.512	25.286	877.616	695.551
276.526	25.775	877.670	697.428
277.541	26.043	877.090	697.941
278.555	25.964	875.739	696.501
279.570	25.748	875.379	695.318
280.585	25.875	874.809	695.293
281.599	25.829	874.255	694.615
282.614	25.299	872.751	691.315
283.628	25.319	872.253	690.937
284.643	25.622	872.009	691.849
285.657	25.161	870.736	689.008
286.672	24.910	870.295	687.633
287.687	25.465	870.273	689.687
288.701	25.542	869.479	689.290
289.716	25.124	868.786	687.078
290.730	25.224	868.254	686.980
291.745	24.954	866.914	684.829
292.760	25.324	867.109	686.335
293.774	26.196	867.475	689.899
294.789	26.467	867.068	690.546
295.803	26.402	866.714	689.959
296.818	26.668	865.878	690.244
297.833	26.056	864.993	687.149
298.847	25.958	864.106	686.009
299.862	26.491	863.632	687.596
300.876	26.532	863.714	687.759
301.891	26.421	862.577	686.371
302.906	26.004	862.112	684.359
303.920	26.082	861.817	684.361
304.935	26.519	861.702	685.865
305.949	26.422	860.672	684.615
306.964	26.172	859.868	682.972
307.979	26.158	859.716	682.736
308.993	26.658	859.342	684.269
310.008	26.597	858.558	683.354
311.022	26.283	857.997	681.661
312.037	26.157	857.276	680.555
313.052	25.961	856.377	679.040
314.066	25.140	854.871	674.701
315.081	24.790	854.200	672.794
316.095	25.637	854.575	676.215
317.110	26.060	854.620	677.782
318.125	25.295	852.744	673.364
319.139	24.337	851.061	668.387
320.154	24.304	851.015	668.168
321.168	25.049	851.608	671.367
322.183	25.847	851.515	674.221
323.197	26.115	851.044	674.792
324.212	26.236	850.695	674.908
325.227	26.285	850.253	674.680
326.241	26.180	849.110	673.323
327.256	26.177	848.678	672.908
328.270	25.971	848.460	671.909
329.285	25.953	846.942	670.582
330.300	25.619	846.295	668.769
331.314	25.832	846.418	669.599
332.329	26.265	846.334	671.079
333.343	26.439	845.649	671.124
334.358	26.294	845.312	670.260
335.373	26.465	845.377	670.883
336.387	26.747	844.866	671.466
337.402	26.680	845.316	671.514
338.416	26.670	844.631	670.876
339.431	26.797	844.203	670.946
340.446	26.932	843.734	671.011
341.460	26.716	843.553	670.010
342.475	26.674	842.589	669.032
343.489	26.850	842.458	669.517
344.504	26.936	842.519	669.824
345.519	27.299	841.690	670.442
346.533	27.238	841.273	669.826
347.548	27.142	840.894	669.112
348.562	27.256	839.963	668.731
349.577	27.000	839.648	667.482
350.592	27.030	839.209	667.181
351.606	27.148	838.285	666.822
352.621	26.980	837.662	665.652
353.635	26.916	836.675	664.574
354.650	26.292	835.024	660.924
355.665	25.422	833.702	656.641
356.679	25.770	833.889	658.001
357.694	26.180	832.791	658.572
358.708	26.195	832.207	658.105
359.723	26.453	832.408	659.149
360.738	26.851	832.102	660.296
361.752	26.780	832.158	660.022
362.767	27.130	831.570	660.773
363.781	27.510	830.977	661.623
364.796	27.417	831.001	661.246
365.810	27.465	830.888	661.270
366.825	27.503	829.797	660.481
367.840	27.233	829.216	658.981
368.854	26.812	827.968	656.408
369.869	26.831	827.791	656.279
370.883	26.928	827.491	656.333
371.898	26.742	826.952	655.176
372.913	26.865	826.524	655.225
373.927	27.070	826.234	655.676
374.942	27.185	825.820	655.705
375.956	27.183	825.733	655.570
376.971	27.308	825.197	655.538
377.986	27.454	824.757	655.654
379.000	27.510	824.010	655.205
380.015	27.230	823.294	653.570
381.029	27.336	823.167	653.792
382.044	27.444	822.518	653.606
383.059	27.466	821.763	653.027
384.073	27.500	821.240	652.676
385.088	27.535	820.697	652.314
386.102	27.259	819.848	650.594
387.117	27.152	819.400	649.798
388.132	26.909	818.167	647.895
389.146	26.424	817.240	645.373
390.161	26.793	817.352	646.719
391.175	27.285	817.128	648.240
392.190	26.945	816.049	646.116
393.205	25.408	813.998	638.974
394.219	23.912	812.162	632.162
395.234	23.905	812.305	632.194
396.248	25.592	813.241	638.863
397.263	27.088	814.210	644.884
398.278	26.992	813.800	644.159
399.292	26.695	813.204	642.578
400.307	26.765	812.446	642.171
401.321	26.877	812.386	642.462
402.336	27.330	811.984	643.692
403.350	27.668	812.230	645.024
404.365	27.932	812.116	645.812
405.380	28.213	811.702	646.416
406.394	28.214	811.010	645.813
407.409	28.202	810.579	645.371
408.423	28.106	810.216	644.685
409.438	28.185	810.015	644.748
410.453	28.202	809.566	644.392
411.467	28.284	808.600	643.854
412.482	28.251	808.332	643.467
413.496	28.391	808.111	643.728
414.511	28.249	807.440	642.637
415.526	28.190	807.230	642.207
416.540	28.069	806.554	641.187
417.555	27.772	805.665	639.383
418.569	27.852	805.193	639.234
419.584	27.907	804.678	638.958
420.599	27.803	803.896	637.918
421.613	109.964	1283.468	1450.368
422.628	94.955	1353.307	1450.492
