DTS Sentinel unit serial number:	SN413079Multiplexer serial number:	ORYXHardware model number:	OX4-SRSoftware version number:	ORYX F/W v4.00 Oryx Data Collector v3.7.2.0data status	okinstallation	princeton_trtdifferential loss correction	single-endedforward channel	channel 1reverse channel	N/Adate	2019/09/17time	15:50:35forward acquisition time	60.00reverse acquisition time	0.00gamma	496.2192k internal	0.2292k external	0.2292temperature offset calibration	0.9960default loss term (dB/km)	0.3790temperature slope calibration	1.0000multiplexer offset coefficient	1.0000multiplexer slope coefficient	1.0000fibre end	0.00T internal ref (°C)	39.27T ext. ref 1 (°C)	0.38T ext. ref 2 (°C)	37.87length (m)	temperature (°C)	Stokes	anti-Stokes-747.200	-31.516	0.193	-0.111
-746.185	78.085	-0.156	0.171
-745.171	-97.654	-0.303	0.080
-744.156	800.000	-0.171	0.505
-743.142	-115.913	-0.216	-0.041
-742.127	198.622	0.112	-0.175
-741.112	77.265	-0.218	0.238
-740.098	470.570	-0.107	0.246
-739.083	-88.427	-0.185	0.056
-738.069	-200.000	0.042	0.193
-737.054	267.142	0.159	0.284
-736.039	-200.000	0.003	0.018
-735.025	70.716	-0.266	0.282
-734.010	181.770	-0.060	0.090
-732.996	153.463	0.210	-0.294
-731.981	106.906	-0.046	-0.056
-730.966	557.033	-0.032	0.080
-729.952	-200.000	-0.037	-0.394
-728.937	800.000	-0.080	0.304
-727.923	-107.419	-0.208	-0.047
-726.908	-55.598	0.116	-0.053
-725.894	183.040	0.218	0.329
-724.879	-200.000	0.038	-0.204
-723.864	188.796	-0.210	-0.321
-722.850	-152.348	0.295	-0.022
-721.835	-192.626	0.161	-0.002
-720.821	-87.703	-0.081	0.025
-719.806	-70.806	-0.358	-0.138
-718.791	183.367	-0.102	-0.154
-717.777	145.191	0.123	-0.169
-716.762	246.873	-0.073	0.126
-715.748	111.613	-0.328	-0.404
-714.733	-99.857	-0.149	-0.038
-713.718	143.670	-0.133	-0.181
-712.704	-160.697	0.169	0.009
-711.689	-200.000	-0.023	0.157
-710.675	-69.189	-0.162	0.064
-709.660	-144.172	-0.268	0.026
-708.645	-17.976	0.135	-0.087
-707.631	-3.720	-0.075	0.053
-706.616	-200.000	-0.043	-0.410
-705.602	252.838	0.186	-0.324
-704.587	-39.023	-0.166	0.089
-703.572	-61.241	-0.257	-0.111
-702.558	75.621	0.150	0.161
-701.543	-45.361	-0.103	0.052
-700.529	356.839	-0.161	-0.329
-699.514	800.000	-0.047	-0.197
-698.499	-34.969	-0.120	0.067
-697.485	670.624	-0.119	-0.316
-696.470	-103.208	0.170	-0.041
-695.456	-113.052	-0.323	-0.065
-694.441	-200.000	0.008	-0.214
-693.426	793.515	0.126	0.355
-692.412	-81.932	0.225	0.075
-691.397	62.598	0.114	-0.116
-690.383	10.811	-0.164	-0.128
-689.368	13.187	-0.061	-0.048
-688.354	-200.000	0.020	0.207
-687.339	125.241	-0.098	-0.126
-686.324	180.595	0.108	-0.162
-685.310	-176.189	-0.151	-0.004
-684.295	97.837	0.264	0.310
-683.281	46.363	0.252	0.239
-682.266	180.409	-0.078	-0.117
-681.251	-200.000	-0.013	-0.118
-680.237	-148.741	0.229	0.019
-679.222	-182.460	-0.140	0.003
-678.208	356.970	0.065	-0.132
-677.193	438.064	-0.080	-0.179
-676.178	-200.000	0.004	-0.219
-675.164	178.173	-0.188	-0.281
-674.149	366.043	-0.058	0.119
-673.135	100.244	-0.158	-0.187
-672.120	39.910	-0.185	-0.169
-671.105	52.107	0.217	-0.211
-670.091	-14.215	0.157	0.103
-669.076	-200.000	0.046	0.367
-668.062	229.064	0.056	0.094
-667.047	-82.294	0.101	-0.033
-666.032	-200.000	0.013	-0.205
-665.018	132.102	-0.052	0.068
-664.003	222.018	-0.242	-0.397
-662.989	235.604	-0.094	-0.159
-661.974	800.000	0.079	0.226
-660.959	-200.000	-0.031	0.269
-659.945	87.651	-0.457	-0.517
-658.930	-26.967	0.183	-0.109
-657.916	-93.748	0.171	0.048
-656.901	800.000	-0.131	-0.437
-655.886	-200.000	0.000	-0.014
-654.872	800.000	0.091	-0.324
-653.857	112.939	-0.175	0.216
-652.843	8.285	-0.125	0.096
-651.828	39.076	0.159	0.145
-650.814	-118.726	0.063	0.011
-649.799	-84.320	0.306	-0.099
-648.784	477.223	0.066	0.151
-647.770	-84.651	-0.162	-0.052
-646.755	-67.261	-0.147	0.059
-645.741	662.432	0.147	-0.386
-644.726	333.556	0.069	-0.136
-643.711	-92.016	0.460	-0.133
-642.697	-106.081	0.102	0.023
-641.682	66.561	0.121	0.125
-640.668	73.894	0.013	-0.014
-639.653	-200.000	-0.019	0.324
-638.638	59.412	-0.095	0.096
-637.624	-79.165	0.014	0.005
-636.609	151.795	0.086	0.120
-635.595	-200.000	-0.023	-0.230
-634.580	130.766	0.114	0.150
-633.565	-200.000	-0.003	-0.064
-632.551	380.600	0.092	-0.192
-631.536	-142.516	0.069	-0.007
-630.522	-200.000	0.056	-0.316
-629.507	207.367	-0.153	-0.243
-628.492	-117.026	0.108	-0.020
-627.478	408.679	-0.080	0.173
-626.463	800.000	-0.102	0.294
-625.449	415.236	-0.046	0.101
-624.434	-90.351	-0.274	0.081
-623.419	25.256	0.184	0.155
-622.405	-116.297	-0.455	0.086
-621.390	-9.304	0.123	0.084
-620.376	-56.196	-0.082	-0.037
-619.361	-114.441	-0.134	-0.026
-618.346	-28.764	0.135	-0.079
-617.332	-182.355	0.203	0.004
-616.317	-200.000	-0.018	0.093
-615.303	-200.000	-0.074	0.339
-614.288	-155.857	-0.203	0.013
-613.273	-95.465	0.223	0.061
-612.259	156.773	0.077	0.109
-611.244	-31.877	-0.145	0.083
-610.230	800.000	-0.022	0.068
-609.215	-13.772	0.193	0.127
-608.201	70.681	-0.147	0.154
-607.186	25.248	-0.184	0.156
-606.171	-89.581	-0.326	-0.097
-605.157	-23.830	-0.188	0.115
-604.142	-105.251	0.134	0.031
-603.128	-200.000	0.000	-0.199
-602.113	-137.990	-0.113	-0.013
-601.098	489.549	-0.124	-0.289
-600.084	-113.939	0.012	-0.002
-599.069	-52.914	0.263	-0.123
-598.055	-200.000	0.061	0.388
-597.040	311.969	-0.155	0.296
-596.025	-200.000	0.019	0.169
-595.011	-66.482	0.183	0.074
-593.996	-111.373	-0.256	0.053
-592.982	-200.000	0.015	0.168
-591.967	300.351	-0.083	-0.155
-590.952	142.250	-0.083	-0.112
-589.938	-88.980	-0.167	-0.050
-588.923	-143.474	-0.175	-0.017
-587.909	-124.885	-0.166	-0.026
-586.894	-78.816	0.230	-0.080
-585.879	-27.414	0.037	-0.022
-584.865	-90.764	-0.221	-0.065
-583.850	56.104	-0.209	-0.206
-582.836	777.228	-0.022	-0.060
-581.821	133.464	-0.014	0.019
-580.806	-200.000	-0.012	-0.221
-579.792	-158.876	-0.189	0.011
-578.777	800.000	-0.064	-0.244
-577.763	80.745	-0.093	-0.102
-576.748	28.108	0.064	-0.055
-575.733	-200.000	-0.026	0.241
-574.719	800.000	-0.134	0.480
-573.704	-37.977	-0.027	0.015
-572.690	-13.058	0.153	-0.101
-571.675	24.809	-0.058	0.049
-570.661	-106.282	0.209	0.048
-569.646	730.319	-0.212	-0.577
-568.631	-183.639	0.113	-0.002
-567.617	-111.056	0.304	0.063
-566.602	800.000	0.062	0.185
-565.588	-190.600	-0.174	0.002
-564.573	-44.734	-0.209	0.106
-563.558	-62.193	-0.151	0.064
-562.544	-200.000	-0.029	0.176
-561.529	-36.876	-0.203	0.111
-560.515	800.000	-0.079	0.314
-559.500	199.147	-0.049	0.077
-558.485	560.899	-0.018	0.045
-557.471	31.611	0.087	-0.076
-556.456	287.974	0.100	0.185
-555.442	-81.613	0.184	-0.062
-554.427	-81.045	0.025	0.008
-553.412	776.283	0.011	-0.031
-552.398	235.938	0.150	-0.253
-551.383	165.427	-0.116	-0.166
-550.369	-200.000	0.015	0.108
-549.354	67.691	-0.164	0.170
-548.339	-109.283	-0.136	0.029
-547.325	-200.000	-0.016	-0.074
-546.310	328.836	0.057	-0.112
-545.296	-58.125	0.132	0.058
-544.281	-200.000	0.015	-0.096
-543.266	88.000	0.044	0.050
-542.252	-86.096	-0.523	0.164
-541.237	-127.234	0.235	0.035
-540.223	-200.000	-0.025	0.396
-539.208	-74.562	-0.192	0.070
-538.193	-30.217	-0.176	0.102
-537.179	21.254	0.108	0.089
-536.164	-173.678	-0.187	-0.006
-535.150	-113.399	-0.248	0.049
-534.135	147.547	0.136	0.186
-533.121	-32.279	0.275	-0.156
-532.106	790.960	-0.108	-0.300
-531.091	112.974	-0.202	0.249
-530.077	138.147	0.109	0.144
-529.062	248.482	0.131	0.226
-528.048	800.000	-0.050	-0.149
-527.033	191.706	-0.210	-0.322
-526.018	-63.044	-0.245	0.103
-525.004	371.016	0.056	-0.115
-523.989	800.000	-0.025	-0.072
-522.975	-14.126	-0.253	0.166
-521.960	-49.035	0.148	-0.072
-520.945	-59.776	-0.190	-0.082
-519.931	-200.000	-0.004	-0.073
-518.916	-118.565	0.335	0.060
-517.902	113.077	-0.075	0.093
-516.887	800.000	0.019	0.072
-515.872	-159.388	-0.207	-0.012
-514.858	375.149	-0.041	-0.084
-513.843	236.568	0.092	0.154
-512.829	-76.662	0.285	-0.101
-511.814	33.532	0.057	-0.050
-510.799	184.103	-0.156	0.234
-509.785	189.207	0.129	0.197
-508.770	5.055	0.162	-0.121
-507.756	-200.000	-0.039	0.330
-506.741	-200.000	0.047	0.454
-505.726	-8.173	-0.356	-0.243
-504.712	-169.827	-0.221	-0.008
-503.697	-14.688	-0.172	0.112
-502.683	-10.046	-0.405	-0.273
-501.668	296.839	0.103	-0.191
-500.653	-122.074	-0.047	-0.008
-499.639	-77.717	-0.158	-0.056
-498.624	-178.992	-0.200	0.005
-497.610	-92.678	0.135	-0.038
-496.595	-200.000	0.052	-0.261
-495.581	112.517	0.255	-0.313
-494.566	800.000	-0.098	-0.275
-493.551	466.330	-0.051	-0.116
-492.537	800.000	0.042	-0.161
-491.522	543.586	-0.031	-0.075
-490.508	-119.187	0.378	0.067
-489.493	0.374	0.286	-0.207
-488.478	-76.362	-0.317	-0.113
-487.464	504.021	0.069	0.163
-486.449	-61.341	-0.258	-0.110
-485.435	247.278	-0.105	0.179
-484.420	55.008	0.128	0.125
-483.405	800.000	0.085	0.314
-482.391	-30.622	0.335	-0.192
-481.376	-94.924	-0.249	-0.068
-480.362	497.295	-0.062	0.144
-479.347	-74.736	0.075	0.027
-478.332	79.342	0.042	0.046
-477.318	-200.000	0.033	0.199
-476.303	-32.488	0.221	0.125
-475.289	155.300	0.141	-0.196
-474.274	800.000	-0.159	-0.478
-473.259	800.000	0.068	-0.218
-472.245	-188.152	-0.049	-0.001
-471.230	800.000	-0.045	0.156
-470.216	-200.000	-0.000	-0.025
-469.201	800.000	0.053	-0.212
-468.186	-1.265	-0.092	0.066
-467.172	800.000	0.054	-0.188
-466.157	-134.494	-0.090	0.011
-465.143	63.587	0.199	0.202
-464.128	-200.000	-0.082	0.385
-463.113	-27.886	0.344	0.202
-462.099	-134.465	0.352	0.044
-461.084	-88.586	0.170	-0.051
-460.070	-114.280	-0.424	-0.083
-459.055	-3.824	0.115	-0.081
-458.040	146.310	0.128	0.174
-457.026	125.395	0.004	0.005
-456.011	109.965	0.085	-0.104
-454.997	89.583	-0.119	0.135
-453.982	60.070	-0.236	-0.236
-452.968	55.106	-0.076	0.074
-451.953	-200.000	-0.015	0.127
-450.938	-93.640	0.159	0.045
-449.924	62.984	0.326	0.330
-448.909	33.032	-0.213	0.186
-447.895	-67.748	-0.279	0.110
-446.880	-130.777	-0.153	-0.021
-445.865	-200.000	0.003	0.136
-444.851	27.486	-0.054	0.046
-443.836	166.432	-0.174	-0.250
-442.822	-83.917	0.106	-0.034
-441.807	-69.220	0.226	0.088
-440.792	-200.000	0.012	-0.091
-439.778	-73.912	0.341	-0.125
-438.763	-200.000	-0.044	-0.271
-437.749	-200.000	-0.008	-0.309
-436.734	-37.318	0.183	-0.099
-435.719	-200.000	0.023	-0.120
-434.705	530.153	0.147	0.350
-433.690	-119.882	0.310	-0.054
-432.676	800.000	-0.013	0.046
-431.661	-170.540	0.263	-0.009
-430.646	-200.000	0.008	-0.078
-429.632	570.691	-0.090	0.221
-428.617	-89.291	-0.238	0.071
-427.603	91.137	0.070	0.080
-426.588	200.927	0.118	0.184
-425.573	81.712	0.130	0.143
-424.559	475.262	-0.159	-0.364
-423.544	-126.321	-0.248	0.037
-422.530	59.063	0.138	0.137
-421.515	-200.000	0.015	-0.190
-420.500	252.085	-0.106	-0.183
-419.486	-126.409	-0.151	0.023
-418.471	-74.287	-0.068	-0.025
-417.457	184.449	-0.106	0.158
-416.442	44.246	0.206	-0.191
-415.428	178.881	-0.173	-0.255
-414.413	115.096	0.132	0.163
-413.398	508.311	-0.082	0.191
-412.384	150.991	-0.074	-0.102
-411.369	-16.831	0.161	-0.103
-410.355	-21.834	0.151	-0.093
-409.340	-152.566	0.231	-0.017
-408.325	705.102	-0.095	0.254
-407.311	28.006	0.170	-0.145
-406.296	-36.604	-0.449	-0.244
-405.282	-65.809	0.320	0.129
-404.267	-138.809	-0.098	0.011
-403.252	800.000	0.041	-0.160
-402.238	-112.430	-0.109	0.022
-401.223	354.235	0.136	-0.273
-400.209	19.875	0.321	0.261
-399.194	-100.669	-0.121	0.030
-398.179	252.259	0.088	0.151
-397.165	-119.493	-0.081	0.014
-396.150	-186.508	0.311	-0.004
-395.136	90.427	0.241	-0.272
-394.121	-55.129	-0.248	-0.113
-393.106	-177.548	0.236	-0.006
-392.092	-70.423	0.249	-0.095
-391.077	-29.551	0.187	-0.108
-390.063	-13.606	0.143	-0.093
-389.048	52.062	-0.086	0.083
-388.033	-2.732	-0.385	-0.272
-387.019	166.035	-0.188	-0.269
-386.004	-23.498	0.155	0.094
-384.990	39.646	0.118	0.107
-383.975	145.891	0.094	0.127
-382.960	278.051	0.120	0.215
-381.946	156.587	-0.059	-0.082
-380.931	159.384	-0.143	-0.201
-379.917	752.451	0.048	0.131
-378.902	800.000	-0.036	-0.110
-377.888	16.061	-0.020	-0.016
-376.873	-15.766	0.060	-0.038
-375.858	800.000	0.090	0.393
-374.844	158.265	-0.104	-0.146
-373.829	62.479	-0.249	-0.251
-372.815	-129.151	0.386	0.054
-371.800	800.000	-0.019	-0.058
-370.785	-135.301	0.132	0.016
-369.771	-200.000	-0.010	-0.058
-368.756	-160.718	0.282	0.015
-367.742	800.000	0.038	0.153
-366.727	-200.000	-0.009	0.263
-365.712	308.512	0.162	-0.305
-364.698	-98.843	0.179	0.046
-363.683	27.054	-0.191	-0.162
-362.669	-90.513	-0.053	0.016
-361.654	-5.117	-0.234	-0.162
-360.639	316.757	0.138	-0.263
-359.625	459.005	0.199	0.446
-358.610	-59.524	-0.257	0.111
-357.596	32.049	0.114	0.099
-356.581	219.323	0.172	-0.277
-355.566	-69.399	0.236	0.091
-354.552	170.336	-0.064	0.092
-353.537	226.347	-0.174	-0.284
-352.523	800.000	-0.053	0.160
-351.508	40.894	0.307	-0.279
-350.493	800.000	-0.077	0.222
-349.479	800.000	-0.024	0.089
-348.464	188.171	-0.142	0.214
-347.450	173.677	0.072	-0.105
-346.435	7.860	0.053	-0.040
-345.420	-81.493	0.147	-0.049
-344.406	-62.606	-0.457	-0.191
-343.391	-149.456	-0.253	-0.020
-342.377	-200.000	0.064	0.324
-341.362	19.738	0.192	0.156
-340.348	573.317	0.034	-0.085
-339.333	-200.000	0.007	-0.203
-338.318	155.179	-0.135	0.188
-337.304	66.784	-0.244	0.250
-336.289	125.659	-0.145	0.185
-335.275	800.000	0.079	-0.284
-334.260	-82.026	0.316	-0.104
-333.245	-185.630	-0.105	0.002
-332.231	614.383	0.172	0.435
-331.216	47.915	0.025	0.024
-330.202	24.088	0.186	0.155
-329.187	-200.000	-0.082	-0.387
-328.172	16.251	-0.125	0.099
-327.158	192.387	-0.241	-0.367
-326.143	-139.515	0.282	-0.030
-325.129	-154.501	0.218	0.015
-324.114	-10.761	0.247	-0.164
-323.099	-156.921	0.291	0.018
-322.085	-51.938	0.295	-0.138
-321.070	800.000	0.059	-0.241
-320.056	800.000	0.142	-0.479
-319.041	60.530	-0.015	0.015
-318.026	295.927	-0.048	0.088
-317.012	768.220	-0.074	-0.203
-315.997	135.940	0.111	0.145
-314.983	201.990	0.084	-0.130
-313.968	333.492	0.086	-0.167
-312.953	800.000	0.098	0.285
-311.939	-93.069	-0.338	0.095
-310.924	800.000	0.035	-0.109
-309.910	-200.000	-0.027	-0.132
-308.895	-7.466	-0.227	-0.155
-307.880	-200.000	-0.052	0.244
-306.866	22.028	-0.258	-0.211
-305.851	-81.820	0.288	0.095
-304.837	281.224	-0.028	-0.050
-303.822	-32.617	-0.081	-0.045
-302.807	-19.699	-0.094	-0.059
-301.793	-19.296	-0.286	-0.178
-300.778	800.000	0.071	-0.226
-299.764	165.638	0.127	-0.180
-298.749	800.000	-0.048	0.198
-297.735	-200.000	0.004	-0.093
-296.720	-52.403	0.102	-0.048
-295.705	-166.243	0.137	-0.006
-294.691	11.391	0.193	-0.148
-293.676	2.266	0.214	-0.156
-292.662	-200.000	-0.027	0.316
-291.647	88.794	-0.136	-0.152
-290.632	-74.612	0.268	-0.097
-289.618	-47.846	-0.225	0.109
-288.603	292.823	-0.060	-0.109
-287.589	51.220	-0.039	0.037
-286.574	-14.675	-0.146	0.094
-285.559	-200.000	0.016	0.330
-284.545	-130.881	0.358	-0.048
-283.530	-4.165	0.034	-0.024
-282.516	-81.776	-0.237	-0.078
-281.501	-151.092	0.111	-0.008
-280.486	466.670	-0.075	0.168
-279.472	-102.462	0.202	0.049
-278.457	5.426	0.332	-0.246
-277.443	-24.789	-0.239	-0.143
-276.428	-97.483	-0.205	0.054
-275.413	-37.517	-0.306	-0.164
-274.399	800.000	-0.057	-0.197
-273.384	144.090	-0.112	-0.150
-272.370	-200.000	0.010	-0.317
-271.355	-114.039	0.373	-0.073
-270.340	69.220	0.037	-0.038
-269.326	-78.513	0.315	-0.108
-268.311	173.755	-0.140	0.203
-267.297	8.330	-0.075	0.057
-266.282	170.080	0.172	0.247
-265.267	360.916	-0.012	0.025
-264.253	-49.058	0.078	0.038
-263.238	-200.000	-0.017	-0.143
-262.224	-103.880	-0.368	0.086
-261.209	-183.178	0.183	0.003
-260.195	322.151	-0.088	-0.168
-259.180	138.317	-0.123	0.162
-258.165	-84.922	-0.089	-0.028
-257.151	-131.580	0.155	0.020
-256.136	-200.000	-0.038	0.176
-255.122	625.188	-0.071	-0.180
-254.107	-113.263	-0.060	-0.012
-253.092	-200.000	-0.034	-0.307
-252.078	800.000	0.014	-0.049
-251.063	-54.350	-0.032	0.015
-250.049	95.774	-0.064	0.073
-249.034	-131.152	0.266	-0.036
-248.019	569.892	-0.070	-0.172
-247.005	134.248	0.088	0.115
-245.990	-200.000	0.001	0.027
-244.976	800.000	-0.016	-0.066
-243.961	-29.022	-0.141	0.081
-242.946	-96.916	0.243	-0.064
-241.932	800.000	0.049	-0.195
-240.917	-87.337	-0.033	-0.010
-239.903	140.274	-0.226	0.299
-238.888	-59.258	-0.077	-0.033
-237.873	72.693	-0.271	-0.284
-236.859	295.249	-0.047	0.087
-235.844	-174.653	-0.119	0.003
-234.830	-93.380	0.174	-0.048
-233.815	-200.000	0.030	0.377
-232.800	800.000	0.016	-0.055
-231.786	619.559	0.066	0.167
-230.771	188.794	0.107	0.160
-229.757	13.421	-0.189	-0.147
-228.742	186.756	-0.052	0.078
-227.727	-117.672	0.089	-0.016
-226.713	-151.858	-0.156	-0.011
-225.698	-200.000	0.034	0.302
-224.684	228.830	-0.015	-0.025
-223.669	118.688	0.041	-0.051
-222.655	150.716	-0.182	0.248
-221.640	-131.780	-0.177	-0.023
-220.625	-200.000	0.009	0.096
-219.611	-168.820	0.079	-0.003
-218.596	800.000	-0.113	-0.414
-217.582	-70.176	-0.148	0.057
-216.567	800.000	0.056	0.201
-215.552	-120.238	-0.358	-0.061
-214.538	-200.000	-0.005	0.197
-213.523	-156.662	0.251	0.016
-212.509	69.708	-0.127	-0.131
-211.494	-77.432	0.147	-0.051
-210.479	-17.703	0.322	0.203
-209.465	189.226	0.073	-0.110
-208.450	-93.236	-0.065	-0.018
-207.436	-106.785	-0.045	-0.010
-206.421	119.610	0.172	0.214
-205.406	-89.832	-0.208	0.061
-204.392	304.326	-0.021	-0.038
-203.377	781.664	-0.082	0.226
-202.363	312.545	0.070	0.131
-201.348	-200.000	0.012	0.262
-200.333	800.000	-0.020	-0.061
-199.319	800.000	-0.043	0.128
-198.304	-125.790	-0.183	0.028
-197.290	36.947	-0.030	-0.026
-196.275	394.245	0.088	0.183
-195.260	160.951	-0.052	0.073
-194.246	45.963	-0.086	0.079
-193.231	-200.000	0.007	-0.102
-192.217	53.938	0.271	-0.261
-191.202	-62.247	0.188	0.079
-190.187	47.601	0.335	0.313
-189.173	377.710	0.017	-0.035
-188.158	222.565	-0.240	-0.386
-187.144	-200.000	-0.056	0.377
-186.129	-134.014	0.154	-0.019
-185.114	28.234	-0.110	-0.093
-184.100	-200.000	-0.032	-0.287
-183.085	-200.000	-0.001	-0.021
-182.071	602.595	-0.091	0.227
-181.056	171.139	-0.102	-0.146
-180.042	-80.594	-0.244	0.081
-179.027	-200.000	0.072	0.381
-178.012	76.660	-0.127	0.135
-176.998	252.637	-0.179	-0.305
-175.983	-46.765	-0.106	0.052
-174.969	-45.357	0.055	-0.027
-173.954	-200.000	-0.022	-0.108
-172.939	707.946	0.031	0.083
-171.925	59.306	-0.059	-0.058
-170.910	188.975	0.228	-0.342
-169.896	-200.000	-0.019	-0.225
-168.881	-200.000	-0.015	0.438
-167.866	135.384	-0.115	-0.150
-166.852	-128.739	-0.130	0.018
-165.837	-84.528	-0.091	-0.029
-164.823	-36.619	0.097	-0.052
-163.808	-140.246	-0.196	-0.021
-162.793	-8.554	-0.112	0.075
-161.779	-200.000	0.017	0.125
-160.764	-15.188	-0.150	-0.096
-159.750	-200.000	-0.037	0.263
-158.735	-40.174	0.304	0.158
-157.720	-79.973	0.184	-0.062
-156.706	-98.574	-0.286	0.073
-155.691	277.503	-0.132	0.234
-154.677	-179.991	0.284	0.006
-153.662	-104.632	-0.283	-0.065
-152.647	246.968	0.242	-0.408
-151.633	-102.236	0.342	0.082
-150.618	2.172	-0.387	0.280
-149.604	-35.950	0.206	0.111
-148.589	-42.812	-0.059	0.030
-147.574	9.319	-0.120	-0.091
-146.560	-59.213	-0.249	-0.107
-145.545	-41.711	-0.204	0.105
-144.531	99.584	-0.145	-0.167
-143.516	62.528	-0.305	0.305
-142.502	-133.161	-0.106	-0.013
-141.487	-200.000	0.035	-0.171
-140.472	-200.000	-0.019	-0.101
-139.458	-51.167	0.319	0.150
-138.443	99.847	0.014	-0.017
-137.429	-81.131	-0.419	-0.139
-136.414	-200.000	-0.025	0.157
-135.399	151.177	-0.110	-0.149
-134.385	53.808	0.188	-0.181
-133.370	800.000	-0.091	0.331
-132.356	-200.000	0.072	0.317
-131.341	-164.110	0.362	0.017
-130.326	-113.305	0.238	0.047
-129.312	-200.000	0.040	-0.252
-128.297	-200.000	-0.036	-0.222
-127.283	-4.627	-0.154	-0.106
-126.268	-18.548	-0.075	0.047
-125.253	31.572	-0.212	0.182
-124.239	-200.000	0.008	-0.128
-123.224	-123.294	0.069	0.011
-122.210	7.857	0.164	-0.123
-121.195	39.250	0.171	-0.153
-120.180	800.000	-0.014	-0.051
-119.166	-140.641	-0.226	0.023
-118.151	269.293	-0.086	0.150
-117.137	79.552	-0.135	-0.145
-116.122	800.000	0.035	-0.107
-115.107	94.024	0.176	-0.199
-114.093	800.000	-0.069	-0.211
-113.078	-200.000	-0.008	-0.117
-112.064	-200.000	-0.009	0.187
-111.049	-32.931	-0.158	-0.087
-110.034	-98.635	0.229	0.058
-109.020	217.361	-0.259	0.412
-108.005	-64.899	0.294	-0.119
-106.991	-6.266	0.275	-0.188
-105.976	800.000	0.045	-0.140
-104.962	-48.905	-0.146	0.070
-103.947	382.831	0.097	-0.198
-102.932	-200.000	-0.031	-0.299
-101.918	731.851	0.080	-0.213
-100.903	-154.807	0.090	-0.006
-99.889	193.301	-0.097	0.146
-98.874	96.176	0.076	0.087
-97.859	-200.000	0.002	0.028
-96.845	670.363	-0.100	0.257
-95.830	-200.000	-0.009	0.195
-94.816	-86.242	0.185	0.057
-93.801	86.680	-0.071	-0.078
-92.786	800.000	-0.080	0.254
-91.772	88.731	0.096	0.107
-90.757	-200.000	-0.030	0.312
-89.743	-145.069	0.074	-0.007
-88.728	65.809	-0.217	-0.219
-87.713	-13.678	-0.136	-0.088
-86.699	49.419	0.352	0.330
-85.684	-67.542	-0.245	0.096
-84.670	-200.000	-0.040	-0.186
-83.655	423.045	0.084	-0.179
-82.640	-200.000	0.001	0.093
-81.626	-37.452	0.091	0.049
-80.611	111.849	-0.025	0.031
-79.597	-13.141	0.184	-0.119
-78.582	-113.578	-0.200	0.039
-77.567	-79.140	0.289	0.098
-76.553	-104.309	-0.136	0.031
-75.538	110.663	0.098	0.118
-74.524	25.354	0.132	-0.109
-73.509	-200.000	-0.021	-0.325
-72.494	271.198	0.066	0.116
-71.480	-117.003	0.286	0.052
-70.465	-126.413	-0.172	0.026
-69.451	-9.261	-0.347	0.231
-68.436	189.056	-0.115	0.172
-67.422	395.538	0.106	0.221
-66.407	165.229	0.044	-0.063
-65.392	-39.214	0.304	0.159
-64.378	124.823	0.125	0.157
-63.363	-200.000	-0.047	0.384
-62.349	527.813	-0.100	0.235
-61.334	115.684	-0.390	-0.475
-60.319	-155.439	0.435	0.028
-59.305	-200.000	-0.025	-0.570
-58.290	114.800	0.754	0.916
-57.276	725.778	0.639	1.699
-56.261	-200.000	77.329	517.706
-55.246	481.212	1367.453	3092.359
-54.232	140.373	2615.814	3439.553
-53.217	113.088	2260.822	2731.042
-52.203	50.744	1704.037	1607.409
-51.188	42.817	1430.051	1298.046
-50.173	39.436	1384.389	1235.382
-49.159	57.559	1421.244	1383.488
-48.144	63.329	1440.312	1438.533
-47.130	43.323	1402.229	1275.783
-46.115	39.440	1385.227	1235.960
-45.100	39.113	1380.947	1230.045
-44.086	39.114	1378.084	1227.454
-43.071	39.057	1375.904	1225.106
-42.057	39.022	1373.959	1223.107
-41.042	39.108	1372.109	1221.949
-40.027	39.170	1370.552	1220.896
-39.013	39.152	1368.782	1219.161
-37.998	39.136	1366.705	1217.163
-36.984	39.267	1364.802	1216.231
-35.969	39.264	1363.005	1214.559
-34.954	39.346	1361.055	1213.284
-33.940	39.313	1359.927	1212.021
-32.925	39.352	1358.843	1211.253
-31.911	39.447	1356.968	1210.116
-30.896	39.272	1355.704	1207.864
-29.881	39.458	1353.849	1207.305
-28.867	39.491	1352.044	1205.851
-27.852	39.390	1350.917	1204.175
-26.838	39.374	1349.675	1202.926
-25.823	39.295	1347.967	1200.875
-24.809	39.333	1347.016	1200.212
-23.794	39.239	1345.495	1198.237
-22.779	39.427	1343.736	1197.767
-21.765	39.392	1342.822	1196.692
-20.750	39.423	1340.884	1195.102
-19.736	39.245	1339.639	1192.865
-18.721	39.079	1338.949	1191.196
-17.706	39.304	1337.256	1191.009
-16.692	39.222	1336.368	1189.673
-15.677	39.214	1335.108	1188.453
-14.663	39.165	1334.362	1187.450
-13.648	39.232	1333.049	1186.637
-12.633	39.182	1331.930	1185.292
-11.619	39.207	1331.163	1184.711
-10.604	39.211	1329.734	1183.420
-9.590	39.170	1328.719	1182.222
-8.575	39.257	1327.687	1181.778
-7.560	39.079	1327.647	1180.630
-6.546	39.116	1326.610	1179.879
-5.531	39.221	1325.275	1179.278
-4.517	39.187	1324.219	1178.084
-3.502	39.255	1323.326	1177.651
-2.487	39.259	1322.341	1176.751
-1.473	39.377	1318.931	1174.377
-0.458	39.052	1305.209	1160.191
0.556	34.655	1286.578	1124.142
1.571	30.181	1290.329	1100.827
2.586	28.032	1304.293	1099.728
3.600	26.177	1291.737	1077.981
4.615	18.621	1210.848	967.933
5.629	6.709	1125.203	836.580
6.644	0.790	1100.667	787.511
7.659	0.359	1097.618	783.020
8.673	0.158	1096.907	781.401
9.688	0.206	1095.213	780.375
10.702	0.486	1093.454	780.504
11.717	6.291	1102.429	817.045
12.731	15.469	1114.940	874.242
13.746	18.562	1117.206	892.056
14.761	17.219	1115.237	883.430
15.775	16.302	1112.823	876.681
16.790	15.216	1110.546	869.180
17.804	14.469	1108.901	863.945
18.819	14.077	1107.883	861.042
19.834	13.840	1106.701	858.821
20.848	13.596	1105.962	856.914
21.863	13.158	1105.427	854.159
22.877	13.154	1104.440	853.297
23.892	13.022	1104.002	852.202
24.907	13.150	1102.966	851.989
25.921	13.174	1102.070	851.342
26.936	13.221	1101.105	850.765
27.950	13.201	1100.212	849.895
28.965	13.355	1098.766	849.496
29.980	13.357	1097.387	848.367
30.994	13.282	1096.851	847.490
32.009	13.369	1095.693	846.966
33.023	13.413	1094.368	846.093
34.038	13.382	1093.483	845.174
35.053	13.268	1092.477	843.743
36.067	13.313	1091.592	843.214
37.082	13.315	1090.964	842.663
38.096	13.352	1090.144	842.143
39.111	13.395	1089.454	841.756
40.126	13.271	1088.235	840.110
41.140	13.134	1087.169	838.517
42.155	13.107	1085.663	837.141
43.169	13.200	1084.512	836.651
44.184	13.094	1083.940	835.601
45.199	13.027	1083.116	834.551
46.213	13.278	1081.721	834.671
47.228	13.274	1080.202	833.404
48.242	13.162	1079.567	832.276
49.257	13.259	1078.567	831.922
50.271	13.228	1077.722	831.038
51.286	13.301	1077.190	830.924
52.301	13.283	1075.442	829.411
53.315	13.119	1075.219	828.343
54.330	13.128	1073.568	827.043
55.344	13.058	1072.908	826.109
56.359	13.301	1071.777	826.384
57.374	13.134	1071.094	824.949
58.388	13.075	1070.738	824.305
59.403	13.120	1069.091	823.188
60.417	13.015	1068.924	822.465
61.432	13.090	1067.517	821.682
62.447	13.038	1066.679	820.705
63.461	12.975	1066.346	820.063
64.476	13.038	1065.139	819.374
65.490	12.996	1064.113	818.307
66.505	13.039	1063.738	818.161
67.520	13.059	1063.255	817.815
68.534	12.962	1062.276	816.506
69.549	12.997	1061.625	816.107
70.563	13.000	1060.612	815.273
71.578	12.997	1059.806	814.565
72.593	13.028	1058.934	813.978
73.607	13.072	1057.986	813.391
74.622	13.101	1057.594	813.161
75.636	13.015	1056.955	812.176
76.651	13.102	1056.224	811.971
77.666	13.125	1055.439	811.407
78.680	13.092	1054.492	810.447
79.695	13.062	1053.852	809.734
80.709	13.124	1053.438	809.649
81.724	13.121	1052.721	809.012
82.739	13.138	1051.643	808.195
83.753	13.240	1050.820	807.990
84.768	13.300	1050.002	807.584
85.782	13.325	1049.194	807.013
86.797	13.308	1048.570	806.376
87.812	13.131	1047.736	804.805
88.826	13.279	1046.371	804.401
89.841	13.306	1045.344	803.674
90.855	13.295	1044.822	803.145
91.870	13.353	1043.950	802.689
92.884	13.375	1043.131	802.093
93.899	13.295	1042.159	800.887
94.914	13.395	1041.659	800.918
95.928	13.476	1040.259	800.162
96.943	13.308	1039.707	798.852
97.957	13.337	1038.486	797.987
98.972	13.394	1037.562	797.481
99.987	13.313	1037.070	796.640
101.001	13.299	1035.947	795.640
102.016	13.351	1034.782	794.923
103.030	13.288	1034.475	794.314
104.045	13.333	1033.573	793.771
105.060	13.327	1032.875	793.132
106.074	13.215	1031.883	791.766
107.089	13.152	1030.448	790.294
108.103	13.205	1029.610	789.831
109.118	13.255	1028.474	789.132
110.133	13.284	1027.479	788.435
111.147	13.132	1027.023	787.291
112.162	13.162	1026.341	786.841
113.176	13.208	1025.268	786.168
114.191	13.331	1024.638	786.202
115.206	13.241	1023.861	785.110
116.220	13.106	1023.422	784.062
117.235	13.185	1022.038	783.304
118.249	13.283	1020.843	782.783
119.264	13.210	1020.607	782.190
120.279	13.210	1019.553	781.310
121.293	13.200	1018.749	780.578
122.308	13.181	1017.834	779.718
123.322	13.193	1016.912	779.003
124.337	13.213	1015.697	778.095
125.352	13.195	1014.553	777.065
126.366	13.215	1013.451	776.249
127.381	13.245	1012.463	775.560
128.395	13.229	1011.856	774.954
129.410	13.192	1010.977	774.036
130.424	13.204	1009.865	773.174
131.439	13.303	1008.817	772.767
132.454	13.260	1008.210	772.031
133.468	13.377	1007.321	771.829
134.483	13.410	1006.276	771.113
135.497	13.304	1005.592	770.028
136.512	13.283	1005.058	769.453
137.527	13.347	1003.899	768.794
138.541	13.340	1003.199	768.156
139.556	13.345	1002.461	767.548
140.570	13.400	1002.042	767.416
141.585	13.384	1001.064	766.522
142.600	13.482	1000.319	766.341
143.614	13.555	999.441	765.939
144.629	13.496	998.454	764.839
145.643	13.514	997.642	764.233
146.658	13.478	996.151	762.857
147.673	13.428	995.057	761.722
148.687	13.402	994.341	760.986
149.702	13.403	993.441	760.236
150.716	13.276	993.168	759.375
151.731	13.429	991.958	759.084
152.746	13.488	991.496	758.934
153.760	13.511	990.346	758.095
154.775	13.545	990.093	757.986
155.789	13.478	989.512	757.171
156.804	13.452	988.869	756.492
157.819	13.557	988.266	756.443
158.833	13.581	987.255	755.711
159.848	13.505	986.854	754.992
160.862	13.608	985.745	754.546
161.877	13.529	984.888	753.466
162.892	13.493	984.064	752.602
163.906	13.545	982.247	751.382
164.921	13.515	981.978	750.974
165.935	13.459	981.390	750.204
166.950	13.600	979.765	749.536
167.964	13.531	979.625	749.050
168.979	13.614	978.440	748.452
169.994	13.419	977.633	746.888
171.008	13.662	976.779	747.264
172.023	13.627	975.828	746.313
173.037	13.710	975.414	746.304
174.052	13.694	974.720	745.636
175.067	13.519	974.304	744.465
176.081	13.582	973.835	744.324
177.096	13.697	972.748	743.943
178.110	13.605	972.262	743.092
179.125	13.645	971.730	742.801
180.140	13.688	971.089	742.434
181.154	13.725	970.624	742.179
182.169	13.774	970.094	741.929
183.183	13.731	969.385	741.127
184.198	13.789	968.238	740.447
185.213	13.889	967.339	740.136
186.227	13.828	967.062	739.589
187.242	13.758	966.517	738.793
188.256	13.767	966.065	738.422
189.271	13.900	964.516	737.763
190.286	13.774	963.984	736.732
191.300	13.608	963.318	735.423
192.315	13.653	962.892	735.234
193.329	13.712	961.989	734.741
194.344	13.773	961.590	734.640
195.359	13.880	960.719	734.381
196.373	13.934	960.378	734.294
197.388	14.033	959.698	734.149
198.402	14.019	959.717	734.037
199.417	14.074	958.435	733.232
200.432	14.012	957.523	732.199
201.446	13.990	957.794	732.243
202.461	14.136	957.149	732.328
203.475	14.138	956.385	731.685
204.490	14.052	956.015	730.962
205.504	14.148	954.409	730.088
206.519	14.096	953.614	729.189
207.534	14.050	953.250	728.644
208.548	14.074	952.638	728.219
209.563	13.998	952.182	727.471
210.577	14.205	950.895	727.330
211.592	14.380	949.968	727.318
212.607	14.308	949.265	726.401
213.621	14.171	948.982	725.524
214.636	14.181	948.256	724.949
215.650	14.154	947.645	724.298
216.665	14.202	947.095	724.023
217.680	14.407	946.072	724.067
218.694	14.403	945.125	723.260
219.709	14.456	943.947	722.528
220.723	14.320	944.113	721.998
221.738	14.328	943.375	721.407
222.753	14.268	943.028	720.819
223.767	14.461	941.909	720.732
224.782	14.432	941.319	720.092
225.796	14.468	940.759	719.755
226.811	14.590	940.010	719.646
227.826	14.518	938.729	718.293
228.840	14.463	938.540	717.848
229.855	14.497	937.669	717.263
230.869	14.462	937.127	716.634
231.884	14.450	936.193	715.806
232.899	14.340	935.733	714.917
233.913	14.421	934.770	714.468
234.928	14.326	934.078	713.466
235.942	14.429	933.471	713.381
236.957	14.407	933.428	713.190
237.972	14.405	932.318	712.272
238.986	14.480	931.555	711.946
240.001	14.351	930.951	710.869
241.015	14.525	930.409	711.138
242.030	14.449	929.889	710.353
243.045	14.589	929.100	710.283
244.059	14.619	928.622	709.982
245.074	14.685	927.852	709.611
246.088	14.603	927.206	708.705
247.103	14.630	926.461	708.187
248.117	14.608	926.075	707.738
249.132	14.693	925.765	707.798
250.147	14.808	924.646	707.366
251.161	14.639	924.276	706.304
252.176	14.811	923.471	706.357
253.190	14.920	922.658	706.130
254.205	14.951	922.305	705.930
255.220	14.902	921.110	704.745
256.234	14.966	920.615	704.574
257.249	14.892	920.192	703.876
258.263	14.847	919.659	703.218
259.278	14.990	918.334	702.744
260.293	15.050	918.203	702.832
261.307	14.949	917.745	701.997
262.322	15.212	916.585	702.149
263.336	15.073	915.937	701.007
264.351	15.194	914.781	700.566
265.366	15.119	914.304	699.826
266.380	15.069	914.133	699.423
267.395	15.241	913.093	699.283
268.409	15.075	912.377	697.982
269.424	15.099	911.611	697.434
270.439	15.121	910.980	696.982
271.453	15.144	910.271	696.472
272.468	15.040	909.974	695.754
273.482	15.148	909.371	695.676
274.497	15.120	908.611	694.921
275.512	15.242	908.144	695.006
276.526	15.128	907.627	694.078
277.541	15.272	907.130	694.229
278.555	15.244	906.273	693.400
279.570	15.253	905.679	692.920
280.585	15.362	904.684	692.545
281.599	15.201	904.300	691.526
282.614	15.212	903.640	691.005
283.628	15.235	902.716	690.335
284.643	15.211	902.319	689.869
285.657	15.372	901.414	689.779
286.672	15.489	900.844	689.764
287.687	15.374	900.172	688.717
288.701	15.435	899.408	688.322
289.716	15.421	899.316	688.132
290.730	15.475	898.364	687.562
291.745	15.511	897.993	687.366
292.760	15.445	897.287	686.496
293.774	15.459	896.592	685.961
294.789	15.508	895.954	685.612
295.803	15.498	895.143	684.887
296.818	15.300	894.941	683.867
297.833	15.461	893.734	683.537
298.847	15.547	893.428	683.592
299.862	15.488	892.879	682.873
300.876	15.593	892.298	682.794
301.891	15.674	891.492	682.448
302.906	15.590	890.719	681.457
303.920	15.611	890.342	681.192
304.935	15.684	890.050	681.202
305.949	15.716	889.167	680.596
306.964	15.764	888.594	680.293
307.979	15.734	887.712	679.437
308.993	15.730	887.555	679.240
310.008	15.727	886.605	678.438
311.022	15.869	886.060	678.534
312.037	15.652	885.656	677.292
313.052	15.693	884.985	676.884
314.066	15.691	884.493	676.439
315.081	15.616	884.195	675.850
316.095	15.666	883.298	675.306
317.110	15.709	882.898	675.111
318.125	15.744	882.240	674.688
319.139	15.860	881.265	674.348
320.154	15.913	880.813	674.154
321.168	15.628	880.677	672.852
322.183	15.816	879.965	673.000
323.197	15.769	879.485	672.383
324.212	15.954	878.782	672.526
325.227	15.906	878.208	671.835
326.241	15.672	877.934	670.635
327.256	15.854	877.460	670.938
328.270	15.961	876.600	670.646
329.285	15.908	875.652	669.650
330.300	15.882	875.087	669.055
331.314	15.850	874.721	668.590
332.329	15.938	873.984	668.319
333.343	16.033	873.531	668.288
334.358	15.927	873.461	667.757
335.373	15.906	873.064	667.311
336.387	15.986	872.602	667.216
337.402	16.001	872.527	667.159
338.416	16.167	871.813	667.211
339.431	16.190	871.489	666.992
340.446	16.117	871.199	666.424
341.460	16.173	870.907	666.361
342.475	16.210	870.283	665.973
343.489	16.338	869.579	665.878
344.504	16.350	869.072	665.479
345.519	16.319	868.700	665.015
346.533	16.385	868.397	664.984
347.548	16.241	867.971	664.031
348.562	16.158	867.316	663.147
349.577	16.303	866.618	663.122
350.592	16.351	865.755	662.592
351.606	16.436	864.764	662.105
352.621	16.245	864.289	660.939
353.635	16.432	863.414	660.939
354.650	16.277	862.930	659.905
355.665	16.309	862.354	659.532
356.679	16.405	861.796	659.420
357.694	16.451	861.136	659.038
358.708	16.529	860.451	658.759
359.723	16.465	859.895	658.026
360.738	16.318	859.529	657.116
361.752	16.424	858.727	656.855
362.767	16.441	858.086	656.375
363.781	16.467	857.879	656.258
364.796	16.605	857.253	656.255
365.810	16.677	856.655	656.021
366.825	16.652	856.234	655.543
367.840	16.655	855.687	655.077
368.854	16.646	855.417	654.777
369.869	16.676	854.645	654.245
370.883	16.689	854.558	654.172
371.898	16.639	853.909	653.422
372.913	16.653	853.733	653.284
373.927	16.700	853.334	653.103
374.942	16.679	852.665	652.454
375.956	16.846	851.957	652.494
376.971	16.846	851.592	652.157
377.986	16.775	851.296	651.599
379.000	16.872	850.576	651.367
380.015	16.827	849.999	650.691
381.029	16.873	849.546	650.464
382.044	16.861	848.827	649.810
383.059	16.932	848.162	649.517
384.073	16.971	847.328	648.970
385.088	16.903	846.923	648.342
386.102	16.898	846.520	647.958
387.117	16.983	846.128	647.924
388.132	16.973	845.495	647.342
389.146	16.944	844.813	646.654
390.161	16.943	844.648	646.465
391.175	16.986	843.703	645.852
392.190	16.958	843.432	645.478
393.205	16.826	843.310	644.827
394.219	16.966	842.543	644.716
395.234	16.817	842.308	643.913
396.248	17.039	841.479	644.063
397.263	17.024	840.945	643.542
398.278	16.930	840.927	643.114
399.292	16.900	840.411	642.547
400.307	16.926	839.897	642.196
401.321	17.166	839.317	642.604
402.336	17.102	838.932	642.009
403.350	17.007	838.693	641.410
404.365	17.181	837.888	641.397
405.380	17.195	837.572	641.151
406.394	17.085	836.938	640.196
407.409	17.326	836.523	640.730
408.423	17.217	836.223	640.032
409.438	17.267	835.708	639.771
410.453	17.321	835.322	639.619
411.467	17.427	834.705	639.489
412.482	17.271	834.735	638.870
413.496	17.367	834.228	638.786
414.511	17.378	833.870	638.498
415.526	17.568	832.810	638.342
416.540	17.444	832.556	637.625
417.555	17.546	832.059	637.571
418.569	17.454	831.518	636.755
419.584	17.513	831.207	636.681
420.599	17.475	831.053	636.364
421.613	93.959	1273.369	1391.499
422.628	81.066	1337.823	1391.621
