DTS Sentinel unit serial number:	SN413079Multiplexer serial number:	ORYXHardware model number:	OX4-SRSoftware version number:	ORYX F/W v4.00 Oryx Data Collector v3.7.2.0data status	okinstallation	princeton_trtdifferential loss correction	single-endedforward channel	channel 1reverse channel	N/Adate	2019/09/12time	02:20:11forward acquisition time	60.00reverse acquisition time	0.00gamma	496.2192k internal	0.2321k external	0.2321temperature offset calibration	1.0080default loss term (dB/km)	0.3790temperature slope calibration	1.0000multiplexer offset coefficient	1.0000multiplexer slope coefficient	1.0000fibre end	0.00T internal ref (°C)	32.56T ext. ref 1 (°C)	2.09T ext. ref 2 (°C)	26.44length (m)	temperature (°C)	Stokes	anti-Stokes-747.200	800.000	-0.075	0.331
-746.185	8.535	-0.053	0.040
-745.171	-0.761	0.240	0.172
-744.156	-200.000	-0.004	-0.050
-743.142	-99.938	0.221	-0.056
-742.127	-43.556	-0.089	-0.046
-741.112	3.355	0.136	0.100
-740.098	261.194	0.145	0.254
-739.083	-153.635	0.305	0.021
-738.069	-88.898	-0.293	0.088
-737.054	23.881	-0.069	0.058
-736.039	-80.580	-0.256	0.086
-735.025	-200.000	0.038	0.229
-734.010	729.650	-0.042	0.113
-732.996	129.810	-0.143	0.185
-731.981	-47.092	-0.061	0.030
-730.966	-141.564	-0.119	-0.012
-729.952	-200.000	0.001	0.018
-728.937	-140.939	-0.111	0.011
-727.923	-1.443	0.287	-0.204
-726.908	299.975	-0.014	-0.026
-725.894	-51.730	-0.235	0.111
-724.879	214.398	0.101	-0.162
-723.864	-200.000	-0.045	0.274
-722.850	183.747	-0.085	-0.127
-721.835	131.038	-0.170	0.221
-720.821	224.881	0.171	-0.279
-719.806	92.273	0.260	0.296
-718.791	800.000	-0.117	0.339
-717.777	-108.231	-0.061	-0.013
-716.762	48.841	0.186	-0.177
-715.748	261.467	-0.062	-0.108
-714.733	-127.846	-0.093	0.014
-713.718	-200.000	0.040	0.183
-712.704	-54.850	-0.525	0.239
-711.689	-130.836	-0.275	0.037
-710.675	-77.098	0.326	-0.115
-709.660	-135.678	-0.192	0.023
-708.645	327.547	0.059	0.114
-707.631	32.974	0.088	-0.077
-706.616	-177.877	-0.167	0.004
-705.602	800.000	0.074	0.262
-704.587	-94.844	-0.249	-0.068
-703.572	46.138	-0.078	0.073
-702.558	247.884	0.078	0.133
-701.543	-52.966	0.269	-0.125
-700.529	583.237	0.110	-0.273
-699.514	-29.813	0.097	-0.056
-698.499	-36.107	-0.258	0.141
-697.485	-200.000	-0.025	0.194
-696.470	-128.480	0.055	0.008
-695.456	37.620	0.262	-0.235
-694.441	426.345	0.056	-0.123
-693.426	140.324	0.090	0.120
-692.412	800.000	-0.029	-0.107
-691.397	429.466	0.093	-0.203
-690.383	-200.000	0.010	0.284
-689.368	-200.000	0.002	0.124
-688.354	-74.277	-0.283	0.103
-687.339	363.519	0.084	0.170
-686.324	800.000	0.056	-0.217
-685.310	238.233	-0.051	-0.086
-684.295	-98.134	0.306	-0.079
-683.281	557.486	0.197	-0.479
-682.266	-80.191	-0.202	0.068
-681.251	-85.033	0.113	-0.036
-680.237	-90.411	0.230	-0.067
-679.222	-200.000	-0.196	0.001
-678.208	470.114	0.071	-0.161
-677.193	800.000	0.151	-0.481
-676.178	484.216	-0.149	-0.342
-675.164	31.638	0.159	-0.138
-674.149	-68.018	0.448	-0.176
-673.135	7.606	-0.143	-0.108
-672.120	-200.000	0.032	-0.574
-671.105	800.000	-0.098	0.321
-670.091	131.917	0.182	-0.236
-669.076	426.643	0.114	0.249
-668.062	6.132	-0.224	-0.167
-667.047	534.712	-0.030	0.071
-666.032	-115.772	0.410	-0.077
-665.018	-39.449	0.047	0.025
-664.003	180.968	0.086	-0.127
-662.989	258.650	-0.039	-0.068
-661.974	800.000	-0.111	0.354
-660.959	223.074	0.126	0.204
-659.945	-31.473	0.100	-0.057
-658.930	-83.279	0.224	-0.073
-657.916	-113.702	0.240	0.047
-656.901	-200.000	0.017	0.160
-655.886	-200.000	-0.005	-0.145
-654.872	800.000	0.101	-0.288
-653.857	-4.337	-0.185	0.129
-652.843	-43.956	0.279	0.141
-651.828	5.196	-0.183	-0.136
-650.814	-53.950	0.157	-0.072
-649.799	-200.000	-0.033	-0.246
-648.784	-200.000	0.008	0.045
-647.770	-35.281	-0.168	-0.092
-646.755	-200.000	0.091	-0.000
-645.741	-90.521	0.324	0.094
-644.726	800.000	0.036	-0.103
-643.711	107.523	-0.147	-0.176
-642.697	431.694	-0.156	-0.340
-641.682	-114.176	-0.185	0.036
-640.668	361.723	-0.140	0.283
-639.653	256.028	-0.091	-0.158
-638.638	-200.000	-0.044	-0.433
-637.624	-200.000	0.060	0.388
-636.609	69.189	0.048	-0.050
-635.595	62.780	0.110	-0.111
-634.580	-200.000	-0.021	-0.198
-633.565	-200.000	0.132	-0.000
-632.551	315.504	-0.111	-0.211
-631.536	12.366	0.228	0.177
-630.522	-200.000	0.049	-0.227
-629.507	12.222	-0.296	-0.229
-628.492	596.105	0.090	-0.225
-627.478	209.360	0.237	-0.374
-626.463	-66.809	-0.077	0.031
-625.449	542.742	-0.095	-0.227
-624.434	108.654	-0.189	0.227
-623.419	-162.170	-0.154	0.008
-622.405	-106.979	0.373	0.083
-621.390	800.000	0.058	-0.196
-620.376	-175.503	-0.345	0.009
-619.361	800.000	0.072	-0.222
-618.346	-31.411	0.209	-0.118
-617.332	800.000	0.067	0.247
-616.317	-200.000	-0.040	-0.185
-615.303	-44.278	-0.296	-0.149
-614.288	-114.583	0.319	-0.061
-613.273	-57.017	0.096	-0.043
-612.259	33.460	0.531	-0.464
-611.244	-200.000	-0.019	-0.244
-610.230	135.926	-0.112	0.146
-609.215	-119.317	0.239	0.042
-608.201	-128.644	0.309	-0.044
-607.186	-130.263	0.263	-0.036
-606.171	-200.000	-0.055	0.257
-605.157	-92.331	0.102	-0.029
-604.142	-101.536	-0.233	-0.057
-603.128	-184.400	-0.332	-0.005
-602.113	-200.000	-0.026	0.171
-601.098	-19.831	-0.095	-0.059
-600.084	152.699	0.120	-0.165
-599.069	-163.947	0.101	-0.005
-598.055	302.668	0.160	0.298
-597.040	68.135	0.165	-0.170
-596.025	-60.217	-0.135	0.058
-595.011	-90.367	0.240	0.070
-593.996	-30.695	0.134	-0.076
-592.982	90.947	-0.219	-0.246
-591.967	-200.000	-0.046	0.272
-590.952	800.000	0.047	0.134
-589.938	-200.000	0.014	-0.210
-588.923	-80.636	0.218	-0.073
-587.909	160.587	0.106	-0.148
-586.894	-40.088	0.189	-0.099
-585.879	-132.078	-0.189	0.025
-584.865	-200.000	-0.039	0.396
-583.850	733.232	-0.045	0.122
-582.836	304.881	-0.105	-0.197
-581.821	-29.977	0.178	-0.102
-580.806	-56.321	-0.142	-0.063
-579.792	-69.432	-0.229	-0.088
-578.777	-200.000	-0.003	0.195
-577.763	-32.878	0.097	-0.054
-576.748	188.062	-0.145	0.217
-575.733	-133.529	-0.345	0.043
-574.719	-200.000	-0.073	-0.388
-573.704	501.285	0.134	0.311
-572.690	800.000	-0.055	0.180
-571.675	79.249	-0.232	-0.249
-570.661	-200.000	-0.077	-0.358
-569.646	405.365	-0.056	-0.118
-568.631	-183.675	0.279	0.005
-567.617	-133.508	0.206	0.026
-566.602	-46.347	0.070	0.034
-565.588	-118.126	-0.082	-0.015
-564.573	800.000	0.100	-0.323
-563.558	-146.085	-0.231	0.020
-562.544	-16.905	-0.063	-0.040
-561.529	10.564	0.047	0.036
-560.515	256.295	-0.095	0.164
-559.500	-2.138	-0.242	-0.171
-558.485	-5.830	-0.007	-0.005
-557.471	-80.445	-0.254	-0.085
-556.456	-105.376	-0.335	0.077
-555.442	187.066	0.108	0.161
-554.427	88.354	0.057	-0.064
-553.412	800.000	-0.081	0.324
-552.398	-171.132	0.393	-0.013
-551.383	-200.000	0.012	-0.387
-550.369	-72.545	-0.179	0.066
-549.354	354.065	0.055	-0.109
-548.339	132.032	0.259	-0.334
-547.325	-32.663	-0.177	-0.099
-546.310	-3.442	-0.189	0.132
-545.296	-94.783	-0.168	0.046
-544.281	86.680	-0.148	-0.164
-543.266	-200.000	0.007	-0.111
-542.252	183.007	0.018	-0.027
-541.237	129.726	-0.013	0.017
-540.223	-55.568	0.070	-0.032
-539.208	128.285	-0.149	-0.190
-538.193	149.615	0.223	-0.303
-537.179	-32.023	-0.146	-0.082
-536.164	30.712	-0.045	0.039
-535.150	-200.000	-0.058	-0.355
-534.135	-133.391	-0.384	-0.048
-533.121	-11.373	0.151	0.100
-532.106	-53.884	0.157	0.072
-531.091	92.304	0.043	0.048
-530.077	-40.058	0.108	0.056
-529.062	-28.093	0.092	0.053
-528.048	-15.769	-0.078	-0.050
-527.033	337.233	-0.129	-0.251
-526.018	36.416	-0.164	-0.145
-525.004	251.218	-0.054	0.092
-523.989	5.397	0.148	-0.109
-522.975	-89.185	-0.117	0.035
-521.960	51.474	0.200	0.190
-520.945	800.000	0.072	0.284
-519.931	-72.422	0.128	0.047
-518.916	3.731	-0.153	-0.112
-517.902	-94.318	-0.243	0.067
-516.887	572.778	0.106	0.260
-515.872	390.064	0.122	-0.253
-514.858	-200.000	-0.006	-0.142
-513.843	-19.626	-0.156	0.096
-512.829	-157.853	-0.136	0.008
-511.814	-200.000	0.003	-0.130
-510.799	-30.119	-0.200	0.114
-509.785	-200.000	-0.016	0.319
-508.770	-36.655	-0.070	-0.038
-507.756	396.703	-0.121	0.252
-506.741	70.012	0.064	-0.066
-505.726	-22.321	0.095	0.058
-504.712	123.589	0.280	-0.352
-503.697	-40.155	-0.156	-0.082
-502.683	-121.958	0.235	-0.039
-501.668	-145.278	0.122	0.011
-500.653	92.268	0.097	0.109
-499.639	119.261	0.160	0.198
-498.624	38.674	-0.098	-0.088
-497.610	50.208	0.268	0.254
-496.595	-13.313	-0.050	0.033
-495.581	800.000	-0.043	-0.129
-494.566	137.593	-0.097	-0.127
-493.551	27.048	-0.096	0.081
-492.537	-127.417	0.331	-0.048
-491.522	800.000	-0.017	-0.049
-490.508	-66.259	-0.230	0.092
-489.493	69.751	0.266	0.274
-488.478	250.030	0.196	-0.334
-487.464	-147.545	0.071	0.006
-486.449	419.843	0.120	-0.257
-485.435	-9.681	-0.134	0.089
-484.420	-171.490	-0.038	0.001
-483.405	-140.010	-0.262	0.028
-482.391	400.708	0.134	-0.281
-481.376	800.000	-0.040	-0.173
-480.362	89.301	-0.103	-0.115
-479.347	-200.000	0.011	0.091
-478.332	-73.760	-0.285	0.104
-477.318	70.260	0.230	0.237
-476.303	33.034	-0.190	-0.165
-475.289	1.301	-0.230	-0.166
-474.274	-65.718	0.454	0.182
-473.259	175.696	-0.175	-0.254
-472.245	-128.531	-0.372	-0.053
-471.230	-8.379	0.069	0.046
-470.216	158.420	0.061	0.085
-469.201	-7.175	-0.133	0.090
-468.186	-200.000	0.034	-0.168
-467.172	148.688	0.107	0.145
-466.157	800.000	0.059	0.194
-465.143	22.712	0.250	0.205
-464.128	-56.787	-0.349	0.154
-463.113	48.772	0.123	0.115
-462.099	145.892	0.099	0.132
-461.084	-200.000	-0.058	-0.256
-460.070	-57.351	0.228	-0.100
-459.055	-200.000	-0.009	-0.407
-458.040	-127.688	-0.086	0.012
-457.026	-109.779	-0.197	-0.041
-456.011	-144.077	0.205	0.019
-454.997	321.525	-0.035	0.066
-453.982	463.163	0.074	-0.166
-452.968	-16.250	-0.228	0.145
-451.953	195.842	-0.087	-0.132
-450.938	-110.541	-0.410	0.085
-449.924	-64.675	0.217	0.088
-448.909	744.041	0.141	0.380
-447.895	462.844	-0.017	-0.038
-446.880	346.603	-0.059	-0.117
-445.865	-58.175	0.184	-0.080
-444.851	-188.268	0.132	0.002
-443.836	-200.000	-0.040	-0.175
-442.822	-162.480	0.055	0.003
-441.807	-200.000	-0.038	0.379
-440.792	-200.000	0.042	0.345
-439.778	180.692	0.225	0.329
-438.763	653.393	-0.126	0.322
-437.749	800.000	-0.119	-0.357
-436.734	800.000	-0.019	-0.073
-435.719	-75.233	0.194	-0.069
-434.705	-200.000	-0.025	-0.279
-433.690	165.752	0.094	0.132
-432.676	-43.299	-0.235	-0.119
-431.661	9.468	-0.053	-0.040
-430.646	69.215	0.133	-0.136
-429.632	800.000	0.076	-0.273
-428.617	-88.763	-0.164	0.049
-427.603	-64.185	0.174	-0.071
-426.588	65.448	0.166	0.168
-425.573	-200.000	0.002	0.067
-424.559	-116.003	-0.391	-0.073
-423.544	30.938	-0.020	0.017
-422.530	71.010	0.123	0.127
-421.515	-64.451	0.236	-0.096
-420.500	-200.000	0.023	0.271
-419.486	-34.843	0.150	0.082
-418.471	9.869	-0.309	-0.234
-417.457	-200.000	0.038	-0.173
-416.442	731.915	0.087	0.233
-415.428	217.961	0.082	-0.131
-414.413	4.867	0.222	0.163
-413.398	-35.601	0.273	0.148
-412.384	800.000	0.106	-0.387
-411.369	232.345	-0.122	0.200
-410.355	193.402	-0.096	-0.146
-409.340	-34.109	0.051	0.028
-408.325	-1.065	-0.255	0.180
-407.311	-72.173	-0.247	-0.092
-406.296	-200.000	-0.020	0.117
-405.282	34.582	0.239	0.208
-404.267	800.000	-0.083	-0.240
-403.252	61.524	0.107	-0.106
-402.238	43.184	-0.135	-0.123
-401.223	117.193	0.073	0.089
-400.209	109.230	0.184	-0.220
-399.194	-13.512	-0.258	-0.167
-398.179	57.858	-0.117	0.114
-397.165	43.029	-0.381	0.347
-396.150	347.156	-0.062	0.121
-395.136	-130.174	0.335	0.046
-394.121	103.893	0.386	0.453
-393.106	-59.376	-0.202	0.087
-392.092	-200.000	0.038	-0.200
-391.077	-200.000	0.044	-0.286
-390.063	800.000	-0.115	-0.359
-389.048	800.000	-0.057	-0.222
-388.033	172.854	0.069	0.099
-387.019	800.000	0.025	-0.070
-386.004	800.000	-0.031	-0.098
-384.990	512.806	0.035	-0.080
-383.975	235.763	-0.073	-0.120
-382.960	-83.844	0.077	0.024
-381.946	-171.812	-0.192	0.006
-380.931	-142.029	-0.109	0.011
-379.917	202.490	-0.157	0.241
-378.902	63.005	-0.153	0.152
-377.888	62.909	0.082	0.082
-376.873	-200.000	-0.022	0.229
-375.858	-200.000	-0.028	-0.140
-374.844	-200.000	-0.027	0.327
-373.829	-138.026	0.182	-0.020
-372.815	800.000	0.051	-0.161
-371.800	-200.000	-0.003	-0.186
-370.785	-200.000	-0.046	0.270
-369.771	-9.440	-0.060	-0.040
-368.756	250.069	0.132	0.224
-367.742	65.182	-0.131	0.132
-366.727	-106.881	-0.472	0.104
-365.712	338.422	-0.049	0.095
-364.698	-31.717	-0.282	-0.158
-363.683	497.572	0.167	0.383
-362.669	-81.334	0.244	-0.080
-361.654	-19.378	-0.263	-0.162
-360.639	4.173	-0.200	0.146
-359.625	-200.000	-0.002	0.154
-358.610	-66.949	0.200	-0.079
-357.596	423.408	-0.293	-0.626
-356.581	-43.784	-0.394	0.197
-355.566	110.735	-0.191	0.229
-354.552	203.229	-0.065	0.100
-353.537	-86.941	0.160	0.049
-352.523	386.120	-0.132	0.272
-351.508	458.132	-0.066	0.146
-350.493	4.445	-0.114	-0.083
-349.479	-94.811	-0.030	-0.008
-348.464	683.932	-0.077	0.199
-347.450	105.568	-0.141	-0.166
-346.435	-144.838	-0.268	0.024
-345.420	30.124	0.432	-0.367
-344.406	800.000	-0.037	0.137
-343.391	-93.900	-0.384	0.105
-342.377	800.000	0.072	0.259
-341.362	201.967	-0.019	0.029
-340.348	30.989	0.158	0.135
-339.333	-68.279	0.173	-0.067
-338.318	-7.993	-0.289	-0.194
-337.304	174.753	-0.256	0.369
-336.289	53.627	-0.149	0.142
-335.275	-200.000	-0.030	-0.289
-334.260	-79.678	0.309	-0.104
-333.245	14.926	0.117	-0.091
-332.231	592.609	-0.111	-0.272
-331.216	-200.000	0.024	-0.146
-330.202	-68.072	0.129	0.050
-329.187	-41.656	-0.248	-0.127
-328.172	177.628	-0.089	-0.129
-327.158	21.792	0.203	-0.164
-326.143	800.000	-0.141	0.492
-325.129	457.955	-0.086	-0.189
-324.114	310.433	-0.044	0.082
-323.099	-79.276	0.177	0.060
-322.085	-200.000	-0.013	0.073
-321.070	-141.089	0.336	-0.034
-320.056	24.011	0.106	-0.087
-319.041	-27.474	-0.181	0.105
-318.026	-76.400	0.264	0.092
-317.012	-153.738	-0.135	0.009
-315.997	269.660	-0.028	-0.049
-314.983	386.563	0.158	-0.325
-313.968	77.952	0.230	0.244
-312.953	28.533	0.292	0.246
-311.939	260.534	-0.046	0.079
-310.924	69.255	0.391	0.399
-309.910	25.251	0.211	-0.174
-308.895	39.154	0.158	0.141
-307.880	-67.133	0.391	-0.153
-306.866	-156.861	-0.255	-0.016
-305.851	-200.000	-0.049	-0.253
-304.837	91.198	0.289	0.323
-303.822	-24.609	-0.091	0.054
-302.807	-63.486	0.096	0.039
-301.793	-200.000	0.005	-0.066
-300.778	-135.656	-0.092	0.011
-299.764	-200.000	-0.059	-0.270
-298.749	774.366	0.050	-0.137
-297.735	-78.850	0.271	-0.092
-296.720	-81.043	0.174	0.057
-295.705	-64.261	-0.394	0.160
-294.691	800.000	-0.091	0.291
-293.676	-200.000	-0.049	0.244
-292.662	124.440	-0.260	0.325
-291.647	422.177	-0.035	-0.074
-290.632	-200.000	0.003	0.404
-289.618	125.985	-0.198	0.249
-288.603	-200.000	-0.002	0.357
-287.589	418.247	-0.160	0.339
-286.574	800.000	-0.090	0.298
-285.559	-26.196	0.143	-0.084
-284.545	20.580	0.046	-0.037
-283.530	-200.000	0.006	-0.068
-282.516	-200.000	-0.023	-0.202
-281.501	800.000	-0.029	-0.124
-280.486	21.129	0.154	-0.124
-279.472	17.522	-0.275	-0.217
-278.457	56.632	-0.135	0.130
-277.443	-105.100	0.292	-0.066
-276.428	-143.185	-0.208	-0.020
-275.413	800.000	-0.049	0.163
-274.399	66.090	0.178	0.180
-273.384	-200.000	-0.023	-0.172
-272.370	262.233	-0.111	-0.190
-271.355	800.000	0.057	0.196
-270.340	800.000	-0.124	0.365
-269.326	702.845	0.099	-0.258
-268.311	-15.123	0.023	0.015
-267.297	800.000	-0.076	-0.219
-266.282	-126.784	0.215	0.032
-265.267	-174.534	-0.270	-0.008
-264.253	-56.685	-0.056	-0.024
-263.238	800.000	0.037	0.141
-262.224	-72.705	-0.059	0.022
-261.209	-200.000	0.059	0.260
-260.195	-88.384	0.315	0.093
-259.180	-23.323	0.119	-0.071
-258.165	-40.427	0.159	0.082
-257.151	237.019	-0.176	0.290
-256.136	800.000	-0.062	-0.243
-255.122	287.839	-0.171	0.307
-254.107	13.898	0.155	-0.120
-253.092	-200.000	-0.038	-0.293
-252.078	-83.410	-0.286	-0.091
-251.063	-155.169	0.366	0.024
-250.049	21.286	0.122	-0.098
-249.034	-19.153	-0.135	0.083
-248.019	-143.876	0.082	-0.008
-247.005	-127.112	-0.288	0.042
-245.990	-200.000	-0.043	0.198
-244.976	-143.883	0.196	-0.018
-243.961	247.821	-0.120	0.202
-242.946	-89.954	-0.337	-0.098
-241.932	510.276	-0.081	0.186
-240.917	-77.588	-0.605	0.208
-239.903	-158.027	0.506	-0.030
-238.888	-200.000	-0.007	0.452
-237.873	-200.000	0.006	-0.124
-236.859	-62.756	0.248	0.102
-235.844	-200.000	-0.196	-0.001
-234.830	22.733	-0.137	-0.111
-233.815	59.198	0.248	-0.241
-232.800	422.634	-0.110	-0.235
-231.786	161.546	-0.047	-0.065
-230.771	-176.435	0.304	0.008
-229.757	-75.546	0.213	0.075
-228.742	-124.555	-0.116	-0.018
-227.727	-200.000	0.017	-0.148
-226.713	-116.070	0.255	-0.047
-225.698	207.837	-0.082	-0.127
-224.684	-27.365	-0.212	-0.122
-223.669	10.857	0.147	0.111
-222.655	-162.430	-0.222	-0.011
-221.640	-61.740	0.151	-0.063
-220.625	206.194	0.173	0.267
-219.611	-200.000	0.002	0.013
-218.596	-111.151	0.438	-0.089
-217.582	-82.760	0.159	0.051
-216.567	-11.966	-0.101	0.066
-215.552	800.000	0.038	0.162
-214.538	-60.167	-0.172	0.072
-213.523	278.101	-0.112	-0.198
-212.509	-19.221	-0.236	-0.145
-211.494	17.986	0.142	-0.112
-210.479	154.269	-0.192	0.260
-209.465	800.000	-0.065	-0.190
-208.450	-121.606	0.223	0.037
-207.436	-200.000	-0.022	0.166
-206.421	-200.000	-0.028	-0.231
-205.406	-100.412	-0.141	-0.035
-204.392	56.235	-0.036	0.035
-203.377	800.000	0.078	0.247
-202.363	-124.692	0.429	0.066
-201.348	75.670	-0.162	-0.170
-200.333	293.677	-0.071	0.128
-199.319	-111.145	0.346	-0.070
-198.304	605.189	0.047	0.115
-197.290	56.690	0.211	0.203
-196.275	-200.000	0.018	0.428
-195.260	-29.438	0.082	-0.046
-194.246	199.805	-0.182	-0.277
-193.231	123.433	-0.227	-0.281
-192.217	-5.435	-0.090	-0.061
-191.202	-88.596	-0.115	-0.034
-190.187	351.772	0.119	0.232
-189.173	95.913	0.094	-0.106
-188.158	-3.282	0.362	0.250
-187.144	-3.588	0.149	0.103
-186.129	77.544	0.159	0.167
-185.114	100.942	-0.096	-0.110
-184.100	-128.535	-0.237	0.033
-183.085	-200.000	-0.017	-0.171
-182.071	-200.000	-0.003	0.091
-181.056	800.000	0.019	0.075
-180.042	-200.000	-0.018	-0.260
-179.027	125.649	-0.286	0.357
-178.012	180.147	0.169	0.244
-176.998	-69.382	0.123	-0.047
-175.983	-86.275	0.049	-0.015
-174.969	450.019	-0.116	-0.253
-173.954	-137.175	-0.266	0.030
-172.939	-1.021	0.095	-0.067
-171.925	-200.000	0.039	0.259
-170.910	224.550	-0.087	-0.139
-169.896	-200.000	-0.002	-0.264
-168.881	800.000	-0.026	0.107
-167.866	24.265	0.339	0.276
-166.852	366.754	0.129	0.257
-165.837	-200.000	-0.029	-0.172
-164.823	-18.362	-0.103	0.063
-163.808	800.000	0.078	0.272
-162.793	800.000	-0.032	0.108
-161.779	-103.421	0.263	0.061
-160.764	800.000	0.018	0.067
-159.750	-115.761	0.249	-0.046
-158.735	-149.243	-0.113	0.009
-157.720	-30.455	0.187	0.105
-156.706	-42.687	-0.178	0.089
-155.691	800.000	-0.045	-0.168
-154.677	-52.775	0.045	-0.021
-153.662	473.092	-0.145	-0.323
-152.647	-173.273	-0.300	-0.009
-151.633	15.881	0.511	-0.398
-150.618	800.000	0.038	0.160
-149.604	800.000	0.128	-0.358
-148.589	-53.189	0.048	0.022
-147.574	7.747	-0.137	-0.101
-146.560	80.480	-0.312	-0.332
-145.545	178.493	-0.072	0.104
-144.531	593.395	0.101	0.246
-143.516	800.000	0.125	0.350
-142.502	539.616	-0.125	0.292
-141.487	-67.671	0.350	-0.135
-140.472	430.192	-0.093	-0.199
-139.458	109.712	0.051	0.060
-138.443	243.224	-0.092	0.152
-137.429	355.348	-0.136	0.268
-136.414	800.000	0.004	-0.015
-135.399	76.339	-0.120	-0.125
-134.385	-200.000	0.055	0.410
-133.370	-79.503	-0.234	-0.078
-132.356	733.142	0.123	0.325
-131.341	-92.548	0.214	-0.059
-130.326	106.854	0.114	-0.134
-129.312	200.458	0.066	0.100
-128.297	-133.508	-0.343	-0.042
-127.283	148.585	-0.126	0.167
-126.268	-200.000	-0.025	0.268
-125.253	-55.026	-0.049	-0.022
-124.239	-162.340	0.367	0.018
-123.224	800.000	0.056	0.192
-122.210	-200.000	0.033	0.201
-121.195	-13.891	-0.341	0.218
-120.180	-121.689	0.174	-0.028
-119.166	-12.863	-0.037	-0.024
-118.151	-200.000	-0.012	-0.111
-117.137	-200.000	0.011	0.054
-116.122	-200.000	0.004	-0.115
-115.107	-200.000	-0.019	0.089
-114.093	800.000	-0.050	0.212
-113.078	-110.263	0.141	0.029
-112.064	-44.651	-0.354	-0.174
-111.049	-103.235	0.387	0.090
-110.034	460.419	0.113	0.249
-109.020	800.000	-0.109	-0.382
-108.005	185.120	-0.091	0.133
-106.991	-118.183	-0.219	0.039
-105.976	28.230	-0.058	0.048
-104.962	-32.558	-0.088	-0.048
-103.947	75.845	0.107	0.112
-102.932	175.712	0.036	-0.052
-101.918	-25.153	0.270	-0.157
-100.903	-200.000	-0.006	0.158
-99.889	16.546	-0.191	-0.149
-98.874	-125.971	-0.304	0.045
-97.859	800.000	0.026	0.087
-96.845	-93.733	0.174	0.047
-95.830	-42.809	0.153	0.077
-94.816	65.708	0.146	0.145
-93.801	83.899	-0.230	0.247
-92.786	65.675	0.051	-0.051
-91.772	-29.366	-0.055	0.031
-90.757	-73.349	0.266	0.096
-89.743	4.053	0.165	0.119
-88.728	112.388	0.084	-0.100
-87.713	37.013	-0.324	0.282
-86.699	-116.127	0.173	0.032
-85.684	-78.068	0.449	0.152
-84.670	-9.632	0.014	-0.009
-83.655	-173.106	0.264	-0.008
-82.640	94.050	0.051	-0.057
-81.626	371.814	0.068	0.136
-80.611	218.550	0.096	0.151
-79.597	-50.842	-0.080	0.037
-78.582	-199.132	0.211	0.001
-77.567	146.313	-0.131	0.174
-76.553	-76.237	-0.206	0.072
-75.538	-4.470	-0.151	0.103
-74.524	-132.099	0.270	0.035
-73.509	800.000	0.042	0.117
-72.494	179.467	0.172	0.249
-71.480	37.719	-0.135	-0.118
-70.465	-200.000	0.083	0.388
-69.451	-200.000	0.023	0.201
-68.436	118.606	-0.198	0.240
-67.422	-200.000	0.006	0.308
-66.407	-200.000	0.043	0.271
-65.392	-173.443	-0.398	-0.012
-64.378	160.402	0.059	0.081
-63.363	-23.247	0.188	0.111
-62.349	298.290	0.044	-0.080
-61.334	60.968	-1.048	-1.023
-60.319	49.466	0.410	0.379
-59.305	-200.000	-0.052	-0.648
-58.290	136.207	0.644	0.826
-57.276	696.156	0.603	1.557
-56.261	-200.000	95.717	584.443
-55.246	567.022	1368.448	3268.242
-54.232	162.647	2540.263	3507.038
-53.217	113.314	2135.784	2549.631
-52.203	44.176	1601.850	1445.535
-51.188	36.150	1340.222	1161.301
-50.173	33.010	1298.568	1106.799
-49.159	54.703	1345.636	1276.699
-48.144	57.022	1362.508	1306.469
-47.130	36.212	1321.328	1145.111
-46.115	32.832	1303.737	1109.981
-45.100	32.610	1299.100	1104.687
-44.086	32.464	1297.026	1102.028
-43.071	32.441	1294.486	1099.691
-42.057	32.364	1292.247	1097.291
-41.042	32.393	1290.894	1096.269
-40.027	32.516	1288.831	1095.191
-39.013	32.512	1287.255	1093.784
-37.998	32.597	1285.382	1092.643
-36.984	32.615	1283.760	1091.323
-35.969	32.640	1281.719	1089.689
-34.954	32.706	1279.983	1088.556
-33.940	32.545	1279.105	1086.831
-32.925	32.651	1277.565	1086.093
-31.911	32.671	1276.007	1084.838
-30.896	32.600	1274.657	1083.240
-29.881	32.691	1273.367	1082.624
-28.867	32.726	1271.573	1081.256
-27.852	32.681	1270.086	1079.694
-26.838	32.708	1268.739	1078.660
-25.823	32.657	1267.430	1077.214
-24.809	32.584	1266.710	1076.138
-23.794	32.634	1265.053	1074.976
-22.779	32.623	1263.837	1073.837
-21.765	32.581	1262.845	1072.714
-20.750	32.645	1260.962	1071.434
-19.736	32.492	1259.817	1069.546
-18.721	32.509	1258.755	1068.703
-17.706	32.561	1257.808	1068.148
-16.692	32.487	1256.580	1066.648
-15.677	32.549	1255.308	1065.876
-14.663	32.515	1254.141	1064.646
-13.648	32.537	1252.842	1063.626
-12.633	32.452	1252.714	1062.996
-11.619	32.422	1251.309	1061.595
-10.604	32.499	1250.572	1061.359
-9.590	32.474	1249.205	1060.016
-8.575	32.384	1248.712	1059.052
-7.560	32.481	1247.853	1058.824
-6.546	32.474	1246.738	1057.796
-5.531	32.441	1245.755	1056.738
-4.517	32.477	1245.265	1056.482
-3.502	32.487	1244.229	1055.617
-2.487	32.491	1243.018	1054.572
-1.473	32.417	1239.214	1050.885
-0.458	30.922	1223.731	1029.463
0.556	27.889	1205.276	990.943
1.571	24.269	1210.931	975.727
2.586	23.597	1225.959	984.028
3.600	23.117	1214.955	972.470
4.615	17.091	1142.887	883.443
5.629	6.975	1065.577	774.296
6.644	2.351	1045.197	737.173
7.659	2.151	1042.377	734.161
8.673	2.033	1041.215	732.708
9.688	1.816	1039.961	730.723
10.702	2.396	1038.649	732.510
11.717	9.061	1048.006	771.158
12.731	19.171	1062.276	830.592
13.746	24.171	1068.202	859.334
14.761	25.059	1069.608	864.680
15.775	25.081	1069.424	864.559
16.790	24.910	1068.330	862.772
17.804	25.015	1067.847	862.815
18.819	25.073	1067.065	862.386
19.834	25.258	1066.712	862.914
20.848	25.285	1066.493	862.789
21.863	25.165	1065.878	861.637
22.877	25.215	1065.183	861.241
23.892	25.142	1064.547	860.299
24.907	25.295	1063.687	860.260
25.921	25.209	1062.792	859.049
26.936	25.252	1061.087	857.799
27.950	25.215	1059.325	856.123
28.965	24.980	1057.780	853.680
29.980	24.965	1056.740	852.695
30.994	25.307	1055.586	853.311
32.009	25.341	1054.440	852.474
33.023	25.009	1053.582	850.130
34.038	25.081	1052.997	849.923
35.053	25.194	1052.580	850.046
36.067	25.264	1051.215	849.201
37.082	25.354	1050.660	849.102
38.096	25.393	1050.180	848.823
39.111	25.642	1049.110	849.060
40.126	25.364	1047.786	846.601
41.140	24.978	1046.490	843.662
42.155	24.878	1044.946	841.874
43.169	24.875	1043.858	840.910
44.184	24.915	1043.004	840.334
45.199	24.845	1041.698	838.880
46.213	24.927	1040.934	838.572
47.228	24.976	1040.664	838.510
48.242	25.114	1039.628	838.245
49.257	25.060	1038.929	837.359
50.271	25.343	1037.965	837.828
51.286	25.370	1037.319	837.356
52.301	25.294	1036.710	836.436
53.315	25.151	1035.671	834.859
54.330	25.224	1034.354	834.064
55.344	25.235	1033.810	833.604
56.359	25.195	1032.912	832.620
57.374	25.010	1031.831	830.815
58.388	25.027	1031.486	830.543
59.403	24.870	1030.966	829.325
60.417	24.792	1029.985	828.102
61.432	24.865	1029.466	827.949
62.447	25.067	1028.474	828.008
63.461	25.015	1028.049	827.353
64.476	24.895	1026.896	825.797
65.490	24.856	1025.819	824.681
66.505	24.896	1025.465	824.505
67.520	24.904	1025.014	824.106
68.534	24.743	1023.919	822.416
69.549	24.449	1022.142	819.566
70.563	24.495	1021.961	819.556
71.578	24.298	1021.497	818.210
72.593	24.403	1020.055	817.462
73.607	24.493	1019.638	817.468
74.622	24.771	1019.069	818.213
75.636	24.841	1018.678	818.144
76.651	24.605	1017.681	816.196
77.666	24.572	1016.578	815.087
78.680	24.703	1015.972	815.125
79.695	24.673	1015.705	814.701
80.709	24.874	1014.929	814.924
81.724	24.748	1014.273	813.752
82.739	24.980	1013.493	814.109
83.753	25.238	1012.971	814.791
84.768	25.393	1012.406	814.967
85.782	25.597	1010.784	814.510
86.797	25.470	1010.186	813.384
87.812	25.371	1009.111	812.000
88.826	25.371	1008.614	811.526
89.841	25.543	1007.515	811.346
90.855	25.484	1006.914	810.527
91.870	25.562	1005.288	809.494
92.884	25.319	1004.372	807.594
93.899	25.306	1003.466	806.734
94.914	25.533	1002.976	807.290
95.928	25.370	1001.165	805.031
96.943	25.037	1000.322	802.791
97.957	24.874	999.252	801.130
98.972	24.755	997.888	799.432
99.987	25.057	997.673	800.540
101.001	25.205	997.106	800.672
102.016	25.240	995.950	799.831
103.030	25.085	995.252	798.510
104.045	24.998	994.170	797.183
105.060	24.876	993.362	795.924
106.074	25.004	992.673	795.869
107.089	25.277	992.321	796.729
108.103	25.134	990.906	794.890
109.118	24.843	989.717	792.577
110.133	25.048	988.761	792.647
111.147	24.846	987.344	790.548
112.162	24.649	986.521	788.950
113.176	24.885	986.234	789.693
114.191	24.702	985.664	788.359
115.206	24.460	983.946	785.852
116.220	24.483	983.410	785.455
117.235	24.577	982.795	785.306
118.249	24.529	981.958	784.358
119.264	24.489	980.686	783.094
120.279	24.655	979.907	783.134
121.293	24.652	979.540	782.755
122.308	24.735	978.515	782.234
123.322	24.641	977.297	780.778
124.337	24.528	976.216	779.354
125.352	24.082	974.015	775.584
126.366	23.920	973.715	774.571
127.381	24.781	973.731	778.263
128.395	25.161	973.365	779.553
129.410	25.206	972.508	778.996
130.424	25.156	971.530	777.925
131.439	25.102	970.613	776.888
132.454	24.999	970.010	775.890
133.468	25.172	968.520	775.376
134.483	25.247	968.093	775.291
135.497	25.410	967.689	775.605
136.512	25.313	966.728	774.347
137.527	25.484	965.615	774.124
138.541	25.373	965.138	773.195
139.556	25.443	963.966	772.486
140.570	25.624	963.614	772.915
141.585	25.572	962.305	771.572
142.600	25.369	961.433	769.935
143.614	25.633	960.649	770.370
144.629	25.722	960.124	770.262
145.643	25.569	958.716	768.410
146.658	25.447	957.373	766.745
147.673	25.433	956.388	765.831
148.687	25.240	955.618	764.324
149.702	25.142	954.893	763.256
150.716	25.209	953.764	762.575
151.731	25.350	953.158	762.619
152.746	25.523	952.926	763.102
153.760	25.388	952.618	762.215
154.775	25.664	951.419	762.356
155.789	25.532	950.902	761.316
156.804	25.574	949.372	760.201
157.819	25.647	949.069	760.202
158.833	25.714	948.528	759.981
159.848	25.762	947.309	759.140
160.862	25.541	945.874	756.993
161.877	25.430	945.046	755.796
162.892	25.659	944.157	755.980
163.906	25.660	942.539	754.622
164.921	25.510	942.275	753.715
165.935	25.657	941.494	753.640
166.950	25.621	940.372	752.524
167.964	25.587	939.895	751.932
168.979	25.426	938.311	749.931
169.994	25.389	937.357	748.946
171.008	25.597	937.357	749.746
172.023	25.636	936.377	749.059
173.037	25.384	935.348	747.121
174.052	25.220	934.122	745.393
175.067	25.370	933.449	745.416
176.081	25.408	933.295	745.383
177.096	25.330	932.495	744.356
178.110	25.098	931.685	742.679
179.125	24.932	931.006	741.386
180.140	24.964	930.733	741.236
181.154	25.021	930.615	741.314
182.169	25.377	930.621	742.724
183.183	25.434	930.035	742.427
184.198	25.493	928.574	741.440
185.213	25.406	928.391	740.865
186.227	25.626	927.701	741.156
187.242	25.529	926.828	739.994
188.256	25.623	926.306	739.899
189.271	25.716	925.522	739.590
190.286	25.417	924.579	737.544
191.300	24.778	922.709	733.366
192.315	23.988	921.565	729.159
193.329	23.848	921.171	728.207
194.344	24.947	921.252	732.709
195.359	25.407	921.144	734.437
196.373	25.565	920.555	734.549
197.388	25.417	920.160	733.564
198.402	25.362	919.913	733.079
199.417	25.578	918.841	733.038
200.432	25.117	917.870	730.323
201.446	25.166	917.150	729.884
202.461	25.234	916.304	729.421
203.475	24.247	914.452	723.878
204.490	23.479	913.621	720.040
205.504	24.324	914.058	723.749
206.519	25.049	913.855	726.466
207.534	25.183	913.020	726.278
208.548	25.449	913.495	727.672
209.563	25.184	912.341	725.617
210.577	25.256	911.520	725.190
211.592	25.609	911.177	726.276
212.607	25.659	910.227	725.657
213.621	25.589	910.250	725.330
214.636	25.785	909.126	725.158
215.650	25.526	908.436	723.504
216.665	25.662	907.979	723.623
217.680	25.669	906.973	722.784
218.694	25.153	905.907	719.801
219.709	25.206	905.197	719.386
220.723	25.259	905.242	719.569
221.738	25.643	904.344	720.329
222.753	25.516	903.455	719.049
223.767	25.719	903.112	719.524
224.782	25.841	902.940	719.813
225.796	25.568	902.819	718.561
226.811	25.100	900.853	715.065
227.826	24.463	899.698	711.547
228.840	24.585	899.345	711.692
229.855	24.720	898.433	711.444
230.869	24.363	897.722	709.400
231.884	24.614	898.050	710.592
232.899	25.371	898.107	713.583
233.913	25.393	897.036	712.758
234.928	25.432	896.416	712.355
235.942	25.334	896.060	711.624
236.957	25.030	894.745	709.312
237.972	24.994	894.426	708.852
238.986	25.095	894.022	708.869
240.001	25.085	893.315	708.209
241.015	25.317	892.641	708.528
242.030	25.335	892.153	708.148
243.045	25.450	892.093	708.491
244.059	25.524	891.445	708.204
245.074	25.330	890.704	706.788
246.088	25.029	889.541	704.621
247.103	25.347	889.292	705.613
248.117	25.918	889.484	707.943
249.132	26.212	888.781	708.476
250.147	26.291	888.210	708.267
251.161	26.413	887.884	708.423
252.176	26.273	887.048	707.147
253.190	26.419	886.878	707.520
254.205	26.583	886.420	707.732
255.220	26.624	885.821	707.351
256.234	26.343	885.179	705.681
257.249	26.165	884.152	704.105
258.263	26.302	883.855	704.338
259.278	26.552	882.670	704.306
260.293	26.397	882.313	703.354
261.307	26.359	881.571	702.552
262.322	26.196	881.049	701.443
263.336	25.419	878.934	696.685
264.351	24.370	877.111	691.118
265.366	24.539	877.052	691.663
266.380	25.589	877.473	695.999
267.395	26.116	877.121	697.698
268.409	25.952	876.705	696.673
269.424	26.242	875.969	697.142
270.439	26.144	875.311	696.181
271.453	26.213	875.044	696.171
272.468	26.452	874.770	696.812
273.482	26.466	874.002	696.193
274.497	25.996	872.847	693.408
275.512	25.803	871.789	691.761
276.526	26.220	872.305	693.712
277.541	26.282	871.515	693.262
278.555	26.143	870.774	692.076
279.570	25.904	869.769	690.302
280.585	26.107	869.503	690.808
281.599	25.999	868.384	689.445
282.614	25.450	867.661	686.710
283.628	25.422	867.285	686.247
284.643	25.890	866.821	687.604
285.657	25.413	865.768	684.889
286.672	25.084	864.733	682.758
287.687	25.693	864.967	685.201
288.701	25.666	864.278	684.493
289.716	25.508	863.417	683.151
290.730	25.406	863.002	682.375
291.745	25.094	862.042	680.369
292.760	25.498	861.292	681.248
293.774	26.499	862.285	685.770
294.789	26.836	861.611	686.448
295.803	26.841	861.497	686.316
296.818	26.777	860.989	685.610
297.833	26.424	859.293	682.866
298.847	26.160	858.890	681.488
299.862	26.503	858.832	682.676
300.876	26.839	858.606	683.703
301.891	26.648	857.540	682.075
302.906	26.145	856.955	679.656
303.920	26.325	856.622	680.007
304.935	26.756	856.365	681.367
305.949	26.786	855.336	680.598
306.964	26.498	854.641	678.906
307.979	26.533	854.590	678.937
308.993	26.932	854.304	680.143
310.008	26.824	853.606	679.125
311.022	26.596	852.693	677.487
312.037	26.416	852.216	676.373
313.052	26.121	851.387	674.552
314.066	25.234	849.903	670.008
315.081	25.082	849.037	668.699
316.095	25.895	849.625	672.134
317.110	26.416	848.968	673.496
318.125	25.598	847.629	669.332
319.139	24.591	845.934	664.192
320.154	24.578	845.658	663.868
321.168	25.435	846.526	667.678
322.183	26.073	846.467	669.941
323.197	26.340	846.046	670.539
324.212	26.601	845.581	671.080
325.227	26.577	845.111	670.560
326.241	26.317	844.481	669.036
327.256	26.185	843.982	668.094
328.270	26.194	843.124	667.388
329.285	25.951	842.502	665.940
330.300	25.715	841.645	664.333
331.314	26.068	841.086	665.135
332.329	26.440	841.292	666.608
333.343	26.655	841.020	667.129
334.358	26.608	840.394	666.399
335.373	26.576	840.354	666.189
336.387	26.934	840.165	667.297
337.402	27.078	839.509	667.246
338.416	27.045	839.059	666.708
339.431	27.253	839.031	667.390
340.446	27.153	839.044	666.976
341.460	27.033	838.487	666.033
342.475	26.974	837.668	665.109
343.489	27.029	837.874	665.413
344.504	27.230	837.207	665.560
345.519	27.466	836.594	665.879
346.533	27.342	836.357	665.177
347.548	27.504	835.765	665.238
348.562	27.513	834.842	664.478
349.577	27.345	834.483	663.521
350.592	27.435	833.461	662.980
351.606	27.358	832.945	662.231
352.621	27.281	832.407	661.464
353.635	26.967	831.635	659.651
354.650	26.517	829.913	656.592
355.665	25.620	828.560	652.214
356.679	26.043	828.220	653.422
357.694	26.346	827.763	654.099
358.708	26.203	827.337	653.188
359.723	26.784	827.150	655.084
360.738	27.150	826.581	655.895
361.752	27.148	826.554	655.809
362.767	27.462	826.507	656.847
363.781	27.626	826.215	657.147
364.796	27.585	825.947	656.726
365.810	27.738	825.017	656.482
366.825	27.875	824.492	656.498
367.840	27.659	823.494	654.868
368.854	26.927	823.293	652.024
369.869	27.000	822.738	651.787
370.883	27.128	822.045	651.640
371.898	27.103	821.625	651.159
372.913	27.146	821.059	650.805
373.927	27.264	820.846	651.004
374.942	27.378	820.373	650.977
375.956	27.447	820.098	650.949
376.971	27.604	819.912	651.306
377.986	27.711	819.504	651.305
379.000	27.659	819.055	650.704
380.015	27.535	818.059	649.414
381.029	27.613	817.639	649.303
382.044	27.683	817.443	649.336
383.059	27.754	816.502	648.783
384.073	27.819	815.933	648.506
385.088	27.691	815.785	647.878
386.102	27.499	814.797	646.352
387.117	27.546	813.893	645.747
388.132	27.105	813.059	643.464
389.146	26.522	812.354	640.786
390.161	26.991	812.046	642.147
391.175	27.563	811.809	643.924
392.190	27.233	810.771	641.881
393.205	25.629	809.042	634.799
394.219	24.206	807.028	628.153
395.234	24.234	806.884	628.083
396.248	25.710	808.344	634.368
397.263	27.200	809.444	640.430
398.278	27.203	808.901	639.955
399.292	26.932	808.133	638.336
400.307	26.891	807.779	637.855
401.321	26.993	807.701	638.098
402.336	27.512	807.169	639.441
403.350	28.133	806.622	641.128
404.365	28.204	806.838	641.493
405.380	28.422	806.680	642.076
406.394	28.482	806.021	641.704
407.409	28.451	805.465	641.097
408.423	28.318	805.451	640.562
409.438	28.331	805.175	640.333
410.453	28.262	804.610	639.583
411.467	28.457	803.683	639.473
412.482	28.444	803.579	639.286
413.496	28.551	803.069	639.196
414.511	28.455	802.743	638.546
415.526	28.405	802.395	638.040
416.540	28.306	801.423	636.865
417.555	28.027	800.640	635.219
418.569	28.225	800.550	635.780
419.584	28.058	799.964	634.676
420.599	28.133	798.957	634.083
421.613	111.854	1285.163	1459.100
422.628	96.511	1356.000	1459.204
