DTS Sentinel unit serial number:	SN413079Multiplexer serial number:	ORYXHardware model number:	OX4-SRSoftware version number:	ORYX F/W v4.00 Oryx Data Collector v3.7.2.0data status	okinstallation	princeton_trtdifferential loss correction	single-endedforward channel	channel 1reverse channel	N/Adate	2019/09/13time	20:30:35forward acquisition time	60.00reverse acquisition time	0.00gamma	496.2192k internal	0.2331k external	0.2331temperature offset calibration	1.0094default loss term (dB/km)	0.3790temperature slope calibration	1.0000multiplexer offset coefficient	1.0000multiplexer slope coefficient	1.0000fibre end	0.00T internal ref (°C)	29.12T ext. ref 1 (°C)	3.36T ext. ref 2 (°C)	23.55length (m)	temperature (°C)	Stokes	anti-Stokes-747.200	-200.000	0.030	0.182
-746.185	-65.793	-0.372	0.150
-745.171	-48.430	0.106	0.052
-744.156	161.710	-0.047	-0.066
-743.142	800.000	-0.065	-0.212
-742.127	-200.000	0.049	0.303
-741.112	143.767	-0.071	-0.095
-740.098	-129.843	0.074	0.010
-739.083	-166.245	0.153	-0.007
-738.069	-200.000	-0.021	0.204
-737.054	242.312	0.117	0.196
-736.039	332.230	-0.085	-0.165
-735.025	282.819	-0.101	0.183
-734.010	794.242	0.029	-0.080
-732.996	84.764	-0.274	-0.302
-731.981	-40.706	0.153	-0.080
-730.966	-132.994	-0.123	0.016
-729.952	-135.683	-0.631	-0.075
-728.937	-155.919	-0.168	0.011
-727.923	647.295	0.109	-0.281
-726.908	-55.216	0.211	-0.095
-725.894	800.000	-0.077	-0.256
-724.879	-28.553	-0.124	0.072
-723.864	-15.795	0.113	-0.073
-722.850	-168.881	0.113	-0.004
-721.835	-200.000	-0.025	-0.170
-720.821	-57.564	0.209	0.092
-719.806	37.361	0.226	0.202
-718.791	-200.000	0.007	-0.331
-717.777	3.356	-0.171	0.125
-716.762	200.138	-0.140	-0.217
-715.748	-176.709	0.395	-0.010
-714.733	195.308	0.124	0.189
-713.718	-50.559	-0.100	-0.048
-712.704	-200.000	-0.076	-0.599
-711.689	104.120	0.098	-0.115
-710.675	-51.535	-0.136	0.064
-709.660	-192.736	0.206	0.002
-708.645	148.374	0.202	-0.274
-707.631	-200.000	-0.092	-0.430
-706.616	-39.144	0.024	0.013
-705.602	117.212	-0.111	0.137
-704.587	-200.000	0.038	0.268
-703.572	800.000	0.083	-0.326
-702.558	-83.104	-0.196	0.063
-701.543	162.759	-0.070	0.099
-700.529	195.650	-0.191	-0.292
-699.514	8.690	0.397	0.300
-698.499	145.393	0.101	-0.136
-697.485	-33.885	0.203	0.112
-696.470	-200.000	0.010	0.177
-695.456	-200.000	0.004	-0.018
-694.441	23.366	-0.205	-0.169
-693.426	-200.000	0.009	-0.087
-692.412	-159.725	-0.068	0.004
-691.397	800.000	-0.052	-0.161
-690.383	6.699	-0.281	0.210
-689.368	800.000	0.102	0.334
-688.354	64.404	-0.101	-0.102
-687.339	-156.673	-0.170	-0.011
-686.324	137.736	0.130	0.171
-685.310	-139.393	-0.182	-0.020
-684.295	-200.000	0.045	-0.267
-683.281	0.228	0.093	0.067
-682.266	-29.687	-0.279	-0.160
-681.251	228.745	0.094	-0.154
-680.237	-131.083	-0.116	0.015
-679.222	398.097	-0.146	-0.307
-678.208	-76.021	-0.105	0.037
-677.193	800.000	-0.040	0.142
-676.178	-81.590	-0.204	-0.067
-675.164	51.126	-0.023	-0.022
-674.149	-55.151	0.228	0.103
-673.135	-108.483	0.243	0.053
-672.120	-25.527	-0.259	0.154
-671.105	-42.832	0.172	0.088
-670.091	0.243	-0.199	-0.143
-669.076	-64.970	-0.199	-0.081
-668.062	-118.693	-0.188	0.033
-667.047	-69.654	0.089	-0.034
-666.032	-69.153	0.040	0.015
-665.018	-76.678	-0.139	0.049
-664.003	800.000	-0.133	-0.447
-662.989	800.000	0.087	0.291
-661.974	206.834	-0.206	0.322
-660.959	-42.687	-0.453	0.231
-659.945	-11.607	0.095	-0.062
-658.930	-134.769	-0.243	-0.030
-657.916	-200.000	-0.005	0.101
-656.901	88.011	-0.202	0.225
-655.886	160.501	-0.110	-0.154
-654.872	-53.866	-0.249	-0.114
-653.857	122.492	-0.024	-0.030
-652.843	-109.690	0.194	-0.041
-651.828	28.673	-0.211	0.179
-650.814	-115.972	0.200	0.037
-649.799	155.737	0.052	-0.071
-648.784	-200.000	-0.009	0.070
-647.770	-200.000	-0.060	-0.463
-646.755	-46.944	-0.141	0.069
-645.741	-75.003	0.173	-0.062
-644.726	-124.948	-0.178	0.027
-643.711	-18.907	-0.177	0.110
-642.697	-112.386	-0.401	-0.080
-641.682	727.435	0.077	-0.205
-640.668	58.036	-0.137	0.135
-639.653	-28.694	-0.148	-0.086
-638.638	-85.320	-0.360	-0.113
-637.624	-12.752	0.191	0.125
-636.609	-87.505	-0.223	0.068
-635.595	-3.034	-0.071	-0.049
-634.580	11.120	0.219	-0.168
-633.565	5.597	0.085	0.063
-632.551	177.373	-0.131	-0.191
-631.536	-20.382	0.185	-0.114
-630.522	139.415	0.099	-0.131
-629.507	328.952	0.059	0.113
-628.492	-29.916	-0.279	-0.159
-627.478	10.541	0.340	-0.260
-626.463	-33.673	0.165	0.091
-625.449	-34.724	-0.214	0.117
-624.434	33.103	0.162	0.141
-623.419	618.934	-0.003	0.008
-622.405	20.161	-0.166	0.134
-621.390	-112.831	0.165	0.033
-620.376	800.000	-0.076	0.252
-619.361	-60.820	-0.317	-0.134
-618.346	212.358	0.081	-0.127
-617.332	319.923	0.018	-0.033
-616.317	263.425	0.063	-0.109
-615.303	-30.587	-0.297	-0.169
-614.288	-92.616	-0.339	0.095
-613.273	83.600	0.091	-0.100
-612.259	-60.660	0.188	-0.080
-611.244	4.945	0.080	-0.059
-610.230	-4.251	-0.074	-0.051
-609.215	-107.974	0.118	0.026
-608.201	800.000	0.046	-0.138
-607.186	-200.000	0.070	0.354
-606.171	-104.199	0.154	0.036
-605.157	-200.000	-0.018	-0.408
-604.142	-39.578	-0.117	0.061
-603.128	800.000	0.100	0.289
-602.113	176.008	-0.192	-0.278
-601.098	-200.000	0.014	-0.066
-600.084	194.674	-0.088	0.134
-599.069	800.000	0.052	0.159
-598.055	800.000	0.042	0.130
-597.040	-200.000	0.034	-0.278
-596.025	-9.092	-0.126	-0.084
-595.011	755.489	-0.057	-0.155
-593.996	680.548	-0.021	0.056
-592.982	-112.108	-0.149	0.030
-591.967	382.294	0.129	0.265
-590.952	42.852	-0.073	0.067
-589.938	134.389	-0.164	0.213
-588.923	128.269	-0.208	-0.265
-587.909	422.921	0.265	-0.570
-586.894	196.262	0.080	-0.122
-585.879	141.791	-0.107	-0.142
-584.865	-99.818	0.236	-0.059
-583.850	-200.000	-0.038	-0.219
-582.836	-177.464	-0.207	0.005
-581.821	-200.000	0.038	-0.190
-580.806	-104.597	0.140	0.032
-579.792	194.258	0.180	0.273
-578.777	-133.394	-0.156	-0.020
-577.763	-106.405	-0.180	0.040
-576.748	106.171	0.070	-0.083
-575.733	121.373	-0.075	-0.094
-574.719	17.722	0.136	-0.108
-573.704	-200.000	0.050	-0.283
-572.690	5.593	0.199	0.147
-571.675	-45.204	0.204	-0.101
-570.661	-200.000	-0.015	0.327
-569.646	-38.666	0.241	0.127
-568.631	-143.017	-0.297	0.029
-567.617	673.374	-0.041	0.107
-566.602	-120.762	0.353	0.060
-565.588	196.195	-0.134	0.203
-564.573	-105.487	0.462	-0.105
-563.558	-59.135	-0.326	-0.140
-562.544	-8.320	-0.231	-0.155
-561.529	125.277	-0.301	-0.380
-560.515	111.101	0.116	0.139
-559.500	-24.062	-0.173	0.103
-558.485	395.440	0.094	0.197
-557.471	-107.374	0.111	-0.024
-556.456	-200.000	-0.018	0.190
-555.442	-181.415	0.294	0.006
-554.427	-116.660	-0.187	-0.034
-553.412	-17.869	0.009	-0.006
-552.398	-101.898	-0.085	-0.020
-551.383	-200.000	-0.052	-0.330
-550.369	-97.331	0.315	0.082
-549.354	17.308	-0.168	-0.133
-548.339	57.509	0.064	-0.063
-547.325	-105.298	-0.090	0.021
-546.310	112.320	-0.069	-0.084
-545.296	55.814	0.193	-0.187
-544.281	-181.244	0.099	0.002
-543.266	234.317	0.156	-0.256
-542.252	-159.589	-0.287	0.016
-541.237	-175.274	-0.220	0.006
-540.223	3.004	0.048	-0.035
-539.208	39.735	0.087	-0.078
-538.193	128.044	-0.143	0.181
-537.179	302.222	0.031	0.057
-536.164	66.150	-0.193	0.195
-535.150	-17.503	-0.112	-0.070
-534.135	62.835	0.137	0.137
-533.121	-136.688	-0.395	0.046
-532.106	-7.176	-0.086	0.058
-531.091	-200.000	-0.020	0.558
-530.077	-200.000	0.026	0.168
-529.062	148.699	0.113	0.153
-528.048	-128.363	0.253	0.036
-527.033	4.546	0.043	-0.031
-526.018	35.533	-0.180	-0.158
-525.004	302.881	0.137	-0.253
-523.989	-200.000	-0.007	0.255
-522.975	-39.722	0.044	-0.023
-521.960	-200.000	-0.027	0.186
-520.945	135.244	0.196	-0.254
-519.931	-200.000	-0.019	-0.141
-518.916	287.259	-0.094	-0.170
-517.902	483.497	-0.108	0.245
-516.887	-99.526	0.375	-0.094
-515.872	609.296	0.131	-0.326
-514.858	61.795	-0.065	0.064
-513.843	800.000	0.075	0.256
-512.829	54.814	-0.166	0.160
-511.814	800.000	0.064	0.240
-510.799	-150.194	-0.194	0.015
-509.785	-65.882	-0.261	0.104
-508.770	-200.000	-0.065	-0.415
-507.756	-200.000	0.003	0.085
-506.741	451.335	0.074	0.163
-505.726	166.714	-0.211	-0.299
-504.712	-85.950	-0.203	-0.063
-503.697	-47.351	0.129	-0.063
-502.683	800.000	-0.070	0.207
-501.668	800.000	0.081	-0.342
-500.653	-63.037	-0.297	-0.122
-499.639	159.151	0.165	-0.229
-498.624	-26.550	-0.170	0.100
-497.610	800.000	-0.018	0.068
-496.595	-70.201	-0.104	-0.039
-495.581	121.088	-0.145	0.180
-494.566	202.384	0.147	-0.227
-493.551	-130.383	-0.124	0.017
-492.537	85.090	-0.130	-0.142
-491.522	-59.702	-0.244	-0.104
-490.508	56.562	0.274	-0.265
-489.493	29.365	-0.041	-0.034
-488.478	27.138	0.229	0.191
-487.464	-200.000	0.052	0.415
-486.449	40.389	-0.164	0.147
-485.435	-9.879	-0.228	0.151
-484.420	24.270	-0.149	0.123
-483.405	-158.868	-0.238	0.014
-482.391	800.000	0.093	0.299
-481.376	81.154	-0.055	-0.059
-480.362	90.905	0.066	0.074
-479.347	-200.000	-0.021	0.200
-478.332	318.137	-0.186	-0.350
-477.318	-120.266	0.060	0.010
-476.303	-200.000	0.008	0.067
-475.289	-200.000	-0.010	0.349
-474.274	-23.838	-0.113	0.068
-473.259	800.000	0.079	-0.222
-472.245	63.623	0.242	-0.242
-471.230	496.940	-0.023	0.052
-470.216	76.428	0.128	-0.136
-469.201	-38.719	0.214	-0.112
-468.186	-200.000	0.025	0.189
-467.172	74.299	-0.144	0.150
-466.157	-86.442	0.203	-0.062
-465.143	133.873	-0.112	0.145
-464.128	-41.336	0.166	-0.085
-463.113	-200.000	0.000	-0.125
-462.099	-120.008	0.288	-0.049
-461.084	-92.527	-0.093	-0.026
-460.070	116.217	0.217	0.264
-459.055	-159.863	0.191	0.010
-458.040	-200.000	-0.035	-0.317
-457.026	-200.000	0.012	-0.084
-456.011	-75.268	-0.180	0.064
-454.997	-27.510	0.225	0.130
-453.982	626.190	-0.056	0.140
-452.968	215.547	0.045	0.072
-451.953	339.073	-0.132	0.255
-450.938	-1.419	-0.250	-0.175
-449.924	-110.109	0.157	0.033
-448.909	-113.894	0.277	0.053
-447.895	53.502	-0.399	0.381
-446.880	345.527	-0.044	0.085
-445.865	-34.577	0.102	0.055
-444.851	-68.915	0.110	-0.042
-443.836	30.761	0.162	-0.138
-442.822	36.172	0.237	0.207
-441.807	26.532	-0.183	0.152
-440.792	18.896	-0.134	-0.107
-439.778	159.914	-0.096	0.133
-438.763	-200.000	0.020	-0.269
-437.749	-87.634	-0.123	0.037
-436.734	-200.000	0.033	-0.282
-435.719	-200.000	-0.032	0.163
-434.705	-98.015	-0.077	0.020
-433.690	196.246	0.065	-0.099
-432.676	23.235	0.048	0.039
-431.661	192.119	-0.044	0.066
-430.646	-131.748	-0.190	0.025
-429.632	-200.000	-0.012	-0.209
-428.617	800.000	0.039	0.120
-427.603	-145.689	-0.407	-0.036
-426.588	-117.280	0.285	-0.051
-425.573	-200.000	0.011	-0.369
-424.559	-200.000	0.007	-0.065
-423.544	-105.356	0.198	0.045
-422.530	25.973	-0.217	-0.180
-421.515	800.000	0.062	0.207
-420.500	-60.828	-0.156	-0.065
-419.486	-117.491	0.247	-0.044
-418.471	268.694	0.023	-0.041
-417.457	800.000	-0.019	0.068
-416.442	30.453	0.120	0.102
-415.428	577.190	-0.017	0.042
-414.413	-182.315	0.347	0.006
-413.398	102.516	-0.135	-0.157
-412.384	-75.458	-0.260	-0.092
-411.369	500.696	-0.046	0.105
-410.355	-200.000	-0.007	-0.286
-409.340	-13.023	0.111	-0.072
-408.325	319.096	-0.091	-0.172
-407.311	-130.879	-0.019	-0.003
-406.296	-200.000	0.010	0.054
-405.282	97.084	0.088	-0.101
-404.267	-200.000	0.006	0.067
-403.252	509.099	-0.067	0.155
-402.238	-27.776	-0.179	0.103
-401.223	146.630	0.096	-0.128
-400.209	-70.960	0.110	-0.041
-399.194	-49.144	-0.154	0.073
-398.179	424.066	-0.153	0.327
-397.165	8.423	-0.161	0.120
-396.150	-200.000	0.011	0.121
-395.136	-92.921	0.346	0.096
-394.121	11.300	0.275	-0.209
-393.106	17.083	-0.112	-0.089
-392.092	-80.339	-0.104	-0.034
-391.077	-200.000	-0.013	0.287
-390.063	-118.375	-0.096	-0.017
-389.048	-200.000	-0.019	0.124
-388.033	735.482	-0.076	0.203
-387.019	-200.000	0.023	-0.221
-386.004	800.000	-0.003	0.008
-384.990	-70.394	0.201	0.076
-383.975	800.000	0.111	0.421
-382.960	67.443	-0.196	0.199
-381.946	67.441	0.057	0.057
-380.931	352.668	0.088	0.172
-379.917	73.873	-0.296	-0.308
-378.902	112.002	0.107	-0.128
-377.888	-8.866	-0.086	0.057
-376.873	281.723	0.111	-0.198
-375.858	-131.518	0.394	0.052
-374.844	-28.736	-0.371	0.212
-373.829	262.385	-0.037	-0.064
-372.815	89.575	-0.086	0.096
-371.800	-200.000	0.005	0.164
-370.785	-161.325	0.184	0.009
-369.771	418.756	0.069	0.147
-368.756	-200.000	0.079	-0.426
-367.742	-155.013	0.028	0.002
-366.727	241.253	0.211	-0.349
-365.712	-91.701	0.367	0.104
-364.698	-200.000	-0.039	0.168
-363.683	-78.668	0.110	-0.037
-362.669	-200.000	0.000	0.068
-361.654	800.000	0.046	0.163
-360.639	141.747	0.146	0.192
-359.625	-200.000	-0.032	0.396
-358.610	-61.322	-0.235	0.098
-357.596	-107.596	0.183	-0.040
-356.581	-53.163	-0.139	0.063
-355.566	-92.548	-0.194	0.054
-354.552	-115.604	-0.296	0.055
-353.537	-147.450	0.277	0.023
-352.523	765.829	0.137	0.369
-351.508	37.836	0.184	0.162
-350.493	30.816	-0.186	0.158
-349.479	-63.479	-0.039	-0.016
-348.464	668.275	-0.065	0.167
-347.450	-200.000	0.003	-0.243
-346.435	248.008	-0.097	-0.163
-345.420	-200.000	0.014	-0.117
-344.406	-200.000	0.020	-0.243
-343.391	6.457	-0.244	0.179
-342.377	-31.825	0.201	0.112
-341.362	4.158	-0.221	0.160
-340.348	53.533	-0.065	0.062
-339.333	-78.913	-0.400	-0.135
-338.318	190.213	-0.350	0.520
-337.304	-125.707	-0.187	0.028
-336.289	129.076	0.055	-0.070
-335.275	245.267	-0.102	0.169
-334.260	-200.000	-0.067	0.327
-333.245	-200.000	0.009	0.061
-332.231	800.000	0.019	-0.080
-331.216	181.451	-0.137	0.200
-330.202	800.000	-0.073	-0.243
-329.187	380.409	-0.088	-0.179
-328.172	-200.000	-0.013	0.248
-327.158	-200.000	0.028	0.403
-326.143	-200.000	0.133	0.600
-325.129	-142.858	-0.066	-0.006
-324.114	148.713	-0.128	-0.171
-323.099	-102.550	0.324	0.077
-322.085	156.540	0.097	-0.133
-321.070	-84.793	0.062	0.019
-320.056	264.089	-0.110	0.190
-319.041	-99.249	-0.385	-0.096
-318.026	-130.186	0.155	-0.021
-317.012	-95.382	-0.250	0.067
-315.997	350.188	-0.119	-0.233
-314.983	234.639	0.263	-0.429
-313.968	800.000	-0.015	-0.046
-312.953	344.275	-0.074	0.144
-311.939	-73.391	0.406	-0.147
-310.924	-6.802	-0.109	-0.073
-309.910	-54.595	-0.138	-0.062
-308.895	-145.006	-0.316	-0.028
-307.880	-200.000	0.018	-0.102
-306.866	-200.000	-0.036	0.000
-305.851	-32.982	0.270	0.148
-304.837	35.031	0.271	0.235
-303.822	10.220	0.175	-0.132
-302.807	48.675	-0.238	-0.220
-301.793	800.000	-0.116	-0.480
-300.778	-20.549	0.201	0.122
-299.764	-62.475	0.301	0.124
-298.749	115.914	0.068	0.083
-297.735	-118.478	0.344	-0.060
-296.720	304.966	-0.113	-0.207
-295.705	-104.924	0.245	-0.056
-294.691	299.837	0.091	0.165
-293.676	-200.000	0.008	-0.116
-292.662	690.586	-0.016	-0.041
-291.647	-21.400	0.106	-0.064
-290.632	-50.762	-0.095	0.044
-289.618	-27.473	0.228	-0.131
-288.603	-120.329	0.067	0.011
-287.589	-44.815	0.128	0.063
-286.574	-56.900	-0.082	-0.036
-285.559	-200.000	-0.005	-0.168
-284.545	31.727	0.246	-0.209
-283.530	-97.957	-0.270	-0.069
-282.516	22.926	-0.206	-0.167
-281.501	-22.736	0.345	-0.206
-280.486	-32.485	-0.179	-0.099
-279.472	-102.691	0.214	-0.050
-278.457	-155.282	0.361	0.023
-277.443	761.686	-0.054	0.145
-276.428	367.553	-0.063	-0.127
-275.413	-55.502	0.183	-0.081
-274.399	-200.000	0.008	0.122
-273.384	-71.742	0.165	-0.061
-272.370	114.582	0.287	-0.346
-271.355	70.900	-0.090	0.092
-270.340	180.080	-0.086	-0.125
-269.326	-97.082	-0.286	-0.074
-268.311	42.452	-0.164	-0.147
-267.297	800.000	0.098	0.403
-266.282	169.843	-0.295	0.416
-265.267	800.000	-0.039	0.126
-264.253	-200.000	-0.030	-0.305
-263.238	-40.342	-0.305	0.157
-262.224	-31.609	0.450	0.250
-261.209	-200.000	-0.070	-0.303
-260.195	-200.000	0.000	-0.004
-259.180	127.767	-0.058	0.073
-258.165	351.567	0.059	-0.116
-257.151	70.759	-0.188	0.192
-256.136	34.505	-0.185	0.160
-255.122	-127.950	0.127	-0.018
-254.107	-10.083	0.215	0.141
-253.092	318.763	0.097	0.181
-252.078	-124.734	0.344	0.053
-251.063	-150.633	0.243	-0.018
-250.049	83.406	0.066	-0.071
-249.034	-24.104	-0.072	-0.042
-248.019	61.538	0.128	-0.126
-247.005	521.006	-0.043	-0.099
-245.990	-86.279	0.148	-0.045
-244.976	800.000	0.015	-0.051
-243.961	-68.474	-0.140	0.053
-242.946	359.838	-0.114	0.225
-241.932	122.231	-0.251	-0.310
-240.917	-104.712	-0.164	-0.037
-239.903	-20.660	-0.110	0.067
-238.888	-130.686	0.134	-0.018
-237.873	-200.000	-0.010	0.114
-236.859	-108.344	0.218	-0.046
-235.844	-159.749	-0.170	0.009
-234.830	800.000	0.117	0.366
-233.815	336.566	-0.185	-0.354
-232.800	-200.000	0.021	-0.486
-231.786	173.196	-0.099	-0.141
-230.771	-105.890	-0.285	0.063
-229.757	-200.000	-0.090	-0.462
-228.742	-185.175	-0.143	0.002
-227.727	-7.976	-0.356	0.237
-226.713	800.000	0.134	-0.447
-225.698	224.125	-0.035	0.056
-224.684	-9.127	-0.093	0.061
-223.669	-39.507	-0.190	-0.098
-222.655	585.011	0.168	0.407
-221.640	579.250	0.102	-0.246
-220.625	162.426	0.068	-0.094
-219.611	262.270	0.008	-0.014
-218.596	-142.969	0.175	0.017
-217.582	-136.453	0.204	0.023
-216.567	-8.398	-0.169	-0.112
-215.552	-97.998	-0.093	-0.024
-214.538	-114.259	0.161	-0.031
-213.523	316.559	0.080	0.149
-212.509	78.190	0.155	0.163
-211.494	103.856	-0.084	-0.097
-210.479	347.849	-0.129	-0.251
-209.465	126.836	0.222	-0.277
-208.450	-32.306	-0.282	0.155
-207.436	-124.794	0.260	0.040
-206.421	-200.000	-0.004	0.359
-205.406	800.000	0.014	0.049
-204.392	-16.855	-0.107	0.067
-203.377	54.142	-0.259	0.245
-202.363	-200.000	0.044	0.220
-201.348	94.502	0.115	-0.129
-200.333	800.000	0.065	-0.254
-199.319	-24.342	0.188	-0.111
-198.304	154.065	-0.242	0.327
-197.290	-130.894	0.108	-0.014
-196.275	-129.213	0.411	0.057
-195.260	-200.000	-0.011	-0.183
-194.246	57.908	0.059	-0.057
-193.231	-200.000	-0.003	-0.154
-192.217	151.478	0.212	-0.285
-191.202	-76.340	0.016	0.006
-190.187	27.712	-0.287	-0.238
-189.173	-55.140	0.188	-0.083
-188.158	-6.646	-0.085	-0.057
-187.144	-2.182	0.273	0.189
-186.129	-173.667	0.208	-0.006
-185.114	36.492	-0.088	0.076
-184.100	696.222	0.118	-0.306
-183.085	-79.572	-0.072	-0.024
-182.071	97.697	0.194	0.220
-181.056	-127.376	0.121	0.017
-180.042	64.517	0.247	0.245
-179.027	340.941	-0.095	0.182
-178.012	-31.454	-0.195	-0.108
-176.998	-200.000	0.030	-0.204
-175.983	749.884	0.066	-0.175
-174.969	335.462	0.102	-0.194
-173.954	-115.951	0.200	0.037
-172.939	30.047	0.137	0.115
-171.925	-95.573	0.058	0.015
-170.910	-172.785	-0.083	0.003
-169.896	637.344	0.056	0.141
-168.881	-53.541	-0.210	-0.095
-167.866	60.066	-0.127	-0.123
-166.852	303.454	-0.145	-0.265
-165.837	-98.947	0.079	-0.020
-164.823	800.000	0.128	0.409
-163.808	-124.107	0.141	0.022
-162.793	-80.762	0.183	0.060
-161.779	69.478	0.095	0.096
-160.764	-88.803	-0.305	-0.089
-159.750	-55.035	-0.192	0.085
-158.735	-56.678	0.124	0.054
-157.720	530.240	0.104	-0.242
-156.706	298.918	0.079	0.142
-155.691	168.448	-0.101	0.142
-154.677	424.079	0.044	-0.093
-153.662	594.255	0.188	0.457
-152.647	172.320	-0.238	0.337
-151.633	-124.132	-0.110	-0.017
-150.618	-19.558	0.200	0.122
-149.604	-200.000	0.081	0.430
-148.589	-200.000	0.004	-0.102
-147.574	160.836	-0.080	0.110
-146.560	-82.759	-0.207	0.066
-145.545	655.616	-0.058	-0.146
-144.531	-200.000	-0.018	-0.129
-143.516	800.000	-0.144	0.417
-142.502	800.000	0.024	0.091
-141.487	47.219	0.113	0.104
-140.472	273.979	0.225	-0.391
-139.458	-152.106	0.084	-0.006
-138.443	-115.021	-0.278	-0.052
-137.429	89.522	0.140	-0.153
-136.414	26.124	-0.284	-0.233
-135.399	317.860	0.062	-0.116
-134.385	800.000	-0.031	0.098
-133.370	-79.275	-0.056	0.019
-132.356	750.268	0.029	-0.076
-131.341	-5.656	-0.207	0.139
-130.326	800.000	0.056	-0.168
-129.312	-122.907	0.169	0.027
-128.297	-200.000	-0.010	0.045
-127.283	-200.000	0.005	-0.148
-126.268	800.000	-0.006	0.020
-125.253	-129.553	0.115	-0.016
-124.239	266.232	0.038	0.065
-123.224	-45.068	-0.376	-0.184
-122.210	-179.284	-0.363	0.008
-121.195	-47.309	0.150	-0.072
-120.180	-200.000	0.030	-0.362
-119.166	239.503	-0.202	0.330
-118.151	434.917	-0.176	-0.375
-117.137	-89.005	0.086	0.025
-116.122	424.735	-0.039	0.082
-115.107	800.000	-0.025	0.108
-114.093	-117.642	-0.290	-0.051
-113.078	64.095	-0.318	0.315
-112.064	584.254	-0.081	0.196
-111.049	-65.651	0.130	-0.051
-110.034	-70.187	-0.130	-0.049
-109.020	21.676	0.130	0.104
-108.005	-159.686	0.257	-0.014
-106.991	137.294	0.309	0.397
-105.976	-66.270	-0.192	-0.075
-104.962	190.625	-0.010	0.014
-103.947	-153.253	0.149	-0.010
-102.932	59.729	-0.222	0.215
-101.918	-5.987	-0.308	-0.207
-100.903	-88.461	0.050	-0.015
-99.889	-200.000	0.012	-0.059
-98.874	534.455	0.157	-0.365
-97.859	-200.000	-0.067	0.319
-96.845	-61.994	-0.115	-0.047
-95.830	419.949	0.044	-0.093
-94.816	-14.918	-0.306	-0.192
-93.801	52.480	0.062	-0.058
-92.786	136.004	0.018	-0.023
-91.772	-103.597	0.354	0.082
-90.757	-32.453	0.426	0.233
-89.743	419.245	0.160	-0.336
-88.728	-101.775	0.384	0.091
-87.713	476.250	0.056	-0.125
-86.699	-101.858	-0.107	-0.025
-85.684	-117.681	0.168	0.030
-84.670	-136.039	-0.342	0.039
-83.655	-62.539	0.154	-0.063
-82.640	85.913	-0.068	0.073
-81.626	-15.195	-0.228	-0.143
-80.611	-200.000	-0.005	-0.223
-79.597	106.087	-0.116	-0.135
-78.582	-50.601	0.355	0.164
-77.567	-97.410	-0.217	-0.055
-76.553	-29.966	-0.213	0.119
-75.538	177.093	0.109	0.156
-74.524	545.330	-0.142	0.333
-73.509	778.696	0.023	-0.061
-72.494	-200.000	-0.053	-0.369
-71.480	-135.835	-0.407	0.047
-70.465	80.182	0.089	-0.094
-69.451	-49.161	-0.550	-0.258
-68.436	-56.375	-0.195	0.085
-67.422	-54.184	0.279	0.124
-66.407	30.432	0.155	-0.130
-65.392	-147.256	0.263	-0.022
-64.378	-28.464	-0.180	0.102
-63.363	-122.864	0.391	-0.062
-62.349	669.199	-0.097	0.247
-61.334	102.415	-0.915	-1.048
-60.319	47.313	0.672	0.613
-59.305	434.245	-0.587	-1.249
-58.290	183.907	0.839	1.216
-57.276	517.146	0.573	1.312
-56.261	-200.000	111.296	637.806
-55.246	530.583	1514.240	3506.215
-54.232	177.647	2691.909	3843.823
-53.217	112.974	2150.518	2553.637
-52.203	40.869	1598.063	1412.655
-51.188	32.637	1340.812	1135.840
-50.173	29.547	1300.519	1083.563
-49.159	55.509	1357.171	1287.047
-48.144	54.976	1371.949	1297.823
-47.130	32.682	1325.845	1123.250
-46.115	29.339	1307.910	1088.323
-45.100	29.092	1303.102	1082.826
-44.086	29.079	1300.758	1080.757
-43.071	29.009	1298.432	1078.370
-42.057	29.047	1296.056	1076.576
-41.042	29.009	1294.184	1074.758
-40.027	29.089	1292.670	1073.925
-39.013	28.991	1290.923	1071.860
-37.998	29.059	1289.413	1070.958
-36.984	29.017	1287.440	1069.037
-35.969	29.112	1285.763	1068.151
-34.954	29.105	1284.229	1066.791
-33.940	29.134	1283.098	1065.978
-32.925	29.248	1281.015	1064.864
-31.911	29.319	1280.014	1064.401
-30.896	29.261	1278.968	1063.155
-29.881	29.198	1277.641	1061.644
-28.867	29.224	1275.707	1060.144
-27.852	29.228	1274.390	1059.036
-26.838	29.255	1273.186	1058.145
-25.823	29.221	1271.936	1056.871
-24.809	29.137	1270.807	1055.408
-23.794	29.225	1269.512	1054.793
-22.779	29.194	1267.689	1053.059
-21.765	29.231	1266.454	1052.202
-20.750	29.183	1265.342	1050.967
-19.736	29.255	1263.417	1049.736
-18.721	29.041	1263.159	1048.258
-17.706	29.059	1261.716	1047.123
-16.692	29.074	1260.681	1046.308
-15.677	29.150	1259.357	1045.597
-14.663	29.017	1258.699	1044.259
-13.648	29.085	1257.328	1043.463
-12.633	29.130	1256.677	1043.137
-11.619	29.105	1255.232	1041.755
-10.604	29.027	1255.102	1041.164
-9.590	29.025	1254.213	1040.373
-8.575	29.033	1252.713	1039.133
-7.560	28.986	1252.476	1038.628
-6.546	29.066	1251.461	1038.201
-5.531	29.092	1250.407	1037.431
-4.517	29.085	1249.598	1036.678
-3.502	29.014	1249.114	1035.837
-2.487	29.038	1247.771	1034.815
-1.473	28.956	1243.800	1031.019
-0.458	27.391	1228.512	1009.637
0.556	24.213	1210.187	969.521
1.571	20.185	1215.077	951.299
2.586	19.106	1229.453	956.480
3.600	18.705	1217.063	944.549
4.615	14.028	1146.586	865.476
5.629	6.756	1074.620	775.474
6.644	3.490	1056.152	746.297
7.659	3.251	1053.756	743.382
8.673	3.282	1052.590	742.645
9.688	3.398	1051.035	742.039
10.702	3.569	1049.043	741.391
11.717	7.639	1054.595	764.874
12.731	15.347	1065.869	810.353
13.746	19.573	1071.584	835.110
14.761	20.140	1071.172	837.453
15.775	19.283	1069.418	831.872
16.790	18.286	1067.465	825.474
17.804	17.594	1065.737	820.732
18.819	17.449	1064.493	819.006
19.834	17.101	1064.392	817.181
20.848	16.985	1063.453	815.831
21.863	16.854	1062.341	814.276
22.877	16.770	1062.065	813.589
23.892	16.779	1061.162	812.866
24.907	16.618	1060.591	811.587
25.921	16.659	1059.192	810.638
26.936	16.741	1057.914	809.982
27.950	16.702	1056.614	808.730
28.965	16.830	1055.178	808.170
29.980	16.786	1054.123	807.079
30.994	16.961	1053.170	807.113
32.009	16.985	1052.348	806.525
33.023	17.095	1051.068	805.994
34.038	16.887	1049.970	804.093
35.053	16.812	1049.548	803.345
36.067	16.814	1047.988	802.090
37.082	16.777	1047.708	801.627
38.096	16.909	1047.003	801.643
39.111	16.952	1046.012	801.016
40.126	16.745	1044.483	798.798
41.140	16.567	1042.950	796.715
42.155	16.441	1041.865	795.225
43.169	16.456	1040.494	794.176
44.184	16.420	1039.820	793.424
45.199	16.391	1039.020	792.607
46.213	16.569	1037.947	792.552
47.228	16.660	1037.755	792.764
48.242	16.903	1036.074	792.544
49.257	16.745	1035.207	791.072
50.271	16.835	1034.475	790.865
51.286	16.835	1033.885	790.344
52.301	16.806	1032.892	789.379
53.315	16.627	1031.953	787.757
54.330	16.675	1030.603	786.879
55.344	16.592	1029.707	785.740
56.359	16.569	1029.072	785.079
57.374	16.533	1028.144	784.136
58.388	16.290	1027.542	782.482
59.403	16.407	1026.092	781.851
60.417	16.371	1025.465	781.138
61.432	16.421	1024.797	780.788
62.447	16.364	1023.669	779.597
63.461	16.228	1023.415	778.710
64.476	16.292	1022.106	777.936
65.490	16.206	1021.265	776.835
66.505	16.332	1020.840	777.018
67.520	16.401	1020.136	776.731
68.534	16.389	1018.909	775.676
69.549	16.320	1018.535	775.003
70.563	16.261	1017.679	774.013
71.578	16.195	1016.578	772.807
72.593	16.113	1016.048	771.958
73.607	16.035	1015.216	770.903
74.622	16.132	1014.748	770.923
75.636	16.183	1013.884	770.432
76.651	16.133	1013.613	769.930
77.666	16.109	1012.990	769.280
78.680	16.322	1012.163	769.552
79.695	16.251	1011.285	768.495
80.709	16.399	1010.986	768.870
81.724	16.396	1010.181	768.177
82.739	16.531	1009.804	768.437
83.753	16.818	1008.915	768.996
84.768	16.953	1008.304	769.074
85.782	17.002	1007.405	768.543
86.797	16.889	1006.600	767.348
87.812	16.778	1005.521	765.956
88.826	16.862	1004.846	765.751
89.841	16.983	1003.883	765.497
90.855	17.025	1002.902	764.873
91.870	17.009	1002.128	764.143
92.884	16.919	1001.657	763.308
93.899	17.089	1000.423	763.064
94.914	16.979	1000.341	762.440
95.928	17.033	999.056	761.637
96.943	16.878	998.458	760.417
97.957	16.918	997.233	759.597
98.972	16.907	996.127	758.637
99.987	16.999	995.367	758.402
101.001	16.981	994.435	757.545
102.016	16.818	993.656	756.161
103.030	16.986	992.748	756.149
104.045	17.005	992.159	755.720
105.060	16.787	991.494	754.176
106.074	16.553	990.147	752.044
107.089	16.416	989.131	750.597
108.103	16.396	987.914	749.517
109.118	16.356	986.854	748.472
110.133	16.431	986.069	748.141
111.147	16.492	985.004	747.536
112.162	16.529	984.616	747.340
113.176	16.491	984.236	746.816
114.191	16.606	983.219	746.485
115.206	16.645	982.064	745.714
116.220	16.432	981.411	744.216
117.235	16.507	980.360	743.684
118.249	16.398	979.583	742.547
119.264	16.473	978.616	742.081
120.279	16.291	978.218	740.914
121.293	16.215	977.571	740.025
122.308	16.350	976.233	739.539
123.322	16.181	975.129	737.897
124.337	16.176	974.256	737.149
125.352	16.240	973.170	736.542
126.366	16.242	972.280	735.811
127.381	16.335	971.205	735.336
128.395	16.379	969.958	734.518
129.410	16.248	969.775	733.746
130.424	16.436	968.587	733.599
131.439	16.462	968.349	733.465
132.454	16.499	967.500	732.917
133.468	16.612	966.370	732.489
134.483	16.517	965.888	731.644
135.497	16.575	965.134	731.260
136.512	16.716	963.829	730.817
137.527	16.528	963.740	729.870
138.541	16.692	962.688	729.717
139.556	16.821	961.543	729.342
140.570	16.864	961.057	729.090
141.585	16.892	960.705	728.881
142.600	17.043	959.282	728.385
143.614	17.069	958.711	727.998
144.629	17.009	958.475	727.499
145.643	16.984	957.189	726.350
146.658	16.819	956.149	724.793
147.673	16.731	955.258	723.674
148.687	16.631	954.572	722.666
149.702	16.529	953.236	721.155
150.716	16.521	952.755	720.692
151.731	16.566	952.193	720.395
152.746	16.623	951.377	719.956
153.760	16.685	950.544	719.525
154.775	16.881	950.102	719.961
155.789	16.862	949.675	719.492
156.804	16.922	948.429	718.740
157.819	16.950	948.036	718.496
158.833	17.151	947.362	718.774
159.848	17.060	946.895	717.969
160.862	17.079	945.416	716.867
161.877	16.767	944.584	714.855
162.892	16.574	943.205	712.932
163.906	16.651	942.271	712.490
164.921	16.776	941.419	712.308
165.935	16.751	940.802	711.674
166.950	16.749	940.130	711.095
167.964	16.820	939.614	710.939
168.979	16.672	938.206	709.189
169.994	16.803	937.268	708.965
171.008	16.796	937.096	708.743
172.023	16.981	936.452	708.966
173.037	17.187	935.525	709.064
174.052	16.916	935.032	707.496
175.067	16.667	933.892	705.532
176.081	16.500	933.719	704.646
177.096	16.643	933.318	704.873
178.110	16.831	932.251	704.789
179.125	16.908	931.629	704.577
180.140	16.909	931.316	704.280
181.154	17.111	930.944	704.777
182.169	17.058	930.429	704.103
183.183	17.098	930.131	703.981
184.198	17.136	929.124	703.316
185.213	17.002	928.675	702.358
186.227	17.051	928.099	702.062
187.242	17.207	927.013	701.822
188.256	17.269	926.727	701.799
189.271	17.422	925.815	701.682
190.286	16.993	924.524	698.871
191.300	16.835	923.495	697.385
192.315	16.631	923.182	696.245
193.329	16.603	922.934	695.883
194.344	16.833	922.498	696.437
195.359	16.812	921.832	695.786
196.373	17.114	920.997	696.330
197.388	17.292	920.661	696.745
198.402	17.192	920.817	696.393
199.417	17.406	919.905	696.517
200.432	17.484	919.140	696.198
201.446	17.532	919.026	696.244
202.461	17.510	918.671	695.822
203.475	17.522	917.587	694.989
204.490	17.454	916.329	693.698
205.504	17.239	915.827	692.382
206.519	17.312	915.053	692.031
207.534	17.236	914.769	691.447
208.548	17.343	913.739	691.040
209.563	17.175	913.337	689.993
210.577	17.255	912.844	689.886
211.592	17.545	911.884	690.277
212.607	17.491	911.216	689.492
213.621	17.437	910.490	688.662
214.636	17.442	909.770	688.074
215.650	17.434	909.312	687.634
216.665	17.583	908.540	687.591
217.680	17.714	907.963	687.622
218.694	17.692	907.270	686.948
219.709	17.658	906.923	686.490
220.723	17.493	906.057	685.108
221.738	17.701	904.982	685.072
222.753	17.570	904.318	683.981
223.767	17.628	904.199	684.065
224.782	17.797	903.292	683.996
225.796	17.850	902.735	683.723
226.811	17.770	901.879	682.697
227.826	17.588	901.433	681.569
228.840	17.663	900.650	681.216
229.855	17.705	899.590	680.522
230.869	17.594	899.097	679.647
231.884	17.522	898.298	678.697
232.899	17.626	897.626	678.542
233.913	17.494	896.585	677.169
234.928	17.449	896.332	676.742
235.942	17.241	896.092	675.673
236.957	17.378	895.626	675.804
237.972	17.418	894.779	675.266
238.986	17.429	894.231	674.834
240.001	17.387	893.539	674.087
241.015	17.570	893.055	674.386
242.030	17.587	892.602	674.053
243.045	17.625	891.768	673.514
244.059	17.796	891.206	673.703
245.074	17.754	890.568	672.999
246.088	17.933	889.676	672.969
247.103	17.841	889.305	672.267
248.117	17.988	889.414	672.870
249.132	18.129	888.858	672.944
250.147	18.171	888.343	672.658
251.161	18.436	887.210	672.781
252.176	18.286	886.952	671.937
253.190	18.336	886.373	671.638
254.205	18.483	885.639	671.596
255.220	18.525	884.880	671.126
256.234	18.440	884.166	670.193
257.249	18.432	883.611	669.681
258.263	18.351	883.169	668.970
259.278	18.396	882.107	668.283
260.293	18.429	882.049	668.309
261.307	18.573	881.422	668.338
262.322	18.624	880.380	667.684
263.336	18.538	880.062	667.049
264.351	18.622	879.122	666.605
265.366	18.588	878.189	665.705
266.380	18.437	878.224	665.087
267.395	18.459	877.227	664.358
268.409	18.481	876.292	663.679
269.424	18.486	875.447	663.000
270.439	18.337	874.977	662.008
271.453	18.322	874.480	661.515
272.468	18.371	873.961	661.251
273.482	18.471	873.103	660.931
274.497	18.486	872.246	660.281
275.512	18.320	872.276	659.607
276.526	18.327	872.124	659.458
277.541	18.576	871.138	659.616
278.555	18.684	870.998	659.864
279.570	18.790	870.361	659.731
280.585	18.747	869.529	658.876
281.599	18.453	868.528	656.931
282.614	18.556	867.842	656.750
283.628	18.573	867.627	656.594
284.643	18.495	867.020	655.778
285.657	18.587	866.014	655.310
286.672	18.549	865.377	654.626
287.687	18.521	864.778	654.009
288.701	18.468	864.259	653.355
289.716	18.659	863.827	653.699
290.730	18.685	863.327	653.361
291.745	18.696	862.371	652.624
292.760	18.856	861.880	652.802
293.774	18.919	861.354	652.583
294.789	18.862	860.835	651.918
295.803	18.717	859.717	650.464
296.818	18.566	859.524	649.690
297.833	18.645	858.145	648.887
298.847	18.646	858.085	648.789
299.862	18.722	857.581	648.638
300.876	18.814	857.185	648.626
301.891	18.917	856.353	648.328
302.906	18.943	856.086	648.166
303.920	19.082	856.073	648.626
304.935	19.162	855.210	648.216
305.949	19.010	854.458	647.016
306.964	19.046	853.549	646.403
307.979	18.940	853.358	645.804
308.993	19.011	852.802	645.594
310.008	19.071	852.051	645.193
311.022	18.923	851.355	644.054
312.037	18.938	850.497	643.403
313.052	18.779	850.310	642.612
314.066	18.697	849.770	641.839
315.081	18.669	849.156	641.215
316.095	18.756	848.634	641.089
317.110	18.710	847.986	640.371
318.125	18.784	847.352	640.112
319.139	18.798	846.943	639.798
320.154	18.804	846.542	639.460
321.168	18.854	845.973	639.160
322.183	18.846	845.729	638.887
323.197	18.990	844.883	638.728
324.212	18.851	844.607	637.948
325.227	18.919	843.533	637.332
326.241	18.848	842.973	636.589
327.256	18.881	842.760	636.494
328.270	18.900	841.994	635.928
329.285	18.821	841.554	635.248
330.300	18.813	840.888	634.662
331.314	18.892	840.374	634.509
332.329	19.072	839.981	634.819
333.343	19.108	839.587	634.599
334.358	19.120	839.230	634.315
335.373	19.102	838.853	633.910
336.387	19.263	838.729	634.352
337.402	19.200	838.802	634.120
338.416	19.300	837.933	633.775
339.431	19.473	837.648	634.138
340.446	19.636	837.019	634.203
341.460	19.500	837.059	633.679
342.475	19.616	836.293	633.466
343.489	19.466	836.318	632.879
344.504	19.779	835.643	633.460
345.519	19.774	834.883	632.809
346.533	19.745	834.304	632.211
347.548	19.397	834.108	630.734
348.562	19.301	833.295	629.710
349.577	19.393	832.179	629.147
350.592	19.222	831.725	628.124
351.606	19.314	830.946	627.817
352.621	19.294	830.401	627.277
353.635	19.345	829.987	627.096
354.650	19.321	829.423	626.526
355.665	19.516	829.027	626.878
356.679	19.642	828.289	626.721
357.694	19.502	827.705	625.719
358.708	19.391	827.169	624.856
359.723	19.521	826.301	624.616
360.738	19.536	825.626	624.104
361.752	19.650	825.090	624.055
362.767	19.645	824.935	623.865
363.781	19.943	824.404	624.481
364.796	19.959	824.093	624.250
365.810	20.079	823.499	624.178
366.825	19.963	823.529	623.727
367.840	20.015	822.536	623.106
368.854	19.849	822.153	622.164
369.869	19.625	822.266	621.387
370.883	19.823	821.075	621.144
371.898	19.944	821.368	621.746
372.913	20.107	820.668	621.744
373.927	19.929	819.751	620.356
374.942	19.989	819.275	620.160
375.956	20.094	819.336	620.524
376.971	20.087	819.109	620.272
377.986	20.171	818.228	619.851
379.000	20.196	817.949	619.676
380.015	20.120	817.469	618.983
381.029	20.160	816.388	618.253
382.044	20.184	816.510	618.376
383.059	20.226	815.614	617.792
384.073	20.035	815.025	616.612
385.088	19.890	814.385	615.557
386.102	19.982	813.584	615.226
387.117	19.952	813.211	614.782
388.132	20.072	812.604	614.694
389.146	19.979	811.839	613.731
390.161	20.177	811.555	614.165
391.175	20.176	811.347	613.950
392.190	20.257	810.224	613.332
393.205	19.927	810.155	612.058
394.219	20.172	809.355	612.266
395.234	19.950	808.871	611.061
396.248	19.729	808.837	610.200
397.263	19.832	808.264	610.078
398.278	19.886	807.794	609.860
399.292	19.855	807.241	609.278
400.307	19.827	807.246	609.129
401.321	19.827	806.559	608.558
402.336	19.909	806.476	608.730
403.350	20.218	805.487	609.017
404.365	20.264	805.255	608.947
405.380	20.474	804.608	609.142
406.394	20.367	804.481	608.617
407.409	20.405	804.154	608.445
408.423	20.497	804.007	608.605
409.438	20.510	803.362	608.107
410.453	20.561	802.973	607.939
411.467	20.638	802.656	607.914
412.482	20.596	802.282	607.431
413.496	20.756	801.522	607.359
414.511	20.716	801.231	606.944
415.526	20.573	800.693	605.984
416.540	20.555	800.258	605.541
417.555	20.596	800.111	605.518
418.569	20.659	799.422	605.162
419.584	20.746	799.025	605.111
420.599	20.799	798.807	605.076
421.613	161.906	1372.265	1797.027
422.628	140.523	1455.830	1797.149
