DTS Sentinel unit serial number:	SN413079Multiplexer serial number:	ORYXHardware model number:	OX4-SRSoftware version number:	ORYX F/W v4.00 Oryx Data Collector v3.7.2.0data status	okinstallation	princeton_trtdifferential loss correction	single-endedforward channel	channel 1reverse channel	N/Adate	2019/09/19time	15:10:35forward acquisition time	60.00reverse acquisition time	0.00gamma	496.2192k internal	0.2315k external	0.2315temperature offset calibration	1.0019default loss term (dB/km)	0.3790temperature slope calibration	1.0000multiplexer offset coefficient	1.0000multiplexer slope coefficient	1.0000fibre end	0.00T internal ref (°C)	33.44T ext. ref 1 (°C)	1.12T ext. ref 2 (°C)	30.44length (m)	temperature (°C)	Stokes	anti-Stokes-747.200	-200.000	-0.033	0.366
-746.185	-200.000	0.059	0.265
-745.171	-38.993	-0.435	0.232
-744.156	-200.000	-0.006	0.287
-743.142	800.000	-0.065	0.220
-742.127	-200.000	0.013	0.149
-741.112	-200.000	-0.019	-0.131
-740.098	-200.000	-0.036	-0.163
-739.083	-130.850	-0.075	0.010
-738.069	400.408	-0.133	0.282
-737.054	188.138	0.215	-0.326
-736.039	104.615	-0.236	-0.282
-735.025	800.000	0.121	-0.378
-734.010	-144.539	-0.127	0.012
-732.996	800.000	-0.132	-0.387
-731.981	-67.841	0.155	-0.061
-730.966	-200.000	-0.041	0.325
-729.952	-200.000	-0.032	0.287
-728.937	-79.106	0.206	0.071
-727.923	239.434	0.120	-0.203
-726.908	-137.614	0.060	-0.007
-725.894	232.307	0.077	-0.128
-724.879	-200.000	-0.006	-0.386
-723.864	-86.274	-0.133	0.042
-722.850	92.479	-0.146	-0.166
-721.835	-105.519	0.108	-0.025
-720.821	48.218	-0.156	-0.148
-719.806	109.642	0.141	-0.171
-718.791	235.233	-0.227	-0.379
-717.777	-200.000	0.013	-0.521
-716.762	-200.000	0.054	-0.277
-715.748	-16.773	-0.119	0.076
-714.733	-200.000	-0.004	0.248
-713.718	114.038	0.177	0.218
-712.704	-200.000	-0.014	0.074
-711.689	-38.434	0.210	-0.112
-710.675	134.890	0.082	-0.108
-709.660	477.420	0.016	-0.037
-708.645	-71.088	0.079	0.030
-707.631	-200.000	-0.021	-0.388
-706.616	448.210	-0.069	-0.154
-705.602	200.379	0.149	-0.232
-704.587	-200.000	0.019	-0.251
-703.572	-173.488	-0.249	-0.008
-702.558	-1.241	0.343	-0.245
-701.543	-61.949	-0.349	0.147
-700.529	-159.652	-0.097	0.005
-699.514	-7.631	0.103	-0.071
-698.499	265.014	-0.040	0.070
-697.485	-63.537	-0.153	-0.064
-696.470	142.742	0.235	-0.316
-695.456	800.000	-0.060	-0.245
-694.441	-6.215	0.235	0.162
-693.426	283.870	-0.065	-0.118
-692.412	55.923	0.237	-0.232
-691.397	-91.329	-0.149	-0.043
-690.383	800.000	0.084	-0.277
-689.368	-95.264	0.144	-0.039
-688.354	152.837	0.160	-0.221
-687.339	6.853	-0.095	-0.072
-686.324	-13.270	-0.049	-0.032
-685.310	587.369	0.109	-0.271
-684.295	-200.000	0.006	0.092
-683.281	-86.228	-0.238	0.074
-682.266	-132.332	0.149	0.019
-681.251	-20.438	0.210	0.130
-680.237	-71.828	0.071	0.027
-679.222	800.000	-0.127	0.417
-678.208	-109.321	-0.244	0.052
-677.193	57.201	-0.104	0.103
-676.178	800.000	0.025	0.072
-675.164	-31.113	0.168	-0.096
-674.149	-200.000	-0.035	0.161
-673.135	-75.305	0.250	-0.090
-672.120	-200.000	-0.046	-0.253
-671.105	800.000	0.154	0.456
-670.091	115.780	-0.120	0.148
-669.076	-200.000	-0.049	0.371
-668.062	-128.887	-0.170	-0.024
-667.047	107.566	0.075	0.091
-666.032	-122.393	0.142	0.023
-665.018	538.332	0.023	0.055
-664.003	-132.887	-0.117	-0.015
-662.989	608.125	0.029	-0.073
-661.974	-118.656	-0.204	-0.036
-660.959	-200.000	0.049	-0.382
-659.945	246.309	0.020	-0.034
-658.930	-200.000	0.075	-0.347
-657.916	-152.593	-0.433	0.031
-656.901	34.984	-0.232	0.205
-655.886	74.525	0.166	0.176
-654.872	416.694	-0.071	-0.152
-653.857	100.659	0.294	-0.345
-652.843	-94.654	0.304	-0.083
-651.828	-200.000	-0.003	0.145
-650.814	-200.000	-0.040	0.202
-649.799	-27.442	-0.377	-0.222
-648.784	-114.043	-0.194	-0.038
-647.770	-163.289	-0.171	0.008
-646.755	513.468	-0.195	0.458
-645.741	-200.000	0.017	0.114
-644.726	-34.526	-0.165	0.091
-643.711	800.000	0.052	-0.215
-642.697	485.624	-0.049	-0.113
-641.682	-200.000	0.046	0.306
-640.668	-137.864	0.279	-0.031
-639.653	-85.882	0.049	0.015
-638.638	800.000	0.062	0.262
-637.624	-63.200	0.310	0.129
-636.609	-39.856	0.220	-0.116
-635.595	-200.000	0.042	0.245
-634.580	210.087	0.201	0.318
-633.565	-65.611	0.317	0.128
-632.551	-200.000	0.022	0.183
-631.536	13.748	0.362	-0.284
-630.522	152.264	-0.178	-0.244
-629.507	800.000	0.054	0.175
-628.492	183.873	0.039	0.059
-627.478	110.780	-0.156	-0.189
-626.463	87.509	0.219	0.244
-625.449	167.302	-0.317	-0.454
-624.434	738.674	-0.117	-0.316
-623.419	-200.000	-0.032	0.191
-622.405	-200.000	0.025	-0.275
-621.390	-200.000	0.003	0.081
-620.376	332.806	-0.035	-0.068
-619.361	-122.953	-0.402	-0.065
-618.346	-61.632	-0.222	-0.094
-617.332	-149.119	-0.172	0.014
-616.317	800.000	0.081	-0.327
-615.303	800.000	-0.005	-0.017
-614.288	289.726	0.093	-0.169
-613.273	-21.115	0.364	-0.225
-612.259	-66.447	0.053	0.021
-611.244	-48.129	0.335	0.163
-610.230	-200.000	-0.025	-0.131
-609.215	117.579	-0.063	0.078
-608.201	-90.642	0.151	-0.044
-607.186	-13.249	-0.077	0.050
-606.171	101.210	-0.226	-0.265
-605.157	-200.000	0.050	-0.271
-604.142	-51.479	0.063	-0.030
-603.128	-135.218	-0.350	-0.042
-602.113	-88.004	-0.349	0.106
-601.098	16.106	0.148	-0.117
-600.084	424.682	0.184	0.399
-599.069	178.796	0.098	0.144
-598.055	800.000	0.042	0.138
-597.040	-28.028	-0.333	0.194
-596.025	479.792	-0.054	-0.124
-595.011	25.429	-0.069	0.058
-593.996	224.578	-0.147	0.239
-592.982	800.000	0.013	-0.053
-591.967	800.000	-0.033	-0.118
-590.952	117.326	-0.064	-0.080
-589.938	24.281	0.289	-0.241
-588.923	-143.752	-0.137	-0.013
-587.909	-200.000	0.019	0.093
-586.894	-55.742	-0.306	-0.138
-585.879	800.000	-0.064	-0.200
-584.865	-182.610	-0.175	0.003
-583.850	8.550	-0.110	-0.083
-582.836	99.549	-0.174	-0.202
-581.821	-26.120	-0.260	-0.154
-580.806	23.009	-0.248	0.205
-579.792	243.383	-0.189	0.319
-578.777	-66.455	0.277	0.111
-577.763	771.948	0.032	0.089
-576.748	253.782	-0.146	-0.252
-575.733	475.363	-0.052	0.118
-574.719	-53.496	-0.103	0.047
-573.704	312.924	0.057	0.108
-572.690	-38.010	-0.182	0.097
-571.675	367.324	0.081	-0.165
-570.661	-200.000	0.013	-0.116
-569.646	228.286	0.131	-0.215
-568.631	-200.000	0.007	-0.032
-567.617	413.763	0.093	0.199
-566.602	-76.045	-0.051	0.018
-565.588	-200.000	-0.025	-0.257
-564.573	112.936	0.180	0.219
-563.558	-104.108	-0.127	0.030
-562.544	383.849	0.079	0.163
-561.529	787.310	-0.089	-0.245
-560.515	-151.375	-0.512	-0.038
-559.500	2.043	-0.139	0.101
-558.485	-200.000	0.030	0.137
-557.471	800.000	0.065	-0.218
-556.456	119.087	0.159	0.198
-555.442	211.982	0.098	0.156
-554.427	-200.000	-0.048	-0.214
-553.412	244.638	0.042	-0.072
-552.398	-200.000	-0.011	-0.225
-551.383	-200.000	-0.018	0.309
-550.369	83.409	-0.128	-0.140
-549.354	-114.056	0.141	0.027
-548.339	46.693	0.110	0.103
-547.325	-47.660	-0.183	0.089
-546.310	-66.857	0.170	-0.068
-545.296	-5.143	-0.159	-0.110
-544.281	-83.956	0.358	-0.115
-543.266	-58.125	-0.342	0.150
-542.252	-165.151	-0.041	-0.002
-541.237	217.155	-0.031	-0.050
-540.223	61.772	0.118	0.118
-539.208	215.175	0.131	-0.209
-538.193	177.580	-0.068	-0.100
-537.179	-106.166	0.167	-0.038
-536.164	3.416	-0.343	-0.251
-535.150	-180.091	0.140	-0.003
-534.135	146.552	0.064	0.086
-533.121	-34.381	-0.034	-0.019
-532.106	-66.171	-0.160	0.064
-531.091	162.740	-0.101	0.143
-530.077	-155.940	0.289	-0.018
-529.062	-67.113	0.197	0.078
-528.048	-15.625	-0.077	0.049
-527.033	-200.000	0.015	-0.148
-526.018	-80.746	-0.284	0.095
-525.004	-42.845	0.268	0.137
-523.989	-157.142	0.194	0.012
-522.975	240.265	0.142	-0.238
-521.960	389.780	0.064	-0.133
-520.945	-200.000	0.036	0.421
-519.931	-111.441	0.205	0.042
-518.916	206.102	-0.214	-0.334
-517.902	229.469	-0.271	-0.445
-516.887	137.438	0.056	-0.073
-515.872	800.000	0.036	-0.104
-514.858	-200.000	-0.008	0.161
-513.843	-200.000	0.022	-0.260
-512.829	272.804	0.004	-0.007
-511.814	-138.753	0.349	0.038
-510.799	119.212	0.088	-0.109
-509.785	-134.010	0.396	-0.049
-508.770	765.929	0.041	-0.112
-507.756	-8.986	0.331	0.222
-506.741	800.000	-0.088	0.372
-505.726	-200.000	-0.056	-0.374
-504.712	178.279	-0.252	0.370
-503.697	-35.982	0.223	0.121
-502.683	-78.243	-0.181	0.062
-501.668	65.814	0.075	0.077
-500.653	-57.621	-0.189	-0.083
-499.639	665.360	0.139	0.361
-498.624	-159.466	0.351	-0.020
-497.610	-151.179	0.359	0.027
-496.595	35.368	0.239	-0.211
-495.581	-124.655	0.184	0.029
-494.566	155.634	0.080	-0.110
-493.551	800.000	-0.095	-0.265
-492.537	-57.593	-0.137	0.060
-491.522	-181.216	0.412	-0.008
-490.508	-157.139	0.165	0.010
-489.493	632.266	0.039	0.100
-488.478	546.940	-0.051	-0.124
-487.464	236.834	0.204	-0.340
-486.449	-116.043	-0.381	-0.071
-485.435	-50.844	-0.074	-0.035
-484.420	-200.000	-0.011	0.181
-483.405	-116.005	-0.261	0.049
-482.391	0.514	-0.120	0.086
-481.376	135.464	0.210	-0.274
-480.362	800.000	0.041	0.148
-479.347	-200.000	-0.052	-0.245
-478.332	376.004	-0.139	-0.284
-477.318	-62.984	0.381	-0.158
-476.303	-105.977	0.105	-0.024
-475.289	-139.463	0.326	0.035
-474.274	800.000	-0.174	-0.629
-473.259	-40.624	-0.367	-0.191
-472.245	60.215	-0.062	-0.062
-471.230	226.971	-0.208	0.339
-470.216	-4.394	-0.331	-0.229
-469.201	-200.000	-0.081	0.369
-468.186	-49.897	-0.020	-0.009
-467.172	-140.394	-0.225	0.024
-466.157	139.815	0.042	-0.055
-465.143	-200.000	0.009	0.249
-464.128	-200.000	0.022	-0.223
-463.113	800.000	0.031	-0.116
-462.099	-200.000	0.059	-0.271
-461.084	773.095	-0.133	-0.362
-460.070	-118.520	-0.402	0.071
-459.055	-200.000	0.052	0.343
-458.040	-200.000	-0.029	-0.235
-457.026	-73.907	0.312	-0.113
-456.011	-200.000	0.013	0.261
-454.997	800.000	-0.087	0.270
-453.982	284.432	-0.065	0.117
-452.968	-72.681	0.202	0.075
-451.953	436.002	-0.144	-0.314
-450.938	-117.612	-0.153	0.028
-449.924	800.000	-0.003	-0.011
-448.909	87.874	0.138	-0.153
-447.895	327.832	-0.045	0.086
-446.880	107.732	-0.196	0.233
-445.865	-9.098	0.174	0.117
-444.851	43.778	-0.149	-0.137
-443.836	26.710	-0.256	0.215
-442.822	93.405	-0.133	-0.151
-441.807	15.322	0.153	0.120
-440.792	-130.525	0.299	-0.040
-439.778	132.518	0.082	-0.105
-438.763	-200.000	-0.004	0.183
-437.749	-200.000	-0.040	0.300
-436.734	58.136	0.238	-0.233
-435.719	-29.971	-0.120	-0.069
-434.705	-41.956	-0.177	-0.091
-433.690	-144.058	0.145	0.014
-432.676	-200.000	0.016	0.234
-431.661	800.000	-0.082	-0.342
-430.646	-129.938	0.271	0.037
-429.632	4.912	-0.200	-0.147
-428.617	800.000	-0.055	-0.176
-427.603	800.000	0.013	0.047
-426.588	-118.513	0.549	0.097
-425.573	203.629	-0.188	-0.291
-424.559	-200.000	0.054	0.320
-423.544	-200.000	-0.037	-0.190
-422.530	2.462	-0.111	0.080
-421.515	217.667	-0.085	-0.136
-420.500	214.423	0.195	-0.309
-419.486	-40.181	0.163	-0.085
-418.471	-139.624	0.457	-0.049
-417.457	800.000	0.072	0.230
-416.442	-200.000	0.032	0.156
-415.428	141.972	-0.268	-0.356
-414.413	-200.000	0.055	-0.292
-413.398	474.706	0.026	0.058
-412.384	-188.019	0.291	-0.004
-411.369	355.446	0.199	-0.397
-410.355	51.774	0.296	-0.282
-409.340	800.000	0.155	0.445
-408.325	585.663	0.092	-0.226
-407.311	-118.526	0.281	0.050
-406.296	37.142	0.200	-0.177
-405.282	-57.054	0.131	0.058
-404.267	-200.000	0.008	0.448
-403.252	-51.150	0.245	0.115
-402.238	-1.411	-0.244	0.172
-401.223	127.347	0.212	0.269
-400.209	208.492	0.206	0.322
-399.194	34.047	-0.158	0.138
-398.179	800.000	0.074	-0.273
-397.165	-44.011	-0.130	0.065
-396.150	-73.844	-0.318	-0.115
-395.136	800.000	0.070	-0.266
-394.121	1.515	0.443	0.319
-393.106	800.000	-0.082	-0.238
-392.092	583.784	0.047	-0.115
-391.077	254.694	0.098	-0.167
-390.063	-108.972	-0.152	0.032
-389.048	-131.196	0.173	-0.023
-388.033	269.786	-0.030	0.053
-387.019	-152.165	-0.149	0.011
-386.004	-130.682	-0.273	-0.037
-384.990	-106.393	-0.035	0.008
-383.975	40.319	-0.310	-0.278
-382.960	-200.000	-0.040	-0.257
-381.946	201.284	-0.053	0.082
-380.931	-53.413	0.239	-0.110
-379.917	-111.085	0.243	0.050
-378.902	-124.706	-0.222	0.034
-377.888	-75.463	-0.442	0.157
-376.873	-78.567	-0.065	0.022
-375.858	6.032	-0.365	0.270
-374.844	559.850	-0.058	-0.139
-373.829	-155.422	-0.300	0.019
-372.815	-73.789	0.068	-0.025
-371.800	22.623	-0.293	-0.240
-370.785	-116.125	0.078	0.015
-369.771	114.780	-0.143	-0.174
-368.756	-55.168	0.148	0.066
-367.742	-85.049	0.381	-0.119
-366.727	20.058	-0.155	0.125
-365.712	7.823	-0.158	0.118
-364.698	-130.740	0.162	-0.022
-363.683	-129.674	-0.238	-0.033
-362.669	-200.000	-0.002	0.245
-361.654	-200.000	-0.018	-0.213
-360.639	800.000	-0.157	0.526
-359.625	-121.068	-0.256	-0.043
-358.610	-53.894	-0.277	-0.126
-357.596	800.000	0.046	0.129
-356.581	-71.066	0.281	0.106
-355.566	-120.673	-0.153	0.026
-354.552	800.000	-0.068	0.250
-353.537	-200.000	0.027	0.146
-352.523	-131.624	-0.109	-0.014
-351.508	114.797	0.323	0.392
-350.493	800.000	0.089	-0.370
-349.479	-21.960	0.069	0.042
-348.464	-43.064	0.121	0.061
-347.450	-36.224	0.112	-0.060
-346.435	784.731	-0.084	-0.231
-345.420	58.516	-0.208	0.204
-344.406	-200.000	0.006	0.081
-343.391	-150.960	-0.137	-0.010
-342.377	46.147	0.359	0.332
-341.362	-10.001	0.092	0.061
-340.348	226.683	-0.102	0.166
-339.333	-153.181	-0.201	0.014
-338.318	60.988	-0.095	-0.094
-337.304	89.456	-0.253	0.281
-336.289	590.707	0.086	-0.211
-335.275	800.000	0.028	-0.091
-334.260	-36.991	0.122	0.065
-333.245	-49.473	0.082	0.039
-332.231	38.165	0.178	0.158
-331.216	309.476	0.087	-0.162
-330.202	-149.351	0.301	0.024
-329.187	-63.042	-0.340	-0.140
-328.172	81.616	0.402	0.434
-327.158	-64.662	0.308	-0.124
-326.143	176.218	-0.076	-0.111
-325.129	-138.050	0.143	0.016
-324.114	-172.568	0.142	-0.004
-323.099	47.290	-0.253	0.235
-322.085	43.414	0.102	0.093
-321.070	6.659	-0.132	-0.098
-320.056	-75.225	0.181	0.064
-319.041	-61.588	0.189	0.079
-318.026	-99.018	-0.138	-0.035
-317.012	800.000	0.056	0.211
-315.997	-193.030	0.231	0.002
-314.983	100.981	0.009	-0.010
-313.968	127.733	0.185	-0.234
-312.953	173.704	0.022	0.032
-311.939	267.692	0.181	0.316
-310.924	-103.259	-0.297	0.070
-309.910	-200.000	-0.002	-0.015
-308.895	185.552	-0.039	0.058
-307.880	-200.000	-0.025	-0.109
-306.866	281.023	0.103	-0.184
-305.851	-104.935	0.137	-0.031
-304.837	-200.000	-0.026	-0.168
-303.822	-120.562	-0.148	-0.025
-302.807	-41.358	0.209	0.107
-301.793	64.096	-0.113	-0.113
-300.778	-149.806	0.081	0.006
-299.764	135.855	0.212	0.275
-298.749	-44.252	-0.155	0.077
-297.735	-200.000	-0.009	-0.534
-296.720	-17.566	-0.172	-0.108
-295.705	-19.937	0.319	0.196
-294.691	-166.108	-0.162	-0.007
-293.676	-116.554	-0.274	-0.050
-292.662	175.278	0.038	0.055
-291.647	137.198	0.146	-0.190
-290.632	525.289	-0.128	-0.299
-289.618	-134.273	-0.148	-0.018
-288.603	-76.872	0.349	-0.122
-287.589	800.000	-0.037	-0.149
-286.574	78.767	-0.080	0.085
-285.559	351.625	-0.022	-0.043
-284.545	-73.931	-0.158	-0.057
-283.530	800.000	0.046	0.138
-282.516	-108.659	0.287	-0.061
-281.501	57.010	0.080	-0.077
-280.486	800.000	0.071	0.223
-279.472	225.965	-0.137	0.221
-278.457	287.335	-0.065	0.117
-277.443	-200.000	0.014	0.190
-276.428	53.978	0.138	-0.132
-275.413	-78.705	-0.068	-0.023
-274.399	-88.472	-0.218	-0.065
-273.384	25.110	0.170	-0.140
-272.370	490.325	-0.027	-0.061
-271.355	276.079	0.091	-0.160
-270.340	66.923	-0.129	-0.130
-269.326	-63.359	-0.115	0.047
-268.311	-59.037	0.124	-0.053
-267.297	134.921	0.045	-0.058
-266.282	-0.845	-0.168	0.118
-265.267	-32.193	-0.381	0.212
-264.253	-36.031	-0.156	-0.084
-263.238	-113.088	-0.122	0.024
-262.224	-200.000	-0.041	0.205
-261.209	-135.246	0.033	0.004
-260.195	-41.917	0.348	0.177
-259.180	800.000	0.016	-0.056
-258.165	-87.140	-0.315	0.095
-257.151	-5.497	0.331	-0.226
-256.136	-200.000	0.017	0.087
-255.122	-122.093	-0.364	-0.059
-254.107	-18.958	-0.308	-0.191
-253.092	67.846	-0.184	0.187
-252.078	-54.164	-0.127	0.057
-251.063	478.283	-0.018	0.041
-250.049	610.606	0.059	-0.147
-249.034	-93.806	-0.073	-0.020
-248.019	70.610	-0.162	0.167
-247.005	95.291	-0.155	0.175
-245.990	99.788	-0.158	-0.181
-244.976	-200.000	-0.004	-0.138
-243.961	501.569	-0.122	-0.279
-242.946	-200.000	0.005	-0.089
-241.932	-40.519	-0.087	-0.045
-240.917	-200.000	-0.054	0.249
-239.903	-200.000	-0.050	-0.271
-238.888	800.000	0.101	0.368
-237.873	-127.364	0.457	0.066
-236.859	647.191	0.016	0.041
-235.844	313.286	-0.123	-0.230
-234.830	800.000	-0.064	-0.230
-233.815	-26.269	-0.291	0.170
-232.800	-158.468	0.194	-0.011
-231.786	-155.258	-0.096	0.006
-230.771	-68.032	-0.223	-0.086
-229.757	-200.000	0.030	-0.192
-228.742	-74.929	-0.103	0.036
-227.727	-54.361	-0.259	-0.117
-226.713	-19.226	0.132	-0.081
-225.698	800.000	-0.040	0.139
-224.684	-41.335	0.074	0.038
-223.669	5.575	0.454	-0.333
-222.655	251.410	0.033	-0.056
-221.640	-200.000	-0.043	0.235
-220.625	-13.966	0.097	0.062
-219.611	-85.800	-0.230	-0.071
-218.596	73.939	-0.106	-0.110
-217.582	-200.000	-0.019	0.298
-216.567	-157.596	-0.361	-0.021
-215.552	-12.329	0.327	-0.212
-214.538	415.466	-0.194	0.409
-213.523	-70.280	-0.379	0.143
-212.509	231.435	0.210	0.341
-211.494	-200.000	0.027	0.180
-210.479	800.000	0.089	0.383
-209.465	294.582	-0.305	0.553
-208.450	197.574	0.170	-0.258
-207.436	-59.179	-0.159	-0.068
-206.421	246.643	0.053	0.088
-205.406	-145.856	-0.224	-0.020
-204.392	800.000	0.116	-0.415
-203.377	800.000	0.040	0.120
-202.363	413.005	0.106	-0.223
-201.348	-110.689	0.329	0.067
-200.333	-200.000	0.000	0.228
-199.319	-144.157	0.277	-0.026
-198.304	-74.541	0.131	-0.047
-197.290	467.559	0.051	-0.114
-196.275	-30.811	-0.141	0.079
-195.260	57.059	0.073	0.070
-194.246	247.015	0.028	-0.047
-193.231	63.111	0.072	0.071
-192.217	105.510	-0.112	0.132
-191.202	-200.000	-0.001	0.104
-190.187	40.226	0.139	-0.124
-189.173	376.122	0.119	-0.241
-188.158	-200.000	-0.039	-0.213
-187.144	-34.544	0.200	-0.109
-186.129	6.760	-0.435	0.321
-185.114	359.826	0.129	-0.256
-184.100	-181.398	0.100	-0.002
-183.085	188.081	-0.199	0.295
-182.071	92.642	-0.087	-0.097
-181.056	-102.318	0.125	0.030
-180.042	15.953	-0.142	0.111
-179.027	-119.402	-0.371	0.064
-178.012	23.190	0.104	0.085
-176.998	-200.000	-0.006	0.127
-175.983	-200.000	0.033	0.399
-174.969	-81.874	0.160	-0.052
-173.954	-200.000	0.034	0.473
-172.939	-65.538	0.111	-0.044
-171.925	-175.783	0.323	0.009
-170.910	195.293	0.056	-0.084
-169.896	-60.540	0.347	0.146
-168.881	-75.039	0.289	0.102
-167.866	-200.000	-0.002	-0.395
-166.852	-23.782	-0.276	0.164
-165.837	-96.709	-0.420	-0.109
-164.823	129.258	-0.095	0.120
-163.808	-70.212	0.060	-0.023
-162.793	-23.107	-0.267	-0.159
-161.779	-200.000	-0.029	-0.242
-160.764	-200.000	-0.014	0.115
-159.750	613.943	0.130	0.322
-158.735	-200.000	0.046	-0.254
-157.720	-14.097	-0.179	-0.114
-156.706	283.452	0.208	0.369
-155.691	28.049	-0.202	-0.169
-154.677	800.000	0.086	0.319
-153.662	-40.416	0.141	0.073
-152.647	-110.598	0.149	-0.030
-151.633	800.000	-0.120	0.343
-150.618	800.000	0.035	-0.143
-149.604	44.614	0.098	0.089
-148.589	202.714	0.131	-0.200
-147.574	-110.041	0.167	-0.035
-146.560	237.105	0.233	-0.382
-145.545	-131.954	0.134	0.017
-144.531	11.738	-0.034	-0.026
-143.516	800.000	-0.109	-0.386
-142.502	800.000	0.109	-0.319
-141.487	800.000	0.050	-0.139
-140.472	-200.000	-0.022	-0.135
-139.458	-150.751	0.286	-0.022
-138.443	-88.448	0.040	0.012
-137.429	-200.000	0.052	-0.398
-136.414	370.838	0.154	-0.309
-135.399	17.626	-0.129	0.102
-134.385	51.024	-0.143	-0.134
-133.370	24.080	0.046	-0.038
-132.356	284.605	-0.060	0.107
-131.341	-200.000	-0.017	-0.078
-130.326	240.201	0.051	-0.085
-129.312	-115.433	-0.235	0.044
-128.297	-200.000	0.051	0.513
-127.283	-67.591	-0.058	0.023
-126.268	195.549	0.130	-0.196
-125.253	213.972	0.188	0.294
-124.239	-200.000	-0.067	0.324
-123.224	-24.027	-0.366	-0.216
-122.210	-56.211	-0.222	-0.098
-121.195	377.649	-0.061	-0.123
-120.180	301.918	-0.113	-0.207
-119.166	104.931	-0.160	0.187
-118.151	800.000	0.053	-0.199
-117.137	800.000	0.036	0.142
-116.122	-200.000	-0.002	-0.197
-115.107	800.000	0.027	0.088
-114.093	-84.458	0.247	-0.077
-113.078	83.498	0.048	-0.051
-112.064	138.532	-0.298	-0.387
-111.049	17.702	-0.203	-0.160
-110.034	800.000	0.060	0.194
-109.020	-25.698	0.160	0.093
-108.005	-80.540	0.249	-0.082
-106.991	-46.100	-0.261	-0.127
-105.976	150.553	-0.047	-0.063
-104.962	28.690	-0.142	0.118
-103.947	-161.054	0.316	-0.016
-102.932	-102.438	0.199	-0.047
-101.918	800.000	-0.016	0.047
-100.903	-102.029	-0.203	0.048
-99.889	-200.000	-0.020	0.164
-98.874	-200.000	-0.014	0.137
-97.859	800.000	0.038	-0.154
-96.845	-98.409	-0.136	-0.034
-95.830	407.086	-0.094	-0.196
-94.816	54.293	0.092	0.088
-93.801	-85.904	0.194	-0.059
-92.786	47.078	-0.218	0.200
-91.772	426.758	-0.036	0.077
-90.757	-151.614	-0.092	-0.007
-89.743	51.433	0.081	-0.076
-88.728	286.026	0.092	0.164
-87.713	2.050	-0.157	-0.112
-86.699	524.755	-0.110	-0.256
-85.684	-200.000	0.038	-0.199
-84.670	-59.818	-0.243	0.103
-83.655	254.309	0.052	-0.088
-82.640	-17.183	-0.292	-0.182
-81.626	23.035	-0.268	0.217
-80.611	-11.006	0.201	-0.131
-79.597	-89.154	0.144	0.042
-78.582	696.302	0.076	-0.197
-77.567	57.757	0.276	0.267
-76.553	108.693	0.027	-0.032
-75.538	-147.909	-0.194	-0.016
-74.524	-49.526	-0.073	-0.034
-73.509	-200.000	0.021	0.168
-72.494	410.689	0.143	-0.299
-71.480	-116.223	0.132	-0.024
-70.465	208.273	0.133	-0.205
-69.451	-200.000	0.013	-0.265
-68.436	-109.770	-0.208	-0.043
-67.422	-115.317	0.130	0.024
-66.407	-34.289	-0.064	0.035
-65.392	-124.329	0.046	-0.007
-64.378	-10.243	-0.187	0.122
-63.363	-200.000	0.001	-0.041
-62.349	97.505	0.167	0.189
-61.334	5.698	-0.917	-0.669
-60.319	-33.109	0.363	0.198
-59.305	-200.000	-0.027	-1.008
-58.290	634.610	0.275	0.688
-57.276	197.142	0.874	1.316
-56.261	-200.000	96.294	549.471
-55.246	480.660	1438.582	3218.707
-54.232	143.429	2664.998	3499.396
-53.217	108.674	2225.819	2622.283
-52.203	44.983	1662.282	1509.669
-51.188	37.013	1392.327	1214.771
-50.173	33.719	1349.064	1156.939
-49.159	54.464	1396.609	1326.792
-48.144	57.535	1413.625	1361.928
-47.130	37.152	1370.781	1196.638
-46.115	33.584	1353.401	1159.645
-45.100	33.467	1348.295	1154.511
-44.086	33.373	1345.987	1151.917
-43.071	33.271	1343.933	1149.493
-42.057	33.304	1341.537	1147.601
-41.042	33.344	1339.911	1146.407
-40.027	33.440	1338.544	1145.772
-39.013	33.340	1336.456	1143.338
-37.998	33.516	1334.241	1142.458
-36.984	33.412	1333.068	1140.778
-35.969	33.549	1331.167	1139.934
-34.954	33.523	1329.340	1138.168
-33.940	33.385	1328.606	1136.662
-32.925	33.515	1326.801	1135.853
-31.911	33.531	1325.344	1134.658
-30.896	33.588	1323.332	1133.231
-29.881	33.523	1322.723	1132.275
-28.867	33.470	1321.789	1131.113
-27.852	33.605	1319.443	1129.865
-26.838	33.544	1318.033	1128.254
-25.823	33.528	1317.049	1127.267
-24.809	33.527	1315.405	1125.812
-23.794	33.555	1313.544	1124.338
-22.779	33.601	1312.050	1123.288
-21.765	33.556	1311.255	1122.297
-20.750	33.538	1309.979	1121.054
-19.736	33.414	1308.766	1119.239
-18.721	33.389	1307.564	1118.018
-17.706	33.344	1306.346	1116.671
-16.692	33.440	1305.357	1116.342
-15.677	33.235	1304.439	1114.308
-14.663	33.375	1303.135	1113.973
-13.648	33.396	1301.881	1112.979
-12.633	33.416	1301.043	1112.340
-11.619	33.247	1300.619	1110.939
-10.604	33.344	1299.476	1110.486
-9.590	33.338	1298.127	1109.253
-8.575	33.294	1297.089	1108.067
-7.560	33.400	1296.181	1107.866
-6.546	33.354	1295.302	1106.806
-5.531	33.305	1294.573	1105.848
-4.517	33.339	1293.556	1105.136
-3.502	33.287	1293.364	1104.627
-2.487	33.436	1292.023	1104.302
-1.473	33.447	1288.224	1101.075
-0.458	32.611	1273.276	1083.455
0.556	28.501	1255.959	1044.913
1.571	23.950	1262.080	1023.787
2.586	22.215	1276.104	1024.966
3.600	20.617	1263.444	1005.478
4.615	14.822	1186.587	912.676
5.629	5.746	1107.756	805.507
6.644	1.326	1086.273	767.506
7.659	1.028	1083.895	764.256
8.673	1.046	1082.623	763.380
9.688	1.080	1081.633	762.786
10.702	1.326	1079.781	762.651
11.717	6.001	1085.633	790.281
12.731	13.605	1096.080	836.323
13.746	17.242	1100.192	857.781
14.761	17.624	1100.288	859.703
15.775	16.854	1098.553	854.391
16.790	15.828	1096.670	847.688
17.804	15.080	1094.844	842.437
18.819	14.734	1093.653	839.707
19.834	14.469	1092.942	837.759
20.848	14.235	1091.768	835.606
21.863	14.047	1090.101	833.318
22.877	13.934	1089.493	832.209
23.892	13.878	1088.996	831.476
24.907	13.733	1088.476	830.279
25.921	13.835	1087.877	830.262
26.936	13.905	1086.954	829.831
27.950	13.917	1085.915	829.024
28.965	13.964	1084.623	828.198
29.980	13.982	1083.508	827.366
30.994	13.946	1082.275	826.170
32.009	14.126	1081.174	826.152
33.023	14.038	1080.085	824.813
34.038	14.091	1079.113	824.260
35.053	14.001	1078.578	823.330
36.067	13.866	1077.658	821.885
37.082	14.003	1076.325	821.475
38.096	14.004	1075.797	821.004
39.111	14.084	1074.593	820.407
40.126	13.866	1073.981	818.792
41.140	13.869	1072.696	817.756
42.155	13.835	1071.688	816.747
43.169	13.837	1070.632	815.882
44.184	13.800	1069.169	814.512
45.199	13.920	1068.065	814.188
46.213	13.879	1067.145	813.214
47.228	13.778	1066.455	812.121
48.242	13.956	1064.985	811.797
49.257	13.957	1064.194	811.132
50.271	13.871	1063.330	809.980
51.286	14.007	1062.182	809.697
52.301	13.936	1061.326	808.627
53.315	13.932	1059.913	807.461
54.330	13.793	1059.651	806.512
55.344	13.870	1058.402	805.864
56.359	13.939	1057.621	805.534
57.374	13.804	1056.561	804.002
58.388	13.854	1055.751	803.557
59.403	13.845	1054.916	802.804
60.417	13.784	1054.265	801.941
61.432	13.794	1053.260	801.157
62.447	13.666	1053.144	800.377
63.461	13.744	1051.779	799.645
64.476	13.697	1050.907	798.686
65.490	13.729	1050.335	798.335
66.505	13.819	1049.358	797.956
67.520	13.887	1048.516	797.573
68.534	13.913	1048.119	797.322
69.549	13.867	1047.014	796.191
70.563	13.830	1046.484	795.543
71.578	13.762	1045.932	794.724
72.593	13.810	1044.779	794.008
73.607	13.735	1044.321	793.230
74.622	13.711	1043.511	792.431
75.636	13.803	1042.788	792.251
76.651	13.832	1041.915	791.656
77.666	13.662	1041.597	790.532
78.680	13.860	1040.170	790.324
79.695	13.777	1040.066	789.782
80.709	13.768	1039.509	789.245
81.724	13.832	1038.626	788.810
82.739	13.916	1037.430	788.228
83.753	13.943	1036.862	787.858
84.768	14.016	1035.841	787.356
85.782	13.939	1034.976	786.265
86.797	13.975	1033.881	785.534
87.812	14.092	1033.027	785.366
88.826	13.956	1031.911	783.809
89.841	13.989	1031.211	783.360
90.855	14.058	1030.188	782.839
91.870	14.037	1029.624	782.246
92.884	14.047	1028.658	781.486
93.899	14.055	1027.739	780.760
94.914	14.168	1026.676	780.411
95.928	14.076	1025.999	779.398
96.943	14.008	1025.628	778.726
97.957	14.119	1024.307	778.174
98.972	14.113	1023.450	777.427
99.987	14.038	1022.440	776.240
101.001	14.062	1021.681	775.707
102.016	14.008	1020.891	774.788
103.030	13.958	1020.433	774.140
104.045	14.093	1019.128	773.706
105.060	13.856	1018.575	772.117
106.074	13.950	1017.317	771.535
107.089	13.989	1016.072	770.699
108.103	14.001	1015.294	770.097
109.118	13.888	1014.797	769.128
110.133	13.885	1014.061	768.492
111.147	13.946	1012.416	767.456
112.162	14.025	1011.514	767.071
113.176	13.951	1011.166	766.396
114.191	13.998	1010.434	765.990
115.206	13.961	1009.834	765.300
116.220	13.963	1008.796	764.453
117.235	14.052	1007.570	763.867
118.249	13.955	1007.162	763.042
119.264	14.138	1005.586	762.622
120.279	14.067	1005.011	761.790
121.293	13.968	1004.490	760.874
122.308	13.997	1003.650	760.305
123.322	13.913	1002.884	759.275
124.337	13.976	1001.501	758.448
125.352	14.066	1000.368	757.932
126.366	13.893	999.266	756.242
127.381	13.897	998.207	755.392
128.395	13.922	997.779	755.114
129.410	13.977	996.268	754.154
130.424	14.192	995.060	754.145
131.439	13.867	995.242	752.747
132.454	13.976	993.925	752.177
133.468	14.126	993.114	752.173
134.483	14.108	992.107	751.264
135.497	14.040	990.964	750.027
136.512	14.083	990.269	749.625
137.527	14.127	989.351	749.064
138.541	14.169	988.550	748.582
139.556	14.087	987.829	747.599
140.570	14.187	987.187	747.495
141.585	14.189	986.025	746.560
142.600	14.090	985.295	745.498
143.614	14.256	984.392	745.492
144.629	14.327	983.464	745.040
145.643	14.102	983.190	743.758
146.658	14.118	982.168	742.994
147.673	14.076	981.044	741.888
148.687	14.071	980.185	741.153
149.702	14.123	979.346	740.684
150.716	14.136	978.660	740.155
151.731	14.042	977.726	738.967
152.746	14.112	976.897	738.587
153.760	14.222	976.279	738.542
154.775	14.269	975.754	738.287
155.789	14.331	974.727	737.721
156.804	14.290	974.144	737.030
157.819	14.238	973.767	736.453
158.833	14.252	973.255	736.062
159.848	14.390	971.951	735.617
160.862	14.421	970.881	734.883
161.877	14.226	970.285	733.506
162.892	14.250	969.320	732.816
163.906	14.133	968.184	731.379
164.921	14.304	967.308	731.403
165.935	14.203	966.874	730.567
166.950	14.289	965.490	729.833
167.964	14.414	964.608	729.650
168.979	14.307	963.489	728.269
169.994	14.415	962.657	728.050
171.008	14.281	962.217	727.065
172.023	14.296	961.154	726.265
173.037	14.359	960.874	726.262
174.052	14.361	960.160	725.666
175.067	14.388	959.115	724.930
176.081	14.377	958.671	724.486
177.096	14.290	958.717	724.076
178.110	14.383	958.008	723.883
179.125	14.361	957.154	723.076
180.140	14.329	956.634	722.481
181.154	14.558	955.564	722.600
182.169	14.465	955.744	722.271
183.183	14.481	954.766	721.537
184.198	14.543	953.931	721.108
185.213	14.563	953.236	720.605
186.227	14.647	951.943	719.927
187.242	14.625	951.849	719.700
188.256	14.571	951.170	718.888
189.271	14.535	950.532	718.188
190.286	14.622	949.345	717.601
191.300	14.573	948.877	716.972
192.315	14.554	948.414	716.478
193.329	14.549	948.051	716.121
194.344	14.532	947.313	715.426
195.359	14.576	946.451	714.900
196.373	14.587	945.509	714.172
197.388	14.618	945.644	714.343
198.402	14.684	944.852	713.964
199.417	14.792	944.372	714.001
200.432	14.713	943.521	712.956
201.446	14.946	942.727	713.286
202.461	14.859	942.321	712.548
203.475	14.853	941.908	712.144
204.490	14.867	940.818	711.319
205.504	14.694	940.709	710.438
206.519	14.833	939.462	710.020
207.534	14.915	938.784	709.796
208.548	14.827	938.184	708.907
209.563	14.920	937.620	708.808
210.577	14.906	936.956	708.187
211.592	14.842	936.512	707.517
212.607	14.980	935.162	707.019
213.621	15.076	934.517	706.874
214.636	14.932	934.047	705.847
215.650	14.986	933.402	705.526
216.665	15.064	932.314	704.970
217.680	15.230	931.380	704.898
218.694	15.168	931.251	704.477
219.709	15.136	930.191	703.480
220.723	14.937	930.067	702.488
221.738	14.919	929.416	701.857
222.753	14.925	928.585	701.193
223.767	15.131	927.753	701.364
224.782	15.220	927.180	701.245
225.796	15.115	926.796	700.451
226.811	15.141	926.010	699.905
227.826	15.087	925.476	699.212
228.840	15.071	925.100	698.800
229.855	15.128	923.653	697.882
230.869	15.113	923.113	697.350
231.884	15.160	922.058	696.689
232.899	15.156	921.270	696.016
233.913	15.117	921.196	695.733
234.928	15.175	920.377	695.295
235.942	15.098	919.486	694.242
236.957	15.173	919.204	694.277
237.972	15.199	918.842	694.053
238.986	15.220	917.935	693.391
240.001	15.243	917.228	692.890
241.015	15.255	916.644	692.439
242.030	15.266	915.740	691.738
243.045	15.244	915.153	691.144
244.059	15.218	914.605	690.560
245.074	15.307	913.860	690.306
246.088	15.307	913.603	690.049
247.103	15.440	912.672	689.833
248.117	15.376	912.540	689.406
249.132	15.357	911.896	688.781
250.147	15.554	910.919	688.790
251.161	15.454	910.433	687.955
252.176	15.639	909.666	688.070
253.190	15.481	909.186	687.001
254.205	15.578	908.311	686.672
255.220	15.559	907.647	686.033
256.234	15.711	906.597	685.801
257.249	15.632	906.129	685.063
258.263	15.621	905.072	684.158
259.278	15.590	904.996	683.914
260.293	15.784	904.136	683.992
261.307	15.669	903.921	683.301
262.322	15.822	903.135	683.270
263.336	15.833	902.304	682.624
264.351	15.848	901.632	682.118
265.366	15.864	900.724	681.433
266.380	15.976	900.369	681.559
267.395	15.807	899.835	680.408
268.409	15.808	899.168	679.849
269.424	15.740	898.550	679.047
270.439	15.914	897.645	679.006
271.453	15.843	897.059	678.214
272.468	15.860	896.043	677.457
273.482	15.803	895.947	677.095
274.497	15.979	895.367	677.303
275.512	15.955	894.940	676.823
276.526	16.083	894.275	676.773
277.541	15.865	893.965	675.606
278.555	15.883	893.299	675.116
279.570	16.010	892.444	674.919
280.585	16.157	891.189	674.496
281.599	16.030	890.727	673.580
282.614	16.083	890.096	673.257
283.628	16.082	889.497	672.737
284.643	16.205	888.730	672.587
285.657	16.140	888.156	671.837
286.672	16.080	887.645	671.150
287.687	16.150	887.167	671.007
288.701	16.145	886.214	670.210
289.716	16.166	885.841	669.952
290.730	16.271	885.168	669.798
291.745	16.156	884.697	668.927
292.760	16.178	884.140	668.534
293.774	16.261	883.596	668.393
294.789	16.356	882.579	667.939
295.803	16.261	881.771	666.894
296.818	16.290	880.973	666.345
297.833	16.183	880.347	665.391
298.847	16.298	879.955	665.488
299.862	16.260	879.460	664.908
300.876	16.367	879.005	664.927
301.891	16.281	878.583	664.210
302.906	16.444	877.614	664.059
303.920	16.429	877.088	663.541
304.935	16.425	876.446	662.984
305.949	16.483	875.814	662.672
306.964	16.560	875.088	662.365
307.979	16.610	874.739	662.241
308.993	16.536	874.291	661.554
310.008	16.563	873.488	660.992
311.022	16.659	872.742	660.743
312.037	16.576	872.240	659.980
313.052	16.615	872.141	659.999
314.066	16.579	871.540	659.347
315.081	16.526	870.703	658.449
316.095	16.342	870.351	657.409
317.110	16.529	869.377	657.342
318.125	16.605	869.083	657.357
319.139	16.640	868.536	657.019
320.154	16.583	867.914	656.271
321.168	16.605	867.650	656.097
322.183	16.635	866.718	655.450
323.197	16.735	866.171	655.366
324.212	16.778	865.725	655.136
325.227	16.728	864.736	654.139
326.241	16.711	864.367	653.734
327.256	16.736	863.918	653.433
328.270	16.611	863.556	652.620
329.285	16.727	862.475	652.192
330.300	16.660	861.707	651.297
331.314	16.732	861.330	651.231
332.329	16.810	861.301	651.450
333.343	16.810	860.689	650.931
334.358	16.777	860.337	650.480
335.373	16.812	859.990	650.293
336.387	16.809	859.742	650.039
337.402	16.890	859.240	649.909
338.416	16.877	858.668	649.372
339.431	16.917	858.377	649.247
340.446	16.973	857.700	648.892
341.460	16.940	857.503	648.558
342.475	16.982	857.158	648.400
343.489	17.012	856.805	648.190
344.504	16.998	856.160	647.591
345.519	16.948	856.017	647.238
346.533	17.043	854.926	646.717
347.548	16.989	854.392	646.050
348.562	17.092	853.964	646.062
349.577	17.012	853.395	645.269
350.592	16.923	852.923	644.515
351.606	17.093	852.226	644.578
352.621	17.174	851.387	644.193
353.635	17.086	850.953	643.475
354.650	17.133	849.947	642.835
355.665	17.261	849.174	642.678
356.679	17.411	848.475	642.658
357.694	17.070	848.556	641.373
358.708	17.200	847.786	641.225
359.723	17.171	847.025	640.485
360.738	17.312	846.386	640.478
361.752	17.293	845.904	639.984
362.767	17.178	845.656	639.308
363.781	17.364	844.727	639.247
364.796	17.282	844.124	638.427
365.810	17.362	843.933	638.523
366.825	17.354	843.699	638.261
367.840	17.373	843.146	637.857
368.854	17.404	842.645	637.538
369.869	17.456	842.098	637.262
370.883	17.548	841.326	636.965
371.898	17.517	841.394	636.844
372.913	17.497	841.248	636.602
373.927	17.481	840.391	635.840
374.942	17.588	839.650	635.621
375.956	17.641	839.475	635.630
376.971	17.659	838.952	635.246
377.986	17.781	838.133	635.023
379.000	17.764	838.005	634.805
380.015	17.692	837.440	634.054
381.029	17.753	837.005	633.895
382.044	17.706	836.423	633.226
383.059	17.743	835.662	632.731
384.073	17.821	835.054	632.502
385.088	17.742	834.389	631.651
386.102	17.813	834.147	631.673
387.117	17.718	833.463	630.750
388.132	17.739	832.854	630.310
389.146	17.702	832.461	629.820
390.161	17.802	831.841	629.666
391.175	17.975	831.095	629.683
392.190	17.886	830.786	629.063
393.205	17.738	830.548	628.284
394.219	17.736	830.130	627.903
395.234	17.630	830.059	627.403
396.248	17.736	829.540	627.347
397.263	17.719	828.843	626.701
398.278	17.875	828.297	626.804
399.292	17.746	827.728	625.845
400.307	17.819	827.597	625.960
401.321	17.879	827.094	625.744
402.336	17.881	826.423	625.189
403.350	17.937	826.110	625.100
404.365	17.968	825.434	624.647
405.380	18.099	824.955	624.710
406.394	17.981	824.257	623.695
407.409	18.076	823.918	623.728
408.423	18.111	823.907	623.792
409.438	18.059	823.242	623.045
410.453	17.983	823.280	622.742
411.467	18.116	822.647	622.692
412.482	18.208	821.607	622.182
413.496	18.152	821.718	622.010
414.511	18.192	821.635	622.036
415.526	18.267	820.659	621.516
416.540	18.107	820.233	620.558
417.555	18.265	819.569	620.572
418.569	18.271	819.095	620.182
419.584	18.226	818.981	619.877
420.599	18.294	818.301	619.555
421.613	107.203	1287.684	1451.389
422.628	92.744	1356.056	1451.522
