DTS Sentinel unit serial number:	SN413079Multiplexer serial number:	ORYXHardware model number:	OX4-SRSoftware version number:	ORYX F/W v4.00 Oryx Data Collector v3.7.2.0data status	okinstallation	princeton_trtdifferential loss correction	single-endedforward channel	channel 1reverse channel	N/Adate	2019/09/12time	23:18:35forward acquisition time	60.00reverse acquisition time	0.00gamma	496.2192k internal	0.2328k external	0.2328temperature offset calibration	1.0143default loss term (dB/km)	0.3790temperature slope calibration	1.0000multiplexer offset coefficient	1.0000multiplexer slope coefficient	1.0000fibre end	0.00T internal ref (°C)	29.12T ext. ref 1 (°C)	3.71T ext. ref 2 (°C)	23.68length (m)	temperature (°C)	Stokes	anti-Stokes-747.200	-8.901	-0.027	-0.018
-746.185	636.839	-0.178	0.455
-745.171	-86.581	0.317	0.098
-744.156	-82.913	0.247	0.080
-743.142	800.000	0.093	0.306
-742.127	-193.625	-0.121	-0.001
-741.112	84.235	0.104	0.114
-740.098	198.287	-0.163	0.250
-739.083	105.398	-0.085	0.101
-738.069	-45.782	0.153	0.076
-737.054	-108.747	-0.359	0.077
-736.039	-147.657	-0.442	0.037
-735.025	-59.678	0.096	-0.041
-734.010	290.079	-0.077	0.140
-732.996	158.253	-0.148	-0.207
-731.981	-163.443	-0.257	0.012
-730.966	-200.000	-0.015	-0.251
-729.952	-106.692	-0.225	0.050
-728.937	432.038	0.073	-0.160
-727.923	57.973	-0.177	-0.175
-726.908	-200.000	-0.020	0.167
-725.894	142.715	-0.241	-0.323
-724.879	-39.145	-0.317	-0.168
-723.864	800.000	-0.102	0.291
-722.850	-200.000	0.089	0.470
-721.835	-58.235	0.198	-0.087
-720.821	-62.707	-0.350	-0.146
-719.806	-79.422	-0.031	-0.010
-718.791	439.100	-0.134	-0.295
-717.777	-128.242	-0.158	0.023
-716.762	-19.068	-0.351	-0.220
-715.748	456.317	0.113	-0.253
-714.733	290.133	0.105	-0.191
-713.718	-37.371	-0.026	0.014
-712.704	800.000	0.086	-0.332
-711.689	-5.152	-0.271	0.187
-710.675	80.843	-0.217	-0.236
-709.660	-115.920	-0.175	0.033
-708.645	35.221	-0.283	0.250
-707.631	525.382	-0.099	-0.233
-706.616	-140.310	-0.174	0.018
-705.602	800.000	0.031	0.123
-704.587	93.836	0.124	-0.142
-703.572	67.529	-0.099	0.102
-702.558	596.067	0.079	-0.198
-701.543	800.000	-0.088	-0.378
-700.529	98.217	0.121	-0.140
-699.514	227.313	0.358	0.585
-698.499	53.547	0.036	-0.035
-697.485	68.864	-0.163	-0.169
-696.470	793.035	0.032	0.090
-695.456	-25.530	-0.137	0.082
-694.441	448.256	0.036	-0.079
-693.426	-101.205	-0.160	-0.039
-692.412	800.000	-0.006	0.021
-691.397	166.226	0.134	0.191
-690.383	-200.000	-0.050	-0.270
-689.368	-200.000	-0.023	-0.235
-688.354	-83.711	0.100	0.032
-687.339	290.114	-0.063	0.116
-686.324	54.712	0.105	0.101
-685.310	-101.127	0.151	0.037
-684.295	-147.952	-0.193	0.016
-683.281	113.397	-0.252	-0.307
-682.266	-46.818	-0.249	-0.123
-681.251	-149.783	0.352	-0.028
-680.237	-4.633	-0.148	-0.103
-679.222	800.000	-0.039	0.128
-678.208	800.000	0.068	-0.294
-677.193	122.680	-0.091	-0.114
-676.178	2.816	-0.195	-0.142
-675.164	-113.513	-0.226	0.044
-674.149	-143.069	-0.441	-0.043
-673.135	17.298	-0.187	-0.149
-672.120	428.357	-0.153	-0.332
-671.105	-117.619	-0.524	0.095
-670.091	93.121	-0.090	-0.102
-669.076	-102.140	0.016	0.004
-668.062	116.556	0.179	-0.220
-667.047	-200.000	-0.007	-0.100
-666.032	-144.053	0.483	0.046
-665.018	222.384	0.088	-0.142
-664.003	54.157	0.152	0.147
-662.989	-200.000	0.037	0.194
-661.974	139.123	-0.143	-0.189
-660.959	-94.545	-0.079	0.022
-659.945	48.080	-0.160	0.150
-658.930	800.000	-0.125	-0.468
-657.916	-149.613	-0.313	-0.025
-656.901	-200.000	-0.051	0.256
-655.886	-44.162	0.307	0.155
-654.872	-200.000	-0.012	0.221
-653.857	-200.000	0.026	-0.371
-652.843	-42.060	-0.215	-0.111
-651.828	-200.000	-0.049	-0.215
-650.814	2.952	-0.028	-0.021
-649.799	121.305	-0.129	0.162
-648.784	15.793	-0.169	-0.133
-647.770	159.902	-0.130	-0.182
-646.755	-200.000	0.055	-0.314
-645.741	185.107	0.092	-0.137
-644.726	411.364	-0.176	-0.375
-643.711	-200.000	0.042	-0.206
-642.697	-18.864	0.111	-0.069
-641.682	-2.270	-0.121	0.085
-640.668	533.376	0.028	-0.066
-639.653	800.000	0.047	-0.201
-638.638	-104.545	-0.119	-0.028
-637.624	-78.164	0.177	0.061
-636.609	372.752	0.095	-0.193
-635.595	800.000	-0.103	-0.290
-634.580	-119.337	0.191	0.033
-633.565	800.000	0.008	-0.024
-632.551	-12.737	-0.158	0.103
-631.536	83.740	-0.040	-0.043
-630.522	206.377	0.032	0.050
-629.507	-107.809	0.072	0.016
-628.492	526.972	0.101	-0.239
-627.478	262.718	0.062	-0.108
-626.463	372.508	-0.061	0.124
-625.449	-8.522	0.097	0.065
-624.434	121.120	-0.033	0.041
-623.419	-53.318	-0.150	0.069
-622.405	-36.593	0.300	0.162
-621.390	-200.000	-0.022	-0.271
-620.376	166.405	0.235	0.333
-619.361	-107.521	-0.156	-0.034
-618.346	176.149	-0.080	-0.116
-617.332	31.649	0.159	-0.138
-616.317	-9.356	0.099	0.066
-615.303	456.716	-0.119	-0.264
-614.288	268.954	-0.105	-0.185
-613.273	-200.000	0.030	0.235
-612.259	800.000	0.047	-0.141
-611.244	294.552	-0.120	-0.220
-610.230	-23.080	0.173	0.104
-609.215	104.035	-0.132	0.155
-608.201	56.730	0.212	0.207
-607.186	-194.156	0.174	0.001
-606.171	-200.000	-0.034	0.215
-605.157	-144.666	0.293	-0.027
-604.142	-200.000	0.016	0.247
-603.128	-200.000	-0.002	0.140
-602.113	-200.000	-0.008	-0.445
-601.098	-200.000	-0.028	0.279
-600.084	-152.589	-0.207	-0.015
-599.069	5.857	-0.261	-0.193
-598.055	-69.225	0.116	-0.045
-597.040	-146.790	0.224	-0.019
-596.025	366.503	0.184	0.372
-595.011	-147.358	-0.200	0.017
-593.996	411.450	0.139	-0.295
-592.982	185.529	-0.204	-0.303
-591.967	-65.413	0.037	-0.015
-590.952	-200.000	-0.009	0.057
-589.938	-200.000	-0.025	0.213
-588.923	800.000	0.041	0.137
-587.909	-200.000	0.007	0.093
-586.894	13.375	0.176	0.136
-585.879	-129.897	-0.520	0.071
-584.865	-81.471	0.359	0.118
-583.850	-92.892	-0.085	-0.024
-582.836	316.071	-0.013	0.025
-581.821	800.000	-0.151	0.445
-580.806	99.067	-0.096	-0.111
-579.792	-164.025	-0.316	0.015
-578.777	297.248	-0.091	0.168
-577.763	-200.000	0.006	-0.299
-576.748	-200.000	0.024	0.276
-575.733	-193.327	0.238	-0.002
-574.719	20.649	0.094	-0.076
-573.704	123.035	-0.070	-0.088
-572.690	800.000	0.101	-0.304
-571.675	800.000	-0.058	0.166
-570.661	-64.863	0.174	-0.070
-569.646	-137.197	-0.297	0.034
-568.631	25.953	0.173	0.144
-567.617	-200.000	-0.008	-0.314
-566.602	-61.155	-0.188	0.079
-565.588	72.822	-0.133	-0.139
-564.573	-120.267	-0.465	0.079
-563.558	-53.500	-0.029	0.014
-562.544	800.000	-0.063	0.259
-561.529	5.005	-0.118	0.087
-560.515	800.000	0.061	-0.189
-559.500	-90.467	-0.226	0.066
-558.485	-17.712	0.396	-0.249
-557.471	-94.839	-0.186	0.050
-556.456	16.177	0.040	0.032
-555.442	-85.567	0.195	0.061
-554.427	-11.597	-0.378	0.248
-553.412	33.385	-0.205	-0.178
-552.398	393.574	-0.073	0.152
-551.383	-200.000	-0.033	-0.213
-550.369	74.887	0.195	0.205
-549.354	296.610	0.044	0.080
-548.339	-113.795	0.093	0.018
-547.325	800.000	0.009	0.036
-546.310	-86.063	0.226	-0.070
-545.296	4.153	0.202	0.148
-544.281	29.533	0.176	0.150
-543.266	217.275	0.042	0.067
-542.252	-59.807	-0.304	0.130
-541.237	-200.000	0.008	-0.123
-540.223	-71.652	-0.122	0.046
-539.208	-93.820	-0.316	-0.087
-538.193	225.819	-0.273	-0.442
-537.179	261.374	0.105	-0.182
-536.164	-150.556	-0.096	-0.007
-535.150	-174.477	-0.150	-0.004
-534.135	-112.848	0.108	0.021
-533.121	-200.000	0.013	0.068
-532.106	46.388	0.211	0.196
-531.091	-31.815	-0.333	-0.186
-530.077	244.582	0.144	-0.241
-529.062	-170.188	0.147	0.005
-528.048	-4.423	0.097	-0.067
-527.033	-41.108	-0.188	-0.097
-526.018	492.526	0.253	-0.580
-525.004	264.595	0.113	-0.196
-523.989	-200.000	-0.042	-0.361
-522.975	57.671	-0.113	-0.110
-521.960	-150.927	0.068	0.005
-520.945	800.000	-0.045	-0.126
-519.931	-60.725	-0.224	-0.095
-518.916	-80.807	-0.232	-0.077
-517.902	-200.000	0.026	0.213
-516.887	-113.316	0.376	-0.074
-515.872	-200.000	-0.020	-0.171
-514.858	239.157	-0.076	-0.126
-513.843	41.470	-0.090	0.082
-512.829	-112.567	-0.324	0.065
-511.814	-200.000	0.003	0.211
-510.799	-4.139	0.018	-0.013
-509.785	232.440	-0.214	-0.350
-508.770	-132.265	0.131	-0.017
-507.756	-89.619	0.272	-0.080
-506.741	459.317	-0.110	-0.245
-505.726	-56.731	-0.122	0.054
-504.712	-146.388	0.245	-0.021
-503.697	-200.000	0.015	0.069
-502.683	-49.875	0.155	0.073
-501.668	-187.244	0.212	-0.003
-500.653	-200.000	0.008	-0.114
-499.639	-200.000	0.006	-0.317
-498.624	-54.685	-0.100	0.045
-497.610	-156.492	-0.403	0.025
-496.595	-200.000	0.049	0.300
-495.581	176.394	-0.018	-0.025
-494.566	38.378	0.318	0.283
-493.551	-200.000	-0.003	0.098
-492.537	-106.671	-0.060	-0.013
-491.522	188.770	-0.047	0.071
-490.508	-56.325	-0.077	0.034
-489.493	-97.836	0.074	0.019
-488.478	-118.294	-0.187	0.033
-487.464	-5.296	0.069	-0.047
-486.449	-12.767	0.268	-0.174
-485.435	177.386	-0.051	0.074
-484.420	-137.001	0.108	0.012
-483.405	-200.000	0.007	0.152
-482.391	90.477	-0.229	0.256
-481.376	-200.000	-0.047	0.207
-480.362	-104.773	-0.208	-0.048
-479.347	32.218	0.094	-0.081
-478.332	59.858	0.200	0.197
-477.318	55.785	-0.035	-0.034
-476.303	-200.000	-0.061	-0.459
-475.289	-132.381	0.505	0.065
-474.274	-200.000	-0.043	-0.213
-473.259	-96.900	0.126	-0.033
-472.245	800.000	-0.055	-0.159
-471.230	18.481	0.176	0.140
-470.216	8.827	0.083	-0.062
-469.201	-83.678	0.046	0.015
-468.186	-116.677	-0.338	-0.062
-467.172	-174.071	-0.281	-0.008
-466.157	-116.447	0.135	0.025
-465.143	12.569	0.222	-0.171
-464.128	-200.000	0.070	-0.363
-463.113	43.836	0.214	-0.195
-462.099	-200.000	0.008	-0.167
-461.084	25.054	-0.066	-0.055
-460.070	-95.814	0.272	0.072
-459.055	800.000	-0.010	0.035
-458.040	84.430	0.121	0.132
-457.026	-18.680	-0.072	0.045
-456.011	75.593	0.163	-0.172
-454.997	800.000	0.065	-0.235
-453.982	-98.898	-0.263	0.067
-452.968	-164.914	-0.379	0.017
-451.953	-200.000	-0.106	-0.500
-450.938	-93.726	0.111	0.030
-449.924	-5.588	-0.071	-0.049
-448.909	-164.495	0.104	0.005
-447.895	12.429	0.087	-0.067
-446.880	6.166	-0.075	0.055
-445.865	-101.236	-0.123	0.030
-444.851	250.945	-0.065	0.110
-443.836	251.664	-0.132	0.223
-442.822	-162.810	0.246	0.012
-441.807	-95.337	-0.099	-0.026
-440.792	-1.756	0.151	0.106
-439.778	800.000	-0.064	-0.210
-438.763	135.965	-0.250	-0.325
-437.749	310.267	-0.089	0.165
-436.734	-158.022	-0.287	-0.017
-435.719	-44.157	-0.160	0.080
-434.705	301.961	-0.078	0.144
-433.690	-200.000	-0.019	-0.264
-432.676	-91.851	0.247	0.070
-431.661	-200.000	0.133	0.000
-430.646	65.748	0.245	-0.247
-429.632	77.900	-0.166	0.176
-428.617	31.537	-0.209	0.179
-427.603	-83.740	-0.263	-0.083
-426.588	800.000	-0.022	-0.068
-425.573	174.050	0.028	0.040
-424.559	-146.846	-0.444	0.038
-423.544	48.715	-0.193	0.180
-422.530	109.281	-0.348	-0.415
-421.515	-200.000	0.035	-0.372
-420.500	-59.744	-0.259	-0.111
-419.486	-64.799	-0.020	-0.008
-418.471	-75.549	0.335	-0.119
-417.457	800.000	0.046	-0.174
-416.442	-5.266	0.185	0.126
-415.428	667.683	0.096	-0.248
-414.413	-54.862	-0.258	0.116
-413.398	800.000	0.058	0.192
-412.384	-200.000	-0.009	0.044
-411.369	-200.000	0.041	0.204
-410.355	800.000	0.072	-0.218
-409.340	-19.635	-0.362	0.223
-408.325	-67.180	-0.217	0.085
-407.311	0.652	0.376	0.268
-406.296	465.198	-0.158	0.352
-405.282	-51.129	-0.116	0.054
-404.267	-200.000	0.007	0.211
-403.252	560.817	-0.063	0.152
-402.238	-116.601	-0.243	-0.044
-401.223	76.176	0.149	-0.156
-400.209	115.122	-0.252	0.306
-399.194	-200.000	-0.009	-0.041
-398.179	210.226	0.069	-0.107
-397.165	-38.800	0.121	-0.064
-396.150	-147.166	-0.171	0.014
-395.136	-145.411	0.066	0.006
-394.121	-108.937	0.297	-0.063
-393.106	-200.000	-0.026	0.202
-392.092	41.571	-0.142	-0.128
-391.077	800.000	0.096	-0.306
-390.063	-200.000	-0.011	-0.077
-389.048	-63.389	0.222	-0.091
-388.033	-200.000	0.018	-0.115
-387.019	352.571	0.089	-0.175
-386.004	-194.559	0.157	-0.001
-384.990	-71.510	0.389	-0.145
-383.975	15.346	-0.233	0.182
-382.960	800.000	-0.125	-0.426
-381.946	328.024	-0.073	0.139
-380.931	-113.235	-0.090	-0.018
-379.917	-200.000	-0.007	0.071
-378.902	76.612	0.254	-0.268
-377.888	800.000	0.034	-0.140
-376.873	-97.567	-0.157	0.040
-375.858	-200.000	0.029	0.177
-374.844	-200.000	-0.041	-0.181
-373.829	218.685	-0.106	-0.168
-372.815	65.638	-0.256	-0.258
-371.800	36.688	0.227	0.199
-370.785	64.178	0.121	-0.121
-369.771	-64.513	0.240	0.097
-368.756	47.992	-0.171	-0.158
-367.742	-180.265	-0.226	0.005
-366.727	800.000	0.082	-0.272
-365.712	-85.649	-0.213	-0.066
-364.698	-135.043	-0.414	0.050
-363.683	-200.000	-0.002	-0.285
-362.669	-184.602	0.464	-0.007
-361.654	-200.000	-0.041	0.494
-360.639	-200.000	0.006	0.130
-359.625	-85.611	-0.114	-0.035
-358.610	71.982	-0.182	-0.188
-357.596	-162.094	0.117	-0.006
-356.581	333.894	-0.038	0.073
-355.566	-139.322	-0.258	0.028
-354.552	-200.000	0.038	0.168
-353.537	23.884	-0.176	-0.144
-352.523	-83.588	-0.419	-0.133
-351.508	149.868	-0.155	0.208
-350.493	138.920	0.157	0.205
-349.479	800.000	0.020	-0.063
-348.464	-5.363	0.127	-0.087
-347.450	84.359	0.179	-0.194
-346.435	-200.000	-0.008	-0.342
-345.420	496.482	0.108	0.247
-344.406	19.485	0.184	0.147
-343.391	-14.261	-0.181	0.115
-342.377	-61.028	0.176	0.074
-341.362	-96.762	0.009	-0.002
-340.348	800.000	-0.101	0.351
-339.333	-35.792	0.102	0.055
-338.318	-200.000	0.068	0.402
-337.304	102.534	-0.116	-0.135
-336.289	-99.827	-0.056	0.014
-335.275	211.677	0.112	-0.175
-334.260	-200.000	-0.029	0.133
-333.245	-65.484	0.200	-0.080
-332.231	-171.226	-0.115	0.004
-331.216	-164.865	0.068	-0.003
-330.202	-119.798	0.234	-0.040
-329.187	800.000	-0.082	-0.241
-328.172	37.735	-0.136	-0.120
-327.158	336.060	0.199	0.383
-326.143	-44.537	0.060	0.030
-325.129	800.000	-0.078	0.330
-324.114	-144.167	-0.141	-0.013
-323.099	61.703	0.131	-0.129
-322.085	-138.512	-0.297	0.032
-321.070	-121.019	0.191	-0.032
-320.056	-46.495	0.434	0.211
-319.041	-200.000	0.012	0.192
-318.026	466.290	0.109	-0.242
-317.012	800.000	0.072	-0.221
-315.997	-80.341	0.074	-0.025
-314.983	-33.596	0.197	0.108
-313.968	200.092	0.300	0.457
-312.953	26.821	-0.091	0.076
-311.939	800.000	0.052	0.172
-310.924	333.370	-0.035	-0.067
-309.910	-200.000	0.050	0.230
-308.895	-200.000	-0.022	0.194
-307.880	82.816	-0.163	0.175
-306.866	52.843	0.147	0.139
-305.851	128.237	-0.099	-0.124
-304.837	-94.927	0.163	0.044
-303.822	43.473	-0.238	0.216
-302.807	-50.949	-0.253	-0.118
-301.793	-9.531	0.107	0.071
-300.778	176.383	-0.137	0.197
-299.764	282.748	0.087	-0.155
-298.749	-200.000	0.043	0.229
-297.735	-85.619	-0.213	0.065
-296.720	-200.000	0.027	-0.189
-295.705	800.000	0.083	-0.258
-294.691	800.000	-0.029	-0.090
-293.676	-100.969	0.185	0.045
-292.662	239.759	0.092	-0.152
-291.647	-63.907	-0.015	0.006
-290.632	-85.376	0.161	-0.050
-289.618	13.472	0.053	-0.041
-288.603	-52.259	0.303	-0.139
-287.589	50.703	0.181	0.169
-286.574	-58.885	-0.420	0.180
-285.559	-200.000	-0.026	-0.137
-284.545	153.789	-0.233	-0.316
-283.530	305.194	-0.052	0.095
-282.516	429.380	-0.120	0.257
-281.501	-10.458	0.295	-0.194
-280.486	10.056	-0.229	0.172
-279.472	598.457	-0.073	-0.179
-278.457	800.000	-0.127	0.470
-277.443	-128.900	-0.252	-0.035
-276.428	403.332	-0.075	0.156
-275.413	800.000	-0.060	0.182
-274.399	-7.035	0.042	-0.028
-273.384	-17.195	0.167	-0.104
-272.370	-111.302	0.143	-0.029
-271.355	123.477	-0.180	0.223
-270.340	-200.000	-0.014	0.123
-269.326	-58.268	0.286	-0.123
-268.311	-200.000	-0.058	-0.305
-267.297	411.264	-0.012	0.024
-266.282	25.127	0.278	0.228
-265.267	-30.665	-0.139	-0.078
-264.253	-128.943	0.170	0.024
-263.238	-73.277	-0.113	-0.041
-262.224	62.888	0.162	0.160
-261.209	11.173	0.303	0.229
-260.195	800.000	0.225	0.776
-259.180	-108.671	0.484	0.103
-258.165	5.259	0.088	-0.064
-257.151	247.113	-0.166	0.277
-256.136	-59.519	-0.229	-0.097
-255.122	131.388	0.022	0.028
-254.107	4.300	-0.140	0.102
-253.092	800.000	-0.042	0.169
-252.078	150.682	-0.180	-0.241
-251.063	800.000	-0.069	-0.246
-250.049	224.556	-0.058	-0.093
-249.034	289.196	-0.017	-0.031
-248.019	-200.000	0.004	-0.050
-247.005	260.831	0.082	0.141
-245.990	-108.105	0.053	0.011
-244.976	-119.162	0.223	0.038
-243.961	223.920	0.021	-0.034
-242.946	-200.000	-0.010	0.078
-241.932	-41.891	-0.074	-0.038
-240.917	620.870	-0.089	0.220
-239.903	296.828	-0.052	-0.093
-238.888	-178.643	0.124	0.003
-237.873	102.600	0.225	-0.260
-236.859	148.847	-0.175	-0.234
-235.844	75.777	-0.078	-0.081
-234.830	158.968	-0.147	0.201
-233.815	58.836	-0.137	-0.133
-232.800	151.930	-0.053	-0.071
-231.786	-75.132	-0.070	-0.025
-230.771	-107.448	0.303	-0.066
-229.757	-83.791	-0.259	0.081
-228.742	-55.704	-0.054	0.024
-227.727	-61.786	0.179	0.074
-226.713	-68.216	-0.129	-0.049
-225.698	124.270	-0.281	0.349
-224.684	-148.398	0.222	-0.018
-223.669	-164.329	0.202	0.009
-222.655	-100.753	0.095	-0.023
-221.640	-120.046	-0.180	-0.030
-220.625	15.924	0.174	-0.135
-219.611	800.000	0.029	0.086
-218.596	-130.862	0.211	-0.028
-217.582	121.211	0.164	-0.201
-216.567	800.000	0.049	0.186
-215.552	-200.000	-0.055	-0.302
-214.538	91.204	0.070	0.077
-213.523	-179.798	-0.403	0.009
-212.509	-200.000	0.002	-0.089
-211.494	-61.288	-0.148	-0.062
-210.479	800.000	-0.051	0.168
-209.465	-131.025	0.073	0.010
-208.450	-60.992	0.128	-0.053
-207.436	-200.000	0.046	0.202
-206.421	800.000	0.065	-0.181
-205.406	103.056	0.179	-0.207
-204.392	137.761	-0.089	0.115
-203.377	279.927	0.139	0.245
-202.363	621.244	0.113	0.281
-201.348	-54.527	0.168	0.075
-200.333	147.752	0.188	0.251
-199.319	52.396	0.156	-0.147
-198.304	-22.559	0.318	0.190
-197.290	800.000	0.025	-0.095
-196.275	-171.522	-0.326	0.011
-195.260	-200.000	-0.032	-0.180
-194.246	-74.816	-0.234	0.083
-193.231	800.000	-0.094	-0.380
-192.217	-124.022	0.351	0.054
-191.202	-6.787	0.245	0.165
-190.187	-53.529	-0.255	0.115
-189.173	295.665	-0.095	-0.171
-188.158	664.098	-0.097	0.248
-187.144	-38.100	-0.069	-0.036
-186.129	-200.000	0.025	-0.151
-185.114	-66.231	0.129	-0.051
-184.100	141.901	-0.057	-0.075
-183.085	-139.301	-0.092	0.010
-182.071	-140.906	-0.284	0.029
-181.056	755.814	-0.110	0.293
-180.042	184.372	0.097	0.142
-179.027	-166.382	0.378	-0.016
-178.012	-66.498	0.140	0.055
-176.998	-165.257	-0.254	-0.011
-175.983	-31.934	-0.184	0.102
-174.969	800.000	0.043	0.120
-173.954	39.032	0.103	-0.091
-172.939	-63.222	0.201	-0.082
-171.925	800.000	-0.066	0.224
-170.910	800.000	-0.031	0.086
-169.896	-136.003	-0.326	-0.038
-168.881	-200.000	-0.012	0.108
-167.866	232.847	-0.178	0.288
-166.852	-73.227	0.130	0.047
-165.837	62.495	0.297	0.293
-164.823	-44.212	0.121	0.060
-163.808	44.537	0.079	0.072
-162.793	596.428	-0.090	-0.219
-161.779	433.897	-0.109	0.234
-160.764	-200.000	-0.007	0.067
-159.750	-197.837	-0.251	-0.001
-158.735	-200.000	0.053	0.533
-157.720	-78.523	0.229	0.077
-156.706	-167.536	0.183	-0.007
-155.691	209.871	0.151	0.233
-154.677	105.735	0.163	-0.189
-153.662	-200.000	-0.007	-0.111
-152.647	63.313	0.182	-0.180
-151.633	415.547	-0.069	-0.144
-150.618	-14.435	0.099	0.063
-149.604	800.000	0.057	0.232
-148.589	349.062	0.153	-0.297
-147.574	362.507	-0.089	-0.177
-146.560	800.000	0.069	-0.278
-145.545	331.575	-0.009	-0.017
-144.531	-200.000	0.009	0.098
-143.516	-95.277	0.053	0.014
-142.502	-200.000	-0.066	0.326
-141.487	-11.304	0.261	0.169
-140.472	62.530	-0.041	0.040
-139.458	-200.000	0.006	0.029
-138.443	-184.191	0.215	0.004
-137.429	25.284	-0.341	0.279
-136.414	-109.728	0.298	0.062
-135.399	-94.051	-0.556	0.150
-134.385	249.336	0.140	-0.233
-133.370	-37.599	-0.349	0.183
-132.356	208.203	-0.250	0.385
-131.341	44.283	0.119	0.107
-130.326	14.242	-0.268	-0.206
-129.312	-200.000	-0.018	0.094
-128.297	251.535	0.187	-0.314
-127.283	48.988	-0.083	0.077
-126.268	-156.946	0.361	0.022
-125.253	-200.000	0.007	-0.227
-124.239	-150.647	-0.132	0.010
-123.224	347.099	-0.223	0.432
-122.210	125.473	0.137	0.170
-121.195	-86.815	-0.290	-0.087
-120.180	221.534	-0.040	0.062
-119.166	518.108	0.043	-0.099
-118.151	-200.000	-0.014	0.342
-117.137	73.325	0.121	0.125
-116.122	-128.613	0.404	-0.056
-115.107	-15.228	0.381	-0.240
-114.093	219.965	-0.205	0.322
-113.078	-185.885	0.051	-0.001
-112.064	-200.000	0.192	0.001
-111.049	94.757	-0.242	0.270
-110.034	-108.723	-0.306	0.065
-109.020	-3.581	0.413	0.282
-108.005	-200.000	0.001	0.293
-106.991	-200.000	-0.041	-0.353
-105.976	-200.000	-0.053	-0.431
-104.962	-200.000	-0.003	-0.145
-103.947	-16.603	-0.029	-0.018
-102.932	-200.000	-0.026	-0.335
-101.918	-114.567	0.080	-0.015
-100.903	547.717	0.068	-0.160
-99.889	44.568	0.097	0.088
-98.874	-39.289	-0.179	0.092
-97.859	237.535	-0.133	0.217
-96.845	49.692	-0.025	0.023
-95.830	-113.627	0.046	0.009
-94.816	-130.693	0.158	0.021
-93.801	221.556	0.251	0.396
-92.786	-139.761	0.100	-0.010
-91.772	-119.235	-0.254	0.044
-90.757	-78.732	0.362	0.121
-89.743	-137.975	0.251	-0.028
-88.728	-45.708	0.038	-0.018
-87.713	16.302	-0.158	-0.123
-86.699	800.000	0.076	-0.208
-85.684	800.000	0.045	0.144
-84.670	-118.672	0.429	-0.074
-83.655	99.020	-0.174	0.197
-82.640	514.254	-0.124	-0.285
-81.626	22.808	0.095	0.077
-80.611	800.000	-0.060	-0.239
-79.597	-2.576	-0.128	0.088
-78.582	-13.485	0.260	0.166
-77.567	-118.096	-0.162	0.028
-76.553	241.061	-0.215	0.353
-75.538	-12.132	0.144	-0.093
-74.524	800.000	0.008	-0.033
-73.509	351.859	-0.104	-0.203
-72.494	135.251	-0.075	-0.096
-71.480	800.000	-0.130	0.373
-70.465	-13.155	0.324	-0.206
-69.451	-200.000	0.038	0.220
-68.436	-139.312	-0.131	-0.014
-67.422	-101.256	0.118	-0.028
-66.407	325.097	0.104	-0.195
-65.392	-170.646	0.176	-0.006
-64.378	73.516	0.132	0.136
-63.363	-200.000	-0.019	-0.287
-62.349	146.625	-0.052	0.068
-61.334	61.916	-0.982	-0.960
-60.319	800.000	0.247	0.744
-59.305	501.569	-0.388	-0.880
-58.290	284.323	0.862	1.522
-57.276	712.579	0.763	1.983
-56.261	-200.000	110.470	619.196
-55.246	514.620	1511.376	3460.414
-54.232	177.603	2689.183	3844.342
-53.217	111.426	2150.977	2544.190
-52.203	40.613	1599.299	1413.694
-51.188	32.632	1341.409	1137.745
-50.173	29.503	1300.997	1085.062
-49.159	54.237	1357.038	1280.999
-48.144	53.886	1372.728	1293.653
-47.130	32.780	1326.101	1125.461
-46.115	29.305	1308.238	1089.758
-45.100	29.086	1303.386	1084.384
-44.086	29.067	1300.874	1082.140
-43.071	28.981	1298.557	1079.667
-42.057	28.935	1296.348	1077.518
-41.042	29.031	1294.907	1076.839
-40.027	29.085	1293.300	1075.774
-39.013	29.038	1291.145	1073.667
-37.998	28.982	1289.357	1071.809
-36.984	29.065	1287.836	1070.986
-35.969	29.166	1285.550	1069.626
-34.954	29.080	1284.431	1068.157
-33.940	29.063	1283.380	1067.141
-32.925	29.236	1281.990	1066.947
-31.911	29.352	1279.713	1065.677
-30.896	29.247	1278.974	1064.414
-29.881	29.172	1277.686	1062.864
-28.867	29.228	1275.821	1061.596
-27.852	29.095	1274.785	1059.924
-26.838	29.234	1273.332	1059.476
-25.823	29.175	1272.390	1058.310
-24.809	29.267	1270.846	1057.512
-23.794	29.158	1269.764	1055.945
-22.779	29.110	1268.283	1054.397
-21.765	29.141	1267.110	1053.556
-20.750	29.195	1265.692	1052.643
-19.736	29.123	1264.115	1050.882
-18.721	29.122	1263.258	1050.121
-17.706	29.156	1261.822	1049.078
-16.692	29.108	1261.006	1048.084
-15.677	29.132	1259.550	1046.972
-14.663	29.155	1258.345	1046.059
-13.648	28.990	1257.738	1044.572
-12.633	29.095	1256.782	1044.332
-11.619	29.066	1256.320	1043.743
-10.604	29.064	1255.369	1042.903
-9.590	29.097	1253.964	1041.882
-8.575	29.117	1252.707	1040.908
-7.560	29.156	1251.884	1040.403
-6.546	29.059	1251.722	1039.679
-5.531	29.041	1250.939	1038.888
-4.517	28.926	1250.022	1037.434
-3.502	29.035	1249.254	1037.367
-2.487	29.064	1248.051	1036.495
-1.473	29.012	1243.725	1032.566
-0.458	27.477	1228.496	1011.368
0.556	25.227	1211.393	972.501
1.571	21.394	1215.844	955.093
2.586	20.403	1230.330	960.905
3.600	20.088	1218.895	950.164
4.615	15.409	1147.697	870.368
5.629	7.574	1074.891	776.891
6.644	4.165	1055.504	746.414
7.659	3.669	1053.466	742.523
8.673	3.575	1051.900	740.898
9.688	3.443	1050.621	739.298
10.702	3.980	1048.928	740.613
11.717	9.052	1056.126	770.016
12.731	17.451	1068.246	819.384
13.746	22.397	1073.961	847.575
14.761	23.214	1074.513	851.870
15.775	22.554	1072.933	847.370
16.790	21.803	1071.040	842.190
17.804	21.305	1070.065	838.960
18.819	21.041	1069.267	836.995
19.834	21.189	1068.920	837.358
20.848	21.270	1068.093	837.023
21.863	21.012	1067.729	835.426
22.877	20.817	1066.977	833.835
23.892	20.710	1066.379	832.778
24.907	20.787	1065.321	832.250
25.921	20.699	1063.952	830.684
26.936	20.626	1062.754	829.327
27.950	20.558	1061.373	827.852
28.965	20.638	1059.995	827.084
29.980	20.945	1058.753	827.502
30.994	21.109	1057.374	827.127
32.009	20.992	1056.851	826.092
33.023	20.783	1056.155	824.484
34.038	20.740	1055.073	823.365
35.053	20.827	1053.584	822.540
36.067	20.679	1053.171	821.445
37.082	20.721	1052.366	820.943
38.096	20.950	1051.641	821.385
39.111	20.891	1051.100	820.608
40.126	20.875	1048.911	818.755
41.140	20.345	1047.575	815.152
42.155	20.183	1046.955	813.835
43.169	20.021	1045.959	812.229
44.184	20.080	1044.730	811.482
45.199	20.149	1044.040	811.196
46.213	20.495	1042.742	811.731
47.228	20.712	1042.839	812.748
48.242	20.833	1042.087	812.654
49.257	20.708	1041.067	811.205
50.271	20.921	1040.168	811.425
51.286	20.942	1039.669	811.061
52.301	20.868	1038.717	809.905
53.315	20.765	1037.255	808.213
54.330	20.537	1036.677	806.634
55.344	20.645	1035.284	805.977
56.359	20.564	1034.668	805.053
57.374	20.307	1033.948	803.233
58.388	20.251	1033.139	802.276
59.403	20.099	1032.499	801.004
60.417	20.085	1031.520	800.108
61.432	20.086	1030.587	799.317
62.447	20.043	1030.414	798.916
63.461	20.060	1028.706	797.600
64.476	19.909	1028.151	796.402
65.490	19.891	1027.561	795.792
66.505	19.935	1026.896	795.411
67.520	19.979	1026.205	795.008
68.534	19.864	1025.670	793.994
69.549	19.831	1023.963	792.451
70.563	19.663	1023.696	791.403
71.578	19.501	1022.721	789.839
72.593	19.383	1022.118	788.765
73.607	19.433	1021.260	788.262
74.622	19.639	1020.477	788.528
75.636	19.716	1019.590	788.123
76.651	19.683	1019.331	787.702
77.666	19.785	1018.799	787.684
78.680	19.800	1017.689	786.828
79.695	19.877	1017.349	786.842
80.709	20.134	1016.716	787.451
81.724	20.032	1016.627	786.851
82.739	20.185	1016.085	787.056
83.753	20.720	1015.444	788.915
84.768	21.071	1015.263	790.295
85.782	21.452	1014.200	791.124
86.797	21.168	1013.479	789.204
87.812	21.007	1012.198	787.410
88.826	21.095	1011.396	787.116
89.841	21.112	1010.653	786.545
90.855	21.295	1009.603	786.480
91.870	21.191	1009.242	785.661
92.884	21.168	1008.223	784.696
93.899	21.185	1006.794	783.591
94.914	21.268	1006.166	783.402
95.928	21.154	1005.384	782.216
96.943	21.042	1004.237	780.752
97.957	20.943	1003.181	779.420
98.972	20.983	1002.927	779.331
99.987	21.080	1002.283	779.197
101.001	20.976	1001.119	777.760
102.016	21.082	999.876	777.198
103.030	21.124	999.394	776.942
104.045	21.037	998.740	775.975
105.060	20.900	997.558	774.382
106.074	20.485	996.419	771.583
107.089	20.311	995.367	769.929
108.103	20.115	994.210	768.097
109.118	20.029	992.728	766.503
110.133	19.812	992.044	764.952
111.147	19.906	991.063	764.541
112.162	20.001	990.579	764.520
113.176	20.284	990.024	765.270
114.191	20.305	989.098	764.582
115.206	20.248	988.171	763.546
116.220	20.158	987.588	762.632
117.235	20.195	986.631	761.986
118.249	19.942	985.553	759.977
119.264	19.867	985.126	759.250
120.279	19.890	983.833	758.288
121.293	19.900	983.046	757.658
122.308	19.723	982.047	756.049
123.322	19.556	981.052	754.485
124.337	19.523	980.053	753.507
125.352	19.557	979.344	753.042
126.366	19.550	978.101	751.989
127.381	19.664	977.315	751.815
128.395	19.848	976.538	751.949
129.410	19.824	975.841	751.245
130.424	19.769	975.744	750.863
131.439	20.089	975.115	751.702
132.454	20.216	973.853	751.213
133.468	20.158	973.083	750.301
134.483	20.145	972.626	749.824
135.497	20.210	971.547	749.209
136.512	20.230	970.822	748.670
137.527	20.153	970.190	747.785
138.541	20.251	969.590	747.676
139.556	20.335	968.882	747.426
140.570	20.611	968.648	748.370
141.585	20.698	967.976	748.159
142.600	20.927	966.796	748.161
143.614	20.991	966.557	748.186
144.629	21.171	965.402	747.995
145.643	20.983	964.286	746.259
146.658	20.606	962.723	743.375
147.673	20.600	961.654	742.457
148.687	20.324	960.921	740.650
149.702	20.203	959.790	739.195
150.716	20.105	959.223	738.274
151.731	20.367	958.504	738.772
152.746	20.402	957.676	738.215
153.760	20.499	957.040	738.072
154.775	20.630	956.461	738.117
155.789	20.508	956.050	737.217
156.804	20.700	954.914	737.090
157.819	20.613	954.693	736.485
158.833	21.018	953.971	737.577
159.848	21.119	953.329	737.442
160.862	20.780	951.932	734.864
161.877	20.378	950.598	732.075
162.892	20.195	949.321	730.255
163.906	20.141	948.237	729.133
164.921	20.120	947.575	728.472
165.935	20.299	946.554	728.373
166.950	20.363	945.904	728.076
167.964	20.411	944.899	727.438
168.979	20.266	943.684	725.833
169.994	20.163	943.515	725.207
171.008	20.508	942.805	726.039
172.023	20.776	942.425	726.799
173.037	21.006	941.787	727.204
174.052	20.848	940.385	725.401
175.067	20.237	940.019	722.507
176.081	19.931	939.208	720.550
177.096	20.015	938.449	720.250
178.110	20.194	937.788	720.425
179.125	20.205	937.226	719.973
180.140	20.202	937.339	719.986
181.154	20.726	936.901	721.757
182.169	20.815	936.740	721.941
183.183	20.867	936.096	721.594
184.198	20.699	935.320	720.235
185.213	20.742	934.595	719.794
186.227	20.851	934.107	719.803
187.242	21.001	933.669	720.022
188.256	21.033	933.026	719.593
189.271	21.060	932.033	718.877
190.286	20.604	931.120	716.230
191.300	20.133	929.617	713.073
192.315	19.872	929.198	711.618
193.329	20.076	928.727	712.032
194.344	20.257	928.036	712.183
195.359	20.170	927.902	711.657
196.373	20.520	927.331	712.593
197.388	20.848	926.727	713.409
198.402	21.053	926.524	714.028
199.417	21.240	926.035	714.355
200.432	21.387	926.113	714.951
201.446	21.652	925.226	715.286
202.461	21.515	925.074	714.546
203.475	21.255	924.051	712.631
204.490	20.827	923.046	710.052
205.504	20.779	921.883	708.897
206.519	20.721	921.274	708.130
207.534	20.614	920.762	707.241
208.548	20.855	919.986	707.557
209.563	20.790	919.454	706.822
210.577	20.839	918.782	706.445
211.592	21.159	918.387	707.374
212.607	21.458	917.506	707.843
213.621	21.094	917.583	706.367
214.636	21.215	915.973	705.554
215.650	21.103	915.771	704.882
216.665	21.340	914.826	705.048
217.680	21.359	914.432	704.759
218.694	21.411	913.930	704.519
219.709	21.217	913.151	703.075
220.723	21.240	912.368	702.504
221.738	21.106	911.395	701.153
222.753	21.177	910.796	700.918
223.767	21.358	910.320	701.215
224.782	21.466	910.336	701.599
225.796	21.446	909.801	701.041
226.811	21.225	908.916	699.414
227.826	21.171	907.532	698.070
228.840	21.042	906.975	697.064
229.855	20.928	906.245	695.988
230.869	20.973	905.649	695.650
231.884	20.899	904.898	694.714
232.899	20.794	903.970	693.522
233.913	20.729	903.206	692.616
234.928	20.581	902.657	691.545
235.942	20.499	902.167	690.781
236.957	20.563	901.666	690.593
237.972	20.538	901.019	689.935
238.986	20.602	900.406	689.662
240.001	20.526	899.709	688.763
241.015	20.630	899.346	688.838
242.030	20.700	899.115	688.874
243.045	20.838	898.649	689.003
244.059	20.929	898.104	688.885
245.074	21.211	897.142	689.199
246.088	21.200	897.189	689.132
247.103	21.321	896.640	689.126
248.117	21.566	896.658	690.046
249.132	21.962	896.453	691.385
250.147	22.221	895.657	691.731
251.161	22.370	894.962	691.718
252.176	22.196	894.997	691.001
253.190	22.374	894.126	690.966
254.205	22.437	893.817	690.910
255.220	22.289	892.807	689.490
256.234	22.204	892.219	688.641
257.249	22.194	891.296	687.831
258.263	22.176	890.517	687.098
259.278	22.277	889.424	686.587
260.293	22.245	889.440	686.412
261.307	22.419	888.662	686.430
262.322	22.340	888.485	685.924
263.336	22.388	887.640	685.401
264.351	22.335	887.007	684.643
265.366	22.358	886.497	684.280
266.380	22.454	885.551	683.864
267.395	22.259	885.021	682.637
268.409	22.207	884.142	681.696
269.424	22.105	883.356	680.635
270.439	21.825	883.037	679.242
271.453	21.911	881.918	678.657
272.468	21.746	881.343	677.515
273.482	21.826	880.663	677.243
274.497	21.833	880.218	676.868
275.512	21.880	879.754	676.631
276.526	21.813	879.758	676.314
277.541	22.034	878.817	676.384
278.555	22.298	878.469	677.073
279.570	22.464	878.289	677.513
280.585	22.423	877.003	676.301
281.599	22.150	876.113	674.508
282.614	21.888	875.344	672.854
283.628	21.967	874.763	672.647
284.643	21.928	874.417	672.175
285.657	21.787	873.892	671.172
286.672	21.829	873.283	670.804
287.687	22.171	872.286	671.285
288.701	21.962	871.949	670.169
289.716	22.012	871.410	669.885
290.730	22.062	870.848	669.585
291.745	22.131	870.154	669.256
292.760	22.310	869.795	669.604
293.774	22.563	869.097	669.969
294.789	22.523	868.417	669.233
295.803	22.192	867.313	667.066
296.818	21.972	866.942	665.886
297.833	21.910	866.568	665.306
298.847	22.043	865.584	664.994
299.862	22.204	865.256	665.295
300.876	22.352	864.839	665.475
301.891	22.528	864.447	665.779
302.906	22.594	864.261	665.824
303.920	22.897	863.961	666.679
304.935	23.008	863.305	666.533
305.949	22.802	862.445	665.034
306.964	22.339	861.938	662.839
307.979	22.410	860.992	662.323
308.993	22.501	860.795	662.453
310.008	22.554	860.341	662.244
311.022	22.512	859.591	661.452
312.037	22.187	858.768	659.540
313.052	21.980	858.230	658.292
314.066	21.823	857.248	656.892
315.081	21.835	856.589	656.372
316.095	21.884	855.969	656.026
317.110	21.938	855.141	655.535
318.125	21.745	854.943	654.603
319.139	21.771	854.018	653.935
320.154	21.767	853.864	653.744
321.168	21.847	853.385	653.617
322.183	22.051	852.525	653.660
323.197	22.049	852.410	653.505
324.212	22.040	851.949	653.060
325.227	21.965	851.303	652.229
326.241	21.834	850.665	651.198
327.256	21.846	850.042	650.706
328.270	21.984	849.520	650.760
329.285	21.825	848.678	649.469
330.300	21.923	847.839	649.135
331.314	21.941	847.784	649.099
332.329	22.196	847.443	649.726
333.343	22.346	847.308	650.117
334.358	22.434	846.843	650.029
335.373	22.517	846.309	649.867
336.387	22.553	846.267	649.909
337.402	22.636	846.165	650.082
338.416	22.779	846.526	650.826
339.431	22.946	845.717	650.763
340.446	23.015	845.270	650.615
341.460	22.963	845.206	650.317
342.475	23.126	844.971	650.680
343.489	23.395	844.095	650.934
344.504	23.431	843.837	650.809
345.519	23.511	843.375	650.691
346.533	23.236	842.652	649.066
347.548	22.843	841.699	646.835
348.562	22.672	841.081	645.676
349.577	22.492	840.203	644.288
350.592	22.400	838.959	642.939
351.606	22.306	838.530	642.210
352.621	22.357	838.067	641.984
353.635	22.495	837.689	642.142
354.650	22.547	836.987	641.737
355.665	22.757	835.914	641.622
356.679	22.802	835.612	641.495
357.694	22.811	835.333	641.257
358.708	22.713	834.692	640.353
359.723	22.791	833.956	640.016
360.738	22.719	833.642	639.457
361.752	22.798	832.985	639.181
362.767	23.216	832.491	640.258
363.781	23.263	832.393	640.296
364.796	23.365	832.375	640.594
365.810	23.420	832.447	640.792
366.825	23.493	831.963	640.627
367.840	23.424	830.617	639.285
368.854	23.064	830.106	637.539
369.869	23.045	829.674	637.082
370.883	23.227	829.534	637.573
371.898	23.398	828.714	637.502
372.913	23.501	828.235	637.448
373.927	23.129	828.054	635.915
374.942	23.377	827.373	636.225
375.956	23.467	826.996	636.201
376.971	23.481	827.129	636.297
377.986	23.699	825.932	636.101
379.000	23.660	826.056	636.001
380.015	23.638	825.152	635.170
381.029	23.601	824.900	634.787
382.044	23.793	823.988	634.716
383.059	23.532	823.645	633.465
384.073	23.513	822.491	632.454
385.088	23.266	821.615	630.843
386.102	23.035	821.028	629.515
387.117	23.043	820.095	628.770
388.132	22.907	819.574	627.832
389.146	23.004	819.381	627.973
390.161	23.492	819.399	629.666
391.175	23.491	818.949	629.259
392.190	23.265	818.047	627.711
393.205	23.151	817.362	626.726
394.219	22.920	816.857	625.466
395.234	22.913	816.400	625.033
396.248	22.835	815.577	624.073
397.263	22.838	815.172	623.718
398.278	22.754	815.079	623.298
399.292	22.595	814.779	622.450
400.307	22.643	813.890	621.885
401.321	22.661	813.719	621.762
402.336	22.863	813.592	622.325
403.350	23.299	812.888	623.264
404.365	23.451	812.728	623.621
405.380	23.732	812.534	624.406
406.394	23.855	811.706	624.144
407.409	23.883	811.727	624.206
408.423	23.876	811.691	624.097
409.438	23.995	811.397	624.232
410.453	24.082	810.799	624.024
411.467	23.994	810.462	623.400
412.482	24.088	809.896	623.238
413.496	24.215	809.616	623.410
414.511	24.133	809.375	622.886
415.526	24.135	808.254	621.975
416.540	23.959	807.915	621.043
417.555	23.965	807.640	620.800
418.569	23.992	806.993	620.340
419.584	24.071	806.523	620.200
420.599	23.888	806.137	619.209
421.613	163.657	1371.639	1797.960
422.628	142.373	1454.014	1798.037
