DTS Sentinel unit serial number:	SN413079Multiplexer serial number:	ORYXHardware model number:	OX4-SRSoftware version number:	ORYX F/W v4.00 Oryx Data Collector v3.7.2.0data status	okinstallation	princeton_trtdifferential loss correction	single-endedforward channel	channel 1reverse channel	N/Adate	2019/09/12time	18:29:34forward acquisition time	15.00reverse acquisition time	0.00gamma	496.2192k internal	0.2318k external	0.2318temperature offset calibration	1.0108default loss term (dB/km)	0.3790temperature slope calibration	1.0000multiplexer offset coefficient	1.0000multiplexer slope coefficient	1.0000fibre end	0.00T internal ref (°C)	33.25T ext. ref 1 (°C)	2.96T ext. ref 2 (°C)	27.86length (m)	temperature (°C)	Stokes	anti-Stokes-747.200	447.388	0.196	-0.437
-746.185	-123.096	-0.508	0.083
-745.171	-200.000	-0.037	0.186
-744.156	-71.495	-0.216	-0.082
-743.142	-169.543	0.237	0.009
-742.127	376.699	-0.331	0.684
-741.112	22.968	0.298	0.247
-740.098	-48.646	0.079	0.038
-739.083	-200.000	-0.118	0.623
-738.069	-200.000	-0.017	0.105
-737.054	-128.063	0.274	0.040
-736.039	132.682	-0.442	0.577
-735.025	-56.605	0.391	0.175
-734.010	-119.614	-0.465	0.081
-732.996	-200.000	0.018	-1.091
-731.981	-114.031	1.188	-0.233
-730.966	-5.832	-0.349	-0.242
-729.952	-200.000	0.121	-0.791
-728.937	-38.983	-0.174	0.092
-727.923	124.705	-0.352	-0.448
-726.908	172.843	0.290	-0.422
-725.894	-5.766	-0.528	-0.366
-724.879	-74.983	-0.453	-0.164
-723.864	734.484	-0.267	0.723
-722.850	345.892	-0.141	0.281
-721.835	307.362	-0.218	0.410
-720.821	-133.818	0.778	0.098
-719.806	-38.468	0.045	-0.024
-718.791	-110.344	-0.840	-0.177
-717.777	-200.000	-0.080	-0.691
-716.762	7.952	-0.672	0.510
-715.748	-200.000	-0.050	-0.414
-714.733	-173.352	-0.406	-0.012
-713.718	503.447	0.219	-0.512
-712.704	-0.419	-0.295	0.212
-711.689	78.987	-0.201	-0.218
-710.675	-200.000	-0.119	-0.631
-709.660	321.160	0.150	0.287
-708.645	-200.000	0.164	0.944
-707.631	800.000	-0.098	0.432
-706.616	800.000	0.088	-0.304
-705.602	-143.306	-0.557	0.054
-704.587	35.707	0.310	-0.275
-703.572	573.617	0.132	0.325
-702.558	3.379	-0.685	-0.504
-701.543	-200.000	0.085	-0.948
-700.529	-84.242	-0.498	0.159
-699.514	800.000	0.299	-1.064
-698.499	30.959	0.248	-0.215
-697.485	21.593	-0.173	-0.143
-696.470	800.000	0.230	0.660
-695.456	-157.759	-0.999	-0.060
-694.441	-93.838	0.413	0.115
-693.426	-122.392	-0.357	-0.059
-692.412	-192.986	-0.968	-0.009
-691.397	4.704	0.863	-0.640
-690.383	27.739	0.426	-0.362
-689.368	-200.000	-0.001	0.718
-688.354	-148.538	-0.684	-0.056
-687.339	-181.627	0.799	0.016
-686.324	800.000	0.029	-0.085
-685.310	-76.146	0.631	0.225
-684.295	-200.000	-0.014	-0.886
-683.281	-200.000	0.103	-0.956
-682.266	35.628	0.754	-0.669
-681.251	-180.948	0.318	-0.006
-680.237	800.000	-0.237	-0.690
-679.222	-8.358	-1.076	-0.731
-678.208	-200.000	0.059	-0.818
-677.193	-68.700	0.760	-0.297
-676.178	-200.000	-0.016	-0.159
-675.164	57.149	-0.285	0.281
-674.149	-16.019	-0.563	0.362
-673.135	-49.672	-0.465	-0.223
-672.120	-76.161	-0.401	0.143
-671.105	19.366	0.579	0.470
-670.091	-200.000	-0.084	0.401
-669.076	23.046	0.425	-0.352
-668.062	-112.888	0.324	-0.065
-667.047	-132.344	1.200	-0.156
-666.032	-60.567	0.397	0.170
-665.018	24.026	0.507	-0.422
-664.003	-200.000	-0.081	-0.639
-662.989	-131.422	-0.631	-0.084
-661.974	-181.560	0.502	0.010
-660.959	122.123	-0.383	0.482
-659.945	800.000	0.070	0.207
-658.930	800.000	0.153	0.583
-657.916	-68.076	-0.758	-0.298
-656.901	539.747	0.355	0.852
-655.886	-42.894	0.607	-0.311
-654.872	-50.433	-0.139	-0.066
-653.857	24.884	-0.128	0.107
-652.843	121.569	-0.416	-0.523
-651.828	169.016	0.197	-0.283
-650.814	-69.534	-0.502	0.194
-649.799	68.763	-0.324	0.335
-648.784	-97.753	0.658	0.172
-647.770	114.742	-0.463	0.569
-646.755	132.891	-0.537	-0.699
-645.741	272.119	0.307	-0.545
-644.726	-78.052	0.455	0.158
-643.711	800.000	-0.134	0.373
-642.697	10.203	-0.060	0.046
-641.682	222.300	0.334	0.541
-640.668	24.948	-0.200	-0.167
-639.653	-7.625	0.162	-0.111
-638.638	-39.882	0.035	0.019
-637.624	-200.000	0.023	-0.852
-636.609	-104.222	-0.559	0.131
-635.595	-3.362	0.644	0.452
-634.580	159.063	0.123	-0.172
-633.565	117.891	-0.521	-0.647
-632.551	-200.000	-0.009	-0.678
-631.536	-96.707	-0.302	0.080
-630.522	302.881	-0.454	-0.847
-629.507	289.664	-0.478	-0.875
-628.492	-59.902	0.125	0.054
-627.478	61.196	0.433	-0.433
-626.463	64.050	-0.170	-0.173
-625.449	-102.096	0.417	0.101
-624.434	515.371	0.180	-0.423
-623.419	91.676	-0.387	-0.438
-622.405	800.000	-0.226	-0.629
-621.390	800.000	-0.288	1.034
-620.376	-36.384	0.484	0.263
-619.361	-200.000	0.096	-0.557
-618.346	85.751	-0.307	0.340
-617.332	51.560	-0.639	-0.611
-616.317	192.568	-0.035	0.053
-615.303	-95.922	-0.381	0.102
-614.288	-48.417	1.102	0.534
-613.273	-34.697	-0.421	-0.232
-612.259	-61.450	0.464	0.197
-611.244	800.000	-0.077	0.315
-610.230	-87.210	-0.754	0.231
-609.215	800.000	-0.165	-0.469
-608.201	278.733	0.014	-0.025
-607.186	-54.678	0.397	-0.181
-606.171	-159.976	-0.284	-0.016
-605.157	455.356	-0.054	-0.120
-604.142	-36.566	0.345	0.187
-603.128	-200.000	-0.021	0.803
-602.113	-200.000	-0.017	0.099
-601.098	271.207	0.335	-0.594
-600.084	-185.566	0.934	-0.014
-599.069	170.442	-0.479	0.690
-598.055	120.171	0.489	0.611
-597.040	-151.702	-0.220	0.016
-596.025	-31.169	0.433	-0.246
-595.011	630.796	0.281	-0.715
-593.996	-55.413	0.464	-0.210
-592.982	-71.961	0.187	-0.070
-591.967	88.446	0.390	0.436
-590.952	48.479	0.533	0.503
-589.938	-73.036	0.394	-0.146
-588.923	251.148	-0.281	0.480
-587.909	199.171	0.232	0.357
-586.894	800.000	0.109	0.374
-585.879	800.000	0.200	-0.671
-584.865	205.293	0.191	-0.299
-583.850	-185.104	0.638	-0.010
-582.836	-68.603	0.910	0.354
-581.821	229.381	-0.231	-0.380
-580.806	-99.240	-0.500	-0.127
-579.792	194.865	-0.261	0.398
-578.777	31.884	0.596	0.516
-577.763	158.183	-0.473	0.659
-576.748	46.109	0.295	-0.274
-575.733	-200.000	0.052	0.514
-574.719	61.482	-0.474	0.474
-573.704	-61.469	-0.032	0.014
-572.690	571.372	-0.195	0.477
-571.675	-58.140	-0.461	0.202
-570.661	-127.725	0.994	-0.144
-569.646	198.376	0.378	0.581
-568.631	-200.000	-0.077	0.494
-567.617	-14.291	-0.092	-0.060
-566.602	67.731	0.238	-0.244
-565.588	800.000	-0.156	-0.632
-564.573	-87.469	0.254	0.077
-563.558	-70.911	-0.315	-0.119
-562.544	27.459	-0.513	0.433
-561.529	800.000	0.174	-0.507
-560.515	-200.000	-0.036	0.912
-559.500	35.474	-0.680	0.600
-558.485	555.931	0.115	-0.278
-557.471	800.000	0.200	-0.690
-556.456	-11.951	0.455	0.300
-555.442	-200.000	0.019	0.326
-554.427	-71.353	-0.382	0.144
-553.412	-115.182	-0.542	0.103
-552.398	298.407	-0.497	0.918
-551.383	0.317	0.314	0.225
-550.369	-52.340	1.299	-0.604
-549.354	-200.000	0.063	-0.391
-548.339	-115.266	0.929	0.176
-547.325	-200.000	-0.040	0.300
-546.310	-121.925	-0.441	0.073
-545.296	-84.291	0.397	-0.126
-544.281	-42.509	-0.591	0.303
-543.266	-74.213	0.145	-0.053
-542.252	-138.559	0.353	0.039
-541.237	749.641	0.150	-0.406
-540.223	-101.007	-0.831	0.205
-539.208	-200.000	0.026	0.166
-538.193	78.768	0.380	-0.408
-537.179	-81.460	0.605	-0.200
-536.164	-50.199	-0.382	0.181
-535.150	149.850	0.738	1.004
-534.135	-200.000	0.082	0.436
-533.121	-120.258	-0.389	-0.067
-532.106	-152.444	-0.506	0.037
-531.091	405.493	-0.065	0.138
-530.077	91.626	0.717	0.809
-529.062	-32.789	-0.952	-0.531
-528.048	35.929	-0.575	-0.508
-527.033	-113.993	-0.483	-0.094
-526.018	281.373	0.056	-0.100
-525.004	214.837	0.274	-0.435
-523.989	225.720	0.336	0.547
-522.975	482.189	-0.143	0.327
-521.960	-66.576	0.572	-0.228
-520.945	23.848	0.366	-0.303
-519.931	-200.000	-0.025	-0.187
-518.916	78.822	-0.174	0.187
-517.902	-65.128	-1.235	0.500
-516.887	-103.550	-0.542	0.128
-515.872	-86.010	0.629	0.195
-514.858	215.711	0.541	-0.862
-513.843	-173.676	-0.330	-0.010
-512.829	37.761	0.272	-0.243
-511.814	-64.151	-0.372	-0.152
-510.799	-47.481	0.362	0.177
-509.785	-183.749	-0.129	-0.002
-508.770	81.030	0.678	-0.734
-507.756	137.507	-0.324	-0.425
-506.741	-96.246	0.238	-0.063
-505.726	452.935	-0.399	0.886
-504.712	91.644	-0.240	-0.271
-503.697	-8.779	-0.228	0.153
-502.683	118.106	-0.648	0.800
-501.668	116.158	-0.106	-0.130
-500.653	-70.003	0.642	0.245
-499.639	-12.488	0.044	-0.029
-498.624	-200.000	-0.026	0.194
-497.610	-200.000	0.011	-0.136
-496.595	-200.000	0.002	0.029
-495.581	-200.000	0.180	-0.998
-494.566	-7.238	-0.255	0.173
-493.551	-25.402	0.556	-0.330
-492.537	227.057	-0.131	-0.213
-491.522	-200.000	0.065	-0.459
-490.508	-200.000	0.064	-0.534
-489.493	-1.782	-0.509	-0.359
-488.478	-200.000	-0.259	0.000
-487.464	-164.138	-0.396	0.018
-486.449	-9.536	0.669	0.447
-485.435	-138.183	-0.198	0.022
-484.420	-77.690	-0.244	-0.084
-483.405	645.986	0.015	-0.039
-482.391	-200.000	-0.017	-0.521
-481.376	-66.192	-1.309	-0.523
-480.362	800.000	-0.146	-0.632
-479.347	-60.726	-0.308	-0.131
-478.332	213.511	0.282	-0.447
-477.318	-200.000	0.018	0.136
-476.303	57.536	-0.536	-0.525
-475.289	800.000	0.113	0.411
-474.274	-168.194	0.497	-0.019
-473.259	97.588	0.410	-0.472
-472.245	257.191	0.354	0.609
-471.230	-70.695	0.921	0.348
-470.216	68.903	-0.394	0.405
-469.201	156.249	0.440	-0.608
-468.186	192.690	0.140	-0.212
-467.172	195.389	0.333	0.507
-466.157	-59.039	-1.062	-0.459
-465.143	169.078	0.047	-0.067
-464.128	268.729	0.320	-0.562
-463.113	-81.859	0.169	-0.055
-462.099	8.819	-0.754	-0.569
-461.084	-90.882	-0.416	0.120
-460.070	258.982	0.456	0.787
-459.055	800.000	0.101	0.356
-458.040	616.344	-0.058	0.145
-457.026	70.586	-0.378	-0.391
-456.011	-98.171	0.540	0.139
-454.997	340.870	0.135	0.263
-453.982	800.000	0.191	-0.613
-452.968	296.975	-0.236	-0.433
-451.953	-0.307	-0.326	-0.232
-450.938	-200.000	-0.017	-0.565
-449.924	-200.000	0.056	-0.628
-448.909	-112.940	-0.982	0.195
-447.895	-157.370	-0.242	0.015
-446.880	-142.688	0.557	0.054
-445.865	1.465	-0.467	0.336
-444.851	-127.457	0.327	-0.047
-443.836	-70.375	-0.016	-0.006
-442.822	-200.000	-0.195	-0.905
-441.807	-56.126	-0.388	-0.173
-440.792	-200.000	-0.088	0.796
-439.778	310.651	0.693	1.297
-438.763	75.428	0.541	-0.571
-437.749	-38.910	0.295	0.155
-436.734	750.099	0.246	-0.664
-435.719	-200.000	-0.016	-0.381
-434.705	172.021	0.412	0.592
-433.690	39.902	-0.439	0.395
-432.676	26.889	-0.539	0.452
-431.661	628.701	0.123	0.310
-430.646	-132.721	-0.175	-0.022
-429.632	-119.513	-0.954	-0.165
-428.617	-163.395	-0.498	-0.024
-427.603	-118.218	0.230	-0.041
-426.588	-4.934	0.482	0.332
-425.573	46.274	-0.311	-0.289
-424.559	-73.404	0.214	-0.078
-423.544	-154.760	0.305	-0.020
-422.530	243.803	0.166	0.279
-421.515	-48.596	-0.239	-0.115
-420.500	-81.919	0.400	0.131
-419.486	-69.483	-0.861	0.330
-418.471	100.768	-0.651	-0.756
-417.457	-200.000	0.026	0.241
-416.442	800.000	0.095	-0.350
-415.428	-52.134	-0.211	0.098
-414.413	456.096	-0.104	-0.232
-413.398	-200.000	0.045	-0.206
-412.384	90.022	-0.274	0.306
-411.369	800.000	0.131	-0.425
-410.355	-10.438	-0.342	-0.226
-409.340	153.244	0.163	-0.223
-408.325	800.000	-0.182	-0.527
-407.311	222.481	0.446	-0.718
-406.296	70.655	-0.448	-0.463
-405.282	116.464	-0.209	-0.256
-404.267	-200.000	-0.024	0.321
-403.252	800.000	0.140	0.494
-402.238	288.442	-0.229	0.413
-401.223	95.265	-0.434	0.494
-400.209	-112.451	0.279	-0.056
-399.194	75.028	-0.810	0.852
-398.179	-38.009	0.477	0.253
-397.165	403.794	0.349	0.733
-396.150	-139.900	0.706	-0.075
-395.136	174.064	0.260	0.374
-394.121	430.415	-0.094	0.203
-393.106	800.000	-0.057	0.207
-392.092	131.006	0.591	-0.757
-391.077	0.058	-0.450	0.320
-390.063	-63.161	-0.684	-0.282
-389.048	107.392	-0.155	0.184
-388.033	-186.644	0.413	0.006
-387.019	4.858	0.638	0.468
-386.004	183.196	0.202	0.298
-384.990	194.211	0.394	0.596
-383.975	-200.000	-0.084	-0.627
-382.960	36.042	-0.589	0.517
-381.946	16.881	0.259	-0.205
-380.931	800.000	0.069	0.221
-379.917	-103.274	0.706	-0.166
-378.902	-9.882	-0.479	0.318
-377.888	-102.030	0.367	-0.088
-376.873	717.227	0.181	-0.480
-375.858	-148.848	-0.786	-0.063
-374.844	36.879	-0.410	-0.362
-373.829	-33.100	0.276	-0.153
-372.815	-91.672	0.506	0.144
-371.800	-44.803	0.383	-0.191
-370.785	359.996	0.143	-0.285
-369.771	91.088	-0.201	0.225
-368.756	-89.895	0.429	-0.125
-367.742	-156.924	0.505	-0.031
-366.727	-23.394	0.645	-0.386
-365.712	466.283	-0.353	0.788
-364.698	-2.464	-0.691	-0.482
-363.683	-200.000	-0.025	0.127
-362.669	-200.000	0.010	-0.579
-361.654	124.941	0.102	-0.129
-360.639	-158.856	-0.704	0.040
-359.625	-200.000	0.018	-0.214
-358.610	-84.505	0.385	-0.121
-357.596	-45.487	0.577	-0.285
-356.581	-47.272	-0.429	0.208
-355.566	-200.000	0.021	-0.497
-354.552	192.091	-0.092	-0.138
-353.537	121.026	0.302	0.375
-352.523	-10.917	-0.145	0.096
-351.508	-26.768	-0.235	-0.137
-350.493	-200.000	-0.002	0.382
-349.479	109.560	-0.200	-0.238
-348.464	19.009	-0.540	-0.432
-347.450	-103.720	-0.302	0.071
-346.435	12.150	-0.424	-0.325
-345.420	-165.610	-0.414	-0.018
-344.406	-97.160	-0.088	0.023
-343.391	5.983	-0.471	0.348
-342.377	-200.000	-0.021	0.483
-341.362	-3.606	-0.270	-0.187
-340.348	-48.410	-0.375	0.180
-339.333	219.753	0.131	-0.209
-338.318	-200.000	-0.004	0.290
-337.304	65.459	-0.082	0.082
-336.289	800.000	-0.173	-0.588
-335.275	260.293	0.151	-0.261
-334.260	800.000	0.074	0.284
-333.245	-200.000	-0.060	0.935
-332.231	20.337	0.728	-0.586
-331.216	-78.049	0.405	0.139
-330.202	-171.130	-0.301	-0.010
-329.187	800.000	-0.093	-0.369
-328.172	218.119	0.166	-0.264
-327.158	-15.050	-0.401	-0.256
-326.143	-96.219	0.437	0.115
-325.129	-200.000	0.024	0.576
-324.114	-143.644	-0.725	-0.069
-323.099	-72.688	0.237	0.087
-322.085	-200.000	0.039	0.862
-321.070	-141.682	-0.119	-0.012
-320.056	800.000	-0.286	-0.893
-319.041	266.053	0.207	-0.359
-318.026	-26.621	-0.263	0.153
-317.012	13.780	-0.249	0.193
-315.997	-150.114	-0.081	0.006
-314.983	-48.168	-0.578	0.278
-313.968	225.205	-0.178	-0.287
-312.953	-200.000	-0.153	-0.947
-311.939	-171.431	0.279	-0.009
-310.924	-200.000	0.019	0.981
-309.910	749.417	-0.131	0.352
-308.895	-200.000	0.040	0.215
-307.880	-82.542	0.353	-0.114
-306.866	-64.077	-0.227	0.092
-305.851	56.670	0.121	0.118
-304.837	-153.214	1.257	0.087
-303.822	-200.000	-0.068	-0.646
-302.807	800.000	-0.214	-0.657
-301.793	158.171	-0.348	-0.480
-300.778	500.253	-0.237	-0.543
-299.764	-200.000	-0.047	-0.539
-298.749	-137.381	-0.341	-0.038
-297.735	-1.217	0.519	0.365
-296.720	243.962	0.432	0.721
-295.705	-114.484	0.773	-0.148
-294.691	-32.689	-0.478	-0.264
-293.676	-152.074	0.836	0.060
-292.662	-32.315	0.413	-0.229
-291.647	-95.705	-0.612	0.163
-290.632	-92.886	0.437	-0.121
-289.618	-169.417	-0.453	0.017
-288.603	-200.000	0.119	-0.606
-287.589	-83.136	0.813	-0.260
-286.574	-106.625	-0.479	-0.106
-285.559	176.852	-0.286	0.413
-284.545	800.000	0.235	0.730
-283.530	94.095	-0.234	0.264
-282.516	-116.023	0.320	-0.059
-281.501	-135.449	0.141	0.017
-280.486	206.104	-0.100	0.155
-279.472	-147.590	0.726	0.061
-278.457	310.823	0.356	-0.664
-277.443	-111.435	0.262	0.053
-276.428	-52.015	-0.288	0.133
-275.413	504.897	0.107	-0.246
-274.399	483.392	-0.134	0.303
-273.384	800.000	0.117	-0.399
-272.370	-166.710	0.144	0.006
-271.355	99.098	-0.573	0.658
-270.340	-120.278	-0.451	-0.076
-269.326	-99.122	0.433	0.109
-268.311	-55.761	-0.387	-0.172
-267.297	-127.521	-0.368	0.053
-266.282	63.788	-0.147	-0.147
-265.267	338.527	0.155	0.300
-264.253	-168.841	0.311	0.012
-263.238	-163.510	0.417	-0.020
-262.224	800.000	-0.180	-0.563
-261.209	-123.240	0.849	0.135
-260.195	-99.376	-0.490	0.123
-259.180	-69.365	0.390	-0.149
-258.165	-143.184	-0.646	-0.062
-257.151	-200.000	0.028	0.164
-256.136	800.000	-0.219	0.702
-255.122	630.839	-0.250	0.627
-254.107	800.000	0.086	-0.286
-253.092	101.790	-0.246	-0.285
-252.078	-181.718	0.354	-0.007
-251.063	114.764	0.352	0.426
-250.049	85.565	0.347	0.379
-249.034	301.034	-0.376	-0.689
-248.019	800.000	0.067	0.281
-247.005	-165.135	-0.507	0.022
-245.990	-200.000	-0.000	0.294
-244.976	264.114	-0.148	-0.256
-243.961	-47.872	-0.381	0.183
-242.946	249.441	0.533	0.897
-241.932	-49.426	0.465	0.220
-240.917	19.648	0.599	0.479
-239.903	-200.000	0.004	0.091
-238.888	148.615	-0.420	0.563
-237.873	104.816	-0.337	0.394
-236.859	3.873	-0.643	-0.466
-235.844	-101.654	-0.581	0.140
-234.830	-200.000	0.011	0.277
-233.815	463.113	0.362	-0.801
-232.800	-200.000	0.088	-0.664
-231.786	-200.000	0.070	0.541
-230.771	220.068	0.563	0.894
-229.757	-12.421	-0.444	0.288
-228.742	104.083	0.085	0.099
-227.727	-200.000	1.068	0.005
-226.713	-21.824	0.561	0.339
-225.698	-200.000	-0.112	-0.790
-224.684	-200.000	-0.073	0.462
-223.669	-25.751	-0.569	0.333
-222.655	-140.680	0.691	-0.071
-221.640	-106.588	-0.538	0.119
-220.625	-13.176	-0.315	-0.203
-219.611	308.060	0.274	0.507
-218.596	17.683	-0.281	-0.221
-217.582	-53.330	0.178	-0.081
-216.567	-166.565	-0.772	0.032
-215.552	-200.000	-0.059	-0.333
-214.538	-200.000	-0.055	0.357
-213.523	785.416	0.035	0.094
-212.509	212.301	-0.610	-0.953
-211.494	-16.828	0.584	0.366
-210.479	593.262	-0.194	-0.475
-209.465	624.444	-0.202	0.504
-208.450	-69.151	0.515	-0.196
-207.436	565.296	0.354	-0.850
-206.421	41.054	-0.569	-0.510
-205.406	800.000	0.082	-0.269
-204.392	-33.339	-0.413	0.226
-203.377	-200.000	-0.050	0.275
-202.363	-18.242	-0.592	0.367
-201.348	-200.000	-0.041	-1.253
-200.333	-70.850	0.505	0.189
-199.319	143.916	-0.557	-0.736
-198.304	-174.315	-0.136	-0.004
-197.290	76.196	0.026	0.028
-196.275	-71.595	0.650	-0.241
-195.260	212.489	0.417	0.651
-194.246	2.591	-0.810	-0.582
-193.231	-102.294	-1.053	0.250
-192.217	40.152	-0.360	-0.321
-191.202	388.165	0.337	0.690
-190.187	-95.407	-0.822	-0.219
-189.173	-200.000	0.031	-0.497
-188.158	3.222	-0.387	-0.279
-187.144	-25.028	0.260	0.153
-186.129	47.027	0.354	-0.326
-185.114	-29.008	0.754	0.428
-184.100	-200.000	-0.018	0.086
-183.085	-200.000	0.087	0.711
-182.071	-56.208	0.618	0.272
-181.056	800.000	0.164	0.485
-180.042	800.000	0.249	0.725
-179.027	-162.211	0.510	0.025
-178.012	-200.000	0.069	0.514
-176.998	-116.722	0.501	-0.091
-175.983	25.269	-0.534	0.439
-174.969	-126.838	-0.520	-0.076
-173.954	-83.936	-1.059	-0.333
-172.939	107.759	-0.567	0.669
-171.925	73.747	0.590	-0.612
-170.910	-200.000	0.043	-0.854
-169.896	-67.043	-0.195	0.076
-168.881	-200.000	-0.044	0.461
-167.866	-74.576	-0.211	-0.075
-166.852	-53.448	-0.630	-0.285
-165.837	278.971	0.643	1.136
-164.823	41.083	0.395	-0.353
-163.808	-113.767	0.431	-0.083
-162.793	-200.000	-0.140	-0.696
-161.779	-89.669	0.478	0.139
-160.764	-58.129	0.668	0.288
-159.750	57.667	0.621	-0.600
-158.735	290.688	0.151	-0.272
-157.720	800.000	0.060	-0.168
-156.706	48.043	0.228	0.211
-155.691	192.729	-0.536	0.800
-154.677	102.998	0.264	-0.306
-153.662	481.239	-0.088	-0.198
-152.647	27.062	-0.264	0.219
-151.633	-33.983	-0.256	0.139
-150.618	800.000	-0.209	0.717
-149.604	1.977	0.225	-0.160
-148.589	-140.755	-0.363	0.037
-147.574	186.383	-0.185	-0.273
-146.560	800.000	-0.197	-0.559
-145.545	18.230	-0.320	-0.253
-144.531	-91.889	0.517	0.145
-143.516	-200.000	0.218	0.001
-142.502	75.362	-0.381	0.397
-141.487	800.000	-0.178	-0.490
-140.472	800.000	0.194	-0.764
-139.458	594.063	0.243	0.595
-138.443	72.607	0.029	-0.030
-137.429	-44.114	0.433	-0.215
-136.414	4.464	0.187	0.135
-135.399	14.139	0.339	-0.261
-134.385	-200.000	-0.037	-0.369
-133.370	-1.889	-0.279	0.194
-132.356	225.755	0.130	0.208
-131.341	-78.950	0.680	0.229
-130.326	800.000	-0.135	-0.487
-129.312	800.000	-0.100	0.325
-128.297	-30.051	-0.102	-0.058
-127.283	-135.113	0.309	-0.037
-126.268	-82.638	-0.361	-0.115
-125.253	-200.000	0.028	0.137
-124.239	-102.267	-0.519	0.123
-123.224	-19.708	0.270	0.165
-122.210	604.600	0.525	-1.290
-121.195	48.425	-0.213	-0.197
-120.180	242.831	0.339	0.560
-119.166	5.793	-0.090	-0.066
-118.151	-69.627	-0.796	0.301
-117.137	135.346	0.261	0.336
-116.122	-118.044	0.573	-0.101
-115.107	201.752	-0.485	0.737
-114.093	-200.000	0.115	-0.508
-113.078	-178.185	0.642	0.015
-112.064	-73.842	0.530	0.190
-111.049	389.197	-0.197	-0.403
-110.034	-179.703	-0.207	-0.004
-109.020	232.873	0.427	0.693
-108.005	-200.000	-0.150	-0.694
-106.991	125.664	-0.255	0.317
-105.976	328.875	0.340	0.645
-104.962	-152.277	0.344	-0.025
-103.947	-36.972	-0.409	-0.216
-102.932	183.812	-0.149	0.217
-101.918	-17.288	-0.273	-0.170
-100.903	-200.000	0.003	0.091
-99.889	-133.053	-0.743	-0.093
-98.874	-94.776	-0.988	-0.265
-97.859	800.000	0.019	0.057
-96.845	78.412	0.316	-0.333
-95.830	142.587	-0.594	-0.778
-94.816	4.280	0.403	0.291
-93.801	800.000	-0.166	-0.609
-92.786	47.882	0.473	-0.436
-91.772	89.365	-0.707	0.778
-90.757	-200.000	0.013	0.185
-89.743	-200.000	0.037	0.597
-88.728	-101.515	0.077	-0.019
-87.713	-147.664	-0.598	0.050
-86.699	-85.139	0.646	-0.199
-85.684	59.375	0.537	0.522
-84.670	636.630	-0.337	0.844
-83.655	-123.278	0.554	-0.087
-82.640	-91.530	-0.567	0.159
-81.626	299.797	0.224	0.407
-80.611	800.000	0.184	-0.593
-79.597	-179.561	0.185	-0.004
-78.582	-135.447	0.184	-0.022
-77.567	-200.000	0.029	0.845
-76.553	32.199	0.408	-0.347
-75.538	-101.946	-0.277	-0.066
-74.524	-143.770	-0.746	-0.070
-73.509	-200.000	-0.058	0.657
-72.494	43.789	-0.163	0.147
-71.480	226.151	-0.382	0.612
-70.465	800.000	-0.083	0.306
-69.451	800.000	0.078	0.213
-68.436	183.100	-0.130	0.189
-67.422	-194.794	0.534	-0.004
-66.407	-200.000	0.176	0.765
-65.392	123.154	0.258	-0.318
-64.378	-29.620	0.351	-0.197
-63.363	3.619	0.591	-0.425
-62.349	645.575	0.161	0.406
-61.334	15.546	-1.110	-0.859
-60.319	-200.000	0.264	1.200
-59.305	-40.671	0.149	0.076
-58.290	-200.000	-0.121	0.894
-57.276	-200.000	0.184	1.879
-56.261	-200.000	95.610	572.867
-55.246	652.157	1365.694	3448.440
-54.232	200.669	2534.658	3839.254
-53.217	119.653	2130.963	2600.620
-52.203	44.909	1598.045	1449.252
-51.188	36.690	1338.003	1164.187
-50.173	33.650	1297.614	1111.222
-49.159	57.089	1345.945	1292.767
-48.144	58.215	1362.400	1315.218
-47.130	36.987	1320.475	1150.516
-46.115	33.475	1302.987	1114.615
-45.100	33.059	1298.695	1108.461
-44.086	33.059	1296.364	1106.429
-43.071	32.849	1293.240	1102.491
-42.057	33.520	1289.979	1103.575
-41.042	33.148	1289.969	1101.357
-40.027	33.328	1288.064	1100.734
-39.013	32.942	1287.135	1097.652
-37.998	33.128	1285.506	1097.299
-36.984	33.107	1283.742	1095.630
-35.969	33.332	1281.175	1094.695
-34.954	33.311	1279.793	1093.347
-33.940	33.607	1277.897	1093.393
-32.925	33.127	1277.964	1090.640
-31.911	33.217	1276.797	1090.121
-30.896	33.442	1273.480	1088.539
-29.881	33.406	1273.003	1087.878
-28.867	33.429	1270.919	1086.187
-27.852	33.305	1270.840	1085.368
-26.838	33.565	1269.313	1085.509
-25.823	33.455	1267.920	1083.642
-24.809	33.442	1265.579	1081.527
-23.794	33.297	1264.602	1079.823
-22.779	33.498	1262.968	1079.529
-21.765	33.130	1262.590	1077.066
-20.750	33.437	1261.050	1077.455
-19.736	33.193	1260.246	1075.341
-18.721	33.288	1259.328	1075.052
-17.706	33.036	1258.406	1072.793
-16.692	33.143	1256.461	1071.695
-15.677	33.182	1255.142	1070.751
-14.663	33.340	1253.939	1070.577
-13.648	33.233	1253.590	1069.631
-12.633	33.236	1252.846	1068.969
-11.619	32.958	1251.810	1066.475
-10.604	33.296	1250.341	1067.084
-9.590	33.063	1250.754	1066.084
-8.575	33.278	1248.566	1065.383
-7.560	33.255	1248.422	1065.090
-6.546	32.812	1248.532	1062.650
-5.531	33.251	1245.848	1062.787
-4.517	33.435	1244.402	1062.544
-3.502	33.187	1244.814	1061.463
-2.487	33.427	1242.308	1060.629
-1.473	32.939	1239.789	1055.706
-0.458	31.674	1224.845	1035.950
0.556	28.755	1207.669	996.196
1.571	25.103	1212.188	979.915
2.586	24.048	1227.746	986.561
3.600	23.353	1215.878	973.119
4.615	17.328	1144.450	884.624
5.629	7.678	1067.796	778.249
6.644	3.574	1046.740	743.107
7.659	2.857	1045.226	738.518
8.673	2.866	1044.587	738.042
9.688	2.546	1042.506	734.974
10.702	3.124	1041.731	737.130
11.717	9.455	1049.286	772.891
12.731	18.905	1064.196	829.628
13.746	24.393	1070.127	860.730
14.761	25.141	1071.267	865.184
15.775	25.353	1070.258	865.313
16.790	25.064	1069.439	863.182
17.804	25.072	1068.926	862.732
18.819	24.840	1068.556	861.240
19.834	24.796	1068.319	860.759
20.848	25.258	1067.356	862.131
21.863	25.429	1066.480	862.165
22.877	25.338	1065.964	861.237
23.892	25.113	1065.639	859.819
24.907	24.875	1064.839	857.958
25.921	25.265	1063.716	858.844
26.936	25.056	1061.656	856.102
27.950	25.090	1061.372	855.960
28.965	24.959	1059.640	853.864
29.980	24.987	1058.784	853.233
30.994	25.439	1057.057	853.918
32.009	25.092	1056.720	851.917
33.023	25.112	1054.936	850.499
34.038	25.117	1055.382	850.808
35.053	25.079	1054.228	849.621
36.067	25.034	1053.422	848.683
37.082	25.394	1051.548	848.803
38.096	25.631	1050.368	848.892
39.111	25.468	1050.085	847.820
40.126	24.809	1049.756	844.369
41.140	24.765	1047.847	842.554
42.155	24.992	1046.490	842.454
43.169	24.810	1045.798	840.968
44.184	24.905	1044.367	840.189
45.199	25.004	1044.253	840.488
46.213	24.905	1043.928	839.688
47.228	25.379	1041.506	839.880
48.242	25.322	1041.890	839.852
49.257	24.855	1042.063	837.731
50.271	25.490	1039.770	838.779
51.286	25.312	1039.992	838.050
52.301	25.604	1038.744	838.331
53.315	25.029	1038.154	835.103
54.330	25.177	1037.242	834.983
55.344	25.094	1036.721	834.104
56.359	25.224	1034.874	833.151
57.374	24.879	1034.573	831.229
58.388	24.899	1033.523	830.405
59.403	24.693	1033.368	829.254
60.417	24.776	1032.642	828.982
61.432	24.829	1031.028	827.858
62.447	24.966	1029.800	827.433
63.461	24.955	1030.591	827.945
64.476	24.745	1029.389	825.933
65.490	24.667	1027.791	824.220
66.505	24.977	1027.741	825.536
67.520	25.020	1026.498	824.660
68.534	24.920	1024.771	822.742
69.549	24.378	1025.342	820.633
70.563	24.449	1024.949	820.574
71.578	24.733	1023.106	820.331
72.593	24.257	1022.972	817.966
73.607	24.390	1021.824	817.584
74.622	24.651	1022.724	819.429
75.636	24.734	1021.144	818.471
76.651	24.585	1020.921	817.537
77.666	25.002	1018.598	817.508
78.680	24.931	1018.202	816.793
79.695	24.484	1018.199	814.681
80.709	24.882	1016.725	815.244
81.724	24.796	1017.439	815.351
82.739	24.718	1016.629	814.272
83.753	25.203	1015.138	815.212
84.768	25.650	1014.334	816.525
85.782	25.522	1013.746	815.400
86.797	25.773	1013.448	816.225
87.812	25.240	1013.193	813.529
88.826	25.249	1011.288	811.969
89.841	25.228	1011.042	811.606
90.855	25.332	1009.751	810.966
91.870	25.348	1009.163	810.495
92.884	25.466	1007.373	809.518
93.899	25.110	1007.615	808.036
94.914	25.449	1005.726	807.973
95.928	25.254	1005.856	807.133
96.943	25.075	1004.169	804.903
97.957	25.132	1002.781	803.972
98.972	25.006	1002.009	802.720
99.987	24.972	1002.436	802.840
101.001	25.361	1000.291	802.787
102.016	25.241	999.280	801.369
103.030	25.239	998.527	800.686
104.045	25.441	997.869	800.986
105.060	25.283	997.638	800.025
106.074	25.518	995.675	799.430
107.089	25.412	995.120	798.441
108.103	25.413	994.307	797.720
109.118	24.920	993.383	794.723
110.133	24.667	993.352	793.504
111.147	24.775	991.953	792.793
112.162	24.606	991.227	791.395
113.176	25.009	990.506	792.536
114.191	25.147	988.933	791.812
115.206	24.818	988.325	789.805
116.220	24.529	988.409	788.525
117.235	24.698	986.595	787.753
118.249	24.781	985.529	787.201
119.264	24.761	985.284	786.847
120.279	24.653	984.592	785.748
121.293	24.846	983.394	785.569
122.308	24.691	982.851	784.386
123.322	24.507	981.024	782.052
124.337	24.671	981.100	782.763
125.352	24.348	979.366	779.897
126.366	24.294	978.848	779.183
127.381	24.901	977.838	780.958
128.395	25.346	977.559	782.605
129.410	25.217	977.131	781.632
130.424	25.357	975.429	780.810
131.439	25.145	975.112	779.565
132.454	25.235	974.681	779.544
133.468	25.445	972.881	778.945
134.483	25.379	973.224	778.866
135.497	25.508	971.413	777.905
136.512	25.190	972.172	777.066
137.527	25.454	971.276	777.425
138.541	25.432	970.302	776.479
139.556	25.727	968.140	775.954
140.570	25.473	968.835	775.346
141.585	26.130	966.212	776.005
142.600	25.843	965.729	774.315
143.614	25.606	965.795	773.279
144.629	25.619	965.439	772.981
145.643	25.410	965.062	771.715
146.658	25.337	963.114	769.775
147.673	25.530	961.793	769.476
148.687	25.207	960.581	767.059
149.702	25.167	959.874	766.253
150.716	25.305	958.670	765.817
151.731	25.616	956.988	765.728
152.746	25.740	956.608	765.884
153.760	25.628	956.541	765.286
154.775	25.574	957.283	765.581
155.789	25.632	955.289	764.167
156.804	25.588	954.583	763.345
157.819	25.605	953.572	762.542
158.833	25.902	952.814	763.127
159.848	25.987	951.840	762.639
160.862	26.061	949.716	761.180
161.877	25.837	949.674	760.137
162.892	25.861	949.371	759.927
163.906	25.869	947.877	758.696
164.921	25.649	947.063	757.052
165.935	25.660	947.195	757.140
166.950	25.571	945.642	755.455
167.964	25.701	945.306	755.666
168.979	25.408	943.698	753.087
169.994	25.621	942.549	752.994
171.008	25.619	943.667	753.814
172.023	25.944	941.560	753.423
173.037	25.798	941.333	752.562
174.052	25.532	939.876	750.222
175.067	25.519	939.493	749.796
176.081	25.627	939.416	750.116
177.096	25.359	938.937	748.554
178.110	25.172	937.136	746.270
179.125	25.234	936.455	745.923
180.140	24.768	937.014	744.363
181.154	25.310	935.975	745.724
182.169	25.816	935.116	747.073
183.183	25.847	934.645	746.756
184.198	25.617	934.139	745.336
185.213	25.481	933.644	744.309
186.227	25.725	934.008	745.545
187.242	25.505	933.464	744.135
188.256	25.811	932.270	744.383
189.271	26.024	931.163	744.312
190.286	25.373	930.069	740.687
191.300	25.315	928.073	738.792
192.315	24.735	926.836	735.357
193.329	24.527	926.885	734.476
194.344	25.284	927.260	737.821
195.359	25.828	927.177	739.926
196.373	25.903	926.588	739.698
197.388	25.926	925.947	739.215
198.402	25.654	925.455	737.642
199.417	25.992	925.666	739.133
200.432	26.224	923.568	738.341
201.446	25.716	923.669	736.276
202.461	25.349	923.552	734.616
203.475	25.175	921.085	731.881
204.490	24.492	919.730	727.956
205.504	24.792	921.199	730.279
206.519	25.556	919.806	732.220
207.534	25.658	919.205	732.092
208.548	25.761	919.374	732.583
209.563	25.905	917.488	731.601
210.577	25.893	917.259	731.302
211.592	26.369	917.115	733.056
212.607	26.123	917.204	732.062
213.621	26.267	916.464	731.990
214.636	25.765	915.825	729.385
215.650	25.731	914.482	728.111
216.665	25.654	915.313	728.397
217.680	26.309	913.634	729.642
218.694	25.873	912.388	726.826
219.709	25.814	911.744	726.010
220.723	25.608	911.592	724.995
221.738	25.813	911.129	725.386
222.753	25.813	910.141	724.538
223.767	26.078	910.026	725.446
224.782	26.322	908.413	725.075
225.796	26.039	908.926	724.285
226.811	25.518	908.155	721.517
227.826	25.132	906.189	718.344
228.840	25.403	905.691	718.971
229.855	25.340	904.930	718.049
230.869	25.185	904.058	716.675
231.884	24.958	905.141	716.562
232.899	25.776	904.194	719.019
233.913	25.976	903.632	719.304
234.928	25.680	902.393	717.076
235.942	25.518	902.862	716.738
236.957	25.492	900.596	714.773
237.972	25.733	900.255	715.395
238.986	25.244	900.638	713.693
240.001	25.266	899.838	713.086
241.015	25.197	899.537	712.510
242.030	25.435	899.376	713.262
243.045	25.723	898.325	713.508
244.059	25.625	897.664	712.531
245.074	26.073	897.066	713.766
246.088	25.822	895.346	711.343
247.103	26.017	895.818	712.426
248.117	26.847	895.763	715.596
249.132	26.645	895.736	714.714
250.147	26.828	895.143	714.898
251.161	26.617	895.500	714.289
252.176	26.599	893.805	712.802
253.190	26.656	894.199	713.278
254.205	26.877	893.297	713.366
255.220	26.600	893.133	712.082
256.234	26.529	892.003	710.838
257.249	26.688	890.301	710.043
258.263	26.945	889.250	710.148
259.278	26.909	889.619	710.238
260.293	26.562	890.275	709.341
261.307	26.747	888.321	708.443
262.322	26.659	887.403	707.304
263.336	26.168	886.409	704.536
264.351	25.411	885.160	700.531
265.366	25.426	884.761	700.210
266.380	26.415	884.524	703.811
267.395	26.598	884.315	704.296
268.409	26.638	883.151	703.462
269.424	26.497	883.679	703.270
270.439	26.411	881.500	701.143
271.453	26.718	881.830	702.533
272.468	26.662	881.889	702.302
273.482	26.727	881.771	702.394
274.497	26.574	880.034	700.358
275.512	26.398	879.514	699.202
276.526	26.481	878.962	699.023
277.541	26.608	878.681	699.228
278.555	26.737	877.531	698.747
279.570	26.605	877.337	698.021
280.585	26.698	876.878	697.954
281.599	26.280	875.835	695.452
282.614	26.042	874.696	693.572
283.628	26.090	874.527	693.562
284.643	26.171	874.556	693.832
285.657	26.075	873.360	692.455
286.672	26.214	871.584	691.519
287.687	26.352	872.436	692.661
288.701	26.201	871.174	691.023
289.716	26.554	870.479	691.757
290.730	26.426	869.903	690.750
291.745	25.916	868.959	687.993
292.760	26.429	868.563	689.576
293.774	27.171	868.827	692.551
294.789	27.000	868.920	691.913
295.803	27.093	868.483	691.859
296.818	26.961	868.087	690.981
297.833	26.627	866.850	688.663
298.847	26.567	865.716	687.472
299.862	26.847	865.980	688.686
300.876	27.326	864.903	689.585
301.891	27.187	865.163	689.205
302.906	27.015	863.634	687.274
303.920	26.949	863.168	686.592
304.935	27.125	863.159	687.190
305.949	27.198	863.085	687.349
306.964	26.804	861.929	684.878
307.979	26.373	861.755	683.052
308.993	27.210	861.493	685.944
310.008	27.182	860.542	685.017
311.022	27.228	859.757	684.507
312.037	26.720	859.177	682.075
313.052	26.730	858.239	681.305
314.066	25.817	857.158	676.956
315.081	25.687	856.654	676.012
316.095	26.466	856.170	678.492
317.110	26.824	855.558	679.289
318.125	25.957	855.576	675.994
319.139	25.443	853.747	672.565
320.154	25.190	853.440	671.318
321.168	25.786	853.825	673.791
322.183	26.868	852.551	676.765
323.197	26.505	852.903	675.629
324.212	26.676	852.361	675.780
325.227	26.522	851.960	674.826
326.241	26.425	850.839	673.518
327.256	26.387	850.102	672.735
328.270	26.652	849.453	673.146
329.285	25.909	849.529	670.384
330.300	26.108	848.312	670.104
331.314	26.387	848.459	671.197
332.329	26.684	848.108	671.961
333.343	26.902	847.582	672.292
334.358	26.683	847.591	671.429
335.373	27.351	846.543	673.009
336.387	27.173	845.862	671.753
337.402	27.107	846.893	672.268
338.416	27.126	847.229	672.543
339.431	27.449	846.937	673.449
340.446	27.567	845.415	672.612
341.460	27.631	844.749	672.261
342.475	27.715	843.646	671.633
343.489	27.508	844.740	671.679
344.504	27.859	843.530	671.950
345.519	27.742	842.746	670.835
346.533	27.802	841.900	670.324
347.548	27.702	841.795	669.813
348.562	27.591	841.877	669.413
349.577	27.703	840.946	669.025
350.592	27.309	841.301	667.802
351.606	26.930	840.401	665.636
352.621	27.075	839.605	665.479
353.635	27.032	838.947	664.740
354.650	26.585	837.567	661.955
355.665	26.353	836.114	659.903
356.679	26.761	835.848	661.123
357.694	27.044	834.940	661.375
358.708	27.063	833.860	660.531
359.723	27.062	833.774	660.400
360.738	27.181	833.489	660.547
361.752	27.167	833.326	660.312
362.767	27.488	832.965	661.133
363.781	27.602	833.286	661.742
364.796	27.530	832.100	660.479
365.810	27.884	831.260	661.037
366.825	27.617	830.936	659.755
367.840	27.385	830.806	658.753
368.854	27.238	830.400	657.841
369.869	27.518	829.043	657.717
370.883	27.474	828.970	657.443
371.898	27.351	829.093	657.040
372.913	27.581	828.251	657.144
373.927	27.641	827.709	656.870
374.942	27.339	827.480	655.543
375.956	27.910	827.245	657.356
376.971	27.791	826.719	656.451
377.986	27.639	826.585	655.741
379.000	27.703	825.846	655.327
380.015	27.619	825.310	654.543
381.029	27.653	825.239	654.547
382.044	27.734	824.425	654.137
383.059	27.883	823.578	653.938
384.073	27.605	822.846	652.306
385.088	27.266	821.758	650.174
386.102	27.563	820.243	649.976
387.117	27.124	820.845	648.828
388.132	27.195	820.536	648.781
389.146	26.761	819.149	646.079
390.161	27.214	819.272	647.735
391.175	27.655	818.922	648.970
392.190	27.515	817.489	647.280
393.205	26.391	816.378	642.353
394.219	24.961	815.314	636.383
395.234	25.059	814.409	635.966
396.248	26.239	815.679	641.092
397.263	26.849	815.859	643.340
398.278	26.863	814.984	642.647
399.292	27.021	813.453	641.939
400.307	26.929	813.714	641.761
401.321	26.735	812.886	640.368
402.336	27.301	812.980	642.385
403.350	27.300	813.757	642.939
404.365	27.754	813.435	644.229
405.380	28.276	812.805	645.517
406.394	28.308	811.247	644.334
407.409	28.500	811.262	644.962
408.423	28.227	811.189	643.890
409.438	28.253	810.290	643.210
410.453	28.022	809.864	642.002
411.467	28.382	809.570	642.978
412.482	27.953	809.626	641.457
413.496	27.840	808.950	640.472
414.511	27.568	809.349	639.773
415.526	27.890	808.967	640.544
416.540	28.026	807.354	639.687
417.555	27.897	806.271	638.322
418.569	27.909	806.377	638.389
419.584	27.872	806.023	637.926
420.599	27.862	805.032	637.049
421.613	159.713	1371.367	1792.879
422.628	138.759	1453.916	1792.963
