DTS Sentinel unit serial number:	SN413079Multiplexer serial number:	ORYXHardware model number:	OX4-SRSoftware version number:	ORYX F/W v4.00 Oryx Data Collector v3.7.2.0data status	okinstallation	princeton_trtdifferential loss correction	single-endedforward channel	channel 1reverse channel	N/Adate	2019/09/13time	00:18:35forward acquisition time	60.00reverse acquisition time	0.00gamma	496.2192k internal	0.2328k external	0.2328temperature offset calibration	1.0143default loss term (dB/km)	0.3790temperature slope calibration	1.0000multiplexer offset coefficient	1.0000multiplexer slope coefficient	1.0000fibre end	0.00T internal ref (°C)	28.50T ext. ref 1 (°C)	3.73T ext. ref 2 (°C)	23.17length (m)	temperature (°C)	Stokes	anti-Stokes-747.200	-61.832	0.305	0.129
-746.185	262.632	-0.006	-0.010
-745.171	-124.845	-0.006	0.001
-744.156	-132.624	-0.178	0.023
-743.142	529.609	-0.073	-0.173
-742.127	-192.676	-0.303	0.003
-741.112	-80.152	-0.274	-0.093
-740.098	-62.587	-0.100	-0.042
-739.083	347.868	-0.188	-0.373
-738.069	-68.184	-0.125	0.049
-737.054	800.000	-0.078	-0.265
-736.039	-167.064	-0.275	0.011
-735.025	-36.065	0.171	-0.093
-734.010	-200.000	0.010	-0.325
-732.996	-200.000	0.007	-0.088
-731.981	473.758	-0.146	-0.331
-730.966	800.000	0.062	0.191
-729.952	-108.884	-0.337	-0.073
-728.937	-168.886	0.202	-0.008
-727.923	-141.721	-0.370	-0.037
-726.908	-48.245	-0.326	0.159
-725.894	-92.789	0.208	-0.058
-724.879	-125.975	-0.227	-0.034
-723.864	800.000	0.053	0.215
-722.850	800.000	-0.036	0.122
-721.835	53.067	-0.196	0.189
-720.821	-200.000	0.013	-0.128
-719.806	-200.000	-0.025	-0.305
-718.791	-21.993	-0.145	0.089
-717.777	502.376	0.045	0.104
-716.762	-18.847	0.168	0.106
-715.748	170.198	-0.085	-0.123
-714.733	-200.000	0.029	-0.152
-713.718	360.841	0.038	0.076
-712.704	-200.000	0.040	-0.312
-711.689	-200.000	-0.098	-0.488
-710.675	151.990	-0.167	-0.229
-709.660	-200.000	0.013	-0.253
-708.645	800.000	0.051	-0.144
-707.631	800.000	0.097	0.292
-706.616	-200.000	-0.006	-0.049
-705.602	69.459	0.100	0.103
-704.587	800.000	-0.034	0.110
-703.572	185.468	0.228	-0.341
-702.558	-6.363	-0.196	-0.135
-701.543	-200.000	0.014	0.220
-700.529	-62.849	0.225	0.094
-699.514	-176.954	-0.246	-0.006
-698.499	-125.751	-0.255	-0.039
-697.485	-146.645	0.075	0.007
-696.470	56.071	-0.131	-0.128
-695.456	-200.000	-0.020	0.263
-694.441	-33.608	0.194	0.108
-693.426	76.673	-0.145	0.154
-692.412	-70.640	-0.119	-0.045
-691.397	-147.917	-0.314	-0.026
-690.383	-69.649	-0.171	-0.066
-689.368	192.586	-0.140	-0.213
-688.354	23.822	0.159	0.132
-687.339	800.000	-0.088	-0.315
-686.324	157.963	-0.345	-0.480
-685.310	-30.112	0.106	-0.060
-684.295	-70.996	-0.366	-0.139
-683.281	52.722	0.384	-0.369
-682.266	352.315	-0.127	0.252
-681.251	412.160	-0.087	-0.185
-680.237	45.786	0.069	-0.064
-679.222	800.000	0.038	0.117
-678.208	-200.000	-0.009	-0.297
-677.193	362.863	0.140	0.283
-676.178	-123.898	-0.261	0.041
-675.164	-35.789	-0.147	0.080
-674.149	-63.138	0.205	0.085
-673.135	-33.471	-0.229	-0.127
-672.120	99.280	0.184	0.213
-671.105	380.509	-0.091	-0.187
-670.091	-154.949	-0.181	-0.012
-669.076	-200.000	-0.002	0.088
-668.062	-200.000	0.001	0.050
-667.047	89.056	0.045	0.050
-666.032	27.715	-0.142	0.120
-665.018	-131.918	0.238	-0.031
-664.003	374.614	-0.059	0.121
-662.989	-200.000	0.007	0.168
-661.974	-200.000	0.028	0.142
-660.959	5.594	0.468	-0.347
-659.945	-89.792	-0.287	-0.084
-658.930	-40.803	-0.231	-0.120
-657.916	57.817	-0.086	0.084
-656.901	-25.518	-0.145	0.086
-655.886	147.155	0.028	-0.038
-654.872	-200.000	0.021	-0.222
-653.857	-117.483	-0.264	-0.048
-652.843	-176.459	-0.148	0.004
-651.828	-115.872	-0.105	-0.020
-650.814	-200.000	0.065	0.000
-649.799	-54.010	-0.212	0.097
-648.784	-72.283	0.086	-0.032
-647.770	800.000	0.057	0.227
-646.755	443.716	0.024	-0.052
-645.741	-200.000	-0.009	-0.367
-644.726	305.955	-0.219	-0.410
-643.711	-126.403	-0.259	-0.039
-642.697	328.375	-0.125	0.240
-641.682	171.633	-0.060	0.087
-640.668	-49.428	0.121	0.058
-639.653	-122.831	-0.187	-0.030
-638.638	-157.600	-0.223	-0.013
-637.624	800.000	0.020	-0.074
-636.609	-147.667	0.401	0.034
-635.595	3.422	-0.237	-0.173
-634.580	639.093	-0.083	-0.212
-633.565	580.924	0.156	-0.384
-632.551	188.002	-0.059	-0.088
-631.536	-123.436	-0.376	-0.060
-630.522	-200.000	-0.035	0.163
-629.507	800.000	-0.069	0.293
-628.492	154.961	-0.110	-0.152
-627.478	-200.000	0.014	0.128
-626.463	-53.322	0.233	0.107
-625.449	589.214	-0.105	0.260
-624.434	-200.000	-0.037	0.239
-623.419	-131.634	0.078	-0.010
-622.405	-144.725	-0.108	0.010
-621.390	800.000	0.014	0.059
-620.376	188.495	-0.057	0.085
-619.361	409.531	-0.065	-0.138
-618.346	-200.000	-0.027	-0.259
-617.332	-200.000	-0.076	-0.353
-616.317	205.139	0.055	0.086
-615.303	353.961	-0.112	0.222
-614.288	694.251	0.048	-0.125
-613.273	-148.780	-0.078	0.006
-612.259	800.000	0.055	0.196
-611.244	-200.000	0.068	-0.303
-610.230	-114.166	-0.397	0.077
-609.215	771.058	0.107	0.293
-608.201	-200.000	-0.077	-0.483
-607.186	-22.432	-0.208	0.126
-606.171	-42.181	-0.205	-0.105
-605.157	-64.814	0.183	-0.074
-604.142	-144.732	0.528	-0.049
-603.128	-129.706	-0.262	-0.036
-602.113	-200.000	-0.059	-0.418
-601.098	-56.016	0.220	0.098
-600.084	58.652	0.129	0.127
-599.069	131.215	-0.044	-0.057
-598.055	-49.697	-0.161	0.077
-597.040	42.596	-0.039	-0.035
-596.025	335.486	-0.124	-0.240
-595.011	-200.000	-0.017	0.174
-593.996	-200.000	0.019	-0.126
-592.982	-120.791	0.167	-0.028
-591.967	-128.334	0.147	-0.021
-590.952	-19.791	-0.016	0.010
-589.938	307.490	0.134	-0.250
-588.923	-85.340	-0.477	0.149
-587.909	-130.944	0.110	0.015
-586.894	58.322	0.130	-0.128
-585.879	-200.000	-0.001	0.258
-584.865	-104.421	0.476	0.110
-583.850	-50.663	0.305	-0.144
-582.836	264.507	-0.148	-0.259
-581.821	-12.693	0.113	-0.074
-580.806	-150.640	0.442	-0.034
-579.792	-188.877	0.097	0.001
-578.777	800.000	-0.040	-0.166
-577.763	-5.117	0.166	-0.115
-576.748	-200.000	-0.131	0.000
-575.733	-1.782	0.166	-0.117
-574.719	281.079	-0.037	-0.067
-573.704	113.058	0.095	0.116
-572.690	330.318	0.179	-0.346
-571.675	-90.217	0.062	-0.018
-570.661	-13.261	-0.128	-0.083
-569.646	93.712	-0.182	-0.206
-568.631	-55.249	-0.271	-0.122
-567.617	-11.627	-0.161	-0.106
-566.602	-93.228	0.316	-0.088
-565.588	-153.389	0.309	-0.022
-564.573	-59.379	0.225	0.097
-563.558	-28.854	-0.171	-0.098
-562.544	800.000	-0.107	-0.297
-561.529	411.639	-0.126	0.267
-560.515	388.692	-0.099	0.205
-559.500	181.713	-0.099	-0.146
-558.485	-127.712	-0.009	0.001
-557.471	-1.124	0.099	-0.070
-556.456	494.925	0.080	-0.185
-555.442	-200.000	-0.036	-0.230
-554.427	-89.155	0.398	-0.117
-553.412	114.179	-0.211	-0.257
-552.398	179.995	0.100	-0.147
-551.383	-44.490	0.051	-0.026
-550.369	-200.000	0.029	-0.171
-549.354	-200.000	-0.084	-0.506
-548.339	-168.310	-0.298	0.011
-547.325	-120.782	0.256	-0.043
-546.310	-111.808	0.106	0.021
-545.296	-200.000	-0.007	-0.058
-544.281	-117.557	-0.326	0.059
-543.266	-61.372	-0.025	0.011
-542.252	58.392	-0.130	-0.128
-541.237	-55.913	-0.271	0.121
-540.223	-83.298	-0.040	0.013
-539.208	-200.000	-0.056	-0.256
-538.193	-200.000	-0.016	-0.108
-537.179	-131.548	-0.124	0.016
-536.164	-118.384	-0.287	-0.051
-535.150	-21.414	0.130	-0.079
-534.135	461.021	-0.103	-0.229
-533.121	72.291	0.239	0.248
-532.106	175.463	0.085	0.124
-531.091	-45.879	-0.331	0.163
-530.077	-55.218	0.196	-0.088
-529.062	-200.000	-0.001	-0.075
-528.048	-66.768	0.177	0.070
-527.033	266.895	-0.081	0.141
-526.018	472.978	0.051	0.115
-525.004	56.159	-0.158	-0.154
-523.989	-136.417	-0.160	-0.019
-522.975	380.807	-0.060	0.122
-521.960	-75.942	0.209	0.074
-520.945	19.033	-0.210	-0.168
-519.931	-200.000	-0.018	-0.207
-518.916	-75.782	-0.119	-0.042
-517.902	-200.000	0.032	-0.161
-516.887	363.234	0.190	-0.382
-515.872	-75.000	-0.226	0.081
-514.858	16.192	0.205	0.162
-513.843	517.597	0.088	0.206
-512.829	-153.590	-0.123	0.008
-511.814	-58.080	-0.094	0.041
-510.799	-177.454	-0.588	-0.014
-509.785	800.000	-0.050	0.180
-508.770	29.678	-0.305	-0.259
-507.756	478.089	-0.068	-0.154
-506.741	538.844	-0.189	0.449
-505.726	64.772	0.228	0.229
-504.712	-200.000	0.012	0.131
-503.697	103.508	-0.136	0.159
-502.683	-200.000	-0.003	-0.230
-501.668	111.730	-0.132	0.159
-500.653	103.226	0.288	0.337
-499.639	-32.551	-0.146	-0.081
-498.624	219.095	-0.203	0.324
-497.610	-87.334	-0.103	-0.031
-496.595	-75.488	-0.202	-0.072
-495.581	-200.000	0.029	-0.212
-494.566	712.940	0.026	-0.069
-493.551	-136.778	-0.438	-0.050
-492.537	800.000	0.060	0.248
-491.522	-48.981	0.178	-0.085
-490.508	93.741	-0.152	0.172
-489.493	-90.645	-0.063	-0.018
-488.478	415.747	-0.054	-0.114
-487.464	-58.279	-0.287	-0.124
-486.449	-2.041	-0.019	-0.013
-485.435	-44.101	-0.138	-0.069
-484.420	-86.144	0.390	0.120
-483.405	-146.282	-0.050	-0.004
-482.391	-64.489	0.253	-0.103
-481.376	800.000	0.056	-0.236
-480.362	800.000	0.042	-0.181
-479.347	-64.297	0.106	0.043
-478.332	800.000	0.012	0.034
-477.318	800.000	0.069	0.194
-476.303	-59.135	-0.205	-0.088
-475.289	-70.004	0.108	0.041
-474.274	-72.388	-0.312	-0.115
-473.259	23.897	-0.190	-0.156
-472.245	-94.492	0.222	0.060
-471.230	61.218	0.242	-0.240
-470.216	800.000	0.144	-0.500
-469.201	134.154	-0.261	0.337
-468.186	738.731	0.134	0.358
-467.172	42.937	0.125	0.114
-466.157	-60.394	0.048	-0.020
-465.143	-90.752	0.188	-0.054
-464.128	-191.118	-0.302	0.003
-463.113	76.658	0.294	0.311
-462.099	52.572	-0.144	-0.137
-461.084	562.397	-0.163	0.394
-460.070	195.964	-0.147	0.223
-459.055	-173.311	0.237	0.007
-458.040	134.111	-0.102	-0.131
-457.026	800.000	0.074	0.272
-456.011	73.828	-0.113	0.118
-454.997	-138.152	0.218	0.024
-453.982	-72.366	0.186	0.069
-452.968	-54.996	-0.233	-0.105
-451.953	-43.720	-0.148	0.074
-450.938	-200.000	-0.001	0.036
-449.924	-9.637	-0.302	-0.201
-448.909	-13.824	0.225	-0.145
-447.895	32.282	0.169	-0.145
-446.880	-30.695	-0.298	0.168
-445.865	-72.344	-0.234	-0.086
-444.851	800.000	-0.094	0.295
-443.836	-111.933	0.104	-0.021
-442.822	13.494	0.350	0.271
-441.807	166.876	-0.123	0.174
-440.792	800.000	-0.048	-0.202
-439.778	-157.901	0.209	-0.012
-438.763	83.202	-0.065	0.071
-437.749	-23.049	-0.256	0.153
-436.734	800.000	0.082	0.304
-435.719	-75.820	0.143	-0.050
-434.705	51.018	0.121	0.114
-433.690	142.731	-0.136	0.180
-432.676	-33.554	0.319	-0.175
-431.661	-45.646	0.108	0.053
-430.646	759.996	-0.076	0.204
-429.632	-45.116	-0.177	0.087
-428.617	-52.062	0.389	-0.180
-427.603	418.230	-0.053	0.114
-426.588	-74.577	0.123	-0.044
-425.573	-0.119	-0.144	-0.102
-424.559	-9.663	-0.081	0.053
-423.544	-155.839	-0.070	0.004
-422.530	389.982	-0.036	-0.075
-421.515	12.353	0.142	0.109
-420.500	20.603	0.088	0.071
-419.486	-200.000	0.002	-0.043
-418.471	-131.489	0.250	0.033
-417.457	-130.879	0.060	0.008
-416.442	174.290	0.073	-0.105
-415.428	-28.449	0.485	-0.278
-414.413	717.647	-0.077	0.202
-413.398	34.847	0.222	0.193
-412.384	-176.114	0.229	0.006
-411.369	109.099	0.090	0.107
-410.355	-77.293	-0.201	-0.070
-409.340	113.920	-0.204	0.246
-408.325	-200.000	0.009	0.150
-407.311	7.220	-0.226	0.168
-406.296	-11.752	-0.322	-0.210
-405.282	800.000	0.109	-0.337
-404.267	8.387	0.296	-0.221
-403.252	-132.991	-0.184	-0.023
-402.238	-93.063	0.137	0.038
-401.223	154.435	0.240	0.328
-400.209	-125.956	0.205	-0.031
-399.194	33.759	-0.144	0.124
-398.179	-200.000	-0.023	0.196
-397.165	-26.848	0.263	0.153
-396.150	787.388	0.068	-0.187
-395.136	206.040	0.259	0.400
-394.121	333.309	0.159	0.306
-393.106	556.889	0.105	0.252
-392.092	-6.739	0.234	0.158
-391.077	-41.002	0.258	-0.132
-390.063	-65.209	-0.383	-0.154
-389.048	-79.908	0.098	-0.033
-388.033	-4.767	-0.115	-0.079
-387.019	-200.000	0.019	-0.082
-386.004	62.806	-0.173	-0.172
-384.990	-200.000	-0.032	0.234
-383.975	30.364	-0.229	-0.194
-382.960	800.000	0.045	-0.183
-381.946	800.000	0.095	-0.302
-380.931	-171.666	0.249	0.008
-379.917	350.261	-0.113	0.222
-378.902	-28.663	-0.234	-0.134
-377.888	-172.012	-0.104	-0.003
-376.873	549.415	0.038	-0.091
-375.858	54.694	-0.244	0.233
-374.844	-55.177	-0.257	-0.115
-373.829	28.389	0.271	0.228
-372.815	-38.799	-0.442	0.232
-371.800	-105.908	-0.225	-0.050
-370.785	800.000	-0.150	-0.418
-369.771	-96.733	0.164	0.043
-368.756	57.839	0.302	0.293
-367.742	500.657	0.122	0.279
-366.727	-132.533	-0.237	0.030
-365.712	446.425	-0.112	-0.243
-364.698	-19.418	0.056	0.034
-363.683	87.433	-0.140	-0.154
-362.669	-104.837	0.106	-0.024
-361.654	-22.144	0.268	0.161
-360.639	9.446	0.230	0.173
-359.625	161.193	0.251	0.349
-358.610	-131.997	0.295	-0.038
-357.596	151.790	0.212	-0.287
-356.581	-200.000	-0.004	-0.391
-355.566	800.000	-0.084	0.325
-354.552	-92.188	0.192	0.054
-353.537	188.447	-0.050	-0.074
-352.523	88.957	-0.142	-0.157
-351.508	242.858	0.037	0.061
-350.493	-200.000	0.012	0.091
-349.479	67.232	0.279	-0.283
-348.464	800.000	0.053	-0.219
-347.450	-200.000	0.011	0.156
-346.435	149.371	-0.099	0.134
-345.420	110.709	0.029	-0.035
-344.406	-53.461	-0.555	-0.252
-343.391	438.213	0.119	0.257
-342.377	-48.565	-0.013	-0.006
-341.362	-118.474	-0.125	-0.022
-340.348	-73.248	0.054	-0.019
-339.333	82.735	-0.055	0.059
-338.318	800.000	0.048	-0.187
-337.304	426.553	0.131	-0.280
-336.289	512.811	0.116	0.269
-335.275	684.202	-0.048	0.125
-334.260	800.000	0.042	0.163
-333.245	-16.150	-0.105	0.066
-332.231	-14.484	-0.114	-0.072
-331.216	305.445	-0.105	-0.194
-330.202	-115.657	-0.130	0.024
-329.187	17.375	-0.055	-0.043
-328.172	-99.217	0.279	0.070
-327.158	800.000	0.063	-0.222
-326.143	-47.765	-0.122	0.059
-325.129	40.478	-0.151	-0.135
-324.114	-200.000	0.011	-0.226
-323.099	-104.616	0.110	0.025
-322.085	2.900	0.096	0.069
-321.070	181.298	-0.072	-0.105
-320.056	-200.000	-0.000	-0.170
-319.041	-33.888	-0.397	-0.216
-318.026	10.850	0.228	-0.172
-317.012	-49.797	0.209	-0.098
-315.997	-85.000	-0.144	0.045
-314.983	114.270	-0.225	0.271
-313.968	-151.286	-0.329	-0.024
-312.953	-97.340	0.145	-0.037
-311.939	-87.382	-0.193	-0.058
-310.924	-24.442	0.314	0.185
-309.910	-123.768	-0.329	0.051
-308.895	800.000	-0.060	0.213
-307.880	76.899	0.167	0.175
-306.866	-200.000	-0.042	0.306
-305.851	-200.000	0.044	-0.194
-304.837	196.923	0.021	-0.032
-303.822	-200.000	0.000	0.265
-302.807	76.568	-0.249	-0.262
-301.793	-62.690	0.176	0.072
-300.778	800.000	-0.126	-0.388
-299.764	147.651	-0.051	-0.068
-298.749	-97.688	-0.309	0.079
-297.735	-177.298	-0.248	0.006
-296.720	800.000	0.035	0.104
-295.705	-30.926	0.089	0.050
-294.691	60.868	-0.140	-0.138
-293.676	446.661	-0.048	0.104
-292.662	481.595	-0.099	0.223
-291.647	223.922	-0.184	-0.294
-290.632	-131.801	-0.199	0.026
-289.618	299.810	0.008	-0.015
-288.603	-179.584	0.189	0.004
-287.589	-200.000	0.027	0.223
-286.574	-129.624	0.144	0.020
-285.559	20.602	-0.062	0.050
-284.545	4.645	0.263	0.191
-283.530	-200.000	-0.026	0.355
-282.516	-122.554	0.277	0.044
-281.501	39.531	0.041	-0.036
-280.486	67.313	0.319	-0.322
-279.472	-128.832	-0.221	-0.031
-278.457	-200.000	0.019	0.460
-277.443	-200.000	0.012	-0.263
-276.428	800.000	-0.062	0.182
-275.413	-134.281	0.090	0.011
-274.399	-79.963	-0.350	-0.116
-273.384	303.588	0.248	0.455
-272.370	-200.000	-0.001	0.142
-271.355	73.633	0.185	0.191
-270.340	166.947	0.052	-0.072
-269.326	262.491	-0.222	-0.380
-268.311	-200.000	-0.006	0.117
-267.297	-162.252	-0.084	0.004
-266.282	-32.419	0.377	0.208
-265.267	-200.000	0.005	-0.150
-264.253	-165.071	0.110	-0.005
-263.238	590.888	0.137	0.335
-262.224	-99.315	-0.120	0.030
-261.209	-92.419	-0.276	0.077
-260.195	376.811	0.155	-0.313
-259.180	-200.000	-0.010	-0.115
-258.165	-200.000	-0.022	0.173
-257.151	205.930	-0.134	0.206
-256.136	-13.892	0.304	0.194
-255.122	-26.042	0.428	-0.249
-254.107	609.092	-0.106	-0.262
-253.092	33.621	0.197	-0.169
-252.078	131.208	-0.155	0.196
-251.063	-140.812	-0.430	-0.044
-250.049	-200.000	-0.045	0.298
-249.034	109.687	0.064	0.075
-248.019	502.663	0.120	-0.273
-247.005	-146.278	-0.247	-0.021
-245.990	511.849	0.056	0.128
-244.976	-10.346	-0.160	-0.105
-243.961	-200.000	0.046	0.292
-242.946	-200.000	-0.078	0.363
-241.932	800.000	0.048	0.205
-240.917	-200.000	0.039	0.266
-239.903	-104.894	0.332	-0.075
-238.888	506.941	0.198	0.454
-237.873	-121.974	-0.268	-0.044
-236.859	4.883	-0.314	0.228
-235.844	800.000	-0.030	0.113
-234.830	150.474	0.081	0.108
-233.815	50.235	-0.151	-0.140
-232.800	-92.100	0.366	-0.102
-231.786	96.959	-0.110	-0.124
-230.771	800.000	0.092	-0.252
-229.757	41.779	-0.101	-0.090
-228.742	52.065	0.183	0.172
-227.727	-28.558	-0.111	0.063
-226.713	-25.248	-0.229	0.134
-225.698	-200.000	0.020	0.344
-224.684	209.803	-0.215	0.332
-223.669	164.238	-0.072	-0.100
-222.655	-200.000	0.051	0.319
-221.640	72.689	-0.058	0.060
-220.625	-178.915	0.272	0.006
-219.611	173.846	0.052	-0.074
-218.596	-7.389	0.145	-0.097
-217.582	-200.000	-0.018	0.130
-216.567	-142.165	0.164	0.016
-215.552	-137.187	-0.089	-0.010
-214.538	32.916	0.097	-0.083
-213.523	-94.887	-0.151	-0.040
-212.509	-87.056	-0.101	0.030
-211.494	249.033	0.034	0.057
-210.479	-92.039	-0.250	-0.070
-209.465	28.039	-0.149	-0.124
-208.450	-200.000	-0.036	-0.266
-207.436	-200.000	-0.035	0.286
-206.421	800.000	0.078	0.251
-205.406	112.631	-0.059	0.071
-204.392	64.901	-0.041	0.041
-203.377	800.000	-0.094	-0.299
-202.363	-165.639	0.166	0.007
-201.348	-67.176	0.296	0.115
-200.333	-3.942	0.176	-0.121
-199.319	-200.000	0.063	-0.311
-198.304	800.000	-0.118	-0.439
-197.290	-200.000	-0.027	-0.219
-196.275	-44.987	0.124	0.061
-195.260	-61.170	0.118	-0.049
-194.246	-90.569	0.336	0.096
-193.231	-7.672	0.097	0.064
-192.217	196.582	0.231	0.347
-191.202	-122.564	-0.135	0.022
-190.187	-138.083	0.263	-0.029
-189.173	-200.000	0.037	-0.172
-188.158	95.637	-0.152	-0.171
-187.144	-200.000	-0.006	-0.183
-186.129	-117.655	-0.217	-0.039
-185.114	209.237	-0.069	0.107
-184.100	44.584	0.219	0.199
-183.085	60.239	-0.178	0.174
-182.071	-200.000	-0.015	-0.096
-181.056	-117.500	0.212	0.038
-180.042	-200.000	-0.023	0.382
-179.027	85.047	-0.143	-0.155
-178.012	-84.990	0.171	0.053
-176.998	-46.374	-0.339	-0.164
-175.983	-105.657	0.204	-0.046
-174.969	237.174	-0.093	-0.152
-173.954	-92.046	0.231	-0.064
-172.939	-200.000	-0.031	0.205
-171.925	-200.000	0.030	-0.256
-170.910	442.306	0.167	-0.361
-169.896	-200.000	0.065	-0.442
-168.881	800.000	-0.099	-0.415
-167.866	6.956	-0.087	0.064
-166.852	80.668	0.147	-0.156
-165.837	-32.299	-0.076	0.042
-164.823	-8.617	0.206	0.136
-163.808	746.720	0.020	-0.052
-162.793	-110.666	0.343	-0.070
-161.779	-154.405	0.418	-0.028
-160.764	-160.258	0.088	0.005
-159.750	-65.241	0.122	-0.048
-158.735	-87.199	0.116	-0.035
-157.720	216.758	-0.241	0.378
-156.706	-94.460	-0.113	0.030
-155.691	-200.000	0.103	0.498
-154.677	-17.434	0.046	0.028
-153.662	-200.000	0.005	-0.326
-152.647	159.103	-0.167	0.228
-151.633	-13.544	-0.192	-0.123
-150.618	-188.397	0.270	-0.003
-149.604	-126.467	0.365	-0.053
-148.589	47.143	-0.159	0.146
-147.574	-139.368	-0.177	0.019
-146.560	130.313	-0.104	-0.131
-145.545	-171.543	0.232	-0.008
-144.531	-156.879	-0.502	-0.030
-143.516	-119.846	0.165	-0.028
-142.502	102.561	0.032	0.036
-141.487	800.000	0.070	-0.213
-140.472	-200.000	0.015	0.170
-139.458	189.144	0.094	0.138
-138.443	-8.653	0.083	0.055
-137.429	40.977	-0.080	0.071
-136.414	22.868	-0.184	0.148
-135.399	-116.866	0.439	-0.079
-134.385	23.568	0.239	-0.194
-133.370	271.721	0.116	-0.201
-132.356	81.683	-0.225	-0.240
-131.341	29.785	0.152	0.127
-130.326	195.413	0.141	-0.211
-129.312	-33.652	0.270	0.147
-128.297	800.000	0.033	-0.112
-127.283	130.628	-0.140	0.177
-126.268	-125.017	0.081	0.012
-125.253	-133.302	-0.211	0.026
-124.239	118.439	-0.010	0.013
-123.224	-98.220	0.113	0.028
-122.210	-200.000	-0.061	0.335
-121.195	115.613	-0.079	-0.094
-120.180	38.399	-0.031	-0.027
-119.166	565.833	0.130	-0.309
-118.151	-200.000	0.042	-0.198
-117.137	-35.832	0.455	-0.242
-116.122	-135.636	-0.132	0.015
-115.107	-102.497	-0.250	-0.059
-114.093	-200.000	0.013	0.233
-113.078	635.315	0.090	0.225
-112.064	-200.000	0.091	0.392
-111.049	248.350	0.132	-0.219
-110.034	-116.495	0.210	0.038
-109.020	-200.000	0.007	0.040
-108.005	-200.000	-0.038	-0.192
-106.991	-68.812	0.217	0.082
-105.976	-200.000	-0.001	0.316
-104.962	89.270	0.086	0.094
-103.947	-200.000	0.021	-0.141
-102.932	-100.489	0.242	-0.059
-101.918	61.665	-0.115	-0.113
-100.903	-66.183	-0.359	-0.141
-99.889	-1.712	-0.223	-0.154
-98.874	-45.974	-0.231	0.112
-97.859	-131.355	0.297	-0.039
-96.845	-64.257	0.383	-0.153
-95.830	-200.000	-0.064	-0.300
-94.816	-92.937	0.257	-0.070
-93.801	530.943	-0.077	-0.178
-92.786	46.071	-0.233	0.212
-91.772	464.476	-0.103	0.226
-90.757	800.000	-0.069	0.230
-89.743	77.979	0.117	-0.122
-88.728	-56.539	0.478	-0.208
-87.713	-200.000	-0.004	0.138
-86.699	63.516	-0.154	0.152
-85.684	-39.377	0.165	0.085
-84.670	-81.463	0.223	-0.072
-83.655	19.311	0.197	0.155
-82.640	58.724	-0.072	0.069
-81.626	189.564	0.051	-0.075
-80.611	116.011	0.127	0.153
-79.597	369.643	-0.130	0.258
-78.582	-200.000	0.005	-0.359
-77.567	-77.391	0.110	0.038
-76.553	55.941	0.130	0.124
-75.538	-195.530	0.072	0.001
-74.524	-79.719	0.468	0.155
-73.509	-200.000	-0.026	-0.287
-72.494	-132.471	-0.240	0.030
-71.480	-200.000	-0.026	0.258
-70.465	-200.000	0.032	-0.241
-69.451	439.032	-0.170	0.365
-68.436	-73.383	0.442	-0.159
-67.422	3.169	0.248	-0.177
-66.407	20.009	-0.178	-0.141
-65.392	-200.000	-0.029	0.128
-64.378	304.464	0.065	-0.119
-63.363	-200.000	-0.130	0.631
-62.349	-200.000	0.038	0.210
-61.334	120.825	-0.879	-1.073
-60.319	40.746	0.517	0.457
-59.305	800.000	-0.381	-1.210
-58.290	800.000	0.462	1.354
-57.276	800.000	0.543	1.505
-56.261	-200.000	113.007	641.114
-55.246	519.679	1524.375	3503.296
-54.232	177.236	2691.783	3843.582
-53.217	110.269	2148.432	2530.629
-52.203	40.021	1596.555	1406.685
-51.188	32.016	1341.056	1133.422
-50.173	28.920	1302.026	1082.204
-49.159	54.552	1358.866	1284.254
-48.144	54.212	1373.101	1295.615
-47.130	32.049	1327.633	1122.093
-46.115	28.615	1310.599	1087.349
-45.100	28.499	1305.351	1082.263
-44.086	28.351	1302.922	1079.339
-43.071	28.335	1300.870	1077.498
-42.057	28.277	1298.960	1075.537
-41.042	28.373	1297.142	1074.552
-40.027	28.384	1295.841	1073.496
-39.013	28.450	1293.678	1072.046
-37.998	28.431	1291.968	1070.476
-36.984	28.471	1289.885	1068.938
-35.969	28.465	1288.390	1067.624
-34.954	28.470	1286.703	1066.214
-33.940	28.584	1285.261	1065.636
-32.925	28.518	1284.044	1064.201
-31.911	28.546	1282.370	1062.936
-30.896	28.583	1281.345	1062.259
-29.881	28.582	1279.803	1060.931
-28.867	28.554	1278.606	1059.735
-27.852	28.766	1276.975	1059.565
-26.838	28.574	1275.902	1057.523
-25.823	28.608	1274.488	1056.506
-24.809	28.547	1273.232	1055.072
-23.794	28.530	1271.905	1053.835
-22.779	28.627	1270.008	1052.778
-21.765	28.663	1268.489	1051.683
-20.750	28.453	1267.827	1049.891
-19.736	28.463	1266.586	1048.880
-18.721	28.537	1265.171	1048.089
-17.706	28.507	1264.118	1047.003
-16.692	28.401	1263.218	1045.611
-15.677	28.475	1261.913	1044.911
-14.663	28.466	1261.374	1044.372
-13.648	28.492	1259.822	1043.192
-12.633	28.362	1259.502	1042.147
-11.619	28.455	1258.724	1041.990
-10.604	28.407	1257.378	1040.564
-9.590	28.452	1256.509	1040.059
-8.575	28.442	1255.530	1039.147
-7.560	28.431	1254.552	1038.239
-6.546	28.461	1253.923	1037.842
-5.531	28.462	1252.716	1036.809
-4.517	28.457	1252.255	1036.356
-3.502	28.420	1251.418	1035.414
-2.487	28.410	1250.504	1034.562
-1.473	28.352	1246.115	1030.561
-0.458	26.803	1231.123	1009.510
0.556	24.744	1213.882	971.647
1.571	20.870	1219.161	954.598
2.586	19.915	1232.977	960.039
3.600	19.527	1221.560	948.932
4.615	14.979	1150.374	869.958
5.629	7.311	1078.053	777.699
6.644	4.030	1059.351	748.302
7.659	3.761	1056.745	745.098
8.673	3.558	1055.311	743.045
9.688	3.562	1053.657	741.836
10.702	4.040	1052.050	742.932
11.717	8.836	1058.747	770.704
12.731	17.008	1070.473	818.764
13.746	21.979	1076.220	847.139
14.761	22.989	1077.103	852.636
15.775	22.192	1075.895	847.762
16.790	21.467	1074.298	842.935
17.804	20.872	1072.824	838.841
18.819	20.769	1071.710	837.400
19.834	20.701	1071.684	836.980
20.848	20.715	1071.029	836.461
21.863	20.592	1070.443	835.336
22.877	20.360	1069.550	833.452
23.892	20.282	1068.762	832.389
24.907	20.375	1067.753	831.977
25.921	20.207	1066.949	830.473
26.936	20.262	1065.337	829.405
27.950	20.198	1063.992	827.982
28.965	20.173	1063.046	827.052
29.980	20.583	1061.243	827.529
30.994	20.546	1060.773	826.910
32.009	20.815	1059.473	827.103
33.023	20.695	1058.385	825.612
34.038	20.475	1057.381	823.713
35.053	20.383	1056.350	822.402
36.067	20.279	1055.733	821.356
37.082	20.310	1054.957	820.825
38.096	20.486	1054.468	821.202
39.111	20.490	1053.802	820.634
40.126	20.288	1052.243	818.394
41.140	20.049	1050.412	815.772
42.155	19.724	1049.677	813.599
43.169	19.619	1048.803	812.355
44.184	19.820	1047.222	812.002
45.199	19.894	1046.137	811.436
46.213	20.057	1046.120	812.114
47.228	20.298	1045.647	812.806
48.242	20.407	1044.274	812.176
49.257	20.364	1043.789	811.526
50.271	20.523	1043.112	811.672
51.286	20.561	1042.654	811.422
52.301	20.467	1041.177	809.759
53.315	20.348	1039.910	808.151
54.330	20.160	1038.953	806.460
55.344	19.919	1038.516	804.930
56.359	19.992	1037.547	804.445
57.374	19.944	1036.525	803.358
58.388	19.669	1035.610	801.306
59.403	19.657	1035.170	800.836
60.417	19.681	1034.217	800.142
61.432	19.800	1033.304	799.911
62.447	19.535	1032.735	798.175
63.461	19.636	1031.504	797.622
64.476	19.666	1030.478	796.897
65.490	19.467	1030.027	795.560
66.505	19.536	1029.308	795.253
67.520	19.615	1028.441	794.874
68.534	19.539	1027.542	793.761
69.549	19.414	1027.058	792.742
70.563	19.538	1025.743	792.226
71.578	19.174	1025.133	790.015
72.593	19.038	1024.505	788.837
73.607	19.055	1023.763	788.277
74.622	19.279	1023.006	788.646
75.636	19.470	1022.380	788.967
76.651	19.454	1021.607	788.229
77.666	19.476	1021.398	788.098
78.680	19.397	1020.477	786.955
79.695	19.363	1020.098	786.439
80.709	19.609	1019.738	787.212
81.724	19.739	1019.190	787.312
82.739	19.950	1018.092	787.356
83.753	20.235	1018.288	788.732
84.768	20.684	1017.478	790.075
85.782	20.845	1016.602	790.058
86.797	20.757	1016.117	789.211
87.812	20.519	1014.809	787.045
88.826	20.481	1014.036	786.203
89.841	20.655	1013.224	786.291
90.855	20.747	1012.415	786.010
91.870	20.755	1011.860	785.545
92.884	20.714	1010.863	784.520
93.899	20.617	1009.752	783.149
94.914	20.809	1008.846	783.242
95.928	20.748	1007.942	782.197
96.943	20.565	1006.909	780.506
97.957	20.381	1006.450	779.253
98.972	20.592	1005.052	779.046
99.987	20.582	1004.369	778.404
101.001	20.609	1003.440	777.738
102.016	20.462	1002.702	776.440
103.030	20.602	1002.087	776.519
104.045	20.764	1000.903	776.257
105.060	20.419	1000.255	774.147
106.074	19.994	999.303	771.447
107.089	19.759	998.157	769.449
108.103	19.744	996.765	768.241
109.118	19.602	995.516	766.583
110.133	19.414	994.797	765.125
111.147	19.528	993.700	764.721
112.162	19.493	993.185	764.101
113.176	19.860	992.373	765.033
114.191	19.744	992.086	764.230
115.206	19.776	991.119	763.561
116.220	19.718	990.383	762.669
117.235	19.669	989.374	761.610
118.249	19.597	988.705	760.710
119.264	19.517	987.339	759.240
120.279	19.531	986.329	758.457
121.293	19.411	985.618	757.314
122.308	19.272	985.276	756.374
123.322	19.096	983.976	754.539
124.337	19.136	982.953	753.864
125.352	19.186	982.177	753.420
126.366	19.246	980.581	752.389
127.381	19.338	979.764	752.097
128.395	19.276	979.278	751.391
129.410	19.358	978.476	751.064
130.424	19.544	977.936	751.392
131.439	19.694	977.499	751.644
132.454	19.728	976.677	751.093
133.468	19.750	975.676	750.354
134.483	19.791	974.839	749.817
135.497	19.825	973.851	749.139
136.512	19.770	973.084	748.248
137.527	19.716	972.407	747.427
138.541	19.736	971.626	746.846
139.556	19.836	971.343	746.994
140.570	20.173	970.546	747.768
141.585	20.482	969.510	748.235
142.600	20.454	968.948	747.615
143.614	20.646	968.074	747.698
144.629	20.687	967.444	747.323
145.643	20.595	966.615	746.223
146.658	20.200	965.040	743.248
147.673	20.058	963.985	741.762
148.687	19.853	963.157	740.183
149.702	19.756	962.223	738.984
150.716	19.929	961.098	738.792
151.731	20.022	960.159	738.403
152.746	19.928	959.774	737.641
153.760	20.138	959.366	738.156
154.775	20.023	959.230	737.496
155.789	20.158	958.021	737.073
156.804	20.219	957.025	736.503
157.819	20.380	956.787	736.939
158.833	20.563	956.480	737.412
159.848	20.632	955.549	736.922
160.862	20.473	954.181	735.131
161.877	20.068	952.839	732.319
162.892	19.736	952.050	730.246
163.906	19.872	950.443	729.520
164.921	19.699	949.897	728.309
165.935	19.783	949.142	728.019
166.950	20.049	948.303	728.428
167.964	20.084	947.110	727.594
168.979	19.761	946.483	725.694
169.994	19.817	945.277	724.940
171.008	20.052	944.793	725.491
172.023	20.259	944.682	726.205
173.037	20.484	943.794	726.400
174.052	20.240	943.020	724.719
175.067	19.856	941.643	721.999
176.081	19.614	941.052	720.471
177.096	19.615	940.426	719.932
178.110	19.661	940.058	719.778
179.125	19.724	939.637	719.656
180.140	19.907	939.270	720.072
181.154	20.131	938.886	720.644
182.169	20.288	938.844	721.199
183.183	20.456	938.092	721.255
184.198	20.437	936.910	720.207
185.213	20.322	936.494	719.344
186.227	20.409	936.156	719.383
187.242	20.491	935.343	719.032
188.256	20.730	934.809	719.546
189.271	20.689	934.107	718.773
190.286	20.327	932.834	716.239
191.300	19.584	931.691	712.234
192.315	19.532	930.947	711.387
193.329	19.654	930.718	711.653
194.344	19.813	929.855	711.582
195.359	20.009	929.686	712.197
196.373	20.055	929.093	711.867
197.388	20.292	928.884	712.619
198.402	20.593	928.870	713.782
199.417	20.816	928.150	714.079
200.432	21.033	927.347	714.287
201.446	20.990	927.418	714.104
202.461	21.081	926.874	713.993
203.475	20.951	925.586	712.404
204.490	20.361	925.237	709.664
205.504	20.507	923.847	709.129
206.519	20.456	923.116	708.297
207.534	20.318	922.695	707.349
208.548	20.252	922.467	706.845
209.563	20.520	921.427	707.074
210.577	20.409	920.919	706.171
211.592	20.680	920.610	706.972
212.607	20.856	919.846	707.040
213.621	20.857	918.468	705.920
214.636	20.719	918.364	705.220
215.650	20.768	917.643	704.803
216.665	20.790	916.910	704.264
217.680	20.891	916.596	704.369
218.694	21.088	915.744	704.448
219.709	20.870	914.861	702.827
220.723	20.882	914.339	702.411
221.738	20.648	913.505	700.767
222.753	20.797	912.688	700.677
223.767	20.842	912.625	700.747
224.782	21.163	912.062	701.546
225.796	21.141	911.724	701.134
226.811	20.915	911.017	699.623
227.826	20.813	909.729	698.159
228.840	20.716	908.810	697.007
229.855	20.752	908.557	696.894
230.869	20.551	907.737	695.401
231.884	20.467	907.200	694.590
232.899	20.506	906.048	693.805
233.913	20.317	905.304	692.417
234.928	20.188	904.541	691.260
235.942	20.139	904.138	690.694
236.957	20.227	903.391	690.413
237.972	20.136	903.006	689.696
238.986	20.181	902.407	689.356
240.001	20.217	901.721	688.915
241.015	20.414	901.489	689.457
242.030	20.562	901.170	689.741
243.045	20.593	900.225	689.079
244.059	20.655	899.446	688.667
245.074	20.854	898.609	688.752
246.088	20.795	898.474	688.354
247.103	21.052	898.404	689.256
248.117	21.137	898.556	689.647
249.132	21.516	898.075	690.713
250.147	21.956	897.550	691.982
251.161	21.915	897.214	691.502
252.176	21.890	896.365	690.687
253.190	22.063	895.726	690.815
254.205	21.895	895.503	689.920
255.220	21.816	894.747	688.966
256.234	21.740	894.199	688.186
257.249	21.770	893.314	687.561
258.263	21.635	892.259	686.161
259.278	21.766	891.464	686.002
260.293	21.789	891.183	685.812
261.307	22.044	890.647	686.338
262.322	22.011	890.222	685.822
263.336	22.050	889.283	685.190
264.351	21.935	888.560	684.122
265.366	21.929	888.079	683.667
266.380	21.857	887.819	683.128
267.395	21.845	886.656	682.124
268.409	21.683	885.955	680.895
269.424	21.683	885.637	680.591
270.439	21.689	884.522	679.699
271.453	21.405	883.641	677.859
272.468	21.447	883.297	677.698
273.482	21.721	882.339	677.964
274.497	21.507	881.627	676.530
275.512	21.540	881.423	676.440
276.526	21.454	881.432	676.054
277.541	21.630	880.884	676.255
278.555	21.857	880.115	676.478
279.570	22.010	879.743	676.725
280.585	21.906	879.077	675.750
281.599	21.758	877.810	674.148
282.614	21.501	877.243	672.665
283.628	21.464	876.543	671.926
284.643	21.606	875.982	671.984
285.657	21.395	875.735	670.922
286.672	21.550	875.027	670.917
287.687	21.706	873.864	670.563
288.701	21.627	873.619	670.013
289.716	21.775	873.182	670.184
290.730	21.606	872.502	668.959
291.745	21.736	871.843	668.890
292.760	21.803	871.579	668.882
293.774	22.040	871.224	669.454
294.789	22.014	870.211	668.518
295.803	21.700	869.296	666.562
296.818	21.631	868.619	665.723
297.833	21.608	868.003	665.103
298.847	21.742	867.368	665.066
299.862	21.828	866.674	664.800
300.876	21.956	866.663	665.219
301.891	22.096	866.603	665.643
302.906	22.323	865.913	665.916
303.920	22.359	865.590	665.743
304.935	22.583	864.875	665.981
305.949	22.298	864.105	664.255
306.964	22.011	863.441	662.601
307.979	21.962	863.010	662.028
308.993	22.219	862.228	662.338
310.008	22.275	861.664	662.056
311.022	22.151	861.021	661.036
312.037	21.835	860.375	659.295
313.052	21.685	858.978	657.603
314.066	21.487	858.563	656.484
315.081	21.511	858.160	656.209
316.095	21.501	857.489	655.598
317.110	21.555	857.355	655.642
318.125	21.512	856.732	654.945
319.139	21.381	856.245	654.028
320.154	21.575	855.170	653.869
321.168	21.646	855.009	653.958
322.183	21.719	854.346	653.661
323.197	21.701	854.197	653.426
324.212	21.795	853.605	653.262
325.227	21.676	852.827	652.165
326.241	21.609	852.339	651.486
327.256	21.529	851.879	650.779
328.270	21.649	850.895	650.417
329.285	21.486	850.348	649.336
330.300	21.423	850.120	648.873
331.314	21.538	849.727	648.940
332.329	21.979	849.378	650.249
333.343	22.142	848.833	650.380
334.358	22.075	848.092	649.507
335.373	22.088	848.099	649.501
336.387	22.222	847.961	649.832
337.402	22.273	847.691	649.758
338.416	22.370	847.777	650.123
339.431	22.659	847.463	650.893
340.446	22.688	846.929	650.532
341.460	22.667	846.726	650.242
342.475	22.794	846.489	650.470
343.489	22.968	845.752	650.486
344.504	23.008	845.753	650.578
345.519	22.873	845.507	649.832
346.533	22.866	844.186	648.734
347.548	22.629	843.104	646.975
348.562	22.282	842.839	645.443
349.577	22.205	841.869	644.359
350.592	22.062	841.136	643.218
351.606	21.860	840.896	642.240
352.621	21.946	840.305	642.046
353.635	22.246	839.396	642.391
354.650	22.227	838.731	641.757
355.665	22.305	838.466	641.781
356.679	22.402	837.880	641.628
357.694	22.447	837.253	641.254
358.708	22.349	836.489	640.255
359.723	22.356	835.967	639.824
360.738	22.245	835.455	638.973
361.752	22.318	835.267	639.040
362.767	22.747	834.380	639.861
363.781	22.973	833.982	640.317
364.796	22.994	833.851	640.234
365.810	23.102	833.479	640.284
366.825	23.154	832.945	640.005
367.840	23.033	832.388	639.082
368.854	22.909	831.849	638.166
369.869	22.711	831.265	636.947
370.883	22.792	830.944	636.934
371.898	22.923	830.800	637.240
372.913	23.059	830.359	637.339
373.927	22.973	829.412	636.245
374.942	22.877	829.184	635.667
375.956	23.115	828.844	636.207
376.971	23.221	828.390	636.183
377.986	23.266	828.087	636.056
379.000	23.386	827.324	635.845
380.015	23.199	826.964	634.839
381.029	23.281	826.369	634.622
382.044	23.237	825.790	633.965
383.059	23.346	825.255	633.886
384.073	23.075	824.226	632.071
385.088	22.848	823.471	630.627
386.102	22.643	822.663	629.219
387.117	22.483	822.183	628.227
388.132	22.719	821.611	628.574
389.146	22.753	820.892	628.089
390.161	23.091	820.833	629.192
391.175	23.136	820.574	629.099
392.190	22.951	819.854	627.834
393.205	22.711	819.080	626.334
394.219	22.569	819.141	625.820
395.234	22.521	818.379	625.013
396.248	22.546	817.711	624.536
397.263	22.420	817.176	623.625
398.278	22.430	816.349	622.973
399.292	22.275	816.206	622.260
400.307	22.380	815.880	622.329
401.321	22.479	815.112	622.039
402.336	22.602	814.996	622.329
403.350	22.904	814.267	622.783
404.365	23.103	814.388	623.520
405.380	23.330	814.253	624.162
406.394	23.393	813.814	623.992
407.409	23.570	813.220	624.104
408.423	23.550	813.100	623.888
409.438	23.579	812.548	623.509
410.453	23.463	812.348	622.894
411.467	23.650	812.056	623.270
412.482	23.832	811.659	623.550
413.496	23.863	811.175	623.231
414.511	23.609	811.126	622.249
415.526	23.535	810.320	621.316
416.540	23.669	809.400	621.023
417.555	23.570	808.893	620.235
418.569	23.505	808.514	619.661
419.584	23.522	808.302	619.503
420.599	23.721	807.376	619.432
421.613	163.572	1371.881	1797.454
422.628	142.329	1454.142	1797.542
