DTS Sentinel unit serial number:	SN413079Multiplexer serial number:	ORYXHardware model number:	OX4-SRSoftware version number:	ORYX F/W v4.00 Oryx Data Collector v3.7.2.0data status	okinstallation	princeton_trtdifferential loss correction	single-endedforward channel	channel 1reverse channel	N/Adate	2019/09/15time	02:42:35forward acquisition time	60.00reverse acquisition time	0.00gamma	496.2192k internal	0.2323k external	0.2323temperature offset calibration	0.9985default loss term (dB/km)	0.3790temperature slope calibration	1.0000multiplexer offset coefficient	1.0000multiplexer slope coefficient	1.0000fibre end	0.00T internal ref (°C)	31.39T ext. ref 1 (°C)	4.56T ext. ref 2 (°C)	25.80length (m)	temperature (°C)	Stokes	anti-Stokes-747.200	-22.664	0.186	0.114
-746.185	800.000	0.015	-0.058
-745.171	405.743	0.117	-0.249
-744.156	233.094	0.100	0.165
-743.142	-200.000	-0.030	-0.179
-742.127	-83.664	-0.328	-0.106
-741.112	168.664	-0.203	-0.293
-740.098	-48.121	-0.337	-0.164
-739.083	-200.000	0.026	-0.189
-738.069	88.372	0.105	0.118
-737.054	-126.768	-0.315	0.047
-736.039	-153.012	-0.448	0.032
-735.025	-34.018	0.081	-0.045
-734.010	-45.520	-0.273	-0.136
-732.996	6.587	-0.319	-0.239
-731.981	-200.000	-0.001	-0.316
-730.966	-139.899	0.141	0.015
-729.952	-47.787	0.081	-0.039
-728.937	800.000	-0.077	-0.297
-727.923	-13.505	0.149	0.097
-726.908	-178.649	-0.387	-0.009
-725.894	-69.951	0.100	0.039
-724.879	-68.672	0.073	-0.028
-723.864	800.000	-0.082	-0.246
-722.850	800.000	-0.012	-0.048
-721.835	-200.000	-0.061	-0.315
-720.821	800.000	-0.013	-0.052
-719.806	-146.695	0.300	0.026
-718.791	-60.514	0.302	0.129
-717.777	519.619	0.004	0.009
-716.762	-55.140	-0.107	0.049
-715.748	199.765	0.168	0.260
-714.733	347.048	0.082	0.164
-713.718	-200.000	-0.020	-0.123
-712.704	546.103	-0.050	-0.121
-711.689	-112.946	-0.209	-0.042
-710.675	-200.000	0.002	0.211
-709.660	-200.000	-0.055	-0.403
-708.645	-15.851	-0.192	0.123
-707.631	-147.991	-0.088	0.007
-706.616	800.000	-0.006	-0.018
-705.602	252.737	0.135	-0.232
-704.587	46.763	-0.237	0.222
-703.572	617.220	0.033	-0.083
-702.558	-200.000	-0.013	0.103
-701.543	-200.000	0.001	-0.507
-700.529	800.000	-0.036	-0.113
-699.514	364.879	-0.136	-0.276
-698.499	355.038	0.096	0.192
-697.485	-200.000	-0.160	0.001
-696.470	800.000	0.052	0.152
-695.456	-111.868	0.222	-0.045
-694.441	456.292	-0.082	0.182
-693.426	-78.397	-0.183	-0.063
-692.412	18.480	-0.204	-0.164
-691.397	-61.989	-0.355	-0.150
-690.383	-56.192	0.316	0.142
-689.368	-60.260	-0.155	0.067
-688.354	298.047	0.166	-0.308
-687.339	-53.806	0.175	0.080
-686.324	-118.364	-0.127	-0.023
-685.310	28.847	0.239	-0.204
-684.295	112.094	-0.226	0.275
-683.281	561.939	-0.107	-0.260
-682.266	-112.708	0.051	0.010
-681.251	-20.540	-0.243	0.150
-680.237	-200.000	0.016	0.201
-679.222	-99.341	0.229	0.058
-678.208	-2.915	0.221	-0.155
-677.193	-38.263	-0.251	-0.134
-676.178	-200.000	0.007	-0.266
-675.164	21.083	-0.225	-0.184
-674.149	-200.000	0.000	-0.075
-673.135	-200.000	-0.014	0.093
-672.120	3.218	0.113	-0.083
-671.105	71.276	0.097	0.101
-670.091	275.871	-0.211	-0.377
-669.076	-99.257	0.181	0.046
-668.062	373.401	0.140	-0.286
-667.047	-63.793	-0.267	0.110
-666.032	-200.000	-0.035	0.277
-665.018	-53.947	-0.138	-0.063
-664.003	-148.190	0.206	-0.017
-662.989	-81.258	0.398	-0.132
-661.974	36.166	-0.282	-0.250
-660.959	-92.043	0.130	-0.037
-659.945	6.803	-0.212	0.159
-658.930	-136.786	-0.232	-0.027
-657.916	81.584	0.007	0.008
-656.901	29.312	-0.186	-0.159
-655.886	43.218	0.277	-0.255
-654.872	-99.741	-0.259	0.065
-653.857	-35.660	0.097	0.053
-652.843	274.969	-0.066	0.117
-651.828	35.293	0.075	-0.067
-650.814	-81.643	-0.182	-0.060
-649.799	-200.000	0.003	0.048
-648.784	-145.028	-0.165	-0.015
-647.770	214.773	-0.055	-0.087
-646.755	800.000	0.054	-0.209
-645.741	800.000	0.046	-0.134
-644.726	-83.235	-0.084	0.027
-643.711	-54.361	0.102	0.047
-642.697	162.570	-0.128	-0.180
-641.682	99.816	0.017	-0.020
-640.668	-200.000	-0.017	-0.086
-639.653	424.732	0.059	-0.127
-638.638	-169.298	0.376	-0.014
-637.624	210.138	0.155	-0.244
-636.609	65.330	0.200	0.203
-635.595	-112.686	0.089	-0.018
-634.580	-49.664	0.264	0.126
-633.565	-134.825	-0.014	0.002
-632.551	248.770	0.137	0.233
-631.536	-200.000	-0.016	-0.334
-630.522	275.821	-0.132	-0.235
-629.507	-200.000	0.012	-0.088
-628.492	-200.000	-0.022	-0.118
-627.478	296.101	0.081	-0.149
-626.463	259.548	0.022	0.038
-625.449	-170.582	0.444	-0.015
-624.434	-1.167	0.136	0.096
-623.419	-27.410	-0.024	0.014
-622.405	69.806	0.053	0.055
-621.390	65.654	-0.138	-0.141
-620.376	302.573	0.183	0.340
-619.361	-200.000	0.038	-0.191
-618.346	579.584	-0.109	-0.269
-617.332	69.261	-0.308	-0.318
-616.317	-113.966	-0.099	-0.019
-615.303	800.000	0.052	0.153
-614.288	-127.610	0.526	-0.077
-613.273	116.955	0.152	-0.187
-612.259	-8.286	0.032	0.021
-611.244	-200.000	0.151	-0.000
-610.230	214.405	0.180	-0.286
-609.215	256.113	-0.042	-0.073
-608.201	800.000	0.100	-0.291
-607.186	-129.519	-0.166	0.023
-606.171	-200.000	-0.019	0.135
-605.157	-165.711	-0.121	0.005
-604.142	-62.371	-0.154	0.064
-603.128	-35.058	-0.294	0.161
-602.113	-82.123	-0.146	-0.048
-601.098	187.095	-0.129	-0.192
-600.084	-157.663	-0.656	0.039
-599.069	-143.182	-0.317	0.031
-598.055	-159.594	0.035	0.002
-597.040	-200.000	-0.018	0.190
-596.025	-100.882	0.257	0.063
-595.011	-200.000	0.024	0.138
-593.996	-200.000	0.013	-0.105
-592.982	-200.000	0.051	0.345
-591.967	-200.000	0.016	0.400
-590.952	800.000	-0.066	-0.279
-589.938	-200.000	-0.012	-0.134
-588.923	-65.169	-0.312	-0.126
-587.909	-35.247	0.175	0.096
-586.894	-139.240	-0.257	0.028
-585.879	-200.000	0.023	-0.103
-584.865	-96.870	0.388	-0.102
-583.850	72.654	0.192	0.202
-582.836	-59.531	0.188	0.081
-581.821	187.304	-0.091	0.136
-580.806	123.840	-0.136	0.172
-579.792	800.000	-0.051	-0.142
-578.777	560.426	-0.155	-0.376
-577.763	-105.691	0.139	0.032
-576.748	-154.913	-0.311	-0.021
-575.733	-38.466	-0.242	0.129
-574.719	189.360	-0.128	-0.192
-573.704	800.000	0.062	-0.248
-572.690	-65.081	0.197	-0.080
-571.675	-16.482	0.143	0.091
-570.661	113.867	-0.056	0.068
-569.646	-134.500	0.412	-0.051
-568.631	8.939	0.223	0.169
-567.617	-9.325	0.121	0.081
-566.602	-200.000	-0.003	0.128
-565.588	18.655	-0.335	0.269
-564.573	51.761	0.109	-0.104
-563.558	-200.000	0.007	0.119
-562.544	800.000	-0.042	0.168
-561.529	-55.634	-0.277	0.124
-560.515	245.826	0.045	-0.076
-559.500	-200.000	0.037	0.206
-558.485	-153.786	0.344	-0.024
-557.471	-43.391	-0.299	-0.152
-556.456	-179.049	-0.122	0.003
-555.442	61.461	-0.191	0.191
-554.427	-200.000	0.047	0.265
-553.412	645.449	0.151	-0.385
-552.398	-200.000	-0.024	-0.225
-551.383	-200.000	0.013	-0.149
-550.369	-190.512	0.035	0.000
-549.354	610.654	0.101	0.253
-548.339	-15.464	-0.202	0.130
-547.325	-46.750	0.351	-0.172
-546.310	-73.776	0.049	-0.018
-545.296	-144.613	-0.257	-0.024
-544.281	8.611	-0.213	-0.161
-543.266	56.383	0.181	0.177
-542.252	-46.796	0.192	-0.094
-541.237	-200.000	-0.018	-0.223
-540.223	-105.306	-0.299	-0.068
-539.208	-135.234	-0.533	-0.064
-538.193	44.834	0.276	0.255
-537.179	52.017	-0.055	-0.053
-536.164	800.000	0.020	-0.066
-535.150	-155.270	0.137	-0.009
-534.135	-200.000	0.017	-0.198
-533.121	-0.498	0.188	0.134
-532.106	-200.000	0.009	0.050
-531.091	-26.589	-0.048	-0.028
-530.077	360.564	-0.140	-0.282
-529.062	-129.543	-0.168	0.023
-528.048	-200.000	-0.036	0.208
-527.033	-33.497	0.131	0.072
-526.018	87.159	-0.172	-0.190
-525.004	432.384	0.062	0.136
-523.989	-76.436	-0.598	-0.211
-522.975	-94.148	0.248	-0.068
-521.960	-200.000	-0.054	-0.239
-520.945	107.795	0.063	-0.075
-519.931	3.556	-0.219	0.160
-518.916	58.558	-0.137	0.135
-517.902	-177.914	0.233	0.006
-516.887	-147.485	-0.230	0.019
-515.872	-200.000	-0.044	0.441
-514.858	800.000	-0.084	0.301
-513.843	65.785	-0.082	0.083
-512.829	665.669	-0.103	-0.267
-511.814	49.896	0.213	0.201
-510.799	-27.863	-0.196	-0.114
-509.785	104.992	-0.269	0.317
-508.770	768.376	-0.124	0.336
-507.756	-84.912	0.351	-0.110
-506.741	311.046	-0.045	-0.085
-505.726	247.948	0.216	0.365
-504.712	800.000	-0.099	0.428
-503.697	20.372	-0.306	0.247
-502.683	-73.128	-0.087	-0.032
-501.668	79.200	0.042	0.045
-500.653	95.355	0.208	-0.237
-499.639	800.000	-0.015	0.058
-498.624	-92.151	0.074	0.021
-497.610	-145.563	0.403	-0.036
-496.595	-126.954	0.440	0.065
-495.581	-121.123	0.354	-0.059
-494.566	800.000	0.045	-0.193
-493.551	800.000	0.054	0.188
-492.537	235.283	0.138	0.228
-491.522	93.437	-0.181	-0.205
-490.508	-28.255	-0.160	-0.092
-489.493	-145.887	0.033	0.003
-488.478	251.892	0.110	-0.187
-487.464	-122.384	-0.391	0.064
-486.449	800.000	-0.107	-0.364
-485.435	550.741	-0.045	-0.108
-484.420	-80.352	0.155	0.052
-483.405	-37.195	-0.086	-0.046
-482.391	-169.399	0.150	-0.005
-481.376	-166.745	-0.149	0.006
-480.362	-200.000	0.031	0.177
-479.347	6.263	-0.322	0.239
-478.332	675.667	0.081	-0.210
-477.318	-200.000	0.074	-0.347
-476.303	-179.963	-0.271	0.006
-475.289	-94.507	-0.426	0.116
-474.274	-152.319	-0.484	-0.035
-473.259	666.187	-0.095	0.246
-472.245	800.000	0.043	-0.162
-471.230	-200.000	0.027	-0.324
-470.216	267.822	-0.277	0.484
-469.201	-200.000	0.020	0.269
-468.186	-93.126	-0.173	-0.048
-467.172	-85.839	0.392	-0.121
-466.157	-200.000	-0.026	0.124
-465.143	-142.435	-0.088	-0.009
-464.128	-0.445	0.256	-0.182
-463.113	282.485	0.107	-0.191
-462.099	-53.630	-0.196	0.089
-461.084	-200.000	0.000	0.398
-460.070	-46.848	0.230	0.112
-459.055	800.000	-0.045	0.133
-458.040	37.103	-0.027	-0.024
-457.026	800.000	0.086	0.325
-456.011	800.000	0.066	0.229
-454.997	-75.625	0.176	0.063
-453.982	-200.000	0.186	0.000
-452.968	-200.000	0.057	-0.252
-451.953	72.506	0.185	0.192
-450.938	211.106	-0.100	0.156
-449.924	440.353	-0.050	0.110
-448.909	-200.000	0.027	-0.203
-447.895	14.709	0.011	-0.009
-446.880	-45.884	-0.262	-0.129
-445.865	106.980	-0.093	0.110
-444.851	349.915	0.148	0.293
-443.836	-76.859	0.368	0.128
-442.822	474.257	-0.109	0.246
-441.807	-169.864	0.273	-0.010
-440.792	-121.232	0.304	-0.051
-439.778	28.630	0.218	-0.184
-438.763	800.000	0.009	0.031
-437.749	469.003	0.074	-0.165
-436.734	7.362	-0.113	0.084
-435.719	800.000	-0.144	0.433
-434.705	345.992	0.061	0.120
-433.690	-200.000	0.033	-0.296
-432.676	-88.829	0.205	0.061
-431.661	-29.639	-0.104	-0.059
-430.646	-92.973	0.030	-0.008
-429.632	-200.000	-0.001	0.256
-428.617	90.680	0.201	0.225
-427.603	-94.507	-0.375	0.102
-426.588	-23.882	-0.116	-0.069
-425.573	234.804	0.236	-0.388
-424.559	42.498	0.076	0.069
-423.544	800.000	-0.076	-0.326
-422.530	-200.000	-0.027	-0.161
-421.515	800.000	-0.055	0.225
-420.500	-7.286	-0.050	0.034
-419.486	-102.506	0.180	-0.043
-418.471	800.000	0.079	-0.310
-417.457	-120.222	-0.406	-0.069
-416.442	176.227	-0.040	0.058
-415.428	-200.000	-0.032	0.309
-414.413	-151.181	-0.015	-0.001
-413.398	-64.897	0.145	-0.059
-412.384	149.678	-0.159	0.214
-411.369	-7.079	0.051	-0.035
-410.355	-200.000	0.007	0.118
-409.340	800.000	0.061	-0.237
-408.325	71.897	-0.052	-0.053
-407.311	53.991	-0.262	0.251
-406.296	-154.462	-0.197	0.013
-405.282	341.781	0.181	0.352
-404.267	363.288	0.071	0.142
-403.252	74.690	0.175	0.183
-402.238	227.098	-0.129	0.209
-401.223	800.000	-0.027	0.086
-400.209	480.106	0.038	-0.087
-399.194	800.000	0.041	-0.131
-398.179	-200.000	-0.027	-0.178
-397.165	-75.895	0.277	0.098
-396.150	-149.541	-0.088	0.007
-395.136	800.000	0.016	0.048
-394.121	24.178	-0.074	0.061
-393.106	-200.000	0.071	-0.343
-392.092	-95.669	0.196	0.052
-391.077	-106.663	-0.323	0.072
-390.063	9.131	-0.285	0.214
-389.048	79.175	0.175	0.187
-388.033	-200.000	0.012	-0.232
-387.019	-73.152	0.116	-0.042
-386.004	-200.000	-0.020	-0.153
-384.990	-87.296	-0.609	0.184
-383.975	204.923	0.268	-0.414
-382.960	681.273	-0.036	-0.094
-381.946	-87.564	-0.253	-0.076
-380.931	-40.089	-0.158	-0.082
-379.917	5.471	-0.206	0.151
-378.902	-61.413	-0.243	0.102
-377.888	72.262	-0.076	0.078
-376.873	-1.683	-0.188	-0.132
-375.858	-39.459	0.197	0.103
-374.844	800.000	-0.037	-0.103
-373.829	-200.000	-0.027	-0.187
-372.815	-2.118	-0.233	0.163
-371.800	238.801	-0.183	0.303
-370.785	86.885	-0.085	-0.094
-369.771	-20.194	0.174	0.106
-368.756	-190.082	0.548	-0.006
-367.742	307.686	-0.186	0.344
-366.727	18.729	-0.197	-0.157
-365.712	13.168	0.176	0.136
-364.698	128.236	-0.234	-0.297
-363.683	303.371	0.038	0.070
-362.669	748.501	0.143	0.384
-361.654	-200.000	0.004	-0.041
-360.639	141.372	-0.164	0.216
-359.625	71.117	-0.189	0.195
-358.610	342.879	-0.062	-0.122
-357.596	800.000	-0.035	-0.139
-356.581	-121.308	0.203	-0.034
-355.566	-142.795	-0.133	0.013
-354.552	-109.213	-0.225	-0.048
-353.537	128.368	0.132	0.167
-352.523	-128.743	0.087	-0.012
-351.508	800.000	0.083	0.245
-350.493	25.803	0.282	-0.234
-349.479	-51.372	-0.127	-0.059
-348.464	41.583	0.225	-0.202
-347.450	-52.228	-0.146	-0.067
-346.435	386.077	0.026	0.053
-345.420	-200.000	0.050	-0.444
-344.406	5.718	0.012	0.009
-343.391	2.618	-0.098	-0.071
-342.377	-116.623	0.169	0.031
-341.362	13.773	0.161	-0.124
-340.348	443.896	0.108	0.235
-339.333	6.658	0.349	-0.258
-338.318	252.898	0.139	-0.236
-337.304	209.440	0.003	-0.004
-336.289	-62.252	-0.158	-0.065
-335.275	-69.564	-0.253	-0.096
-334.260	191.111	-0.051	0.076
-333.245	-39.185	0.180	0.094
-332.231	-144.747	0.325	0.030
-331.216	-6.868	-0.062	-0.042
-330.202	-126.246	-0.137	0.020
-329.187	-131.472	-0.114	0.015
-328.172	-200.000	0.021	-0.376
-327.158	141.771	0.069	0.090
-326.143	-59.014	-0.185	-0.079
-325.129	-40.184	-0.315	0.163
-324.114	110.831	-0.093	0.111
-323.099	-71.898	0.086	0.032
-322.085	82.986	-0.101	0.109
-321.070	-13.918	-0.190	0.122
-320.056	-200.000	0.069	0.339
-319.041	138.048	0.120	-0.157
-318.026	113.254	0.310	0.373
-317.012	-33.666	-0.160	-0.087
-315.997	-127.425	0.149	-0.022
-314.983	356.114	-0.243	0.481
-313.968	-82.622	0.196	0.063
-312.953	82.697	0.100	0.108
-311.939	-172.667	-0.129	-0.004
-310.924	-9.373	0.201	0.133
-309.910	-98.987	0.206	-0.052
-308.895	550.339	-0.165	0.393
-307.880	780.860	-0.061	-0.166
-306.866	-134.157	0.290	0.036
-305.851	205.297	-0.139	-0.214
-304.837	48.524	-0.121	-0.113
-303.822	-14.728	0.157	0.100
-302.807	-35.018	0.156	-0.084
-301.793	800.000	-0.069	0.263
-300.778	800.000	0.159	-0.510
-299.764	-200.000	-0.021	0.142
-298.749	800.000	0.058	-0.208
-297.735	7.783	0.100	0.074
-296.720	-99.404	0.403	0.101
-295.705	232.998	-0.037	0.060
-294.691	456.818	-0.191	-0.420
-293.676	-36.271	0.260	0.139
-292.662	-130.723	0.131	0.017
-291.647	260.904	-0.169	0.290
-290.632	524.896	-0.075	-0.175
-289.618	43.008	-0.117	0.106
-288.603	180.003	-0.118	-0.172
-287.589	-70.513	-0.151	-0.057
-286.574	-93.043	0.249	-0.069
-285.559	15.140	-0.185	-0.144
-284.545	-56.358	-0.131	-0.058
-283.530	107.202	-0.124	-0.146
-282.516	-149.960	0.195	0.015
-281.501	-72.000	0.144	0.053
-280.486	-200.000	-0.006	-0.262
-279.472	-68.130	0.204	-0.079
-278.457	191.566	0.158	0.236
-277.443	236.720	0.063	0.103
-276.428	800.000	0.035	-0.120
-275.413	800.000	-0.042	0.122
-274.399	14.415	0.256	0.198
-273.384	-200.000	0.002	0.322
-272.370	-86.492	0.377	0.115
-271.355	475.121	-0.059	-0.132
-270.340	624.465	0.028	-0.070
-269.326	62.777	0.069	0.069
-268.311	800.000	-0.058	0.163
-267.297	-69.567	0.181	0.069
-266.282	124.803	-0.195	0.244
-265.267	800.000	0.012	-0.045
-264.253	-200.000	0.010	-0.060
-263.238	-164.968	0.215	-0.009
-262.224	-200.000	-0.042	0.405
-261.209	-200.000	-0.059	-0.344
-260.195	734.847	0.083	-0.221
-259.180	-200.000	-0.001	-0.270
-258.165	-30.996	-0.110	0.062
-257.151	-200.000	0.002	0.130
-256.136	63.720	0.292	0.291
-255.122	-50.692	-0.091	0.042
-254.107	205.897	-0.056	0.087
-253.092	93.145	0.151	-0.169
-252.078	325.888	0.159	-0.302
-251.063	-200.000	-0.014	0.069
-250.049	-66.301	-0.132	-0.052
-249.034	-67.973	0.318	0.123
-248.019	800.000	0.079	-0.228
-247.005	123.844	0.031	-0.039
-245.990	323.356	-0.125	0.236
-244.976	-19.972	0.481	0.294
-243.961	330.670	0.188	-0.358
-242.946	-48.938	0.131	0.062
-241.932	800.000	0.024	-0.101
-240.917	-87.939	-0.272	0.081
-239.903	684.802	-0.037	0.096
-238.888	-45.641	-0.182	-0.089
-237.873	-200.000	-0.002	0.187
-236.859	-21.418	0.277	0.167
-235.844	-52.432	-0.268	0.123
-234.830	-150.066	-0.318	-0.024
-233.815	231.316	0.140	-0.227
-232.800	-40.106	-0.758	-0.391
-231.786	-112.099	-0.097	0.019
-230.771	74.171	0.292	0.303
-229.757	445.668	-0.145	-0.316
-228.742	-120.167	-0.176	-0.030
-227.727	-92.239	0.174	0.049
-226.713	-200.000	-0.043	-0.197
-225.698	-5.027	-0.108	-0.074
-224.684	800.000	-0.048	0.131
-223.669	-200.000	0.010	-0.082
-222.655	60.788	-0.187	-0.184
-221.640	-38.554	0.223	-0.116
-220.625	-8.979	0.200	-0.133
-219.611	-103.731	0.053	0.012
-218.596	777.268	-0.045	-0.121
-217.582	-45.104	-0.126	0.062
-216.567	-200.000	-0.040	0.379
-215.552	37.561	0.060	0.053
-214.538	16.715	-0.341	-0.267
-213.523	-114.075	0.193	0.037
-212.509	361.977	0.046	0.090
-211.494	238.731	-0.101	0.166
-210.479	-115.863	-0.074	-0.014
-209.465	8.767	0.148	0.111
-208.450	-158.190	-0.198	-0.011
-207.436	51.105	-0.253	0.238
-206.421	-48.282	0.423	0.202
-205.406	-4.195	0.115	-0.079
-204.392	131.561	-0.071	0.090
-203.377	-122.008	-0.208	-0.034
-202.363	281.768	0.056	-0.100
-201.348	-2.957	0.112	-0.078
-200.333	412.567	0.077	-0.161
-199.319	800.000	0.020	-0.083
-198.304	-133.015	-0.356	-0.045
-197.290	26.965	-0.234	-0.194
-196.275	213.485	-0.169	-0.265
-195.260	14.294	0.215	0.166
-194.246	-30.404	-0.443	-0.249
-193.231	-139.022	0.186	0.020
-192.217	-114.479	-0.195	-0.037
-191.202	157.434	-0.047	-0.064
-190.187	33.152	0.163	-0.139
-189.173	-100.191	0.218	0.053
-188.158	45.112	0.167	-0.152
-187.144	-200.000	-0.027	0.253
-186.129	-18.443	0.021	0.013
-185.114	-200.000	0.032	-0.151
-184.100	102.988	-0.110	-0.128
-183.085	614.334	-0.089	0.221
-182.071	189.849	-0.216	0.320
-181.056	-200.000	0.024	0.144
-180.042	245.909	-0.107	-0.178
-179.027	375.825	0.111	0.224
-178.012	52.954	0.140	-0.132
-176.998	151.080	-0.123	-0.166
-175.983	-200.000	0.031	-0.176
-174.969	-78.637	-0.114	-0.038
-173.954	-99.927	0.212	0.052
-172.939	-83.981	0.158	-0.050
-171.925	-16.535	0.096	-0.060
-170.910	158.912	0.040	0.055
-169.896	-119.642	-0.354	0.060
-168.881	23.212	0.129	-0.105
-167.866	68.758	0.111	0.112
-166.852	382.720	-0.139	0.282
-165.837	-130.079	0.051	0.007
-164.823	315.623	0.195	-0.363
-163.808	-66.351	-0.303	-0.119
-162.793	60.867	0.161	0.157
-161.779	459.799	-0.242	-0.533
-160.764	593.888	-0.038	-0.093
-159.750	-6.687	-0.184	0.124
-158.735	-11.323	0.177	-0.115
-157.720	-12.246	-0.182	-0.118
-156.706	-200.000	0.071	-0.329
-155.691	51.561	0.356	-0.334
-154.677	-111.036	-0.152	0.031
-153.662	-121.014	0.375	-0.062
-152.647	189.678	-0.181	-0.267
-151.633	232.860	-0.092	-0.149
-150.618	-84.717	-0.248	-0.077
-149.604	153.171	-0.041	0.055
-148.589	800.000	-0.037	-0.107
-147.574	18.522	-0.225	-0.177
-146.560	-200.000	-0.010	0.199
-145.545	-200.000	0.064	-0.332
-144.531	-51.857	-0.007	-0.003
-143.516	800.000	-0.028	-0.078
-142.502	21.747	0.114	0.092
-141.487	571.519	0.140	0.336
-140.472	231.814	0.126	-0.203
-139.458	46.454	-0.216	-0.197
-138.443	445.048	-0.094	0.204
-137.429	136.520	0.033	-0.042
-136.414	-39.721	0.360	0.186
-135.399	-30.765	-0.200	0.112
-134.385	-73.164	-0.023	0.008
-133.370	302.145	0.112	0.204
-132.356	225.910	-0.045	-0.072
-131.341	800.000	0.053	0.192
-130.326	-200.000	0.022	0.097
-129.312	189.440	-0.090	-0.133
-128.297	-58.136	0.234	0.101
-127.283	438.802	-0.031	-0.067
-126.268	292.933	0.032	0.058
-125.253	-112.484	-0.132	0.026
-124.239	565.387	-0.109	0.261
-123.224	154.247	0.141	-0.191
-122.210	558.038	0.030	0.072
-121.195	-200.000	-0.050	0.279
-120.180	800.000	-0.130	-0.524
-119.166	-200.000	-0.055	-0.257
-118.151	-140.175	-0.212	0.022
-117.137	25.577	-0.119	-0.097
-116.122	-200.000	-0.011	-0.217
-115.107	800.000	0.067	-0.244
-114.093	363.180	-0.035	0.069
-113.078	800.000	-0.099	-0.293
-112.064	430.600	0.105	-0.224
-111.049	23.611	0.187	0.151
-110.034	103.083	0.192	-0.221
-109.020	521.001	-0.112	0.258
-108.005	557.187	-0.037	0.088
-106.991	82.461	-0.279	-0.298
-105.976	643.134	0.092	-0.231
-104.962	-83.644	0.293	-0.092
-103.947	-29.240	-0.240	-0.136
-102.932	160.646	0.035	0.048
-101.918	101.965	-0.102	-0.117
-100.903	-34.136	-0.223	0.121
-99.889	534.982	-0.017	0.040
-98.874	697.448	0.105	0.272
-97.859	-200.000	-0.051	-0.249
-96.845	800.000	0.055	-0.164
-95.830	-200.000	-0.030	-0.288
-94.816	-200.000	-0.039	-0.319
-93.801	-200.000	0.068	-0.423
-92.786	62.531	0.081	0.080
-91.772	-96.461	-0.234	0.061
-90.757	81.482	-0.164	-0.174
-89.743	-42.040	0.342	-0.173
-88.728	17.134	0.291	0.227
-87.713	-51.191	-0.188	0.087
-86.699	-200.000	0.010	0.105
-85.684	59.702	0.132	-0.128
-84.670	-200.000	0.011	-0.374
-83.655	-200.000	0.017	0.192
-82.640	800.000	0.031	0.122
-81.626	-200.000	0.016	-0.389
-80.611	-200.000	-0.056	-0.252
-79.597	-129.662	-0.065	0.009
-78.582	-55.631	0.164	-0.072
-77.567	65.462	0.127	0.126
-76.553	-104.347	-0.352	0.080
-75.538	-131.936	0.547	0.070
-74.524	64.709	-0.347	-0.344
-73.509	800.000	0.087	0.353
-72.494	-48.159	-0.157	0.075
-71.480	-114.741	0.116	-0.022
-70.465	-84.593	-0.096	-0.030
-69.451	276.136	0.087	-0.151
-68.436	83.168	0.255	-0.273
-67.422	-200.000	0.025	-0.345
-66.407	-78.673	-0.116	-0.039
-65.392	-114.457	0.109	0.021
-64.378	-41.255	0.307	0.156
-63.363	-200.000	-0.005	-0.311
-62.349	44.769	0.269	0.243
-61.334	32.812	-0.946	-0.805
-60.319	-41.498	0.488	0.247
-59.305	-200.000	-0.149	-1.479
-58.290	587.718	0.446	1.079
-57.276	350.008	0.723	1.404
-56.261	-200.000	99.157	604.100
-55.246	607.084	1396.110	3421.839
-54.232	194.496	2577.672	3841.912
-53.217	119.063	2140.514	2601.304
-52.203	43.489	1596.105	1434.084
-51.188	35.085	1331.626	1146.362
-50.173	31.777	1289.973	1091.235
-49.159	54.651	1338.802	1268.684
-48.144	56.572	1355.624	1295.953
-47.130	35.076	1313.209	1130.275
-46.115	31.632	1295.462	1094.857
-45.100	31.420	1290.563	1089.435
-44.086	31.359	1288.016	1086.889
-43.071	31.260	1286.039	1084.602
-42.057	31.321	1283.802	1083.026
-41.042	31.387	1281.900	1081.763
-40.027	31.295	1280.969	1080.399
-39.013	31.283	1279.334	1078.907
-37.998	31.333	1276.996	1077.180
-36.984	31.387	1275.857	1076.491
-35.969	31.419	1273.623	1074.747
-34.954	31.540	1271.902	1073.945
-33.940	31.325	1270.794	1071.734
-32.925	31.557	1268.955	1071.470
-31.911	31.433	1268.141	1070.031
-30.896	31.502	1266.509	1069.007
-29.881	31.516	1265.216	1067.950
-28.867	31.556	1264.086	1067.181
-27.852	31.617	1262.480	1066.134
-26.838	31.645	1260.658	1064.713
-25.823	31.464	1259.568	1062.722
-24.809	31.490	1258.476	1061.902
-23.794	31.419	1257.371	1060.526
-22.779	31.504	1255.734	1059.585
-21.765	31.417	1254.669	1058.155
-20.750	31.535	1253.397	1057.706
-19.736	31.423	1251.567	1055.488
-18.721	31.273	1250.672	1053.843
-17.706	31.431	1249.407	1053.625
-16.692	31.421	1248.583	1052.832
-15.677	31.181	1247.739	1050.729
-14.663	31.392	1245.524	1050.004
-13.648	31.356	1245.257	1049.541
-12.633	31.290	1244.021	1048.083
-11.619	31.229	1243.595	1047.342
-10.604	31.178	1242.871	1046.405
-9.590	31.193	1241.903	1045.631
-8.575	31.256	1240.569	1044.821
-7.560	31.259	1239.660	1044.032
-6.546	31.325	1238.981	1043.786
-5.531	31.360	1237.746	1042.896
-4.517	31.368	1236.995	1042.266
-3.502	31.354	1236.114	1041.409
-2.487	31.339	1235.176	1040.491
-1.473	31.351	1230.972	1036.976
-0.458	29.871	1215.825	1016.055
0.556	24.911	1198.424	977.486
1.571	21.337	1202.645	961.228
2.586	20.233	1217.493	966.858
3.600	19.718	1206.849	955.474
4.615	15.141	1136.148	875.547
5.629	7.808	1064.472	784.203
6.644	4.747	1045.431	755.273
7.659	4.442	1043.232	752.141
8.673	4.521	1042.069	751.619
9.688	4.540	1040.828	750.747
10.702	4.620	1038.572	749.439
11.717	8.635	1044.620	773.168
12.731	15.504	1053.689	813.184
13.746	18.483	1056.680	829.865
14.761	18.017	1055.479	826.598
15.775	16.966	1053.631	819.998
16.790	15.964	1051.060	813.089
17.804	15.059	1049.823	807.695
18.819	14.805	1048.936	805.718
19.834	14.621	1047.775	803.866
20.848	14.295	1047.045	801.670
21.863	13.941	1046.729	799.653
22.877	13.846	1045.889	798.482
23.892	14.022	1044.696	798.345
24.907	13.995	1043.824	797.481
25.921	13.883	1043.106	796.321
26.936	13.961	1041.661	795.525
27.950	14.075	1040.326	794.977
28.965	13.972	1039.445	793.741
29.980	14.219	1037.444	793.322
30.994	14.190	1036.276	792.220
32.009	14.229	1035.423	791.686
33.023	14.349	1033.937	791.048
34.038	14.108	1033.328	789.368
35.053	13.984	1032.916	788.393
36.067	14.140	1031.282	787.817
37.082	14.096	1030.749	787.132
38.096	14.252	1029.726	787.019
39.111	14.248	1029.196	786.525
40.126	14.120	1027.948	784.900
41.140	13.994	1026.503	783.130
42.155	13.923	1025.572	782.019
43.169	13.900	1024.609	781.106
44.184	13.785	1023.682	779.787
45.199	14.018	1022.538	779.941
46.213	13.879	1021.867	778.712
47.228	13.923	1020.902	778.113
48.242	14.120	1019.388	777.809
49.257	13.971	1019.111	776.832
50.271	14.193	1018.141	777.062
51.286	14.230	1017.295	776.522
52.301	14.242	1016.053	775.560
53.315	13.869	1015.632	773.432
54.330	13.980	1013.880	772.545
55.344	14.011	1013.196	772.099
56.359	13.870	1012.588	770.913
57.374	14.028	1011.092	770.440
58.388	13.909	1010.573	769.425
59.403	13.831	1010.260	768.757
60.417	13.776	1009.380	767.762
61.432	13.757	1008.582	767.002
62.447	13.889	1007.468	766.698
63.461	13.798	1006.659	765.595
64.476	13.793	1005.573	764.675
65.490	13.762	1004.862	763.924
66.505	13.821	1004.477	763.836
67.520	13.828	1003.686	763.202
68.534	13.786	1002.936	762.371
69.549	13.929	1001.838	762.125
70.563	13.800	1001.233	761.005
71.578	13.760	1000.378	760.103
72.593	13.574	1000.147	759.009
73.607	13.631	999.278	758.544
74.622	13.785	998.317	758.450
75.636	13.567	998.080	757.209
76.651	13.745	997.354	757.400
77.666	13.681	996.865	756.671
78.680	13.644	996.522	756.173
79.695	13.785	995.448	755.937
80.709	13.851	994.834	755.701
81.724	13.848	994.286	755.207
82.739	14.022	993.241	755.137
83.753	14.073	992.507	754.742
84.768	14.149	992.053	754.676
85.782	14.232	991.147	754.299
86.797	14.106	990.472	753.145
87.812	13.989	989.452	751.773
88.826	14.127	988.077	751.286
89.841	14.115	987.364	750.625
90.855	14.200	986.249	750.091
91.870	14.209	985.611	749.582
92.884	14.233	984.898	749.081
93.899	14.221	983.902	748.203
94.914	14.386	982.750	748.002
95.928	14.306	982.437	747.339
96.943	14.282	981.319	746.316
97.957	14.272	980.492	745.572
98.972	14.182	979.908	744.659
99.987	14.218	978.802	743.914
101.001	14.094	978.296	742.910
102.016	14.284	977.012	742.718
103.030	14.255	976.211	741.916
104.045	14.085	975.897	740.854
105.060	14.209	974.403	740.204
106.074	13.988	973.821	738.715
107.089	13.861	972.872	737.364
108.103	13.918	971.988	736.881
109.118	13.934	970.832	736.013
110.133	13.915	969.740	735.035
111.147	13.951	968.812	734.427
112.162	13.889	968.570	733.904
113.176	14.141	967.289	733.981
114.191	14.017	966.935	733.099
115.206	13.970	965.919	732.056
116.220	13.993	965.699	731.929
117.235	13.931	964.623	730.776
118.249	14.030	963.517	730.306
119.264	13.877	962.896	729.100
120.279	13.963	961.421	728.294
121.293	13.811	961.368	727.525
122.308	13.811	960.247	726.612
123.322	13.918	959.107	726.153
124.337	13.718	958.438	724.707
125.352	13.941	957.049	724.568
126.366	13.879	956.162	723.558
127.381	13.955	954.967	722.922
128.395	13.871	954.419	722.079
129.410	13.850	953.478	721.212
130.424	14.091	952.563	721.501
131.439	14.179	951.946	721.352
132.454	13.976	951.688	720.212
133.468	13.959	950.988	719.545
134.483	14.026	949.894	718.946
135.497	14.022	948.901	718.111
136.512	14.064	948.119	717.639
137.527	13.985	947.005	716.389
138.541	14.080	946.566	716.403
139.556	14.167	945.954	716.251
140.570	14.116	945.379	715.534
141.585	14.342	944.695	715.927
142.600	14.269	943.896	714.941
143.614	14.244	943.449	714.433
144.629	14.304	942.820	714.150
145.643	14.352	941.558	713.339
146.658	14.251	940.598	712.116
147.673	14.132	939.480	710.697
148.687	14.166	938.700	710.192
149.702	14.107	937.767	709.171
150.716	14.006	937.396	708.393
151.731	14.072	936.399	707.860
152.746	14.116	935.905	707.611
153.760	14.194	935.206	707.352
154.775	14.315	935.074	707.706
155.789	14.398	934.214	707.341
156.804	14.261	933.409	706.090
157.819	14.368	932.523	705.812
158.833	14.348	932.121	705.358
159.848	14.466	931.042	704.980
160.862	14.322	930.084	703.581
161.877	14.283	929.002	702.536
162.892	14.170	928.244	701.425
163.906	14.096	927.359	700.381
164.921	14.198	926.478	700.087
165.935	14.319	925.498	699.793
166.950	14.453	924.609	699.621
167.964	14.397	924.125	698.955
168.979	14.359	923.063	697.934
169.994	14.184	922.436	696.663
171.008	14.298	921.849	696.638
172.023	14.375	920.931	696.202
173.037	14.358	920.201	695.519
174.052	14.531	919.369	695.551
175.067	14.421	918.944	694.705
176.081	14.340	918.653	694.089
177.096	14.155	918.253	692.954
178.110	14.228	917.386	692.541
179.125	14.334	916.714	692.414
180.140	14.506	915.899	692.451
181.154	14.403	915.859	691.933
182.169	14.527	915.087	691.801
183.183	14.522	915.067	691.707
184.198	14.612	913.599	690.907
185.213	14.471	913.035	689.837
186.227	14.564	912.214	689.541
187.242	14.651	911.633	689.399
188.256	14.730	911.590	689.629
189.271	14.695	910.492	688.596
190.286	14.366	909.649	686.542
191.300	14.197	908.945	685.253
192.315	14.330	907.959	684.995
193.329	14.425	907.501	684.982
194.344	14.570	906.634	684.859
195.359	14.470	906.519	684.305
196.373	14.635	905.764	684.348
197.388	14.613	905.785	684.215
198.402	14.756	904.764	683.969
199.417	14.827	904.382	683.910
200.432	14.839	903.721	683.397
201.446	14.964	903.300	683.532
202.461	14.960	902.958	683.196
203.475	15.072	902.041	682.898
204.490	14.848	901.213	681.295
205.504	14.717	900.671	680.294
206.519	14.793	899.950	679.996
207.534	14.718	899.500	679.292
208.548	14.801	898.766	679.017
209.563	14.757	898.124	678.291
210.577	14.832	897.518	678.079
211.592	14.892	896.710	677.649
212.607	14.944	895.632	676.986
213.621	14.894	895.416	676.561
214.636	14.878	894.372	675.647
215.650	14.992	893.598	675.462
216.665	15.008	893.217	675.179
217.680	15.078	892.948	675.198
218.694	15.167	891.985	674.769
219.709	15.046	891.385	673.769
220.723	15.023	891.010	673.335
221.738	14.997	890.121	672.499
222.753	15.000	889.243	671.786
223.767	15.131	888.748	671.881
224.782	15.276	888.491	672.206
225.796	15.171	888.057	671.397
226.811	15.321	886.574	670.817
227.826	15.121	886.304	669.754
228.840	15.092	885.240	668.774
229.855	15.020	884.907	668.176
230.869	15.126	883.913	667.790
231.884	15.049	883.138	666.839
232.899	15.009	882.560	666.184
233.913	15.030	881.965	665.761
234.928	14.964	881.430	665.033
235.942	14.956	880.617	664.332
236.957	15.081	880.252	664.494
237.972	15.090	879.528	663.925
238.986	15.114	879.061	663.608
240.001	15.083	878.697	663.151
241.015	15.236	878.159	663.290
242.030	15.263	877.238	662.644
243.045	15.236	876.870	662.199
244.059	15.079	876.623	661.334
245.074	15.259	875.824	661.384
246.088	15.310	874.973	660.885
247.103	15.263	874.882	660.572
248.117	15.452	873.814	660.450
249.132	15.502	873.602	660.428
250.147	15.544	872.938	660.035
251.161	15.852	871.766	660.299
252.176	15.708	871.434	659.421
253.190	15.753	870.994	659.208
254.205	15.732	870.529	658.715
255.220	15.792	869.431	658.059
256.234	15.653	869.081	657.195
257.249	15.712	868.347	656.813
258.263	15.762	867.524	656.326
259.278	15.580	867.401	655.464
260.293	15.703	866.369	655.106
261.307	15.803	865.982	655.145
262.322	15.790	865.253	654.484
263.336	15.913	864.363	654.231
264.351	15.982	863.660	653.909
265.366	15.929	863.239	653.327
266.380	15.996	862.570	653.025
267.395	15.892	861.718	651.919
268.409	15.876	861.178	651.388
269.424	15.993	860.376	651.179
270.439	15.953	859.328	650.171
271.453	15.791	859.150	649.355
272.468	15.934	858.600	649.432
273.482	15.822	858.180	648.626
274.497	15.767	857.773	648.048
275.512	15.875	856.561	647.493
276.526	15.911	856.290	647.366
277.541	16.006	855.824	647.325
278.555	16.045	855.401	647.094
279.570	16.193	854.488	646.917
280.585	16.107	853.878	646.069
281.599	15.991	853.326	645.147
282.614	15.863	852.702	644.130
283.628	16.021	851.701	643.919
284.643	16.079	851.315	643.795
285.657	16.089	850.644	643.266
286.672	16.161	850.134	643.099
287.687	15.980	849.624	641.967
288.701	16.051	849.531	642.111
289.716	16.071	848.647	641.461
290.730	16.174	847.819	641.170
291.745	16.102	847.609	640.682
292.760	16.212	846.864	640.480
293.774	16.214	846.362	640.050
294.789	16.321	845.338	639.622
295.803	16.061	845.079	638.388
296.818	15.993	844.229	637.429
297.833	16.240	843.509	637.766
298.847	16.257	842.923	637.328
299.862	16.311	842.133	636.880
300.876	16.363	841.714	636.701
301.891	16.389	841.266	636.403
302.906	16.391	840.646	635.886
303.920	16.404	840.862	636.044
304.935	16.399	840.113	635.401
305.949	16.388	839.142	634.570
306.964	16.342	838.400	633.780
307.979	16.393	837.929	633.558
308.993	16.378	837.516	633.136
310.008	16.437	836.751	632.719
311.022	16.449	836.142	632.249
312.037	16.404	835.711	631.700
313.052	16.280	834.922	630.582
314.066	16.211	834.832	630.203
315.081	16.442	833.803	630.230
316.095	16.314	833.437	629.423
317.110	16.314	832.840	628.915
318.125	16.292	832.342	628.400
319.139	16.412	831.679	628.291
320.154	16.406	831.259	627.897
321.168	16.521	830.626	627.789
322.183	16.484	830.256	627.316
323.197	16.398	829.969	626.726
324.212	16.494	829.307	626.526
325.227	16.489	828.839	626.100
326.241	16.365	828.514	625.337
327.256	16.472	827.956	625.256
328.270	16.470	827.336	624.727
329.285	16.396	826.520	623.781
330.300	16.540	825.822	623.732
331.314	16.423	825.745	623.187
332.329	16.517	824.961	622.885
333.343	16.708	824.400	623.111
334.358	16.730	824.084	622.897
335.373	16.659	823.708	622.296
336.387	16.624	823.801	622.183
337.402	16.899	823.106	622.614
338.416	16.942	822.627	622.354
339.431	16.887	822.422	621.942
340.446	16.996	822.039	621.996
341.460	17.165	821.342	622.034
342.475	16.942	821.516	621.292
343.489	16.888	821.022	620.667
344.504	17.016	820.495	620.684
345.519	17.110	820.180	620.733
346.533	17.056	819.434	619.916
347.548	16.960	819.110	619.266
348.562	16.955	818.374	618.637
349.577	16.956	817.662	618.046
350.592	16.800	817.250	617.112
351.606	16.820	816.439	616.518
352.621	16.837	815.559	615.862
353.635	17.078	815.001	616.260
354.650	16.932	814.574	615.353
355.665	17.026	813.739	615.008
356.679	17.173	812.746	614.735
357.694	17.118	812.625	614.389
358.708	17.168	812.039	614.073
359.723	17.149	811.493	613.539
360.738	17.216	810.734	613.152
361.752	17.172	810.381	612.670
362.767	17.170	809.975	612.304
363.781	17.181	809.329	611.801
364.796	17.397	808.574	611.952
365.810	17.377	808.784	611.986
366.825	17.360	808.499	611.654
367.840	17.389	808.024	611.344
368.854	17.254	807.187	610.173
369.869	17.298	806.967	610.113
370.883	17.243	806.823	609.751
371.898	17.356	806.379	609.768
372.913	17.541	806.015	610.101
373.927	17.427	805.379	609.157
374.942	17.539	804.574	608.893
375.956	17.472	804.255	608.359
376.971	17.572	803.800	608.317
377.986	17.689	803.326	608.323
379.000	17.757	802.900	608.191
380.015	17.597	802.625	607.358
381.029	17.732	801.635	607.033
382.044	17.706	801.246	606.593
383.059	17.664	800.752	606.016
384.073	17.516	799.994	604.866
385.088	17.488	799.531	604.361
386.102	17.366	799.486	603.842
387.117	17.550	798.202	603.470
388.132	17.633	797.841	603.437
389.146	17.628	797.232	602.905
390.161	17.700	796.817	602.793
391.175	17.777	796.573	602.827
392.190	17.608	796.295	601.965
393.205	17.505	795.533	600.973
394.219	17.612	795.222	601.061
395.234	17.568	794.905	600.616
396.248	17.526	794.547	600.144
397.263	17.502	793.986	599.580
398.278	17.545	793.604	599.393
399.292	17.473	793.388	598.923
400.307	17.500	792.836	598.546
401.321	17.486	792.417	598.129
402.336	17.618	791.815	598.083
403.350	17.593	791.688	597.847
404.365	17.641	791.335	597.699
405.380	17.990	790.564	598.284
406.394	17.845	789.914	597.232
407.409	17.957	789.471	597.236
408.423	17.834	789.498	596.773
409.438	17.875	788.947	596.445
410.453	18.056	788.600	596.763
411.467	18.129	787.760	596.330
412.482	18.187	787.605	596.364
413.496	18.124	787.205	595.787
414.511	18.143	786.848	595.530
415.526	18.184	786.177	595.114
416.540	18.140	785.709	594.554
417.555	18.247	785.216	594.499
418.569	18.202	785.241	594.307
419.584	18.178	784.691	593.756
420.599	18.049	784.599	593.188
421.613	156.737	1370.043	1794.713
422.628	135.413	1455.324	1794.803
