DTS Sentinel unit serial number:	SN413079Multiplexer serial number:	ORYXHardware model number:	OX4-SRSoftware version number:	ORYX F/W v4.00 Oryx Data Collector v3.7.2.0data status	okinstallation	princeton_trtdifferential loss correction	single-endedforward channel	channel 1reverse channel	N/Adate	2019/09/13time	22:22:35forward acquisition time	60.00reverse acquisition time	0.00gamma	496.2192k internal	0.2332k external	0.2332temperature offset calibration	1.0091default loss term (dB/km)	0.3790temperature slope calibration	1.0000multiplexer offset coefficient	1.0000multiplexer slope coefficient	1.0000fibre end	0.00T internal ref (°C)	27.81T ext. ref 1 (°C)	3.23T ext. ref 2 (°C)	22.48length (m)	temperature (°C)	Stokes	anti-Stokes-747.200	-144.756	0.295	-0.027
-746.185	451.731	0.095	0.211
-745.171	640.418	-0.101	-0.258
-744.156	800.000	-0.071	0.246
-743.142	-165.803	-0.050	0.002
-742.127	243.783	-0.135	0.228
-741.112	800.000	-0.133	0.537
-740.098	433.314	0.133	0.291
-739.083	668.717	0.082	-0.214
-738.069	-7.316	-0.192	0.131
-737.054	78.807	-0.115	0.124
-736.039	-179.049	-0.327	-0.007
-735.025	352.847	0.134	0.268
-734.010	46.801	-0.166	-0.155
-732.996	800.000	-0.029	0.093
-731.981	191.448	0.048	-0.073
-730.966	-34.869	0.304	0.167
-729.952	-78.087	0.040	-0.014
-728.937	47.538	-0.186	-0.174
-727.923	800.000	-0.030	-0.096
-726.908	-200.000	-0.076	0.339
-725.894	123.760	0.275	-0.347
-724.879	-200.000	0.021	-0.119
-723.864	-131.211	0.054	-0.007
-722.850	-200.000	-0.036	0.177
-721.835	-124.182	-0.319	0.050
-720.821	79.456	-0.275	0.297
-719.806	209.003	-0.127	0.200
-718.791	800.000	-0.128	-0.381
-717.777	-17.451	-0.257	0.162
-716.762	-115.279	0.362	-0.069
-715.748	6.216	-0.134	-0.100
-714.733	518.991	-0.063	-0.147
-713.718	112.598	-0.066	-0.080
-712.704	-106.965	-0.199	0.044
-711.689	-200.000	0.015	0.229
-710.675	-4.912	-0.168	-0.116
-709.660	-30.768	-0.394	-0.224
-708.645	-200.000	0.032	0.219
-707.631	-200.000	-0.010	-0.136
-706.616	42.043	0.049	-0.044
-705.602	-91.520	0.097	-0.028
-704.587	559.541	-0.071	-0.173
-703.572	-200.000	0.002	0.055
-702.558	153.893	-0.180	0.247
-701.543	-50.202	-0.164	0.078
-700.529	576.116	0.048	0.118
-699.514	10.202	-0.194	0.148
-698.499	-105.043	-0.229	-0.053
-697.485	-200.000	-0.001	-0.184
-696.470	418.548	0.042	0.091
-695.456	721.924	-0.075	-0.201
-694.441	-99.504	-0.131	-0.033
-693.426	134.507	0.259	-0.337
-692.412	-39.612	-0.278	0.146
-691.397	492.233	-0.124	0.285
-690.383	-200.000	0.007	-0.160
-689.368	-113.946	-0.113	-0.022
-688.354	-70.504	0.040	0.015
-687.339	-94.020	0.224	0.062
-686.324	448.227	-0.026	-0.058
-685.310	-117.878	-0.313	-0.056
-684.295	413.741	-0.115	0.246
-683.281	-200.000	-0.053	-0.250
-682.266	502.451	0.026	0.059
-681.251	152.662	-0.190	-0.261
-680.237	-105.000	0.161	0.037
-679.222	-144.697	0.244	-0.023
-678.208	96.294	-0.068	-0.078
-677.193	94.936	-0.109	0.124
-676.178	-24.987	0.273	-0.162
-675.164	92.712	0.084	-0.095
-674.149	520.337	0.093	-0.218
-673.135	-5.523	-0.182	0.125
-672.120	-200.000	0.000	0.206
-671.105	-57.150	0.424	0.187
-670.091	-60.675	-0.145	-0.062
-669.076	800.000	-0.115	-0.338
-668.062	-7.430	-0.179	-0.121
-667.047	-200.000	-0.024	0.168
-666.032	-68.206	0.115	-0.045
-665.018	65.274	-0.116	0.118
-664.003	-174.478	-0.241	0.007
-662.989	102.074	0.385	-0.451
-661.974	-190.298	-0.410	-0.005
-660.959	32.147	0.213	-0.184
-659.945	-200.000	0.101	-0.000
-658.930	63.647	-0.164	-0.165
-657.916	-200.000	0.035	0.306
-656.901	-138.187	-0.319	-0.035
-655.886	-74.756	0.228	0.082
-654.872	545.197	0.114	0.272
-653.857	74.138	-0.124	-0.130
-652.843	265.862	0.173	0.302
-651.828	-161.650	0.187	-0.010
-650.814	-200.000	-0.001	-0.039
-649.799	11.843	-0.153	0.118
-648.784	384.461	-0.122	-0.251
-647.770	299.652	0.084	-0.156
-646.755	800.000	-0.051	0.147
-645.741	-46.548	-0.206	0.101
-644.726	253.071	-0.116	-0.199
-643.711	724.694	-0.056	0.150
-642.697	-108.415	-0.144	0.031
-641.682	768.873	-0.074	-0.203
-640.668	378.431	-0.215	-0.440
-639.653	67.125	0.142	0.145
-638.638	-200.000	-0.028	0.156
-637.624	-30.320	0.057	0.032
-636.609	-166.688	0.108	0.004
-635.595	-51.811	-0.278	-0.130
-634.580	-41.611	0.310	0.160
-633.565	-200.000	0.017	0.285
-632.551	-72.949	0.264	0.097
-631.536	-120.098	-0.132	-0.023
-630.522	53.902	0.188	0.181
-629.507	-26.353	-0.499	0.293
-628.492	-15.579	-0.180	-0.115
-627.478	95.510	-0.182	-0.207
-626.463	294.682	0.023	-0.042
-625.449	-151.504	-0.257	-0.019
-624.434	-200.000	0.012	-0.057
-623.419	153.617	-0.116	-0.159
-622.405	-5.200	0.332	0.229
-621.390	151.085	-0.065	-0.088
-620.376	800.000	-0.045	-0.139
-619.361	-76.382	-0.256	0.090
-618.346	800.000	-0.041	-0.114
-617.332	-105.450	0.254	0.058
-616.317	15.954	-0.057	0.045
-615.303	-94.247	0.319	-0.087
-614.288	-123.628	-0.088	-0.014
-613.273	800.000	-0.072	-0.234
-612.259	17.649	0.101	0.080
-611.244	800.000	-0.022	0.090
-610.230	-31.258	-0.132	-0.074
-609.215	800.000	0.049	0.201
-608.201	356.360	0.063	-0.125
-607.186	-145.410	-0.298	0.027
-606.171	525.042	-0.122	0.287
-605.157	226.272	-0.080	-0.130
-604.142	21.175	0.223	-0.181
-603.128	171.825	0.093	0.134
-602.113	-200.000	0.020	-0.237
-601.098	269.794	0.067	-0.119
-600.084	-7.178	0.254	-0.172
-599.069	800.000	0.022	0.079
-598.055	33.414	-0.239	0.208
-597.040	-103.711	-0.286	0.067
-596.025	-34.895	-0.247	-0.135
-595.011	-31.492	-0.293	0.165
-593.996	-149.107	-0.330	0.026
-592.982	-200.000	0.007	-0.282
-591.967	36.349	0.210	-0.185
-590.952	-76.819	-0.163	-0.057
-589.938	-82.100	0.328	-0.107
-588.923	-164.823	-0.068	-0.003
-587.909	-200.000	0.002	0.024
-586.894	-83.803	-0.173	0.055
-585.879	486.086	-0.009	0.020
-584.865	-200.000	-0.012	-0.328
-583.850	505.626	0.039	0.090
-582.836	-200.000	-0.085	-0.388
-581.821	177.978	-0.202	-0.295
-580.806	-95.863	-0.333	-0.089
-579.792	-143.318	-0.276	0.026
-578.777	118.718	0.002	-0.002
-577.763	228.941	0.055	-0.090
-576.748	107.759	-0.250	-0.297
-575.733	-200.000	0.007	-0.120
-574.719	-114.892	0.263	-0.050
-573.704	-16.116	-0.029	0.019
-572.690	758.482	-0.079	-0.213
-571.675	204.490	0.110	-0.171
-570.661	-45.227	-0.281	-0.140
-569.646	800.000	0.046	-0.185
-568.631	-31.017	0.213	-0.120
-567.617	165.464	0.129	0.182
-566.602	110.837	0.187	0.225
-565.588	-200.000	-0.001	0.153
-564.573	234.089	-0.119	0.196
-563.558	-200.000	-0.003	-0.128
-562.544	-77.941	0.153	0.053
-561.529	-200.000	0.060	-0.325
-560.515	-200.000	0.009	0.131
-559.500	-64.401	-0.158	0.064
-558.485	-6.731	-0.206	0.140
-557.471	-69.648	0.360	0.138
-556.456	250.854	-0.126	0.214
-555.442	-10.006	0.204	0.136
-554.427	-125.951	-0.077	-0.012
-553.412	-163.397	-0.210	0.010
-552.398	-200.000	0.000	-0.292
-551.383	25.560	-0.025	0.020
-550.369	-200.000	-0.004	-0.286
-549.354	-3.099	-0.130	0.091
-548.339	-200.000	0.010	-0.294
-547.325	-153.141	0.319	0.022
-546.310	-94.378	-0.044	0.012
-545.296	503.691	0.109	-0.251
-544.281	-69.618	-0.223	0.085
-543.266	207.049	-0.144	-0.224
-542.252	100.095	0.212	-0.245
-541.237	-57.266	-0.162	-0.071
-540.223	-90.877	-0.198	-0.057
-539.208	800.000	0.031	0.093
-538.193	5.942	0.168	-0.124
-537.179	800.000	0.014	0.046
-536.164	-198.723	-0.229	0.001
-535.150	-85.476	-0.147	-0.046
-534.135	-82.254	0.173	0.056
-533.121	800.000	0.035	-0.114
-532.106	298.354	-0.128	0.235
-531.091	62.158	-0.171	-0.171
-530.077	-131.221	-0.456	0.060
-529.062	-100.341	0.204	-0.050
-528.048	-163.099	0.119	-0.006
-527.033	-200.000	-0.023	-0.251
-526.018	-128.927	-0.112	-0.016
-525.004	800.000	0.024	-0.074
-523.989	-200.000	-0.016	0.078
-522.975	-135.123	-0.411	0.049
-521.960	-200.000	-0.023	-0.116
-520.945	178.484	-0.174	-0.254
-519.931	-130.265	-0.361	-0.049
-518.916	-47.124	0.213	0.104
-517.902	800.000	-0.029	-0.105
-516.887	228.744	-0.146	0.237
-515.872	-82.433	0.207	0.067
-514.858	-200.000	0.002	0.320
-513.843	72.319	0.150	0.156
-512.829	72.488	0.156	0.163
-511.814	186.797	0.158	0.234
-510.799	-200.000	-0.019	0.456
-509.785	365.349	-0.003	0.007
-508.770	482.914	0.154	-0.348
-507.756	-97.985	-0.339	-0.087
-506.741	166.073	0.258	0.364
-505.726	296.832	0.091	-0.167
-504.712	-109.931	0.281	0.059
-503.697	58.178	-0.090	0.088
-502.683	297.589	0.034	-0.062
-501.668	-54.991	0.296	-0.133
-500.653	-18.630	0.174	0.108
-499.639	-200.000	-0.029	0.258
-498.624	800.000	0.064	-0.191
-497.610	-28.711	0.165	0.095
-496.595	-109.914	-0.263	0.055
-495.581	800.000	0.143	0.418
-494.566	-200.000	0.003	0.099
-493.551	-107.996	0.340	0.073
-492.537	388.163	-0.201	0.415
-491.522	-114.681	0.275	0.052
-490.508	36.473	0.060	-0.053
-489.493	438.983	-0.008	0.017
-488.478	-200.000	0.019	0.256
-487.464	-55.567	-0.284	0.127
-486.449	800.000	-0.074	-0.207
-485.435	12.919	0.181	0.139
-484.420	5.381	-0.160	-0.117
-483.405	-82.685	0.124	0.040
-482.391	-200.000	0.009	0.056
-481.376	-18.033	0.258	0.161
-480.362	67.270	0.277	-0.281
-479.347	-200.000	0.056	-0.259
-478.332	500.826	0.034	0.078
-477.318	-35.775	0.332	0.179
-476.303	242.081	-0.161	0.267
-475.289	487.003	0.041	0.092
-474.274	-111.726	-0.273	-0.055
-473.259	-200.000	0.024	-0.297
-472.245	153.533	-0.156	0.212
-471.230	800.000	-0.039	0.165
-470.216	-66.086	-0.110	0.044
-469.201	-80.202	0.156	0.052
-468.186	-100.808	-0.180	-0.044
-467.172	-61.637	0.289	-0.121
-466.157	-200.000	0.011	0.062
-465.143	232.940	-0.262	-0.428
-464.128	12.136	0.197	-0.151
-463.113	96.700	0.083	-0.095
-462.099	-94.623	-0.067	0.018
-461.084	800.000	-0.086	-0.325
-460.070	-139.035	-0.242	-0.026
-459.055	-200.000	0.001	-0.293
-458.040	-62.459	0.263	0.109
-457.026	800.000	0.114	-0.342
-456.011	-0.286	-0.217	0.153
-454.997	-100.803	0.209	0.051
-453.982	800.000	0.061	-0.198
-452.968	-151.187	-0.216	-0.016
-451.953	237.502	-0.102	-0.168
-450.938	-69.455	0.058	0.022
-449.924	-200.000	0.100	0.000
-448.909	-200.000	-0.038	0.299
-447.895	800.000	0.008	0.026
-446.880	81.810	0.066	-0.071
-445.865	-200.000	-0.028	-0.194
-444.851	-141.275	0.174	0.018
-443.836	-124.068	-0.272	0.043
-442.822	7.486	-0.228	0.170
-441.807	-6.375	-0.206	-0.140
-440.792	108.642	0.125	0.149
-439.778	-45.898	0.128	0.063
-438.763	-189.989	0.048	0.001
-437.749	-117.761	-0.173	-0.031
-436.734	-200.000	0.030	-0.260
-435.719	-47.570	0.130	-0.063
-434.705	215.254	-0.086	-0.135
-433.690	270.282	0.064	-0.112
-432.676	32.548	-0.160	0.138
-431.661	383.099	-0.204	0.417
-430.646	800.000	-0.097	0.366
-429.632	-60.233	-0.232	-0.098
-428.617	672.628	0.007	0.019
-427.603	12.456	-0.316	0.242
-426.588	215.959	0.045	0.071
-425.573	131.577	0.043	-0.055
-424.559	-97.660	0.150	-0.039
-423.544	68.648	0.135	0.138
-422.530	-138.371	0.558	0.061
-421.515	-117.996	-0.222	0.040
-420.500	-200.000	-0.030	-0.291
-419.486	-200.000	-0.022	-0.121
-418.471	-200.000	-0.010	0.150
-417.457	59.057	0.140	0.137
-416.442	87.679	0.352	0.387
-415.428	-44.559	-0.165	-0.082
-414.413	16.572	0.140	0.110
-413.398	266.697	0.059	0.103
-412.384	-111.808	0.303	-0.061
-411.369	-6.685	-0.018	0.012
-410.355	466.003	0.063	0.140
-409.340	-64.840	-0.282	-0.113
-408.325	391.801	0.123	-0.253
-407.311	-200.000	-0.051	-0.338
-406.296	484.043	0.070	0.158
-405.282	-200.000	-0.024	-0.262
-404.267	-200.000	-0.021	-0.266
-403.252	-146.828	-0.286	-0.024
-402.238	484.147	-0.074	-0.167
-401.223	-41.259	-0.128	0.066
-400.209	691.509	0.018	0.046
-399.194	-200.000	0.003	-0.199
-398.179	419.996	-0.057	-0.121
-397.165	-200.000	-0.007	-0.185
-396.150	-133.729	0.240	-0.030
-395.136	-200.000	-0.010	-0.113
-394.121	-128.307	0.238	-0.034
-393.106	87.880	-0.102	-0.112
-392.092	-93.782	0.113	0.031
-391.077	-119.208	-0.280	-0.049
-390.063	2.564	-0.191	-0.137
-389.048	-133.124	0.169	-0.021
-388.033	-158.244	-0.045	0.003
-387.019	335.601	-0.113	-0.217
-386.004	-137.257	-0.269	0.030
-384.990	-45.614	-0.177	0.087
-383.975	44.720	0.069	-0.063
-382.960	-91.227	0.286	0.081
-381.946	-200.000	-0.053	0.337
-380.931	-2.070	-0.246	0.171
-379.917	85.904	-0.107	-0.117
-378.902	-32.063	0.140	-0.078
-377.888	-132.161	0.071	-0.009
-376.873	77.518	0.167	0.177
-375.858	-200.000	0.029	0.176
-374.844	169.812	-0.170	0.241
-373.829	288.444	0.071	-0.128
-372.815	150.141	0.199	0.267
-371.800	-198.746	0.258	0.001
-370.785	-135.350	-0.315	0.037
-369.771	800.000	-0.065	0.197
-368.756	566.094	-0.109	0.262
-367.742	45.450	-0.238	-0.218
-366.727	-189.870	0.234	-0.003
-365.712	104.421	-0.158	0.185
-364.698	-100.329	0.364	-0.090
-363.683	-200.000	0.031	0.240
-362.669	800.000	0.049	-0.140
-361.654	-162.955	0.224	0.011
-360.639	-66.038	-0.220	0.087
-359.625	-200.000	-0.007	-0.294
-358.610	-200.000	0.053	-0.234
-357.596	-79.920	0.271	-0.090
-356.581	-37.527	-0.238	-0.126
-355.566	-94.750	-0.052	0.014
-354.552	-65.548	-0.231	-0.092
-353.537	221.546	-0.088	-0.141
-352.523	-56.124	0.048	-0.021
-351.508	-10.482	0.224	0.147
-350.493	115.991	-0.061	0.074
-349.479	-33.020	-0.249	0.137
-348.464	-200.000	0.002	0.123
-347.450	110.050	-0.141	0.168
-346.435	54.661	-0.348	0.332
-345.420	70.845	0.303	0.311
-344.406	-45.253	-0.226	-0.111
-343.391	163.238	0.109	-0.152
-342.377	92.224	-0.179	-0.200
-341.362	40.273	0.137	-0.122
-340.348	-200.000	-0.006	0.316
-339.333	137.873	0.111	0.143
-338.318	800.000	0.084	-0.288
-337.304	383.576	0.071	0.144
-336.289	112.302	0.144	-0.172
-335.275	367.743	-0.142	-0.284
-334.260	-159.525	0.318	-0.017
-333.245	-200.000	-0.032	-0.294
-332.231	65.581	0.186	-0.186
-331.216	23.677	0.104	-0.085
-330.202	-135.198	0.206	-0.024
-329.187	143.127	-0.207	-0.273
-328.172	159.639	-0.042	0.058
-327.158	-89.017	-0.166	-0.049
-326.143	-54.115	0.208	0.094
-325.129	-40.031	0.137	-0.071
-324.114	-84.137	0.381	0.120
-323.099	252.038	0.159	-0.268
-322.085	-128.245	-0.182	0.026
-321.070	-109.756	-0.153	-0.032
-320.056	-55.316	0.234	0.104
-319.041	-115.237	-0.115	0.022
-318.026	-54.047	-0.173	-0.078
-317.012	800.000	0.084	0.340
-315.997	378.778	-0.118	0.239
-314.983	0.623	0.115	0.081
-313.968	4.679	-0.123	0.089
-312.953	-200.000	-0.005	-0.100
-311.939	800.000	-0.042	0.146
-310.924	-131.777	0.436	0.057
-309.910	-200.000	-0.017	-0.253
-308.895	-21.586	-0.114	0.069
-307.880	800.000	-0.047	-0.139
-306.866	800.000	-0.060	-0.170
-305.851	-200.000	-0.009	-0.074
-304.837	-90.391	-0.164	-0.047
-303.822	332.192	-0.057	-0.108
-302.807	-31.680	0.021	-0.012
-301.793	-87.392	0.324	-0.097
-300.778	-55.784	-0.352	0.155
-299.764	-124.615	-0.195	0.030
-298.749	-142.691	-0.201	-0.019
-297.735	-137.186	0.236	-0.027
-296.720	30.786	0.308	-0.261
-295.705	-83.290	-0.375	-0.119
-294.691	-72.700	0.046	-0.017
-293.676	-200.000	-0.011	0.308
-292.662	251.525	0.235	-0.395
-291.647	800.000	-0.049	-0.181
-290.632	94.622	-0.168	-0.189
-289.618	156.745	-0.220	0.300
-288.603	73.232	0.288	-0.298
-287.589	-115.641	0.254	0.047
-286.574	-200.000	-0.053	-0.333
-285.559	91.419	-0.209	-0.231
-284.545	666.372	0.081	0.206
-283.530	-8.889	-0.187	-0.124
-282.516	-98.620	-0.221	0.056
-281.501	42.570	-0.196	0.176
-280.486	-83.667	-0.147	0.046
-279.472	34.373	0.088	0.076
-278.457	-200.000	0.010	0.244
-277.443	-76.252	0.434	0.151
-276.428	666.202	-0.191	0.488
-275.413	565.710	0.119	0.284
-274.399	-68.070	-0.396	0.152
-273.384	-200.000	-0.022	0.179
-272.370	-200.000	-0.017	0.166
-271.355	-145.081	0.076	-0.007
-270.340	59.863	-0.121	-0.118
-269.326	-46.040	-0.411	0.200
-268.311	-200.000	-0.019	0.375
-267.297	-4.566	0.244	0.166
-266.282	-17.773	0.299	0.185
-265.267	-146.796	-0.205	-0.017
-264.253	149.979	-0.123	0.164
-263.238	50.698	-0.127	0.119
-262.224	-9.127	0.145	-0.096
-261.209	800.000	-0.027	0.115
-260.195	-118.215	-0.473	0.083
-259.180	-69.907	0.084	-0.032
-258.165	64.520	0.078	0.078
-257.151	-21.005	-0.321	0.194
-256.136	261.758	0.202	0.346
-255.122	-200.000	-0.005	0.244
-254.107	-200.000	0.030	-0.349
-253.092	575.872	-0.135	-0.325
-252.078	-126.305	-0.247	-0.036
-251.063	-170.721	0.322	-0.011
-250.049	-65.212	0.120	0.048
-249.034	-2.918	0.260	0.179
-248.019	-176.879	0.169	-0.004
-247.005	435.831	-0.141	0.303
-245.990	-59.434	-0.416	0.176
-244.976	-10.354	0.046	0.030
-243.961	422.700	0.062	-0.132
-242.946	20.550	-0.064	-0.051
-241.932	-200.000	0.054	0.252
-240.917	-114.590	0.188	-0.035
-239.903	-13.311	0.108	0.069
-238.888	525.122	-0.028	0.064
-237.873	-200.000	0.006	-0.046
-236.859	-71.796	0.372	0.137
-235.844	409.978	0.031	-0.065
-234.830	-144.358	0.252	0.023
-233.815	465.293	-0.073	-0.162
-232.800	201.357	0.078	0.119
-231.786	43.271	-0.084	0.075
-230.771	-125.705	0.100	-0.015
-229.757	159.079	-0.056	-0.077
-228.742	-136.087	0.213	-0.025
-227.727	-200.000	-0.007	-0.420
-226.713	292.705	-0.187	-0.337
-225.698	-154.611	-0.035	-0.002
-224.684	1.761	0.195	-0.139
-223.669	-82.759	0.432	-0.138
-222.655	-118.167	-0.331	0.058
-221.640	60.196	0.180	0.176
-220.625	19.060	0.209	0.165
-219.611	-149.814	-0.161	0.012
-218.596	28.996	-0.073	-0.061
-217.582	-200.000	-0.038	0.180
-216.567	-129.927	0.324	-0.044
-215.552	43.858	-0.201	-0.182
-214.538	-88.265	0.249	-0.073
-213.523	122.616	-0.182	0.224
-212.509	27.037	-0.175	0.144
-211.494	-4.530	0.330	0.225
-210.479	-31.921	-0.075	-0.041
-209.465	-1.199	0.047	0.033
-208.450	-63.809	-0.177	-0.072
-207.436	-94.530	-0.218	0.059
-206.421	246.228	0.192	0.318
-205.406	800.000	-0.053	0.158
-204.392	437.746	-0.201	-0.431
-203.377	656.509	-0.006	-0.014
-202.363	45.070	-0.148	0.134
-201.348	-139.984	-0.455	0.047
-200.333	-149.191	0.178	0.014
-199.319	800.000	0.162	0.443
-198.304	-74.341	-0.181	0.064
-197.290	-127.828	-0.080	0.011
-196.275	-200.000	-0.022	0.201
-195.260	-153.611	-0.102	0.007
-194.246	270.359	0.065	-0.112
-193.231	-200.000	-0.010	0.284
-192.217	7.646	-0.103	0.076
-191.202	662.848	0.041	-0.104
-190.187	455.488	0.120	-0.263
-189.173	-68.648	0.267	-0.102
-188.158	-83.588	-0.073	0.023
-187.144	46.281	0.203	-0.185
-186.129	54.856	0.199	-0.189
-185.114	-43.042	0.122	-0.061
-184.100	-200.000	-0.018	-0.122
-183.085	-46.649	-0.200	-0.096
-182.071	75.817	-0.179	-0.186
-181.056	630.811	0.033	0.083
-180.042	180.242	0.073	-0.105
-179.027	-200.000	-0.006	-0.047
-178.012	-200.000	-0.019	-0.177
-176.998	664.664	0.108	0.273
-175.983	-58.930	-0.256	-0.109
-174.969	-38.566	-0.069	0.036
-173.954	-200.000	0.007	0.091
-172.939	-46.287	0.074	0.036
-171.925	-158.291	0.056	-0.003
-170.910	201.711	-0.144	-0.218
-169.896	-74.112	0.293	-0.104
-168.881	29.941	0.162	0.136
-167.866	92.592	0.094	0.104
-166.852	-200.000	-0.004	-0.122
-165.837	252.024	0.117	0.196
-164.823	127.675	-0.139	-0.173
-163.808	435.690	0.029	-0.062
-162.793	33.956	0.119	0.102
-161.779	-152.126	0.196	0.014
-160.764	172.568	-0.076	-0.108
-159.750	-124.068	0.226	-0.035
-158.735	145.497	0.136	0.179
-157.720	-132.200	0.217	0.028
-156.706	-130.277	0.345	0.046
-155.691	-96.509	0.187	-0.049
-154.677	-22.104	0.263	-0.157
-153.662	-148.078	0.346	-0.028
-152.647	-100.703	0.071	-0.017
-151.633	24.860	0.426	0.347
-150.618	273.981	-0.092	0.160
-149.604	-84.847	0.147	-0.045
-148.589	-117.979	-0.345	0.061
-147.574	-115.322	-0.438	0.081
-146.560	111.266	-0.076	0.091
-145.545	800.000	0.063	0.181
-144.531	-200.000	-0.012	0.203
-143.516	-64.069	0.154	0.062
-142.502	-17.548	0.122	0.075
-141.487	-60.993	0.272	0.113
-140.472	800.000	-0.093	-0.316
-139.458	-74.622	0.238	-0.084
-138.443	1.772	0.175	0.124
-137.429	-200.000	0.002	0.266
-136.414	294.480	-0.045	0.081
-135.399	800.000	-0.046	-0.173
-134.385	110.113	-0.070	0.083
-133.370	23.190	0.378	0.305
-132.356	185.198	0.154	0.224
-131.341	-31.744	-0.222	-0.122
-130.326	74.272	0.081	0.084
-129.312	117.548	0.032	-0.039
-128.297	-43.354	-0.184	0.091
-127.283	-200.000	0.006	-0.126
-126.268	42.648	-0.306	-0.273
-125.253	89.151	0.161	0.176
-124.239	-200.000	-0.032	-0.308
-123.224	-52.890	0.132	0.060
-122.210	-147.209	0.370	0.031
-121.195	-89.149	0.155	0.045
-120.180	-180.606	-0.099	-0.002
-119.166	207.013	-0.068	0.104
-118.151	8.618	0.201	0.149
-117.137	130.343	-0.043	-0.054
-116.122	-200.000	0.023	-0.239
-115.107	-50.672	-0.074	-0.034
-114.093	-45.589	-0.286	0.139
-113.078	800.000	-0.035	0.119
-112.064	377.841	-0.091	-0.182
-111.049	-133.939	0.166	-0.020
-110.034	-58.834	-0.138	-0.058
-109.020	214.780	-0.074	0.115
-108.005	-200.000	-0.011	0.106
-106.991	178.242	-0.277	0.397
-105.976	-93.960	0.256	-0.069
-104.962	-200.000	-0.004	-0.052
-103.947	-142.453	0.344	0.033
-102.932	-144.418	0.194	-0.018
-101.918	-103.220	0.196	0.045
-100.903	29.020	-0.137	0.114
-99.889	-5.636	0.289	0.194
-98.874	-200.000	0.017	0.109
-97.859	47.037	-0.168	0.153
-96.845	160.209	0.272	0.372
-95.830	-13.228	0.310	0.197
-94.816	-167.524	-0.157	0.006
-93.801	-24.365	0.301	0.176
-92.786	640.832	0.123	-0.308
-91.772	-200.000	-0.073	0.353
-90.757	37.230	0.242	0.210
-89.743	114.365	-0.080	0.096
-88.728	-200.000	0.039	0.219
-87.713	382.772	0.064	0.129
-86.699	70.350	0.051	0.052
-85.684	800.000	0.031	-0.108
-84.670	-117.447	-0.097	-0.017
-83.655	772.014	-0.034	-0.092
-82.640	-3.009	0.061	-0.042
-81.626	113.462	0.113	0.134
-80.611	-65.820	-0.237	0.093
-79.597	203.171	0.048	-0.073
-78.582	-200.000	0.024	0.226
-77.567	-175.531	-0.253	-0.007
-76.553	742.677	0.235	0.618
-75.538	23.449	0.064	0.052
-74.524	144.135	0.159	0.208
-73.509	6.655	-0.127	-0.093
-72.494	-81.851	0.189	-0.061
-71.480	724.882	-0.124	0.325
-70.465	-10.867	-0.193	-0.125
-69.451	800.000	0.050	0.203
-68.436	199.926	-0.188	0.283
-67.422	-200.000	0.032	0.251
-66.407	-63.552	-0.168	0.068
-65.392	239.932	0.027	0.043
-64.378	-81.914	-0.254	-0.081
-63.363	61.987	-0.045	0.044
-62.349	4.905	0.352	0.254
-61.334	78.168	-1.151	-1.204
-60.319	127.807	0.427	0.532
-59.305	800.000	-0.292	-1.196
-58.290	426.725	0.528	1.115
-57.276	265.642	0.893	1.525
-56.261	-200.000	113.904	664.150
-55.246	549.864	1516.575	3560.771
-54.232	179.474	2680.565	3842.502
-53.217	111.511	2147.831	2536.570
-52.203	39.562	1596.405	1401.106
-51.188	31.152	1343.620	1128.603
-50.173	28.214	1305.999	1079.656
-49.159	56.009	1362.691	1294.521
-48.144	54.717	1376.871	1300.188
-47.130	31.420	1332.055	1120.315
-46.115	27.860	1314.488	1084.400
-45.100	27.676	1310.022	1079.584
-44.086	27.710	1306.880	1077.151
-43.071	27.736	1304.936	1075.664
-42.057	27.523	1303.089	1072.845
-41.042	27.730	1301.029	1072.323
-40.027	27.762	1299.827	1071.477
-39.013	27.657	1297.707	1069.071
-37.998	27.678	1296.035	1067.773
-36.984	27.800	1294.256	1066.977
-35.969	27.797	1292.493	1065.465
-34.954	27.856	1290.641	1064.237
-33.940	27.916	1289.278	1063.423
-32.925	27.844	1288.150	1062.032
-31.911	27.858	1286.717	1060.887
-30.896	27.951	1285.055	1060.015
-29.881	27.960	1284.007	1059.161
-28.867	27.976	1282.826	1058.240
-27.852	27.887	1281.444	1056.539
-26.838	27.863	1280.006	1055.176
-25.823	27.926	1278.712	1054.430
-24.809	27.980	1277.307	1053.539
-23.794	27.961	1275.600	1051.983
-22.779	27.899	1274.442	1050.630
-21.765	27.806	1273.417	1049.205
-20.750	27.809	1272.178	1048.164
-19.736	27.832	1270.795	1047.113
-18.721	27.829	1269.403	1045.905
-17.706	27.813	1268.462	1044.997
-16.692	27.852	1267.426	1044.328
-15.677	27.709	1266.473	1042.681
-14.663	27.774	1265.242	1041.999
-13.648	27.720	1263.684	1040.366
-12.633	27.711	1263.230	1039.902
-11.619	27.723	1262.610	1039.417
-10.604	27.714	1261.591	1038.486
-9.590	27.812	1260.230	1037.881
-8.575	27.742	1259.679	1036.990
-7.560	27.675	1258.823	1035.861
-6.546	27.767	1257.815	1035.516
-5.531	27.747	1257.486	1035.089
-4.517	27.774	1256.307	1034.230
-3.502	27.700	1255.489	1033.096
-2.487	27.818	1254.309	1032.753
-1.473	27.754	1250.270	1029.022
-0.458	26.121	1235.114	1007.403
0.556	23.095	1217.534	969.004
1.571	19.343	1223.020	952.597
2.586	18.359	1237.351	958.170
3.600	17.998	1225.165	946.652
4.615	13.469	1154.552	868.308
5.629	6.445	1082.733	779.569
6.644	3.383	1064.247	751.282
7.659	3.113	1062.153	748.420
8.673	3.210	1061.307	748.230
9.688	3.224	1059.714	747.111
10.702	3.393	1057.341	746.189
11.717	7.454	1062.898	769.775
12.731	14.903	1073.582	813.822
13.746	19.461	1078.794	839.940
14.761	20.060	1078.938	842.895
15.775	19.184	1077.267	837.256
16.790	18.230	1075.336	831.050
17.804	17.426	1074.302	826.278
18.819	17.199	1072.804	823.951
19.834	16.953	1072.465	822.423
20.848	16.744	1071.788	820.821
21.863	16.708	1070.651	819.700
22.877	16.482	1070.020	818.053
23.892	16.501	1069.296	817.520
24.907	16.476	1068.811	816.954
25.921	16.516	1067.158	815.812
26.936	16.533	1066.424	815.259
27.950	16.439	1065.001	813.647
28.965	16.605	1063.472	813.205
29.980	16.837	1061.268	812.563
30.994	16.800	1061.030	812.128
32.009	16.855	1059.689	811.294
33.023	16.870	1058.430	810.329
34.038	16.749	1057.510	808.976
35.053	16.705	1056.514	807.935
36.067	16.605	1055.734	806.787
37.082	16.623	1055.439	806.576
38.096	16.816	1054.457	806.675
39.111	16.692	1054.229	805.840
40.126	16.692	1051.927	804.010
41.140	16.329	1051.302	801.735
42.155	16.347	1049.610	800.462
43.169	16.288	1048.668	799.390
44.184	16.240	1047.841	798.461
45.199	16.328	1046.583	797.852
46.213	16.356	1045.997	797.467
47.228	16.652	1044.892	797.947
48.242	16.610	1043.680	796.752
49.257	16.684	1042.410	796.061
50.271	16.610	1041.765	795.152
51.286	16.703	1041.567	795.366
52.301	16.666	1040.368	794.208
53.315	16.559	1039.087	792.656
54.330	16.452	1038.182	791.396
55.344	16.356	1037.492	790.349
56.359	16.488	1036.221	789.931
57.374	16.338	1035.847	788.871
58.388	16.345	1034.592	787.881
59.403	16.213	1033.588	786.431
60.417	16.151	1033.118	785.714
61.432	16.335	1032.235	785.832
62.447	16.254	1030.922	784.385
63.461	16.113	1030.658	783.461
64.476	16.110	1029.835	782.753
65.490	16.132	1028.976	782.130
66.505	16.186	1028.034	781.595
67.520	16.113	1027.877	781.071
68.534	16.210	1026.998	780.781
69.549	16.174	1025.900	779.713
70.563	16.096	1025.235	778.776
71.578	15.955	1024.214	777.282
72.593	15.937	1023.634	776.691
73.607	16.035	1022.876	776.495
74.622	15.968	1022.684	775.974
75.636	16.042	1021.754	775.540
76.651	16.023	1021.195	774.961
77.666	16.010	1020.651	774.419
78.680	16.094	1019.673	773.994
79.695	16.076	1019.335	773.586
80.709	16.320	1017.986	773.614
81.724	16.313	1017.975	773.502
82.739	16.380	1017.445	773.336
83.753	16.611	1016.557	773.652
84.768	16.879	1015.999	774.381
85.782	16.933	1014.919	773.738
86.797	16.879	1013.868	772.624
87.812	16.739	1012.767	771.075
88.826	16.644	1012.505	770.377
89.841	16.764	1011.174	769.843
90.855	16.779	1010.409	769.259
91.870	16.647	1010.122	768.374
92.884	16.748	1008.890	767.824
93.899	16.871	1007.869	767.537
94.914	16.987	1007.505	767.717
95.928	16.854	1006.568	766.336
96.943	16.815	1005.253	765.089
97.957	16.713	1004.260	763.805
98.972	16.748	1003.594	763.390
99.987	16.731	1002.889	762.710
101.001	16.686	1002.031	761.786
102.016	16.734	1000.937	761.103
103.030	16.816	1000.463	761.045
104.045	16.756	999.328	759.845
105.060	16.610	998.084	758.178
106.074	16.576	997.034	757.162
107.089	16.307	995.992	755.101
108.103	16.329	994.873	754.282
109.118	16.216	994.230	753.222
110.133	16.275	993.086	752.551
111.147	16.202	992.246	751.524
112.162	16.351	991.922	751.876
113.176	16.350	990.909	751.037
114.191	16.428	990.760	751.203
115.206	16.429	989.651	750.303
116.220	16.359	989.085	749.498
117.235	16.280	987.493	747.875
118.249	16.453	986.863	748.097
119.264	16.285	986.023	746.648
120.279	16.382	984.936	746.191
121.293	16.184	984.622	745.010
122.308	16.218	983.229	744.040
123.322	16.041	982.823	742.887
124.337	15.955	981.518	741.456
125.352	16.099	980.181	741.016
126.366	15.971	979.724	740.040
127.381	16.036	978.777	739.547
128.395	16.169	977.976	739.457
129.410	16.132	977.037	738.521
130.424	16.235	975.962	738.092
131.439	16.481	974.944	738.333
132.454	16.421	974.473	737.647
133.468	16.316	973.799	736.615
134.483	16.404	973.290	736.549
135.497	16.396	972.106	735.555
136.512	16.386	971.080	734.669
137.527	16.460	970.161	734.230
138.541	16.379	970.039	733.718
139.556	16.525	969.267	733.706
140.570	16.590	968.760	733.538
141.585	16.564	968.223	732.955
142.600	16.791	966.480	732.553
143.614	16.919	965.728	732.468
144.629	16.849	965.293	731.771
145.643	16.910	963.916	730.927
146.658	16.865	962.723	729.764
147.673	16.638	961.985	728.162
148.687	16.509	961.272	727.006
149.702	16.531	960.471	726.427
150.716	16.339	959.737	724.985
151.731	16.505	958.832	724.948
152.746	16.499	958.195	724.380
153.760	16.642	957.187	724.165
154.775	16.783	956.792	724.406
155.789	16.744	955.918	723.510
156.804	16.602	955.477	722.507
157.819	16.779	954.827	722.705
158.833	16.769	954.195	722.122
159.848	16.948	953.247	722.102
160.862	16.744	952.216	720.392
161.877	16.581	951.312	718.949
162.892	16.407	950.510	717.543
163.906	16.554	949.102	717.037
164.921	16.444	948.711	716.212
165.935	16.634	947.781	716.250
166.950	16.611	946.860	715.395
167.964	16.674	945.759	714.768
168.979	16.664	944.922	714.029
169.994	16.589	944.475	713.313
171.008	16.673	944.029	713.265
172.023	16.781	943.069	712.932
173.037	17.046	942.118	713.265
174.052	16.863	941.398	711.885
175.067	16.450	940.856	709.681
176.081	16.519	940.300	709.486
177.096	16.488	939.732	708.866
178.110	16.533	939.161	708.561
179.125	16.699	938.374	708.600
180.140	16.580	938.612	708.217
181.154	16.854	937.757	708.657
182.169	16.965	937.349	708.747
183.183	17.015	936.363	708.150
184.198	16.990	935.899	707.630
185.213	17.009	934.853	706.859
186.227	16.870	934.854	706.214
187.242	17.101	934.029	706.491
188.256	17.075	933.756	706.117
189.271	17.003	932.801	705.031
190.286	16.843	931.249	703.130
191.300	16.497	930.526	701.090
192.315	16.458	929.572	700.147
193.329	16.575	929.218	700.304
194.344	16.782	928.708	700.712
195.359	16.769	928.595	700.512
196.373	16.899	927.839	700.416
197.388	17.037	927.667	700.796
198.402	17.182	927.054	700.867
199.417	17.346	926.320	700.926
200.432	17.210	926.288	700.278
201.446	17.381	925.559	700.369
202.461	17.388	924.826	699.784
203.475	17.392	924.152	699.228
204.490	17.057	923.346	697.179
205.504	17.087	922.212	696.386
206.519	17.110	921.802	696.111
207.534	16.999	921.378	695.273
208.548	17.201	920.279	695.207
209.563	17.111	919.918	694.505
210.577	17.183	919.153	694.162
211.592	17.417	918.321	694.425
212.607	17.315	918.054	693.746
213.621	17.385	916.928	693.119
214.636	17.195	916.676	692.095
215.650	17.361	915.665	691.946
216.665	17.399	914.995	691.533
217.680	17.467	914.219	691.160
218.694	17.473	913.642	690.687
219.709	17.366	913.390	690.003
220.723	17.391	912.688	689.510
221.738	17.400	911.785	688.805
222.753	17.359	911.058	688.026
223.767	17.523	910.597	688.282
224.782	17.575	910.186	688.119
225.796	17.703	909.611	688.142
226.811	17.581	908.905	687.057
227.826	17.616	907.974	686.431
228.840	17.521	907.198	685.402
229.855	17.360	906.421	684.106
230.869	17.369	905.708	683.544
231.884	17.439	905.158	683.348
232.899	17.436	904.126	682.499
233.913	17.301	903.403	681.349
234.928	17.381	902.747	681.117
235.942	17.204	902.136	679.888
236.957	17.188	901.865	679.560
237.972	17.213	901.326	679.192
238.986	17.324	900.572	679.007
240.001	17.360	899.591	678.351
241.015	17.373	899.199	678.049
242.030	17.494	898.578	678.000
243.045	17.458	898.481	677.723
244.059	17.474	898.062	677.412
245.074	17.521	897.486	677.103
246.088	17.595	896.371	676.495
247.103	17.806	895.545	676.652
248.117	17.867	895.071	676.476
249.132	17.997	895.147	676.990
250.147	18.112	894.549	676.931
251.161	18.202	893.699	676.584
252.176	18.135	893.418	676.044
253.190	18.188	892.845	675.763
254.205	18.267	891.984	675.362
255.220	18.253	891.500	674.880
256.234	18.294	890.578	674.284
257.249	18.256	890.011	673.644
258.263	18.241	889.208	672.918
259.278	18.238	888.385	672.227
260.293	18.319	888.022	672.208
261.307	18.503	887.447	672.438
262.322	18.479	886.686	671.707
263.336	18.442	885.771	670.808
264.351	18.403	885.333	670.266
265.366	18.506	884.703	670.131
266.380	18.449	883.840	669.196
267.395	18.361	883.498	668.535
268.409	18.160	882.490	666.930
269.424	18.188	881.974	666.590
270.439	18.285	880.967	666.147
271.453	18.155	880.389	665.146
272.468	18.022	880.157	664.393
273.482	18.159	879.167	664.120
274.497	18.197	878.594	663.776
275.512	18.173	878.029	663.198
276.526	18.122	878.070	662.972
277.541	18.255	877.264	662.820
278.555	18.343	876.890	662.818
279.570	18.592	876.115	663.136
280.585	18.466	875.450	662.088
281.599	18.564	874.062	661.356
282.614	18.330	873.598	660.044
283.628	18.361	873.310	659.890
284.643	18.484	872.443	659.651
285.657	18.326	871.943	658.605
286.672	18.334	871.449	658.204
287.687	18.562	870.460	658.276
288.701	18.481	870.003	657.559
289.716	18.422	869.729	657.070
290.730	18.386	869.208	656.480
291.745	18.557	868.203	656.316
292.760	18.589	867.631	655.949
293.774	18.667	867.274	655.920
294.789	18.674	866.377	655.211
295.803	18.551	865.830	654.270
296.818	18.609	864.870	653.705
297.833	18.619	864.290	653.246
298.847	18.589	863.893	652.774
299.862	18.658	863.566	652.733
300.876	18.531	863.139	651.869
301.891	18.758	862.574	652.248
302.906	18.800	862.310	652.152
303.920	18.938	861.458	651.972
304.935	18.890	860.973	651.366
305.949	18.882	860.178	650.676
306.964	18.738	859.801	649.789
307.979	18.869	858.754	649.435
308.993	18.953	858.495	649.497
310.008	18.956	857.769	648.901
311.022	18.930	857.179	648.300
312.037	18.763	856.555	647.142
313.052	18.503	856.225	645.856
314.066	18.614	855.064	645.341
315.081	18.616	854.756	645.059
316.095	18.690	854.239	644.891
317.110	18.623	853.602	644.101
318.125	18.637	853.228	643.813
319.139	18.527	852.652	642.910
320.154	18.630	852.379	643.032
321.168	18.729	851.656	642.802
322.183	18.822	850.939	642.550
323.197	18.758	850.794	642.143
324.212	18.736	850.228	641.579
325.227	18.680	849.539	640.791
326.241	18.734	849.091	640.601
327.256	18.739	848.607	640.198
328.270	18.752	847.869	639.631
329.285	18.685	846.914	638.606
330.300	18.745	846.487	638.449
331.314	18.891	845.956	638.535
332.329	18.988	845.779	638.706
333.343	19.014	845.145	638.266
334.358	19.013	845.026	638.118
335.373	19.087	844.897	638.237
336.387	18.939	844.442	637.287
337.402	19.002	844.194	637.279
338.416	19.219	844.027	637.901
339.431	19.432	843.441	638.190
340.446	19.402	843.133	637.786
341.460	19.443	842.786	637.621
342.475	19.549	842.108	637.444
343.489	19.461	841.697	636.749
344.504	19.525	841.625	636.875
345.519	19.531	840.930	636.314
346.533	19.497	839.874	635.335
347.548	19.359	839.416	634.423
348.562	19.162	838.697	633.102
349.577	19.121	838.290	632.588
350.592	19.230	837.296	632.182
351.606	19.144	836.999	631.584
352.621	19.159	836.096	630.903
353.635	19.200	835.665	630.672
354.650	19.251	835.003	630.302
355.665	19.148	834.812	629.728
356.679	19.423	833.886	629.977
357.694	19.304	833.592	629.265
358.708	19.275	832.871	628.559
359.723	19.382	832.341	628.492
360.738	19.363	831.337	627.612
361.752	19.420	830.893	627.427
362.767	19.571	830.708	627.782
363.781	19.610	830.142	627.441
364.796	19.793	829.654	627.677
365.810	19.860	829.220	627.538
366.825	19.993	828.898	627.720
367.840	19.867	828.452	626.869
368.854	19.752	827.884	625.970
369.869	19.662	827.436	625.251
370.883	19.853	827.006	625.560
371.898	19.899	826.348	625.174
372.913	19.931	826.132	625.069
373.927	19.705	825.759	623.915
374.942	19.738	825.327	623.654
375.956	19.859	824.881	623.700
376.971	19.975	824.457	623.741
377.986	19.986	824.054	623.419
379.000	20.205	823.104	623.433
380.015	20.060	822.820	622.642
381.029	20.059	822.428	622.287
382.044	19.839	822.179	621.252
383.059	20.071	821.066	621.188
384.073	19.976	820.688	620.508
385.088	19.799	819.690	619.063
386.102	19.834	819.048	618.650
387.117	19.872	818.252	618.130
388.132	19.783	817.960	617.538
389.146	19.818	817.322	617.126
390.161	20.045	817.183	617.775
391.175	20.119	816.682	617.606
392.190	19.859	816.336	616.364
393.205	19.803	815.688	615.621
394.219	19.798	815.350	615.293
395.234	19.898	814.514	614.964
396.248	19.774	814.245	614.265
397.263	19.671	813.916	613.598
398.278	19.743	813.345	613.367
399.292	19.719	813.137	613.072
400.307	19.721	812.379	612.451
401.321	19.810	812.006	612.434
402.336	19.920	811.691	612.529
403.350	19.900	811.427	612.204
404.365	19.996	810.888	612.083
405.380	20.270	810.347	612.589
406.394	20.295	809.943	612.316
407.409	20.430	809.785	612.621
408.423	20.427	809.274	612.168
409.438	20.292	809.094	611.502
410.453	20.456	808.689	611.721
411.467	20.552	807.810	611.337
412.482	20.550	807.796	611.268
413.496	20.674	807.186	611.188
414.511	20.702	807.070	611.144
415.526	20.415	806.248	609.461
416.540	20.626	805.393	609.501
417.555	20.556	805.343	609.164
418.569	20.634	805.049	609.161
419.584	20.516	804.809	608.510
420.599	20.562	804.002	608.007
421.613	161.465	1373.322	1795.819
422.628	140.275	1456.273	1795.889
