DTS Sentinel unit serial number:	SN413079Multiplexer serial number:	ORYXHardware model number:	OX4-SRSoftware version number:	ORYX F/W v4.00 Oryx Data Collector v3.7.2.0data status	okinstallation	princeton_trtdifferential loss correction	single-endedforward channel	channel 1reverse channel	N/Adate	2019/09/14time	22:58:35forward acquisition time	60.00reverse acquisition time	0.00gamma	496.2192k internal	0.2319k external	0.2319temperature offset calibration	1.0004default loss term (dB/km)	0.3790temperature slope calibration	1.0000multiplexer offset coefficient	1.0000multiplexer slope coefficient	1.0000fibre end	0.00T internal ref (°C)	32.44T ext. ref 1 (°C)	4.66T ext. ref 2 (°C)	27.46length (m)	temperature (°C)	Stokes	anti-Stokes-747.200	-139.351	-0.178	-0.019
-746.185	141.557	0.251	0.336
-745.171	98.346	0.122	0.143
-744.156	-84.975	-0.119	-0.038
-743.142	23.057	0.054	0.045
-742.127	-200.000	-0.029	0.244
-741.112	-33.005	-0.116	0.065
-740.098	-10.333	-0.126	0.084
-739.083	-200.000	0.008	-0.100
-738.069	119.145	0.111	0.138
-737.054	-27.955	0.065	0.038
-736.039	-96.683	0.052	0.014
-735.025	691.977	0.117	0.309
-734.010	-151.942	-0.228	-0.017
-732.996	-66.519	0.192	0.077
-731.981	800.000	0.048	0.170
-730.966	-34.318	-0.249	0.138
-729.952	-16.425	-0.363	-0.233
-728.937	190.993	0.050	0.077
-727.923	529.376	0.091	-0.217
-726.908	-200.000	-0.025	0.230
-725.894	119.314	0.067	-0.084
-724.879	384.346	0.074	0.155
-723.864	175.778	0.017	0.024
-722.850	33.023	-0.132	-0.115
-721.835	-200.000	0.022	-0.234
-720.821	324.959	0.065	0.125
-719.806	339.765	-0.063	-0.123
-718.791	-49.696	-0.125	0.060
-717.777	234.541	0.083	0.138
-716.762	-85.933	0.187	-0.058
-715.748	-127.409	0.318	0.047
-714.733	-6.044	-0.154	0.106
-713.718	61.462	-0.287	0.288
-712.704	-200.000	0.024	-0.187
-711.689	-40.146	0.202	0.106
-710.675	800.000	-0.045	0.200
-709.660	56.004	-0.170	-0.166
-708.645	269.156	0.128	-0.227
-707.631	-149.362	-0.160	-0.013
-706.616	-43.869	-0.148	-0.075
-705.602	674.648	-0.125	0.329
-704.587	-2.244	-0.197	0.140
-703.572	93.537	-0.351	0.401
-702.558	237.006	0.197	0.330
-701.543	-13.152	0.181	0.119
-700.529	159.838	0.088	0.124
-699.514	-200.000	0.007	-0.102
-698.499	16.917	-0.225	-0.180
-697.485	-200.000	0.005	-0.078
-696.470	46.253	0.268	-0.251
-695.456	266.727	0.285	0.503
-694.441	-100.487	-0.284	0.071
-693.426	-200.000	-0.013	-0.184
-692.412	-200.000	-0.067	-0.461
-691.397	-92.858	-0.229	-0.065
-690.383	26.078	-0.150	0.126
-689.368	10.572	-0.177	-0.136
-688.354	-82.101	-0.231	0.076
-687.339	94.299	-0.123	-0.141
-686.324	175.309	0.145	-0.211
-685.310	214.483	0.117	0.187
-684.295	-189.014	-0.202	-0.002
-683.281	-200.000	-0.010	0.130
-682.266	-94.079	0.129	0.036
-681.251	73.335	0.091	-0.096
-680.237	-200.000	-0.039	-0.236
-679.222	-101.076	0.168	-0.042
-678.208	-59.642	-0.154	0.067
-677.193	800.000	-0.031	0.123
-676.178	-134.739	-0.343	-0.042
-675.164	281.973	0.151	-0.273
-674.149	-27.247	-0.242	0.142
-673.135	-40.982	-0.073	0.038
-672.120	348.140	-0.116	0.230
-671.105	138.884	-0.025	-0.034
-670.091	-44.578	0.483	-0.244
-669.076	-142.541	0.275	-0.027
-668.062	-122.556	0.106	-0.017
-667.047	342.499	-0.139	0.273
-666.032	116.067	-0.062	0.076
-665.018	-82.236	-0.230	0.075
-664.003	84.879	0.159	-0.176
-662.989	-200.000	0.009	-0.120
-661.974	-200.000	-0.011	-0.146
-660.959	-110.248	0.098	-0.021
-659.945	800.000	-0.022	-0.087
-658.930	39.125	0.087	-0.079
-657.916	408.277	0.069	-0.146
-656.901	800.000	0.081	-0.343
-655.886	675.757	-0.143	-0.375
-654.872	197.172	-0.081	0.124
-653.857	-25.362	0.134	-0.080
-652.843	13.926	-0.249	0.195
-651.828	-27.984	0.186	0.108
-650.814	-200.000	0.035	0.296
-649.799	295.601	0.084	0.156
-648.784	-107.936	-0.274	-0.060
-647.770	-110.121	-0.305	0.064
-646.755	-105.389	-0.090	-0.021
-645.741	-55.876	-0.057	-0.026
-644.726	223.673	-0.296	0.481
-643.711	-2.344	-0.197	0.139
-642.697	-158.803	0.205	-0.012
-641.682	-65.543	0.025	-0.010
-640.668	240.511	-0.181	0.304
-639.653	146.110	-0.031	-0.042
-638.638	-64.600	-0.277	-0.113
-637.624	272.681	-0.106	0.189
-636.609	52.971	-0.208	-0.200
-635.595	93.382	0.258	0.295
-634.580	90.959	0.076	0.086
-633.565	800.000	0.098	-0.278
-632.551	-133.239	-0.522	0.066
-631.536	312.915	0.056	0.106
-630.522	800.000	0.074	0.232
-629.507	-117.338	-0.122	0.022
-628.492	4.323	0.107	-0.079
-627.478	800.000	0.104	-0.409
-626.463	-29.187	0.460	-0.265
-625.449	90.859	0.102	0.115
-624.434	242.805	-0.102	-0.173
-623.419	70.804	-0.188	-0.196
-622.405	-15.283	0.024	0.015
-621.390	-200.000	0.003	-0.150
-620.376	-200.000	0.003	-0.272
-619.361	95.597	-0.176	-0.202
-618.346	-18.247	-0.105	-0.066
-617.332	800.000	-0.025	0.096
-616.317	442.628	-0.146	0.322
-615.303	-123.037	-0.313	0.051
-614.288	214.888	0.055	-0.087
-613.273	-29.617	-0.146	-0.084
-612.259	34.196	-0.396	-0.347
-611.244	-25.474	0.201	0.120
-610.230	219.432	-0.124	-0.199
-609.215	-200.000	0.002	-0.048
-608.201	405.322	-0.155	-0.329
-607.186	-1.426	0.113	0.080
-606.171	-133.336	-0.223	0.028
-605.157	-134.844	-0.189	0.023
-604.142	249.963	-0.100	0.170
-603.128	-200.000	-0.030	-0.475
-602.113	-87.411	-0.204	-0.062
-601.098	-16.169	0.204	0.130
-600.084	321.205	-0.043	0.082
-599.069	58.494	-0.059	0.059
-598.055	800.000	-0.029	-0.093
-597.040	-71.739	0.290	-0.109
-596.025	258.513	-0.122	-0.211
-595.011	34.068	0.013	-0.012
-593.996	-22.474	-0.296	-0.180
-592.982	-53.431	0.191	0.088
-591.967	-1.000	0.034	0.024
-590.952	196.817	-0.043	0.067
-589.938	157.470	-0.121	0.168
-588.923	-116.041	0.122	-0.023
-587.909	46.001	0.169	-0.157
-586.894	-59.204	0.155	0.067
-585.879	-200.000	-0.182	0.001
-584.865	-87.072	0.118	0.036
-583.850	447.681	-0.104	0.229
-582.836	501.712	0.080	0.186
-581.821	317.771	-0.193	-0.367
-580.806	800.000	-0.072	-0.278
-579.792	-99.215	0.290	-0.074
-578.777	800.000	0.092	-0.302
-577.763	-95.098	-0.256	0.069
-576.748	-200.000	0.022	0.136
-575.733	83.922	-0.222	0.244
-574.719	-37.382	0.191	-0.102
-573.704	-93.562	0.042	0.012
-572.690	800.000	-0.055	0.223
-571.675	-200.000	0.010	0.142
-570.661	34.070	-0.153	-0.134
-569.646	800.000	0.084	0.267
-568.631	223.609	-0.133	-0.216
-567.617	800.000	-0.045	0.173
-566.602	-69.527	-0.152	-0.058
-565.588	800.000	-0.085	-0.243
-564.573	148.716	0.084	-0.114
-563.558	-58.737	-0.424	0.184
-562.544	179.495	-0.093	0.137
-561.529	-94.626	0.223	-0.061
-560.515	800.000	-0.042	0.124
-559.500	129.145	0.294	0.377
-558.485	-8.174	-0.127	0.086
-557.471	-81.290	0.117	0.039
-556.456	-30.617	0.163	-0.093
-555.442	164.417	0.207	0.293
-554.427	-117.881	-0.299	-0.054
-553.412	199.643	0.127	0.196
-552.398	-200.000	0.005	-0.212
-551.383	-67.128	-0.280	0.111
-550.369	-26.553	0.085	-0.050
-549.354	-62.477	-0.149	0.062
-548.339	-200.000	0.039	-0.311
-547.325	746.095	0.131	-0.355
-546.310	40.814	-0.097	-0.088
-545.296	-19.350	0.134	-0.083
-544.281	-170.486	-0.320	0.011
-543.266	-129.538	-0.083	-0.011
-542.252	-154.702	0.186	0.012
-541.237	438.909	-0.130	-0.286
-540.223	-72.521	-0.259	-0.096
-539.208	151.246	0.033	-0.045
-538.193	67.043	0.131	-0.134
-537.179	18.689	-0.325	-0.261
-536.164	800.000	0.032	-0.107
-535.150	2.747	0.107	-0.078
-534.135	574.453	-0.077	-0.188
-533.121	-200.000	-0.054	-0.360
-532.106	3.838	0.144	-0.106
-531.091	-148.930	0.179	-0.014
-530.077	17.657	-0.196	0.157
-529.062	-26.053	0.063	-0.037
-528.048	138.049	0.064	0.085
-527.033	17.174	-0.248	-0.197
-526.018	800.000	-0.063	0.203
-525.004	274.545	-0.011	-0.020
-523.989	-101.317	0.252	-0.062
-522.975	103.796	0.206	0.242
-521.960	202.222	0.076	0.117
-520.945	-104.566	-0.078	0.018
-519.931	34.286	-0.137	-0.120
-518.916	-200.000	0.009	-0.331
-517.902	-43.857	-0.232	-0.117
-516.887	17.574	-0.214	0.171
-515.872	152.375	-0.136	0.187
-514.858	39.521	0.118	-0.106
-513.843	-145.892	-0.051	-0.005
-512.829	-200.000	-0.063	0.317
-511.814	800.000	-0.162	0.457
-510.799	800.000	-0.040	0.137
-509.785	-160.680	0.194	-0.010
-508.770	-135.270	0.283	0.034
-507.756	68.565	0.264	-0.271
-506.741	-85.358	-0.195	0.061
-505.726	800.000	0.079	-0.273
-504.712	-200.000	0.016	0.141
-503.697	2.009	-0.226	0.164
-502.683	211.879	0.074	-0.117
-501.668	722.183	-0.084	0.224
-500.653	123.475	-0.049	0.061
-499.639	0.006	0.297	-0.212
-498.624	105.304	-0.203	-0.240
-497.610	-79.971	0.176	-0.059
-496.595	205.919	0.144	-0.225
-495.581	-64.937	0.060	0.024
-494.566	-200.000	0.050	-0.274
-493.551	15.205	0.175	0.137
-492.537	-58.715	-0.044	0.019
-491.522	-138.453	0.147	-0.016
-490.508	20.175	0.283	-0.229
-489.493	528.881	-0.196	0.464
-488.478	800.000	-0.075	-0.302
-487.464	635.321	0.060	-0.151
-486.449	118.957	0.136	0.168
-485.435	150.492	-0.112	0.153
-484.420	21.301	0.450	0.366
-483.405	-97.242	0.209	-0.055
-482.391	31.158	0.190	0.164
-481.376	800.000	-0.031	0.127
-480.362	65.087	-0.197	0.199
-479.347	-50.117	-0.010	0.005
-478.332	360.914	-0.045	-0.090
-477.318	102.919	-0.209	0.245
-476.303	-20.075	0.316	0.195
-475.289	-200.000	-0.007	0.132
-474.274	-10.931	0.240	0.159
-473.259	-180.919	0.370	0.007
-472.245	241.759	-0.099	-0.165
-471.230	-155.781	-0.256	-0.016
-470.216	-200.000	0.008	0.054
-469.201	-62.032	0.106	-0.044
-468.186	102.027	0.133	0.156
-467.172	-73.694	-0.086	0.031
-466.157	-92.511	-0.146	-0.041
-465.143	800.000	-0.024	0.083
-464.128	25.286	-0.138	-0.114
-463.113	165.927	0.072	0.102
-462.099	-41.877	-0.052	0.027
-461.084	-161.128	-0.223	-0.012
-460.070	-173.796	0.212	-0.006
-459.055	198.347	-0.182	-0.278
-458.040	382.306	-0.118	0.243
-457.026	146.041	-0.221	-0.296
-456.011	750.623	0.216	-0.584
-454.997	-188.461	-0.527	0.007
-453.982	-117.427	-0.470	-0.085
-452.968	-85.907	0.380	0.118
-451.953	-61.115	0.192	0.081
-450.938	462.132	0.055	0.122
-449.924	-125.034	0.157	0.024
-448.909	24.019	-0.244	-0.202
-447.895	98.684	0.210	-0.242
-446.880	-52.952	-0.384	0.177
-445.865	157.014	-0.145	0.200
-444.851	-112.417	0.154	0.031
-443.836	68.122	-0.192	-0.197
-442.822	281.551	-0.085	-0.152
-441.807	96.590	0.349	0.399
-440.792	29.645	-0.209	0.178
-439.778	245.739	-0.185	-0.311
-438.763	800.000	-0.024	-0.083
-437.749	4.543	-0.193	0.142
-436.734	-70.571	0.145	0.055
-435.719	-18.036	0.182	0.114
-434.705	-200.000	0.014	-0.095
-433.690	-117.823	0.027	0.005
-432.676	-76.740	-0.242	-0.085
-431.661	-200.000	-0.005	-0.109
-430.646	200.453	-0.065	-0.100
-429.632	-200.000	0.017	-0.131
-428.617	-83.757	0.292	-0.093
-427.603	10.054	-0.122	0.093
-426.588	-99.297	0.249	-0.063
-425.573	-32.768	0.084	-0.047
-424.559	-10.328	0.255	-0.169
-423.544	-144.980	0.159	-0.014
-422.530	-200.000	0.014	-0.217
-421.515	800.000	-0.090	0.310
-420.500	68.524	0.146	-0.149
-419.486	-5.840	0.066	0.045
-418.471	-200.000	-0.014	0.090
-417.457	-23.923	0.208	-0.124
-416.442	101.097	0.035	-0.040
-415.428	-22.349	-0.286	-0.173
-414.413	277.973	0.197	0.350
-413.398	-200.000	-0.019	-0.188
-412.384	221.076	-0.112	-0.179
-411.369	428.524	0.106	-0.228
-410.355	72.117	-0.191	0.198
-409.340	83.680	0.075	-0.082
-408.325	274.869	0.138	-0.245
-407.311	-132.901	-0.156	0.020
-406.296	-101.339	0.355	-0.086
-405.282	185.523	0.176	0.261
-404.267	-200.000	-0.006	0.224
-403.252	-77.181	0.245	0.085
-402.238	304.556	-0.106	0.196
-401.223	-11.295	-0.179	0.118
-400.209	800.000	0.125	-0.352
-399.194	-137.589	0.125	0.014
-398.179	483.531	-0.016	-0.037
-397.165	-200.000	0.016	-0.305
-396.150	-35.044	0.156	-0.085
-395.136	-71.352	0.379	0.142
-394.121	-73.953	-0.163	-0.059
-393.106	-200.000	0.007	-0.047
-392.092	800.000	-0.067	0.232
-391.077	236.706	0.107	-0.177
-390.063	800.000	-0.028	0.104
-389.048	770.533	0.099	-0.269
-388.033	445.272	-0.059	0.130
-387.019	800.000	-0.108	0.308
-386.004	-133.256	-0.120	-0.015
-384.990	152.618	-0.136	-0.185
-383.975	249.652	0.098	-0.166
-382.960	26.772	-0.320	-0.267
-381.946	-200.000	-0.011	-0.308
-380.931	-10.907	-0.197	0.130
-379.917	-200.000	-0.053	-0.344
-378.902	87.469	-0.027	0.029
-377.888	-200.000	-0.006	-0.165
-376.873	286.314	0.032	0.057
-375.858	-87.412	-0.241	0.073
-374.844	-49.371	-0.076	-0.036
-373.829	459.204	0.027	0.061
-372.815	-146.415	-0.393	0.034
-371.800	-82.513	-0.178	0.058
-370.785	-200.000	0.006	-0.216
-369.771	9.016	-0.224	0.168
-368.756	-81.721	-0.159	0.052
-367.742	161.242	0.162	0.226
-366.727	-200.000	0.031	-0.271
-365.712	-59.141	-0.059	0.025
-364.698	415.103	-0.020	0.043
-363.683	800.000	0.082	0.308
-362.669	-84.768	-0.200	0.063
-361.654	465.481	0.158	0.353
-360.639	-200.000	-0.070	0.330
-359.625	800.000	-0.021	-0.074
-358.610	-171.666	0.278	0.009
-357.596	-113.661	0.256	0.050
-356.581	-85.041	-0.090	-0.028
-355.566	-112.305	0.118	0.024
-354.552	-200.000	-0.025	-0.166
-353.537	-3.024	0.136	0.095
-352.523	36.336	-0.208	0.183
-351.508	81.380	-0.233	0.251
-350.493	-41.421	-0.230	-0.118
-349.479	800.000	-0.044	-0.141
-348.464	180.216	0.102	0.149
-347.450	611.504	-0.063	0.158
-346.435	81.992	0.176	0.190
-345.420	35.683	-0.194	0.170
-344.406	99.385	-0.231	-0.266
-343.391	-51.082	-0.317	-0.148
-342.377	83.789	0.153	-0.166
-341.362	156.766	0.038	-0.052
-340.348	-127.861	0.094	0.013
-339.333	592.461	-0.084	0.207
-338.318	86.989	0.041	0.045
-337.304	264.086	-0.053	-0.093
-336.289	122.119	-0.162	0.201
-335.275	45.345	0.192	0.176
-334.260	383.680	0.153	0.314
-333.245	-200.000	0.046	0.315
-332.231	259.251	-0.114	-0.195
-331.216	146.187	-0.164	-0.219
-330.202	800.000	-0.059	-0.175
-329.187	-65.104	-0.112	0.045
-328.172	335.091	-0.076	0.146
-327.158	72.352	-0.103	0.107
-326.143	-200.000	-0.015	-0.138
-325.129	-200.000	0.011	-0.137
-324.114	-112.125	0.351	-0.070
-323.099	-163.907	0.165	-0.008
-322.085	484.986	-0.024	-0.054
-321.070	-200.000	0.034	0.417
-320.056	-15.542	0.378	0.240
-319.041	267.602	-0.135	-0.236
-318.026	-150.993	-0.149	-0.011
-317.012	360.082	-0.095	0.190
-315.997	-5.009	0.076	0.052
-314.983	-13.584	-0.030	0.020
-313.968	800.000	0.095	0.278
-312.953	-200.000	0.040	-0.321
-311.939	-200.000	-0.020	0.273
-310.924	101.353	0.183	0.212
-309.910	-85.495	0.225	-0.070
-308.895	-200.000	0.037	-0.170
-307.880	-64.412	0.452	0.183
-306.866	-110.469	-0.226	-0.047
-305.851	-120.238	0.242	-0.041
-304.837	252.224	0.210	0.356
-303.822	-10.990	-0.151	-0.099
-302.807	-162.651	-0.157	-0.008
-301.793	77.610	0.152	0.161
-300.778	-192.003	0.225	-0.002
-299.764	-200.000	0.010	-0.051
-298.749	-140.122	-0.043	-0.005
-297.735	-102.462	-0.151	-0.036
-296.720	-96.401	-0.166	-0.044
-295.705	-104.917	0.127	0.029
-294.691	-61.839	0.221	0.092
-293.676	800.000	0.115	-0.444
-292.662	-200.000	0.008	-0.062
-291.647	-30.440	0.265	-0.149
-290.632	331.871	-0.057	0.109
-289.618	110.273	-0.113	0.135
-288.603	358.665	0.140	0.279
-287.589	-200.000	-0.030	0.156
-286.574	-200.000	-0.033	-0.204
-285.559	450.796	0.093	-0.203
-284.545	-134.312	0.140	-0.017
-283.530	-9.140	0.145	0.097
-282.516	114.035	-0.169	0.204
-281.501	-88.509	0.189	0.056
-280.486	-98.982	-0.148	0.037
-279.472	-40.162	0.276	0.143
-278.457	485.280	0.097	-0.219
-277.443	-200.000	-0.042	0.215
-276.428	-63.913	-0.122	-0.050
-275.413	-165.887	-0.277	-0.012
-274.399	-200.000	0.004	-0.121
-273.384	-200.000	0.035	-0.161
-272.370	-50.236	0.184	0.086
-271.355	316.650	0.134	0.252
-270.340	800.000	-0.105	0.319
-269.326	-1.427	-0.207	0.145
-268.311	10.434	-0.335	0.254
-267.297	53.181	0.093	0.088
-266.282	-130.248	-0.254	-0.034
-265.267	70.290	-0.113	-0.115
-264.253	37.421	-0.262	-0.230
-263.238	-65.516	-0.139	0.055
-262.224	-86.642	-0.072	-0.022
-261.209	-85.885	-0.043	-0.013
-260.195	64.043	0.219	0.219
-259.180	-76.405	-0.123	0.043
-258.165	-9.872	0.132	-0.087
-257.151	-10.611	0.189	0.124
-256.136	-17.425	-0.228	-0.142
-255.122	800.000	-0.045	0.130
-254.107	-99.369	-0.217	0.054
-253.092	-92.719	-0.154	-0.043
-252.078	-95.202	-0.090	0.024
-251.063	-147.882	0.137	0.011
-250.049	8.370	0.085	0.063
-249.034	33.390	0.074	-0.063
-248.019	-200.000	0.002	0.145
-247.005	615.349	0.175	-0.435
-245.990	-0.014	0.229	-0.162
-244.976	-129.845	0.147	-0.020
-243.961	-41.679	0.313	0.159
-242.946	-31.004	0.274	0.153
-241.932	-20.879	-0.168	0.102
-240.917	122.956	0.092	0.114
-239.903	-61.689	0.234	-0.097
-238.888	-161.947	0.392	-0.020
-237.873	5.160	-0.225	0.165
-236.859	-10.455	0.073	0.048
-235.844	16.654	0.321	0.251
-234.830	-101.126	-0.232	-0.056
-233.815	-146.697	-0.260	-0.022
-232.800	-200.000	0.013	0.065
-231.786	-184.718	0.415	0.007
-230.771	24.807	-0.250	-0.205
-229.757	-19.577	-0.229	0.141
-228.742	-31.422	-0.026	0.014
-227.727	218.853	0.135	0.214
-226.713	800.000	-0.114	-0.414
-225.698	734.247	0.108	-0.286
-224.684	325.472	-0.070	0.133
-223.669	23.907	-0.111	0.091
-222.655	-200.000	0.042	-0.199
-221.640	-94.818	0.302	-0.081
-220.625	365.347	-0.097	0.193
-219.611	800.000	-0.032	-0.094
-218.596	52.614	-0.294	0.278
-217.582	-200.000	0.005	-0.050
-216.567	-200.000	0.007	-0.038
-215.552	-1.640	0.178	-0.124
-214.538	-157.896	0.310	-0.018
-213.523	-3.246	0.304	0.210
-212.509	-3.193	-0.185	-0.128
-211.494	168.678	0.088	0.125
-210.479	-200.000	-0.013	0.333
-209.465	-57.280	0.133	0.058
-208.450	726.388	0.115	-0.303
-207.436	639.277	0.227	-0.573
-206.421	-94.692	0.335	0.090
-205.406	-200.000	-0.022	-0.124
-204.392	-200.000	0.049	0.452
-203.377	-0.827	-0.126	0.088
-202.363	178.769	-0.023	-0.034
-201.348	89.653	0.172	-0.190
-200.333	-169.957	-0.249	0.009
-199.319	762.034	0.047	0.125
-198.304	-158.803	-0.387	-0.022
-197.290	183.931	-0.089	-0.130
-196.275	-144.160	0.099	0.009
-195.260	-16.932	0.243	0.152
-194.246	331.615	-0.112	-0.215
-193.231	-108.392	0.178	0.038
-192.217	-2.045	-0.224	0.156
-191.202	800.000	-0.107	-0.338
-190.187	-200.000	0.034	0.220
-189.173	-200.000	-0.034	0.201
-188.158	-65.383	0.158	-0.063
-187.144	800.000	-0.087	0.361
-186.129	242.439	0.031	0.052
-185.114	-144.863	-0.168	-0.015
-184.100	149.044	-0.090	0.120
-183.085	144.798	-0.075	0.100
-182.071	18.507	0.243	0.192
-181.056	-23.282	-0.126	0.075
-180.042	800.000	0.021	0.068
-179.027	-76.560	0.267	-0.093
-178.012	-171.568	0.301	0.010
-176.998	24.953	0.158	0.130
-175.983	-13.509	0.152	0.097
-174.969	-107.259	0.444	0.097
-173.954	90.522	0.189	0.209
-172.939	800.000	-0.151	-0.502
-171.925	426.657	0.071	-0.152
-170.910	-137.329	-0.192	-0.022
-169.896	-21.377	-0.178	-0.108
-168.881	95.178	0.131	-0.148
-167.866	-31.639	0.139	0.077
-166.852	800.000	-0.064	-0.215
-165.837	556.373	-0.077	-0.184
-164.823	800.000	-0.119	-0.471
-163.808	-200.000	0.008	0.167
-162.793	-200.000	-0.004	-0.140
-161.779	-110.719	0.425	0.087
-160.764	3.803	0.211	-0.153
-159.750	-50.558	-0.264	-0.123
-158.735	-85.147	-0.058	0.018
-157.720	150.163	0.134	-0.180
-156.706	-76.061	0.277	0.097
-155.691	-180.378	0.148	0.003
-154.677	-163.930	-0.288	-0.013
-153.662	800.000	-0.026	0.084
-152.647	27.383	-0.052	0.043
-151.633	75.001	-0.199	-0.207
-150.618	-26.525	-0.169	-0.098
-149.604	619.621	0.109	-0.272
-148.589	800.000	0.017	-0.067
-147.574	-12.803	0.147	0.095
-146.560	-200.000	-0.031	-0.305
-145.545	44.363	0.193	-0.176
-144.531	-200.000	-0.043	0.186
-143.516	800.000	-0.062	0.172
-142.502	-200.000	-0.048	0.227
-141.487	-111.488	-0.127	0.026
-140.472	-7.674	-0.053	0.035
-139.458	800.000	0.072	-0.212
-138.443	290.093	0.076	0.136
-137.429	-145.556	-0.324	-0.029
-136.414	-0.777	0.184	0.129
-135.399	136.439	0.204	0.263
-134.385	24.671	0.103	-0.085
-133.370	103.872	-0.066	0.077
-132.356	-200.000	0.021	-0.344
-131.341	800.000	0.131	0.450
-130.326	227.584	-0.237	0.381
-129.312	-63.623	0.141	-0.057
-128.297	-70.107	-0.125	0.047
-127.283	-64.406	0.270	-0.109
-126.268	-33.380	-0.316	0.173
-125.253	-133.107	0.242	-0.030
-124.239	-162.644	0.151	0.007
-123.224	68.723	-0.151	0.153
-122.210	-200.000	-0.003	0.165
-121.195	121.032	-0.176	0.216
-120.180	800.000	0.074	0.234
-119.166	-200.000	-0.079	0.445
-118.151	-200.000	-0.008	0.159
-117.137	-93.888	-0.072	-0.020
-116.122	-1.893	-0.206	0.143
-115.107	-200.000	-0.003	0.082
-114.093	-57.655	-0.078	-0.034
-113.078	-69.602	0.230	0.087
-112.064	266.454	-0.055	-0.095
-111.049	-42.464	-0.210	0.106
-110.034	-42.355	0.285	0.144
-109.020	77.261	0.199	-0.209
-108.005	-159.453	0.263	-0.014
-106.991	174.510	0.017	0.024
-105.976	-89.113	-0.270	-0.079
-104.962	-200.000	-0.109	0.520
-103.947	142.026	-0.223	0.291
-102.932	158.819	-0.168	0.231
-101.918	-135.559	-0.330	0.039
-100.903	-53.748	0.345	0.156
-99.889	-2.911	-0.282	0.194
-98.874	72.491	0.048	-0.050
-97.859	800.000	-0.074	0.239
-96.845	542.355	0.051	-0.119
-95.830	319.824	-0.137	0.257
-94.816	61.028	0.175	-0.171
-93.801	800.000	-0.029	-0.124
-92.786	-57.160	-0.131	0.057
-91.772	-181.988	-0.170	0.003
-90.757	-80.925	-0.384	-0.126
-89.743	191.887	0.118	-0.176
-88.728	-31.439	0.116	-0.065
-87.713	-92.098	-0.092	0.026
-86.699	-61.433	-0.042	0.018
-85.684	-200.000	-0.014	0.158
-84.670	-56.214	0.223	-0.098
-83.655	-93.414	0.161	-0.044
-82.640	-200.000	-0.042	0.000
-81.626	171.825	0.050	0.071
-80.611	90.089	0.063	0.070
-79.597	-171.235	0.212	0.007
-78.582	-79.764	0.236	-0.078
-77.567	221.300	0.135	-0.214
-76.553	48.131	0.149	0.137
-75.538	-200.000	-0.009	0.185
-74.524	-87.760	0.222	0.066
-73.509	-178.375	0.346	-0.008
-72.494	-62.283	0.263	-0.108
-71.480	55.391	0.118	-0.113
-70.465	-79.072	0.496	0.166
-69.451	-104.194	-0.521	0.119
-68.436	-200.000	0.005	0.495
-67.422	800.000	-0.040	0.131
-66.407	-200.000	0.033	0.241
-65.392	0.096	0.331	0.232
-64.378	-24.605	-0.374	0.219
-63.363	609.302	0.137	0.337
-62.349	800.000	0.102	0.317
-61.334	67.248	-0.953	-0.957
-60.319	39.455	0.434	0.383
-59.305	750.747	-0.413	-1.098
-58.290	415.976	0.479	1.007
-57.276	741.235	0.601	1.590
-56.261	-200.000	95.109	587.073
-55.246	666.656	1369.387	3485.303
-54.232	199.902	2541.141	3841.232
-53.217	121.138	2139.707	2622.854
-52.203	44.408	1604.808	1451.311
-51.188	35.991	1342.872	1163.802
-50.173	32.784	1300.986	1108.645
-49.159	54.842	1347.634	1280.697
-48.144	57.052	1363.893	1309.290
-47.130	36.091	1323.658	1147.559
-46.115	32.661	1306.438	1112.384
-45.100	32.422	1301.479	1106.715
-44.086	32.262	1299.007	1103.625
-43.071	32.161	1296.889	1101.191
-42.057	32.234	1294.844	1099.837
-41.042	32.220	1292.732	1097.918
-40.027	32.260	1291.735	1097.266
-39.013	32.259	1289.547	1095.357
-37.998	32.461	1287.366	1094.637
-36.984	32.439	1285.840	1093.165
-35.969	32.409	1284.384	1091.709
-34.954	32.549	1282.166	1090.595
-33.940	32.486	1281.072	1089.255
-32.925	32.513	1279.652	1088.161
-31.911	32.578	1278.026	1087.106
-30.896	32.516	1276.474	1085.390
-29.881	32.541	1275.330	1084.515
-28.867	32.601	1273.842	1083.554
-27.852	32.535	1272.869	1082.303
-26.838	32.575	1270.962	1080.871
-25.823	32.668	1269.570	1080.174
-24.809	32.587	1268.103	1078.420
-23.794	32.481	1267.244	1077.044
-22.779	32.476	1265.606	1075.578
-21.765	32.555	1264.497	1075.041
-20.750	32.495	1263.626	1073.916
-19.736	32.440	1262.305	1072.439
-18.721	32.239	1261.213	1070.325
-17.706	32.418	1259.738	1070.048
-16.692	32.425	1258.245	1068.776
-15.677	32.420	1257.739	1068.278
-14.663	32.420	1256.376	1067.074
-13.648	32.315	1255.495	1065.689
-12.633	32.299	1254.667	1064.854
-11.619	32.375	1253.434	1064.199
-10.604	32.397	1252.483	1063.468
-9.590	32.280	1251.460	1061.901
-8.575	32.301	1250.860	1061.467
-7.560	32.356	1249.565	1060.633
-6.546	32.346	1248.693	1059.796
-5.531	32.340	1247.838	1058.994
-4.517	32.365	1247.221	1058.573
-3.502	32.329	1246.449	1057.669
-2.487	32.353	1245.047	1056.573
-1.473	32.315	1241.228	1053.081
-0.458	30.964	1226.330	1032.917
0.556	26.603	1208.759	995.289
1.571	22.929	1214.140	979.309
2.586	21.939	1228.671	985.382
3.600	21.280	1217.537	972.699
4.615	16.148	1146.191	888.649
5.629	8.326	1072.996	793.110
6.644	4.779	1053.804	761.527
7.659	4.576	1050.974	758.424
8.673	4.690	1050.171	758.335
9.688	4.595	1049.301	757.175
10.702	4.834	1046.785	756.454
11.717	9.185	1052.776	781.933
12.731	16.424	1063.023	824.934
13.746	19.069	1065.534	839.735
14.761	18.258	1064.097	834.575
15.775	17.252	1061.902	827.881
16.790	16.241	1059.817	821.266
17.804	15.422	1058.324	816.053
18.819	15.201	1057.230	814.063
19.834	15.029	1056.272	812.418
20.848	14.555	1056.042	809.869
21.863	14.515	1054.467	808.396
22.877	14.372	1054.023	807.291
23.892	14.432	1053.396	807.030
24.907	14.305	1052.874	805.947
25.921	14.440	1051.450	805.439
26.936	14.403	1050.418	804.398
27.950	14.484	1048.908	803.559
28.965	14.517	1047.484	802.558
29.980	14.596	1046.273	801.939
30.994	14.729	1044.344	801.027
32.009	14.602	1044.105	800.160
33.023	14.543	1042.945	798.919
34.038	14.515	1041.824	797.856
35.053	14.552	1041.091	797.403
36.067	14.564	1039.867	796.449
37.082	14.602	1039.345	796.161
38.096	14.652	1038.490	795.675
39.111	14.545	1038.168	794.848
40.126	14.483	1036.602	793.282
41.140	14.317	1035.650	791.695
42.155	14.279	1033.689	789.945
43.169	14.141	1033.290	788.916
44.184	14.295	1032.164	788.716
45.199	14.224	1031.079	787.480
46.213	14.383	1029.976	787.324
47.228	14.460	1028.627	786.583
48.242	14.364	1027.986	785.570
49.257	14.533	1026.944	785.504
50.271	14.468	1026.469	784.764
51.286	14.581	1025.190	784.245
52.301	14.432	1024.746	783.136
53.315	14.412	1023.115	781.727
54.330	14.334	1022.318	780.685
55.344	14.331	1021.390	779.892
56.359	14.419	1020.702	779.709
57.374	14.362	1019.434	778.405
58.388	14.326	1018.489	777.446
59.403	14.328	1017.964	776.987
60.417	14.128	1017.629	775.730
61.432	14.228	1016.359	775.161
62.447	14.126	1015.702	774.117
63.461	14.129	1014.985	773.514
64.476	14.126	1014.136	772.784
65.490	14.046	1013.505	771.864
66.505	14.174	1012.206	771.399
67.520	14.126	1011.965	770.927
68.534	14.120	1011.513	770.486
69.549	14.135	1010.304	769.564
70.563	14.128	1009.582	768.914
71.578	14.108	1008.757	768.125
72.593	14.162	1007.829	767.599
73.607	13.987	1007.291	766.318
74.622	14.034	1006.644	765.975
75.636	14.022	1006.069	765.411
76.651	14.007	1005.433	764.792
77.666	14.065	1004.985	764.649
78.680	14.232	1004.014	764.611
79.695	14.062	1003.817	763.612
80.709	14.250	1002.897	763.708
81.724	14.329	1002.192	763.467
82.739	14.412	1001.447	763.210
83.753	14.382	1000.997	762.665
84.768	14.408	1000.140	762.060
85.782	14.781	998.882	762.738
86.797	14.496	998.766	761.282
87.812	14.405	997.742	760.021
88.826	14.518	996.512	759.529
89.841	14.611	995.557	759.159
90.855	14.612	994.968	758.647
91.870	14.637	994.039	757.982
92.884	14.649	993.170	757.307
93.899	14.591	992.646	756.578
94.914	14.678	991.902	756.340
95.928	14.849	990.717	756.142
96.943	14.448	990.339	753.975
97.957	14.480	989.189	753.174
98.972	14.569	988.548	753.021
99.987	14.582	987.501	752.219
101.001	14.552	986.603	751.332
102.016	14.544	985.781	750.603
103.030	14.605	985.142	750.322
104.045	14.684	984.097	749.819
105.060	14.480	983.535	748.407
106.074	14.354	982.708	747.145
107.089	14.364	981.023	745.844
108.103	14.193	980.429	744.562
109.118	14.286	979.484	744.191
110.133	14.242	978.685	743.322
111.147	14.248	977.729	742.556
112.162	14.276	976.735	741.861
113.176	14.346	976.199	741.700
114.191	14.431	975.475	741.463
115.206	14.374	974.729	740.579
116.220	14.225	974.301	739.524
117.235	14.355	972.588	738.735
118.249	14.292	972.094	738.014
119.264	14.358	971.092	737.484
120.279	14.303	970.332	736.597
121.293	14.154	969.660	735.365
122.308	14.117	968.570	734.309
123.322	14.217	967.631	733.974
124.337	14.120	966.741	732.804
125.352	14.334	965.708	732.900
126.366	14.106	964.653	731.033
127.381	14.356	963.179	730.945
128.395	14.172	963.316	730.177
129.410	14.342	961.804	729.714
130.424	14.395	961.227	729.441
131.439	14.485	960.516	729.230
132.454	14.389	960.049	728.394
133.468	14.419	958.724	727.455
134.483	14.512	957.832	727.118
135.497	14.404	957.336	726.207
136.512	14.454	956.240	725.530
137.527	14.490	955.352	724.950
138.541	14.406	954.930	724.200
139.556	14.471	954.276	723.919
140.570	14.557	953.667	723.769
141.585	14.647	952.905	723.514
142.600	14.639	952.129	722.826
143.614	14.618	951.419	722.132
144.629	14.771	950.358	721.925
145.643	14.631	949.457	720.573
146.658	14.649	948.400	719.783
147.673	14.566	947.663	718.806
148.687	14.546	946.946	718.110
149.702	14.356	946.112	716.597
150.716	14.306	945.483	715.842
151.731	14.491	944.646	715.938
152.746	14.520	943.891	715.427
153.760	14.576	943.095	715.003
154.775	14.643	942.555	714.818
155.789	14.655	942.198	714.536
156.804	14.660	941.344	713.845
157.819	14.674	940.471	713.179
158.833	14.859	940.029	713.570
159.848	14.901	939.064	712.955
160.862	14.690	938.027	711.206
161.877	14.709	936.606	710.146
162.892	14.539	936.195	709.046
163.906	14.475	935.224	707.979
164.921	14.534	934.616	707.705
165.935	14.597	934.060	707.490
166.950	14.718	932.921	707.074
167.964	14.633	932.222	706.125
168.979	14.522	931.357	704.938
169.994	14.584	930.041	704.140
171.008	14.634	929.743	704.063
172.023	14.724	929.174	703.950
173.037	14.893	928.236	703.888
174.052	14.680	927.614	702.457
175.067	14.645	926.819	701.649
176.081	14.662	926.368	701.314
177.096	14.599	925.860	700.603
178.110	14.652	925.170	700.243
179.125	14.655	924.470	699.665
180.140	14.724	924.424	699.856
181.154	14.784	924.062	699.773
182.169	14.897	923.156	699.497
183.183	14.896	922.546	698.967
184.198	14.863	921.881	698.263
185.213	14.971	921.147	698.098
186.227	14.966	920.744	697.708
187.242	15.016	920.165	697.417
188.256	14.989	919.364	696.637
189.271	15.085	918.634	696.422
190.286	14.744	917.867	694.361
191.300	14.738	916.905	693.547
192.315	14.644	916.231	692.583
193.329	14.673	915.823	692.336
194.344	14.799	915.122	692.266
195.359	14.785	914.716	691.839
196.373	14.937	914.349	692.129
197.388	15.029	913.803	692.036
198.402	15.117	913.105	691.809
199.417	15.202	912.542	691.671
200.432	15.282	912.072	691.583
201.446	15.227	911.574	690.920
202.461	15.226	911.261	690.616
203.475	15.237	910.143	689.752
204.490	15.206	909.447	689.037
205.504	15.154	908.549	688.082
206.519	15.146	907.725	687.367
207.534	15.148	907.243	686.946
208.548	15.143	906.749	686.491
209.563	15.084	906.572	686.056
210.577	15.281	905.059	685.657
211.592	15.296	904.601	685.309
212.607	15.409	904.031	685.278
213.621	15.388	903.470	684.706
214.636	15.302	902.630	683.660
215.650	15.315	902.278	683.387
216.665	15.470	901.171	683.116
217.680	15.379	901.002	682.557
218.694	15.520	899.858	682.206
219.709	15.470	899.395	681.590
220.723	15.453	898.995	681.156
221.738	15.407	897.971	680.136
222.753	15.401	897.785	679.910
223.767	15.448	897.286	679.660
224.782	15.549	896.588	679.483
225.796	15.661	895.708	679.206
226.811	15.443	895.287	677.946
227.826	15.565	894.284	677.619
228.840	15.614	893.670	677.291
229.855	15.503	892.689	676.041
230.869	15.528	892.028	675.582
231.884	15.443	891.383	674.693
232.899	15.320	890.762	673.668
233.913	15.440	889.950	673.478
234.928	15.450	889.337	672.992
235.942	15.340	888.798	672.086
236.957	15.356	888.132	671.585
237.972	15.291	887.830	671.036
238.986	15.383	887.281	670.933
240.001	15.307	886.735	670.156
241.015	15.626	885.804	670.664
242.030	15.449	885.243	669.477
243.045	15.584	884.860	669.663
244.059	15.614	884.180	669.211
245.074	15.669	883.225	668.647
246.088	15.807	882.658	668.705
247.103	15.651	882.511	667.916
248.117	15.765	881.928	667.869
249.132	15.867	881.432	667.841
250.147	15.896	881.236	667.746
251.161	16.178	879.959	667.837
252.176	15.993	879.688	666.840
253.190	16.087	879.021	666.646
254.205	16.310	877.865	666.590
255.220	16.064	877.554	665.323
256.234	16.079	876.977	664.886
257.249	16.149	875.941	664.318
258.263	16.161	875.734	664.151
259.278	16.255	874.538	663.553
260.293	16.191	874.733	663.392
261.307	16.108	874.140	662.558
262.322	16.244	873.623	662.643
263.336	16.318	872.399	661.946
264.351	16.286	871.684	661.217
265.366	16.240	871.503	660.842
266.380	16.361	870.808	660.732
267.395	16.310	869.772	659.686
268.409	16.214	869.270	658.872
269.424	16.314	868.536	658.649
270.439	16.261	867.408	657.529
271.453	16.145	867.207	656.867
272.468	16.220	866.574	656.619
273.482	16.149	865.892	655.768
274.497	16.270	865.449	655.847
275.512	16.261	864.826	655.281
276.526	16.296	864.469	655.088
277.541	16.386	863.666	654.768
278.555	16.480	863.596	655.023
279.570	16.600	862.474	654.577
280.585	16.592	861.668	653.876
281.599	16.370	861.125	652.552
282.614	16.305	860.480	651.751
283.628	16.532	859.670	651.957
284.643	16.367	859.297	650.979
285.657	16.412	858.717	650.655
286.672	16.537	858.305	650.770
287.687	16.432	857.643	649.807
288.701	16.471	857.014	649.422
289.716	16.491	856.449	649.012
290.730	16.530	855.824	648.632
291.745	16.766	854.883	648.765
292.760	16.601	854.934	648.115
293.774	16.560	854.575	647.628
294.789	16.624	853.675	647.134
295.803	16.610	852.841	646.389
296.818	16.508	852.236	645.484
297.833	16.568	851.642	645.208
298.847	16.642	850.932	644.891
299.862	16.699	850.289	644.567
300.876	16.714	850.055	644.388
301.891	16.802	849.394	644.166
302.906	16.741	849.016	643.591
303.920	16.664	848.984	643.216
304.935	16.791	848.350	643.163
305.949	16.906	847.152	642.631
306.964	16.809	846.496	641.711
307.979	16.791	846.062	641.255
308.993	16.901	845.362	641.086
310.008	16.993	844.745	640.906
311.022	16.804	844.502	639.954
312.037	16.846	843.680	639.433
313.052	16.667	843.353	638.450
314.066	16.559	842.328	637.214
315.081	16.753	841.710	637.418
316.095	16.782	840.914	636.869
317.110	16.593	840.862	636.063
318.125	16.686	840.388	635.996
319.139	16.650	839.902	635.438
320.154	16.750	839.256	635.269
321.168	16.887	838.886	635.446
322.183	16.974	838.081	635.104
323.197	16.941	837.813	634.724
324.212	17.017	836.808	634.190
325.227	16.831	836.907	633.512
326.241	16.909	836.156	633.177
327.256	16.876	835.565	632.551
328.270	16.865	834.380	631.557
329.285	16.890	834.394	631.605
330.300	16.815	834.053	631.014
331.314	16.955	832.955	630.646
332.329	17.054	832.789	630.834
333.343	17.035	832.440	630.442
334.358	17.039	832.114	630.154
335.373	17.034	831.664	629.738
336.387	17.114	831.291	629.700
337.402	17.101	831.216	629.538
338.416	17.197	831.127	629.769
339.431	17.282	830.515	629.567
340.446	17.306	830.144	629.319
341.460	17.387	829.592	629.144
342.475	17.370	829.458	628.922
343.489	17.389	829.158	628.710
344.504	17.477	828.699	628.632
345.519	17.442	827.897	627.840
346.533	17.328	827.302	626.912
347.548	17.434	826.904	626.944
348.562	17.373	826.159	626.101
349.577	17.283	825.508	625.221
350.592	17.305	824.953	624.824
351.606	17.311	824.267	624.270
352.621	17.326	823.850	623.956
353.635	17.321	823.068	623.289
354.650	17.274	822.648	622.744
355.665	17.395	821.966	622.619
356.679	17.431	821.877	622.626
357.694	17.352	820.778	621.450
358.708	17.407	820.206	621.162
359.723	17.511	819.390	620.868
360.738	17.537	818.989	620.603
361.752	17.688	818.295	620.575
362.767	17.603	818.077	620.045
363.781	17.653	817.331	619.605
364.796	17.596	817.165	619.219
365.810	17.834	817.020	619.916
366.825	17.709	816.444	618.974
367.840	17.760	815.830	618.635
368.854	17.745	815.447	618.236
369.869	17.732	814.946	617.754
370.883	17.699	814.597	617.317
371.898	17.886	813.998	617.485
372.913	17.767	813.667	616.749
373.927	17.795	812.966	616.264
374.942	17.821	812.939	616.283
375.956	18.063	812.242	616.575
376.971	18.089	811.676	616.183
377.986	18.045	811.341	615.717
379.000	18.066	810.775	615.306
380.015	17.946	810.513	614.621
381.029	18.091	809.797	614.545
382.044	18.018	809.262	613.822
383.059	17.931	808.933	613.205
384.073	18.111	807.874	612.995
385.088	17.992	807.329	612.102
386.102	17.825	807.034	611.224
387.117	17.951	806.423	611.159
388.132	17.912	805.922	610.586
389.146	18.023	805.128	610.328
390.161	18.250	804.794	610.829
391.175	17.959	804.666	609.639
392.190	17.980	803.922	609.097
393.205	18.018	803.269	608.684
394.219	18.034	803.172	608.615
395.234	17.953	802.543	607.797
396.248	17.864	802.043	607.047
397.263	17.856	802.001	606.931
398.278	17.947	801.637	606.925
399.292	17.944	801.074	606.437
400.307	17.891	800.458	605.726
401.321	18.086	799.849	605.906
402.336	18.051	799.641	605.571
403.350	17.933	799.466	604.967
404.365	18.089	798.737	604.913
405.380	18.381	798.027	605.353
406.394	18.315	797.557	604.709
407.409	18.378	797.500	604.836
408.423	18.463	796.896	604.624
409.438	18.418	796.512	604.119
410.453	18.441	796.190	603.903
411.467	18.451	795.713	603.524
412.482	18.461	795.414	603.279
413.496	18.510	795.169	603.211
414.511	18.564	794.742	603.023
415.526	18.599	794.266	602.732
416.540	18.516	793.719	601.973
417.555	18.612	793.156	601.829
418.569	18.585	792.793	601.408
419.584	18.499	792.425	600.774
420.599	18.654	791.864	600.837
421.613	156.316	1370.964	1794.002
422.628	135.259	1455.346	1794.126
