DTS Sentinel unit serial number:	SN413079Multiplexer serial number:	ORYXHardware model number:	OX4-SRSoftware version number:	ORYX F/W v4.00 Oryx Data Collector v3.7.2.0data status	okinstallation	princeton_trtdifferential loss correction	single-endedforward channel	channel 1reverse channel	N/Adate	2019/09/13time	17:22:35forward acquisition time	60.00reverse acquisition time	0.00gamma	496.2192k internal	0.2294k external	0.2294temperature offset calibration	1.0146default loss term (dB/km)	0.3790temperature slope calibration	1.0000multiplexer offset coefficient	1.0000multiplexer slope coefficient	1.0000fibre end	0.00T internal ref (°C)	36.06T ext. ref 1 (°C)	4.78T ext. ref 2 (°C)	32.31length (m)	temperature (°C)	Stokes	anti-Stokes-747.200	152.364	0.218	0.304
-746.185	22.612	-0.291	0.244
-745.171	339.076	0.133	-0.266
-744.156	-72.362	-0.433	0.164
-743.142	247.312	0.068	0.117
-742.127	-110.972	-0.121	0.025
-741.112	-131.808	-0.056	0.008
-740.098	-200.000	0.003	0.184
-739.083	14.328	0.179	-0.143
-738.069	-25.917	-0.069	0.041
-737.054	-200.000	-0.030	0.154
-736.039	105.976	-0.140	-0.169
-735.025	-28.732	0.184	0.108
-734.010	17.304	-0.048	-0.039
-732.996	-200.000	-0.015	-0.228
-731.981	-22.906	-0.149	0.092
-730.966	800.000	-0.089	0.290
-729.952	-186.165	-0.276	0.004
-728.937	-200.000	-0.002	0.194
-727.923	800.000	-0.191	-0.540
-726.908	43.719	-0.161	-0.151
-725.894	-148.185	-0.168	0.014
-724.879	438.476	-0.062	-0.139
-723.864	142.200	-0.084	0.114
-722.850	146.028	-0.074	-0.101
-721.835	-110.806	0.140	-0.029
-720.821	-105.466	-0.081	-0.019
-719.806	-200.000	-0.023	0.130
-718.791	79.087	-0.140	-0.153
-717.777	21.905	-0.240	0.200
-716.762	-200.000	-0.003	-0.186
-715.748	-62.167	-0.440	-0.187
-714.733	322.744	0.124	-0.241
-713.718	-135.826	-0.318	-0.038
-712.704	-15.009	-0.058	-0.038
-711.689	89.691	-0.079	-0.090
-710.675	-74.400	-0.245	0.090
-709.660	163.545	0.104	-0.149
-708.645	-170.705	0.200	0.007
-707.631	-12.163	-0.104	0.070
-706.616	-125.532	-0.168	-0.026
-705.602	-200.000	-0.011	-0.183
-704.587	-59.214	0.251	-0.110
-703.572	204.891	-0.186	0.295
-702.558	800.000	-0.124	0.443
-701.543	-131.490	-0.416	0.056
-700.529	12.575	0.044	0.035
-699.514	85.106	0.169	-0.189
-698.499	-19.616	0.136	-0.086
-697.485	800.000	-0.014	0.048
-696.470	34.285	0.145	-0.129
-695.456	-105.072	-0.650	0.152
-694.441	204.654	-0.134	-0.212
-693.426	167.619	0.053	0.077
-692.412	-167.507	0.399	0.016
-691.397	-76.599	-0.284	0.102
-690.383	108.193	-0.050	-0.061
-689.368	162.327	0.060	-0.086
-688.354	-200.000	-0.021	-0.154
-687.339	-102.892	0.208	-0.050
-686.324	-14.933	0.228	-0.149
-685.310	525.919	-0.048	-0.115
-684.295	-11.767	0.206	0.138
-683.281	800.000	-0.049	-0.165
-682.266	9.703	-0.374	-0.289
-681.251	800.000	-0.015	-0.054
-680.237	-119.733	0.189	-0.033
-679.222	-200.000	0.041	0.236
-678.208	44.520	-0.213	-0.200
-677.193	64.491	-0.091	-0.093
-676.178	350.160	-0.038	-0.076
-675.164	564.705	0.033	-0.081
-674.149	-200.000	-0.005	-0.183
-673.135	287.960	0.131	-0.242
-672.120	479.385	-0.132	-0.305
-671.105	1.785	0.293	0.215
-670.091	-200.000	-0.061	-0.346
-669.076	-167.471	-0.078	-0.003
-668.062	-160.387	-0.397	0.022
-667.047	800.000	-0.045	-0.140
-666.032	259.716	0.198	-0.348
-665.018	-5.238	0.062	0.043
-664.003	553.523	0.116	0.284
-662.989	383.946	0.083	0.175
-661.974	206.610	-0.313	-0.497
-660.959	150.289	0.104	0.144
-659.945	67.514	0.096	0.100
-658.930	28.659	0.128	0.110
-657.916	581.847	-0.151	-0.378
-656.901	36.416	-0.148	-0.133
-655.886	80.357	0.210	-0.231
-654.872	398.587	-0.035	0.074
-653.857	-111.122	0.287	-0.060
-652.843	180.003	0.109	0.162
-651.828	41.475	0.259	-0.239
-650.814	550.114	0.060	-0.146
-649.799	247.724	-0.115	-0.198
-648.784	-200.000	0.022	-0.450
-647.770	-200.000	0.001	-0.188
-646.755	50.913	0.184	0.177
-645.741	-129.034	0.217	-0.031
-644.726	-136.633	0.154	-0.018
-643.711	800.000	-0.038	-0.111
-642.697	-121.317	0.193	-0.033
-641.682	475.891	-0.120	-0.275
-640.668	18.170	-0.222	0.181
-639.653	367.245	-0.056	-0.114
-638.638	102.593	0.019	0.022
-637.624	200.100	-0.116	-0.182
-636.609	165.368	-0.166	-0.239
-635.595	189.221	0.089	0.136
-634.580	-66.677	0.108	-0.044
-633.565	115.598	-0.130	0.161
-632.551	5.175	0.118	-0.089
-631.536	130.627	0.202	-0.263
-630.522	-158.152	-0.056	-0.003
-629.507	-72.638	-0.361	0.135
-628.492	-200.000	0.026	-0.496
-627.478	2.051	0.187	-0.137
-626.463	167.786	0.077	-0.111
-625.449	20.228	0.236	-0.194
-624.434	160.058	-0.262	-0.371
-623.419	-17.886	-0.323	-0.206
-622.405	268.429	-0.088	-0.157
-621.390	45.597	0.150	0.141
-620.376	-115.460	-0.292	-0.056
-619.361	91.802	0.153	-0.175
-618.346	-118.603	-0.213	0.038
-617.332	105.289	-0.175	0.211
-616.317	-200.000	0.025	-0.120
-615.303	553.614	-0.017	0.042
-614.288	-55.630	0.168	-0.077
-613.273	23.749	-0.080	-0.067
-612.259	-9.648	0.130	-0.088
-611.244	-163.014	-0.183	0.009
-610.230	-200.000	-0.046	-0.317
-609.215	-36.929	-0.295	0.161
-608.201	-172.849	0.236	-0.007
-607.186	145.056	0.166	0.225
-606.171	185.475	-0.291	0.439
-605.157	508.145	0.083	-0.196
-604.142	-200.000	-0.044	-0.231
-603.128	-200.000	-0.018	0.245
-602.113	178.186	-0.043	-0.064
-601.098	-16.664	0.147	-0.094
-600.084	-107.588	-0.171	-0.038
-599.069	800.000	-0.098	-0.310
-598.055	-200.000	-0.000	-0.182
-597.040	-51.693	-0.145	-0.069
-596.025	800.000	0.064	0.220
-595.011	-83.401	-0.373	-0.122
-593.996	-84.603	0.214	-0.069
-592.982	-175.586	0.240	-0.007
-591.967	-200.000	-0.030	-0.480
-590.952	126.073	0.089	-0.114
-589.938	106.229	0.033	0.039
-588.923	-200.000	0.002	-0.053
-587.909	-200.000	0.023	-0.147
-586.894	-138.872	0.134	-0.015
-585.879	420.636	0.154	0.336
-584.865	54.371	0.228	-0.223
-583.850	0.698	-0.134	0.097
-582.836	-200.000	0.024	-0.304
-581.821	548.301	0.174	-0.424
-580.806	55.466	-0.226	-0.223
-579.792	24.318	-0.065	0.055
-578.777	800.000	0.044	0.130
-577.763	-50.233	-0.156	0.075
-576.748	-119.305	-0.116	-0.021
-575.733	98.035	-0.259	-0.303
-574.719	-42.693	-0.210	0.108
-573.704	197.038	-0.183	-0.283
-572.690	-152.806	-0.333	-0.024
-571.675	55.372	0.273	0.269
-570.661	119.420	0.054	-0.068
-569.646	-158.150	0.275	-0.016
-568.631	-187.309	0.427	-0.006
-567.617	36.337	-0.031	-0.028
-566.602	-102.018	-0.208	0.051
-565.588	-200.000	-0.016	-0.256
-564.573	-200.000	0.051	-0.292
-563.558	57.581	0.103	-0.102
-562.544	31.276	-0.177	-0.155
-561.529	604.041	-0.030	0.076
-560.515	103.004	0.021	0.025
-559.500	-140.419	0.180	-0.019
-558.485	-18.341	0.012	0.008
-557.471	-133.093	0.070	0.009
-556.456	800.000	0.090	-0.378
-555.442	443.726	0.060	0.134
-554.427	674.645	-0.056	-0.149
-553.412	-40.298	-0.317	-0.168
-552.398	-200.000	-0.015	-0.176
-551.383	-74.882	0.072	0.026
-550.369	-116.806	0.391	-0.073
-549.354	-132.406	-0.102	0.013
-548.339	-200.000	-0.015	-0.187
-547.325	-91.367	-0.064	0.019
-546.310	-19.404	0.298	0.187
-545.296	800.000	-0.038	-0.130
-544.281	291.734	-0.046	0.086
-543.266	208.923	0.084	0.133
-542.252	-14.188	-0.308	0.201
-541.237	-200.000	-0.023	0.117
-540.223	800.000	-0.062	-0.200
-539.208	74.517	0.220	-0.235
-538.193	36.061	-0.109	0.097
-537.179	-7.628	0.043	-0.030
-536.164	123.245	0.122	-0.155
-535.150	30.699	-0.102	-0.089
-534.135	-185.353	0.061	-0.001
-533.121	52.469	0.173	-0.168
-532.106	-66.706	-0.263	0.106
-531.091	728.582	-0.088	0.238
-530.077	-115.998	-0.095	-0.018
-529.062	-200.000	-0.006	0.196
-528.048	-200.000	0.017	-0.228
-527.033	-73.619	0.239	-0.088
-526.018	-200.000	0.021	0.211
-525.004	-28.863	0.139	-0.081
-523.989	-59.130	-0.165	0.072
-522.975	-169.117	-0.175	-0.007
-521.960	-0.134	-0.167	0.121
-520.945	800.000	0.040	0.166
-519.931	-38.533	0.149	0.080
-518.916	202.832	-0.070	0.110
-517.902	-200.000	-0.017	-0.103
-516.887	-200.000	-0.008	0.038
-515.872	-200.000	-0.019	-0.353
-514.858	-200.000	-0.037	-0.248
-513.843	-200.000	-0.008	0.158
-512.829	-18.379	-0.095	0.060
-511.814	-103.425	-0.132	0.031
-510.799	-11.595	0.024	-0.016
-509.785	-14.850	-0.192	-0.125
-508.770	-200.000	-0.017	0.144
-507.756	-200.000	-0.024	-0.144
-506.741	9.828	-0.101	0.078
-505.726	-200.000	-0.020	0.121
-504.712	-114.490	-0.492	0.096
-503.697	-200.000	0.063	-0.393
-502.683	-144.307	0.166	-0.016
-501.668	-101.841	0.100	-0.025
-500.653	-67.369	-0.512	-0.204
-499.639	-200.000	0.005	0.065
-498.624	30.610	-0.072	-0.063
-497.610	32.716	-0.108	0.095
-496.595	-0.787	0.155	-0.111
-495.581	-60.253	0.176	0.076
-494.566	-16.396	0.189	-0.122
-493.551	-66.565	0.102	-0.041
-492.537	-200.000	0.038	0.239
-491.522	689.499	-0.076	-0.202
-490.508	-200.000	-0.017	-0.127
-489.493	3.011	-0.078	-0.058
-488.478	-53.086	-0.305	0.142
-487.464	-49.415	-0.317	0.153
-486.449	800.000	-0.071	-0.266
-485.435	241.274	-0.033	-0.055
-484.420	143.395	-0.167	0.225
-483.405	-37.900	0.252	0.135
-482.391	305.446	-0.119	0.223
-481.376	-124.936	-0.065	0.010
-480.362	-200.000	-0.009	-0.135
-479.347	6.139	0.079	0.059
-478.332	-200.000	-0.002	0.048
-477.318	83.842	-0.118	0.130
-476.303	-200.000	0.004	0.104
-475.289	-91.551	-0.223	0.064
-474.274	65.150	0.165	0.168
-473.259	800.000	-0.053	0.226
-472.245	280.401	0.145	0.262
-471.230	57.108	-0.179	0.177
-470.216	-90.791	0.224	-0.065
-469.201	-151.370	-0.316	-0.024
-468.186	-98.607	-0.301	0.078
-467.172	-18.353	-0.151	-0.095
-466.157	-200.000	0.018	0.114
-465.143	240.643	0.054	-0.091
-464.128	-27.146	-0.146	-0.086
-463.113	107.054	-0.036	-0.043
-462.099	-200.000	-0.033	-0.389
-461.084	-200.000	-0.002	0.131
-460.070	-200.000	0.015	0.227
-459.055	-34.420	0.187	0.104
-458.040	383.539	0.194	-0.404
-457.026	-67.329	-0.177	0.070
-456.011	235.587	0.132	0.221
-454.997	-40.229	0.152	-0.080
-453.982	-158.184	0.054	0.003
-452.968	70.004	0.242	-0.252
-451.953	-105.444	-0.106	0.024
-450.938	-103.926	0.190	0.045
-449.924	-52.466	-0.155	0.073
-448.909	2.033	-0.100	-0.073
-447.895	270.270	-0.271	0.482
-446.880	-10.825	0.190	-0.127
-445.865	800.000	-0.028	0.125
-444.851	-167.195	0.433	0.018
-443.836	-53.500	-0.213	-0.098
-442.822	-34.643	-0.072	-0.040
-441.807	164.025	-0.094	0.134
-440.792	-92.248	-0.231	0.066
-439.778	-200.000	-0.002	-0.072
-438.763	800.000	-0.035	-0.110
-437.749	-144.377	0.177	0.017
-436.734	340.314	-0.073	-0.144
-435.719	-20.552	-0.210	0.130
-434.705	-7.470	0.115	-0.079
-433.690	-32.229	-0.255	0.144
-432.676	-57.470	0.082	0.036
-431.661	-15.494	-0.368	0.237
-430.646	56.132	0.289	0.283
-429.632	-72.894	-0.264	0.098
-428.617	-200.000	0.106	0.650
-427.603	711.055	-0.100	0.268
-426.588	-46.422	-0.066	0.033
-425.573	643.346	0.033	-0.085
-424.559	-12.872	0.042	0.028
-423.544	7.053	-0.054	-0.041
-422.530	800.000	0.050	-0.179
-421.515	183.176	0.150	0.224
-420.500	-89.309	-0.114	0.034
-419.486	84.896	0.245	-0.271
-418.471	91.290	0.146	0.166
-417.457	-126.802	-0.264	0.039
-416.442	458.666	0.112	-0.251
-415.428	29.515	-0.097	0.083
-414.413	-74.130	0.352	0.129
-413.398	99.144	-0.319	0.372
-412.384	-200.000	-0.012	0.169
-411.369	58.098	-0.114	0.112
-410.355	37.161	0.311	0.278
-409.340	-200.000	-0.034	-0.195
-408.325	-118.151	-0.179	0.032
-407.311	800.000	0.059	0.194
-406.296	155.888	-0.414	0.576
-405.282	-135.201	-0.144	-0.017
-404.267	-160.836	-0.160	0.009
-403.252	35.063	0.188	0.166
-402.238	550.010	-0.159	-0.385
-401.223	197.514	0.138	-0.212
-400.209	800.000	0.088	-0.308
-399.194	-24.793	0.225	0.135
-398.179	800.000	-0.070	-0.273
-397.165	405.767	0.148	0.314
-396.150	91.026	0.130	0.147
-395.136	-194.293	-0.151	-0.001
-394.121	96.494	-0.044	0.051
-393.106	209.075	-0.089	-0.140
-392.092	-39.899	0.209	-0.110
-391.077	-69.313	-0.197	-0.076
-390.063	290.604	0.221	0.406
-389.048	-200.000	0.084	-0.433
-388.033	-200.000	-0.084	0.393
-387.019	-35.899	0.125	-0.068
-386.004	309.403	0.133	-0.251
-384.990	-106.906	-0.218	-0.049
-383.975	104.586	0.147	-0.174
-382.960	800.000	-0.045	-0.157
-381.946	228.795	0.066	0.108
-380.931	-113.855	-0.273	-0.054
-379.917	-119.482	0.242	0.042
-378.902	-7.097	0.079	0.054
-377.888	-87.168	0.392	-0.120
-376.873	-139.259	-0.224	0.024
-375.858	7.947	-0.155	0.117
-374.844	-67.818	-0.193	-0.076
-373.829	76.908	-0.184	-0.197
-372.815	429.805	0.084	0.182
-371.800	20.809	0.155	-0.127
-370.785	-200.000	0.011	-0.230
-369.771	-66.896	-0.274	0.109
-368.756	402.219	-0.115	0.243
-367.742	-200.000	-0.057	0.488
-366.727	-135.969	0.127	0.015
-365.712	800.000	0.080	-0.320
-364.698	-65.392	-0.196	0.080
-363.683	-200.000	0.030	-0.158
-362.669	-200.000	0.013	-0.123
-361.654	78.088	-0.197	0.211
-360.639	-114.507	-0.120	0.023
-359.625	-200.000	0.038	-0.177
-358.610	191.138	0.192	0.291
-357.596	-148.110	0.058	0.005
-356.581	304.669	-0.026	0.049
-355.566	37.996	0.248	0.222
-354.552	685.298	0.007	-0.019
-353.537	-200.000	0.005	0.190
-352.523	-154.982	0.194	-0.013
-351.508	-200.000	-0.014	0.406
-350.493	265.780	0.049	0.087
-349.479	-110.348	0.329	0.069
-348.464	42.953	0.341	-0.313
-347.450	766.432	0.143	0.393
-346.435	-200.000	0.014	-0.097
-345.420	668.989	-0.153	0.399
-344.406	-27.200	-0.251	0.147
-343.391	-200.000	-0.035	-0.181
-342.377	556.096	0.166	-0.401
-341.362	7.117	0.139	-0.104
-340.348	-56.894	0.213	-0.095
-339.333	270.752	-0.075	0.132
-338.318	-48.665	-0.347	0.168
-337.304	195.066	-0.140	0.214
-336.289	-76.281	-0.253	-0.090
-335.275	72.567	0.228	-0.240
-334.260	-46.020	0.193	0.096
-333.245	-118.533	0.127	-0.023
-332.231	-70.808	0.104	0.040
-331.216	-88.446	-0.438	-0.131
-330.202	193.893	0.042	0.064
-329.187	-200.000	0.002	-0.113
-328.172	-56.291	-0.374	0.167
-327.158	267.604	-0.260	0.458
-326.143	-77.736	0.168	0.059
-325.129	58.004	0.096	0.094
-324.114	-33.275	0.107	-0.060
-323.099	-38.502	-0.103	-0.055
-322.085	-107.465	-0.469	0.103
-321.070	-146.930	0.073	0.006
-320.056	-29.142	0.224	0.129
-319.041	243.548	0.135	0.228
-318.026	-200.000	-0.007	0.156
-317.012	47.290	-0.253	-0.237
-315.997	-200.000	0.021	0.126
-314.983	57.067	-0.214	-0.210
-313.968	128.018	0.094	-0.120
-312.953	-123.065	0.266	0.043
-311.939	91.357	-0.070	-0.079
-310.924	-200.000	-0.017	0.187
-309.910	400.040	0.051	-0.108
-308.895	-43.432	-0.283	-0.144
-307.880	-162.742	0.391	0.019
-306.866	-200.000	0.009	-0.056
-305.851	-38.500	-0.163	0.087
-304.837	800.000	-0.048	-0.202
-303.822	-172.046	0.266	-0.009
-302.807	-59.234	0.217	0.094
-301.793	104.763	-0.233	-0.276
-300.778	-120.658	0.037	0.006
-299.764	-27.144	0.203	-0.119
-298.749	5.154	0.068	-0.051
-297.735	-200.000	0.004	-0.374
-296.720	-200.000	-0.008	-0.083
-295.705	-64.222	0.133	-0.054
-294.691	-70.414	0.394	0.150
-293.676	73.338	-0.117	0.123
-292.662	-200.000	0.032	-0.294
-291.647	-200.000	0.015	-0.142
-290.632	177.848	0.025	-0.037
-289.618	134.212	0.222	0.290
-288.603	800.000	0.115	0.391
-287.589	-183.736	-0.015	0.000
-286.574	30.197	-0.092	0.079
-285.559	-61.184	0.350	0.148
-284.545	68.147	-0.288	-0.297
-283.530	16.408	0.151	-0.120
-282.516	18.544	0.090	0.072
-281.501	77.851	0.142	0.152
-280.486	-169.240	-0.014	0.001
-279.472	-141.150	0.174	-0.018
-278.457	-80.542	0.082	-0.028
-277.443	-66.606	-0.235	-0.094
-276.428	-98.305	-0.294	0.076
-275.413	-141.949	0.207	-0.021
-274.399	349.678	0.069	0.137
-273.384	-35.222	-0.349	-0.191
-272.370	-200.000	0.009	0.050
-271.355	10.465	0.324	-0.248
-270.340	238.591	-0.228	0.381
-269.326	11.839	0.191	0.147
-268.311	12.487	0.025	0.020
-267.297	800.000	0.142	0.575
-266.282	-200.000	-0.037	0.356
-265.267	-76.264	0.234	-0.083
-264.253	-42.327	0.125	-0.064
-263.238	-200.000	-0.006	0.173
-262.224	-200.000	-0.071	0.362
-261.209	-132.270	0.414	-0.054
-260.195	-6.290	-0.104	-0.071
-259.180	800.000	0.054	0.231
-258.165	-144.403	-0.328	0.031
-257.151	288.362	0.030	0.054
-256.136	-19.897	0.183	0.113
-255.122	-200.000	0.032	0.364
-254.107	-1.091	0.130	0.092
-253.092	-200.000	0.010	-0.202
-252.078	44.985	-0.106	-0.098
-251.063	-200.000	0.008	-0.083
-250.049	-114.868	0.349	-0.067
-249.034	-106.378	-0.357	-0.080
-248.019	-133.773	0.224	0.028
-247.005	83.278	0.105	0.115
-245.990	-176.127	-0.459	0.012
-244.976	630.298	0.040	0.103
-243.961	-117.294	0.186	0.034
-242.946	-115.352	-0.293	0.055
-241.932	-59.482	-0.086	0.037
-240.917	273.662	-0.043	0.076
-239.903	21.056	-0.123	0.100
-238.888	800.000	0.109	0.310
-237.873	800.000	-0.041	0.143
-236.859	619.965	0.050	-0.125
-235.844	117.866	-0.139	0.171
-234.830	85.304	-0.275	0.302
-233.815	-85.283	0.211	-0.066
-232.800	-200.000	-0.043	-0.267
-231.786	-82.517	-0.195	0.063
-230.771	-91.011	0.334	-0.096
-229.757	264.073	-0.093	-0.163
-228.742	145.557	-0.197	0.265
-227.727	-200.000	-0.064	0.333
-226.713	71.786	0.221	0.230
-225.698	164.661	0.067	0.094
-224.684	-43.447	0.346	0.175
-223.669	448.702	-0.160	0.352
-222.655	-30.053	0.070	-0.040
-221.640	-177.538	-0.204	0.005
-220.625	-46.454	0.479	-0.235
-219.611	-16.920	-0.117	0.074
-218.596	-200.000	0.006	-0.195
-217.582	-119.427	0.178	-0.031
-216.567	-200.000	0.002	0.055
-215.552	-200.000	0.025	-0.177
-214.538	167.413	-0.215	0.306
-213.523	200.895	-0.225	-0.346
-212.509	-100.147	0.044	0.011
-211.494	-145.220	-0.117	0.011
-210.479	-200.000	-0.009	-0.132
-209.465	10.297	-0.167	-0.127
-208.450	800.000	0.047	0.137
-207.436	-200.000	-0.002	-0.026
-206.421	-85.278	0.215	-0.067
-205.406	-6.118	0.049	0.033
-204.392	800.000	0.064	0.254
-203.377	-103.390	0.274	-0.065
-202.363	-8.180	-0.292	0.197
-201.348	5.421	-0.110	-0.081
-200.333	-200.000	0.017	-0.125
-199.319	-200.000	-0.065	-0.428
-198.304	-53.054	-0.188	0.087
-197.290	-184.241	-0.328	-0.005
-196.275	-200.000	0.015	-0.127
-195.260	102.237	0.127	-0.148
-194.246	-118.289	-0.432	-0.077
-193.231	-1.811	0.055	-0.039
-192.217	-194.899	0.160	-0.001
-191.202	-154.838	-0.248	0.016
-190.187	97.282	0.121	-0.139
-189.173	-106.992	0.128	0.028
-188.158	-200.000	-0.004	-0.220
-187.144	172.125	0.095	-0.137
-186.129	-100.899	0.269	0.066
-185.114	-200.000	0.020	-0.119
-184.100	145.999	-0.159	0.214
-183.085	-24.125	-0.344	0.206
-182.071	-200.000	0.054	-0.338
-181.056	-200.000	0.014	0.101
-180.042	-5.304	0.095	0.066
-179.027	25.799	0.273	0.228
-178.012	-40.736	0.176	-0.091
-176.998	221.738	0.039	-0.063
-175.983	-141.864	0.074	0.007
-174.969	-13.436	0.212	-0.137
-173.954	21.381	-0.237	-0.193
-172.939	334.773	-0.188	-0.365
-171.925	471.138	0.011	0.025
-170.910	-174.764	0.402	-0.011
-169.896	800.000	-0.067	0.230
-168.881	417.202	-0.111	0.238
-167.866	800.000	-0.002	-0.004
-166.852	-108.730	0.586	-0.126
-165.837	-22.728	0.260	0.157
-164.823	26.699	-0.138	0.115
-163.808	79.533	-0.074	-0.079
-162.793	3.505	0.171	0.124
-161.779	800.000	-0.008	-0.027
-160.764	-200.000	0.001	-0.098
-159.750	201.850	-0.100	0.153
-158.735	75.900	0.176	-0.186
-157.720	196.190	-0.012	0.018
-156.706	-35.850	0.167	0.090
-155.691	53.094	0.196	-0.188
-154.677	-200.000	-0.016	0.231
-153.662	133.985	0.118	-0.153
-152.647	145.391	0.220	-0.294
-151.633	800.000	0.044	0.134
-150.618	-161.866	0.245	0.012
-149.604	179.270	-0.104	0.152
-148.589	-63.386	0.169	0.069
-147.574	-200.000	-0.027	-0.146
-146.560	31.896	-0.315	-0.271
-145.545	146.923	0.205	0.275
-144.531	-91.768	0.180	-0.051
-143.516	-22.988	0.372	-0.224
-142.502	161.707	-0.138	0.193
-141.487	-200.000	-0.003	0.074
-140.472	800.000	-0.150	-0.417
-139.458	-200.000	0.038	-0.243
-138.443	40.034	0.111	0.099
-137.429	296.549	0.046	0.085
-136.414	-52.427	0.283	0.131
-135.399	-200.000	0.031	0.307
-134.385	312.251	0.050	-0.093
-133.370	82.957	-0.202	-0.220
-132.356	28.027	-0.208	0.175
-131.341	-200.000	-0.024	0.287
-130.326	-69.052	-0.231	-0.089
-129.312	60.159	-0.080	-0.079
-128.297	800.000	-0.120	-0.424
-127.283	70.922	0.139	-0.143
-126.268	-76.220	0.157	-0.055
-125.253	-145.201	-0.237	0.021
-124.239	137.936	-0.078	0.102
-123.224	800.000	0.073	0.276
-122.210	-152.179	-0.149	-0.011
-121.195	90.649	-0.116	0.130
-120.180	59.092	0.080	-0.079
-119.166	305.725	-0.128	0.238
-118.151	59.183	0.449	-0.441
-117.137	-200.000	-0.041	0.346
-116.122	15.382	-0.185	0.145
-115.107	-65.857	0.446	-0.178
-114.093	377.230	0.140	0.286
-113.078	800.000	0.010	0.041
-112.064	-118.287	0.127	0.023
-111.049	-145.254	-0.123	0.011
-110.034	-5.078	-0.090	-0.062
-109.020	-49.565	-0.284	0.135
-108.005	43.553	0.093	-0.084
-106.991	-200.000	0.041	-0.237
-105.976	-200.000	0.021	-0.219
-104.962	-200.000	0.008	0.115
-103.947	88.088	0.049	0.055
-102.932	419.730	0.115	0.245
-101.918	145.788	0.144	-0.193
-100.903	800.000	-0.109	0.322
-99.889	-139.903	0.172	-0.018
-98.874	330.290	-0.087	0.167
-97.859	21.149	-0.282	-0.228
-96.845	-101.034	0.314	0.077
-95.830	-200.000	-0.000	0.157
-94.816	69.416	0.182	0.187
-93.801	-23.772	-0.202	0.121
-92.786	242.194	-0.086	0.143
-91.772	511.019	-0.118	-0.273
-90.757	-200.000	0.030	0.157
-89.743	-37.771	0.158	0.084
-88.728	-108.297	-0.197	0.042
-87.713	252.110	-0.059	0.100
-86.699	-110.911	0.170	0.035
-85.684	-79.724	-0.075	-0.025
-84.670	-116.688	-0.248	-0.045
-83.655	800.000	0.092	-0.288
-82.640	137.456	-0.234	-0.305
-81.626	133.204	0.059	0.075
-80.611	-142.829	0.076	0.007
-79.597	251.203	0.116	-0.197
-78.582	17.984	-0.345	0.274
-77.567	-35.993	0.190	0.102
-76.553	743.271	0.106	0.283
-75.538	526.034	0.059	0.139
-74.524	-59.657	-0.257	0.110
-73.509	-200.000	0.004	-0.101
-72.494	148.106	0.235	0.316
-71.480	602.166	-0.181	-0.449
-70.465	21.161	-0.231	0.186
-69.451	35.484	0.177	-0.155
-68.436	129.110	-0.100	0.127
-67.422	324.920	0.098	-0.187
-66.407	314.946	0.097	-0.183
-65.392	-90.284	-0.110	0.032
-64.378	327.543	0.049	-0.094
-63.363	-32.851	-0.190	0.105
-62.349	800.000	0.052	0.191
-61.334	112.594	-0.844	-1.017
-60.319	-22.273	0.539	0.325
-59.305	-200.000	-0.103	-1.031
-58.290	110.258	0.477	0.570
-57.276	588.872	0.603	1.480
-56.261	-200.000	89.915	513.622
-55.246	539.896	1395.293	3305.207
-54.232	183.587	2604.016	3831.616
-53.217	119.620	2207.678	2721.534
-52.203	47.199	1652.479	1530.936
-51.188	39.301	1384.432	1233.301
-50.173	36.117	1340.866	1175.077
-49.159	56.248	1386.205	1339.917
-48.144	60.682	1405.217	1385.690
-47.130	40.066	1361.560	1217.449
-46.115	36.299	1343.600	1178.398
-45.100	36.129	1338.460	1172.809
-44.086	35.947	1336.285	1169.751
-43.071	35.837	1334.260	1167.264
-42.057	35.921	1331.855	1165.619
-41.042	35.902	1330.250	1164.055
-40.027	35.891	1328.561	1162.465
-39.013	35.992	1326.340	1161.085
-37.998	35.949	1324.675	1159.321
-36.984	36.061	1323.116	1158.582
-35.969	36.169	1320.891	1157.236
-34.954	36.156	1319.196	1155.629
-33.940	36.201	1317.578	1154.438
-32.925	36.121	1316.795	1153.225
-31.911	36.110	1315.114	1151.641
-30.896	36.219	1313.169	1150.541
-29.881	36.151	1312.013	1149.081
-28.867	36.189	1310.723	1148.131
-27.852	36.223	1309.150	1146.907
-26.838	36.174	1307.835	1145.422
-25.823	36.155	1305.953	1143.612
-24.809	36.134	1304.932	1142.549
-23.794	36.211	1303.371	1141.592
-22.779	36.157	1301.878	1139.922
-21.765	36.085	1300.821	1138.528
-20.750	36.076	1299.576	1137.339
-19.736	36.027	1298.103	1135.714
-18.721	35.976	1297.144	1134.527
-17.706	35.951	1295.773	1133.139
-16.692	36.045	1294.363	1132.416
-15.677	36.072	1293.199	1131.509
-14.663	35.976	1292.418	1130.217
-13.648	35.927	1291.068	1128.707
-12.633	36.005	1289.915	1128.111
-11.619	35.944	1289.613	1127.445
-10.604	35.918	1288.490	1126.266
-9.590	36.002	1287.207	1125.587
-8.575	35.974	1286.416	1124.690
-7.560	35.991	1285.364	1123.823
-6.546	36.016	1284.967	1123.576
-5.531	35.993	1284.009	1122.562
-4.517	36.037	1282.633	1121.570
-3.502	36.010	1281.868	1120.699
-2.487	35.974	1280.926	1119.621
-1.473	36.051	1277.080	1116.661
-0.458	35.101	1261.119	1097.223
0.556	32.739	1242.014	1053.433
1.571	27.707	1245.154	1027.735
2.586	25.703	1257.919	1026.762
3.600	23.559	1245.642	1004.528
4.615	17.830	1172.543	914.869
5.629	9.387	1096.346	812.840
6.644	5.139	1075.157	775.975
7.659	4.845	1071.726	771.976
8.673	4.619	1070.161	769.661
9.688	4.509	1068.974	768.197
10.702	5.302	1068.216	771.501
11.717	10.333	1075.562	801.693
12.731	18.155	1086.750	848.941
13.746	21.690	1089.932	868.919
14.761	21.407	1089.548	867.133
15.775	20.532	1087.302	860.938
16.790	19.510	1085.314	854.230
17.804	18.732	1084.249	849.469
18.819	18.412	1083.134	846.937
19.834	18.305	1081.827	845.313
20.848	18.124	1081.318	843.948
21.863	17.910	1080.803	842.412
22.877	17.857	1079.522	841.079
23.892	17.651	1079.294	839.815
24.907	17.718	1078.103	839.140
25.921	17.725	1077.482	838.618
26.936	17.784	1075.966	837.654
27.950	17.966	1074.195	837.093
28.965	17.895	1073.278	835.956
29.980	18.001	1071.652	835.135
30.994	18.169	1070.292	834.824
32.009	18.195	1069.545	834.290
33.023	18.157	1067.967	832.802
34.038	18.058	1067.517	831.894
35.053	17.990	1066.153	830.429
36.067	17.882	1065.443	829.278
37.082	17.925	1064.804	828.916
38.096	17.936	1064.489	828.649
39.111	18.105	1063.322	828.489
40.126	17.952	1061.706	826.412
41.140	17.699	1060.144	823.903
42.155	17.532	1059.397	822.445
43.169	17.578	1058.210	821.670
44.184	17.397	1057.384	820.087
45.199	17.522	1056.354	819.812
46.213	17.544	1055.449	819.144
47.228	17.870	1054.203	819.671
48.242	17.805	1053.630	818.841
49.257	17.829	1051.990	817.611
50.271	17.874	1051.618	817.464
51.286	17.886	1050.935	816.919
52.301	17.919	1049.586	815.957
53.315	17.753	1048.422	814.186
54.330	17.594	1047.780	812.855
55.344	17.532	1046.708	811.656
56.359	17.645	1045.980	811.556
57.374	17.631	1044.513	810.281
58.388	17.508	1043.954	809.194
59.403	17.383	1043.055	807.829
60.417	17.480	1042.528	807.813
61.432	17.467	1041.367	806.781
62.447	17.213	1040.969	805.194
63.461	17.361	1039.929	805.019
64.476	17.198	1038.886	803.371
65.490	17.207	1038.149	802.774
66.505	17.319	1037.299	802.572
67.520	17.392	1036.493	802.222
68.534	17.307	1036.072	801.427
69.549	17.326	1035.128	800.712
70.563	17.333	1034.411	800.121
71.578	17.145	1033.838	798.722
72.593	17.018	1033.020	797.423
73.607	17.122	1031.501	796.669
74.622	17.166	1031.569	796.855
75.636	17.134	1030.890	796.111
76.651	17.106	1030.318	795.468
77.666	17.363	1029.368	795.865
78.680	17.221	1028.890	794.764
79.695	17.254	1028.532	794.570
80.709	17.396	1027.660	794.491
81.724	17.471	1027.156	794.378
82.739	17.577	1026.207	794.068
83.753	17.712	1025.664	794.209
84.768	18.054	1025.019	795.229
85.782	18.096	1024.203	794.722
86.797	18.088	1022.886	793.595
87.812	18.029	1021.980	792.545
88.826	17.835	1021.220	790.989
89.841	18.003	1020.158	790.873
90.855	18.140	1019.248	790.728
91.870	18.163	1018.228	789.975
92.884	18.125	1017.310	789.016
93.899	18.098	1016.564	788.248
94.914	18.252	1015.798	788.290
95.928	18.269	1015.226	787.856
96.943	18.045	1014.235	785.989
97.957	18.028	1013.125	784.979
98.972	18.061	1012.381	784.484
99.987	18.063	1011.282	783.573
101.001	18.035	1010.706	782.930
102.016	17.996	1009.903	782.057
103.030	17.944	1009.476	781.420
104.045	18.064	1008.550	781.185
105.060	17.893	1007.496	779.516
106.074	17.664	1006.301	777.481
107.089	17.523	1005.033	775.790
108.103	17.450	1004.085	774.654
109.118	17.474	1003.047	773.894
110.133	17.304	1002.193	772.396
111.147	17.461	1001.108	772.204
112.162	17.513	1000.561	771.949
113.176	17.617	999.461	771.505
114.191	17.550	998.971	770.755
115.206	17.642	998.090	770.424
116.220	17.490	997.526	769.232
117.235	17.674	996.144	768.926
118.249	17.512	995.389	767.549
119.264	17.466	994.689	766.733
120.279	17.422	993.995	765.933
121.293	17.427	992.738	764.918
122.308	17.262	991.882	763.448
123.322	17.261	991.043	762.729
124.337	17.281	990.002	761.952
125.352	17.206	989.307	761.012
126.366	17.222	988.153	760.130
127.381	17.331	986.887	759.577
128.395	17.309	986.123	758.824
129.410	17.374	985.186	758.326
130.424	17.394	984.627	757.914
131.439	17.573	983.711	757.943
132.454	17.683	982.848	757.697
133.468	17.757	982.295	757.534
134.483	17.648	981.764	756.574
135.497	17.565	980.694	755.312
136.512	17.674	979.506	754.814
137.527	17.622	979.036	754.155
138.541	17.769	978.076	753.998
139.556	17.735	977.616	753.427
140.570	17.928	976.803	753.586
141.585	18.004	976.316	753.478
142.600	18.051	975.414	752.923
143.614	18.143	974.591	752.626
144.629	18.200	973.889	752.266
145.643	18.150	972.328	750.778
146.658	17.818	971.562	748.660
147.673	17.718	970.474	747.321
148.687	17.621	969.395	745.998
149.702	17.708	968.338	745.498
150.716	17.633	967.594	744.531
151.731	17.770	966.967	744.583
152.746	17.635	966.254	743.379
153.760	17.877	965.610	743.869
154.775	17.863	964.827	743.143
155.789	17.918	964.645	743.175
156.804	17.952	963.433	742.324
157.819	18.067	962.985	742.411
158.833	18.201	962.578	742.613
159.848	18.162	961.778	741.762
160.862	18.132	960.599	740.659
161.877	17.785	959.441	738.199
162.892	17.586	958.327	736.416
163.906	17.738	957.244	736.172
164.921	17.805	956.344	735.704
165.935	17.771	955.703	735.002
166.950	17.864	954.665	734.537
167.964	17.857	953.772	733.758
168.979	17.817	952.757	732.739
169.994	17.796	951.824	731.866
171.008	17.820	951.836	731.914
172.023	18.071	950.696	732.047
173.037	18.179	950.306	732.144
174.052	18.009	949.627	730.828
175.067	17.798	948.871	729.280
176.081	17.675	948.642	728.513
177.096	17.775	947.426	727.942
178.110	17.845	946.887	727.762
179.125	17.676	946.703	726.837
180.140	17.823	945.870	726.757
181.154	17.934	945.438	726.836
182.169	18.039	944.990	726.874
183.183	18.198	944.233	726.901
184.198	18.175	943.555	726.218
185.213	18.222	942.429	725.485
186.227	18.207	942.274	725.242
187.242	18.258	941.497	724.792
188.256	18.418	941.077	725.082
189.271	18.416	940.117	724.272
190.286	18.036	938.788	721.578
191.300	17.706	938.154	719.635
192.315	17.550	937.562	718.459
193.329	17.665	937.142	718.558
194.344	17.866	936.460	718.820
195.359	18.006	935.481	718.595
196.373	18.007	935.745	718.737
197.388	18.241	934.853	718.969
198.402	18.398	934.613	719.381
199.417	18.660	933.731	719.738
200.432	18.504	933.513	718.851
201.446	18.678	933.108	719.206
202.461	18.781	932.302	718.952
203.475	18.735	931.606	718.158
204.490	18.331	931.118	716.030
205.504	18.269	930.172	714.979
206.519	18.377	929.129	714.565
207.534	18.221	928.734	713.551
208.548	18.321	927.697	713.106
209.563	18.363	926.896	712.600
210.577	18.435	926.380	712.441
211.592	18.477	926.220	712.431
212.607	18.625	925.555	712.469
213.621	18.383	924.866	710.874
214.636	18.437	923.829	710.237
215.650	18.441	923.098	709.627
216.665	18.588	922.566	709.765
217.680	18.703	922.007	709.749
218.694	18.653	921.615	709.177
219.709	18.662	920.781	708.506
220.723	18.624	920.098	707.762
221.738	18.610	919.221	706.967
222.753	18.541	918.715	706.234
223.767	18.798	917.783	706.510
224.782	18.869	917.364	706.416
225.796	18.862	917.483	706.419
226.811	18.687	916.438	704.831
227.826	18.587	915.687	703.784
228.840	18.607	914.927	703.216
229.855	18.500	913.950	701.966
230.869	18.538	912.832	701.203
231.884	18.522	912.345	700.698
232.899	18.504	911.525	699.935
233.913	18.447	911.029	699.258
234.928	18.551	909.943	698.786
235.942	18.381	909.715	697.858
236.957	18.501	908.857	697.626
237.972	18.482	908.540	697.245
238.986	18.622	907.594	697.027
240.001	18.560	907.171	696.386
241.015	18.562	906.956	696.170
242.030	18.658	906.166	695.890
243.045	18.785	905.497	695.828
244.059	18.773	904.975	695.319
245.074	18.709	904.127	694.344
246.088	18.937	903.867	695.007
247.103	18.879	903.464	694.401
248.117	18.952	903.377	694.566
249.132	19.153	902.731	694.820
250.147	19.352	902.464	695.355
251.161	19.458	901.559	695.023
252.176	19.569	900.649	694.707
253.190	19.510	900.175	694.042
254.205	19.580	899.526	693.762
255.220	19.448	898.916	692.699
256.234	19.503	897.957	692.122
257.249	19.413	897.558	691.390
258.263	19.447	896.395	690.572
259.278	19.453	896.285	690.448
260.293	19.509	895.754	690.204
261.307	19.544	895.443	690.040
262.322	19.624	894.350	689.459
263.336	19.693	893.527	689.038
264.351	19.850	892.779	689.027
265.366	19.743	892.335	688.197
266.380	19.572	891.799	687.042
267.395	19.617	891.003	686.547
268.409	19.447	890.292	685.263
269.424	19.432	889.407	684.459
270.439	19.462	888.631	683.921
271.453	19.345	888.041	682.945
272.468	19.274	887.476	682.168
273.482	19.362	886.932	682.038
274.497	19.464	886.269	681.868
275.512	19.533	885.762	681.692
276.526	19.471	885.313	681.044
277.541	19.523	884.822	680.809
278.555	19.682	884.411	681.057
279.570	20.002	883.423	681.496
280.585	19.679	882.768	679.660
281.599	19.637	882.002	678.848
282.614	19.544	881.353	677.921
283.628	19.428	880.904	677.063
284.643	19.510	880.211	676.791
285.657	19.563	879.694	676.541
286.672	19.543	878.768	675.693
287.687	19.508	878.358	675.179
288.701	19.749	877.382	675.309
289.716	19.654	877.120	674.676
290.730	19.652	876.543	674.166
291.745	19.782	876.024	674.216
292.760	19.803	875.492	673.827
293.774	19.865	875.091	673.701
294.789	19.928	874.372	673.333
295.803	19.681	873.673	671.776
296.818	19.665	872.755	670.947
297.833	19.743	872.224	670.781
298.847	19.693	871.474	669.950
299.862	19.818	870.864	669.908
300.876	19.880	870.551	669.846
301.891	20.069	869.927	670.040
302.906	20.100	869.754	669.965
303.920	20.244	869.179	670.021
304.935	20.250	868.715	669.628
305.949	20.175	867.951	668.690
306.964	20.120	866.943	667.640
307.979	20.053	866.936	667.320
308.993	20.038	866.367	666.763
310.008	20.129	865.452	666.352
311.022	19.995	864.690	665.190
312.037	19.939	863.937	664.340
313.052	19.918	863.241	663.665
314.066	19.694	863.091	662.630
315.081	19.800	861.987	662.130
316.095	19.831	861.649	661.932
317.110	19.757	861.329	661.344
318.125	19.844	860.476	660.963
319.139	19.787	860.313	660.560
320.154	19.852	859.572	660.183
321.168	19.939	859.164	660.140
322.183	19.869	858.574	659.362
323.197	19.899	858.037	659.006
324.212	20.053	857.493	659.115
325.227	20.048	856.779	658.489
326.241	19.885	856.142	657.324
327.256	19.925	855.590	656.992
328.270	19.896	855.211	656.533
329.285	19.894	854.388	655.836
330.300	19.818	853.803	655.042
331.314	19.798	853.629	654.774
332.329	20.138	853.069	655.573
333.343	20.192	852.851	655.550
334.358	20.059	852.519	654.736
335.373	20.134	851.886	654.474
336.387	20.165	851.706	654.395
337.402	20.444	851.257	655.046
338.416	20.367	851.177	654.635
339.431	20.436	850.755	654.514
340.446	20.493	850.651	654.590
341.460	20.608	849.864	654.358
342.475	20.556	849.820	654.071
343.489	20.598	849.502	653.928
344.504	20.743	848.961	653.997
345.519	20.823	848.496	653.882
346.533	20.796	847.966	653.315
347.548	20.598	846.804	651.621
348.562	20.484	846.158	650.638
349.577	20.431	845.403	649.801
350.592	20.217	844.785	648.470
351.606	20.192	843.980	647.700
352.621	20.354	843.510	647.888
353.635	20.510	842.884	647.929
354.650	20.419	842.224	647.026
355.665	20.507	841.507	646.745
356.679	20.569	841.199	646.684
357.694	20.493	840.736	645.985
358.708	20.685	839.520	645.708
359.723	20.557	839.213	644.940
360.738	20.547	838.839	644.557
361.752	20.507	838.374	643.995
362.767	20.845	837.760	644.720
363.781	20.815	837.371	644.251
364.796	21.048	836.646	644.496
365.810	21.129	836.511	644.635
366.825	21.037	836.334	644.101
367.840	21.057	835.552	643.517
368.854	20.969	835.280	642.926
369.869	20.769	834.450	641.494
370.883	20.900	834.153	641.690
371.898	20.887	834.296	641.695
372.913	21.161	833.394	641.954
373.927	20.997	833.038	641.020
374.942	20.936	832.340	640.200
375.956	21.243	831.871	640.910
376.971	21.254	831.694	640.757
377.986	21.193	831.079	640.003
379.000	21.170	830.601	639.494
380.015	21.243	830.063	639.292
381.029	21.317	829.482	639.060
382.044	21.280	828.730	638.285
383.059	21.379	828.580	638.478
384.073	21.241	827.481	637.068
385.088	20.955	826.856	635.489
386.102	21.073	826.104	635.286
387.117	21.091	825.472	634.807
388.132	20.981	824.999	633.987
389.146	21.003	824.907	633.942
390.161	21.164	824.186	633.916
391.175	21.216	823.992	633.900
392.190	21.178	822.931	632.889
393.205	21.187	822.919	632.857
394.219	21.028	822.319	631.762
395.234	20.830	822.270	630.952
396.248	20.871	821.434	630.403
397.263	20.740	821.003	629.543
398.278	20.884	820.501	629.624
399.292	20.868	820.219	629.294
400.307	20.860	819.653	628.774
401.321	20.919	819.382	628.724
402.336	20.996	818.707	628.426
403.350	21.155	818.216	628.566
404.365	21.261	817.855	628.618
405.380	21.373	817.408	628.621
406.394	21.438	817.002	628.486
407.409	21.326	817.011	628.036
408.423	21.598	816.541	628.594
409.438	21.593	816.224	628.278
410.453	21.537	815.948	627.807
411.467	21.701	815.114	627.699
412.482	21.689	814.838	627.387
413.496	21.844	814.501	627.627
414.511	21.657	814.210	626.680
415.526	21.676	813.562	626.191
416.540	21.679	813.066	625.765
417.555	21.643	812.330	625.016
418.569	21.656	812.130	624.851
419.584	21.764	811.469	624.675
420.599	21.656	810.999	623.872
421.613	156.269	1368.506	1784.175
422.628	135.915	1449.726	1784.298
